"1aP2 - RawData"
"Wavelength nm.","T%"
200.00,-0.000
201.00,0.003
202.00,0.001
203.00,-0.004
204.00,0.004
205.00,-0.001
206.00,-0.001
207.00,-0.000
208.00,0.002
209.00,0.002
210.00,0.003
211.00,0.002
212.00,-0.001
213.00,0.002
214.00,0.002
215.00,0.000
216.00,0.003
217.00,0.003
218.00,0.002
219.00,0.003
220.00,0.004
221.00,-0.001
222.00,0.003
223.00,0.003
224.00,0.000
225.00,-0.001
226.00,-0.000
227.00,0.001
228.00,0.001
229.00,0.000
230.00,0.000
231.00,0.001
232.00,0.001
233.00,0.003
234.00,0.000
235.00,0.002
236.00,0.000
237.00,0.002
238.00,0.001
239.00,-0.001
240.00,0.001
241.00,-0.001
242.00,0.000
243.00,0.000
244.00,0.002
245.00,-0.000
246.00,0.000
247.00,0.001
248.00,0.000
249.00,0.000
250.00,0.002
251.00,0.001
252.00,0.002
253.00,0.002
254.00,0.001
255.00,0.001
256.00,0.002
257.00,0.001
258.00,-0.000
259.00,-0.000
260.00,-0.002
261.00,0.002
262.00,-0.002
263.00,-0.000
264.00,-0.001
265.00,0.002
266.00,0.003
267.00,-0.002
268.00,-0.002
269.00,0.001
270.00,0.000
271.00,-0.001
272.00,0.001
273.00,-0.001
274.00,0.001
275.00,0.001
276.00,0.002
277.00,0.001
278.00,0.000
279.00,0.001
280.00,-0.000
281.00,0.001
282.00,-0.000
283.00,0.000
284.00,0.002
285.00,-0.001
286.00,-0.000
287.00,0.001
288.00,-0.001
289.00,-0.001
290.00,-0.001
291.00,0.001
292.00,0.002
293.00,0.002
294.00,0.000
295.00,0.000
296.00,0.001
297.00,0.001
298.00,0.002
299.00,0.003
300.00,0.004
301.00,0.008
302.00,0.009
303.00,0.014
304.00,0.021
305.00,0.032
306.00,0.050
307.00,0.073
308.00,0.119
309.00,0.182
310.00,0.250
311.00,0.339
312.00,0.456
313.00,0.618
314.00,0.802
315.00,1.050
316.00,1.317
317.00,1.665
318.00,2.019
319.00,2.484
320.00,2.977
321.00,3.531
322.00,4.160
323.00,4.862
324.00,5.602
325.00,6.327
326.00,7.114
327.00,7.976
328.00,8.845
329.00,9.722
330.00,10.659
331.00,11.540
332.00,12.439
333.00,13.407
334.00,14.316
335.00,15.285
336.00,16.188
337.00,17.125
338.00,18.006
339.00,18.792
340.00,19.623
341.00,20.433
342.00,21.175
343.00,21.854
344.00,22.577
345.00,23.264
346.00,23.824
347.00,24.457
348.00,24.995
349.00,25.473
350.00,25.986
351.00,26.447
352.00,26.809
353.00,27.239
354.00,27.559
355.00,27.941
356.00,28.256
357.00,28.574
358.00,28.814
359.00,29.100
360.00,29.326
361.00,29.498
362.00,29.687
363.00,29.908
364.00,30.045
365.00,30.178
366.00,30.379
367.00,30.392
368.00,30.498
369.00,30.563
370.00,30.617
371.00,30.707
372.00,30.668
373.00,30.590
374.00,30.626
375.00,30.568
376.00,30.593
377.00,30.582
378.00,30.520
379.00,30.382
380.00,30.398
381.00,30.359
382.00,30.403
383.00,30.404
384.00,30.476
385.00,30.497
386.00,30.558
387.00,30.686
388.00,30.747
389.00,30.746
390.00,30.803
391.00,30.867
392.00,30.899
393.00,30.928
394.00,30.945
395.00,31.021
396.00,30.991
397.00,31.035
398.00,31.087
399.00,31.060
400.00,31.087
401.00,31.064
402.00,31.103
403.00,31.091
404.00,31.058
405.00,31.068
406.00,31.038
407.00,30.982
408.00,31.041
409.00,30.944
410.00,30.936
411.00,30.942
412.00,30.927
413.00,30.945
414.00,30.945
415.00,30.900
416.00,30.942
417.00,30.957
418.00,30.955
419.00,31.026
420.00,30.980
421.00,31.161
422.00,31.139
423.00,31.150
424.00,31.236
425.00,31.253
426.00,31.288
427.00,31.352
428.00,31.414
429.00,31.455
430.00,31.503
431.00,31.518
432.00,31.589
433.00,31.666
434.00,31.678
435.00,31.747
436.00,31.839
437.00,31.874
438.00,32.001
439.00,32.051
440.00,32.072
441.00,32.164
442.00,32.277
443.00,32.346
444.00,32.398
445.00,32.474
446.00,32.576
447.00,32.687
448.00,32.788
449.00,32.924
450.00,32.988
451.00,33.058
452.00,33.202
453.00,33.322
454.00,33.414
455.00,33.510
456.00,33.592
457.00,33.773
458.00,33.823
459.00,33.959
460.00,34.090
461.00,34.162
462.00,34.307
463.00,34.401
464.00,34.544
465.00,34.622
466.00,34.740
467.00,34.834
468.00,34.969
469.00,35.116
470.00,35.139
471.00,35.269
472.00,35.365
473.00,35.458
474.00,35.517
475.00,35.656
476.00,35.750
477.00,35.863
478.00,35.965
479.00,36.109
480.00,36.241
481.00,36.333
482.00,36.487
483.00,36.653
484.00,36.745
485.00,36.933
486.00,37.046
487.00,37.164
488.00,37.276
489.00,37.443
490.00,37.565
491.00,37.657
492.00,37.860
493.00,37.876
494.00,37.951
495.00,38.106
496.00,38.114
497.00,38.333
498.00,38.545
499.00,38.649
500.00,38.738
501.00,38.790
502.00,38.922
503.00,39.079
504.00,39.111
505.00,39.230
506.00,39.414
507.00,39.457
508.00,39.517
509.00,39.693
510.00,39.788
511.00,39.867
512.00,39.966
513.00,40.085
514.00,40.251
515.00,40.294
516.00,40.394
517.00,40.436
518.00,40.513
519.00,40.653
520.00,40.776
521.00,40.764
522.00,40.879
523.00,40.911
524.00,40.994
525.00,41.082
526.00,41.160
527.00,41.182
528.00,41.235
529.00,41.270
530.00,41.387
531.00,41.576
532.00,41.628
533.00,41.754
534.00,41.806
535.00,41.909
536.00,41.931
537.00,41.997
538.00,42.055
539.00,42.078
540.00,42.134
541.00,42.194
542.00,42.237
543.00,42.277
544.00,42.388
545.00,42.418
546.00,42.411
547.00,42.517
548.00,42.531
549.00,42.613
550.00,42.669
551.00,42.740
552.00,42.805
553.00,42.840
554.00,42.919
555.00,42.933
556.00,42.992
557.00,43.023
558.00,43.059
559.00,43.131
560.00,43.164
561.00,43.247
562.00,43.264
563.00,43.289
564.00,43.321
565.00,43.372
566.00,43.381
567.00,43.356
568.00,43.458
569.00,43.427
570.00,43.304
571.00,43.474
572.00,43.452
573.00,43.516
574.00,43.561
575.00,43.572
576.00,43.593
577.00,43.655
578.00,43.687
579.00,43.714
580.00,43.797
581.00,43.875
582.00,43.945
583.00,43.964
584.00,44.071
585.00,44.078
586.00,44.075
587.00,44.187
588.00,44.185
589.00,44.226
590.00,44.259
591.00,44.296
592.00,44.284
593.00,44.263
594.00,44.360
595.00,44.347
596.00,44.454
597.00,44.454
598.00,44.504
599.00,44.491
600.00,44.579
601.00,44.602
602.00,44.597
603.00,44.653
604.00,44.677
605.00,44.725
606.00,44.717
607.00,44.758
608.00,44.801
609.00,44.730
610.00,44.757
611.00,44.832
612.00,44.926
613.00,44.909
614.00,44.986
615.00,44.954
616.00,45.029
617.00,45.076
618.00,45.042
619.00,45.182
620.00,45.191
621.00,45.230
622.00,45.282
623.00,45.295
624.00,45.361
625.00,45.369
626.00,45.397
627.00,45.505
628.00,45.452
629.00,45.515
630.00,45.639
631.00,45.495
632.00,45.572
633.00,45.673
634.00,45.629
635.00,45.725
636.00,45.721
637.00,45.878
638.00,46.005
639.00,46.013
640.00,46.072
641.00,46.030
642.00,46.084
643.00,46.208
644.00,46.328
645.00,46.323
646.00,46.456
647.00,46.443
648.00,46.470
649.00,46.563
650.00,46.590
651.00,46.642
652.00,46.660
653.00,46.743
654.00,46.770
655.00,46.735
656.00,46.818
657.00,47.022
658.00,47.074
659.00,47.186
660.00,47.096
661.00,47.039
662.00,47.262
663.00,47.286
664.00,47.500
665.00,47.491
666.00,47.510
667.00,47.694
668.00,47.653
669.00,47.868
670.00,47.914
671.00,47.856
672.00,48.014
673.00,47.959
674.00,48.012
675.00,48.109
676.00,48.297
677.00,48.302
678.00,48.319
679.00,48.441
680.00,48.475
681.00,48.559
682.00,48.668
683.00,48.604
684.00,48.797
685.00,48.869
686.00,48.678
687.00,48.943
688.00,49.022
689.00,48.953
690.00,49.020
691.00,49.060
692.00,48.986
693.00,49.101
694.00,49.170
695.00,49.351
696.00,49.178
697.00,49.359
698.00,49.439
699.00,49.639
700.00,49.694
701.00,49.674
702.00,49.780
703.00,49.859
704.00,49.979
705.00,49.781
706.00,49.931
707.00,50.041
708.00,49.879
709.00,49.964
710.00,50.248
711.00,50.104
712.00,50.147
713.00,50.207
714.00,50.180
715.00,50.396
716.00,50.353
717.00,50.456
718.00,50.496
719.00,50.374
720.00,50.491
721.00,54.801
722.00,54.802
723.00,54.772
724.00,54.774
725.00,54.762
726.00,54.718
727.00,54.707
728.00,54.764
729.00,54.722
730.00,54.718
731.00,54.716
732.00,54.749
733.00,54.817
734.00,54.745
735.00,54.837
736.00,54.716
737.00,54.844
738.00,54.888
739.00,54.894
740.00,54.923
741.00,54.877
742.00,54.914
743.00,54.812
744.00,54.818
745.00,54.839
746.00,54.789
747.00,54.783
748.00,54.794
749.00,54.750
750.00,54.747
751.00,54.710
752.00,54.754
753.00,54.703
754.00,54.717
755.00,54.670
756.00,54.673
757.00,54.671
758.00,54.683
759.00,54.674
760.00,54.664
761.00,54.643
762.00,54.624
763.00,54.676
764.00,54.620
765.00,54.619
766.00,54.642
767.00,54.664
768.00,54.680
769.00,54.569
770.00,54.693
771.00,54.609
772.00,54.661
773.00,54.609
774.00,54.567
775.00,54.639
776.00,54.458
777.00,54.653
778.00,54.558
779.00,54.533
780.00,54.537
781.00,54.553
782.00,54.571
783.00,54.485
784.00,54.529
785.00,54.556
786.00,54.503
787.00,54.437
788.00,54.424
789.00,54.451
790.00,54.398
791.00,54.480
792.00,54.371
793.00,54.375
794.00,54.298
795.00,54.259
796.00,54.380
797.00,54.193
798.00,54.259
799.00,54.235
800.00,54.170
801.00,54.241
802.00,54.187
803.00,54.173
804.00,54.119
805.00,54.129
806.00,54.120
807.00,54.050
808.00,54.091
809.00,54.066
810.00,54.000
811.00,53.968
812.00,54.041
813.00,54.005
814.00,54.075
815.00,53.904
816.00,53.944
817.00,53.929
818.00,53.825
819.00,53.883
820.00,53.753
821.00,53.781
822.00,53.869
823.00,53.745
824.00,53.771
825.00,53.824
826.00,53.800
827.00,53.830
828.00,53.755
829.00,53.757
830.00,53.783
831.00,56.186
832.00,56.192
833.00,56.172
834.00,56.115
835.00,56.087
836.00,56.111
837.00,56.044
838.00,56.057
839.00,56.068
840.00,56.011
841.00,55.964
842.00,55.958
843.00,55.953
844.00,55.913
845.00,55.842
846.00,56.026
847.00,55.842
848.00,55.874
849.00,55.789
850.00,55.777
851.00,55.731
852.00,55.714
853.00,55.689
854.00,55.669
855.00,55.622
856.00,55.595
857.00,55.662
858.00,55.561
859.00,55.503
860.00,55.541
861.00,55.473
862.00,55.478
863.00,55.474
864.00,55.468
865.00,55.470
866.00,55.445
867.00,55.451
868.00,55.418
869.00,55.421
870.00,55.417
871.00,55.382
872.00,55.372
873.00,55.399
874.00,55.372
875.00,55.347
876.00,55.356
877.00,55.330
878.00,55.324
879.00,55.309
880.00,55.285
881.00,55.273
882.00,55.274
883.00,55.268
884.00,55.205
885.00,55.223
886.00,55.199
887.00,55.167
888.00,55.135
889.00,55.126
890.00,55.096
891.00,55.090
892.00,55.094
893.00,55.028
894.00,55.033
895.00,54.998
896.00,55.008
897.00,54.934
898.00,55.041
899.00,54.969
900.00,54.920
901.00,55.029
902.00,54.943
903.00,54.907
904.00,54.877
905.00,54.865
906.00,54.871
907.00,54.849
908.00,54.809
909.00,54.787
910.00,54.753
911.00,54.757
912.00,54.718
913.00,54.814
914.00,54.688
915.00,54.671
916.00,54.644
917.00,54.622
918.00,54.627
919.00,54.549
920.00,54.563
921.00,54.570
922.00,54.563
923.00,54.511
924.00,54.496
925.00,54.483
926.00,54.483
927.00,54.443
928.00,54.438
929.00,54.405
930.00,54.396
931.00,54.354
932.00,54.345
933.00,54.363
934.00,54.358
935.00,54.340
936.00,54.301
937.00,54.273
938.00,54.270
939.00,54.269
940.00,54.248
941.00,54.239
942.00,54.202
943.00,54.202
944.00,54.165
945.00,54.180
946.00,54.166
947.00,54.131
948.00,54.115
949.00,54.098
950.00,54.070
951.00,54.036
952.00,54.023
953.00,53.990
954.00,53.967
955.00,53.938
956.00,53.930
957.00,53.911
958.00,53.893
959.00,53.858
960.00,53.837
961.00,53.847
962.00,53.842
963.00,53.794
964.00,53.794
965.00,53.777
966.00,53.785
967.00,53.753
968.00,53.769
969.00,53.757
970.00,53.723
971.00,53.780
972.00,53.770
973.00,53.768
974.00,53.775
975.00,53.764
976.00,53.777
977.00,53.769
978.00,53.808
979.00,53.757
980.00,53.790
981.00,53.780
982.00,53.765
983.00,53.763
984.00,53.768
985.00,53.758
986.00,53.712
987.00,53.751
988.00,53.699
989.00,53.689
990.00,53.689
991.00,53.686
992.00,53.705
993.00,53.649
994.00,53.654
995.00,53.633
996.00,53.646
997.00,53.621
998.00,53.599
999.00,53.616
1000.00,53.567
1001.00,53.580
1002.00,53.558
1003.00,53.578
1004.00,53.539
1005.00,53.513
1006.00,53.528
1007.00,53.510
1008.00,53.514
1009.00,53.489
1010.00,53.481
1011.00,53.459
1012.00,53.440
1013.00,53.440
1014.00,53.423
1015.00,53.432
1016.00,53.376
1017.00,53.373
1018.00,53.347
1019.00,53.344
1020.00,53.322
1021.00,53.309
1022.00,53.303
1023.00,53.259
1024.00,53.267
1025.00,53.266
1026.00,53.251
1027.00,53.221
1028.00,53.230
1029.00,53.205
1030.00,53.175
1031.00,53.186
1032.00,53.137
1033.00,53.138
1034.00,53.105
1035.00,53.097
1036.00,53.080
1037.00,53.050
1038.00,53.021
1039.00,53.016
1040.00,53.017
1041.00,52.983
1042.00,53.005
1043.00,52.967
1044.00,53.008
1045.00,52.970
1046.00,52.973
1047.00,52.981
1048.00,52.984
1049.00,53.005
1050.00,53.034
1051.00,53.041
1052.00,53.044
1053.00,53.057
1054.00,53.055
1055.00,53.078
1056.00,53.083
1057.00,53.083
1058.00,53.071
1059.00,53.058
1060.00,53.064
1061.00,53.059
1062.00,53.038
1063.00,53.055
1064.00,53.038
1065.00,53.037
1066.00,53.015
1067.00,53.029
1068.00,53.034
1069.00,53.021
1070.00,52.990
1071.00,52.975
1072.00,52.993
1073.00,52.960
1074.00,52.982
1075.00,52.971
1076.00,52.973
1077.00,52.956
1078.00,52.934
1079.00,52.934
1080.00,52.964
1081.00,52.926
1082.00,52.914
1083.00,52.915
1084.00,52.911
1085.00,52.912
1086.00,52.907
1087.00,52.903
1088.00,52.904
1089.00,52.882
1090.00,52.888
1091.00,52.895
1092.00,52.878
1093.00,52.853
1094.00,52.844
1095.00,52.829
1096.00,52.814
1097.00,52.806
1098.00,52.795
1099.00,52.778
1100.00,52.781
1101.00,52.764
1102.00,52.773
1103.00,52.760
1104.00,52.751
1105.00,52.740
1106.00,52.726
1107.00,52.719
1108.00,52.726
1109.00,52.704
1110.00,52.730
1111.00,52.714
1112.00,52.673
1113.00,52.684
1114.00,52.669
1115.00,52.671
1116.00,52.674
1117.00,52.642
1118.00,52.652
1119.00,52.665
1120.00,52.658
1121.00,52.644
1122.00,52.627
1123.00,52.607
1124.00,52.615
1125.00,52.622
1126.00,52.632
1127.00,52.621
1128.00,52.602
1129.00,52.571
1130.00,52.573
1131.00,52.570
1132.00,52.567
1133.00,52.567
1134.00,52.552
1135.00,52.549
1136.00,52.550
1137.00,52.544
1138.00,52.553
1139.00,52.541
1140.00,52.541
1141.00,52.524
1142.00,52.509
1143.00,52.543
1144.00,52.523
1145.00,52.510
1146.00,52.527
1147.00,52.507
1148.00,52.507
1149.00,52.505
1150.00,52.527
1151.00,52.543
1152.00,52.512
1153.00,52.497
1154.00,52.504
1155.00,52.504
1156.00,52.499
1157.00,52.512
1158.00,52.496
1159.00,52.494
1160.00,52.487
1161.00,52.501
1162.00,52.499
1163.00,52.503
1164.00,52.489
1165.00,52.495
1166.00,52.488
1167.00,52.480
1168.00,52.497
1169.00,52.486
1170.00,52.475
1171.00,52.486
1172.00,52.500
1173.00,52.471
1174.00,52.489
1175.00,52.473
1176.00,52.478
1177.00,52.474
1178.00,52.464
1179.00,52.502
1180.00,52.480
1181.00,52.484
1182.00,52.493
1183.00,52.468
1184.00,52.468
1185.00,52.480
1186.00,52.471
1187.00,52.500
1188.00,52.444
1189.00,52.470
1190.00,52.453
1191.00,52.438
1192.00,52.463
1193.00,52.458
1194.00,52.464
1195.00,52.433
1196.00,52.477
1197.00,52.469
1198.00,52.484
1199.00,52.498
1200.00,52.492
1201.00,52.474
1202.00,52.445
1203.00,52.447
1204.00,52.446
1205.00,52.474
1206.00,52.451
1207.00,52.472
1208.00,52.439
1209.00,52.451
1210.00,52.449
1211.00,52.451
1212.00,52.493
1213.00,52.428
1214.00,52.456
1215.00,52.444
1216.00,52.456
1217.00,52.460
1218.00,52.451
1219.00,52.453
1220.00,52.444
1221.00,52.477
1222.00,52.461
1223.00,52.484
1224.00,52.464
1225.00,52.448
1226.00,52.459
1227.00,52.455
1228.00,52.467
1229.00,52.476
1230.00,52.490
1231.00,52.492
1232.00,52.543
1233.00,52.538
1234.00,52.537
1235.00,52.528
1236.00,52.533
1237.00,52.532
1238.00,52.531
1239.00,52.525
1240.00,52.528
1241.00,52.530
1242.00,52.527
1243.00,52.539
1244.00,52.510
1245.00,52.547
1246.00,52.537
1247.00,52.553
1248.00,52.556
1249.00,52.544
1250.00,52.556
1251.00,52.567
1252.00,52.578
1253.00,52.576
1254.00,52.583
1255.00,52.574
1256.00,52.567
1257.00,52.535
1258.00,52.557
1259.00,52.568
1260.00,52.585
1261.00,52.576
1262.00,52.585
1263.00,52.571
1264.00,52.598
1265.00,52.602
1266.00,52.601
1267.00,52.621
1268.00,52.622
1269.00,52.621
1270.00,52.647
1271.00,52.638
1272.00,52.654
1273.00,52.673
1274.00,52.658
1275.00,52.667
1276.00,52.683
1277.00,52.680
1278.00,52.692
1279.00,52.683
1280.00,52.670
1281.00,52.689
1282.00,52.688
1283.00,52.685
1284.00,52.710
1285.00,52.689
1286.00,52.727
1287.00,52.717
1288.00,52.701
1289.00,52.710
1290.00,52.742
1291.00,52.751
1292.00,52.735
1293.00,52.766
1294.00,52.781
1295.00,52.783
1296.00,52.794
1297.00,52.809
1298.00,52.812
1299.00,52.787
1300.00,52.808
1301.00,52.794
1302.00,52.810
1303.00,52.810
1304.00,52.802
1305.00,52.838
1306.00,52.831
1307.00,52.825
1308.00,52.831
1309.00,52.826
1310.00,52.807
1311.00,52.805
1312.00,52.824
1313.00,52.834
1314.00,52.862
1315.00,52.865
1316.00,52.882
1317.00,52.886
1318.00,52.906
1319.00,52.910
1320.00,52.897
1321.00,53.072
1322.00,53.101
1323.00,53.084
1324.00,53.035
1325.00,53.014
1326.00,53.027
1327.00,53.038
1328.00,53.045
1329.00,53.017
1330.00,53.051
1331.00,53.057
1332.00,53.054
1333.00,53.070
1334.00,53.070
1335.00,53.107
1336.00,53.114
1337.00,53.135
1338.00,53.222
1339.00,53.247
1340.00,53.303
1341.00,53.366
1342.00,53.414
1343.00,53.464
1344.00,53.542
1345.00,53.566
1346.00,53.593
1347.00,53.643
1348.00,53.662
1349.00,53.696
1350.00,53.658
1351.00,53.687
1352.00,53.723
1353.00,53.414
1354.00,53.732
1355.00,53.740
1356.00,53.772
1357.00,53.715
1358.00,53.771
1359.00,53.767
1360.00,53.727
1361.00,53.828
1362.00,53.783
1363.00,53.859
1364.00,53.922
1365.00,53.862
1366.00,54.135
1367.00,53.793
1368.00,53.752
1369.00,53.740
1370.00,53.776
1371.00,53.794
1372.00,53.769
1373.00,53.759
1374.00,53.796
1375.00,53.767
1376.00,53.769
1377.00,53.819
1378.00,53.896
1379.00,53.750
1380.00,53.820
1381.00,53.693
1382.00,53.866
1383.00,53.738
1384.00,53.759
1385.00,53.874
1386.00,53.755
1387.00,53.731
1388.00,53.742
1389.00,53.838
1390.00,53.673
1391.00,53.753
1392.00,53.751
1393.00,53.738
1394.00,53.741
1395.00,53.694
1396.00,53.724
1397.00,53.812
1398.00,53.775
1399.00,53.711
1400.00,53.810
1401.00,53.740
1402.00,53.790
1403.00,53.753
1404.00,53.753
1405.00,53.769
1406.00,53.804
1407.00,53.822
1408.00,53.817
1409.00,53.825
1410.00,53.850
1411.00,53.791
1412.00,53.824
1413.00,53.664
1414.00,53.795
1415.00,53.840
1416.00,53.869
1417.00,53.847
1418.00,53.881
1419.00,53.909
1420.00,53.923
1421.00,53.951
1422.00,53.930
1423.00,53.960
1424.00,53.959
1425.00,53.949
1426.00,53.956
1427.00,53.992
1428.00,53.964
1429.00,54.006
1430.00,54.021
1431.00,54.019
1432.00,54.033
1433.00,54.052
1434.00,54.016
1435.00,54.054
1436.00,54.084
1437.00,54.081
1438.00,54.097
1439.00,54.123
1440.00,54.149
1441.00,54.154
1442.00,54.153
1443.00,54.215
1444.00,54.234
1445.00,54.222
1446.00,54.230
1447.00,54.239
1448.00,54.272
1449.00,54.297
1450.00,54.297
1451.00,54.308
1452.00,54.330
1453.00,54.333
1454.00,54.363
1455.00,54.375
1456.00,54.375
1457.00,54.405
1458.00,54.370
1459.00,54.443
1460.00,54.451
1461.00,54.443
1462.00,54.483
1463.00,54.476
1464.00,54.491
1465.00,54.521
1466.00,54.512
1467.00,54.530
1468.00,54.590
1469.00,54.546
1470.00,54.555
1471.00,54.602
1472.00,54.588
1473.00,54.625
1474.00,54.652
1475.00,54.666
1476.00,54.694
1477.00,54.645
1478.00,54.671
1479.00,54.701
1480.00,54.694
1481.00,54.709
1482.00,54.737
1483.00,54.735
1484.00,54.744
1485.00,54.764
1486.00,54.768
1487.00,54.802
1488.00,54.789
1489.00,54.803
1490.00,54.826
1491.00,54.817
1492.00,54.836
1493.00,54.847
1494.00,54.861
1495.00,54.867
1496.00,54.894
1497.00,54.893
1498.00,54.901
1499.00,54.914
1500.00,54.915
1501.00, 
1502.00, 
1503.00, 
1504.00, 
1505.00, 
1506.00, 
1507.00, 
1508.00, 
1509.00, 
1510.00, 
1511.00, 
1512.00, 
1513.00, 
1514.00, 
1515.00, 
1516.00, 
1517.00, 
1518.00, 
1519.00, 
1520.00, 
1521.00, 
1522.00, 
1523.00, 
1524.00, 
1525.00, 
1526.00, 
1527.00, 
1528.00, 
1529.00, 
1530.00, 
1531.00, 
1532.00, 
1533.00, 
1534.00, 
1535.00, 
1536.00, 
1537.00, 
1538.00, 
1539.00, 
1540.00, 
1541.00, 
1542.00, 
1543.00, 
1544.00, 
1545.00, 
1546.00, 
1547.00, 
1548.00, 
1549.00, 
1550.00, 
1551.00, 
1552.00, 
1553.00, 
1554.00, 
1555.00, 
1556.00, 
1557.00, 
1558.00, 
1559.00, 
1560.00, 
1561.00, 
1562.00, 
1563.00, 
1564.00, 
1565.00, 
1566.00, 
1567.00, 
1568.00, 
1569.00, 
1570.00, 
1571.00, 
1572.00, 
1573.00, 
1574.00, 
1575.00, 
1576.00, 
1577.00, 
1578.00, 
1579.00, 
1580.00, 
1581.00, 
1582.00, 
1583.00, 
1584.00, 
1585.00, 
1586.00, 
1587.00, 
1588.00, 
1589.00, 
1590.00, 
1591.00, 
1592.00, 
1593.00, 
1594.00, 
1595.00, 
1596.00, 
1597.00, 
1598.00, 
1599.00, 
1600.00, 
1601.00, 
1602.00, 
1603.00, 
1604.00, 
1605.00, 
1606.00, 
1607.00, 
1608.00, 
1609.00, 
1610.00, 
1611.00, 
1612.00, 
1613.00, 
1614.00, 
1615.00, 
1616.00, 
1617.00, 
1618.00, 
1619.00, 
1620.00, 
1621.00, 
1622.00, 
1623.00, 
1624.00, 
1625.00, 
1626.00, 
1627.00, 
1628.00, 
1629.00, 
1630.00, 
1631.00, 
1632.00, 
1633.00, 
1634.00, 
1635.00, 
1636.00, 
1637.00, 
1638.00, 
1639.00, 
1640.00, 
1641.00, 
1642.00, 
1643.00, 
1644.00, 
1645.00, 
1646.00, 
1647.00, 
1648.00, 
1649.00, 
1650.00, 
1651.00, 
1652.00, 
1653.00, 
1654.00, 
1655.00, 
1656.00, 
1657.00, 
1658.00, 
1659.00, 
1660.00, 
1661.00, 
1662.00, 
1663.00, 
1664.00, 
1665.00, 
1666.00, 
1667.00, 
1668.00, 
1669.00, 
1670.00, 
1671.00, 
1672.00, 
1673.00, 
1674.00, 
1675.00, 
1676.00, 
1677.00, 
1678.00, 
1679.00, 
1680.00, 
1681.00, 
1682.00, 
1683.00, 
1684.00, 
1685.00, 
1686.00, 
1687.00, 
1688.00, 
1689.00, 
1690.00, 
1691.00, 
1692.00, 
1693.00, 
1694.00, 
1695.00, 
1696.00, 
1697.00, 
1698.00, 
1699.00, 
1700.00, 
1701.00, 
1702.00, 
1703.00, 
1704.00, 
1705.00, 
1706.00, 
1707.00, 
1708.00, 
1709.00, 
1710.00, 
1711.00, 
1712.00, 
1713.00, 
1714.00, 
1715.00, 
1716.00, 
1717.00, 
1718.00, 
1719.00, 
1720.00, 
1721.00, 
1722.00, 
1723.00, 
1724.00, 
1725.00, 
1726.00, 
1727.00, 
1728.00, 
1729.00, 
1730.00, 
1731.00, 
1732.00, 
1733.00, 
1734.00, 
1735.00, 
1736.00, 
1737.00, 
1738.00, 
1739.00, 
1740.00, 
1741.00, 
1742.00, 
1743.00, 
1744.00, 
1745.00, 
1746.00, 
1747.00, 
1748.00, 
1749.00, 
1750.00, 
1751.00, 
1752.00, 
1753.00, 
1754.00, 
1755.00, 
1756.00, 
1757.00, 
1758.00, 
1759.00, 
1760.00, 
1761.00, 
1762.00, 
1763.00, 
1764.00, 
1765.00, 
1766.00, 
1767.00, 
1768.00, 
1769.00, 
1770.00, 
1771.00, 
1772.00, 
1773.00, 
1774.00, 
1775.00, 
1776.00, 
1777.00, 
1778.00, 
1779.00, 
1780.00, 
1781.00, 
1782.00, 
1783.00, 
1784.00, 
1785.00, 
1786.00, 
1787.00, 
1788.00, 
1789.00, 
1790.00, 
1791.00, 
1792.00, 
1793.00, 
1794.00, 
1795.00, 
1796.00, 
1797.00, 
1798.00, 
1799.00, 
1800.00, 
1801.00, 
1802.00, 
1803.00, 
1804.00, 
1805.00, 
1806.00, 
1807.00, 
1808.00, 
1809.00, 
1810.00, 
1811.00, 
1812.00, 
1813.00, 
1814.00, 
1815.00, 
1816.00, 
1817.00, 
1818.00, 
1819.00, 
1820.00, 
1821.00, 
1822.00, 
1823.00, 
1824.00, 
1825.00, 
1826.00, 
1827.00, 
1828.00, 
1829.00, 
1830.00, 
1831.00, 
1832.00, 
1833.00, 
1834.00, 
1835.00, 
1836.00, 
1837.00, 
1838.00, 
1839.00, 
1840.00, 
1841.00, 
1842.00, 
1843.00, 
1844.00, 
1845.00, 
1846.00, 
1847.00, 
1848.00, 
1849.00, 
1850.00, 
1851.00, 
1852.00, 
1853.00, 
1854.00, 
1855.00, 
1856.00, 
1857.00, 
1858.00, 
1859.00, 
1860.00, 
1861.00, 
1862.00, 
1863.00, 
1864.00, 
1865.00, 
1866.00, 
1867.00, 
1868.00, 
1869.00, 
1870.00, 
1871.00, 
1872.00, 
1873.00, 
1874.00, 
1875.00, 
1876.00, 
1877.00, 
1878.00, 
1879.00, 
1880.00, 
1881.00, 
1882.00, 
1883.00, 
1884.00, 
1885.00, 
1886.00, 
1887.00, 
1888.00, 
1889.00, 
1890.00, 
1891.00, 
1892.00, 
1893.00, 
1894.00, 
1895.00, 
1896.00, 
1897.00, 
1898.00, 
1899.00, 
1900.00, 
1901.00, 
1902.00, 
1903.00, 
1904.00, 
1905.00, 
1906.00, 
1907.00, 
1908.00, 
1909.00, 
1910.00, 
1911.00, 
1912.00, 
1913.00, 
1914.00, 
1915.00, 
1916.00, 
1917.00, 
1918.00, 
1919.00, 
1920.00, 
1921.00, 
1922.00, 
1923.00, 
1924.00, 
1925.00, 
1926.00, 
1927.00, 
1928.00, 
1929.00, 
1930.00, 
1931.00, 
1932.00, 
1933.00, 
1934.00, 
1935.00, 
1936.00, 
1937.00, 
1938.00, 
1939.00, 
1940.00, 
1941.00, 
1942.00, 
1943.00, 
1944.00, 
1945.00, 
1946.00, 
1947.00, 
1948.00, 
1949.00, 
1950.00, 
1951.00, 
1952.00, 
1953.00, 
1954.00, 
1955.00, 
1956.00, 
1957.00, 
1958.00, 
1959.00, 
1960.00, 
1961.00, 
1962.00, 
1963.00, 
1964.00, 
1965.00, 
1966.00, 
1967.00, 
1968.00, 
1969.00, 
1970.00, 
1971.00, 
1972.00, 
1973.00, 
1974.00, 
1975.00, 
1976.00, 
1977.00, 
1978.00, 
1979.00, 
1980.00, 
1981.00, 
1982.00, 
1983.00, 
1984.00, 
1985.00, 
1986.00, 
1987.00, 
1988.00, 
1989.00, 
1990.00, 
1991.00, 
1992.00, 
1993.00, 
1994.00, 
1995.00, 
1996.00, 
1997.00, 
1998.00, 
1999.00, 
2000.00, 
2001.00, 
2002.00, 
2003.00, 
2004.00, 
2005.00, 
2006.00, 
2007.00, 
2008.00, 
2009.00, 
2010.00, 
2011.00, 
2012.00, 
2013.00, 
2014.00, 
2015.00, 
2016.00, 
2017.00, 
2018.00, 
2019.00, 
2020.00, 
2021.00, 
2022.00, 
2023.00, 
2024.00, 
2025.00, 
2026.00, 
2027.00, 
2028.00, 
2029.00, 
2030.00, 
2031.00, 
2032.00, 
2033.00, 
2034.00, 
2035.00, 
2036.00, 
2037.00, 
2038.00, 
2039.00, 
2040.00, 
2041.00, 
2042.00, 
2043.00, 
2044.00, 
2045.00, 
2046.00, 
2047.00, 
2048.00, 
2049.00, 
2050.00, 
2051.00, 
2052.00, 
2053.00, 
2054.00, 
2055.00, 
2056.00, 
2057.00, 
2058.00, 
2059.00, 
2060.00, 
2061.00, 
2062.00, 
2063.00, 
2064.00, 
2065.00, 
2066.00, 
2067.00, 
2068.00, 
2069.00, 
2070.00, 
2071.00, 
2072.00, 
2073.00, 
2074.00, 
2075.00, 
2076.00, 
2077.00, 
2078.00, 
2079.00, 
2080.00, 
2081.00, 
2082.00, 
2083.00, 
2084.00, 
2085.00, 
2086.00, 
2087.00, 
2088.00, 
2089.00, 
2090.00, 
2091.00, 
2092.00, 
2093.00, 
2094.00, 
2095.00, 
2096.00, 
2097.00, 
2098.00, 
2099.00, 
2100.00, 
2101.00, 
2102.00, 
2103.00, 
2104.00, 
2105.00, 
2106.00, 
2107.00, 
2108.00, 
2109.00, 
2110.00, 
2111.00, 
2112.00, 
2113.00, 
2114.00, 
2115.00, 
2116.00, 
2117.00, 
2118.00, 
2119.00, 
2120.00, 
2121.00, 
2122.00, 
2123.00, 
2124.00, 
2125.00, 
2126.00, 
2127.00, 
2128.00, 
2129.00, 
2130.00, 
2131.00, 
2132.00, 
2133.00, 
2134.00, 
2135.00, 
2136.00, 
2137.00, 
2138.00, 
2139.00, 
2140.00, 
2141.00, 
2142.00, 
2143.00, 
2144.00, 
2145.00, 
2146.00, 
2147.00, 
2148.00, 
2149.00, 
2150.00, 
2151.00, 
2152.00, 
2153.00, 
2154.00, 
2155.00, 
2156.00, 
2157.00, 
2158.00, 
2159.00, 
2160.00, 
2161.00, 
2162.00, 
2163.00, 
2164.00, 
2165.00, 
2166.00, 
2167.00, 
2168.00, 
2169.00, 
2170.00, 
2171.00, 
2172.00, 
2173.00, 
2174.00, 
2175.00, 
2176.00, 
2177.00, 
2178.00, 
2179.00, 
2180.00, 
2181.00, 
2182.00, 
2183.00, 
2184.00, 
2185.00, 
2186.00, 
2187.00, 
2188.00, 
2189.00, 
2190.00, 
2191.00, 
2192.00, 
2193.00, 
2194.00, 
2195.00, 
2196.00, 
2197.00, 
2198.00, 
2199.00, 
2200.00, 
2201.00, 
2202.00, 
2203.00, 
2204.00, 
2205.00, 
2206.00, 
2207.00, 
2208.00, 
2209.00, 
2210.00, 
2211.00, 
2212.00, 
2213.00, 
2214.00, 
2215.00, 
2216.00, 
2217.00, 
2218.00, 
2219.00, 
2220.00, 
2221.00, 
2222.00, 
2223.00, 
2224.00, 
2225.00, 
2226.00, 
2227.00, 
2228.00, 
2229.00, 
2230.00, 
2231.00, 
2232.00, 
2233.00, 
2234.00, 
2235.00, 
2236.00, 
2237.00, 
2238.00, 
2239.00, 
2240.00, 
2241.00, 
2242.00, 
2243.00, 
2244.00, 
2245.00, 
2246.00, 
2247.00, 
2248.00, 
2249.00, 
2250.00, 
2251.00, 
2252.00, 
2253.00, 
2254.00, 
2255.00, 
2256.00, 
2257.00, 
2258.00, 
2259.00, 
2260.00, 
2261.00, 
2262.00, 
2263.00, 
2264.00, 
2265.00, 
2266.00, 
2267.00, 
2268.00, 
2269.00, 
2270.00, 
2271.00, 
2272.00, 
2273.00, 
2274.00, 
2275.00, 
2276.00, 
2277.00, 
2278.00, 
2279.00, 
2280.00, 
2281.00, 
2282.00, 
2283.00, 
2284.00, 
2285.00, 
2286.00, 
2287.00, 
2288.00, 
2289.00, 
2290.00, 
2291.00, 
2292.00, 
2293.00, 
2294.00, 
2295.00, 
2296.00, 
2297.00, 
2298.00, 
2299.00, 
2300.00, 
2301.00, 
2302.00, 
2303.00, 
2304.00, 
2305.00, 
2306.00, 
2307.00, 
2308.00, 
2309.00, 
2310.00, 
2311.00, 
2312.00, 
2313.00, 
2314.00, 
2315.00, 
2316.00, 
2317.00, 
2318.00, 
2319.00, 
2320.00, 
2321.00, 
2322.00, 
2323.00, 
2324.00, 
2325.00, 
2326.00, 
2327.00, 
2328.00, 
2329.00, 
2330.00, 
2331.00, 
2332.00, 
2333.00, 
2334.00, 
2335.00, 
2336.00, 
2337.00, 
2338.00, 
2339.00, 
2340.00, 
2341.00, 
2342.00, 
2343.00, 
2344.00, 
2345.00, 
2346.00, 
2347.00, 
2348.00, 
2349.00, 
2350.00, 
2351.00, 
2352.00, 
2353.00, 
2354.00, 
2355.00, 
2356.00, 
2357.00, 
2358.00, 
2359.00, 
2360.00, 
2361.00, 
2362.00, 
2363.00, 
2364.00, 
2365.00, 
2366.00, 
2367.00, 
2368.00, 
2369.00, 
2370.00, 
2371.00, 
2372.00, 
2373.00, 
2374.00, 
2375.00, 
2376.00, 
2377.00, 
2378.00, 
2379.00, 
2380.00, 
2381.00, 
2382.00, 
2383.00, 
2384.00, 
2385.00, 
2386.00, 
2387.00, 
2388.00, 
2389.00, 
2390.00, 
2391.00, 
2392.00, 
2393.00, 
2394.00, 
2395.00, 
2396.00, 
2397.00, 
2398.00, 
2399.00, 
2400.00, 
2401.00, 
2402.00, 
2403.00, 
2404.00, 
2405.00, 
2406.00, 
2407.00, 
2408.00, 
2409.00, 
2410.00, 
2411.00, 
2412.00, 
2413.00, 
2414.00, 
2415.00, 
2416.00, 
2417.00, 
2418.00, 
2419.00, 
2420.00, 
2421.00, 
2422.00, 
2423.00, 
2424.00, 
2425.00, 
2426.00, 
2427.00, 
2428.00, 
2429.00, 
2430.00, 
2431.00, 
2432.00, 
2433.00, 
2434.00, 
2435.00, 
2436.00, 
2437.00, 
2438.00, 
2439.00, 
2440.00, 
2441.00, 
2442.00, 
2443.00, 
2444.00, 
2445.00, 
2446.00, 
2447.00, 
2448.00, 
2449.00, 
2450.00, 
2451.00, 
2452.00, 
2453.00, 
2454.00, 
2455.00, 
2456.00, 
2457.00, 
2458.00, 
2459.00, 
2460.00, 
2461.00, 
2462.00, 
2463.00, 
2464.00, 
2465.00, 
2466.00, 
2467.00, 
2468.00, 
2469.00, 
2470.00, 
2471.00, 
2472.00, 
2473.00, 
2474.00, 
2475.00, 
2476.00, 
2477.00, 
2478.00, 
2479.00, 
2480.00, 
2481.00, 
2482.00, 
2483.00, 
2484.00, 
2485.00, 
2486.00, 
2487.00, 
2488.00, 
2489.00, 
2490.00, 
2491.00, 
2492.00, 
2493.00, 
2494.00, 
2495.00, 
2496.00, 
2497.00, 
2498.00, 
2499.00, 
2500.00, 
2501.00, 
2502.00, 
2503.00, 
2504.00, 
2505.00, 
2506.00, 
2507.00, 
2508.00, 
2509.00, 
2510.00, 
2511.00, 
2512.00, 
2513.00, 
2514.00, 
2515.00, 
2516.00, 
2517.00, 
2518.00, 
2519.00, 
2520.00, 
2521.00, 
2522.00, 
2523.00, 
2524.00, 
2525.00, 
2526.00, 
2527.00, 
2528.00, 
2529.00, 
2530.00, 
2531.00, 
2532.00, 
2533.00, 
2534.00, 
2535.00, 
2536.00, 
2537.00, 
2538.00, 
2539.00, 
2540.00, 
2541.00, 
2542.00, 
2543.00, 
2544.00, 
2545.00, 
2546.00, 
2547.00, 
2548.00, 
2549.00, 
2550.00, 
2551.00, 
2552.00, 
2553.00, 
2554.00, 
2555.00, 
2556.00, 
2557.00, 
2558.00, 
2559.00, 
2560.00, 
2561.00, 
2562.00, 
2563.00, 
2564.00, 
2565.00, 
2566.00, 
2567.00, 
2568.00, 
2569.00, 
2570.00, 
2571.00, 
2572.00, 
2573.00, 
2574.00, 
2575.00, 
2576.00, 
2577.00, 
2578.00, 
2579.00, 
2580.00, 
2581.00, 
2582.00, 
2583.00, 
2584.00, 
2585.00, 
2586.00, 
2587.00, 
2588.00, 
2589.00, 
2590.00, 
2591.00, 
2592.00, 
2593.00, 
2594.00, 
2595.00, 
2596.00, 
2597.00, 
2598.00, 
2599.00, 
2600.00, 
