"1cP3 - RawData"
"Wavelength nm.","T%"
200.00,0.002
201.00,0.002
202.00,0.002
203.00,0.002
204.00,0.003
205.00,0.002
206.00,0.002
207.00,0.001
208.00,0.003
209.00,0.004
210.00,0.001
211.00,0.001
212.00,-0.002
213.00,0.002
214.00,0.001
215.00,0.002
216.00,0.002
217.00,-0.002
218.00,0.002
219.00,0.003
220.00,0.003
221.00,0.000
222.00,0.002
223.00,0.001
224.00,0.002
225.00,0.001
226.00,0.000
227.00,0.003
228.00,0.001
229.00,0.000
230.00,-0.000
231.00,-0.000
232.00,0.001
233.00,0.002
234.00,0.002
235.00,0.002
236.00,0.000
237.00,0.001
238.00,-0.001
239.00,-0.000
240.00,0.000
241.00,0.001
242.00,-0.000
243.00,0.001
244.00,0.000
245.00,0.001
246.00,0.001
247.00,0.001
248.00,0.002
249.00,-0.000
250.00,0.002
251.00,0.002
252.00,-0.000
253.00,0.000
254.00,0.001
255.00,0.003
256.00,-0.000
257.00,0.000
258.00,-0.000
259.00,0.001
260.00,0.000
261.00,-0.001
262.00,0.003
263.00,-0.000
264.00,-0.002
265.00,0.001
266.00,0.002
267.00,-0.000
268.00,-0.001
269.00,0.002
270.00,0.001
271.00,0.000
272.00,-0.001
273.00,-0.001
274.00,0.001
275.00,0.000
276.00,0.001
277.00,-0.000
278.00,0.001
279.00,0.001
280.00,0.001
281.00,0.001
282.00,-0.000
283.00,-0.001
284.00,0.000
285.00,0.001
286.00,-0.000
287.00,-0.001
288.00,0.001
289.00,0.001
290.00,-0.001
291.00,0.001
292.00,0.001
293.00,0.001
294.00,0.001
295.00,-0.000
296.00,0.000
297.00,0.000
298.00,0.001
299.00,0.001
300.00,-0.001
301.00,0.001
302.00,0.001
303.00,0.002
304.00,0.001
305.00,0.003
306.00,0.004
307.00,0.003
308.00,0.009
309.00,0.013
310.00,0.022
311.00,0.037
312.00,0.057
313.00,0.087
314.00,0.125
315.00,0.186
316.00,0.267
317.00,0.380
318.00,0.514
319.00,0.708
320.00,0.934
321.00,1.221
322.00,1.557
323.00,1.984
324.00,2.456
325.00,2.944
326.00,3.518
327.00,4.190
328.00,4.844
329.00,5.640
330.00,6.491
331.00,7.342
332.00,8.241
333.00,9.252
334.00,10.199
335.00,11.273
336.00,12.259
337.00,13.383
338.00,14.399
339.00,15.381
340.00,16.435
341.00,17.519
342.00,18.448
343.00,19.335
344.00,20.223
345.00,21.208
346.00,22.033
347.00,22.862
348.00,23.671
349.00,24.369
350.00,25.097
351.00,25.766
352.00,26.345
353.00,26.929
354.00,27.489
355.00,28.017
356.00,28.524
357.00,28.972
358.00,29.395
359.00,29.924
360.00,30.264
361.00,30.616
362.00,30.944
363.00,31.309
364.00,31.515
365.00,31.687
366.00,31.976
367.00,32.158
368.00,32.325
369.00,32.419
370.00,32.625
371.00,32.681
372.00,32.633
373.00,32.661
374.00,32.717
375.00,32.695
376.00,32.642
377.00,32.641
378.00,32.543
379.00,32.427
380.00,32.464
381.00,32.476
382.00,32.535
383.00,32.659
384.00,32.768
385.00,32.927
386.00,33.020
387.00,33.238
388.00,33.411
389.00,33.467
390.00,33.594
391.00,33.752
392.00,33.740
393.00,33.857
394.00,33.912
395.00,34.095
396.00,34.086
397.00,34.150
398.00,34.216
399.00,34.196
400.00,34.293
401.00,34.288
402.00,34.337
403.00,34.338
404.00,34.328
405.00,34.313
406.00,34.307
407.00,34.237
408.00,34.274
409.00,34.207
410.00,34.178
411.00,34.170
412.00,34.097
413.00,34.156
414.00,34.095
415.00,34.060
416.00,34.151
417.00,34.127
418.00,34.108
419.00,34.173
420.00,34.180
421.00,34.272
422.00,34.270
423.00,34.301
424.00,34.399
425.00,34.350
426.00,34.399
427.00,34.482
428.00,34.503
429.00,34.501
430.00,34.590
431.00,34.612
432.00,34.642
433.00,34.677
434.00,34.699
435.00,34.759
436.00,34.789
437.00,34.839
438.00,34.918
439.00,34.922
440.00,34.960
441.00,35.079
442.00,35.155
443.00,35.170
444.00,35.244
445.00,35.332
446.00,35.364
447.00,35.439
448.00,35.573
449.00,35.670
450.00,35.730
451.00,35.753
452.00,35.879
453.00,35.973
454.00,36.094
455.00,36.175
456.00,36.251
457.00,36.399
458.00,36.427
459.00,36.568
460.00,36.715
461.00,36.790
462.00,36.864
463.00,37.037
464.00,37.139
465.00,37.166
466.00,37.293
467.00,37.392
468.00,37.471
469.00,37.465
470.00,37.559
471.00,37.590
472.00,37.683
473.00,37.779
474.00,37.867
475.00,37.973
476.00,38.035
477.00,38.088
478.00,38.201
479.00,38.369
480.00,38.523
481.00,38.592
482.00,38.599
483.00,38.811
484.00,38.887
485.00,39.101
486.00,39.172
487.00,39.289
488.00,39.424
489.00,39.511
490.00,39.612
491.00,39.726
492.00,39.884
493.00,39.966
494.00,39.974
495.00,40.035
496.00,40.163
497.00,40.268
498.00,40.407
499.00,40.488
500.00,40.622
501.00,40.667
502.00,40.754
503.00,40.860
504.00,40.917
505.00,41.042
506.00,41.199
507.00,41.217
508.00,41.264
509.00,41.444
510.00,41.543
511.00,41.537
512.00,41.695
513.00,41.820
514.00,41.863
515.00,42.038
516.00,42.090
517.00,42.124
518.00,42.272
519.00,42.299
520.00,42.348
521.00,42.400
522.00,42.539
523.00,42.467
524.00,42.604
525.00,42.744
526.00,42.809
527.00,42.854
528.00,42.887
529.00,42.970
530.00,43.126
531.00,43.248
532.00,43.274
533.00,43.385
534.00,43.459
535.00,43.544
536.00,43.586
537.00,43.678
538.00,43.671
539.00,43.739
540.00,43.875
541.00,43.864
542.00,43.900
543.00,43.929
544.00,44.109
545.00,44.149
546.00,44.105
547.00,44.228
548.00,44.300
549.00,44.328
550.00,44.372
551.00,44.473
552.00,44.555
553.00,44.545
554.00,44.612
555.00,44.611
556.00,44.683
557.00,44.785
558.00,44.853
559.00,44.923
560.00,44.934
561.00,45.022
562.00,45.071
563.00,45.068
564.00,45.118
565.00,45.132
566.00,45.156
567.00,45.218
568.00,45.226
569.00,45.263
570.00,45.294
571.00,45.336
572.00,45.328
573.00,45.283
574.00,45.358
575.00,45.378
576.00,45.356
577.00,45.429
578.00,45.553
579.00,45.578
580.00,45.615
581.00,45.755
582.00,45.784
583.00,45.666
584.00,45.893
585.00,45.942
586.00,45.964
587.00,46.091
588.00,46.041
589.00,46.037
590.00,46.127
591.00,46.110
592.00,46.069
593.00,46.193
594.00,46.171
595.00,46.300
596.00,46.403
597.00,46.259
598.00,46.254
599.00,46.407
600.00,46.509
601.00,46.470
602.00,46.396
603.00,46.485
604.00,46.581
605.00,46.663
606.00,46.586
607.00,46.605
608.00,46.788
609.00,46.779
610.00,46.584
611.00,46.713
612.00,46.716
613.00,46.741
614.00,46.813
615.00,46.803
616.00,46.940
617.00,46.788
618.00,46.697
619.00,46.697
620.00,46.958
621.00,47.235
622.00,47.145
623.00,47.044
624.00,47.080
625.00,47.217
626.00,47.194
627.00,47.253
628.00,47.180
629.00,47.198
630.00,47.294
631.00,47.318
632.00,47.293
633.00,47.426
634.00,47.460
635.00,47.399
636.00,47.476
637.00,47.452
638.00,47.404
639.00,47.638
640.00,47.761
641.00,47.708
642.00,47.752
643.00,47.800
644.00,47.888
645.00,47.859
646.00,47.984
647.00,48.015
648.00,47.996
649.00,47.961
650.00,47.939
651.00,48.142
652.00,48.153
653.00,48.095
654.00,48.070
655.00,48.223
656.00,48.435
657.00,48.384
658.00,48.488
659.00,48.349
660.00,48.346
661.00,48.332
662.00,48.441
663.00,48.558
664.00,48.740
665.00,48.874
666.00,48.739
667.00,48.795
668.00,48.839
669.00,49.008
670.00,49.002
671.00,48.900
672.00,48.979
673.00,48.878
674.00,49.102
675.00,49.274
676.00,49.220
677.00,49.334
678.00,49.159
679.00,49.302
680.00,49.374
681.00,49.558
682.00,49.392
683.00,49.271
684.00,49.458
685.00,49.475
686.00,49.352
687.00,49.596
688.00,49.570
689.00,49.507
690.00,49.605
691.00,49.774
692.00,49.501
693.00,49.585
694.00,49.806
695.00,49.825
696.00,49.692
697.00,49.778
698.00,49.800
699.00,49.961
700.00,50.049
701.00,50.018
702.00,49.962
703.00,50.191
704.00,50.128
705.00,49.888
706.00,50.067
707.00,50.115
708.00,50.001
709.00,50.176
710.00,50.637
711.00,50.024
712.00,50.088
713.00,50.148
714.00,50.188
715.00,50.299
716.00,50.180
717.00,50.277
718.00,50.425
719.00,50.362
720.00,50.339
721.00,55.104
722.00,55.037
723.00,54.979
724.00,54.961
725.00,55.028
726.00,54.874
727.00,54.828
728.00,54.947
729.00,54.900
730.00,54.838
731.00,54.764
732.00,54.764
733.00,54.811
734.00,54.803
735.00,54.870
736.00,54.735
737.00,54.746
738.00,54.824
739.00,54.762
740.00,54.744
741.00,54.706
742.00,54.764
743.00,54.624
744.00,54.614
745.00,54.618
746.00,54.549
747.00,54.529
748.00,54.464
749.00,54.456
750.00,54.362
751.00,54.403
752.00,54.378
753.00,54.294
754.00,54.339
755.00,54.285
756.00,54.242
757.00,54.266
758.00,54.295
759.00,54.212
760.00,54.186
761.00,54.161
762.00,54.169
763.00,54.164
764.00,54.061
765.00,54.040
766.00,54.099
767.00,54.120
768.00,54.087
769.00,54.018
770.00,54.123
771.00,53.979
772.00,54.003
773.00,53.974
774.00,54.024
775.00,53.955
776.00,53.784
777.00,53.950
778.00,53.809
779.00,53.869
780.00,53.881
781.00,53.883
782.00,53.866
783.00,53.713
784.00,53.778
785.00,53.758
786.00,53.705
787.00,53.624
788.00,53.622
789.00,53.569
790.00,53.563
791.00,53.663
792.00,53.516
793.00,53.549
794.00,53.403
795.00,53.392
796.00,53.468
797.00,53.325
798.00,53.305
799.00,53.329
800.00,53.327
801.00,53.259
802.00,53.165
803.00,53.166
804.00,53.110
805.00,53.174
806.00,53.106
807.00,53.023
808.00,53.081
809.00,53.048
810.00,53.021
811.00,52.985
812.00,53.006
813.00,52.929
814.00,53.043
815.00,52.881
816.00,52.970
817.00,52.866
818.00,52.733
819.00,52.769
820.00,52.712
821.00,52.657
822.00,52.698
823.00,52.604
824.00,52.676
825.00,52.582
826.00,52.671
827.00,52.652
828.00,52.577
829.00,52.524
830.00,52.536
831.00,54.860
832.00,54.844
833.00,54.815
834.00,54.764
835.00,54.732
836.00,54.728
837.00,54.640
838.00,54.694
839.00,54.694
840.00,54.605
841.00,54.574
842.00,54.516
843.00,54.535
844.00,54.523
845.00,54.463
846.00,54.485
847.00,54.376
848.00,54.384
849.00,54.310
850.00,54.274
851.00,54.253
852.00,54.265
853.00,54.181
854.00,54.161
855.00,54.129
856.00,54.108
857.00,53.998
858.00,54.050
859.00,53.994
860.00,53.976
861.00,53.972
862.00,53.929
863.00,53.909
864.00,53.883
865.00,53.891
866.00,53.847
867.00,53.842
868.00,53.850
869.00,53.835
870.00,53.809
871.00,53.761
872.00,53.748
873.00,53.752
874.00,53.715
875.00,53.700
876.00,53.681
877.00,53.660
878.00,53.655
879.00,53.624
880.00,53.617
881.00,53.613
882.00,53.612
883.00,53.582
884.00,53.532
885.00,53.496
886.00,53.474
887.00,53.450
888.00,53.411
889.00,53.397
890.00,53.384
891.00,53.379
892.00,53.352
893.00,53.307
894.00,53.313
895.00,53.261
896.00,53.247
897.00,53.246
898.00,53.194
899.00,53.210
900.00,53.182
901.00,53.112
902.00,53.266
903.00,53.118
904.00,53.087
905.00,53.077
906.00,53.068
907.00,53.034
908.00,53.037
909.00,52.987
910.00,52.954
911.00,52.971
912.00,52.941
913.00,52.902
914.00,52.875
915.00,52.852
916.00,52.825
917.00,52.798
918.00,52.812
919.00,52.736
920.00,52.739
921.00,52.727
922.00,52.714
923.00,52.672
924.00,52.665
925.00,52.639
926.00,52.642
927.00,52.609
928.00,52.587
929.00,52.567
930.00,52.554
931.00,52.529
932.00,52.505
933.00,52.491
934.00,52.506
935.00,52.481
936.00,52.418
937.00,52.403
938.00,52.402
939.00,52.367
940.00,52.359
941.00,52.357
942.00,52.322
943.00,52.302
944.00,52.265
945.00,52.278
946.00,52.247
947.00,52.205
948.00,52.212
949.00,52.190
950.00,52.147
951.00,52.136
952.00,52.105
953.00,52.069
954.00,52.043
955.00,51.993
956.00,51.982
957.00,51.975
958.00,51.958
959.00,51.921
960.00,51.916
961.00,51.890
962.00,51.894
963.00,51.843
964.00,51.841
965.00,51.826
966.00,51.827
967.00,51.819
968.00,51.806
969.00,51.805
970.00,51.787
971.00,51.776
972.00,51.727
973.00,51.790
974.00,51.871
975.00,51.761
976.00,51.771
977.00,51.758
978.00,51.805
979.00,51.762
980.00,51.758
981.00,51.761
982.00,51.738
983.00,51.737
984.00,51.740
985.00,51.740
986.00,51.718
987.00,51.716
988.00,51.650
989.00,51.663
990.00,51.656
991.00,51.624
992.00,51.657
993.00,51.610
994.00,51.579
995.00,51.590
996.00,51.606
997.00,51.567
998.00,51.560
999.00,51.576
1000.00,51.534
1001.00,51.526
1002.00,51.499
1003.00,51.514
1004.00,51.474
1005.00,51.444
1006.00,51.480
1007.00,51.452
1008.00,51.435
1009.00,51.406
1010.00,51.419
1011.00,51.404
1012.00,51.380
1013.00,51.389
1014.00,51.395
1015.00,51.358
1016.00,51.300
1017.00,51.317
1018.00,51.288
1019.00,51.274
1020.00,51.264
1021.00,51.250
1022.00,51.245
1023.00,51.200
1024.00,51.184
1025.00,51.196
1026.00,51.187
1027.00,51.139
1028.00,51.140
1029.00,51.111
1030.00,51.091
1031.00,51.099
1032.00,51.067
1033.00,51.066
1034.00,51.036
1035.00,51.023
1036.00,50.987
1037.00,50.971
1038.00,50.951
1039.00,50.936
1040.00,50.941
1041.00,50.899
1042.00,50.901
1043.00,50.877
1044.00,50.912
1045.00,50.896
1046.00,50.862
1047.00,50.886
1048.00,50.888
1049.00,50.886
1050.00,50.913
1051.00,50.922
1052.00,50.928
1053.00,50.936
1054.00,50.932
1055.00,50.972
1056.00,50.984
1057.00,50.952
1058.00,50.959
1059.00,50.968
1060.00,50.951
1061.00,50.948
1062.00,50.933
1063.00,50.945
1064.00,50.937
1065.00,50.918
1066.00,50.901
1067.00,50.902
1068.00,50.899
1069.00,50.877
1070.00,50.851
1071.00,50.843
1072.00,50.867
1073.00,50.842
1074.00,50.866
1075.00,50.870
1076.00,50.838
1077.00,50.832
1078.00,50.812
1079.00,50.799
1080.00,50.818
1081.00,50.788
1082.00,50.771
1083.00,50.774
1084.00,50.763
1085.00,50.765
1086.00,50.760
1087.00,50.754
1088.00,50.743
1089.00,50.732
1090.00,50.727
1091.00,50.737
1092.00,50.722
1093.00,50.697
1094.00,50.676
1095.00,50.676
1096.00,50.684
1097.00,50.655
1098.00,50.644
1099.00,50.639
1100.00,50.634
1101.00,50.612
1102.00,50.609
1103.00,50.598
1104.00,50.581
1105.00,50.579
1106.00,50.565
1107.00,50.558
1108.00,50.573
1109.00,50.548
1110.00,50.558
1111.00,50.560
1112.00,50.500
1113.00,50.505
1114.00,50.494
1115.00,50.487
1116.00,50.495
1117.00,50.492
1118.00,50.492
1119.00,50.493
1120.00,50.499
1121.00,50.483
1122.00,50.478
1123.00,50.457
1124.00,50.490
1125.00,50.488
1126.00,50.446
1127.00,50.453
1128.00,50.439
1129.00,50.412
1130.00,50.409
1131.00,50.385
1132.00,50.395
1133.00,50.406
1134.00,50.358
1135.00,50.343
1136.00,50.370
1137.00,50.375
1138.00,50.382
1139.00,50.378
1140.00,50.370
1141.00,50.369
1142.00,50.350
1143.00,50.367
1144.00,50.348
1145.00,50.328
1146.00,50.343
1147.00,50.334
1148.00,50.319
1149.00,50.329
1150.00,50.337
1151.00,50.352
1152.00,50.335
1153.00,50.324
1154.00,50.335
1155.00,50.332
1156.00,50.312
1157.00,50.351
1158.00,50.323
1159.00,50.303
1160.00,50.307
1161.00,50.311
1162.00,50.305
1163.00,50.309
1164.00,50.297
1165.00,50.297
1166.00,50.309
1167.00,50.287
1168.00,50.311
1169.00,50.305
1170.00,50.272
1171.00,50.282
1172.00,50.305
1173.00,50.283
1174.00,50.287
1175.00,50.276
1176.00,50.289
1177.00,50.280
1178.00,50.273
1179.00,50.301
1180.00,50.277
1181.00,50.285
1182.00,50.295
1183.00,50.283
1184.00,50.271
1185.00,50.290
1186.00,50.262
1187.00,50.276
1188.00,50.277
1189.00,50.273
1190.00,50.277
1191.00,50.267
1192.00,50.275
1193.00,50.275
1194.00,50.271
1195.00,50.256
1196.00,50.294
1197.00,50.288
1198.00,50.289
1199.00,50.284
1200.00,50.270
1201.00,50.297
1202.00,50.283
1203.00,50.270
1204.00,50.273
1205.00,50.288
1206.00,50.279
1207.00,50.312
1208.00,50.278
1209.00,50.293
1210.00,50.293
1211.00,50.274
1212.00,50.306
1213.00,50.264
1214.00,50.279
1215.00,50.265
1216.00,50.283
1217.00,50.289
1218.00,50.288
1219.00,50.293
1220.00,50.278
1221.00,50.310
1222.00,50.278
1223.00,50.307
1224.00,50.291
1225.00,50.271
1226.00,50.285
1227.00,50.273
1228.00,50.294
1229.00,50.296
1230.00,50.324
1231.00,50.316
1232.00,50.345
1233.00,50.333
1234.00,50.335
1235.00,50.332
1236.00,50.325
1237.00,50.339
1238.00,50.342
1239.00,50.347
1240.00,50.351
1241.00,50.351
1242.00,50.363
1243.00,50.379
1244.00,50.334
1245.00,50.371
1246.00,50.395
1247.00,50.367
1248.00,50.374
1249.00,50.391
1250.00,50.402
1251.00,50.402
1252.00,50.405
1253.00,50.392
1254.00,50.422
1255.00,50.406
1256.00,50.395
1257.00,50.365
1258.00,50.407
1259.00,50.428
1260.00,50.452
1261.00,50.450
1262.00,50.449
1263.00,50.448
1264.00,50.460
1265.00,50.464
1266.00,50.451
1267.00,50.479
1268.00,50.479
1269.00,50.465
1270.00,50.512
1271.00,50.509
1272.00,50.509
1273.00,50.533
1274.00,50.523
1275.00,50.529
1276.00,50.532
1277.00,50.530
1278.00,50.555
1279.00,50.555
1280.00,50.553
1281.00,50.586
1282.00,50.589
1283.00,50.585
1284.00,50.608
1285.00,50.588
1286.00,50.612
1287.00,50.617
1288.00,50.593
1289.00,50.590
1290.00,50.617
1291.00,50.595
1292.00,50.608
1293.00,50.610
1294.00,50.638
1295.00,50.670
1296.00,50.667
1297.00,50.674
1298.00,50.707
1299.00,50.664
1300.00,50.697
1301.00,50.689
1302.00,50.708
1303.00,50.731
1304.00,50.712
1305.00,50.718
1306.00,50.723
1307.00,50.720
1308.00,50.727
1309.00,50.735
1310.00,50.718
1311.00,50.727
1312.00,50.733
1313.00,50.742
1314.00,50.783
1315.00,50.798
1316.00,50.809
1317.00,50.827
1318.00,50.821
1319.00,50.824
1320.00,50.828
1321.00,51.013
1322.00,51.022
1323.00,51.018
1324.00,50.970
1325.00,50.984
1326.00,51.002
1327.00,50.989
1328.00,51.002
1329.00,50.991
1330.00,51.028
1331.00,51.036
1332.00,51.026
1333.00,51.043
1334.00,51.070
1335.00,51.091
1336.00,51.097
1337.00,51.150
1338.00,51.200
1339.00,51.242
1340.00,51.289
1341.00,51.353
1342.00,51.415
1343.00,51.464
1344.00,51.514
1345.00,51.585
1346.00,51.606
1347.00,51.629
1348.00,51.656
1349.00,51.670
1350.00,51.699
1351.00,51.716
1352.00,51.724
1353.00,51.747
1354.00,51.732
1355.00,51.688
1356.00,51.771
1357.00,51.743
1358.00,51.787
1359.00,51.798
1360.00,51.848
1361.00,51.800
1362.00,51.751
1363.00,51.862
1364.00,51.822
1365.00,51.838
1366.00,51.954
1367.00,51.793
1368.00,51.804
1369.00,51.828
1370.00,51.777
1371.00,51.779
1372.00,51.793
1373.00,51.802
1374.00,51.829
1375.00,51.822
1376.00,51.836
1377.00,51.835
1378.00,51.951
1379.00,51.812
1380.00,51.883
1381.00,51.757
1382.00,51.779
1383.00,51.819
1384.00,51.783
1385.00,51.880
1386.00,51.823
1387.00,51.752
1388.00,51.794
1389.00,51.894
1390.00,51.813
1391.00,51.778
1392.00,51.826
1393.00,51.804
1394.00,51.813
1395.00,51.739
1396.00,51.805
1397.00,51.942
1398.00,52.008
1399.00,51.753
1400.00,51.850
1401.00,51.813
1402.00,51.931
1403.00,51.836
1404.00,51.845
1405.00,51.863
1406.00,51.914
1407.00,51.902
1408.00,51.816
1409.00,51.903
1410.00,51.956
1411.00,51.943
1412.00,51.963
1413.00,51.863
1414.00,51.963
1415.00,51.981
1416.00,51.996
1417.00,51.987
1418.00,51.979
1419.00,52.004
1420.00,52.032
1421.00,52.087
1422.00,52.055
1423.00,52.066
1424.00,52.095
1425.00,52.117
1426.00,52.102
1427.00,52.150
1428.00,52.146
1429.00,52.191
1430.00,52.193
1431.00,52.195
1432.00,52.232
1433.00,52.240
1434.00,52.229
1435.00,52.285
1436.00,52.299
1437.00,52.280
1438.00,52.324
1439.00,52.343
1440.00,52.343
1441.00,52.345
1442.00,52.364
1443.00,52.415
1444.00,52.456
1445.00,52.433
1446.00,52.453
1447.00,52.473
1448.00,52.501
1449.00,52.523
1450.00,52.534
1451.00,52.557
1452.00,52.583
1453.00,52.578
1454.00,52.610
1455.00,52.631
1456.00,52.643
1457.00,52.670
1458.00,52.670
1459.00,52.697
1460.00,52.732
1461.00,52.724
1462.00,52.762
1463.00,52.783
1464.00,52.789
1465.00,52.818
1466.00,52.828
1467.00,52.832
1468.00,52.906
1469.00,52.865
1470.00,52.865
1471.00,52.914
1472.00,52.903
1473.00,52.941
1474.00,52.961
1475.00,52.994
1476.00,53.011
1477.00,52.960
1478.00,52.980
1479.00,53.029
1480.00,53.014
1481.00,53.020
1482.00,53.083
1483.00,53.089
1484.00,53.118
1485.00,53.117
1486.00,53.124
1487.00,53.159
1488.00,53.176
1489.00,53.171
1490.00,53.191
1491.00,53.203
1492.00,53.199
1493.00,53.208
1494.00,53.234
1495.00,53.240
1496.00,53.285
1497.00,53.271
1498.00,53.299
1499.00,53.319
1500.00,53.328
1501.00, 
1502.00, 
1503.00, 
1504.00, 
1505.00, 
1506.00, 
1507.00, 
1508.00, 
1509.00, 
1510.00, 
1511.00, 
1512.00, 
1513.00, 
1514.00, 
1515.00, 
1516.00, 
1517.00, 
1518.00, 
1519.00, 
1520.00, 
1521.00, 
1522.00, 
1523.00, 
1524.00, 
1525.00, 
1526.00, 
1527.00, 
1528.00, 
1529.00, 
1530.00, 
1531.00, 
1532.00, 
1533.00, 
1534.00, 
1535.00, 
1536.00, 
1537.00, 
1538.00, 
1539.00, 
1540.00, 
1541.00, 
1542.00, 
1543.00, 
1544.00, 
1545.00, 
1546.00, 
1547.00, 
1548.00, 
1549.00, 
1550.00, 
1551.00, 
1552.00, 
1553.00, 
1554.00, 
1555.00, 
1556.00, 
1557.00, 
1558.00, 
1559.00, 
1560.00, 
1561.00, 
1562.00, 
1563.00, 
1564.00, 
1565.00, 
1566.00, 
1567.00, 
1568.00, 
1569.00, 
1570.00, 
1571.00, 
1572.00, 
1573.00, 
1574.00, 
1575.00, 
1576.00, 
1577.00, 
1578.00, 
1579.00, 
1580.00, 
1581.00, 
1582.00, 
1583.00, 
1584.00, 
1585.00, 
1586.00, 
1587.00, 
1588.00, 
1589.00, 
1590.00, 
1591.00, 
1592.00, 
1593.00, 
1594.00, 
1595.00, 
1596.00, 
1597.00, 
1598.00, 
1599.00, 
1600.00, 
1601.00, 
1602.00, 
1603.00, 
1604.00, 
1605.00, 
1606.00, 
1607.00, 
1608.00, 
1609.00, 
1610.00, 
1611.00, 
1612.00, 
1613.00, 
1614.00, 
1615.00, 
1616.00, 
1617.00, 
1618.00, 
1619.00, 
1620.00, 
1621.00, 
1622.00, 
1623.00, 
1624.00, 
1625.00, 
1626.00, 
1627.00, 
1628.00, 
1629.00, 
1630.00, 
1631.00, 
1632.00, 
1633.00, 
1634.00, 
1635.00, 
1636.00, 
1637.00, 
1638.00, 
1639.00, 
1640.00, 
1641.00, 
1642.00, 
1643.00, 
1644.00, 
1645.00, 
1646.00, 
1647.00, 
1648.00, 
1649.00, 
1650.00, 
1651.00, 
1652.00, 
1653.00, 
1654.00, 
1655.00, 
1656.00, 
1657.00, 
1658.00, 
1659.00, 
1660.00, 
1661.00, 
1662.00, 
1663.00, 
1664.00, 
1665.00, 
1666.00, 
1667.00, 
1668.00, 
1669.00, 
1670.00, 
1671.00, 
1672.00, 
1673.00, 
1674.00, 
1675.00, 
1676.00, 
1677.00, 
1678.00, 
1679.00, 
1680.00, 
1681.00, 
1682.00, 
1683.00, 
1684.00, 
1685.00, 
1686.00, 
1687.00, 
1688.00, 
1689.00, 
1690.00, 
1691.00, 
1692.00, 
1693.00, 
1694.00, 
1695.00, 
1696.00, 
1697.00, 
1698.00, 
1699.00, 
1700.00, 
1701.00, 
1702.00, 
1703.00, 
1704.00, 
1705.00, 
1706.00, 
1707.00, 
1708.00, 
1709.00, 
1710.00, 
1711.00, 
1712.00, 
1713.00, 
1714.00, 
1715.00, 
1716.00, 
1717.00, 
1718.00, 
1719.00, 
1720.00, 
1721.00, 
1722.00, 
1723.00, 
1724.00, 
1725.00, 
1726.00, 
1727.00, 
1728.00, 
1729.00, 
1730.00, 
1731.00, 
1732.00, 
1733.00, 
1734.00, 
1735.00, 
1736.00, 
1737.00, 
1738.00, 
1739.00, 
1740.00, 
1741.00, 
1742.00, 
1743.00, 
1744.00, 
1745.00, 
1746.00, 
1747.00, 
1748.00, 
1749.00, 
1750.00, 
1751.00, 
1752.00, 
1753.00, 
1754.00, 
1755.00, 
1756.00, 
1757.00, 
1758.00, 
1759.00, 
1760.00, 
1761.00, 
1762.00, 
1763.00, 
1764.00, 
1765.00, 
1766.00, 
1767.00, 
1768.00, 
1769.00, 
1770.00, 
1771.00, 
1772.00, 
1773.00, 
1774.00, 
1775.00, 
1776.00, 
1777.00, 
1778.00, 
1779.00, 
1780.00, 
1781.00, 
1782.00, 
1783.00, 
1784.00, 
1785.00, 
1786.00, 
1787.00, 
1788.00, 
1789.00, 
1790.00, 
1791.00, 
1792.00, 
1793.00, 
1794.00, 
1795.00, 
1796.00, 
1797.00, 
1798.00, 
1799.00, 
1800.00, 
1801.00, 
1802.00, 
1803.00, 
1804.00, 
1805.00, 
1806.00, 
1807.00, 
1808.00, 
1809.00, 
1810.00, 
1811.00, 
1812.00, 
1813.00, 
1814.00, 
1815.00, 
1816.00, 
1817.00, 
1818.00, 
1819.00, 
1820.00, 
1821.00, 
1822.00, 
1823.00, 
1824.00, 
1825.00, 
1826.00, 
1827.00, 
1828.00, 
1829.00, 
1830.00, 
1831.00, 
1832.00, 
1833.00, 
1834.00, 
1835.00, 
1836.00, 
1837.00, 
1838.00, 
1839.00, 
1840.00, 
1841.00, 
1842.00, 
1843.00, 
1844.00, 
1845.00, 
1846.00, 
1847.00, 
1848.00, 
1849.00, 
1850.00, 
1851.00, 
1852.00, 
1853.00, 
1854.00, 
1855.00, 
1856.00, 
1857.00, 
1858.00, 
1859.00, 
1860.00, 
1861.00, 
1862.00, 
1863.00, 
1864.00, 
1865.00, 
1866.00, 
1867.00, 
1868.00, 
1869.00, 
1870.00, 
1871.00, 
1872.00, 
1873.00, 
1874.00, 
1875.00, 
1876.00, 
1877.00, 
1878.00, 
1879.00, 
1880.00, 
1881.00, 
1882.00, 
1883.00, 
1884.00, 
1885.00, 
1886.00, 
1887.00, 
1888.00, 
1889.00, 
1890.00, 
1891.00, 
1892.00, 
1893.00, 
1894.00, 
1895.00, 
1896.00, 
1897.00, 
1898.00, 
1899.00, 
1900.00, 
1901.00, 
1902.00, 
1903.00, 
1904.00, 
1905.00, 
1906.00, 
1907.00, 
1908.00, 
1909.00, 
1910.00, 
1911.00, 
1912.00, 
1913.00, 
1914.00, 
1915.00, 
1916.00, 
1917.00, 
1918.00, 
1919.00, 
1920.00, 
1921.00, 
1922.00, 
1923.00, 
1924.00, 
1925.00, 
1926.00, 
1927.00, 
1928.00, 
1929.00, 
1930.00, 
1931.00, 
1932.00, 
1933.00, 
1934.00, 
1935.00, 
1936.00, 
1937.00, 
1938.00, 
1939.00, 
1940.00, 
1941.00, 
1942.00, 
1943.00, 
1944.00, 
1945.00, 
1946.00, 
1947.00, 
1948.00, 
1949.00, 
1950.00, 
1951.00, 
1952.00, 
1953.00, 
1954.00, 
1955.00, 
1956.00, 
1957.00, 
1958.00, 
1959.00, 
1960.00, 
1961.00, 
1962.00, 
1963.00, 
1964.00, 
1965.00, 
1966.00, 
1967.00, 
1968.00, 
1969.00, 
1970.00, 
1971.00, 
1972.00, 
1973.00, 
1974.00, 
1975.00, 
1976.00, 
1977.00, 
1978.00, 
1979.00, 
1980.00, 
1981.00, 
1982.00, 
1983.00, 
1984.00, 
1985.00, 
1986.00, 
1987.00, 
1988.00, 
1989.00, 
1990.00, 
1991.00, 
1992.00, 
1993.00, 
1994.00, 
1995.00, 
1996.00, 
1997.00, 
1998.00, 
1999.00, 
2000.00, 
2001.00, 
2002.00, 
2003.00, 
2004.00, 
2005.00, 
2006.00, 
2007.00, 
2008.00, 
2009.00, 
2010.00, 
2011.00, 
2012.00, 
2013.00, 
2014.00, 
2015.00, 
2016.00, 
2017.00, 
2018.00, 
2019.00, 
2020.00, 
2021.00, 
2022.00, 
2023.00, 
2024.00, 
2025.00, 
2026.00, 
2027.00, 
2028.00, 
2029.00, 
2030.00, 
2031.00, 
2032.00, 
2033.00, 
2034.00, 
2035.00, 
2036.00, 
2037.00, 
2038.00, 
2039.00, 
2040.00, 
2041.00, 
2042.00, 
2043.00, 
2044.00, 
2045.00, 
2046.00, 
2047.00, 
2048.00, 
2049.00, 
2050.00, 
2051.00, 
2052.00, 
2053.00, 
2054.00, 
2055.00, 
2056.00, 
2057.00, 
2058.00, 
2059.00, 
2060.00, 
2061.00, 
2062.00, 
2063.00, 
2064.00, 
2065.00, 
2066.00, 
2067.00, 
2068.00, 
2069.00, 
2070.00, 
2071.00, 
2072.00, 
2073.00, 
2074.00, 
2075.00, 
2076.00, 
2077.00, 
2078.00, 
2079.00, 
2080.00, 
2081.00, 
2082.00, 
2083.00, 
2084.00, 
2085.00, 
2086.00, 
2087.00, 
2088.00, 
2089.00, 
2090.00, 
2091.00, 
2092.00, 
2093.00, 
2094.00, 
2095.00, 
2096.00, 
2097.00, 
2098.00, 
2099.00, 
2100.00, 
2101.00, 
2102.00, 
2103.00, 
2104.00, 
2105.00, 
2106.00, 
2107.00, 
2108.00, 
2109.00, 
2110.00, 
2111.00, 
2112.00, 
2113.00, 
2114.00, 
2115.00, 
2116.00, 
2117.00, 
2118.00, 
2119.00, 
2120.00, 
2121.00, 
2122.00, 
2123.00, 
2124.00, 
2125.00, 
2126.00, 
2127.00, 
2128.00, 
2129.00, 
2130.00, 
2131.00, 
2132.00, 
2133.00, 
2134.00, 
2135.00, 
2136.00, 
2137.00, 
2138.00, 
2139.00, 
2140.00, 
2141.00, 
2142.00, 
2143.00, 
2144.00, 
2145.00, 
2146.00, 
2147.00, 
2148.00, 
2149.00, 
2150.00, 
2151.00, 
2152.00, 
2153.00, 
2154.00, 
2155.00, 
2156.00, 
2157.00, 
2158.00, 
2159.00, 
2160.00, 
2161.00, 
2162.00, 
2163.00, 
2164.00, 
2165.00, 
2166.00, 
2167.00, 
2168.00, 
2169.00, 
2170.00, 
2171.00, 
2172.00, 
2173.00, 
2174.00, 
2175.00, 
2176.00, 
2177.00, 
2178.00, 
2179.00, 
2180.00, 
2181.00, 
2182.00, 
2183.00, 
2184.00, 
2185.00, 
2186.00, 
2187.00, 
2188.00, 
2189.00, 
2190.00, 
2191.00, 
2192.00, 
2193.00, 
2194.00, 
2195.00, 
2196.00, 
2197.00, 
2198.00, 
2199.00, 
2200.00, 
2201.00, 
2202.00, 
2203.00, 
2204.00, 
2205.00, 
2206.00, 
2207.00, 
2208.00, 
2209.00, 
2210.00, 
2211.00, 
2212.00, 
2213.00, 
2214.00, 
2215.00, 
2216.00, 
2217.00, 
2218.00, 
2219.00, 
2220.00, 
2221.00, 
2222.00, 
2223.00, 
2224.00, 
2225.00, 
2226.00, 
2227.00, 
2228.00, 
2229.00, 
2230.00, 
2231.00, 
2232.00, 
2233.00, 
2234.00, 
2235.00, 
2236.00, 
2237.00, 
2238.00, 
2239.00, 
2240.00, 
2241.00, 
2242.00, 
2243.00, 
2244.00, 
2245.00, 
2246.00, 
2247.00, 
2248.00, 
2249.00, 
2250.00, 
2251.00, 
2252.00, 
2253.00, 
2254.00, 
2255.00, 
2256.00, 
2257.00, 
2258.00, 
2259.00, 
2260.00, 
2261.00, 
2262.00, 
2263.00, 
2264.00, 
2265.00, 
2266.00, 
2267.00, 
2268.00, 
2269.00, 
2270.00, 
2271.00, 
2272.00, 
2273.00, 
2274.00, 
2275.00, 
2276.00, 
2277.00, 
2278.00, 
2279.00, 
2280.00, 
2281.00, 
2282.00, 
2283.00, 
2284.00, 
2285.00, 
2286.00, 
2287.00, 
2288.00, 
2289.00, 
2290.00, 
2291.00, 
2292.00, 
2293.00, 
2294.00, 
2295.00, 
2296.00, 
2297.00, 
2298.00, 
2299.00, 
2300.00, 
2301.00, 
2302.00, 
2303.00, 
2304.00, 
2305.00, 
2306.00, 
2307.00, 
2308.00, 
2309.00, 
2310.00, 
2311.00, 
2312.00, 
2313.00, 
2314.00, 
2315.00, 
2316.00, 
2317.00, 
2318.00, 
2319.00, 
2320.00, 
2321.00, 
2322.00, 
2323.00, 
2324.00, 
2325.00, 
2326.00, 
2327.00, 
2328.00, 
2329.00, 
2330.00, 
2331.00, 
2332.00, 
2333.00, 
2334.00, 
2335.00, 
2336.00, 
2337.00, 
2338.00, 
2339.00, 
2340.00, 
2341.00, 
2342.00, 
2343.00, 
2344.00, 
2345.00, 
2346.00, 
2347.00, 
2348.00, 
2349.00, 
2350.00, 
2351.00, 
2352.00, 
2353.00, 
2354.00, 
2355.00, 
2356.00, 
2357.00, 
2358.00, 
2359.00, 
2360.00, 
2361.00, 
2362.00, 
2363.00, 
2364.00, 
2365.00, 
2366.00, 
2367.00, 
2368.00, 
2369.00, 
2370.00, 
2371.00, 
2372.00, 
2373.00, 
2374.00, 
2375.00, 
2376.00, 
2377.00, 
2378.00, 
2379.00, 
2380.00, 
2381.00, 
2382.00, 
2383.00, 
2384.00, 
2385.00, 
2386.00, 
2387.00, 
2388.00, 
2389.00, 
2390.00, 
2391.00, 
2392.00, 
2393.00, 
2394.00, 
2395.00, 
2396.00, 
2397.00, 
2398.00, 
2399.00, 
2400.00, 
2401.00, 
2402.00, 
2403.00, 
2404.00, 
2405.00, 
2406.00, 
2407.00, 
2408.00, 
2409.00, 
2410.00, 
2411.00, 
2412.00, 
2413.00, 
2414.00, 
2415.00, 
2416.00, 
2417.00, 
2418.00, 
2419.00, 
2420.00, 
2421.00, 
2422.00, 
2423.00, 
2424.00, 
2425.00, 
2426.00, 
2427.00, 
2428.00, 
2429.00, 
2430.00, 
2431.00, 
2432.00, 
2433.00, 
2434.00, 
2435.00, 
2436.00, 
2437.00, 
2438.00, 
2439.00, 
2440.00, 
2441.00, 
2442.00, 
2443.00, 
2444.00, 
2445.00, 
2446.00, 
2447.00, 
2448.00, 
2449.00, 
2450.00, 
2451.00, 
2452.00, 
2453.00, 
2454.00, 
2455.00, 
2456.00, 
2457.00, 
2458.00, 
2459.00, 
2460.00, 
2461.00, 
2462.00, 
2463.00, 
2464.00, 
2465.00, 
2466.00, 
2467.00, 
2468.00, 
2469.00, 
2470.00, 
2471.00, 
2472.00, 
2473.00, 
2474.00, 
2475.00, 
2476.00, 
2477.00, 
2478.00, 
2479.00, 
2480.00, 
2481.00, 
2482.00, 
2483.00, 
2484.00, 
2485.00, 
2486.00, 
2487.00, 
2488.00, 
2489.00, 
2490.00, 
2491.00, 
2492.00, 
2493.00, 
2494.00, 
2495.00, 
2496.00, 
2497.00, 
2498.00, 
2499.00, 
2500.00, 
2501.00, 
2502.00, 
2503.00, 
2504.00, 
2505.00, 
2506.00, 
2507.00, 
2508.00, 
2509.00, 
2510.00, 
2511.00, 
2512.00, 
2513.00, 
2514.00, 
2515.00, 
2516.00, 
2517.00, 
2518.00, 
2519.00, 
2520.00, 
2521.00, 
2522.00, 
2523.00, 
2524.00, 
2525.00, 
2526.00, 
2527.00, 
2528.00, 
2529.00, 
2530.00, 
2531.00, 
2532.00, 
2533.00, 
2534.00, 
2535.00, 
2536.00, 
2537.00, 
2538.00, 
2539.00, 
2540.00, 
2541.00, 
2542.00, 
2543.00, 
2544.00, 
2545.00, 
2546.00, 
2547.00, 
2548.00, 
2549.00, 
2550.00, 
2551.00, 
2552.00, 
2553.00, 
2554.00, 
2555.00, 
2556.00, 
2557.00, 
2558.00, 
2559.00, 
2560.00, 
2561.00, 
2562.00, 
2563.00, 
2564.00, 
2565.00, 
2566.00, 
2567.00, 
2568.00, 
2569.00, 
2570.00, 
2571.00, 
2572.00, 
2573.00, 
2574.00, 
2575.00, 
2576.00, 
2577.00, 
2578.00, 
2579.00, 
2580.00, 
2581.00, 
2582.00, 
2583.00, 
2584.00, 
2585.00, 
2586.00, 
2587.00, 
2588.00, 
2589.00, 
2590.00, 
2591.00, 
2592.00, 
2593.00, 
2594.00, 
2595.00, 
2596.00, 
2597.00, 
2598.00, 
2599.00, 
2600.00, 
