"1cP4 - RawData"
"Wavelength nm.","T%"
200.00,0.001
201.00,-0.002
202.00,0.000
203.00,-0.001
204.00,0.000
205.00,0.001
206.00,0.001
207.00,-0.002
208.00,0.003
209.00,0.003
210.00,0.000
211.00,0.000
212.00,0.003
213.00,0.002
214.00,0.002
215.00,0.002
216.00,-0.000
217.00,0.004
218.00,0.002
219.00,-0.001
220.00,-0.001
221.00,0.000
222.00,0.002
223.00,0.003
224.00,0.002
225.00,-0.000
226.00,-0.001
227.00,0.003
228.00,0.000
229.00,0.002
230.00,0.003
231.00,0.002
232.00,0.002
233.00,-0.002
234.00,0.000
235.00,0.002
236.00,0.001
237.00,-0.000
238.00,0.000
239.00,-0.001
240.00,0.001
241.00,-0.001
242.00,0.001
243.00,0.000
244.00,0.002
245.00,-0.001
246.00,0.001
247.00,0.001
248.00,-0.002
249.00,0.000
250.00,-0.001
251.00,-0.002
252.00,0.001
253.00,0.000
254.00,-0.001
255.00,0.002
256.00,0.000
257.00,-0.001
258.00,-0.000
259.00,0.001
260.00,-0.001
261.00,0.002
262.00,-0.002
263.00,0.001
264.00,0.001
265.00,0.001
266.00,-0.000
267.00,0.001
268.00,0.000
269.00,0.001
270.00,0.000
271.00,0.001
272.00,-0.000
273.00,0.001
274.00,-0.000
275.00,-0.000
276.00,-0.000
277.00,0.000
278.00,0.000
279.00,0.000
280.00,0.000
281.00,0.001
282.00,0.000
283.00,0.000
284.00,0.000
285.00,0.001
286.00,-0.000
287.00,0.002
288.00,-0.000
289.00,0.000
290.00,-0.001
291.00,-0.000
292.00,0.000
293.00,0.000
294.00,0.000
295.00,-0.000
296.00,0.001
297.00,-0.001
298.00,0.001
299.00,0.001
300.00,0.001
301.00,0.001
302.00,-0.001
303.00,0.002
304.00,0.001
305.00,0.001
306.00,0.002
307.00,0.004
308.00,0.006
309.00,0.012
310.00,0.020
311.00,0.026
312.00,0.043
313.00,0.071
314.00,0.110
315.00,0.161
316.00,0.228
317.00,0.328
318.00,0.438
319.00,0.593
320.00,0.788
321.00,1.023
322.00,1.309
323.00,1.671
324.00,2.038
325.00,2.464
326.00,2.910
327.00,3.468
328.00,4.063
329.00,4.682
330.00,5.361
331.00,6.084
332.00,6.826
333.00,7.631
334.00,8.399
335.00,9.265
336.00,10.111
337.00,10.954
338.00,11.795
339.00,12.608
340.00,13.437
341.00,14.260
342.00,15.022
343.00,15.773
344.00,16.475
345.00,17.194
346.00,17.837
347.00,18.499
348.00,19.125
349.00,19.722
350.00,20.263
351.00,20.751
352.00,21.216
353.00,21.730
354.00,22.103
355.00,22.494
356.00,22.851
357.00,23.208
358.00,23.509
359.00,23.869
360.00,24.129
361.00,24.397
362.00,24.667
363.00,24.897
364.00,25.020
365.00,25.182
366.00,25.327
367.00,25.469
368.00,25.550
369.00,25.666
370.00,25.606
371.00,25.768
372.00,25.719
373.00,25.745
374.00,25.703
375.00,25.683
376.00,25.640
377.00,25.587
378.00,25.488
379.00,25.376
380.00,25.383
381.00,25.402
382.00,25.449
383.00,25.487
384.00,25.528
385.00,25.638
386.00,25.689
387.00,25.815
388.00,25.943
389.00,25.958
390.00,26.043
391.00,26.131
392.00,26.209
393.00,26.206
394.00,26.281
395.00,26.360
396.00,26.337
397.00,26.376
398.00,26.389
399.00,26.415
400.00,26.410
401.00,26.429
402.00,26.472
403.00,26.472
404.00,26.448
405.00,26.442
406.00,26.435
407.00,26.325
408.00,26.374
409.00,26.333
410.00,26.302
411.00,26.301
412.00,26.250
413.00,26.274
414.00,26.237
415.00,26.213
416.00,26.304
417.00,26.234
418.00,26.230
419.00,26.299
420.00,26.330
421.00,26.482
422.00,26.457
423.00,26.414
424.00,26.503
425.00,26.489
426.00,26.576
427.00,26.655
428.00,26.725
429.00,26.778
430.00,26.830
431.00,26.854
432.00,26.897
433.00,26.949
434.00,26.983
435.00,27.038
436.00,27.110
437.00,27.181
438.00,27.272
439.00,27.309
440.00,27.348
441.00,27.499
442.00,27.591
443.00,27.638
444.00,27.718
445.00,27.791
446.00,27.924
447.00,28.023
448.00,28.133
449.00,28.225
450.00,28.331
451.00,28.413
452.00,28.531
453.00,28.659
454.00,28.740
455.00,28.848
456.00,28.943
457.00,29.084
458.00,29.203
459.00,29.329
460.00,29.473
461.00,29.623
462.00,29.702
463.00,29.873
464.00,29.994
465.00,30.082
466.00,30.203
467.00,30.303
468.00,30.443
469.00,30.558
470.00,30.648
471.00,30.699
472.00,30.893
473.00,30.928
474.00,31.074
475.00,31.214
476.00,31.291
477.00,31.415
478.00,31.517
479.00,31.687
480.00,31.844
481.00,31.901
482.00,32.072
483.00,32.260
484.00,32.348
485.00,32.537
486.00,32.610
487.00,32.805
488.00,32.933
489.00,33.069
490.00,33.209
491.00,33.312
492.00,33.512
493.00,33.618
494.00,33.680
495.00,33.779
496.00,33.895
497.00,33.939
498.00,34.182
499.00,34.312
500.00,34.440
501.00,34.575
502.00,34.672
503.00,34.798
504.00,34.895
505.00,35.012
506.00,35.096
507.00,35.213
508.00,35.300
509.00,35.483
510.00,35.572
511.00,35.530
512.00,35.711
513.00,35.939
514.00,35.993
515.00,36.162
516.00,36.197
517.00,36.231
518.00,36.382
519.00,36.454
520.00,36.462
521.00,36.597
522.00,36.813
523.00,36.783
524.00,36.878
525.00,36.978
526.00,37.062
527.00,37.128
528.00,37.137
529.00,37.273
530.00,37.378
531.00,37.541
532.00,37.605
533.00,37.711
534.00,37.769
535.00,37.869
536.00,37.934
537.00,38.075
538.00,38.074
539.00,38.126
540.00,38.222
541.00,38.259
542.00,38.339
543.00,38.370
544.00,38.487
545.00,38.547
546.00,38.538
547.00,38.668
548.00,38.737
549.00,38.779
550.00,38.860
551.00,38.947
552.00,39.000
553.00,39.028
554.00,39.124
555.00,39.121
556.00,39.206
557.00,39.266
558.00,39.336
559.00,39.416
560.00,39.443
561.00,39.533
562.00,39.539
563.00,39.589
564.00,39.620
565.00,39.610
566.00,39.646
567.00,39.729
568.00,39.755
569.00,39.754
570.00,39.759
571.00,39.709
572.00,39.828
573.00,39.796
574.00,39.895
575.00,39.892
576.00,39.920
577.00,39.967
578.00,40.031
579.00,40.143
580.00,40.109
581.00,40.259
582.00,40.363
583.00,40.329
584.00,40.427
585.00,40.437
586.00,40.470
587.00,40.620
588.00,40.652
589.00,40.632
590.00,40.586
591.00,40.686
592.00,40.757
593.00,40.666
594.00,40.810
595.00,40.855
596.00,40.783
597.00,40.850
598.00,40.926
599.00,40.869
600.00,40.868
601.00,40.984
602.00,41.212
603.00,41.194
604.00,41.209
605.00,41.255
606.00,41.206
607.00,41.245
608.00,41.342
609.00,41.402
610.00,41.409
611.00,41.444
612.00,41.494
613.00,41.534
614.00,41.576
615.00,41.594
616.00,41.708
617.00,41.666
618.00,41.630
619.00,41.785
620.00,41.837
621.00,41.878
622.00,41.917
623.00,41.995
624.00,42.041
625.00,42.086
626.00,42.114
627.00,42.222
628.00,42.165
629.00,42.244
630.00,42.273
631.00,42.287
632.00,42.375
633.00,42.505
634.00,42.511
635.00,42.587
636.00,42.661
637.00,42.713
638.00,42.769
639.00,42.859
640.00,42.901
641.00,42.901
642.00,42.999
643.00,43.100
644.00,43.190
645.00,43.186
646.00,43.300
647.00,43.330
648.00,43.387
649.00,43.415
650.00,43.446
651.00,43.516
652.00,43.612
653.00,43.543
654.00,43.685
655.00,43.610
656.00,43.917
657.00,44.034
658.00,44.089
659.00,44.103
660.00,44.121
661.00,44.118
662.00,44.269
663.00,44.318
664.00,44.521
665.00,44.689
666.00,44.652
667.00,44.761
668.00,44.856
669.00,45.019
670.00,45.087
671.00,45.050
672.00,45.176
673.00,45.174
674.00,45.261
675.00,45.379
676.00,45.446
677.00,45.624
678.00,45.548
679.00,45.698
680.00,45.751
681.00,46.002
682.00,45.972
683.00,45.896
684.00,46.111
685.00,46.146
686.00,45.891
687.00,46.149
688.00,46.292
689.00,46.270
690.00,46.371
691.00,46.522
692.00,46.534
693.00,46.458
694.00,46.634
695.00,46.820
696.00,46.845
697.00,46.868
698.00,46.909
699.00,47.047
700.00,47.105
701.00,47.091
702.00,47.165
703.00,47.343
704.00,47.405
705.00,47.252
706.00,47.499
707.00,47.501
708.00,47.290
709.00,47.561
710.00,47.870
711.00,47.587
712.00,47.619
713.00,47.690
714.00,47.840
715.00,47.995
716.00,47.798
717.00,47.849
718.00,48.108
719.00,47.767
720.00,48.116
721.00,52.448
722.00,52.380
723.00,52.456
724.00,52.423
725.00,52.447
726.00,52.450
727.00,52.421
728.00,52.463
729.00,52.455
730.00,52.389
731.00,52.412
732.00,52.479
733.00,52.534
734.00,52.552
735.00,52.579
736.00,52.541
737.00,52.620
738.00,52.676
739.00,52.702
740.00,52.653
741.00,52.674
742.00,52.786
743.00,52.553
744.00,52.662
745.00,52.684
746.00,52.620
747.00,52.647
748.00,52.618
749.00,52.578
750.00,52.567
751.00,52.620
752.00,52.615
753.00,52.530
754.00,52.515
755.00,52.557
756.00,52.523
757.00,52.462
758.00,52.549
759.00,52.515
760.00,52.554
761.00,52.514
762.00,52.509
763.00,52.496
764.00,52.456
765.00,52.462
766.00,52.565
767.00,52.483
768.00,52.526
769.00,52.444
770.00,52.665
771.00,52.460
772.00,52.560
773.00,52.495
774.00,52.497
775.00,52.496
776.00,52.357
777.00,52.518
778.00,52.502
779.00,52.464
780.00,52.505
781.00,52.494
782.00,52.493
783.00,52.445
784.00,52.438
785.00,52.458
786.00,52.404
787.00,52.325
788.00,52.386
789.00,52.248
790.00,52.398
791.00,52.403
792.00,52.306
793.00,52.289
794.00,52.205
795.00,52.248
796.00,52.269
797.00,52.107
798.00,52.123
799.00,52.129
800.00,52.119
801.00,52.123
802.00,52.035
803.00,52.028
804.00,52.014
805.00,52.091
806.00,52.051
807.00,51.944
808.00,51.963
809.00,51.911
810.00,51.900
811.00,51.889
812.00,51.926
813.00,51.918
814.00,51.973
815.00,51.859
816.00,51.905
817.00,51.753
818.00,51.708
819.00,51.782
820.00,51.707
821.00,51.659
822.00,51.741
823.00,51.627
824.00,51.668
825.00,51.712
826.00,51.627
827.00,51.613
828.00,51.625
829.00,51.548
830.00,51.642
831.00,53.845
832.00,53.853
833.00,53.790
834.00,53.757
835.00,53.746
836.00,53.726
837.00,53.651
838.00,53.690
839.00,53.665
840.00,53.634
841.00,53.623
842.00,53.566
843.00,53.571
844.00,53.561
845.00,53.505
846.00,53.531
847.00,53.478
848.00,53.458
849.00,53.389
850.00,53.398
851.00,53.340
852.00,53.340
853.00,53.276
854.00,53.273
855.00,53.210
856.00,53.207
857.00,53.151
858.00,53.154
859.00,53.112
860.00,53.127
861.00,53.090
862.00,53.064
863.00,53.059
864.00,53.053
865.00,53.042
866.00,53.006
867.00,52.988
868.00,52.985
869.00,52.969
870.00,52.971
871.00,52.958
872.00,52.920
873.00,52.927
874.00,52.896
875.00,52.907
876.00,52.885
877.00,52.856
878.00,52.867
879.00,52.871
880.00,52.840
881.00,52.804
882.00,52.839
883.00,52.806
884.00,52.762
885.00,52.758
886.00,52.737
887.00,52.699
888.00,52.654
889.00,52.664
890.00,52.604
891.00,52.608
892.00,52.596
893.00,52.558
894.00,52.564
895.00,52.512
896.00,52.525
897.00,52.506
898.00,52.446
899.00,52.467
900.00,52.424
901.00,52.396
902.00,52.462
903.00,52.390
904.00,52.369
905.00,52.340
906.00,52.348
907.00,52.341
908.00,52.310
909.00,52.275
910.00,52.250
911.00,52.264
912.00,52.209
913.00,52.203
914.00,52.200
915.00,52.177
916.00,52.150
917.00,52.132
918.00,52.136
919.00,52.069
920.00,52.055
921.00,52.043
922.00,52.051
923.00,52.000
924.00,51.955
925.00,51.970
926.00,51.963
927.00,51.920
928.00,51.915
929.00,51.896
930.00,51.867
931.00,51.839
932.00,51.824
933.00,51.831
934.00,51.827
935.00,51.799
936.00,51.765
937.00,51.727
938.00,51.731
939.00,51.711
940.00,51.700
941.00,51.681
942.00,51.651
943.00,51.624
944.00,51.648
945.00,51.609
946.00,51.594
947.00,51.550
948.00,51.529
949.00,51.520
950.00,51.481
951.00,51.468
952.00,51.441
953.00,51.414
954.00,51.396
955.00,51.356
956.00,51.351
957.00,51.312
958.00,51.313
959.00,51.316
960.00,51.263
961.00,51.253
962.00,51.239
963.00,51.190
964.00,51.192
965.00,51.195
966.00,51.183
967.00,51.164
968.00,51.168
969.00,51.159
970.00,51.159
971.00,51.167
972.00,51.133
973.00,51.165
974.00,51.168
975.00,51.159
976.00,51.167
977.00,51.149
978.00,51.182
979.00,51.140
980.00,51.167
981.00,51.164
982.00,51.135
983.00,51.132
984.00,51.143
985.00,51.140
986.00,51.108
987.00,51.129
988.00,51.097
989.00,51.084
990.00,51.070
991.00,51.046
992.00,51.060
993.00,51.016
994.00,51.013
995.00,51.013
996.00,50.994
997.00,50.985
998.00,50.962
999.00,50.974
1000.00,50.933
1001.00,50.932
1002.00,50.926
1003.00,50.916
1004.00,50.880
1005.00,50.877
1006.00,50.904
1007.00,50.860
1008.00,50.860
1009.00,50.835
1010.00,50.842
1011.00,50.834
1012.00,50.806
1013.00,50.795
1014.00,50.756
1015.00,50.772
1016.00,50.735
1017.00,50.748
1018.00,50.699
1019.00,50.691
1020.00,50.697
1021.00,50.651
1022.00,50.652
1023.00,50.617
1024.00,50.606
1025.00,50.593
1026.00,50.588
1027.00,50.564
1028.00,50.561
1029.00,50.529
1030.00,50.509
1031.00,50.525
1032.00,50.489
1033.00,50.503
1034.00,50.482
1035.00,50.437
1036.00,50.426
1037.00,50.394
1038.00,50.383
1039.00,50.353
1040.00,50.343
1041.00,50.313
1042.00,50.314
1043.00,50.292
1044.00,50.330
1045.00,50.319
1046.00,50.288
1047.00,50.300
1048.00,50.313
1049.00,50.314
1050.00,50.329
1051.00,50.366
1052.00,50.359
1053.00,50.372
1054.00,50.354
1055.00,50.385
1056.00,50.402
1057.00,50.383
1058.00,50.381
1059.00,50.370
1060.00,50.383
1061.00,50.378
1062.00,50.345
1063.00,50.378
1064.00,50.375
1065.00,50.351
1066.00,50.349
1067.00,50.348
1068.00,50.373
1069.00,50.343
1070.00,50.318
1071.00,50.305
1072.00,50.312
1073.00,50.263
1074.00,50.282
1075.00,50.270
1076.00,50.262
1077.00,50.248
1078.00,50.240
1079.00,50.233
1080.00,50.248
1081.00,50.235
1082.00,50.219
1083.00,50.222
1084.00,50.198
1085.00,50.207
1086.00,50.207
1087.00,50.200
1088.00,50.184
1089.00,50.163
1090.00,50.159
1091.00,50.167
1092.00,50.143
1093.00,50.130
1094.00,50.132
1095.00,50.091
1096.00,50.099
1097.00,50.138
1098.00,50.085
1099.00,50.078
1100.00,50.067
1101.00,50.054
1102.00,50.066
1103.00,50.057
1104.00,50.044
1105.00,50.035
1106.00,50.014
1107.00,49.998
1108.00,49.995
1109.00,49.985
1110.00,49.977
1111.00,49.996
1112.00,49.987
1113.00,49.978
1114.00,49.962
1115.00,49.956
1116.00,49.960
1117.00,49.939
1118.00,49.943
1119.00,49.944
1120.00,49.950
1121.00,49.947
1122.00,49.926
1123.00,49.910
1124.00,49.913
1125.00,49.886
1126.00,49.893
1127.00,49.905
1128.00,49.854
1129.00,49.834
1130.00,49.844
1131.00,49.850
1132.00,49.846
1133.00,49.849
1134.00,49.821
1135.00,49.816
1136.00,49.808
1137.00,49.806
1138.00,49.822
1139.00,49.807
1140.00,49.832
1141.00,49.855
1142.00,49.791
1143.00,49.801
1144.00,49.787
1145.00,49.776
1146.00,49.796
1147.00,49.785
1148.00,49.780
1149.00,49.798
1150.00,49.794
1151.00,49.785
1152.00,49.780
1153.00,49.772
1154.00,49.771
1155.00,49.770
1156.00,49.759
1157.00,49.772
1158.00,49.762
1159.00,49.746
1160.00,49.754
1161.00,49.756
1162.00,49.767
1163.00,49.776
1164.00,49.766
1165.00,49.765
1166.00,49.758
1167.00,49.745
1168.00,49.773
1169.00,49.750
1170.00,49.750
1171.00,49.748
1172.00,49.737
1173.00,49.736
1174.00,49.751
1175.00,49.737
1176.00,49.728
1177.00,49.720
1178.00,49.726
1179.00,49.758
1180.00,49.725
1181.00,49.748
1182.00,49.764
1183.00,49.735
1184.00,49.720
1185.00,49.736
1186.00,49.723
1187.00,49.729
1188.00,49.723
1189.00,49.731
1190.00,49.733
1191.00,49.701
1192.00,49.731
1193.00,49.743
1194.00,49.735
1195.00,49.722
1196.00,49.764
1197.00,49.764
1198.00,49.754
1199.00,49.738
1200.00,49.734
1201.00,49.757
1202.00,49.726
1203.00,49.727
1204.00,49.731
1205.00,49.732
1206.00,49.730
1207.00,49.752
1208.00,49.725
1209.00,49.736
1210.00,49.730
1211.00,49.733
1212.00,49.768
1213.00,49.709
1214.00,49.738
1215.00,49.715
1216.00,49.742
1217.00,49.738
1218.00,49.738
1219.00,49.769
1220.00,49.726
1221.00,49.763
1222.00,49.741
1223.00,49.766
1224.00,49.748
1225.00,49.733
1226.00,49.756
1227.00,49.723
1228.00,49.757
1229.00,49.765
1230.00,49.793
1231.00,49.782
1232.00,49.790
1233.00,49.801
1234.00,49.808
1235.00,49.795
1236.00,49.798
1237.00,49.807
1238.00,49.791
1239.00,49.806
1240.00,49.804
1241.00,49.807
1242.00,49.809
1243.00,49.836
1244.00,49.806
1245.00,49.845
1246.00,49.848
1247.00,49.844
1248.00,49.839
1249.00,49.839
1250.00,49.852
1251.00,49.855
1252.00,49.863
1253.00,49.842
1254.00,49.878
1255.00,49.864
1256.00,49.856
1257.00,49.828
1258.00,49.878
1259.00,49.884
1260.00,49.893
1261.00,49.898
1262.00,49.901
1263.00,49.894
1264.00,49.911
1265.00,49.926
1266.00,49.925
1267.00,49.944
1268.00,49.950
1269.00,49.952
1270.00,49.966
1271.00,49.943
1272.00,49.961
1273.00,49.992
1274.00,49.966
1275.00,49.978
1276.00,49.995
1277.00,49.984
1278.00,49.996
1279.00,50.001
1280.00,50.005
1281.00,50.024
1282.00,50.017
1283.00,49.998
1284.00,50.034
1285.00,50.009
1286.00,50.035
1287.00,50.040
1288.00,50.031
1289.00,50.041
1290.00,50.063
1291.00,50.062
1292.00,50.065
1293.00,50.048
1294.00,50.073
1295.00,50.089
1296.00,50.085
1297.00,50.097
1298.00,50.127
1299.00,50.111
1300.00,50.139
1301.00,50.116
1302.00,50.146
1303.00,50.159
1304.00,50.129
1305.00,50.152
1306.00,50.161
1307.00,50.147
1308.00,50.170
1309.00,50.209
1310.00,50.175
1311.00,50.189
1312.00,50.183
1313.00,50.206
1314.00,50.229
1315.00,50.231
1316.00,50.246
1317.00,50.280
1318.00,50.278
1319.00,50.273
1320.00,50.292
1321.00,50.438
1322.00,50.431
1323.00,50.428
1324.00,50.441
1325.00,50.413
1326.00,50.436
1327.00,50.439
1328.00,50.435
1329.00,50.398
1330.00,50.440
1331.00,50.428
1332.00,50.431
1333.00,50.451
1334.00,50.483
1335.00,50.493
1336.00,50.513
1337.00,50.530
1338.00,50.634
1339.00,50.656
1340.00,50.697
1341.00,50.773
1342.00,50.828
1343.00,50.877
1344.00,50.954
1345.00,50.992
1346.00,51.034
1347.00,51.057
1348.00,51.077
1349.00,51.091
1350.00,51.095
1351.00,51.119
1352.00,51.125
1353.00,51.204
1354.00,51.143
1355.00,51.125
1356.00,51.171
1357.00,51.151
1358.00,51.228
1359.00,51.200
1360.00,51.227
1361.00,51.328
1362.00,51.269
1363.00,51.159
1364.00,51.249
1365.00,51.184
1366.00,51.227
1367.00,51.227
1368.00,51.269
1369.00,51.195
1370.00,51.241
1371.00,51.281
1372.00,51.220
1373.00,51.188
1374.00,51.225
1375.00,51.206
1376.00,51.215
1377.00,51.207
1378.00,51.289
1379.00,51.211
1380.00,51.265
1381.00,51.267
1382.00,51.216
1383.00,51.216
1384.00,51.196
1385.00,51.205
1386.00,51.204
1387.00,51.228
1388.00,51.218
1389.00,51.201
1390.00,51.173
1391.00,51.236
1392.00,51.211
1393.00,51.161
1394.00,51.220
1395.00,51.170
1396.00,51.225
1397.00,51.122
1398.00,51.115
1399.00,51.145
1400.00,51.537
1401.00,51.185
1402.00,51.155
1403.00,51.261
1404.00,51.264
1405.00,51.220
1406.00,51.299
1407.00,51.249
1408.00,51.284
1409.00,51.287
1410.00,51.311
1411.00,51.238
1412.00,51.298
1413.00,51.264
1414.00,51.336
1415.00,51.301
1416.00,51.343
1417.00,51.339
1418.00,51.392
1419.00,51.386
1420.00,51.395
1421.00,51.450
1422.00,51.418
1423.00,51.445
1424.00,51.462
1425.00,51.492
1426.00,51.476
1427.00,51.513
1428.00,51.507
1429.00,51.561
1430.00,51.541
1431.00,51.571
1432.00,51.591
1433.00,51.598
1434.00,51.589
1435.00,51.643
1436.00,51.662
1437.00,51.644
1438.00,51.686
1439.00,51.704
1440.00,51.724
1441.00,51.722
1442.00,51.732
1443.00,51.804
1444.00,51.832
1445.00,51.803
1446.00,51.862
1447.00,51.845
1448.00,51.881
1449.00,51.894
1450.00,51.882
1451.00,51.909
1452.00,51.945
1453.00,51.942
1454.00,51.968
1455.00,51.977
1456.00,52.013
1457.00,52.029
1458.00,52.020
1459.00,52.046
1460.00,52.064
1461.00,52.036
1462.00,52.097
1463.00,52.120
1464.00,52.118
1465.00,52.151
1466.00,52.156
1467.00,52.169
1468.00,52.262
1469.00,52.210
1470.00,52.225
1471.00,52.260
1472.00,52.245
1473.00,52.295
1474.00,52.326
1475.00,52.339
1476.00,52.381
1477.00,52.338
1478.00,52.363
1479.00,52.399
1480.00,52.382
1481.00,52.402
1482.00,52.450
1483.00,52.432
1484.00,52.454
1485.00,52.462
1486.00,52.458
1487.00,52.499
1488.00,52.507
1489.00,52.510
1490.00,52.531
1491.00,52.529
1492.00,52.556
1493.00,52.557
1494.00,52.572
1495.00,52.573
1496.00,52.621
1497.00,52.602
1498.00,52.636
1499.00,52.650
1500.00,52.677
1501.00, 
1502.00, 
1503.00, 
1504.00, 
1505.00, 
1506.00, 
1507.00, 
1508.00, 
1509.00, 
1510.00, 
1511.00, 
1512.00, 
1513.00, 
1514.00, 
1515.00, 
1516.00, 
1517.00, 
1518.00, 
1519.00, 
1520.00, 
1521.00, 
1522.00, 
1523.00, 
1524.00, 
1525.00, 
1526.00, 
1527.00, 
1528.00, 
1529.00, 
1530.00, 
1531.00, 
1532.00, 
1533.00, 
1534.00, 
1535.00, 
1536.00, 
1537.00, 
1538.00, 
1539.00, 
1540.00, 
1541.00, 
1542.00, 
1543.00, 
1544.00, 
1545.00, 
1546.00, 
1547.00, 
1548.00, 
1549.00, 
1550.00, 
1551.00, 
1552.00, 
1553.00, 
1554.00, 
1555.00, 
1556.00, 
1557.00, 
1558.00, 
1559.00, 
1560.00, 
1561.00, 
1562.00, 
1563.00, 
1564.00, 
1565.00, 
1566.00, 
1567.00, 
1568.00, 
1569.00, 
1570.00, 
1571.00, 
1572.00, 
1573.00, 
1574.00, 
1575.00, 
1576.00, 
1577.00, 
1578.00, 
1579.00, 
1580.00, 
1581.00, 
1582.00, 
1583.00, 
1584.00, 
1585.00, 
1586.00, 
1587.00, 
1588.00, 
1589.00, 
1590.00, 
1591.00, 
1592.00, 
1593.00, 
1594.00, 
1595.00, 
1596.00, 
1597.00, 
1598.00, 
1599.00, 
1600.00, 
1601.00, 
1602.00, 
1603.00, 
1604.00, 
1605.00, 
1606.00, 
1607.00, 
1608.00, 
1609.00, 
1610.00, 
1611.00, 
1612.00, 
1613.00, 
1614.00, 
1615.00, 
1616.00, 
1617.00, 
1618.00, 
1619.00, 
1620.00, 
1621.00, 
1622.00, 
1623.00, 
1624.00, 
1625.00, 
1626.00, 
1627.00, 
1628.00, 
1629.00, 
1630.00, 
1631.00, 
1632.00, 
1633.00, 
1634.00, 
1635.00, 
1636.00, 
1637.00, 
1638.00, 
1639.00, 
1640.00, 
1641.00, 
1642.00, 
1643.00, 
1644.00, 
1645.00, 
1646.00, 
1647.00, 
1648.00, 
1649.00, 
1650.00, 
1651.00, 
1652.00, 
1653.00, 
1654.00, 
1655.00, 
1656.00, 
1657.00, 
1658.00, 
1659.00, 
1660.00, 
1661.00, 
1662.00, 
1663.00, 
1664.00, 
1665.00, 
1666.00, 
1667.00, 
1668.00, 
1669.00, 
1670.00, 
1671.00, 
1672.00, 
1673.00, 
1674.00, 
1675.00, 
1676.00, 
1677.00, 
1678.00, 
1679.00, 
1680.00, 
1681.00, 
1682.00, 
1683.00, 
1684.00, 
1685.00, 
1686.00, 
1687.00, 
1688.00, 
1689.00, 
1690.00, 
1691.00, 
1692.00, 
1693.00, 
1694.00, 
1695.00, 
1696.00, 
1697.00, 
1698.00, 
1699.00, 
1700.00, 
1701.00, 
1702.00, 
1703.00, 
1704.00, 
1705.00, 
1706.00, 
1707.00, 
1708.00, 
1709.00, 
1710.00, 
1711.00, 
1712.00, 
1713.00, 
1714.00, 
1715.00, 
1716.00, 
1717.00, 
1718.00, 
1719.00, 
1720.00, 
1721.00, 
1722.00, 
1723.00, 
1724.00, 
1725.00, 
1726.00, 
1727.00, 
1728.00, 
1729.00, 
1730.00, 
1731.00, 
1732.00, 
1733.00, 
1734.00, 
1735.00, 
1736.00, 
1737.00, 
1738.00, 
1739.00, 
1740.00, 
1741.00, 
1742.00, 
1743.00, 
1744.00, 
1745.00, 
1746.00, 
1747.00, 
1748.00, 
1749.00, 
1750.00, 
1751.00, 
1752.00, 
1753.00, 
1754.00, 
1755.00, 
1756.00, 
1757.00, 
1758.00, 
1759.00, 
1760.00, 
1761.00, 
1762.00, 
1763.00, 
1764.00, 
1765.00, 
1766.00, 
1767.00, 
1768.00, 
1769.00, 
1770.00, 
1771.00, 
1772.00, 
1773.00, 
1774.00, 
1775.00, 
1776.00, 
1777.00, 
1778.00, 
1779.00, 
1780.00, 
1781.00, 
1782.00, 
1783.00, 
1784.00, 
1785.00, 
1786.00, 
1787.00, 
1788.00, 
1789.00, 
1790.00, 
1791.00, 
1792.00, 
1793.00, 
1794.00, 
1795.00, 
1796.00, 
1797.00, 
1798.00, 
1799.00, 
1800.00, 
1801.00, 
1802.00, 
1803.00, 
1804.00, 
1805.00, 
1806.00, 
1807.00, 
1808.00, 
1809.00, 
1810.00, 
1811.00, 
1812.00, 
1813.00, 
1814.00, 
1815.00, 
1816.00, 
1817.00, 
1818.00, 
1819.00, 
1820.00, 
1821.00, 
1822.00, 
1823.00, 
1824.00, 
1825.00, 
1826.00, 
1827.00, 
1828.00, 
1829.00, 
1830.00, 
1831.00, 
1832.00, 
1833.00, 
1834.00, 
1835.00, 
1836.00, 
1837.00, 
1838.00, 
1839.00, 
1840.00, 
1841.00, 
1842.00, 
1843.00, 
1844.00, 
1845.00, 
1846.00, 
1847.00, 
1848.00, 
1849.00, 
1850.00, 
1851.00, 
1852.00, 
1853.00, 
1854.00, 
1855.00, 
1856.00, 
1857.00, 
1858.00, 
1859.00, 
1860.00, 
1861.00, 
1862.00, 
1863.00, 
1864.00, 
1865.00, 
1866.00, 
1867.00, 
1868.00, 
1869.00, 
1870.00, 
1871.00, 
1872.00, 
1873.00, 
1874.00, 
1875.00, 
1876.00, 
1877.00, 
1878.00, 
1879.00, 
1880.00, 
1881.00, 
1882.00, 
1883.00, 
1884.00, 
1885.00, 
1886.00, 
1887.00, 
1888.00, 
1889.00, 
1890.00, 
1891.00, 
1892.00, 
1893.00, 
1894.00, 
1895.00, 
1896.00, 
1897.00, 
1898.00, 
1899.00, 
1900.00, 
1901.00, 
1902.00, 
1903.00, 
1904.00, 
1905.00, 
1906.00, 
1907.00, 
1908.00, 
1909.00, 
1910.00, 
1911.00, 
1912.00, 
1913.00, 
1914.00, 
1915.00, 
1916.00, 
1917.00, 
1918.00, 
1919.00, 
1920.00, 
1921.00, 
1922.00, 
1923.00, 
1924.00, 
1925.00, 
1926.00, 
1927.00, 
1928.00, 
1929.00, 
1930.00, 
1931.00, 
1932.00, 
1933.00, 
1934.00, 
1935.00, 
1936.00, 
1937.00, 
1938.00, 
1939.00, 
1940.00, 
1941.00, 
1942.00, 
1943.00, 
1944.00, 
1945.00, 
1946.00, 
1947.00, 
1948.00, 
1949.00, 
1950.00, 
1951.00, 
1952.00, 
1953.00, 
1954.00, 
1955.00, 
1956.00, 
1957.00, 
1958.00, 
1959.00, 
1960.00, 
1961.00, 
1962.00, 
1963.00, 
1964.00, 
1965.00, 
1966.00, 
1967.00, 
1968.00, 
1969.00, 
1970.00, 
1971.00, 
1972.00, 
1973.00, 
1974.00, 
1975.00, 
1976.00, 
1977.00, 
1978.00, 
1979.00, 
1980.00, 
1981.00, 
1982.00, 
1983.00, 
1984.00, 
1985.00, 
1986.00, 
1987.00, 
1988.00, 
1989.00, 
1990.00, 
1991.00, 
1992.00, 
1993.00, 
1994.00, 
1995.00, 
1996.00, 
1997.00, 
1998.00, 
1999.00, 
2000.00, 
2001.00, 
2002.00, 
2003.00, 
2004.00, 
2005.00, 
2006.00, 
2007.00, 
2008.00, 
2009.00, 
2010.00, 
2011.00, 
2012.00, 
2013.00, 
2014.00, 
2015.00, 
2016.00, 
2017.00, 
2018.00, 
2019.00, 
2020.00, 
2021.00, 
2022.00, 
2023.00, 
2024.00, 
2025.00, 
2026.00, 
2027.00, 
2028.00, 
2029.00, 
2030.00, 
2031.00, 
2032.00, 
2033.00, 
2034.00, 
2035.00, 
2036.00, 
2037.00, 
2038.00, 
2039.00, 
2040.00, 
2041.00, 
2042.00, 
2043.00, 
2044.00, 
2045.00, 
2046.00, 
2047.00, 
2048.00, 
2049.00, 
2050.00, 
2051.00, 
2052.00, 
2053.00, 
2054.00, 
2055.00, 
2056.00, 
2057.00, 
2058.00, 
2059.00, 
2060.00, 
2061.00, 
2062.00, 
2063.00, 
2064.00, 
2065.00, 
2066.00, 
2067.00, 
2068.00, 
2069.00, 
2070.00, 
2071.00, 
2072.00, 
2073.00, 
2074.00, 
2075.00, 
2076.00, 
2077.00, 
2078.00, 
2079.00, 
2080.00, 
2081.00, 
2082.00, 
2083.00, 
2084.00, 
2085.00, 
2086.00, 
2087.00, 
2088.00, 
2089.00, 
2090.00, 
2091.00, 
2092.00, 
2093.00, 
2094.00, 
2095.00, 
2096.00, 
2097.00, 
2098.00, 
2099.00, 
2100.00, 
2101.00, 
2102.00, 
2103.00, 
2104.00, 
2105.00, 
2106.00, 
2107.00, 
2108.00, 
2109.00, 
2110.00, 
2111.00, 
2112.00, 
2113.00, 
2114.00, 
2115.00, 
2116.00, 
2117.00, 
2118.00, 
2119.00, 
2120.00, 
2121.00, 
2122.00, 
2123.00, 
2124.00, 
2125.00, 
2126.00, 
2127.00, 
2128.00, 
2129.00, 
2130.00, 
2131.00, 
2132.00, 
2133.00, 
2134.00, 
2135.00, 
2136.00, 
2137.00, 
2138.00, 
2139.00, 
2140.00, 
2141.00, 
2142.00, 
2143.00, 
2144.00, 
2145.00, 
2146.00, 
2147.00, 
2148.00, 
2149.00, 
2150.00, 
2151.00, 
2152.00, 
2153.00, 
2154.00, 
2155.00, 
2156.00, 
2157.00, 
2158.00, 
2159.00, 
2160.00, 
2161.00, 
2162.00, 
2163.00, 
2164.00, 
2165.00, 
2166.00, 
2167.00, 
2168.00, 
2169.00, 
2170.00, 
2171.00, 
2172.00, 
2173.00, 
2174.00, 
2175.00, 
2176.00, 
2177.00, 
2178.00, 
2179.00, 
2180.00, 
2181.00, 
2182.00, 
2183.00, 
2184.00, 
2185.00, 
2186.00, 
2187.00, 
2188.00, 
2189.00, 
2190.00, 
2191.00, 
2192.00, 
2193.00, 
2194.00, 
2195.00, 
2196.00, 
2197.00, 
2198.00, 
2199.00, 
2200.00, 
2201.00, 
2202.00, 
2203.00, 
2204.00, 
2205.00, 
2206.00, 
2207.00, 
2208.00, 
2209.00, 
2210.00, 
2211.00, 
2212.00, 
2213.00, 
2214.00, 
2215.00, 
2216.00, 
2217.00, 
2218.00, 
2219.00, 
2220.00, 
2221.00, 
2222.00, 
2223.00, 
2224.00, 
2225.00, 
2226.00, 
2227.00, 
2228.00, 
2229.00, 
2230.00, 
2231.00, 
2232.00, 
2233.00, 
2234.00, 
2235.00, 
2236.00, 
2237.00, 
2238.00, 
2239.00, 
2240.00, 
2241.00, 
2242.00, 
2243.00, 
2244.00, 
2245.00, 
2246.00, 
2247.00, 
2248.00, 
2249.00, 
2250.00, 
2251.00, 
2252.00, 
2253.00, 
2254.00, 
2255.00, 
2256.00, 
2257.00, 
2258.00, 
2259.00, 
2260.00, 
2261.00, 
2262.00, 
2263.00, 
2264.00, 
2265.00, 
2266.00, 
2267.00, 
2268.00, 
2269.00, 
2270.00, 
2271.00, 
2272.00, 
2273.00, 
2274.00, 
2275.00, 
2276.00, 
2277.00, 
2278.00, 
2279.00, 
2280.00, 
2281.00, 
2282.00, 
2283.00, 
2284.00, 
2285.00, 
2286.00, 
2287.00, 
2288.00, 
2289.00, 
2290.00, 
2291.00, 
2292.00, 
2293.00, 
2294.00, 
2295.00, 
2296.00, 
2297.00, 
2298.00, 
2299.00, 
2300.00, 
2301.00, 
2302.00, 
2303.00, 
2304.00, 
2305.00, 
2306.00, 
2307.00, 
2308.00, 
2309.00, 
2310.00, 
2311.00, 
2312.00, 
2313.00, 
2314.00, 
2315.00, 
2316.00, 
2317.00, 
2318.00, 
2319.00, 
2320.00, 
2321.00, 
2322.00, 
2323.00, 
2324.00, 
2325.00, 
2326.00, 
2327.00, 
2328.00, 
2329.00, 
2330.00, 
2331.00, 
2332.00, 
2333.00, 
2334.00, 
2335.00, 
2336.00, 
2337.00, 
2338.00, 
2339.00, 
2340.00, 
2341.00, 
2342.00, 
2343.00, 
2344.00, 
2345.00, 
2346.00, 
2347.00, 
2348.00, 
2349.00, 
2350.00, 
2351.00, 
2352.00, 
2353.00, 
2354.00, 
2355.00, 
2356.00, 
2357.00, 
2358.00, 
2359.00, 
2360.00, 
2361.00, 
2362.00, 
2363.00, 
2364.00, 
2365.00, 
2366.00, 
2367.00, 
2368.00, 
2369.00, 
2370.00, 
2371.00, 
2372.00, 
2373.00, 
2374.00, 
2375.00, 
2376.00, 
2377.00, 
2378.00, 
2379.00, 
2380.00, 
2381.00, 
2382.00, 
2383.00, 
2384.00, 
2385.00, 
2386.00, 
2387.00, 
2388.00, 
2389.00, 
2390.00, 
2391.00, 
2392.00, 
2393.00, 
2394.00, 
2395.00, 
2396.00, 
2397.00, 
2398.00, 
2399.00, 
2400.00, 
2401.00, 
2402.00, 
2403.00, 
2404.00, 
2405.00, 
2406.00, 
2407.00, 
2408.00, 
2409.00, 
2410.00, 
2411.00, 
2412.00, 
2413.00, 
2414.00, 
2415.00, 
2416.00, 
2417.00, 
2418.00, 
2419.00, 
2420.00, 
2421.00, 
2422.00, 
2423.00, 
2424.00, 
2425.00, 
2426.00, 
2427.00, 
2428.00, 
2429.00, 
2430.00, 
2431.00, 
2432.00, 
2433.00, 
2434.00, 
2435.00, 
2436.00, 
2437.00, 
2438.00, 
2439.00, 
2440.00, 
2441.00, 
2442.00, 
2443.00, 
2444.00, 
2445.00, 
2446.00, 
2447.00, 
2448.00, 
2449.00, 
2450.00, 
2451.00, 
2452.00, 
2453.00, 
2454.00, 
2455.00, 
2456.00, 
2457.00, 
2458.00, 
2459.00, 
2460.00, 
2461.00, 
2462.00, 
2463.00, 
2464.00, 
2465.00, 
2466.00, 
2467.00, 
2468.00, 
2469.00, 
2470.00, 
2471.00, 
2472.00, 
2473.00, 
2474.00, 
2475.00, 
2476.00, 
2477.00, 
2478.00, 
2479.00, 
2480.00, 
2481.00, 
2482.00, 
2483.00, 
2484.00, 
2485.00, 
2486.00, 
2487.00, 
2488.00, 
2489.00, 
2490.00, 
2491.00, 
2492.00, 
2493.00, 
2494.00, 
2495.00, 
2496.00, 
2497.00, 
2498.00, 
2499.00, 
2500.00, 
2501.00, 
2502.00, 
2503.00, 
2504.00, 
2505.00, 
2506.00, 
2507.00, 
2508.00, 
2509.00, 
2510.00, 
2511.00, 
2512.00, 
2513.00, 
2514.00, 
2515.00, 
2516.00, 
2517.00, 
2518.00, 
2519.00, 
2520.00, 
2521.00, 
2522.00, 
2523.00, 
2524.00, 
2525.00, 
2526.00, 
2527.00, 
2528.00, 
2529.00, 
2530.00, 
2531.00, 
2532.00, 
2533.00, 
2534.00, 
2535.00, 
2536.00, 
2537.00, 
2538.00, 
2539.00, 
2540.00, 
2541.00, 
2542.00, 
2543.00, 
2544.00, 
2545.00, 
2546.00, 
2547.00, 
2548.00, 
2549.00, 
2550.00, 
2551.00, 
2552.00, 
2553.00, 
2554.00, 
2555.00, 
2556.00, 
2557.00, 
2558.00, 
2559.00, 
2560.00, 
2561.00, 
2562.00, 
2563.00, 
2564.00, 
2565.00, 
2566.00, 
2567.00, 
2568.00, 
2569.00, 
2570.00, 
2571.00, 
2572.00, 
2573.00, 
2574.00, 
2575.00, 
2576.00, 
2577.00, 
2578.00, 
2579.00, 
2580.00, 
2581.00, 
2582.00, 
2583.00, 
2584.00, 
2585.00, 
2586.00, 
2587.00, 
2588.00, 
2589.00, 
2590.00, 
2591.00, 
2592.00, 
2593.00, 
2594.00, 
2595.00, 
2596.00, 
2597.00, 
2598.00, 
2599.00, 
2600.00, 
