"2cP2 - RawData"
"Wavelength nm.","T%"
200.00,0.002
201.00,0.000
202.00,0.002
203.00,0.000
204.00,0.004
205.00,0.002
206.00,0.004
207.00,0.002
208.00,0.002
209.00,-0.000
210.00,0.002
211.00,0.003
212.00,0.002
213.00,0.000
214.00,0.003
215.00,0.002
216.00,0.001
217.00,0.002
218.00,0.003
219.00,0.003
220.00,0.003
221.00,0.001
222.00,0.001
223.00,0.000
224.00,0.003
225.00,0.004
226.00,0.000
227.00,0.001
228.00,0.000
229.00,0.000
230.00,0.001
231.00,-0.000
232.00,0.002
233.00,-0.001
234.00,0.003
235.00,0.001
236.00,0.001
237.00,0.002
238.00,0.001
239.00,0.000
240.00,0.001
241.00,0.000
242.00,-0.000
243.00,-0.000
244.00,0.001
245.00,-0.000
246.00,0.001
247.00,0.000
248.00,0.002
249.00,0.002
250.00,0.002
251.00,-0.001
252.00,-0.000
253.00,0.001
254.00,0.001
255.00,0.002
256.00,0.000
257.00,-0.001
258.00,-0.001
259.00,-0.000
260.00,0.001
261.00,-0.000
262.00,0.001
263.00,0.001
264.00,0.002
265.00,0.000
266.00,0.001
267.00,0.001
268.00,-0.000
269.00,-0.002
270.00,-0.001
271.00,0.002
272.00,0.001
273.00,0.001
274.00,0.001
275.00,-0.000
276.00,0.001
277.00,-0.000
278.00,0.001
279.00,-0.000
280.00,0.000
281.00,-0.000
282.00,-0.000
283.00,0.001
284.00,0.001
285.00,-0.001
286.00,-0.000
287.00,-0.000
288.00,0.001
289.00,0.001
290.00,-0.001
291.00,0.001
292.00,0.002
293.00,-0.000
294.00,0.000
295.00,0.000
296.00,0.001
297.00,-0.000
298.00,0.001
299.00,0.004
300.00,0.004
301.00,0.008
302.00,0.011
303.00,0.014
304.00,0.024
305.00,0.036
306.00,0.054
307.00,0.084
308.00,0.133
309.00,0.207
310.00,0.288
311.00,0.385
312.00,0.522
313.00,0.708
314.00,0.924
315.00,1.220
316.00,1.550
317.00,1.988
318.00,2.427
319.00,2.982
320.00,3.634
321.00,4.328
322.00,5.159
323.00,6.063
324.00,7.003
325.00,8.017
326.00,9.051
327.00,10.184
328.00,11.399
329.00,12.566
330.00,13.882
331.00,15.113
332.00,16.413
333.00,17.805
334.00,19.161
335.00,20.571
336.00,21.845
337.00,23.252
338.00,24.528
339.00,25.785
340.00,26.975
341.00,28.213
342.00,29.347
343.00,30.421
344.00,31.508
345.00,32.586
346.00,33.476
347.00,34.444
348.00,35.361
349.00,36.203
350.00,36.980
351.00,37.728
352.00,38.339
353.00,39.062
354.00,39.780
355.00,40.365
356.00,40.859
357.00,41.421
358.00,41.787
359.00,42.376
360.00,42.916
361.00,43.268
362.00,43.721
363.00,44.151
364.00,44.376
365.00,44.651
366.00,45.037
367.00,45.300
368.00,45.495
369.00,45.601
370.00,45.855
371.00,45.961
372.00,46.041
373.00,46.090
374.00,46.136
375.00,46.320
376.00,46.347
377.00,46.378
378.00,46.327
379.00,46.284
380.00,46.297
381.00,46.420
382.00,46.480
383.00,46.669
384.00,46.813
385.00,46.980
386.00,47.115
387.00,47.337
388.00,47.550
389.00,47.624
390.00,47.746
391.00,47.916
392.00,48.026
393.00,48.100
394.00,48.239
395.00,48.340
396.00,48.413
397.00,48.539
398.00,48.641
399.00,48.729
400.00,48.764
401.00,48.792
402.00,48.879
403.00,48.951
404.00,48.966
405.00,49.001
406.00,49.000
407.00,48.947
408.00,48.945
409.00,48.883
410.00,48.823
411.00,48.798
412.00,48.717
413.00,48.745
414.00,48.750
415.00,48.727
416.00,48.822
417.00,48.760
418.00,48.737
419.00,48.822
420.00,48.887
421.00,49.026
422.00,48.969
423.00,49.029
424.00,49.096
425.00,49.013
426.00,49.040
427.00,49.094
428.00,49.137
429.00,49.173
430.00,49.237
431.00,49.220
432.00,49.222
433.00,49.222
434.00,49.277
435.00,49.260
436.00,49.269
437.00,49.301
438.00,49.378
439.00,49.387
440.00,49.400
441.00,49.461
442.00,49.470
443.00,49.541
444.00,49.562
445.00,49.570
446.00,49.638
447.00,49.618
448.00,49.694
449.00,49.815
450.00,49.806
451.00,49.796
452.00,49.896
453.00,49.963
454.00,49.982
455.00,49.959
456.00,50.040
457.00,50.098
458.00,50.055
459.00,50.160
460.00,50.232
461.00,50.254
462.00,50.280
463.00,50.378
464.00,50.405
465.00,50.384
466.00,50.466
467.00,50.474
468.00,50.458
469.00,50.378
470.00,50.410
471.00,50.435
472.00,50.523
473.00,50.467
474.00,50.425
475.00,50.412
476.00,50.523
477.00,50.542
478.00,50.567
479.00,50.705
480.00,50.743
481.00,50.769
482.00,50.851
483.00,50.911
484.00,51.002
485.00,51.020
486.00,51.070
487.00,51.157
488.00,51.134
489.00,51.182
490.00,51.283
491.00,51.273
492.00,51.420
493.00,51.452
494.00,51.367
495.00,51.457
496.00,51.471
497.00,51.457
498.00,51.560
499.00,51.672
500.00,51.589
501.00,51.564
502.00,51.660
503.00,51.676
504.00,51.707
505.00,51.791
506.00,51.834
507.00,51.761
508.00,51.827
509.00,51.883
510.00,52.014
511.00,51.863
512.00,52.003
513.00,52.103
514.00,52.155
515.00,52.132
516.00,52.111
517.00,52.081
518.00,52.130
519.00,52.233
520.00,52.261
521.00,52.210
522.00,52.287
523.00,52.191
524.00,52.244
525.00,52.308
526.00,52.298
527.00,52.277
528.00,52.220
529.00,52.338
530.00,52.491
531.00,52.520
532.00,52.557
533.00,52.603
534.00,52.582
535.00,52.614
536.00,52.641
537.00,52.692
538.00,52.669
539.00,52.694
540.00,52.679
541.00,52.699
542.00,52.739
543.00,52.708
544.00,52.796
545.00,52.836
546.00,52.723
547.00,52.882
548.00,52.905
549.00,52.859
550.00,52.886
551.00,52.919
552.00,52.959
553.00,52.907
554.00,52.943
555.00,52.925
556.00,52.940
557.00,52.999
558.00,52.982
559.00,52.996
560.00,53.057
561.00,53.058
562.00,53.104
563.00,53.050
564.00,53.089
565.00,53.049
566.00,53.032
567.00,53.063
568.00,53.031
569.00,53.042
570.00,53.058
571.00,52.997
572.00,53.024
573.00,53.020
574.00,53.004
575.00,52.956
576.00,52.981
577.00,53.036
578.00,53.114
579.00,53.137
580.00,53.117
581.00,53.282
582.00,53.367
583.00,53.256
584.00,53.354
585.00,53.405
586.00,53.407
587.00,53.517
588.00,53.475
589.00,53.410
590.00,53.503
591.00,53.453
592.00,53.435
593.00,53.420
594.00,53.514
595.00,53.615
596.00,53.689
597.00,53.639
598.00,53.567
599.00,53.540
600.00,53.500
601.00,53.501
602.00,53.449
603.00,53.473
604.00,53.550
605.00,53.598
606.00,53.420
607.00,53.399
608.00,53.543
609.00,53.611
610.00,53.380
611.00,53.472
612.00,53.478
613.00,53.440
614.00,53.575
615.00,53.601
616.00,53.487
617.00,53.347
618.00,53.359
619.00,53.522
620.00,53.464
621.00,53.483
622.00,53.498
623.00,53.459
624.00,53.497
625.00,53.536
626.00,53.467
627.00,53.538
628.00,53.399
629.00,53.489
630.00,53.515
631.00,53.395
632.00,53.285
633.00,53.477
634.00,53.525
635.00,53.556
636.00,53.483
637.00,53.393
638.00,53.408
639.00,53.577
640.00,53.496
641.00,53.342
642.00,53.295
643.00,53.420
644.00,53.437
645.00,53.405
646.00,53.497
647.00,53.516
648.00,53.470
649.00,53.358
650.00,53.394
651.00,53.407
652.00,53.500
653.00,53.240
654.00,53.225
655.00,53.316
656.00,53.569
657.00,53.198
658.00,53.406
659.00,53.418
660.00,53.285
661.00,53.128
662.00,53.186
663.00,53.234
664.00,53.559
665.00,53.477
666.00,53.347
667.00,53.292
668.00,53.266
669.00,53.455
670.00,53.466
671.00,53.368
672.00,53.253
673.00,53.249
674.00,53.244
675.00,53.163
676.00,53.284
677.00,53.390
678.00,53.162
679.00,53.211
680.00,53.235
681.00,53.414
682.00,53.208
683.00,53.091
684.00,53.180
685.00,53.219
686.00,52.983
687.00,53.052
688.00,52.987
689.00,52.995
690.00,53.157
691.00,53.237
692.00,52.982
693.00,52.902
694.00,52.972
695.00,53.114
696.00,53.124
697.00,52.779
698.00,52.751
699.00,52.981
700.00,52.785
701.00,52.827
702.00,52.767
703.00,52.677
704.00,52.527
705.00,52.760
706.00,53.241
707.00,52.720
708.00,52.497
709.00,52.820
710.00,53.109
711.00,52.533
712.00,52.437
713.00,52.715
714.00,52.729
715.00,52.651
716.00,52.499
717.00,52.539
718.00,52.633
719.00,52.474
720.00,52.448
721.00,57.235
722.00,57.016
723.00,56.994
724.00,56.845
725.00,56.854
726.00,56.768
727.00,56.605
728.00,56.640
729.00,56.526
730.00,56.483
731.00,56.453
732.00,56.355
733.00,56.343
734.00,56.261
735.00,56.319
736.00,56.180
737.00,56.145
738.00,56.082
739.00,56.103
740.00,56.095
741.00,55.949
742.00,56.017
743.00,55.882
744.00,55.810
745.00,55.781
746.00,55.684
747.00,55.682
748.00,55.530
749.00,55.442
750.00,55.407
751.00,55.325
752.00,55.340
753.00,55.336
754.00,55.155
755.00,55.170
756.00,55.069
757.00,55.085
758.00,55.026
759.00,54.965
760.00,54.914
761.00,54.882
762.00,54.764
763.00,54.758
764.00,54.766
765.00,54.658
766.00,54.701
767.00,54.646
768.00,54.579
769.00,54.459
770.00,54.532
771.00,54.450
772.00,54.475
773.00,54.437
774.00,54.349
775.00,54.377
776.00,54.202
777.00,54.307
778.00,54.288
779.00,54.161
780.00,54.112
781.00,54.120
782.00,54.135
783.00,53.994
784.00,54.020
785.00,53.999
786.00,53.925
787.00,53.877
788.00,53.854
789.00,53.812
790.00,53.769
791.00,53.808
792.00,53.678
793.00,53.642
794.00,53.531
795.00,53.496
796.00,53.586
797.00,53.343
798.00,53.377
799.00,53.393
800.00,53.348
801.00,53.341
802.00,53.283
803.00,53.207
804.00,53.127
805.00,53.219
806.00,53.171
807.00,53.055
808.00,53.106
809.00,53.070
810.00,52.983
811.00,52.901
812.00,52.902
813.00,52.848
814.00,52.884
815.00,52.799
816.00,52.865
817.00,52.775
818.00,52.667
819.00,52.635
820.00,52.635
821.00,52.565
822.00,52.554
823.00,52.480
824.00,52.547
825.00,52.548
826.00,52.513
827.00,52.434
828.00,52.396
829.00,52.290
830.00,52.312
831.00,54.873
832.00,54.866
833.00,54.827
834.00,54.782
835.00,54.730
836.00,54.739
837.00,54.644
838.00,54.644
839.00,54.718
840.00,54.592
841.00,54.576
842.00,54.486
843.00,54.502
844.00,54.480
845.00,54.408
846.00,54.432
847.00,54.391
848.00,54.311
849.00,54.278
850.00,54.254
851.00,54.177
852.00,54.158
853.00,54.086
854.00,54.110
855.00,54.018
856.00,54.019
857.00,53.966
858.00,53.941
859.00,53.878
860.00,53.869
861.00,53.841
862.00,53.791
863.00,53.785
864.00,53.738
865.00,53.758
866.00,53.690
867.00,53.723
868.00,53.717
869.00,53.682
870.00,53.661
871.00,53.643
872.00,53.614
873.00,53.627
874.00,53.580
875.00,53.545
876.00,53.537
877.00,53.520
878.00,53.529
879.00,53.472
880.00,53.470
881.00,53.424
882.00,53.440
883.00,53.384
884.00,53.346
885.00,53.304
886.00,53.286
887.00,53.274
888.00,53.256
889.00,53.208
890.00,53.194
891.00,53.170
892.00,53.176
893.00,53.107
894.00,53.104
895.00,53.072
896.00,53.067
897.00,53.039
898.00,53.000
899.00,53.014
900.00,52.993
901.00,52.971
902.00,52.975
903.00,52.930
904.00,52.911
905.00,52.863
906.00,52.888
907.00,52.828
908.00,52.726
909.00,52.851
910.00,52.754
911.00,52.742
912.00,52.760
913.00,52.689
914.00,52.673
915.00,52.637
916.00,52.628
917.00,52.604
918.00,52.589
919.00,52.548
920.00,52.538
921.00,52.518
922.00,52.505
923.00,52.476
924.00,52.444
925.00,52.420
926.00,52.395
927.00,52.376
928.00,52.371
929.00,52.338
930.00,52.319
931.00,52.313
932.00,52.278
933.00,52.278
934.00,52.242
935.00,52.246
936.00,52.191
937.00,52.171
938.00,52.155
939.00,52.135
940.00,52.110
941.00,52.116
942.00,52.066
943.00,52.064
944.00,52.028
945.00,52.023
946.00,52.001
947.00,51.964
948.00,51.949
949.00,51.921
950.00,51.894
951.00,51.873
952.00,51.857
953.00,51.827
954.00,51.809
955.00,51.758
956.00,51.763
957.00,51.717
958.00,51.705
959.00,51.670
960.00,51.670
961.00,51.654
962.00,51.630
963.00,51.586
964.00,51.575
965.00,51.564
966.00,51.575
967.00,51.564
968.00,51.543
969.00,51.541
970.00,51.536
971.00,51.544
972.00,51.509
973.00,51.533
974.00,51.550
975.00,51.525
976.00,51.530
977.00,51.528
978.00,51.561
979.00,51.514
980.00,51.535
981.00,51.533
982.00,51.527
983.00,51.507
984.00,51.501
985.00,51.510
986.00,51.466
987.00,51.492
988.00,51.467
989.00,51.455
990.00,51.422
991.00,51.404
992.00,51.426
993.00,51.391
994.00,51.361
995.00,51.362
996.00,51.370
997.00,51.336
998.00,51.325
999.00,51.348
1000.00,51.289
1001.00,51.295
1002.00,51.280
1003.00,51.279
1004.00,51.252
1005.00,51.232
1006.00,51.254
1007.00,51.227
1008.00,51.218
1009.00,51.185
1010.00,51.184
1011.00,51.167
1012.00,51.136
1013.00,51.134
1014.00,51.094
1015.00,51.115
1016.00,51.067
1017.00,51.073
1018.00,51.040
1019.00,51.018
1020.00,51.001
1021.00,50.988
1022.00,50.984
1023.00,50.942
1024.00,50.949
1025.00,50.935
1026.00,50.925
1027.00,50.928
1028.00,50.891
1029.00,50.885
1030.00,50.851
1031.00,50.861
1032.00,50.828
1033.00,50.830
1034.00,50.798
1035.00,50.747
1036.00,50.738
1037.00,50.716
1038.00,50.686
1039.00,50.689
1040.00,50.663
1041.00,50.631
1042.00,50.650
1043.00,50.616
1044.00,50.645
1045.00,50.623
1046.00,50.601
1047.00,50.622
1048.00,50.634
1049.00,50.631
1050.00,50.651
1051.00,50.684
1052.00,50.692
1053.00,50.688
1054.00,50.684
1055.00,50.710
1056.00,50.733
1057.00,50.708
1058.00,50.704
1059.00,50.703
1060.00,50.699
1061.00,50.684
1062.00,50.672
1063.00,50.684
1064.00,50.679
1065.00,50.671
1066.00,50.653
1067.00,50.643
1068.00,50.655
1069.00,50.626
1070.00,50.600
1071.00,50.583
1072.00,50.602
1073.00,50.576
1074.00,50.591
1075.00,50.581
1076.00,50.577
1077.00,50.560
1078.00,50.525
1079.00,50.507
1080.00,50.519
1081.00,50.505
1082.00,50.496
1083.00,50.497
1084.00,50.491
1085.00,50.491
1086.00,50.482
1087.00,50.474
1088.00,50.450
1089.00,50.437
1090.00,50.431
1091.00,50.427
1092.00,50.426
1093.00,50.400
1094.00,50.383
1095.00,50.375
1096.00,50.364
1097.00,50.366
1098.00,50.351
1099.00,50.345
1100.00,50.343
1101.00,50.314
1102.00,50.326
1103.00,50.352
1104.00,50.311
1105.00,50.301
1106.00,50.303
1107.00,50.287
1108.00,50.281
1109.00,50.274
1110.00,50.264
1111.00,50.254
1112.00,50.227
1113.00,50.209
1114.00,50.230
1115.00,50.237
1116.00,50.247
1117.00,50.239
1118.00,50.206
1119.00,50.197
1120.00,50.201
1121.00,50.193
1122.00,50.175
1123.00,50.158
1124.00,50.166
1125.00,50.160
1126.00,50.148
1127.00,50.139
1128.00,50.132
1129.00,50.119
1130.00,50.104
1131.00,50.097
1132.00,50.101
1133.00,50.100
1134.00,50.067
1135.00,50.072
1136.00,50.081
1137.00,50.065
1138.00,50.066
1139.00,50.082
1140.00,50.063
1141.00,50.048
1142.00,50.042
1143.00,50.053
1144.00,50.020
1145.00,50.009
1146.00,50.035
1147.00,50.016
1148.00,50.024
1149.00,50.052
1150.00,50.033
1151.00,50.024
1152.00,50.016
1153.00,50.005
1154.00,50.000
1155.00,49.994
1156.00,49.978
1157.00,49.988
1158.00,50.003
1159.00,49.972
1160.00,49.972
1161.00,49.989
1162.00,49.976
1163.00,49.985
1164.00,50.001
1165.00,49.979
1166.00,49.978
1167.00,49.964
1168.00,49.972
1169.00,49.982
1170.00,49.972
1171.00,49.948
1172.00,49.963
1173.00,49.959
1174.00,49.963
1175.00,49.959
1176.00,49.960
1177.00,49.936
1178.00,49.931
1179.00,49.960
1180.00,49.950
1181.00,49.962
1182.00,49.961
1183.00,49.955
1184.00,49.954
1185.00,49.968
1186.00,49.942
1187.00,49.947
1188.00,49.935
1189.00,49.934
1190.00,49.933
1191.00,49.925
1192.00,49.936
1193.00,49.939
1194.00,49.943
1195.00,49.912
1196.00,49.940
1197.00,49.941
1198.00,49.931
1199.00,49.916
1200.00,49.911
1201.00,49.929
1202.00,49.942
1203.00,49.930
1204.00,49.928
1205.00,49.934
1206.00,49.917
1207.00,49.936
1208.00,49.913
1209.00,49.941
1210.00,49.946
1211.00,49.903
1212.00,49.928
1213.00,49.896
1214.00,49.916
1215.00,49.907
1216.00,49.917
1217.00,49.918
1218.00,49.906
1219.00,49.910
1220.00,49.900
1221.00,49.899
1222.00,49.895
1223.00,49.914
1224.00,49.909
1225.00,49.906
1226.00,49.901
1227.00,49.902
1228.00,49.923
1229.00,49.928
1230.00,49.956
1231.00,49.947
1232.00,49.960
1233.00,49.958
1234.00,49.965
1235.00,49.956
1236.00,49.949
1237.00,49.958
1238.00,49.969
1239.00,49.967
1240.00,49.965
1241.00,49.965
1242.00,49.979
1243.00,49.982
1244.00,49.949
1245.00,49.980
1246.00,49.996
1247.00,49.975
1248.00,49.971
1249.00,49.991
1250.00,49.991
1251.00,50.002
1252.00,49.996
1253.00,50.006
1254.00,50.014
1255.00,50.029
1256.00,50.033
1257.00,49.977
1258.00,50.017
1259.00,50.014
1260.00,50.044
1261.00,50.041
1262.00,50.030
1263.00,50.023
1264.00,50.035
1265.00,50.040
1266.00,50.038
1267.00,50.045
1268.00,50.058
1269.00,50.064
1270.00,50.095
1271.00,50.102
1272.00,50.070
1273.00,50.091
1274.00,50.092
1275.00,50.098
1276.00,50.100
1277.00,50.089
1278.00,50.118
1279.00,50.113
1280.00,50.099
1281.00,50.115
1282.00,50.121
1283.00,50.126
1284.00,50.104
1285.00,50.105
1286.00,50.136
1287.00,50.117
1288.00,50.105
1289.00,50.109
1290.00,50.140
1291.00,50.132
1292.00,50.136
1293.00,50.138
1294.00,50.160
1295.00,50.180
1296.00,50.179
1297.00,50.190
1298.00,50.205
1299.00,50.179
1300.00,50.193
1301.00,50.204
1302.00,50.208
1303.00,50.220
1304.00,50.205
1305.00,50.226
1306.00,50.236
1307.00,50.240
1308.00,50.253
1309.00,50.247
1310.00,50.234
1311.00,50.233
1312.00,50.249
1313.00,50.259
1314.00,50.282
1315.00,50.284
1316.00,50.278
1317.00,50.310
1318.00,50.306
1319.00,50.297
1320.00,50.316
1321.00,50.461
1322.00,50.485
1323.00,50.452
1324.00,50.425
1325.00,50.425
1326.00,50.462
1327.00,50.457
1328.00,50.439
1329.00,50.457
1330.00,50.456
1331.00,50.450
1332.00,50.462
1333.00,50.479
1334.00,50.474
1335.00,50.500
1336.00,50.513
1337.00,50.574
1338.00,50.606
1339.00,50.672
1340.00,50.741
1341.00,50.777
1342.00,50.841
1343.00,50.905
1344.00,50.956
1345.00,50.984
1346.00,51.019
1347.00,51.074
1348.00,51.101
1349.00,51.120
1350.00,51.122
1351.00,51.152
1352.00,51.151
1353.00,51.172
1354.00,51.169
1355.00,51.139
1356.00,51.185
1357.00,51.175
1358.00,51.184
1359.00,51.241
1360.00,51.366
1361.00,51.171
1362.00,51.183
1363.00,51.207
1364.00,51.257
1365.00,51.224
1366.00,51.265
1367.00,51.177
1368.00,51.145
1369.00,51.207
1370.00,51.205
1371.00,51.181
1372.00,51.166
1373.00,51.212
1374.00,51.177
1375.00,51.197
1376.00,51.206
1377.00,51.204
1378.00,51.152
1379.00,51.153
1380.00,51.172
1381.00,51.134
1382.00,51.138
1383.00,51.157
1384.00,51.137
1385.00,51.160
1386.00,51.175
1387.00,51.158
1388.00,51.170
1389.00,51.143
1390.00,51.275
1391.00,51.101
1392.00,51.140
1393.00,51.135
1394.00,51.134
1395.00,51.117
1396.00,51.106
1397.00,51.131
1398.00,51.187
1399.00,51.143
1400.00,51.217
1401.00,51.116
1402.00,51.166
1403.00,51.174
1404.00,51.164
1405.00,51.201
1406.00,51.203
1407.00,51.235
1408.00,51.200
1409.00,51.197
1410.00,51.240
1411.00,51.217
1412.00,51.211
1413.00,51.133
1414.00,51.266
1415.00,51.287
1416.00,51.276
1417.00,51.265
1418.00,51.286
1419.00,51.302
1420.00,51.314
1421.00,51.333
1422.00,51.323
1423.00,51.338
1424.00,51.357
1425.00,51.379
1426.00,51.381
1427.00,51.398
1428.00,51.396
1429.00,51.428
1430.00,51.438
1431.00,51.460
1432.00,51.480
1433.00,51.463
1434.00,51.483
1435.00,51.486
1436.00,51.524
1437.00,51.503
1438.00,51.534
1439.00,51.561
1440.00,51.571
1441.00,51.577
1442.00,51.595
1443.00,51.628
1444.00,51.640
1445.00,51.652
1446.00,51.655
1447.00,51.684
1448.00,51.700
1449.00,51.709
1450.00,51.705
1451.00,51.741
1452.00,51.761
1453.00,51.755
1454.00,51.776
1455.00,51.780
1456.00,51.802
1457.00,51.803
1458.00,51.826
1459.00,51.853
1460.00,51.857
1461.00,51.879
1462.00,51.913
1463.00,51.910
1464.00,51.912
1465.00,51.944
1466.00,51.935
1467.00,51.948
1468.00,51.997
1469.00,51.985
1470.00,51.991
1471.00,52.013
1472.00,52.025
1473.00,52.038
1474.00,52.049
1475.00,52.069
1476.00,52.088
1477.00,52.067
1478.00,52.077
1479.00,52.107
1480.00,52.120
1481.00,52.119
1482.00,52.168
1483.00,52.168
1484.00,52.186
1485.00,52.187
1486.00,52.187
1487.00,52.218
1488.00,52.222
1489.00,52.224
1490.00,52.238
1491.00,52.259
1492.00,52.265
1493.00,52.270
1494.00,52.296
1495.00,52.303
1496.00,52.303
1497.00,52.308
1498.00,52.323
1499.00,52.326
1500.00,52.342
1501.00, 
1502.00, 
1503.00, 
1504.00, 
1505.00, 
1506.00, 
1507.00, 
1508.00, 
1509.00, 
1510.00, 
1511.00, 
1512.00, 
1513.00, 
1514.00, 
1515.00, 
1516.00, 
1517.00, 
1518.00, 
1519.00, 
1520.00, 
1521.00, 
1522.00, 
1523.00, 
1524.00, 
1525.00, 
1526.00, 
1527.00, 
1528.00, 
1529.00, 
1530.00, 
1531.00, 
1532.00, 
1533.00, 
1534.00, 
1535.00, 
1536.00, 
1537.00, 
1538.00, 
1539.00, 
1540.00, 
1541.00, 
1542.00, 
1543.00, 
1544.00, 
1545.00, 
1546.00, 
1547.00, 
1548.00, 
1549.00, 
1550.00, 
1551.00, 
1552.00, 
1553.00, 
1554.00, 
1555.00, 
1556.00, 
1557.00, 
1558.00, 
1559.00, 
1560.00, 
1561.00, 
1562.00, 
1563.00, 
1564.00, 
1565.00, 
1566.00, 
1567.00, 
1568.00, 
1569.00, 
1570.00, 
1571.00, 
1572.00, 
1573.00, 
1574.00, 
1575.00, 
1576.00, 
1577.00, 
1578.00, 
1579.00, 
1580.00, 
1581.00, 
1582.00, 
1583.00, 
1584.00, 
1585.00, 
1586.00, 
1587.00, 
1588.00, 
1589.00, 
1590.00, 
1591.00, 
1592.00, 
1593.00, 
1594.00, 
1595.00, 
1596.00, 
1597.00, 
1598.00, 
1599.00, 
1600.00, 
1601.00, 
1602.00, 
1603.00, 
1604.00, 
1605.00, 
1606.00, 
1607.00, 
1608.00, 
1609.00, 
1610.00, 
1611.00, 
1612.00, 
1613.00, 
1614.00, 
1615.00, 
1616.00, 
1617.00, 
1618.00, 
1619.00, 
1620.00, 
1621.00, 
1622.00, 
1623.00, 
1624.00, 
1625.00, 
1626.00, 
1627.00, 
1628.00, 
1629.00, 
1630.00, 
1631.00, 
1632.00, 
1633.00, 
1634.00, 
1635.00, 
1636.00, 
1637.00, 
1638.00, 
1639.00, 
1640.00, 
1641.00, 
1642.00, 
1643.00, 
1644.00, 
1645.00, 
1646.00, 
1647.00, 
1648.00, 
1649.00, 
1650.00, 
1651.00, 
1652.00, 
1653.00, 
1654.00, 
1655.00, 
1656.00, 
1657.00, 
1658.00, 
1659.00, 
1660.00, 
1661.00, 
1662.00, 
1663.00, 
1664.00, 
1665.00, 
1666.00, 
1667.00, 
1668.00, 
1669.00, 
1670.00, 
1671.00, 
1672.00, 
1673.00, 
1674.00, 
1675.00, 
1676.00, 
1677.00, 
1678.00, 
1679.00, 
1680.00, 
1681.00, 
1682.00, 
1683.00, 
1684.00, 
1685.00, 
1686.00, 
1687.00, 
1688.00, 
1689.00, 
1690.00, 
1691.00, 
1692.00, 
1693.00, 
1694.00, 
1695.00, 
1696.00, 
1697.00, 
1698.00, 
1699.00, 
1700.00, 
1701.00, 
1702.00, 
1703.00, 
1704.00, 
1705.00, 
1706.00, 
1707.00, 
1708.00, 
1709.00, 
1710.00, 
1711.00, 
1712.00, 
1713.00, 
1714.00, 
1715.00, 
1716.00, 
1717.00, 
1718.00, 
1719.00, 
1720.00, 
1721.00, 
1722.00, 
1723.00, 
1724.00, 
1725.00, 
1726.00, 
1727.00, 
1728.00, 
1729.00, 
1730.00, 
1731.00, 
1732.00, 
1733.00, 
1734.00, 
1735.00, 
1736.00, 
1737.00, 
1738.00, 
1739.00, 
1740.00, 
1741.00, 
1742.00, 
1743.00, 
1744.00, 
1745.00, 
1746.00, 
1747.00, 
1748.00, 
1749.00, 
1750.00, 
1751.00, 
1752.00, 
1753.00, 
1754.00, 
1755.00, 
1756.00, 
1757.00, 
1758.00, 
1759.00, 
1760.00, 
1761.00, 
1762.00, 
1763.00, 
1764.00, 
1765.00, 
1766.00, 
1767.00, 
1768.00, 
1769.00, 
1770.00, 
1771.00, 
1772.00, 
1773.00, 
1774.00, 
1775.00, 
1776.00, 
1777.00, 
1778.00, 
1779.00, 
1780.00, 
1781.00, 
1782.00, 
1783.00, 
1784.00, 
1785.00, 
1786.00, 
1787.00, 
1788.00, 
1789.00, 
1790.00, 
1791.00, 
1792.00, 
1793.00, 
1794.00, 
1795.00, 
1796.00, 
1797.00, 
1798.00, 
1799.00, 
1800.00, 
1801.00, 
1802.00, 
1803.00, 
1804.00, 
1805.00, 
1806.00, 
1807.00, 
1808.00, 
1809.00, 
1810.00, 
1811.00, 
1812.00, 
1813.00, 
1814.00, 
1815.00, 
1816.00, 
1817.00, 
1818.00, 
1819.00, 
1820.00, 
1821.00, 
1822.00, 
1823.00, 
1824.00, 
1825.00, 
1826.00, 
1827.00, 
1828.00, 
1829.00, 
1830.00, 
1831.00, 
1832.00, 
1833.00, 
1834.00, 
1835.00, 
1836.00, 
1837.00, 
1838.00, 
1839.00, 
1840.00, 
1841.00, 
1842.00, 
1843.00, 
1844.00, 
1845.00, 
1846.00, 
1847.00, 
1848.00, 
1849.00, 
1850.00, 
1851.00, 
1852.00, 
1853.00, 
1854.00, 
1855.00, 
1856.00, 
1857.00, 
1858.00, 
1859.00, 
1860.00, 
1861.00, 
1862.00, 
1863.00, 
1864.00, 
1865.00, 
1866.00, 
1867.00, 
1868.00, 
1869.00, 
1870.00, 
1871.00, 
1872.00, 
1873.00, 
1874.00, 
1875.00, 
1876.00, 
1877.00, 
1878.00, 
1879.00, 
1880.00, 
1881.00, 
1882.00, 
1883.00, 
1884.00, 
1885.00, 
1886.00, 
1887.00, 
1888.00, 
1889.00, 
1890.00, 
1891.00, 
1892.00, 
1893.00, 
1894.00, 
1895.00, 
1896.00, 
1897.00, 
1898.00, 
1899.00, 
1900.00, 
1901.00, 
1902.00, 
1903.00, 
1904.00, 
1905.00, 
1906.00, 
1907.00, 
1908.00, 
1909.00, 
1910.00, 
1911.00, 
1912.00, 
1913.00, 
1914.00, 
1915.00, 
1916.00, 
1917.00, 
1918.00, 
1919.00, 
1920.00, 
1921.00, 
1922.00, 
1923.00, 
1924.00, 
1925.00, 
1926.00, 
1927.00, 
1928.00, 
1929.00, 
1930.00, 
1931.00, 
1932.00, 
1933.00, 
1934.00, 
1935.00, 
1936.00, 
1937.00, 
1938.00, 
1939.00, 
1940.00, 
1941.00, 
1942.00, 
1943.00, 
1944.00, 
1945.00, 
1946.00, 
1947.00, 
1948.00, 
1949.00, 
1950.00, 
1951.00, 
1952.00, 
1953.00, 
1954.00, 
1955.00, 
1956.00, 
1957.00, 
1958.00, 
1959.00, 
1960.00, 
1961.00, 
1962.00, 
1963.00, 
1964.00, 
1965.00, 
1966.00, 
1967.00, 
1968.00, 
1969.00, 
1970.00, 
1971.00, 
1972.00, 
1973.00, 
1974.00, 
1975.00, 
1976.00, 
1977.00, 
1978.00, 
1979.00, 
1980.00, 
1981.00, 
1982.00, 
1983.00, 
1984.00, 
1985.00, 
1986.00, 
1987.00, 
1988.00, 
1989.00, 
1990.00, 
1991.00, 
1992.00, 
1993.00, 
1994.00, 
1995.00, 
1996.00, 
1997.00, 
1998.00, 
1999.00, 
2000.00, 
2001.00, 
2002.00, 
2003.00, 
2004.00, 
2005.00, 
2006.00, 
2007.00, 
2008.00, 
2009.00, 
2010.00, 
2011.00, 
2012.00, 
2013.00, 
2014.00, 
2015.00, 
2016.00, 
2017.00, 
2018.00, 
2019.00, 
2020.00, 
2021.00, 
2022.00, 
2023.00, 
2024.00, 
2025.00, 
2026.00, 
2027.00, 
2028.00, 
2029.00, 
2030.00, 
2031.00, 
2032.00, 
2033.00, 
2034.00, 
2035.00, 
2036.00, 
2037.00, 
2038.00, 
2039.00, 
2040.00, 
2041.00, 
2042.00, 
2043.00, 
2044.00, 
2045.00, 
2046.00, 
2047.00, 
2048.00, 
2049.00, 
2050.00, 
2051.00, 
2052.00, 
2053.00, 
2054.00, 
2055.00, 
2056.00, 
2057.00, 
2058.00, 
2059.00, 
2060.00, 
2061.00, 
2062.00, 
2063.00, 
2064.00, 
2065.00, 
2066.00, 
2067.00, 
2068.00, 
2069.00, 
2070.00, 
2071.00, 
2072.00, 
2073.00, 
2074.00, 
2075.00, 
2076.00, 
2077.00, 
2078.00, 
2079.00, 
2080.00, 
2081.00, 
2082.00, 
2083.00, 
2084.00, 
2085.00, 
2086.00, 
2087.00, 
2088.00, 
2089.00, 
2090.00, 
2091.00, 
2092.00, 
2093.00, 
2094.00, 
2095.00, 
2096.00, 
2097.00, 
2098.00, 
2099.00, 
2100.00, 
2101.00, 
2102.00, 
2103.00, 
2104.00, 
2105.00, 
2106.00, 
2107.00, 
2108.00, 
2109.00, 
2110.00, 
2111.00, 
2112.00, 
2113.00, 
2114.00, 
2115.00, 
2116.00, 
2117.00, 
2118.00, 
2119.00, 
2120.00, 
2121.00, 
2122.00, 
2123.00, 
2124.00, 
2125.00, 
2126.00, 
2127.00, 
2128.00, 
2129.00, 
2130.00, 
2131.00, 
2132.00, 
2133.00, 
2134.00, 
2135.00, 
2136.00, 
2137.00, 
2138.00, 
2139.00, 
2140.00, 
2141.00, 
2142.00, 
2143.00, 
2144.00, 
2145.00, 
2146.00, 
2147.00, 
2148.00, 
2149.00, 
2150.00, 
2151.00, 
2152.00, 
2153.00, 
2154.00, 
2155.00, 
2156.00, 
2157.00, 
2158.00, 
2159.00, 
2160.00, 
2161.00, 
2162.00, 
2163.00, 
2164.00, 
2165.00, 
2166.00, 
2167.00, 
2168.00, 
2169.00, 
2170.00, 
2171.00, 
2172.00, 
2173.00, 
2174.00, 
2175.00, 
2176.00, 
2177.00, 
2178.00, 
2179.00, 
2180.00, 
2181.00, 
2182.00, 
2183.00, 
2184.00, 
2185.00, 
2186.00, 
2187.00, 
2188.00, 
2189.00, 
2190.00, 
2191.00, 
2192.00, 
2193.00, 
2194.00, 
2195.00, 
2196.00, 
2197.00, 
2198.00, 
2199.00, 
2200.00, 
2201.00, 
2202.00, 
2203.00, 
2204.00, 
2205.00, 
2206.00, 
2207.00, 
2208.00, 
2209.00, 
2210.00, 
2211.00, 
2212.00, 
2213.00, 
2214.00, 
2215.00, 
2216.00, 
2217.00, 
2218.00, 
2219.00, 
2220.00, 
2221.00, 
2222.00, 
2223.00, 
2224.00, 
2225.00, 
2226.00, 
2227.00, 
2228.00, 
2229.00, 
2230.00, 
2231.00, 
2232.00, 
2233.00, 
2234.00, 
2235.00, 
2236.00, 
2237.00, 
2238.00, 
2239.00, 
2240.00, 
2241.00, 
2242.00, 
2243.00, 
2244.00, 
2245.00, 
2246.00, 
2247.00, 
2248.00, 
2249.00, 
2250.00, 
2251.00, 
2252.00, 
2253.00, 
2254.00, 
2255.00, 
2256.00, 
2257.00, 
2258.00, 
2259.00, 
2260.00, 
2261.00, 
2262.00, 
2263.00, 
2264.00, 
2265.00, 
2266.00, 
2267.00, 
2268.00, 
2269.00, 
2270.00, 
2271.00, 
2272.00, 
2273.00, 
2274.00, 
2275.00, 
2276.00, 
2277.00, 
2278.00, 
2279.00, 
2280.00, 
2281.00, 
2282.00, 
2283.00, 
2284.00, 
2285.00, 
2286.00, 
2287.00, 
2288.00, 
2289.00, 
2290.00, 
2291.00, 
2292.00, 
2293.00, 
2294.00, 
2295.00, 
2296.00, 
2297.00, 
2298.00, 
2299.00, 
2300.00, 
2301.00, 
2302.00, 
2303.00, 
2304.00, 
2305.00, 
2306.00, 
2307.00, 
2308.00, 
2309.00, 
2310.00, 
2311.00, 
2312.00, 
2313.00, 
2314.00, 
2315.00, 
2316.00, 
2317.00, 
2318.00, 
2319.00, 
2320.00, 
2321.00, 
2322.00, 
2323.00, 
2324.00, 
2325.00, 
2326.00, 
2327.00, 
2328.00, 
2329.00, 
2330.00, 
2331.00, 
2332.00, 
2333.00, 
2334.00, 
2335.00, 
2336.00, 
2337.00, 
2338.00, 
2339.00, 
2340.00, 
2341.00, 
2342.00, 
2343.00, 
2344.00, 
2345.00, 
2346.00, 
2347.00, 
2348.00, 
2349.00, 
2350.00, 
2351.00, 
2352.00, 
2353.00, 
2354.00, 
2355.00, 
2356.00, 
2357.00, 
2358.00, 
2359.00, 
2360.00, 
2361.00, 
2362.00, 
2363.00, 
2364.00, 
2365.00, 
2366.00, 
2367.00, 
2368.00, 
2369.00, 
2370.00, 
2371.00, 
2372.00, 
2373.00, 
2374.00, 
2375.00, 
2376.00, 
2377.00, 
2378.00, 
2379.00, 
2380.00, 
2381.00, 
2382.00, 
2383.00, 
2384.00, 
2385.00, 
2386.00, 
2387.00, 
2388.00, 
2389.00, 
2390.00, 
2391.00, 
2392.00, 
2393.00, 
2394.00, 
2395.00, 
2396.00, 
2397.00, 
2398.00, 
2399.00, 
2400.00, 
2401.00, 
2402.00, 
2403.00, 
2404.00, 
2405.00, 
2406.00, 
2407.00, 
2408.00, 
2409.00, 
2410.00, 
2411.00, 
2412.00, 
2413.00, 
2414.00, 
2415.00, 
2416.00, 
2417.00, 
2418.00, 
2419.00, 
2420.00, 
2421.00, 
2422.00, 
2423.00, 
2424.00, 
2425.00, 
2426.00, 
2427.00, 
2428.00, 
2429.00, 
2430.00, 
2431.00, 
2432.00, 
2433.00, 
2434.00, 
2435.00, 
2436.00, 
2437.00, 
2438.00, 
2439.00, 
2440.00, 
2441.00, 
2442.00, 
2443.00, 
2444.00, 
2445.00, 
2446.00, 
2447.00, 
2448.00, 
2449.00, 
2450.00, 
2451.00, 
2452.00, 
2453.00, 
2454.00, 
2455.00, 
2456.00, 
2457.00, 
2458.00, 
2459.00, 
2460.00, 
2461.00, 
2462.00, 
2463.00, 
2464.00, 
2465.00, 
2466.00, 
2467.00, 
2468.00, 
2469.00, 
2470.00, 
2471.00, 
2472.00, 
2473.00, 
2474.00, 
2475.00, 
2476.00, 
2477.00, 
2478.00, 
2479.00, 
2480.00, 
2481.00, 
2482.00, 
2483.00, 
2484.00, 
2485.00, 
2486.00, 
2487.00, 
2488.00, 
2489.00, 
2490.00, 
2491.00, 
2492.00, 
2493.00, 
2494.00, 
2495.00, 
2496.00, 
2497.00, 
2498.00, 
2499.00, 
2500.00, 
2501.00, 
2502.00, 
2503.00, 
2504.00, 
2505.00, 
2506.00, 
2507.00, 
2508.00, 
2509.00, 
2510.00, 
2511.00, 
2512.00, 
2513.00, 
2514.00, 
2515.00, 
2516.00, 
2517.00, 
2518.00, 
2519.00, 
2520.00, 
2521.00, 
2522.00, 
2523.00, 
2524.00, 
2525.00, 
2526.00, 
2527.00, 
2528.00, 
2529.00, 
2530.00, 
2531.00, 
2532.00, 
2533.00, 
2534.00, 
2535.00, 
2536.00, 
2537.00, 
2538.00, 
2539.00, 
2540.00, 
2541.00, 
2542.00, 
2543.00, 
2544.00, 
2545.00, 
2546.00, 
2547.00, 
2548.00, 
2549.00, 
2550.00, 
2551.00, 
2552.00, 
2553.00, 
2554.00, 
2555.00, 
2556.00, 
2557.00, 
2558.00, 
2559.00, 
2560.00, 
2561.00, 
2562.00, 
2563.00, 
2564.00, 
2565.00, 
2566.00, 
2567.00, 
2568.00, 
2569.00, 
2570.00, 
2571.00, 
2572.00, 
2573.00, 
2574.00, 
2575.00, 
2576.00, 
2577.00, 
2578.00, 
2579.00, 
2580.00, 
2581.00, 
2582.00, 
2583.00, 
2584.00, 
2585.00, 
2586.00, 
2587.00, 
2588.00, 
2589.00, 
2590.00, 
2591.00, 
2592.00, 
2593.00, 
2594.00, 
2595.00, 
2596.00, 
2597.00, 
2598.00, 
2599.00, 
2600.00, 
