"1bP2 - RawData"
"Wavelength nm.","T%"
200.00,0.003
201.00,0.002
202.00,0.002
203.00,0.003
204.00,0.002
205.00,0.002
206.00,0.002
207.00,0.002
208.00,0.000
209.00,0.001
210.00,0.001
211.00,0.001
212.00,0.002
213.00,0.001
214.00,-0.000
215.00,0.000
216.00,0.002
217.00,0.001
218.00,0.002
219.00,0.001
220.00,0.001
221.00,-0.000
222.00,-0.001
223.00,0.001
224.00,-0.000
225.00,0.000
226.00,-0.001
227.00,0.002
228.00,0.001
229.00,0.003
230.00,-0.000
231.00,0.001
232.00,0.000
233.00,0.002
234.00,0.000
235.00,0.002
236.00,0.001
237.00,0.000
238.00,0.000
239.00,-0.001
240.00,-0.000
241.00,0.001
242.00,0.000
243.00,0.002
244.00,0.003
245.00,-0.001
246.00,-0.001
247.00,0.002
248.00,-0.001
249.00,0.001
250.00,0.000
251.00,0.001
252.00,-0.000
253.00,0.001
254.00,0.002
255.00,-0.000
256.00,0.000
257.00,-0.001
258.00,-0.000
259.00,-0.002
260.00,0.000
261.00,0.001
262.00,-0.000
263.00,0.003
264.00,-0.000
265.00,-0.000
266.00,0.001
267.00,0.002
268.00,-0.000
269.00,-0.000
270.00,0.001
271.00,0.000
272.00,-0.000
273.00,0.000
274.00,-0.000
275.00,-0.001
276.00,0.000
277.00,0.000
278.00,0.001
279.00,0.000
280.00,0.001
281.00,0.000
282.00,-0.001
283.00,0.000
284.00,0.000
285.00,0.001
286.00,-0.001
287.00,0.000
288.00,-0.001
289.00,-0.000
290.00,0.001
291.00,-0.000
292.00,-0.000
293.00,0.001
294.00,-0.000
295.00,-0.001
296.00,-0.001
297.00,0.000
298.00,0.003
299.00,0.003
300.00,0.005
301.00,0.006
302.00,0.010
303.00,0.015
304.00,0.020
305.00,0.034
306.00,0.050
307.00,0.073
308.00,0.117
309.00,0.174
310.00,0.246
311.00,0.324
312.00,0.450
313.00,0.605
314.00,0.791
315.00,1.014
316.00,1.281
317.00,1.614
318.00,1.975
319.00,2.396
320.00,2.891
321.00,3.444
322.00,4.039
323.00,4.684
324.00,5.413
325.00,6.104
326.00,6.832
327.00,7.672
328.00,8.514
329.00,9.353
330.00,10.255
331.00,11.070
332.00,11.980
333.00,12.879
334.00,13.769
335.00,14.647
336.00,15.464
337.00,16.348
338.00,17.107
339.00,17.988
340.00,18.801
341.00,19.548
342.00,20.271
343.00,20.937
344.00,21.552
345.00,22.256
346.00,22.805
347.00,23.313
348.00,23.868
349.00,24.310
350.00,24.745
351.00,25.227
352.00,25.548
353.00,25.923
354.00,26.254
355.00,26.567
356.00,26.866
357.00,27.165
358.00,27.390
359.00,27.674
360.00,27.899
361.00,28.017
362.00,28.182
363.00,28.438
364.00,28.535
365.00,28.665
366.00,28.747
367.00,28.844
368.00,28.938
369.00,28.877
370.00,29.071
371.00,29.027
372.00,28.998
373.00,29.040
374.00,29.052
375.00,29.053
376.00,28.941
377.00,28.867
378.00,28.828
379.00,28.704
380.00,28.681
381.00,28.663
382.00,28.721
383.00,28.679
384.00,28.739
385.00,28.803
386.00,28.746
387.00,28.831
388.00,28.938
389.00,28.931
390.00,28.996
391.00,28.968
392.00,29.041
393.00,29.030
394.00,29.068
395.00,29.139
396.00,29.064
397.00,29.090
398.00,29.099
399.00,29.084
400.00,29.112
401.00,29.094
402.00,29.146
403.00,29.127
404.00,29.190
405.00,29.078
406.00,29.023
407.00,28.980
408.00,28.970
409.00,28.930
410.00,28.860
411.00,28.873
412.00,28.764
413.00,28.823
414.00,28.750
415.00,28.762
416.00,28.859
417.00,28.762
418.00,28.829
419.00,28.870
420.00,28.945
421.00,29.011
422.00,29.019
423.00,29.059
424.00,29.077
425.00,29.103
426.00,29.118
427.00,29.174
428.00,29.207
429.00,29.251
430.00,29.289
431.00,29.353
432.00,29.352
433.00,29.422
434.00,29.529
435.00,29.578
436.00,29.590
437.00,29.677
438.00,29.719
439.00,29.760
440.00,29.847
441.00,29.949
442.00,29.978
443.00,30.010
444.00,30.149
445.00,30.238
446.00,30.284
447.00,30.341
448.00,30.439
449.00,30.602
450.00,30.701
451.00,30.810
452.00,30.856
453.00,31.000
454.00,31.069
455.00,31.148
456.00,31.270
457.00,31.386
458.00,31.458
459.00,31.602
460.00,31.749
461.00,31.917
462.00,31.901
463.00,32.033
464.00,32.182
465.00,32.286
466.00,32.361
467.00,32.531
468.00,32.584
469.00,32.679
470.00,32.752
471.00,32.836
472.00,32.953
473.00,33.035
474.00,33.130
475.00,33.297
476.00,33.311
477.00,33.427
478.00,33.518
479.00,33.695
480.00,33.814
481.00,33.937
482.00,34.095
483.00,34.211
484.00,34.351
485.00,34.522
486.00,34.657
487.00,34.784
488.00,34.850
489.00,35.058
490.00,35.179
491.00,35.282
492.00,35.529
493.00,35.641
494.00,35.633
495.00,35.780
496.00,35.859
497.00,35.920
498.00,36.111
499.00,36.247
500.00,36.305
501.00,36.340
502.00,36.421
503.00,36.568
504.00,36.672
505.00,36.805
506.00,36.931
507.00,36.991
508.00,37.084
509.00,37.227
510.00,37.368
511.00,37.437
512.00,37.557
513.00,37.693
514.00,37.790
515.00,37.932
516.00,38.008
517.00,38.125
518.00,38.252
519.00,38.267
520.00,38.241
521.00,38.362
522.00,38.494
523.00,38.453
524.00,38.570
525.00,38.725
526.00,38.772
527.00,38.834
528.00,38.859
529.00,39.049
530.00,39.117
531.00,39.225
532.00,39.281
533.00,39.356
534.00,39.511
535.00,39.580
536.00,39.577
537.00,39.690
538.00,39.722
539.00,39.749
540.00,39.819
541.00,39.812
542.00,39.866
543.00,39.947
544.00,40.021
545.00,40.109
546.00,40.065
547.00,40.183
548.00,40.253
549.00,40.342
550.00,40.423
551.00,40.484
552.00,40.488
553.00,40.519
554.00,40.613
555.00,40.670
556.00,40.700
557.00,40.735
558.00,40.818
559.00,40.859
560.00,40.898
561.00,40.992
562.00,41.041
563.00,41.046
564.00,41.102
565.00,41.108
566.00,41.130
567.00,41.103
568.00,41.185
569.00,41.211
570.00,41.171
571.00,41.229
572.00,41.286
573.00,41.225
574.00,41.212
575.00,41.277
576.00,41.294
577.00,41.217
578.00,41.391
579.00,41.538
580.00,41.539
581.00,41.639
582.00,41.763
583.00,41.767
584.00,41.832
585.00,41.887
586.00,41.936
587.00,41.973
588.00,42.064
589.00,41.957
590.00,41.987
591.00,42.105
592.00,42.023
593.00,42.056
594.00,42.142
595.00,42.250
596.00,42.221
597.00,42.292
598.00,42.397
599.00,42.321
600.00,42.368
601.00,42.372
602.00,42.336
603.00,42.362
604.00,42.476
605.00,42.511
606.00,42.357
607.00,42.450
608.00,42.789
609.00,42.769
610.00,42.612
611.00,42.721
612.00,42.709
613.00,42.791
614.00,42.839
615.00,42.833
616.00,42.918
617.00,42.962
618.00,42.934
619.00,42.970
620.00,42.991
621.00,43.056
622.00,43.196
623.00,43.221
624.00,43.294
625.00,43.296
626.00,43.326
627.00,43.373
628.00,43.392
629.00,43.446
630.00,43.410
631.00,43.464
632.00,43.544
633.00,43.627
634.00,43.593
635.00,43.706
636.00,43.842
637.00,43.861
638.00,43.923
639.00,44.005
640.00,44.029
641.00,44.046
642.00,44.106
643.00,44.152
644.00,44.245
645.00,44.290
646.00,44.380
647.00,44.402
648.00,44.410
649.00,44.510
650.00,44.530
651.00,44.583
652.00,44.744
653.00,44.788
654.00,44.704
655.00,44.934
656.00,45.011
657.00,45.001
658.00,44.997
659.00,45.069
660.00,45.089
661.00,45.186
662.00,45.258
663.00,45.314
664.00,45.505
665.00,45.643
666.00,45.559
667.00,45.768
668.00,45.429
669.00,45.738
670.00,46.009
671.00,45.903
672.00,45.986
673.00,46.093
674.00,46.130
675.00,46.166
676.00,46.366
677.00,46.410
678.00,46.258
679.00,46.482
680.00,46.478
681.00,46.551
682.00,46.611
683.00,46.651
684.00,46.714
685.00,46.766
686.00,46.764
687.00,46.790
688.00,46.726
689.00,46.769
690.00,46.904
691.00,47.252
692.00,47.190
693.00,47.218
694.00,47.237
695.00,47.298
696.00,47.386
697.00,47.442
698.00,47.455
699.00,47.556
700.00,47.783
701.00,47.745
702.00,47.740
703.00,47.817
704.00,47.907
705.00,47.745
706.00,47.627
707.00,47.911
708.00,48.033
709.00,48.158
710.00,48.532
711.00,48.054
712.00,48.188
713.00,48.186
714.00,48.334
715.00,48.339
716.00,48.354
717.00,48.502
718.00,48.538
719.00,48.406
720.00,48.615
721.00,53.193
722.00,53.159
723.00,53.181
724.00,53.154
725.00,53.149
726.00,53.075
727.00,53.120
728.00,53.222
729.00,53.146
730.00,53.177
731.00,53.194
732.00,53.208
733.00,53.156
734.00,53.225
735.00,53.281
736.00,53.261
737.00,53.281
738.00,53.373
739.00,53.296
740.00,53.246
741.00,53.297
742.00,53.316
743.00,53.310
744.00,53.216
745.00,53.266
746.00,53.302
747.00,53.283
748.00,53.284
749.00,53.246
750.00,53.166
751.00,53.120
752.00,53.208
753.00,53.168
754.00,53.220
755.00,53.159
756.00,53.118
757.00,53.125
758.00,53.147
759.00,53.115
760.00,53.139
761.00,53.180
762.00,53.127
763.00,53.191
764.00,53.142
765.00,53.081
766.00,53.187
767.00,53.157
768.00,53.207
769.00,53.163
770.00,53.139
771.00,53.165
772.00,53.144
773.00,53.058
774.00,53.094
775.00,53.182
776.00,53.087
777.00,53.118
778.00,53.134
779.00,53.181
780.00,53.140
781.00,53.133
782.00,53.128
783.00,53.071
784.00,53.132
785.00,53.048
786.00,53.031
787.00,53.035
788.00,52.948
789.00,53.044
790.00,52.977
791.00,53.008
792.00,52.915
793.00,52.884
794.00,52.882
795.00,52.891
796.00,52.906
797.00,52.885
798.00,52.840
799.00,52.847
800.00,52.816
801.00,52.798
802.00,52.756
803.00,52.759
804.00,52.663
805.00,52.686
806.00,52.740
807.00,52.628
808.00,52.702
809.00,52.659
810.00,52.615
811.00,52.605
812.00,52.647
813.00,52.599
814.00,52.565
815.00,52.538
816.00,52.567
817.00,52.502
818.00,52.387
819.00,52.497
820.00,52.351
821.00,52.431
822.00,52.365
823.00,52.381
824.00,52.429
825.00,52.324
826.00,52.355
827.00,52.338
828.00,52.436
829.00,52.380
830.00,52.350
831.00,54.924
832.00,54.932
833.00,54.864
834.00,54.861
835.00,54.850
836.00,54.826
837.00,54.872
838.00,54.790
839.00,54.783
840.00,54.722
841.00,54.704
842.00,54.684
843.00,54.692
844.00,54.665
845.00,54.606
846.00,54.670
847.00,54.604
848.00,54.641
849.00,54.553
850.00,54.552
851.00,54.486
852.00,54.458
853.00,54.494
854.00,54.414
855.00,54.372
856.00,54.340
857.00,54.360
858.00,54.317
859.00,54.272
860.00,54.264
861.00,54.275
862.00,54.245
863.00,54.223
864.00,54.212
865.00,54.213
866.00,54.201
867.00,54.189
868.00,54.193
869.00,54.144
870.00,54.167
871.00,54.142
872.00,54.128
873.00,54.111
874.00,54.149
875.00,54.115
876.00,54.139
877.00,54.077
878.00,54.093
879.00,54.060
880.00,54.043
881.00,54.064
882.00,54.063
883.00,54.028
884.00,54.014
885.00,54.001
886.00,53.961
887.00,53.952
888.00,53.912
889.00,53.939
890.00,53.888
891.00,53.865
892.00,53.865
893.00,53.820
894.00,53.816
895.00,53.796
896.00,53.774
897.00,53.752
898.00,53.723
899.00,53.714
900.00,53.718
901.00,53.723
902.00,53.725
903.00,53.692
904.00,53.686
905.00,53.651
906.00,53.665
907.00,53.650
908.00,53.600
909.00,53.572
910.00,53.608
911.00,53.546
912.00,53.536
913.00,53.496
914.00,53.465
915.00,53.453
916.00,53.438
917.00,53.424
918.00,53.410
919.00,53.357
920.00,53.251
921.00,53.431
922.00,53.289
923.00,53.278
924.00,53.265
925.00,53.266
926.00,53.258
927.00,53.222
928.00,53.201
929.00,53.205
930.00,53.155
931.00,53.177
932.00,53.113
933.00,53.138
934.00,53.119
935.00,53.088
936.00,53.086
937.00,53.068
938.00,53.040
939.00,53.045
940.00,53.026
941.00,53.017
942.00,52.978
943.00,52.982
944.00,52.921
945.00,52.945
946.00,52.936
947.00,52.863
948.00,52.859
949.00,52.850
950.00,52.824
951.00,52.799
952.00,52.799
953.00,52.743
954.00,52.717
955.00,52.765
956.00,52.698
957.00,52.660
958.00,52.688
959.00,52.641
960.00,52.626
961.00,52.622
962.00,52.617
963.00,52.572
964.00,52.564
965.00,52.582
966.00,52.552
967.00,52.531
968.00,52.524
969.00,52.555
970.00,52.525
971.00,52.557
972.00,52.496
973.00,52.537
974.00,52.552
975.00,52.502
976.00,52.535
977.00,52.503
978.00,52.561
979.00,52.518
980.00,52.546
981.00,52.556
982.00,52.516
983.00,52.537
984.00,52.516
985.00,52.544
986.00,52.478
987.00,52.521
988.00,52.472
989.00,52.467
990.00,52.473
991.00,52.450
992.00,52.477
993.00,52.436
994.00,52.410
995.00,52.402
996.00,52.394
997.00,52.370
998.00,52.372
999.00,52.387
1000.00,52.314
1001.00,52.344
1002.00,52.329
1003.00,52.330
1004.00,52.307
1005.00,52.255
1006.00,52.306
1007.00,52.274
1008.00,52.272
1009.00,52.250
1010.00,52.236
1011.00,52.264
1012.00,52.208
1013.00,52.232
1014.00,52.187
1015.00,52.201
1016.00,52.148
1017.00,52.163
1018.00,52.153
1019.00,52.099
1020.00,52.107
1021.00,52.078
1022.00,52.086
1023.00,52.059
1024.00,52.028
1025.00,52.018
1026.00,52.016
1027.00,51.985
1028.00,51.973
1029.00,51.974
1030.00,51.961
1031.00,51.986
1032.00,51.942
1033.00,51.937
1034.00,51.917
1035.00,51.881
1036.00,51.846
1037.00,51.845
1038.00,51.807
1039.00,51.801
1040.00,51.791
1041.00,51.743
1042.00,51.749
1043.00,51.723
1044.00,51.759
1045.00,51.756
1046.00,51.747
1047.00,51.760
1048.00,51.758
1049.00,51.775
1050.00,51.773
1051.00,51.813
1052.00,51.794
1053.00,51.814
1054.00,51.807
1055.00,51.833
1056.00,51.846
1057.00,51.865
1058.00,51.837
1059.00,51.825
1060.00,51.828
1061.00,51.814
1062.00,51.807
1063.00,51.810
1064.00,51.825
1065.00,51.815
1066.00,51.800
1067.00,51.799
1068.00,51.816
1069.00,51.780
1070.00,51.765
1071.00,51.739
1072.00,51.766
1073.00,51.744
1074.00,51.744
1075.00,51.737
1076.00,51.740
1077.00,51.729
1078.00,51.726
1079.00,51.738
1080.00,51.714
1081.00,51.719
1082.00,51.715
1083.00,51.712
1084.00,51.704
1085.00,51.695
1086.00,51.689
1087.00,51.689
1088.00,51.705
1089.00,51.670
1090.00,51.670
1091.00,51.671
1092.00,51.635
1093.00,51.618
1094.00,51.601
1095.00,51.598
1096.00,51.572
1097.00,51.590
1098.00,51.575
1099.00,51.557
1100.00,51.561
1101.00,51.553
1102.00,51.538
1103.00,51.546
1104.00,51.518
1105.00,51.519
1106.00,51.498
1107.00,51.487
1108.00,51.489
1109.00,51.477
1110.00,51.471
1111.00,51.469
1112.00,51.457
1113.00,51.447
1114.00,51.447
1115.00,51.443
1116.00,51.444
1117.00,51.430
1118.00,51.412
1119.00,51.423
1120.00,51.413
1121.00,51.432
1122.00,51.417
1123.00,51.405
1124.00,51.404
1125.00,51.407
1126.00,51.373
1127.00,51.382
1128.00,51.362
1129.00,51.338
1130.00,51.341
1131.00,51.329
1132.00,51.346
1133.00,51.329
1134.00,51.318
1135.00,51.335
1136.00,51.314
1137.00,51.302
1138.00,51.309
1139.00,51.312
1140.00,51.301
1141.00,51.313
1142.00,51.301
1143.00,51.320
1144.00,51.294
1145.00,51.298
1146.00,51.300
1147.00,51.298
1148.00,51.276
1149.00,51.300
1150.00,51.297
1151.00,51.291
1152.00,51.292
1153.00,51.280
1154.00,51.267
1155.00,51.278
1156.00,51.266
1157.00,51.274
1158.00,51.266
1159.00,51.257
1160.00,51.262
1161.00,51.277
1162.00,51.273
1163.00,51.278
1164.00,51.273
1165.00,51.253
1166.00,51.261
1167.00,51.229
1168.00,51.265
1169.00,51.253
1170.00,51.244
1171.00,51.236
1172.00,51.225
1173.00,51.225
1174.00,51.249
1175.00,51.245
1176.00,51.240
1177.00,51.244
1178.00,51.244
1179.00,51.261
1180.00,51.250
1181.00,51.245
1182.00,51.248
1183.00,51.242
1184.00,51.228
1185.00,51.251
1186.00,51.236
1187.00,51.240
1188.00,51.240
1189.00,51.234
1190.00,51.219
1191.00,51.216
1192.00,51.234
1193.00,51.226
1194.00,51.243
1195.00,51.215
1196.00,51.259
1197.00,51.247
1198.00,51.240
1199.00,51.251
1200.00,51.245
1201.00,51.270
1202.00,51.242
1203.00,51.240
1204.00,51.235
1205.00,51.247
1206.00,51.224
1207.00,51.231
1208.00,51.223
1209.00,51.221
1210.00,51.219
1211.00,51.213
1212.00,51.236
1213.00,51.198
1214.00,51.222
1215.00,51.214
1216.00,51.208
1217.00,51.233
1218.00,51.226
1219.00,51.244
1220.00,51.239
1221.00,51.246
1222.00,51.233
1223.00,51.242
1224.00,51.236
1225.00,51.232
1226.00,51.231
1227.00,51.236
1228.00,51.238
1229.00,51.258
1230.00,51.281
1231.00,51.278
1232.00,51.300
1233.00,51.298
1234.00,51.301
1235.00,51.295
1236.00,51.283
1237.00,51.289
1238.00,51.281
1239.00,51.276
1240.00,51.287
1241.00,51.293
1242.00,51.284
1243.00,51.303
1244.00,51.278
1245.00,51.309
1246.00,51.328
1247.00,51.296
1248.00,51.320
1249.00,51.322
1250.00,51.315
1251.00,51.317
1252.00,51.313
1253.00,51.326
1254.00,51.334
1255.00,51.340
1256.00,51.361
1257.00,51.312
1258.00,51.344
1259.00,51.349
1260.00,51.352
1261.00,51.350
1262.00,51.359
1263.00,51.342
1264.00,51.360
1265.00,51.364
1266.00,51.346
1267.00,51.354
1268.00,51.344
1269.00,51.356
1270.00,51.389
1271.00,51.395
1272.00,51.387
1273.00,51.425
1274.00,51.423
1275.00,51.434
1276.00,51.441
1277.00,51.443
1278.00,51.458
1279.00,51.462
1280.00,51.436
1281.00,51.475
1282.00,51.471
1283.00,51.459
1284.00,51.462
1285.00,51.459
1286.00,51.482
1287.00,51.465
1288.00,51.479
1289.00,51.468
1290.00,51.503
1291.00,51.493
1292.00,51.511
1293.00,51.499
1294.00,51.505
1295.00,51.520
1296.00,51.510
1297.00,51.527
1298.00,51.553
1299.00,51.515
1300.00,51.560
1301.00,51.538
1302.00,51.558
1303.00,51.571
1304.00,51.555
1305.00,51.570
1306.00,51.585
1307.00,51.583
1308.00,51.582
1309.00,51.605
1310.00,51.591
1311.00,51.576
1312.00,51.582
1313.00,51.579
1314.00,51.613
1315.00,51.602
1316.00,51.624
1317.00,51.664
1318.00,51.631
1319.00,51.637
1320.00,51.648
1321.00,51.812
1322.00,51.798
1323.00,51.802
1324.00,51.799
1325.00,51.775
1326.00,51.796
1327.00,51.784
1328.00,51.776
1329.00,51.781
1330.00,51.772
1331.00,51.759
1332.00,51.760
1333.00,51.763
1334.00,51.791
1335.00,51.798
1336.00,51.830
1337.00,51.842
1338.00,51.914
1339.00,51.970
1340.00,52.025
1341.00,52.080
1342.00,52.152
1343.00,52.209
1344.00,52.267
1345.00,52.329
1346.00,52.356
1347.00,52.399
1348.00,52.400
1349.00,52.410
1350.00,52.390
1351.00,52.413
1352.00,52.405
1353.00,52.475
1354.00,52.474
1355.00,52.422
1356.00,52.535
1357.00,52.463
1358.00,52.461
1359.00,52.430
1360.00,52.472
1361.00,52.624
1362.00,52.426
1363.00,52.500
1364.00,52.642
1365.00,52.475
1366.00,52.541
1367.00,52.513
1368.00,52.363
1369.00,52.466
1370.00,52.488
1371.00,52.439
1372.00,52.486
1373.00,52.505
1374.00,52.489
1375.00,52.476
1376.00,52.475
1377.00,52.459
1378.00,52.489
1379.00,52.509
1380.00,52.515
1381.00,52.535
1382.00,52.529
1383.00,52.509
1384.00,52.441
1385.00,52.429
1386.00,52.477
1387.00,52.428
1388.00,52.451
1389.00,52.405
1390.00,52.591
1391.00,52.451
1392.00,52.393
1393.00,52.385
1394.00,52.415
1395.00,52.425
1396.00,52.482
1397.00,52.341
1398.00,52.455
1399.00,52.444
1400.00,52.507
1401.00,52.371
1402.00,52.478
1403.00,52.451
1404.00,52.367
1405.00,52.491
1406.00,52.519
1407.00,52.451
1408.00,52.488
1409.00,52.298
1410.00,52.529
1411.00,52.482
1412.00,52.553
1413.00,52.503
1414.00,52.523
1415.00,52.526
1416.00,52.559
1417.00,52.573
1418.00,52.543
1419.00,52.589
1420.00,52.592
1421.00,52.626
1422.00,52.598
1423.00,52.642
1424.00,52.638
1425.00,52.660
1426.00,52.640
1427.00,52.686
1428.00,52.678
1429.00,52.685
1430.00,52.681
1431.00,52.707
1432.00,52.723
1433.00,52.734
1434.00,52.754
1435.00,52.794
1436.00,52.787
1437.00,52.771
1438.00,52.804
1439.00,52.827
1440.00,52.833
1441.00,52.847
1442.00,52.861
1443.00,52.869
1444.00,52.926
1445.00,52.870
1446.00,52.913
1447.00,52.928
1448.00,52.966
1449.00,52.977
1450.00,52.972
1451.00,52.955
1452.00,53.010
1453.00,52.989
1454.00,53.017
1455.00,53.034
1456.00,53.058
1457.00,53.066
1458.00,53.071
1459.00,53.089
1460.00,53.127
1461.00,53.094
1462.00,53.142
1463.00,53.139
1464.00,53.148
1465.00,53.173
1466.00,53.157
1467.00,53.195
1468.00,53.263
1469.00,53.231
1470.00,53.237
1471.00,53.272
1472.00,53.263
1473.00,53.268
1474.00,53.304
1475.00,53.313
1476.00,53.339
1477.00,53.304
1478.00,53.324
1479.00,53.350
1480.00,53.330
1481.00,53.345
1482.00,53.393
1483.00,53.394
1484.00,53.388
1485.00,53.391
1486.00,53.416
1487.00,53.426
1488.00,53.445
1489.00,53.437
1490.00,53.453
1491.00,53.453
1492.00,53.475
1493.00,53.448
1494.00,53.505
1495.00,53.499
1496.00,53.545
1497.00,53.529
1498.00,53.550
1499.00,53.558
1500.00,53.558
1501.00, 
1502.00, 
1503.00, 
1504.00, 
1505.00, 
1506.00, 
1507.00, 
1508.00, 
1509.00, 
1510.00, 
1511.00, 
1512.00, 
1513.00, 
1514.00, 
1515.00, 
1516.00, 
1517.00, 
1518.00, 
1519.00, 
1520.00, 
1521.00, 
1522.00, 
1523.00, 
1524.00, 
1525.00, 
1526.00, 
1527.00, 
1528.00, 
1529.00, 
1530.00, 
1531.00, 
1532.00, 
1533.00, 
1534.00, 
1535.00, 
1536.00, 
1537.00, 
1538.00, 
1539.00, 
1540.00, 
1541.00, 
1542.00, 
1543.00, 
1544.00, 
1545.00, 
1546.00, 
1547.00, 
1548.00, 
1549.00, 
1550.00, 
1551.00, 
1552.00, 
1553.00, 
1554.00, 
1555.00, 
1556.00, 
1557.00, 
1558.00, 
1559.00, 
1560.00, 
1561.00, 
1562.00, 
1563.00, 
1564.00, 
1565.00, 
1566.00, 
1567.00, 
1568.00, 
1569.00, 
1570.00, 
1571.00, 
1572.00, 
1573.00, 
1574.00, 
1575.00, 
1576.00, 
1577.00, 
1578.00, 
1579.00, 
1580.00, 
1581.00, 
1582.00, 
1583.00, 
1584.00, 
1585.00, 
1586.00, 
1587.00, 
1588.00, 
1589.00, 
1590.00, 
1591.00, 
1592.00, 
1593.00, 
1594.00, 
1595.00, 
1596.00, 
1597.00, 
1598.00, 
1599.00, 
1600.00, 
1601.00, 
1602.00, 
1603.00, 
1604.00, 
1605.00, 
1606.00, 
1607.00, 
1608.00, 
1609.00, 
1610.00, 
1611.00, 
1612.00, 
1613.00, 
1614.00, 
1615.00, 
1616.00, 
1617.00, 
1618.00, 
1619.00, 
1620.00, 
1621.00, 
1622.00, 
1623.00, 
1624.00, 
1625.00, 
1626.00, 
1627.00, 
1628.00, 
1629.00, 
1630.00, 
1631.00, 
1632.00, 
1633.00, 
1634.00, 
1635.00, 
1636.00, 
1637.00, 
1638.00, 
1639.00, 
1640.00, 
1641.00, 
1642.00, 
1643.00, 
1644.00, 
1645.00, 
1646.00, 
1647.00, 
1648.00, 
1649.00, 
1650.00, 
1651.00, 
1652.00, 
1653.00, 
1654.00, 
1655.00, 
1656.00, 
1657.00, 
1658.00, 
1659.00, 
1660.00, 
1661.00, 
1662.00, 
1663.00, 
1664.00, 
1665.00, 
1666.00, 
1667.00, 
1668.00, 
1669.00, 
1670.00, 
1671.00, 
1672.00, 
1673.00, 
1674.00, 
1675.00, 
1676.00, 
1677.00, 
1678.00, 
1679.00, 
1680.00, 
1681.00, 
1682.00, 
1683.00, 
1684.00, 
1685.00, 
1686.00, 
1687.00, 
1688.00, 
1689.00, 
1690.00, 
1691.00, 
1692.00, 
1693.00, 
1694.00, 
1695.00, 
1696.00, 
1697.00, 
1698.00, 
1699.00, 
1700.00, 
1701.00, 
1702.00, 
1703.00, 
1704.00, 
1705.00, 
1706.00, 
1707.00, 
1708.00, 
1709.00, 
1710.00, 
1711.00, 
1712.00, 
1713.00, 
1714.00, 
1715.00, 
1716.00, 
1717.00, 
1718.00, 
1719.00, 
1720.00, 
1721.00, 
1722.00, 
1723.00, 
1724.00, 
1725.00, 
1726.00, 
1727.00, 
1728.00, 
1729.00, 
1730.00, 
1731.00, 
1732.00, 
1733.00, 
1734.00, 
1735.00, 
1736.00, 
1737.00, 
1738.00, 
1739.00, 
1740.00, 
1741.00, 
1742.00, 
1743.00, 
1744.00, 
1745.00, 
1746.00, 
1747.00, 
1748.00, 
1749.00, 
1750.00, 
1751.00, 
1752.00, 
1753.00, 
1754.00, 
1755.00, 
1756.00, 
1757.00, 
1758.00, 
1759.00, 
1760.00, 
1761.00, 
1762.00, 
1763.00, 
1764.00, 
1765.00, 
1766.00, 
1767.00, 
1768.00, 
1769.00, 
1770.00, 
1771.00, 
1772.00, 
1773.00, 
1774.00, 
1775.00, 
1776.00, 
1777.00, 
1778.00, 
1779.00, 
1780.00, 
1781.00, 
1782.00, 
1783.00, 
1784.00, 
1785.00, 
1786.00, 
1787.00, 
1788.00, 
1789.00, 
1790.00, 
1791.00, 
1792.00, 
1793.00, 
1794.00, 
1795.00, 
1796.00, 
1797.00, 
1798.00, 
1799.00, 
1800.00, 
1801.00, 
1802.00, 
1803.00, 
1804.00, 
1805.00, 
1806.00, 
1807.00, 
1808.00, 
1809.00, 
1810.00, 
1811.00, 
1812.00, 
1813.00, 
1814.00, 
1815.00, 
1816.00, 
1817.00, 
1818.00, 
1819.00, 
1820.00, 
1821.00, 
1822.00, 
1823.00, 
1824.00, 
1825.00, 
1826.00, 
1827.00, 
1828.00, 
1829.00, 
1830.00, 
1831.00, 
1832.00, 
1833.00, 
1834.00, 
1835.00, 
1836.00, 
1837.00, 
1838.00, 
1839.00, 
1840.00, 
1841.00, 
1842.00, 
1843.00, 
1844.00, 
1845.00, 
1846.00, 
1847.00, 
1848.00, 
1849.00, 
1850.00, 
1851.00, 
1852.00, 
1853.00, 
1854.00, 
1855.00, 
1856.00, 
1857.00, 
1858.00, 
1859.00, 
1860.00, 
1861.00, 
1862.00, 
1863.00, 
1864.00, 
1865.00, 
1866.00, 
1867.00, 
1868.00, 
1869.00, 
1870.00, 
1871.00, 
1872.00, 
1873.00, 
1874.00, 
1875.00, 
1876.00, 
1877.00, 
1878.00, 
1879.00, 
1880.00, 
1881.00, 
1882.00, 
1883.00, 
1884.00, 
1885.00, 
1886.00, 
1887.00, 
1888.00, 
1889.00, 
1890.00, 
1891.00, 
1892.00, 
1893.00, 
1894.00, 
1895.00, 
1896.00, 
1897.00, 
1898.00, 
1899.00, 
1900.00, 
1901.00, 
1902.00, 
1903.00, 
1904.00, 
1905.00, 
1906.00, 
1907.00, 
1908.00, 
1909.00, 
1910.00, 
1911.00, 
1912.00, 
1913.00, 
1914.00, 
1915.00, 
1916.00, 
1917.00, 
1918.00, 
1919.00, 
1920.00, 
1921.00, 
1922.00, 
1923.00, 
1924.00, 
1925.00, 
1926.00, 
1927.00, 
1928.00, 
1929.00, 
1930.00, 
1931.00, 
1932.00, 
1933.00, 
1934.00, 
1935.00, 
1936.00, 
1937.00, 
1938.00, 
1939.00, 
1940.00, 
1941.00, 
1942.00, 
1943.00, 
1944.00, 
1945.00, 
1946.00, 
1947.00, 
1948.00, 
1949.00, 
1950.00, 
1951.00, 
1952.00, 
1953.00, 
1954.00, 
1955.00, 
1956.00, 
1957.00, 
1958.00, 
1959.00, 
1960.00, 
1961.00, 
1962.00, 
1963.00, 
1964.00, 
1965.00, 
1966.00, 
1967.00, 
1968.00, 
1969.00, 
1970.00, 
1971.00, 
1972.00, 
1973.00, 
1974.00, 
1975.00, 
1976.00, 
1977.00, 
1978.00, 
1979.00, 
1980.00, 
1981.00, 
1982.00, 
1983.00, 
1984.00, 
1985.00, 
1986.00, 
1987.00, 
1988.00, 
1989.00, 
1990.00, 
1991.00, 
1992.00, 
1993.00, 
1994.00, 
1995.00, 
1996.00, 
1997.00, 
1998.00, 
1999.00, 
2000.00, 
2001.00, 
2002.00, 
2003.00, 
2004.00, 
2005.00, 
2006.00, 
2007.00, 
2008.00, 
2009.00, 
2010.00, 
2011.00, 
2012.00, 
2013.00, 
2014.00, 
2015.00, 
2016.00, 
2017.00, 
2018.00, 
2019.00, 
2020.00, 
2021.00, 
2022.00, 
2023.00, 
2024.00, 
2025.00, 
2026.00, 
2027.00, 
2028.00, 
2029.00, 
2030.00, 
2031.00, 
2032.00, 
2033.00, 
2034.00, 
2035.00, 
2036.00, 
2037.00, 
2038.00, 
2039.00, 
2040.00, 
2041.00, 
2042.00, 
2043.00, 
2044.00, 
2045.00, 
2046.00, 
2047.00, 
2048.00, 
2049.00, 
2050.00, 
2051.00, 
2052.00, 
2053.00, 
2054.00, 
2055.00, 
2056.00, 
2057.00, 
2058.00, 
2059.00, 
2060.00, 
2061.00, 
2062.00, 
2063.00, 
2064.00, 
2065.00, 
2066.00, 
2067.00, 
2068.00, 
2069.00, 
2070.00, 
2071.00, 
2072.00, 
2073.00, 
2074.00, 
2075.00, 
2076.00, 
2077.00, 
2078.00, 
2079.00, 
2080.00, 
2081.00, 
2082.00, 
2083.00, 
2084.00, 
2085.00, 
2086.00, 
2087.00, 
2088.00, 
2089.00, 
2090.00, 
2091.00, 
2092.00, 
2093.00, 
2094.00, 
2095.00, 
2096.00, 
2097.00, 
2098.00, 
2099.00, 
2100.00, 
2101.00, 
2102.00, 
2103.00, 
2104.00, 
2105.00, 
2106.00, 
2107.00, 
2108.00, 
2109.00, 
2110.00, 
2111.00, 
2112.00, 
2113.00, 
2114.00, 
2115.00, 
2116.00, 
2117.00, 
2118.00, 
2119.00, 
2120.00, 
2121.00, 
2122.00, 
2123.00, 
2124.00, 
2125.00, 
2126.00, 
2127.00, 
2128.00, 
2129.00, 
2130.00, 
2131.00, 
2132.00, 
2133.00, 
2134.00, 
2135.00, 
2136.00, 
2137.00, 
2138.00, 
2139.00, 
2140.00, 
2141.00, 
2142.00, 
2143.00, 
2144.00, 
2145.00, 
2146.00, 
2147.00, 
2148.00, 
2149.00, 
2150.00, 
2151.00, 
2152.00, 
2153.00, 
2154.00, 
2155.00, 
2156.00, 
2157.00, 
2158.00, 
2159.00, 
2160.00, 
2161.00, 
2162.00, 
2163.00, 
2164.00, 
2165.00, 
2166.00, 
2167.00, 
2168.00, 
2169.00, 
2170.00, 
2171.00, 
2172.00, 
2173.00, 
2174.00, 
2175.00, 
2176.00, 
2177.00, 
2178.00, 
2179.00, 
2180.00, 
2181.00, 
2182.00, 
2183.00, 
2184.00, 
2185.00, 
2186.00, 
2187.00, 
2188.00, 
2189.00, 
2190.00, 
2191.00, 
2192.00, 
2193.00, 
2194.00, 
2195.00, 
2196.00, 
2197.00, 
2198.00, 
2199.00, 
2200.00, 
2201.00, 
2202.00, 
2203.00, 
2204.00, 
2205.00, 
2206.00, 
2207.00, 
2208.00, 
2209.00, 
2210.00, 
2211.00, 
2212.00, 
2213.00, 
2214.00, 
2215.00, 
2216.00, 
2217.00, 
2218.00, 
2219.00, 
2220.00, 
2221.00, 
2222.00, 
2223.00, 
2224.00, 
2225.00, 
2226.00, 
2227.00, 
2228.00, 
2229.00, 
2230.00, 
2231.00, 
2232.00, 
2233.00, 
2234.00, 
2235.00, 
2236.00, 
2237.00, 
2238.00, 
2239.00, 
2240.00, 
2241.00, 
2242.00, 
2243.00, 
2244.00, 
2245.00, 
2246.00, 
2247.00, 
2248.00, 
2249.00, 
2250.00, 
2251.00, 
2252.00, 
2253.00, 
2254.00, 
2255.00, 
2256.00, 
2257.00, 
2258.00, 
2259.00, 
2260.00, 
2261.00, 
2262.00, 
2263.00, 
2264.00, 
2265.00, 
2266.00, 
2267.00, 
2268.00, 
2269.00, 
2270.00, 
2271.00, 
2272.00, 
2273.00, 
2274.00, 
2275.00, 
2276.00, 
2277.00, 
2278.00, 
2279.00, 
2280.00, 
2281.00, 
2282.00, 
2283.00, 
2284.00, 
2285.00, 
2286.00, 
2287.00, 
2288.00, 
2289.00, 
2290.00, 
2291.00, 
2292.00, 
2293.00, 
2294.00, 
2295.00, 
2296.00, 
2297.00, 
2298.00, 
2299.00, 
2300.00, 
2301.00, 
2302.00, 
2303.00, 
2304.00, 
2305.00, 
2306.00, 
2307.00, 
2308.00, 
2309.00, 
2310.00, 
2311.00, 
2312.00, 
2313.00, 
2314.00, 
2315.00, 
2316.00, 
2317.00, 
2318.00, 
2319.00, 
2320.00, 
2321.00, 
2322.00, 
2323.00, 
2324.00, 
2325.00, 
2326.00, 
2327.00, 
2328.00, 
2329.00, 
2330.00, 
2331.00, 
2332.00, 
2333.00, 
2334.00, 
2335.00, 
2336.00, 
2337.00, 
2338.00, 
2339.00, 
2340.00, 
2341.00, 
2342.00, 
2343.00, 
2344.00, 
2345.00, 
2346.00, 
2347.00, 
2348.00, 
2349.00, 
2350.00, 
2351.00, 
2352.00, 
2353.00, 
2354.00, 
2355.00, 
2356.00, 
2357.00, 
2358.00, 
2359.00, 
2360.00, 
2361.00, 
2362.00, 
2363.00, 
2364.00, 
2365.00, 
2366.00, 
2367.00, 
2368.00, 
2369.00, 
2370.00, 
2371.00, 
2372.00, 
2373.00, 
2374.00, 
2375.00, 
2376.00, 
2377.00, 
2378.00, 
2379.00, 
2380.00, 
2381.00, 
2382.00, 
2383.00, 
2384.00, 
2385.00, 
2386.00, 
2387.00, 
2388.00, 
2389.00, 
2390.00, 
2391.00, 
2392.00, 
2393.00, 
2394.00, 
2395.00, 
2396.00, 
2397.00, 
2398.00, 
2399.00, 
2400.00, 
2401.00, 
2402.00, 
2403.00, 
2404.00, 
2405.00, 
2406.00, 
2407.00, 
2408.00, 
2409.00, 
2410.00, 
2411.00, 
2412.00, 
2413.00, 
2414.00, 
2415.00, 
2416.00, 
2417.00, 
2418.00, 
2419.00, 
2420.00, 
2421.00, 
2422.00, 
2423.00, 
2424.00, 
2425.00, 
2426.00, 
2427.00, 
2428.00, 
2429.00, 
2430.00, 
2431.00, 
2432.00, 
2433.00, 
2434.00, 
2435.00, 
2436.00, 
2437.00, 
2438.00, 
2439.00, 
2440.00, 
2441.00, 
2442.00, 
2443.00, 
2444.00, 
2445.00, 
2446.00, 
2447.00, 
2448.00, 
2449.00, 
2450.00, 
2451.00, 
2452.00, 
2453.00, 
2454.00, 
2455.00, 
2456.00, 
2457.00, 
2458.00, 
2459.00, 
2460.00, 
2461.00, 
2462.00, 
2463.00, 
2464.00, 
2465.00, 
2466.00, 
2467.00, 
2468.00, 
2469.00, 
2470.00, 
2471.00, 
2472.00, 
2473.00, 
2474.00, 
2475.00, 
2476.00, 
2477.00, 
2478.00, 
2479.00, 
2480.00, 
2481.00, 
2482.00, 
2483.00, 
2484.00, 
2485.00, 
2486.00, 
2487.00, 
2488.00, 
2489.00, 
2490.00, 
2491.00, 
2492.00, 
2493.00, 
2494.00, 
2495.00, 
2496.00, 
2497.00, 
2498.00, 
2499.00, 
2500.00, 
2501.00, 
2502.00, 
2503.00, 
2504.00, 
2505.00, 
2506.00, 
2507.00, 
2508.00, 
2509.00, 
2510.00, 
2511.00, 
2512.00, 
2513.00, 
2514.00, 
2515.00, 
2516.00, 
2517.00, 
2518.00, 
2519.00, 
2520.00, 
2521.00, 
2522.00, 
2523.00, 
2524.00, 
2525.00, 
2526.00, 
2527.00, 
2528.00, 
2529.00, 
2530.00, 
2531.00, 
2532.00, 
2533.00, 
2534.00, 
2535.00, 
2536.00, 
2537.00, 
2538.00, 
2539.00, 
2540.00, 
2541.00, 
2542.00, 
2543.00, 
2544.00, 
2545.00, 
2546.00, 
2547.00, 
2548.00, 
2549.00, 
2550.00, 
2551.00, 
2552.00, 
2553.00, 
2554.00, 
2555.00, 
2556.00, 
2557.00, 
2558.00, 
2559.00, 
2560.00, 
2561.00, 
2562.00, 
2563.00, 
2564.00, 
2565.00, 
2566.00, 
2567.00, 
2568.00, 
2569.00, 
2570.00, 
2571.00, 
2572.00, 
2573.00, 
2574.00, 
2575.00, 
2576.00, 
2577.00, 
2578.00, 
2579.00, 
2580.00, 
2581.00, 
2582.00, 
2583.00, 
2584.00, 
2585.00, 
2586.00, 
2587.00, 
2588.00, 
2589.00, 
2590.00, 
2591.00, 
2592.00, 
2593.00, 
2594.00, 
2595.00, 
2596.00, 
2597.00, 
2598.00, 
2599.00, 
2600.00, 
