"1cP1 - RawData"
"Wavelength nm.","T%"
200.00,0.001
201.00,0.001
202.00,-0.002
203.00,-0.001
204.00,0.002
205.00,0.001
206.00,0.000
207.00,0.003
208.00,0.000
209.00,0.001
210.00,0.002
211.00,-0.001
212.00,-0.000
213.00,0.000
214.00,0.002
215.00,0.001
216.00,0.001
217.00,0.002
218.00,0.002
219.00,-0.001
220.00,0.001
221.00,-0.001
222.00,0.001
223.00,-0.000
224.00,0.002
225.00,0.001
226.00,0.001
227.00,0.000
228.00,-0.001
229.00,0.002
230.00,0.000
231.00,0.002
232.00,0.000
233.00,0.000
234.00,0.001
235.00,-0.001
236.00,-0.001
237.00,0.002
238.00,0.001
239.00,-0.000
240.00,-0.001
241.00,0.001
242.00,0.002
243.00,-0.001
244.00,0.000
245.00,-0.000
246.00,-0.000
247.00,0.001
248.00,-0.000
249.00,0.000
250.00,0.001
251.00,-0.000
252.00,-0.000
253.00,-0.001
254.00,-0.000
255.00,0.002
256.00,-0.001
257.00,-0.000
258.00,0.000
259.00,0.001
260.00,-0.000
261.00,-0.001
262.00,-0.000
263.00,0.003
264.00,-0.001
265.00,-0.001
266.00,0.001
267.00,-0.001
268.00,0.001
269.00,0.000
270.00,0.000
271.00,-0.001
272.00,0.000
273.00,-0.000
274.00,0.000
275.00,0.000
276.00,-0.001
277.00,0.000
278.00,-0.000
279.00,-0.000
280.00,-0.000
281.00,0.001
282.00,0.002
283.00,0.003
284.00,0.000
285.00,0.001
286.00,-0.000
287.00,-0.001
288.00,0.001
289.00,0.001
290.00,0.001
291.00,0.001
292.00,-0.001
293.00,-0.000
294.00,-0.001
295.00,-0.001
296.00,0.001
297.00,0.001
298.00,0.002
299.00,0.000
300.00,-0.001
301.00,0.001
302.00,0.001
303.00,0.002
304.00,0.002
305.00,0.000
306.00,0.003
307.00,0.002
308.00,0.005
309.00,0.012
310.00,0.017
311.00,0.026
312.00,0.043
313.00,0.066
314.00,0.092
315.00,0.139
316.00,0.201
317.00,0.286
318.00,0.389
319.00,0.523
320.00,0.697
321.00,0.904
322.00,1.157
323.00,1.467
324.00,1.813
325.00,2.181
326.00,2.611
327.00,3.090
328.00,3.628
329.00,4.160
330.00,4.794
331.00,5.417
332.00,6.054
333.00,6.792
334.00,7.476
335.00,8.267
336.00,9.002
337.00,9.813
338.00,10.565
339.00,11.273
340.00,12.015
341.00,12.727
342.00,13.444
343.00,14.115
344.00,14.787
345.00,15.467
346.00,16.025
347.00,16.598
348.00,17.184
349.00,17.672
350.00,18.144
351.00,18.632
352.00,19.007
353.00,19.436
354.00,19.848
355.00,20.211
356.00,20.515
357.00,20.812
358.00,21.110
359.00,21.467
360.00,21.705
361.00,21.894
362.00,22.123
363.00,22.330
364.00,22.466
365.00,22.570
366.00,22.725
367.00,22.833
368.00,22.908
369.00,22.954
370.00,23.055
371.00,23.080
372.00,23.052
373.00,23.057
374.00,23.064
375.00,23.048
376.00,22.913
377.00,22.837
378.00,22.770
379.00,22.674
380.00,22.584
381.00,22.615
382.00,22.683
383.00,22.702
384.00,22.712
385.00,22.814
386.00,22.837
387.00,22.936
388.00,23.061
389.00,23.077
390.00,23.150
391.00,23.208
392.00,23.233
393.00,23.249
394.00,23.304
395.00,23.366
396.00,23.335
397.00,23.368
398.00,23.369
399.00,23.380
400.00,23.399
401.00,23.398
402.00,23.406
403.00,23.428
404.00,23.448
405.00,23.345
406.00,23.330
407.00,23.309
408.00,23.284
409.00,23.243
410.00,23.160
411.00,23.117
412.00,23.104
413.00,23.146
414.00,23.130
415.00,23.084
416.00,23.165
417.00,23.097
418.00,23.141
419.00,23.234
420.00,23.239
421.00,23.285
422.00,23.302
423.00,23.337
424.00,23.350
425.00,23.409
426.00,23.400
427.00,23.475
428.00,23.499
429.00,23.522
430.00,23.576
431.00,23.640
432.00,23.664
433.00,23.662
434.00,23.779
435.00,23.805
436.00,23.855
437.00,23.925
438.00,23.994
439.00,24.037
440.00,24.120
441.00,24.155
442.00,24.269
443.00,24.320
444.00,24.442
445.00,24.521
446.00,24.613
447.00,24.666
448.00,24.782
449.00,24.888
450.00,24.999
451.00,25.110
452.00,25.196
453.00,25.323
454.00,25.370
455.00,25.491
456.00,25.624
457.00,25.713
458.00,25.799
459.00,25.937
460.00,26.089
461.00,26.243
462.00,26.271
463.00,26.432
464.00,26.573
465.00,26.689
466.00,26.818
467.00,26.934
468.00,27.005
469.00,27.125
470.00,27.203
471.00,27.293
472.00,27.432
473.00,27.505
474.00,27.612
475.00,27.721
476.00,27.864
477.00,27.963
478.00,28.065
479.00,28.167
480.00,28.315
481.00,28.457
482.00,28.610
483.00,28.724
484.00,28.946
485.00,28.970
486.00,29.197
487.00,29.329
488.00,29.491
489.00,29.672
490.00,29.797
491.00,29.901
492.00,30.158
493.00,30.276
494.00,30.273
495.00,30.400
496.00,30.509
497.00,30.616
498.00,30.745
499.00,30.925
500.00,31.052
501.00,31.173
502.00,31.276
503.00,31.388
504.00,31.467
505.00,31.583
506.00,31.775
507.00,31.848
508.00,31.934
509.00,32.113
510.00,32.198
511.00,32.246
512.00,32.475
513.00,32.640
514.00,32.714
515.00,32.847
516.00,32.911
517.00,33.055
518.00,33.167
519.00,33.206
520.00,33.279
521.00,33.376
522.00,33.466
523.00,33.500
524.00,33.653
525.00,33.789
526.00,33.873
527.00,33.917
528.00,34.001
529.00,34.201
530.00,34.307
531.00,34.461
532.00,34.514
533.00,34.629
534.00,34.700
535.00,34.786
536.00,34.835
537.00,34.927
538.00,34.994
539.00,35.042
540.00,35.145
541.00,35.178
542.00,35.262
543.00,35.361
544.00,35.424
545.00,35.498
546.00,35.502
547.00,35.671
548.00,35.723
549.00,35.778
550.00,35.865
551.00,35.958
552.00,36.053
553.00,36.098
554.00,36.136
555.00,36.170
556.00,36.256
557.00,36.353
558.00,36.401
559.00,36.471
560.00,36.525
561.00,36.621
562.00,36.664
563.00,36.667
564.00,36.781
565.00,36.783
566.00,36.797
567.00,36.826
568.00,36.856
569.00,36.982
570.00,36.965
571.00,36.997
572.00,37.059
573.00,37.039
574.00,37.123
575.00,37.101
576.00,37.096
577.00,37.183
578.00,37.254
579.00,37.301
580.00,37.319
581.00,37.504
582.00,37.571
583.00,37.595
584.00,37.704
585.00,37.667
586.00,37.727
587.00,37.861
588.00,37.938
589.00,37.848
590.00,37.970
591.00,38.031
592.00,37.945
593.00,37.993
594.00,38.130
595.00,38.234
596.00,38.335
597.00,38.310
598.00,38.392
599.00,38.350
600.00,38.357
601.00,38.361
602.00,38.434
603.00,38.475
604.00,38.499
605.00,38.601
606.00,38.616
607.00,38.601
608.00,38.815
609.00,38.930
610.00,38.761
611.00,38.865
612.00,38.894
613.00,38.940
614.00,38.970
615.00,39.068
616.00,39.168
617.00,39.127
618.00,39.131
619.00,39.217
620.00,39.235
621.00,39.307
622.00,39.395
623.00,39.456
624.00,39.495
625.00,39.545
626.00,39.554
627.00,39.694
628.00,39.689
629.00,39.719
630.00,39.765
631.00,39.798
632.00,39.889
633.00,40.053
634.00,40.087
635.00,40.162
636.00,40.219
637.00,40.253
638.00,40.274
639.00,40.415
640.00,40.391
641.00,40.454
642.00,40.565
643.00,40.601
644.00,40.699
645.00,40.734
646.00,40.874
647.00,40.922
648.00,40.914
649.00,40.950
650.00,41.037
651.00,41.158
652.00,41.318
653.00,41.338
654.00,41.208
655.00,41.606
656.00,41.763
657.00,41.604
658.00,41.668
659.00,41.786
660.00,41.824
661.00,41.894
662.00,41.942
663.00,42.051
664.00,42.255
665.00,42.455
666.00,42.317
667.00,42.389
668.00,42.394
669.00,42.666
670.00,42.882
671.00,42.762
672.00,42.787
673.00,42.923
674.00,43.004
675.00,43.017
676.00,43.289
677.00,43.434
678.00,43.167
679.00,43.429
680.00,43.518
681.00,43.593
682.00,43.588
683.00,43.627
684.00,43.763
685.00,43.890
686.00,43.850
687.00,43.906
688.00,43.841
689.00,44.021
690.00,44.390
691.00,44.577
692.00,44.314
693.00,44.359
694.00,44.482
695.00,44.579
696.00,44.651
697.00,44.659
698.00,44.771
699.00,45.040
700.00,45.128
701.00,45.008
702.00,45.130
703.00,45.283
704.00,45.332
705.00,45.197
706.00,45.317
707.00,45.357
708.00,45.243
709.00,45.706
710.00,46.047
711.00,45.494
712.00,45.738
713.00,45.831
714.00,45.936
715.00,45.834
716.00,45.875
717.00,46.143
718.00,46.238
719.00,46.048
720.00,46.097
721.00,50.833
722.00,50.773
723.00,50.909
724.00,50.825
725.00,50.813
726.00,50.845
727.00,50.846
728.00,50.938
729.00,50.853
730.00,50.912
731.00,50.870
732.00,50.913
733.00,50.990
734.00,50.992
735.00,50.998
736.00,51.063
737.00,51.100
738.00,51.140
739.00,51.126
740.00,51.104
741.00,51.204
742.00,51.211
743.00,51.226
744.00,51.138
745.00,51.153
746.00,51.234
747.00,51.177
748.00,51.194
749.00,51.270
750.00,51.163
751.00,51.126
752.00,51.212
753.00,51.205
754.00,51.171
755.00,51.205
756.00,51.154
757.00,51.229
758.00,51.214
759.00,51.160
760.00,51.237
761.00,51.330
762.00,51.211
763.00,51.263
764.00,51.229
765.00,51.237
766.00,51.247
767.00,51.250
768.00,51.277
769.00,51.264
770.00,51.353
771.00,51.298
772.00,51.322
773.00,51.217
774.00,51.231
775.00,51.318
776.00,51.255
777.00,51.383
778.00,51.328
779.00,51.385
780.00,51.245
781.00,51.307
782.00,51.347
783.00,51.250
784.00,51.253
785.00,51.239
786.00,51.257
787.00,51.296
788.00,51.211
789.00,51.218
790.00,51.148
791.00,51.272
792.00,51.132
793.00,51.145
794.00,51.110
795.00,51.153
796.00,51.191
797.00,51.098
798.00,51.108
799.00,51.086
800.00,51.018
801.00,51.079
802.00,50.986
803.00,51.046
804.00,50.905
805.00,50.986
806.00,50.894
807.00,50.873
808.00,51.006
809.00,50.928
810.00,50.944
811.00,50.932
812.00,50.898
813.00,50.891
814.00,50.875
815.00,50.747
816.00,50.896
817.00,50.815
818.00,50.682
819.00,50.777
820.00,50.641
821.00,50.725
822.00,50.693
823.00,50.669
824.00,50.674
825.00,50.639
826.00,50.632
827.00,50.614
828.00,50.672
829.00,50.609
830.00,50.511
831.00,52.902
832.00,52.989
833.00,52.847
834.00,52.823
835.00,52.789
836.00,52.834
837.00,52.785
838.00,52.752
839.00,52.764
840.00,52.734
841.00,52.726
842.00,52.713
843.00,52.673
844.00,52.672
845.00,52.579
846.00,52.758
847.00,52.556
848.00,52.564
849.00,52.483
850.00,52.485
851.00,52.444
852.00,52.438
853.00,52.390
854.00,52.358
855.00,52.329
856.00,52.300
857.00,52.283
858.00,52.264
859.00,52.239
860.00,52.215
861.00,52.221
862.00,52.183
863.00,52.173
864.00,52.150
865.00,52.175
866.00,52.143
867.00,52.143
868.00,52.115
869.00,52.082
870.00,52.115
871.00,52.087
872.00,52.061
873.00,51.996
874.00,52.235
875.00,52.007
876.00,52.067
877.00,51.982
878.00,52.000
879.00,51.947
880.00,51.971
881.00,51.947
882.00,51.939
883.00,51.913
884.00,51.868
885.00,51.870
886.00,51.834
887.00,51.814
888.00,51.768
889.00,51.831
890.00,51.736
891.00,51.738
892.00,51.710
893.00,51.679
894.00,51.709
895.00,51.675
896.00,51.658
897.00,51.641
898.00,51.606
899.00,51.590
900.00,51.587
901.00,51.571
902.00,51.583
903.00,51.544
904.00,51.559
905.00,51.523
906.00,51.516
907.00,51.461
908.00,51.454
909.00,51.439
910.00,51.388
911.00,51.412
912.00,51.376
913.00,51.346
914.00,51.312
915.00,51.302
916.00,51.295
917.00,51.283
918.00,51.228
919.00,51.214
920.00,51.188
921.00,51.201
922.00,51.184
923.00,51.135
924.00,51.110
925.00,51.098
926.00,51.107
927.00,51.087
928.00,51.070
929.00,51.065
930.00,51.035
931.00,51.044
932.00,50.968
933.00,50.964
934.00,50.933
935.00,50.932
936.00,50.887
937.00,50.873
938.00,50.856
939.00,50.853
940.00,50.816
941.00,50.826
942.00,50.783
943.00,50.782
944.00,50.715
945.00,50.767
946.00,50.739
947.00,50.697
948.00,50.684
949.00,50.666
950.00,50.643
951.00,50.619
952.00,50.588
953.00,50.535
954.00,50.589
955.00,50.500
956.00,50.498
957.00,50.443
958.00,50.470
959.00,50.426
960.00,50.420
961.00,50.415
962.00,50.413
963.00,50.362
964.00,50.358
965.00,50.354
966.00,50.333
967.00,50.324
968.00,50.306
969.00,50.334
970.00,50.308
971.00,50.318
972.00,50.286
973.00,50.313
974.00,50.317
975.00,50.306
976.00,50.316
977.00,50.299
978.00,50.343
979.00,50.289
980.00,50.317
981.00,50.305
982.00,50.286
983.00,50.300
984.00,50.265
985.00,50.289
986.00,50.233
987.00,50.278
988.00,50.221
989.00,50.195
990.00,50.251
991.00,50.199
992.00,50.219
993.00,50.175
994.00,50.159
995.00,50.152
996.00,50.146
997.00,50.143
998.00,50.124
999.00,50.135
1000.00,50.059
1001.00,50.093
1002.00,50.065
1003.00,50.072
1004.00,50.051
1005.00,50.019
1006.00,50.053
1007.00,50.040
1008.00,50.010
1009.00,49.988
1010.00,49.985
1011.00,49.966
1012.00,49.928
1013.00,49.945
1014.00,49.889
1015.00,49.913
1016.00,49.879
1017.00,49.894
1018.00,49.865
1019.00,49.840
1020.00,49.839
1021.00,49.804
1022.00,49.824
1023.00,49.809
1024.00,49.773
1025.00,49.760
1026.00,49.738
1027.00,49.710
1028.00,49.707
1029.00,49.688
1030.00,49.671
1031.00,49.684
1032.00,49.639
1033.00,49.650
1034.00,49.618
1035.00,49.609
1036.00,49.559
1037.00,49.554
1038.00,49.560
1039.00,49.500
1040.00,49.504
1041.00,49.479
1042.00,49.471
1043.00,49.443
1044.00,49.466
1045.00,49.456
1046.00,49.431
1047.00,49.450
1048.00,49.480
1049.00,49.480
1050.00,49.478
1051.00,49.561
1052.00,49.509
1053.00,49.521
1054.00,49.504
1055.00,49.538
1056.00,49.540
1057.00,49.536
1058.00,49.525
1059.00,49.517
1060.00,49.538
1061.00,49.519
1062.00,49.515
1063.00,49.525
1064.00,49.519
1065.00,49.505
1066.00,49.490
1067.00,49.483
1068.00,49.503
1069.00,49.470
1070.00,49.453
1071.00,49.440
1072.00,49.471
1073.00,49.445
1074.00,49.448
1075.00,49.426
1076.00,49.436
1077.00,49.416
1078.00,49.397
1079.00,49.398
1080.00,49.397
1081.00,49.382
1082.00,49.368
1083.00,49.365
1084.00,49.351
1085.00,49.352
1086.00,49.356
1087.00,49.348
1088.00,49.328
1089.00,49.328
1090.00,49.328
1091.00,49.326
1092.00,49.313
1093.00,49.307
1094.00,49.274
1095.00,49.273
1096.00,49.252
1097.00,49.267
1098.00,49.239
1099.00,49.240
1100.00,49.231
1101.00,49.218
1102.00,49.209
1103.00,49.207
1104.00,49.187
1105.00,49.182
1106.00,49.170
1107.00,49.173
1108.00,49.149
1109.00,49.140
1110.00,49.137
1111.00,49.122
1112.00,49.105
1113.00,49.099
1114.00,49.095
1115.00,49.100
1116.00,49.092
1117.00,49.075
1118.00,49.052
1119.00,49.055
1120.00,49.045
1121.00,49.072
1122.00,49.042
1123.00,49.035
1124.00,49.037
1125.00,49.033
1126.00,49.024
1127.00,49.022
1128.00,49.015
1129.00,49.026
1130.00,48.981
1131.00,48.975
1132.00,48.973
1133.00,48.985
1134.00,48.977
1135.00,48.978
1136.00,48.964
1137.00,48.969
1138.00,48.968
1139.00,48.977
1140.00,48.972
1141.00,48.975
1142.00,48.968
1143.00,48.977
1144.00,48.948
1145.00,48.940
1146.00,48.926
1147.00,48.924
1148.00,48.918
1149.00,48.936
1150.00,48.929
1151.00,48.939
1152.00,48.934
1153.00,48.923
1154.00,48.920
1155.00,48.922
1156.00,48.904
1157.00,48.916
1158.00,48.905
1159.00,48.909
1160.00,48.903
1161.00,48.918
1162.00,48.915
1163.00,48.906
1164.00,48.898
1165.00,48.904
1166.00,48.906
1167.00,48.884
1168.00,48.906
1169.00,48.893
1170.00,48.891
1171.00,48.865
1172.00,48.879
1173.00,48.888
1174.00,48.886
1175.00,48.876
1176.00,48.878
1177.00,48.868
1178.00,48.861
1179.00,48.886
1180.00,48.873
1181.00,48.876
1182.00,48.867
1183.00,48.880
1184.00,48.878
1185.00,48.892
1186.00,48.866
1187.00,48.879
1188.00,48.864
1189.00,48.869
1190.00,48.878
1191.00,48.851
1192.00,48.880
1193.00,48.872
1194.00,48.891
1195.00,48.863
1196.00,48.894
1197.00,48.884
1198.00,48.880
1199.00,48.880
1200.00,48.881
1201.00,48.889
1202.00,48.855
1203.00,48.869
1204.00,48.864
1205.00,48.923
1206.00,48.907
1207.00,48.897
1208.00,48.878
1209.00,48.869
1210.00,48.881
1211.00,48.878
1212.00,48.891
1213.00,48.864
1214.00,48.894
1215.00,48.871
1216.00,48.880
1217.00,48.892
1218.00,48.874
1219.00,48.891
1220.00,48.869
1221.00,48.884
1222.00,48.867
1223.00,48.892
1224.00,48.887
1225.00,48.878
1226.00,48.877
1227.00,48.877
1228.00,48.895
1229.00,48.904
1230.00,48.927
1231.00,48.930
1232.00,48.943
1233.00,48.928
1234.00,48.936
1235.00,48.933
1236.00,48.928
1237.00,48.925
1238.00,48.929
1239.00,48.938
1240.00,48.920
1241.00,48.942
1242.00,48.939
1243.00,48.958
1244.00,48.939
1245.00,48.977
1246.00,48.984
1247.00,48.960
1248.00,48.969
1249.00,48.999
1250.00,49.008
1251.00,48.997
1252.00,49.000
1253.00,48.985
1254.00,49.020
1255.00,49.000
1256.00,48.978
1257.00,48.975
1258.00,49.024
1259.00,49.019
1260.00,49.038
1261.00,49.044
1262.00,49.030
1263.00,49.002
1264.00,49.040
1265.00,49.030
1266.00,49.048
1267.00,49.060
1268.00,49.035
1269.00,49.053
1270.00,49.073
1271.00,49.085
1272.00,49.084
1273.00,49.101
1274.00,49.095
1275.00,49.109
1276.00,49.105
1277.00,49.113
1278.00,49.140
1279.00,49.126
1280.00,49.121
1281.00,49.149
1282.00,49.145
1283.00,49.135
1284.00,49.157
1285.00,49.155
1286.00,49.175
1287.00,49.169
1288.00,49.181
1289.00,49.183
1290.00,49.206
1291.00,49.201
1292.00,49.200
1293.00,49.193
1294.00,49.209
1295.00,49.221
1296.00,49.223
1297.00,49.239
1298.00,49.281
1299.00,49.248
1300.00,49.273
1301.00,49.255
1302.00,49.288
1303.00,49.280
1304.00,49.258
1305.00,49.289
1306.00,49.301
1307.00,49.296
1308.00,49.304
1309.00,49.318
1310.00,49.321
1311.00,49.323
1312.00,49.339
1313.00,49.337
1314.00,49.344
1315.00,49.357
1316.00,49.364
1317.00,49.384
1318.00,49.376
1319.00,49.379
1320.00,49.394
1321.00,49.571
1322.00,49.558
1323.00,49.542
1324.00,49.529
1325.00,49.528
1326.00,49.552
1327.00,49.532
1328.00,49.528
1329.00,49.521
1330.00,49.548
1331.00,49.542
1332.00,49.551
1333.00,49.562
1334.00,49.578
1335.00,49.606
1336.00,49.633
1337.00,49.653
1338.00,49.735
1339.00,49.768
1340.00,49.824
1341.00,49.882
1342.00,49.948
1343.00,49.999
1344.00,50.054
1345.00,50.117
1346.00,50.141
1347.00,50.198
1348.00,50.204
1349.00,50.232
1350.00,50.234
1351.00,50.257
1352.00,50.285
1353.00,50.343
1354.00,50.328
1355.00,50.265
1356.00,50.357
1357.00,50.322
1358.00,50.330
1359.00,50.311
1360.00,50.357
1361.00,50.412
1362.00,50.259
1363.00,50.425
1364.00,50.501
1365.00,50.332
1366.00,50.434
1367.00,50.368
1368.00,50.237
1369.00,50.352
1370.00,50.323
1371.00,50.301
1372.00,50.333
1373.00,50.361
1374.00,50.337
1375.00,50.319
1376.00,50.323
1377.00,50.324
1378.00,50.354
1379.00,50.342
1380.00,50.350
1381.00,50.368
1382.00,50.317
1383.00,50.330
1384.00,50.309
1385.00,50.322
1386.00,50.349
1387.00,50.288
1388.00,50.324
1389.00,50.281
1390.00,50.328
1391.00,50.349
1392.00,50.252
1393.00,50.216
1394.00,50.258
1395.00,50.325
1396.00,50.354
1397.00,50.248
1398.00,50.341
1399.00,50.316
1400.00,50.328
1401.00,50.262
1402.00,50.393
1403.00,50.357
1404.00,50.266
1405.00,50.372
1406.00,50.402
1407.00,50.370
1408.00,50.364
1409.00,50.196
1410.00,50.435
1411.00,50.395
1412.00,50.462
1413.00,50.412
1414.00,50.430
1415.00,50.462
1416.00,50.456
1417.00,50.486
1418.00,50.472
1419.00,50.498
1420.00,50.499
1421.00,50.543
1422.00,50.534
1423.00,50.552
1424.00,50.558
1425.00,50.598
1426.00,50.579
1427.00,50.607
1428.00,50.615
1429.00,50.655
1430.00,50.638
1431.00,50.667
1432.00,50.671
1433.00,50.673
1434.00,50.698
1435.00,50.758
1436.00,50.756
1437.00,50.749
1438.00,50.795
1439.00,50.809
1440.00,50.831
1441.00,50.844
1442.00,50.857
1443.00,50.885
1444.00,50.926
1445.00,50.889
1446.00,50.922
1447.00,50.940
1448.00,50.991
1449.00,51.003
1450.00,51.000
1451.00,51.008
1452.00,51.048
1453.00,51.039
1454.00,51.067
1455.00,51.097
1456.00,51.133
1457.00,51.123
1458.00,51.133
1459.00,51.165
1460.00,51.192
1461.00,51.183
1462.00,51.240
1463.00,51.224
1464.00,51.243
1465.00,51.257
1466.00,51.245
1467.00,51.287
1468.00,51.348
1469.00,51.339
1470.00,51.336
1471.00,51.359
1472.00,51.377
1473.00,51.380
1474.00,51.411
1475.00,51.424
1476.00,51.447
1477.00,51.410
1478.00,51.451
1479.00,51.479
1480.00,51.464
1481.00,51.476
1482.00,51.509
1483.00,51.527
1484.00,51.550
1485.00,51.556
1486.00,51.584
1487.00,51.605
1488.00,51.614
1489.00,51.616
1490.00,51.631
1491.00,51.625
1492.00,51.654
1493.00,51.631
1494.00,51.682
1495.00,51.674
1496.00,51.682
1497.00,51.672
1498.00,51.694
1499.00,51.705
1500.00,51.722
1501.00, 
1502.00, 
1503.00, 
1504.00, 
1505.00, 
1506.00, 
1507.00, 
1508.00, 
1509.00, 
1510.00, 
1511.00, 
1512.00, 
1513.00, 
1514.00, 
1515.00, 
1516.00, 
1517.00, 
1518.00, 
1519.00, 
1520.00, 
1521.00, 
1522.00, 
1523.00, 
1524.00, 
1525.00, 
1526.00, 
1527.00, 
1528.00, 
1529.00, 
1530.00, 
1531.00, 
1532.00, 
1533.00, 
1534.00, 
1535.00, 
1536.00, 
1537.00, 
1538.00, 
1539.00, 
1540.00, 
1541.00, 
1542.00, 
1543.00, 
1544.00, 
1545.00, 
1546.00, 
1547.00, 
1548.00, 
1549.00, 
1550.00, 
1551.00, 
1552.00, 
1553.00, 
1554.00, 
1555.00, 
1556.00, 
1557.00, 
1558.00, 
1559.00, 
1560.00, 
1561.00, 
1562.00, 
1563.00, 
1564.00, 
1565.00, 
1566.00, 
1567.00, 
1568.00, 
1569.00, 
1570.00, 
1571.00, 
1572.00, 
1573.00, 
1574.00, 
1575.00, 
1576.00, 
1577.00, 
1578.00, 
1579.00, 
1580.00, 
1581.00, 
1582.00, 
1583.00, 
1584.00, 
1585.00, 
1586.00, 
1587.00, 
1588.00, 
1589.00, 
1590.00, 
1591.00, 
1592.00, 
1593.00, 
1594.00, 
1595.00, 
1596.00, 
1597.00, 
1598.00, 
1599.00, 
1600.00, 
1601.00, 
1602.00, 
1603.00, 
1604.00, 
1605.00, 
1606.00, 
1607.00, 
1608.00, 
1609.00, 
1610.00, 
1611.00, 
1612.00, 
1613.00, 
1614.00, 
1615.00, 
1616.00, 
1617.00, 
1618.00, 
1619.00, 
1620.00, 
1621.00, 
1622.00, 
1623.00, 
1624.00, 
1625.00, 
1626.00, 
1627.00, 
1628.00, 
1629.00, 
1630.00, 
1631.00, 
1632.00, 
1633.00, 
1634.00, 
1635.00, 
1636.00, 
1637.00, 
1638.00, 
1639.00, 
1640.00, 
1641.00, 
1642.00, 
1643.00, 
1644.00, 
1645.00, 
1646.00, 
1647.00, 
1648.00, 
1649.00, 
1650.00, 
1651.00, 
1652.00, 
1653.00, 
1654.00, 
1655.00, 
1656.00, 
1657.00, 
1658.00, 
1659.00, 
1660.00, 
1661.00, 
1662.00, 
1663.00, 
1664.00, 
1665.00, 
1666.00, 
1667.00, 
1668.00, 
1669.00, 
1670.00, 
1671.00, 
1672.00, 
1673.00, 
1674.00, 
1675.00, 
1676.00, 
1677.00, 
1678.00, 
1679.00, 
1680.00, 
1681.00, 
1682.00, 
1683.00, 
1684.00, 
1685.00, 
1686.00, 
1687.00, 
1688.00, 
1689.00, 
1690.00, 
1691.00, 
1692.00, 
1693.00, 
1694.00, 
1695.00, 
1696.00, 
1697.00, 
1698.00, 
1699.00, 
1700.00, 
1701.00, 
1702.00, 
1703.00, 
1704.00, 
1705.00, 
1706.00, 
1707.00, 
1708.00, 
1709.00, 
1710.00, 
1711.00, 
1712.00, 
1713.00, 
1714.00, 
1715.00, 
1716.00, 
1717.00, 
1718.00, 
1719.00, 
1720.00, 
1721.00, 
1722.00, 
1723.00, 
1724.00, 
1725.00, 
1726.00, 
1727.00, 
1728.00, 
1729.00, 
1730.00, 
1731.00, 
1732.00, 
1733.00, 
1734.00, 
1735.00, 
1736.00, 
1737.00, 
1738.00, 
1739.00, 
1740.00, 
1741.00, 
1742.00, 
1743.00, 
1744.00, 
1745.00, 
1746.00, 
1747.00, 
1748.00, 
1749.00, 
1750.00, 
1751.00, 
1752.00, 
1753.00, 
1754.00, 
1755.00, 
1756.00, 
1757.00, 
1758.00, 
1759.00, 
1760.00, 
1761.00, 
1762.00, 
1763.00, 
1764.00, 
1765.00, 
1766.00, 
1767.00, 
1768.00, 
1769.00, 
1770.00, 
1771.00, 
1772.00, 
1773.00, 
1774.00, 
1775.00, 
1776.00, 
1777.00, 
1778.00, 
1779.00, 
1780.00, 
1781.00, 
1782.00, 
1783.00, 
1784.00, 
1785.00, 
1786.00, 
1787.00, 
1788.00, 
1789.00, 
1790.00, 
1791.00, 
1792.00, 
1793.00, 
1794.00, 
1795.00, 
1796.00, 
1797.00, 
1798.00, 
1799.00, 
1800.00, 
1801.00, 
1802.00, 
1803.00, 
1804.00, 
1805.00, 
1806.00, 
1807.00, 
1808.00, 
1809.00, 
1810.00, 
1811.00, 
1812.00, 
1813.00, 
1814.00, 
1815.00, 
1816.00, 
1817.00, 
1818.00, 
1819.00, 
1820.00, 
1821.00, 
1822.00, 
1823.00, 
1824.00, 
1825.00, 
1826.00, 
1827.00, 
1828.00, 
1829.00, 
1830.00, 
1831.00, 
1832.00, 
1833.00, 
1834.00, 
1835.00, 
1836.00, 
1837.00, 
1838.00, 
1839.00, 
1840.00, 
1841.00, 
1842.00, 
1843.00, 
1844.00, 
1845.00, 
1846.00, 
1847.00, 
1848.00, 
1849.00, 
1850.00, 
1851.00, 
1852.00, 
1853.00, 
1854.00, 
1855.00, 
1856.00, 
1857.00, 
1858.00, 
1859.00, 
1860.00, 
1861.00, 
1862.00, 
1863.00, 
1864.00, 
1865.00, 
1866.00, 
1867.00, 
1868.00, 
1869.00, 
1870.00, 
1871.00, 
1872.00, 
1873.00, 
1874.00, 
1875.00, 
1876.00, 
1877.00, 
1878.00, 
1879.00, 
1880.00, 
1881.00, 
1882.00, 
1883.00, 
1884.00, 
1885.00, 
1886.00, 
1887.00, 
1888.00, 
1889.00, 
1890.00, 
1891.00, 
1892.00, 
1893.00, 
1894.00, 
1895.00, 
1896.00, 
1897.00, 
1898.00, 
1899.00, 
1900.00, 
1901.00, 
1902.00, 
1903.00, 
1904.00, 
1905.00, 
1906.00, 
1907.00, 
1908.00, 
1909.00, 
1910.00, 
1911.00, 
1912.00, 
1913.00, 
1914.00, 
1915.00, 
1916.00, 
1917.00, 
1918.00, 
1919.00, 
1920.00, 
1921.00, 
1922.00, 
1923.00, 
1924.00, 
1925.00, 
1926.00, 
1927.00, 
1928.00, 
1929.00, 
1930.00, 
1931.00, 
1932.00, 
1933.00, 
1934.00, 
1935.00, 
1936.00, 
1937.00, 
1938.00, 
1939.00, 
1940.00, 
1941.00, 
1942.00, 
1943.00, 
1944.00, 
1945.00, 
1946.00, 
1947.00, 
1948.00, 
1949.00, 
1950.00, 
1951.00, 
1952.00, 
1953.00, 
1954.00, 
1955.00, 
1956.00, 
1957.00, 
1958.00, 
1959.00, 
1960.00, 
1961.00, 
1962.00, 
1963.00, 
1964.00, 
1965.00, 
1966.00, 
1967.00, 
1968.00, 
1969.00, 
1970.00, 
1971.00, 
1972.00, 
1973.00, 
1974.00, 
1975.00, 
1976.00, 
1977.00, 
1978.00, 
1979.00, 
1980.00, 
1981.00, 
1982.00, 
1983.00, 
1984.00, 
1985.00, 
1986.00, 
1987.00, 
1988.00, 
1989.00, 
1990.00, 
1991.00, 
1992.00, 
1993.00, 
1994.00, 
1995.00, 
1996.00, 
1997.00, 
1998.00, 
1999.00, 
2000.00, 
2001.00, 
2002.00, 
2003.00, 
2004.00, 
2005.00, 
2006.00, 
2007.00, 
2008.00, 
2009.00, 
2010.00, 
2011.00, 
2012.00, 
2013.00, 
2014.00, 
2015.00, 
2016.00, 
2017.00, 
2018.00, 
2019.00, 
2020.00, 
2021.00, 
2022.00, 
2023.00, 
2024.00, 
2025.00, 
2026.00, 
2027.00, 
2028.00, 
2029.00, 
2030.00, 
2031.00, 
2032.00, 
2033.00, 
2034.00, 
2035.00, 
2036.00, 
2037.00, 
2038.00, 
2039.00, 
2040.00, 
2041.00, 
2042.00, 
2043.00, 
2044.00, 
2045.00, 
2046.00, 
2047.00, 
2048.00, 
2049.00, 
2050.00, 
2051.00, 
2052.00, 
2053.00, 
2054.00, 
2055.00, 
2056.00, 
2057.00, 
2058.00, 
2059.00, 
2060.00, 
2061.00, 
2062.00, 
2063.00, 
2064.00, 
2065.00, 
2066.00, 
2067.00, 
2068.00, 
2069.00, 
2070.00, 
2071.00, 
2072.00, 
2073.00, 
2074.00, 
2075.00, 
2076.00, 
2077.00, 
2078.00, 
2079.00, 
2080.00, 
2081.00, 
2082.00, 
2083.00, 
2084.00, 
2085.00, 
2086.00, 
2087.00, 
2088.00, 
2089.00, 
2090.00, 
2091.00, 
2092.00, 
2093.00, 
2094.00, 
2095.00, 
2096.00, 
2097.00, 
2098.00, 
2099.00, 
2100.00, 
2101.00, 
2102.00, 
2103.00, 
2104.00, 
2105.00, 
2106.00, 
2107.00, 
2108.00, 
2109.00, 
2110.00, 
2111.00, 
2112.00, 
2113.00, 
2114.00, 
2115.00, 
2116.00, 
2117.00, 
2118.00, 
2119.00, 
2120.00, 
2121.00, 
2122.00, 
2123.00, 
2124.00, 
2125.00, 
2126.00, 
2127.00, 
2128.00, 
2129.00, 
2130.00, 
2131.00, 
2132.00, 
2133.00, 
2134.00, 
2135.00, 
2136.00, 
2137.00, 
2138.00, 
2139.00, 
2140.00, 
2141.00, 
2142.00, 
2143.00, 
2144.00, 
2145.00, 
2146.00, 
2147.00, 
2148.00, 
2149.00, 
2150.00, 
2151.00, 
2152.00, 
2153.00, 
2154.00, 
2155.00, 
2156.00, 
2157.00, 
2158.00, 
2159.00, 
2160.00, 
2161.00, 
2162.00, 
2163.00, 
2164.00, 
2165.00, 
2166.00, 
2167.00, 
2168.00, 
2169.00, 
2170.00, 
2171.00, 
2172.00, 
2173.00, 
2174.00, 
2175.00, 
2176.00, 
2177.00, 
2178.00, 
2179.00, 
2180.00, 
2181.00, 
2182.00, 
2183.00, 
2184.00, 
2185.00, 
2186.00, 
2187.00, 
2188.00, 
2189.00, 
2190.00, 
2191.00, 
2192.00, 
2193.00, 
2194.00, 
2195.00, 
2196.00, 
2197.00, 
2198.00, 
2199.00, 
2200.00, 
2201.00, 
2202.00, 
2203.00, 
2204.00, 
2205.00, 
2206.00, 
2207.00, 
2208.00, 
2209.00, 
2210.00, 
2211.00, 
2212.00, 
2213.00, 
2214.00, 
2215.00, 
2216.00, 
2217.00, 
2218.00, 
2219.00, 
2220.00, 
2221.00, 
2222.00, 
2223.00, 
2224.00, 
2225.00, 
2226.00, 
2227.00, 
2228.00, 
2229.00, 
2230.00, 
2231.00, 
2232.00, 
2233.00, 
2234.00, 
2235.00, 
2236.00, 
2237.00, 
2238.00, 
2239.00, 
2240.00, 
2241.00, 
2242.00, 
2243.00, 
2244.00, 
2245.00, 
2246.00, 
2247.00, 
2248.00, 
2249.00, 
2250.00, 
2251.00, 
2252.00, 
2253.00, 
2254.00, 
2255.00, 
2256.00, 
2257.00, 
2258.00, 
2259.00, 
2260.00, 
2261.00, 
2262.00, 
2263.00, 
2264.00, 
2265.00, 
2266.00, 
2267.00, 
2268.00, 
2269.00, 
2270.00, 
2271.00, 
2272.00, 
2273.00, 
2274.00, 
2275.00, 
2276.00, 
2277.00, 
2278.00, 
2279.00, 
2280.00, 
2281.00, 
2282.00, 
2283.00, 
2284.00, 
2285.00, 
2286.00, 
2287.00, 
2288.00, 
2289.00, 
2290.00, 
2291.00, 
2292.00, 
2293.00, 
2294.00, 
2295.00, 
2296.00, 
2297.00, 
2298.00, 
2299.00, 
2300.00, 
2301.00, 
2302.00, 
2303.00, 
2304.00, 
2305.00, 
2306.00, 
2307.00, 
2308.00, 
2309.00, 
2310.00, 
2311.00, 
2312.00, 
2313.00, 
2314.00, 
2315.00, 
2316.00, 
2317.00, 
2318.00, 
2319.00, 
2320.00, 
2321.00, 
2322.00, 
2323.00, 
2324.00, 
2325.00, 
2326.00, 
2327.00, 
2328.00, 
2329.00, 
2330.00, 
2331.00, 
2332.00, 
2333.00, 
2334.00, 
2335.00, 
2336.00, 
2337.00, 
2338.00, 
2339.00, 
2340.00, 
2341.00, 
2342.00, 
2343.00, 
2344.00, 
2345.00, 
2346.00, 
2347.00, 
2348.00, 
2349.00, 
2350.00, 
2351.00, 
2352.00, 
2353.00, 
2354.00, 
2355.00, 
2356.00, 
2357.00, 
2358.00, 
2359.00, 
2360.00, 
2361.00, 
2362.00, 
2363.00, 
2364.00, 
2365.00, 
2366.00, 
2367.00, 
2368.00, 
2369.00, 
2370.00, 
2371.00, 
2372.00, 
2373.00, 
2374.00, 
2375.00, 
2376.00, 
2377.00, 
2378.00, 
2379.00, 
2380.00, 
2381.00, 
2382.00, 
2383.00, 
2384.00, 
2385.00, 
2386.00, 
2387.00, 
2388.00, 
2389.00, 
2390.00, 
2391.00, 
2392.00, 
2393.00, 
2394.00, 
2395.00, 
2396.00, 
2397.00, 
2398.00, 
2399.00, 
2400.00, 
2401.00, 
2402.00, 
2403.00, 
2404.00, 
2405.00, 
2406.00, 
2407.00, 
2408.00, 
2409.00, 
2410.00, 
2411.00, 
2412.00, 
2413.00, 
2414.00, 
2415.00, 
2416.00, 
2417.00, 
2418.00, 
2419.00, 
2420.00, 
2421.00, 
2422.00, 
2423.00, 
2424.00, 
2425.00, 
2426.00, 
2427.00, 
2428.00, 
2429.00, 
2430.00, 
2431.00, 
2432.00, 
2433.00, 
2434.00, 
2435.00, 
2436.00, 
2437.00, 
2438.00, 
2439.00, 
2440.00, 
2441.00, 
2442.00, 
2443.00, 
2444.00, 
2445.00, 
2446.00, 
2447.00, 
2448.00, 
2449.00, 
2450.00, 
2451.00, 
2452.00, 
2453.00, 
2454.00, 
2455.00, 
2456.00, 
2457.00, 
2458.00, 
2459.00, 
2460.00, 
2461.00, 
2462.00, 
2463.00, 
2464.00, 
2465.00, 
2466.00, 
2467.00, 
2468.00, 
2469.00, 
2470.00, 
2471.00, 
2472.00, 
2473.00, 
2474.00, 
2475.00, 
2476.00, 
2477.00, 
2478.00, 
2479.00, 
2480.00, 
2481.00, 
2482.00, 
2483.00, 
2484.00, 
2485.00, 
2486.00, 
2487.00, 
2488.00, 
2489.00, 
2490.00, 
2491.00, 
2492.00, 
2493.00, 
2494.00, 
2495.00, 
2496.00, 
2497.00, 
2498.00, 
2499.00, 
2500.00, 
2501.00, 
2502.00, 
2503.00, 
2504.00, 
2505.00, 
2506.00, 
2507.00, 
2508.00, 
2509.00, 
2510.00, 
2511.00, 
2512.00, 
2513.00, 
2514.00, 
2515.00, 
2516.00, 
2517.00, 
2518.00, 
2519.00, 
2520.00, 
2521.00, 
2522.00, 
2523.00, 
2524.00, 
2525.00, 
2526.00, 
2527.00, 
2528.00, 
2529.00, 
2530.00, 
2531.00, 
2532.00, 
2533.00, 
2534.00, 
2535.00, 
2536.00, 
2537.00, 
2538.00, 
2539.00, 
2540.00, 
2541.00, 
2542.00, 
2543.00, 
2544.00, 
2545.00, 
2546.00, 
2547.00, 
2548.00, 
2549.00, 
2550.00, 
2551.00, 
2552.00, 
2553.00, 
2554.00, 
2555.00, 
2556.00, 
2557.00, 
2558.00, 
2559.00, 
2560.00, 
2561.00, 
2562.00, 
2563.00, 
2564.00, 
2565.00, 
2566.00, 
2567.00, 
2568.00, 
2569.00, 
2570.00, 
2571.00, 
2572.00, 
2573.00, 
2574.00, 
2575.00, 
2576.00, 
2577.00, 
2578.00, 
2579.00, 
2580.00, 
2581.00, 
2582.00, 
2583.00, 
2584.00, 
2585.00, 
2586.00, 
2587.00, 
2588.00, 
2589.00, 
2590.00, 
2591.00, 
2592.00, 
2593.00, 
2594.00, 
2595.00, 
2596.00, 
2597.00, 
2598.00, 
2599.00, 
2600.00, 
