"1cP2 - RawData"
"Wavelength nm.","T%"
200.00,0.002
201.00,-0.001
202.00,-0.000
203.00,0.003
204.00,-0.001
205.00,0.002
206.00,0.001
207.00,0.001
208.00,0.003
209.00,0.002
210.00,-0.001
211.00,0.000
212.00,0.003
213.00,0.001
214.00,0.002
215.00,0.001
216.00,-0.000
217.00,0.001
218.00,0.001
219.00,0.002
220.00,0.001
221.00,0.002
222.00,0.001
223.00,-0.000
224.00,0.001
225.00,0.001
226.00,0.003
227.00,-0.002
228.00,-0.000
229.00,0.002
230.00,0.001
231.00,-0.000
232.00,-0.001
233.00,0.001
234.00,-0.001
235.00,-0.000
236.00,-0.001
237.00,-0.000
238.00,0.000
239.00,0.001
240.00,-0.000
241.00,-0.001
242.00,0.000
243.00,0.002
244.00,0.001
245.00,0.001
246.00,0.001
247.00,-0.000
248.00,0.001
249.00,0.002
250.00,-0.000
251.00,0.000
252.00,-0.000
253.00,0.002
254.00,-0.000
255.00,0.001
256.00,0.002
257.00,0.001
258.00,0.001
259.00,0.002
260.00,-0.001
261.00,-0.001
262.00,-0.001
263.00,-0.001
264.00,-0.000
265.00,0.003
266.00,-0.001
267.00,0.002
268.00,-0.000
269.00,-0.001
270.00,0.001
271.00,-0.003
272.00,-0.001
273.00,0.001
274.00,0.000
275.00,0.000
276.00,0.000
277.00,0.001
278.00,0.001
279.00,-0.000
280.00,0.001
281.00,0.001
282.00,-0.001
283.00,0.001
284.00,0.001
285.00,0.000
286.00,0.001
287.00,0.000
288.00,-0.000
289.00,-0.000
290.00,-0.002
291.00,-0.000
292.00,0.001
293.00,0.001
294.00,0.000
295.00,0.001
296.00,0.001
297.00,-0.001
298.00,-0.000
299.00,0.001
300.00,-0.000
301.00,-0.000
302.00,0.002
303.00,0.000
304.00,0.000
305.00,0.003
306.00,0.003
307.00,0.005
308.00,0.010
309.00,0.016
310.00,0.026
311.00,0.041
312.00,0.061
313.00,0.097
314.00,0.147
315.00,0.216
316.00,0.312
317.00,0.447
318.00,0.600
319.00,0.811
320.00,1.090
321.00,1.413
322.00,1.810
323.00,2.304
324.00,2.874
325.00,3.471
326.00,4.120
327.00,4.899
328.00,5.636
329.00,6.637
330.00,7.642
331.00,8.612
332.00,9.665
333.00,10.898
334.00,12.040
335.00,13.268
336.00,14.461
337.00,15.743
338.00,16.995
339.00,18.169
340.00,19.411
341.00,20.602
342.00,21.763
343.00,22.887
344.00,23.999
345.00,25.145
346.00,26.123
347.00,27.050
348.00,28.032
349.00,28.850
350.00,29.728
351.00,30.496
352.00,31.186
353.00,31.872
354.00,32.595
355.00,33.287
356.00,33.861
357.00,34.331
358.00,34.961
359.00,35.527
360.00,36.048
361.00,36.341
362.00,36.768
363.00,37.209
364.00,37.419
365.00,37.726
366.00,38.054
367.00,38.177
368.00,38.412
369.00,38.573
370.00,38.811
371.00,38.913
372.00,38.907
373.00,38.961
374.00,39.050
375.00,39.097
376.00,38.843
377.00,38.885
378.00,38.781
379.00,38.679
380.00,38.684
381.00,38.734
382.00,38.843
383.00,38.945
384.00,39.088
385.00,39.265
386.00,39.373
387.00,39.612
388.00,39.881
389.00,39.970
390.00,40.083
391.00,40.218
392.00,40.352
393.00,40.471
394.00,40.541
395.00,40.741
396.00,40.701
397.00,40.827
398.00,40.846
399.00,40.902
400.00,40.986
401.00,40.965
402.00,41.058
403.00,41.023
404.00,41.181
405.00,40.998
406.00,41.040
407.00,41.031
408.00,40.972
409.00,40.869
410.00,40.757
411.00,40.822
412.00,40.709
413.00,40.738
414.00,40.623
415.00,40.656
416.00,40.722
417.00,40.636
418.00,40.709
419.00,40.849
420.00,40.855
421.00,40.803
422.00,40.835
423.00,40.858
424.00,40.960
425.00,40.939
426.00,40.904
427.00,41.041
428.00,41.004
429.00,41.044
430.00,41.059
431.00,41.113
432.00,41.082
433.00,41.080
434.00,41.170
435.00,41.179
436.00,41.174
437.00,41.266
438.00,41.283
439.00,41.300
440.00,41.365
441.00,41.403
442.00,41.450
443.00,41.489
444.00,41.565
445.00,41.585
446.00,41.658
447.00,41.708
448.00,41.846
449.00,41.820
450.00,41.899
451.00,42.025
452.00,41.921
453.00,42.131
454.00,42.149
455.00,42.228
456.00,42.321
457.00,42.394
458.00,42.423
459.00,42.521
460.00,42.677
461.00,42.825
462.00,42.751
463.00,42.878
464.00,43.005
465.00,42.973
466.00,43.090
467.00,43.193
468.00,43.161
469.00,43.218
470.00,43.241
471.00,43.282
472.00,43.336
473.00,43.358
474.00,43.412
475.00,43.525
476.00,43.545
477.00,43.559
478.00,43.599
479.00,43.735
480.00,43.806
481.00,43.875
482.00,43.985
483.00,44.059
484.00,44.144
485.00,44.257
486.00,44.326
487.00,44.451
488.00,44.490
489.00,44.656
490.00,44.732
491.00,44.759
492.00,45.021
493.00,45.041
494.00,44.866
495.00,45.051
496.00,45.136
497.00,45.160
498.00,45.310
499.00,45.361
500.00,45.421
501.00,45.499
502.00,45.577
503.00,45.638
504.00,45.590
505.00,45.652
506.00,45.784
507.00,45.814
508.00,45.874
509.00,46.016
510.00,46.012
511.00,46.021
512.00,46.199
513.00,46.281
514.00,46.325
515.00,46.430
516.00,46.460
517.00,46.506
518.00,46.530
519.00,46.578
520.00,46.608
521.00,46.616
522.00,46.531
523.00,46.605
524.00,46.756
525.00,46.854
526.00,46.861
527.00,46.915
528.00,46.898
529.00,47.154
530.00,47.231
531.00,47.318
532.00,47.274
533.00,47.424
534.00,47.464
535.00,47.415
536.00,47.496
537.00,47.618
538.00,47.589
539.00,47.571
540.00,47.637
541.00,47.556
542.00,47.704
543.00,47.758
544.00,47.845
545.00,47.785
546.00,47.789
547.00,47.936
548.00,47.997
549.00,48.022
550.00,48.084
551.00,48.209
552.00,48.235
553.00,48.177
554.00,48.290
555.00,48.241
556.00,48.228
557.00,48.378
558.00,48.382
559.00,48.321
560.00,48.377
561.00,48.536
562.00,48.509
563.00,48.520
564.00,48.539
565.00,48.490
566.00,48.514
567.00,48.475
568.00,48.462
569.00,48.566
570.00,48.521
571.00,48.596
572.00,48.538
573.00,48.368
574.00,48.375
575.00,48.407
576.00,48.528
577.00,48.641
578.00,48.725
579.00,48.762
580.00,48.810
581.00,48.947
582.00,49.048
583.00,48.972
584.00,49.017
585.00,49.102
586.00,49.156
587.00,49.234
588.00,49.220
589.00,49.098
590.00,49.183
591.00,49.202
592.00,49.072
593.00,49.065
594.00,49.253
595.00,49.316
596.00,49.362
597.00,49.383
598.00,49.420
599.00,49.317
600.00,49.411
601.00,49.337
602.00,49.335
603.00,49.331
604.00,49.390
605.00,49.469
606.00,49.387
607.00,49.364
608.00,49.539
609.00,49.648
610.00,49.373
611.00,49.477
612.00,49.478
613.00,49.557
614.00,49.554
615.00,49.538
616.00,49.685
617.00,49.573
618.00,49.564
619.00,49.603
620.00,49.550
621.00,49.645
622.00,49.665
623.00,49.716
624.00,49.705
625.00,49.718
626.00,49.717
627.00,49.746
628.00,49.740
629.00,49.717
630.00,49.726
631.00,49.704
632.00,49.748
633.00,49.804
634.00,49.887
635.00,49.893
636.00,49.935
637.00,49.849
638.00,49.864
639.00,49.937
640.00,49.874
641.00,49.852
642.00,49.934
643.00,49.950
644.00,50.017
645.00,49.970
646.00,50.091
647.00,50.017
648.00,49.985
649.00,49.985
650.00,50.033
651.00,50.155
652.00,50.156
653.00,50.151
654.00,50.071
655.00,50.271
656.00,50.434
657.00,50.146
658.00,50.125
659.00,50.184
660.00,50.203
661.00,50.244
662.00,50.168
663.00,50.226
664.00,50.419
665.00,50.580
666.00,50.293
667.00,50.405
668.00,50.391
669.00,50.583
670.00,50.689
671.00,50.497
672.00,50.581
673.00,50.479
674.00,50.464
675.00,50.512
676.00,50.703
677.00,50.758
678.00,50.452
679.00,50.647
680.00,50.563
681.00,50.684
682.00,50.603
683.00,50.526
684.00,50.725
685.00,50.697
686.00,50.399
687.00,50.528
688.00,50.540
689.00,50.421
690.00,50.693
691.00,50.841
692.00,50.461
693.00,50.584
694.00,50.667
695.00,50.734
696.00,50.749
697.00,50.605
698.00,50.605
699.00,50.811
700.00,50.780
701.00,50.709
702.00,50.776
703.00,50.965
704.00,50.789
705.00,50.685
706.00,50.622
707.00,50.615
708.00,50.498
709.00,50.882
710.00,51.211
711.00,50.452
712.00,50.453
713.00,50.810
714.00,50.997
715.00,50.662
716.00,50.613
717.00,50.787
718.00,50.861
719.00,50.648
720.00,50.625
721.00,55.531
722.00,55.395
723.00,55.477
724.00,55.373
725.00,55.304
726.00,55.154
727.00,55.195
728.00,55.190
729.00,55.141
730.00,54.990
731.00,54.976
732.00,54.964
733.00,54.988
734.00,54.939
735.00,54.876
736.00,54.836
737.00,54.879
738.00,54.886
739.00,54.891
740.00,54.745
741.00,54.766
742.00,54.651
743.00,54.663
744.00,54.625
745.00,54.519
746.00,54.512
747.00,54.508
748.00,54.460
749.00,54.300
750.00,54.254
751.00,54.213
752.00,54.197
753.00,54.107
754.00,54.110
755.00,54.048
756.00,54.070
757.00,54.032
758.00,54.020
759.00,53.938
760.00,53.897
761.00,53.927
762.00,53.806
763.00,53.838
764.00,53.754
765.00,53.723
766.00,53.679
767.00,53.735
768.00,53.655
769.00,53.579
770.00,53.645
771.00,53.589
772.00,53.518
773.00,53.499
774.00,53.472
775.00,53.397
776.00,53.401
777.00,53.448
778.00,53.340
779.00,53.440
780.00,53.334
781.00,53.275
782.00,53.322
783.00,53.212
784.00,53.225
785.00,53.063
786.00,53.106
787.00,52.995
788.00,53.010
789.00,52.988
790.00,52.943
791.00,52.995
792.00,52.881
793.00,52.786
794.00,52.786
795.00,52.808
796.00,52.799
797.00,52.635
798.00,52.694
799.00,52.652
800.00,52.540
801.00,52.610
802.00,52.436
803.00,52.519
804.00,52.374
805.00,52.375
806.00,52.265
807.00,52.354
808.00,52.375
809.00,52.187
810.00,52.220
811.00,52.233
812.00,52.268
813.00,52.145
814.00,52.153
815.00,52.031
816.00,52.098
817.00,52.010
818.00,51.877
819.00,51.962
820.00,51.849
821.00,51.886
822.00,51.863
823.00,51.813
824.00,51.783
825.00,51.787
826.00,51.794
827.00,51.741
828.00,51.692
829.00,51.747
830.00,51.689
831.00,54.002
832.00,54.011
833.00,53.937
834.00,53.967
835.00,53.877
836.00,53.897
837.00,53.837
838.00,53.805
839.00,53.764
840.00,53.692
841.00,53.712
842.00,53.658
843.00,53.677
844.00,53.621
845.00,53.533
846.00,53.603
847.00,53.520
848.00,53.497
849.00,53.408
850.00,53.421
851.00,53.361
852.00,53.310
853.00,53.285
854.00,53.237
855.00,53.197
856.00,53.165
857.00,53.155
858.00,53.101
859.00,53.078
860.00,53.050
861.00,53.055
862.00,52.985
863.00,52.958
864.00,52.953
865.00,52.968
866.00,52.921
867.00,52.925
868.00,52.895
869.00,52.878
870.00,52.864
871.00,52.813
872.00,52.817
873.00,52.775
874.00,52.805
875.00,52.749
876.00,52.778
877.00,52.707
878.00,52.713
879.00,52.680
880.00,52.656
881.00,52.663
882.00,52.634
883.00,52.597
884.00,52.553
885.00,52.537
886.00,52.497
887.00,52.481
888.00,52.442
889.00,52.434
890.00,52.406
891.00,52.373
892.00,52.370
893.00,52.303
894.00,52.316
895.00,52.304
896.00,52.288
897.00,52.264
898.00,52.229
899.00,52.214
900.00,52.223
901.00,52.170
902.00,52.181
903.00,52.129
904.00,52.099
905.00,52.118
906.00,52.100
907.00,52.028
908.00,52.014
909.00,52.001
910.00,51.938
911.00,51.945
912.00,51.952
913.00,51.907
914.00,51.860
915.00,51.855
916.00,51.841
917.00,51.824
918.00,51.789
919.00,51.761
920.00,51.723
921.00,51.735
922.00,51.704
923.00,51.654
924.00,51.652
925.00,51.621
926.00,51.635
927.00,51.596
928.00,51.564
929.00,51.599
930.00,51.536
931.00,51.539
932.00,51.484
933.00,51.487
934.00,51.461
935.00,51.449
936.00,51.402
937.00,51.394
938.00,51.367
939.00,51.357
940.00,51.322
941.00,51.320
942.00,51.282
943.00,51.273
944.00,51.209
945.00,51.219
946.00,51.210
947.00,51.151
948.00,51.155
949.00,51.126
950.00,51.109
951.00,51.078
952.00,51.053
953.00,51.019
954.00,50.990
955.00,50.959
956.00,50.937
957.00,50.904
958.00,50.921
959.00,50.885
960.00,50.877
961.00,50.863
962.00,50.864
963.00,50.802
964.00,50.801
965.00,50.821
966.00,50.787
967.00,50.775
968.00,50.755
969.00,50.784
970.00,50.763
971.00,50.761
972.00,50.710
973.00,50.755
974.00,50.778
975.00,50.745
976.00,50.764
977.00,50.754
978.00,50.785
979.00,50.709
980.00,50.740
981.00,50.759
982.00,50.705
983.00,50.714
984.00,50.687
985.00,50.714
986.00,50.642
987.00,50.680
988.00,50.638
989.00,50.630
990.00,50.635
991.00,50.615
992.00,50.653
993.00,50.606
994.00,50.584
995.00,50.595
996.00,50.570
997.00,50.553
998.00,50.541
999.00,50.550
1000.00,50.484
1001.00,50.511
1002.00,50.485
1003.00,50.492
1004.00,50.464
1005.00,50.439
1006.00,50.480
1007.00,50.429
1008.00,50.404
1009.00,50.383
1010.00,50.383
1011.00,50.364
1012.00,50.342
1013.00,50.346
1014.00,50.307
1015.00,50.313
1016.00,50.281
1017.00,50.304
1018.00,50.268
1019.00,50.225
1020.00,50.240
1021.00,50.200
1022.00,50.192
1023.00,50.171
1024.00,50.140
1025.00,50.121
1026.00,50.118
1027.00,50.092
1028.00,50.107
1029.00,50.078
1030.00,50.050
1031.00,50.078
1032.00,50.026
1033.00,50.023
1034.00,50.001
1035.00,49.960
1036.00,49.947
1037.00,49.933
1038.00,49.910
1039.00,49.889
1040.00,49.880
1041.00,49.851
1042.00,49.850
1043.00,49.816
1044.00,49.850
1045.00,49.836
1046.00,49.808
1047.00,49.842
1048.00,49.842
1049.00,49.851
1050.00,49.856
1051.00,49.899
1052.00,49.878
1053.00,49.904
1054.00,49.891
1055.00,49.912
1056.00,49.927
1057.00,49.912
1058.00,49.924
1059.00,49.914
1060.00,49.919
1061.00,49.906
1062.00,49.887
1063.00,49.897
1064.00,49.903
1065.00,49.885
1066.00,49.866
1067.00,49.867
1068.00,49.882
1069.00,49.847
1070.00,49.820
1071.00,49.800
1072.00,49.835
1073.00,49.803
1074.00,49.800
1075.00,49.795
1076.00,49.791
1077.00,49.771
1078.00,49.764
1079.00,49.748
1080.00,49.753
1081.00,49.749
1082.00,49.734
1083.00,49.734
1084.00,49.723
1085.00,49.704
1086.00,49.707
1087.00,49.705
1088.00,49.682
1089.00,49.691
1090.00,49.678
1091.00,49.702
1092.00,49.679
1093.00,49.664
1094.00,49.648
1095.00,49.636
1096.00,49.607
1097.00,49.620
1098.00,49.600
1099.00,49.581
1100.00,49.586
1101.00,49.575
1102.00,49.584
1103.00,49.579
1104.00,49.561
1105.00,49.564
1106.00,49.538
1107.00,49.539
1108.00,49.540
1109.00,49.521
1110.00,49.526
1111.00,49.521
1112.00,49.486
1113.00,49.479
1114.00,49.472
1115.00,49.471
1116.00,49.470
1117.00,49.462
1118.00,49.443
1119.00,49.455
1120.00,49.431
1121.00,49.446
1122.00,49.432
1123.00,49.405
1124.00,49.421
1125.00,49.425
1126.00,49.403
1127.00,49.410
1128.00,49.398
1129.00,49.380
1130.00,49.371
1131.00,49.362
1132.00,49.363
1133.00,49.378
1134.00,49.349
1135.00,49.362
1136.00,49.362
1137.00,49.345
1138.00,49.354
1139.00,49.345
1140.00,49.330
1141.00,49.330
1142.00,49.301
1143.00,49.333
1144.00,49.299
1145.00,49.298
1146.00,49.306
1147.00,49.306
1148.00,49.304
1149.00,49.313
1150.00,49.310
1151.00,49.320
1152.00,49.326
1153.00,49.310
1154.00,49.295
1155.00,49.302
1156.00,49.286
1157.00,49.298
1158.00,49.283
1159.00,49.270
1160.00,49.274
1161.00,49.301
1162.00,49.282
1163.00,49.314
1164.00,49.320
1165.00,49.290
1166.00,49.310
1167.00,49.280
1168.00,49.310
1169.00,49.289
1170.00,49.284
1171.00,49.269
1172.00,49.260
1173.00,49.274
1174.00,49.276
1175.00,49.256
1176.00,49.276
1177.00,49.268
1178.00,49.252
1179.00,49.278
1180.00,49.260
1181.00,49.271
1182.00,49.261
1183.00,49.256
1184.00,49.255
1185.00,49.268
1186.00,49.237
1187.00,49.258
1188.00,49.257
1189.00,49.239
1190.00,49.246
1191.00,49.238
1192.00,49.252
1193.00,49.242
1194.00,49.257
1195.00,49.239
1196.00,49.272
1197.00,49.252
1198.00,49.248
1199.00,49.257
1200.00,49.251
1201.00,49.283
1202.00,49.251
1203.00,49.248
1204.00,49.241
1205.00,49.260
1206.00,49.257
1207.00,49.257
1208.00,49.250
1209.00,49.271
1210.00,49.261
1211.00,49.247
1212.00,49.281
1213.00,49.234
1214.00,49.254
1215.00,49.254
1216.00,49.263
1217.00,49.264
1218.00,49.254
1219.00,49.272
1220.00,49.258
1221.00,49.270
1222.00,49.252
1223.00,49.288
1224.00,49.273
1225.00,49.259
1226.00,49.269
1227.00,49.259
1228.00,49.275
1229.00,49.287
1230.00,49.304
1231.00,49.304
1232.00,49.339
1233.00,49.315
1234.00,49.338
1235.00,49.329
1236.00,49.326
1237.00,49.334
1238.00,49.330
1239.00,49.336
1240.00,49.332
1241.00,49.341
1242.00,49.344
1243.00,49.373
1244.00,49.336
1245.00,49.382
1246.00,49.388
1247.00,49.349
1248.00,49.361
1249.00,49.380
1250.00,49.373
1251.00,49.380
1252.00,49.382
1253.00,49.376
1254.00,49.424
1255.00,49.391
1256.00,49.384
1257.00,49.372
1258.00,49.411
1259.00,49.422
1260.00,49.435
1261.00,49.431
1262.00,49.446
1263.00,49.425
1264.00,49.430
1265.00,49.442
1266.00,49.422
1267.00,49.461
1268.00,49.449
1269.00,49.461
1270.00,49.495
1271.00,49.485
1272.00,49.493
1273.00,49.520
1274.00,49.494
1275.00,49.492
1276.00,49.491
1277.00,49.491
1278.00,49.503
1279.00,49.511
1280.00,49.487
1281.00,49.517
1282.00,49.526
1283.00,49.538
1284.00,49.580
1285.00,49.550
1286.00,49.571
1287.00,49.572
1288.00,49.579
1289.00,49.566
1290.00,49.591
1291.00,49.585
1292.00,49.592
1293.00,49.590
1294.00,49.603
1295.00,49.628
1296.00,49.616
1297.00,49.626
1298.00,49.666
1299.00,49.620
1300.00,49.659
1301.00,49.649
1302.00,49.669
1303.00,49.685
1304.00,49.663
1305.00,49.690
1306.00,49.711
1307.00,49.701
1308.00,49.697
1309.00,49.716
1310.00,49.704
1311.00,49.701
1312.00,49.708
1313.00,49.716
1314.00,49.754
1315.00,49.766
1316.00,49.765
1317.00,49.805
1318.00,49.779
1319.00,49.781
1320.00,49.796
1321.00,49.939
1322.00,49.939
1323.00,49.931
1324.00,49.916
1325.00,49.918
1326.00,49.945
1327.00,49.932
1328.00,49.958
1329.00,49.926
1330.00,49.945
1331.00,49.938
1332.00,49.939
1333.00,49.957
1334.00,49.974
1335.00,49.987
1336.00,50.040
1337.00,50.054
1338.00,50.106
1339.00,50.172
1340.00,50.249
1341.00,50.311
1342.00,50.358
1343.00,50.407
1344.00,50.459
1345.00,50.514
1346.00,50.530
1347.00,50.592
1348.00,50.594
1349.00,50.608
1350.00,50.627
1351.00,50.647
1352.00,50.639
1353.00,50.728
1354.00,50.683
1355.00,50.547
1356.00,50.770
1357.00,50.690
1358.00,50.698
1359.00,50.693
1360.00,50.736
1361.00,50.811
1362.00,50.565
1363.00,50.796
1364.00,50.913
1365.00,50.713
1366.00,50.791
1367.00,50.762
1368.00,50.613
1369.00,50.733
1370.00,50.716
1371.00,50.709
1372.00,50.738
1373.00,50.767
1374.00,50.756
1375.00,50.721
1376.00,50.714
1377.00,50.723
1378.00,50.763
1379.00,50.702
1380.00,50.749
1381.00,50.771
1382.00,50.749
1383.00,50.746
1384.00,50.708
1385.00,50.737
1386.00,50.556
1387.00,50.683
1388.00,50.740
1389.00,50.684
1390.00,50.719
1391.00,50.749
1392.00,50.653
1393.00,50.659
1394.00,50.674
1395.00,50.679
1396.00,50.745
1397.00,50.634
1398.00,50.741
1399.00,50.723
1400.00,50.708
1401.00,50.637
1402.00,50.800
1403.00,50.751
1404.00,50.658
1405.00,50.787
1406.00,50.792
1407.00,50.770
1408.00,50.768
1409.00,50.526
1410.00,50.850
1411.00,50.790
1412.00,50.839
1413.00,50.798
1414.00,50.842
1415.00,50.852
1416.00,50.857
1417.00,50.860
1418.00,50.866
1419.00,50.915
1420.00,50.917
1421.00,50.918
1422.00,50.939
1423.00,50.951
1424.00,50.953
1425.00,50.993
1426.00,50.962
1427.00,51.005
1428.00,51.009
1429.00,51.042
1430.00,51.046
1431.00,51.064
1432.00,51.095
1433.00,51.107
1434.00,51.096
1435.00,51.163
1436.00,51.157
1437.00,51.148
1438.00,51.182
1439.00,51.205
1440.00,51.216
1441.00,51.236
1442.00,51.241
1443.00,51.279
1444.00,51.309
1445.00,51.285
1446.00,51.351
1447.00,51.361
1448.00,51.399
1449.00,51.412
1450.00,51.401
1451.00,51.405
1452.00,51.447
1453.00,51.453
1454.00,51.455
1455.00,51.481
1456.00,51.501
1457.00,51.526
1458.00,51.533
1459.00,51.541
1460.00,51.587
1461.00,51.574
1462.00,51.622
1463.00,51.625
1464.00,51.632
1465.00,51.652
1466.00,51.640
1467.00,51.678
1468.00,51.732
1469.00,51.707
1470.00,51.716
1471.00,51.749
1472.00,51.746
1473.00,51.753
1474.00,51.798
1475.00,51.809
1476.00,51.827
1477.00,51.806
1478.00,51.824
1479.00,51.865
1480.00,51.843
1481.00,51.872
1482.00,51.903
1483.00,51.900
1484.00,51.915
1485.00,51.927
1486.00,51.955
1487.00,51.973
1488.00,51.998
1489.00,51.992
1490.00,52.017
1491.00,52.012
1492.00,52.031
1493.00,52.020
1494.00,52.063
1495.00,52.050
1496.00,52.086
1497.00,52.060
1498.00,52.083
1499.00,52.102
1500.00,52.120
1501.00, 
1502.00, 
1503.00, 
1504.00, 
1505.00, 
1506.00, 
1507.00, 
1508.00, 
1509.00, 
1510.00, 
1511.00, 
1512.00, 
1513.00, 
1514.00, 
1515.00, 
1516.00, 
1517.00, 
1518.00, 
1519.00, 
1520.00, 
1521.00, 
1522.00, 
1523.00, 
1524.00, 
1525.00, 
1526.00, 
1527.00, 
1528.00, 
1529.00, 
1530.00, 
1531.00, 
1532.00, 
1533.00, 
1534.00, 
1535.00, 
1536.00, 
1537.00, 
1538.00, 
1539.00, 
1540.00, 
1541.00, 
1542.00, 
1543.00, 
1544.00, 
1545.00, 
1546.00, 
1547.00, 
1548.00, 
1549.00, 
1550.00, 
1551.00, 
1552.00, 
1553.00, 
1554.00, 
1555.00, 
1556.00, 
1557.00, 
1558.00, 
1559.00, 
1560.00, 
1561.00, 
1562.00, 
1563.00, 
1564.00, 
1565.00, 
1566.00, 
1567.00, 
1568.00, 
1569.00, 
1570.00, 
1571.00, 
1572.00, 
1573.00, 
1574.00, 
1575.00, 
1576.00, 
1577.00, 
1578.00, 
1579.00, 
1580.00, 
1581.00, 
1582.00, 
1583.00, 
1584.00, 
1585.00, 
1586.00, 
1587.00, 
1588.00, 
1589.00, 
1590.00, 
1591.00, 
1592.00, 
1593.00, 
1594.00, 
1595.00, 
1596.00, 
1597.00, 
1598.00, 
1599.00, 
1600.00, 
1601.00, 
1602.00, 
1603.00, 
1604.00, 
1605.00, 
1606.00, 
1607.00, 
1608.00, 
1609.00, 
1610.00, 
1611.00, 
1612.00, 
1613.00, 
1614.00, 
1615.00, 
1616.00, 
1617.00, 
1618.00, 
1619.00, 
1620.00, 
1621.00, 
1622.00, 
1623.00, 
1624.00, 
1625.00, 
1626.00, 
1627.00, 
1628.00, 
1629.00, 
1630.00, 
1631.00, 
1632.00, 
1633.00, 
1634.00, 
1635.00, 
1636.00, 
1637.00, 
1638.00, 
1639.00, 
1640.00, 
1641.00, 
1642.00, 
1643.00, 
1644.00, 
1645.00, 
1646.00, 
1647.00, 
1648.00, 
1649.00, 
1650.00, 
1651.00, 
1652.00, 
1653.00, 
1654.00, 
1655.00, 
1656.00, 
1657.00, 
1658.00, 
1659.00, 
1660.00, 
1661.00, 
1662.00, 
1663.00, 
1664.00, 
1665.00, 
1666.00, 
1667.00, 
1668.00, 
1669.00, 
1670.00, 
1671.00, 
1672.00, 
1673.00, 
1674.00, 
1675.00, 
1676.00, 
1677.00, 
1678.00, 
1679.00, 
1680.00, 
1681.00, 
1682.00, 
1683.00, 
1684.00, 
1685.00, 
1686.00, 
1687.00, 
1688.00, 
1689.00, 
1690.00, 
1691.00, 
1692.00, 
1693.00, 
1694.00, 
1695.00, 
1696.00, 
1697.00, 
1698.00, 
1699.00, 
1700.00, 
1701.00, 
1702.00, 
1703.00, 
1704.00, 
1705.00, 
1706.00, 
1707.00, 
1708.00, 
1709.00, 
1710.00, 
1711.00, 
1712.00, 
1713.00, 
1714.00, 
1715.00, 
1716.00, 
1717.00, 
1718.00, 
1719.00, 
1720.00, 
1721.00, 
1722.00, 
1723.00, 
1724.00, 
1725.00, 
1726.00, 
1727.00, 
1728.00, 
1729.00, 
1730.00, 
1731.00, 
1732.00, 
1733.00, 
1734.00, 
1735.00, 
1736.00, 
1737.00, 
1738.00, 
1739.00, 
1740.00, 
1741.00, 
1742.00, 
1743.00, 
1744.00, 
1745.00, 
1746.00, 
1747.00, 
1748.00, 
1749.00, 
1750.00, 
1751.00, 
1752.00, 
1753.00, 
1754.00, 
1755.00, 
1756.00, 
1757.00, 
1758.00, 
1759.00, 
1760.00, 
1761.00, 
1762.00, 
1763.00, 
1764.00, 
1765.00, 
1766.00, 
1767.00, 
1768.00, 
1769.00, 
1770.00, 
1771.00, 
1772.00, 
1773.00, 
1774.00, 
1775.00, 
1776.00, 
1777.00, 
1778.00, 
1779.00, 
1780.00, 
1781.00, 
1782.00, 
1783.00, 
1784.00, 
1785.00, 
1786.00, 
1787.00, 
1788.00, 
1789.00, 
1790.00, 
1791.00, 
1792.00, 
1793.00, 
1794.00, 
1795.00, 
1796.00, 
1797.00, 
1798.00, 
1799.00, 
1800.00, 
1801.00, 
1802.00, 
1803.00, 
1804.00, 
1805.00, 
1806.00, 
1807.00, 
1808.00, 
1809.00, 
1810.00, 
1811.00, 
1812.00, 
1813.00, 
1814.00, 
1815.00, 
1816.00, 
1817.00, 
1818.00, 
1819.00, 
1820.00, 
1821.00, 
1822.00, 
1823.00, 
1824.00, 
1825.00, 
1826.00, 
1827.00, 
1828.00, 
1829.00, 
1830.00, 
1831.00, 
1832.00, 
1833.00, 
1834.00, 
1835.00, 
1836.00, 
1837.00, 
1838.00, 
1839.00, 
1840.00, 
1841.00, 
1842.00, 
1843.00, 
1844.00, 
1845.00, 
1846.00, 
1847.00, 
1848.00, 
1849.00, 
1850.00, 
1851.00, 
1852.00, 
1853.00, 
1854.00, 
1855.00, 
1856.00, 
1857.00, 
1858.00, 
1859.00, 
1860.00, 
1861.00, 
1862.00, 
1863.00, 
1864.00, 
1865.00, 
1866.00, 
1867.00, 
1868.00, 
1869.00, 
1870.00, 
1871.00, 
1872.00, 
1873.00, 
1874.00, 
1875.00, 
1876.00, 
1877.00, 
1878.00, 
1879.00, 
1880.00, 
1881.00, 
1882.00, 
1883.00, 
1884.00, 
1885.00, 
1886.00, 
1887.00, 
1888.00, 
1889.00, 
1890.00, 
1891.00, 
1892.00, 
1893.00, 
1894.00, 
1895.00, 
1896.00, 
1897.00, 
1898.00, 
1899.00, 
1900.00, 
1901.00, 
1902.00, 
1903.00, 
1904.00, 
1905.00, 
1906.00, 
1907.00, 
1908.00, 
1909.00, 
1910.00, 
1911.00, 
1912.00, 
1913.00, 
1914.00, 
1915.00, 
1916.00, 
1917.00, 
1918.00, 
1919.00, 
1920.00, 
1921.00, 
1922.00, 
1923.00, 
1924.00, 
1925.00, 
1926.00, 
1927.00, 
1928.00, 
1929.00, 
1930.00, 
1931.00, 
1932.00, 
1933.00, 
1934.00, 
1935.00, 
1936.00, 
1937.00, 
1938.00, 
1939.00, 
1940.00, 
1941.00, 
1942.00, 
1943.00, 
1944.00, 
1945.00, 
1946.00, 
1947.00, 
1948.00, 
1949.00, 
1950.00, 
1951.00, 
1952.00, 
1953.00, 
1954.00, 
1955.00, 
1956.00, 
1957.00, 
1958.00, 
1959.00, 
1960.00, 
1961.00, 
1962.00, 
1963.00, 
1964.00, 
1965.00, 
1966.00, 
1967.00, 
1968.00, 
1969.00, 
1970.00, 
1971.00, 
1972.00, 
1973.00, 
1974.00, 
1975.00, 
1976.00, 
1977.00, 
1978.00, 
1979.00, 
1980.00, 
1981.00, 
1982.00, 
1983.00, 
1984.00, 
1985.00, 
1986.00, 
1987.00, 
1988.00, 
1989.00, 
1990.00, 
1991.00, 
1992.00, 
1993.00, 
1994.00, 
1995.00, 
1996.00, 
1997.00, 
1998.00, 
1999.00, 
2000.00, 
2001.00, 
2002.00, 
2003.00, 
2004.00, 
2005.00, 
2006.00, 
2007.00, 
2008.00, 
2009.00, 
2010.00, 
2011.00, 
2012.00, 
2013.00, 
2014.00, 
2015.00, 
2016.00, 
2017.00, 
2018.00, 
2019.00, 
2020.00, 
2021.00, 
2022.00, 
2023.00, 
2024.00, 
2025.00, 
2026.00, 
2027.00, 
2028.00, 
2029.00, 
2030.00, 
2031.00, 
2032.00, 
2033.00, 
2034.00, 
2035.00, 
2036.00, 
2037.00, 
2038.00, 
2039.00, 
2040.00, 
2041.00, 
2042.00, 
2043.00, 
2044.00, 
2045.00, 
2046.00, 
2047.00, 
2048.00, 
2049.00, 
2050.00, 
2051.00, 
2052.00, 
2053.00, 
2054.00, 
2055.00, 
2056.00, 
2057.00, 
2058.00, 
2059.00, 
2060.00, 
2061.00, 
2062.00, 
2063.00, 
2064.00, 
2065.00, 
2066.00, 
2067.00, 
2068.00, 
2069.00, 
2070.00, 
2071.00, 
2072.00, 
2073.00, 
2074.00, 
2075.00, 
2076.00, 
2077.00, 
2078.00, 
2079.00, 
2080.00, 
2081.00, 
2082.00, 
2083.00, 
2084.00, 
2085.00, 
2086.00, 
2087.00, 
2088.00, 
2089.00, 
2090.00, 
2091.00, 
2092.00, 
2093.00, 
2094.00, 
2095.00, 
2096.00, 
2097.00, 
2098.00, 
2099.00, 
2100.00, 
2101.00, 
2102.00, 
2103.00, 
2104.00, 
2105.00, 
2106.00, 
2107.00, 
2108.00, 
2109.00, 
2110.00, 
2111.00, 
2112.00, 
2113.00, 
2114.00, 
2115.00, 
2116.00, 
2117.00, 
2118.00, 
2119.00, 
2120.00, 
2121.00, 
2122.00, 
2123.00, 
2124.00, 
2125.00, 
2126.00, 
2127.00, 
2128.00, 
2129.00, 
2130.00, 
2131.00, 
2132.00, 
2133.00, 
2134.00, 
2135.00, 
2136.00, 
2137.00, 
2138.00, 
2139.00, 
2140.00, 
2141.00, 
2142.00, 
2143.00, 
2144.00, 
2145.00, 
2146.00, 
2147.00, 
2148.00, 
2149.00, 
2150.00, 
2151.00, 
2152.00, 
2153.00, 
2154.00, 
2155.00, 
2156.00, 
2157.00, 
2158.00, 
2159.00, 
2160.00, 
2161.00, 
2162.00, 
2163.00, 
2164.00, 
2165.00, 
2166.00, 
2167.00, 
2168.00, 
2169.00, 
2170.00, 
2171.00, 
2172.00, 
2173.00, 
2174.00, 
2175.00, 
2176.00, 
2177.00, 
2178.00, 
2179.00, 
2180.00, 
2181.00, 
2182.00, 
2183.00, 
2184.00, 
2185.00, 
2186.00, 
2187.00, 
2188.00, 
2189.00, 
2190.00, 
2191.00, 
2192.00, 
2193.00, 
2194.00, 
2195.00, 
2196.00, 
2197.00, 
2198.00, 
2199.00, 
2200.00, 
2201.00, 
2202.00, 
2203.00, 
2204.00, 
2205.00, 
2206.00, 
2207.00, 
2208.00, 
2209.00, 
2210.00, 
2211.00, 
2212.00, 
2213.00, 
2214.00, 
2215.00, 
2216.00, 
2217.00, 
2218.00, 
2219.00, 
2220.00, 
2221.00, 
2222.00, 
2223.00, 
2224.00, 
2225.00, 
2226.00, 
2227.00, 
2228.00, 
2229.00, 
2230.00, 
2231.00, 
2232.00, 
2233.00, 
2234.00, 
2235.00, 
2236.00, 
2237.00, 
2238.00, 
2239.00, 
2240.00, 
2241.00, 
2242.00, 
2243.00, 
2244.00, 
2245.00, 
2246.00, 
2247.00, 
2248.00, 
2249.00, 
2250.00, 
2251.00, 
2252.00, 
2253.00, 
2254.00, 
2255.00, 
2256.00, 
2257.00, 
2258.00, 
2259.00, 
2260.00, 
2261.00, 
2262.00, 
2263.00, 
2264.00, 
2265.00, 
2266.00, 
2267.00, 
2268.00, 
2269.00, 
2270.00, 
2271.00, 
2272.00, 
2273.00, 
2274.00, 
2275.00, 
2276.00, 
2277.00, 
2278.00, 
2279.00, 
2280.00, 
2281.00, 
2282.00, 
2283.00, 
2284.00, 
2285.00, 
2286.00, 
2287.00, 
2288.00, 
2289.00, 
2290.00, 
2291.00, 
2292.00, 
2293.00, 
2294.00, 
2295.00, 
2296.00, 
2297.00, 
2298.00, 
2299.00, 
2300.00, 
2301.00, 
2302.00, 
2303.00, 
2304.00, 
2305.00, 
2306.00, 
2307.00, 
2308.00, 
2309.00, 
2310.00, 
2311.00, 
2312.00, 
2313.00, 
2314.00, 
2315.00, 
2316.00, 
2317.00, 
2318.00, 
2319.00, 
2320.00, 
2321.00, 
2322.00, 
2323.00, 
2324.00, 
2325.00, 
2326.00, 
2327.00, 
2328.00, 
2329.00, 
2330.00, 
2331.00, 
2332.00, 
2333.00, 
2334.00, 
2335.00, 
2336.00, 
2337.00, 
2338.00, 
2339.00, 
2340.00, 
2341.00, 
2342.00, 
2343.00, 
2344.00, 
2345.00, 
2346.00, 
2347.00, 
2348.00, 
2349.00, 
2350.00, 
2351.00, 
2352.00, 
2353.00, 
2354.00, 
2355.00, 
2356.00, 
2357.00, 
2358.00, 
2359.00, 
2360.00, 
2361.00, 
2362.00, 
2363.00, 
2364.00, 
2365.00, 
2366.00, 
2367.00, 
2368.00, 
2369.00, 
2370.00, 
2371.00, 
2372.00, 
2373.00, 
2374.00, 
2375.00, 
2376.00, 
2377.00, 
2378.00, 
2379.00, 
2380.00, 
2381.00, 
2382.00, 
2383.00, 
2384.00, 
2385.00, 
2386.00, 
2387.00, 
2388.00, 
2389.00, 
2390.00, 
2391.00, 
2392.00, 
2393.00, 
2394.00, 
2395.00, 
2396.00, 
2397.00, 
2398.00, 
2399.00, 
2400.00, 
2401.00, 
2402.00, 
2403.00, 
2404.00, 
2405.00, 
2406.00, 
2407.00, 
2408.00, 
2409.00, 
2410.00, 
2411.00, 
2412.00, 
2413.00, 
2414.00, 
2415.00, 
2416.00, 
2417.00, 
2418.00, 
2419.00, 
2420.00, 
2421.00, 
2422.00, 
2423.00, 
2424.00, 
2425.00, 
2426.00, 
2427.00, 
2428.00, 
2429.00, 
2430.00, 
2431.00, 
2432.00, 
2433.00, 
2434.00, 
2435.00, 
2436.00, 
2437.00, 
2438.00, 
2439.00, 
2440.00, 
2441.00, 
2442.00, 
2443.00, 
2444.00, 
2445.00, 
2446.00, 
2447.00, 
2448.00, 
2449.00, 
2450.00, 
2451.00, 
2452.00, 
2453.00, 
2454.00, 
2455.00, 
2456.00, 
2457.00, 
2458.00, 
2459.00, 
2460.00, 
2461.00, 
2462.00, 
2463.00, 
2464.00, 
2465.00, 
2466.00, 
2467.00, 
2468.00, 
2469.00, 
2470.00, 
2471.00, 
2472.00, 
2473.00, 
2474.00, 
2475.00, 
2476.00, 
2477.00, 
2478.00, 
2479.00, 
2480.00, 
2481.00, 
2482.00, 
2483.00, 
2484.00, 
2485.00, 
2486.00, 
2487.00, 
2488.00, 
2489.00, 
2490.00, 
2491.00, 
2492.00, 
2493.00, 
2494.00, 
2495.00, 
2496.00, 
2497.00, 
2498.00, 
2499.00, 
2500.00, 
2501.00, 
2502.00, 
2503.00, 
2504.00, 
2505.00, 
2506.00, 
2507.00, 
2508.00, 
2509.00, 
2510.00, 
2511.00, 
2512.00, 
2513.00, 
2514.00, 
2515.00, 
2516.00, 
2517.00, 
2518.00, 
2519.00, 
2520.00, 
2521.00, 
2522.00, 
2523.00, 
2524.00, 
2525.00, 
2526.00, 
2527.00, 
2528.00, 
2529.00, 
2530.00, 
2531.00, 
2532.00, 
2533.00, 
2534.00, 
2535.00, 
2536.00, 
2537.00, 
2538.00, 
2539.00, 
2540.00, 
2541.00, 
2542.00, 
2543.00, 
2544.00, 
2545.00, 
2546.00, 
2547.00, 
2548.00, 
2549.00, 
2550.00, 
2551.00, 
2552.00, 
2553.00, 
2554.00, 
2555.00, 
2556.00, 
2557.00, 
2558.00, 
2559.00, 
2560.00, 
2561.00, 
2562.00, 
2563.00, 
2564.00, 
2565.00, 
2566.00, 
2567.00, 
2568.00, 
2569.00, 
2570.00, 
2571.00, 
2572.00, 
2573.00, 
2574.00, 
2575.00, 
2576.00, 
2577.00, 
2578.00, 
2579.00, 
2580.00, 
2581.00, 
2582.00, 
2583.00, 
2584.00, 
2585.00, 
2586.00, 
2587.00, 
2588.00, 
2589.00, 
2590.00, 
2591.00, 
2592.00, 
2593.00, 
2594.00, 
2595.00, 
2596.00, 
2597.00, 
2598.00, 
2599.00, 
2600.00, 
