"1cP5 - RawData"
"Wavelength nm.","T%"
200.00,0.002
201.00,0.002
202.00,0.000
203.00,0.000
204.00,0.000
205.00,0.000
206.00,0.002
207.00,-0.002
208.00,-0.000
209.00,-0.000
210.00,0.002
211.00,0.002
212.00,0.001
213.00,0.000
214.00,-0.001
215.00,-0.001
216.00,0.001
217.00,-0.003
218.00,-0.000
219.00,0.001
220.00,0.005
221.00,0.003
222.00,0.001
223.00,0.001
224.00,0.000
225.00,0.002
226.00,0.001
227.00,-0.000
228.00,-0.001
229.00,0.003
230.00,-0.000
231.00,0.000
232.00,0.002
233.00,-0.000
234.00,0.001
235.00,0.002
236.00,0.001
237.00,0.001
238.00,-0.000
239.00,0.001
240.00,0.001
241.00,-0.002
242.00,-0.001
243.00,0.000
244.00,0.001
245.00,0.002
246.00,-0.000
247.00,-0.000
248.00,-0.001
249.00,-0.001
250.00,-0.001
251.00,-0.001
252.00,-0.000
253.00,0.001
254.00,0.001
255.00,-0.001
256.00,-0.000
257.00,-0.001
258.00,0.001
259.00,-0.001
260.00,-0.000
261.00,0.000
262.00,-0.001
263.00,0.000
264.00,-0.001
265.00,0.001
266.00,0.001
267.00,0.001
268.00,-0.000
269.00,0.000
270.00,0.000
271.00,-0.001
272.00,0.001
273.00,0.001
274.00,-0.000
275.00,0.001
276.00,-0.000
277.00,-0.000
278.00,0.001
279.00,-0.000
280.00,0.000
281.00,-0.000
282.00,0.000
283.00,-0.002
284.00,-0.000
285.00,0.000
286.00,-0.001
287.00,-0.001
288.00,-0.002
289.00,0.000
290.00,0.002
291.00,0.000
292.00,0.002
293.00,-0.000
294.00,-0.000
295.00,0.000
296.00,-0.000
297.00,0.001
298.00,0.002
299.00,0.001
300.00,-0.000
301.00,-0.001
302.00,0.001
303.00,0.001
304.00,0.001
305.00,0.002
306.00,0.002
307.00,0.003
308.00,0.005
309.00,0.009
310.00,0.018
311.00,0.025
312.00,0.039
313.00,0.059
314.00,0.087
315.00,0.128
316.00,0.189
317.00,0.258
318.00,0.358
319.00,0.483
320.00,0.636
321.00,0.830
322.00,1.057
323.00,1.344
324.00,1.664
325.00,1.994
326.00,2.318
327.00,2.819
328.00,3.311
329.00,3.802
330.00,4.359
331.00,4.912
332.00,5.515
333.00,6.180
334.00,6.821
335.00,7.509
336.00,8.173
337.00,8.876
338.00,9.574
339.00,10.180
340.00,10.854
341.00,11.512
342.00,12.139
343.00,12.737
344.00,13.345
345.00,13.961
346.00,14.475
347.00,14.951
348.00,15.452
349.00,15.872
350.00,16.310
351.00,16.734
352.00,17.064
353.00,17.381
354.00,17.775
355.00,18.018
356.00,18.386
357.00,18.578
358.00,18.906
359.00,19.174
360.00,19.385
361.00,19.487
362.00,19.672
363.00,19.870
364.00,19.929
365.00,20.078
366.00,20.187
367.00,20.251
368.00,20.349
369.00,20.310
370.00,20.450
371.00,20.456
372.00,20.412
373.00,20.410
374.00,20.401
375.00,20.365
376.00,20.252
377.00,20.185
378.00,20.082
379.00,20.003
380.00,19.941
381.00,19.964
382.00,19.949
383.00,19.958
384.00,19.999
385.00,20.074
386.00,20.063
387.00,20.150
388.00,20.222
389.00,20.259
390.00,20.291
391.00,20.337
392.00,20.371
393.00,20.330
394.00,20.400
395.00,20.413
396.00,20.397
397.00,20.435
398.00,20.444
399.00,20.444
400.00,20.429
401.00,20.443
402.00,20.430
403.00,20.421
404.00,20.454
405.00,20.381
406.00,20.355
407.00,20.332
408.00,20.280
409.00,20.239
410.00,20.176
411.00,20.227
412.00,20.171
413.00,20.204
414.00,20.152
415.00,20.153
416.00,20.210
417.00,20.136
418.00,20.195
419.00,20.274
420.00,20.303
421.00,20.331
422.00,20.340
423.00,20.390
424.00,20.418
425.00,20.440
426.00,20.474
427.00,20.542
428.00,20.575
429.00,20.605
430.00,20.647
431.00,20.732
432.00,20.732
433.00,20.765
434.00,20.845
435.00,20.929
436.00,20.962
437.00,21.034
438.00,21.102
439.00,21.148
440.00,21.252
441.00,21.324
442.00,21.381
443.00,21.456
444.00,21.559
445.00,21.643
446.00,21.741
447.00,21.835
448.00,21.966
449.00,22.062
450.00,22.165
451.00,22.253
452.00,22.354
453.00,22.484
454.00,22.571
455.00,22.697
456.00,22.825
457.00,22.924
458.00,23.018
459.00,23.184
460.00,23.318
461.00,23.477
462.00,23.523
463.00,23.672
464.00,23.831
465.00,23.946
466.00,24.042
467.00,24.205
468.00,24.322
469.00,24.384
470.00,24.534
471.00,24.650
472.00,24.783
473.00,24.873
474.00,24.999
475.00,25.145
476.00,25.275
477.00,25.378
478.00,25.488
479.00,25.660
480.00,25.793
481.00,25.948
482.00,26.105
483.00,26.240
484.00,26.418
485.00,26.559
486.00,26.700
487.00,26.873
488.00,27.003
489.00,27.169
490.00,27.302
491.00,27.443
492.00,27.718
493.00,27.829
494.00,27.862
495.00,28.047
496.00,28.140
497.00,28.231
498.00,28.396
499.00,28.526
500.00,28.658
501.00,28.811
502.00,28.910
503.00,29.025
504.00,29.149
505.00,29.241
506.00,29.431
507.00,29.545
508.00,29.625
509.00,29.774
510.00,29.923
511.00,29.941
512.00,30.210
513.00,30.317
514.00,30.458
515.00,30.603
516.00,30.689
517.00,30.799
518.00,30.931
519.00,30.999
520.00,31.071
521.00,31.189
522.00,31.299
523.00,31.322
524.00,31.437
525.00,31.588
526.00,31.673
527.00,31.771
528.00,31.833
529.00,32.040
530.00,32.117
531.00,32.275
532.00,32.315
533.00,32.420
534.00,32.514
535.00,32.597
536.00,32.676
537.00,32.781
538.00,32.858
539.00,32.891
540.00,33.032
541.00,33.047
542.00,33.076
543.00,33.152
544.00,33.239
545.00,33.327
546.00,33.314
547.00,33.489
548.00,33.553
549.00,33.574
550.00,33.692
551.00,33.829
552.00,33.808
553.00,33.811
554.00,33.985
555.00,34.031
556.00,34.087
557.00,34.162
558.00,34.240
559.00,34.318
560.00,34.363
561.00,34.435
562.00,34.497
563.00,34.507
564.00,34.572
565.00,34.603
566.00,34.655
567.00,34.660
568.00,34.735
569.00,34.808
570.00,34.804
571.00,34.885
572.00,34.901
573.00,34.904
574.00,34.918
575.00,34.924
576.00,34.937
577.00,35.016
578.00,35.090
579.00,35.212
580.00,35.202
581.00,35.324
582.00,35.426
583.00,35.430
584.00,35.508
585.00,35.551
586.00,35.661
587.00,35.690
588.00,35.740
589.00,35.675
590.00,35.765
591.00,35.780
592.00,35.789
593.00,35.793
594.00,35.897
595.00,36.000
596.00,36.049
597.00,36.003
598.00,36.125
599.00,36.109
600.00,36.188
601.00,36.238
602.00,36.310
603.00,36.273
604.00,36.338
605.00,36.397
606.00,36.423
607.00,36.452
608.00,36.653
609.00,36.732
610.00,36.537
611.00,36.651
612.00,36.677
613.00,36.742
614.00,36.790
615.00,36.871
616.00,36.967
617.00,36.952
618.00,37.000
619.00,37.066
620.00,37.083
621.00,37.154
622.00,37.221
623.00,37.332
624.00,37.384
625.00,37.443
626.00,37.514
627.00,37.581
628.00,37.561
629.00,37.595
630.00,37.693
631.00,37.732
632.00,37.773
633.00,37.958
634.00,38.019
635.00,38.064
636.00,38.198
637.00,38.205
638.00,38.226
639.00,38.326
640.00,38.413
641.00,38.467
642.00,38.576
643.00,38.620
644.00,38.741
645.00,38.770
646.00,38.944
647.00,39.034
648.00,39.031
649.00,39.090
650.00,39.132
651.00,39.274
652.00,39.422
653.00,39.458
654.00,39.458
655.00,39.622
656.00,39.881
657.00,39.858
658.00,39.943
659.00,39.978
660.00,40.094
661.00,40.137
662.00,40.147
663.00,40.303
664.00,40.526
665.00,40.739
666.00,40.697
667.00,40.782
668.00,40.741
669.00,41.057
670.00,41.309
671.00,41.151
672.00,41.241
673.00,41.262
674.00,41.238
675.00,41.518
676.00,41.924
677.00,41.921
678.00,41.642
679.00,41.958
680.00,41.929
681.00,42.095
682.00,42.170
683.00,42.274
684.00,42.374
685.00,42.354
686.00,42.458
687.00,42.692
688.00,42.770
689.00,42.845
690.00,43.040
691.00,43.340
692.00,43.051
693.00,43.087
694.00,43.280
695.00,43.436
696.00,43.600
697.00,43.575
698.00,43.623
699.00,43.845
700.00,43.988
701.00,43.941
702.00,44.154
703.00,44.340
704.00,44.281
705.00,44.293
706.00,44.416
707.00,44.468
708.00,44.383
709.00,44.745
710.00,45.183
711.00,44.675
712.00,44.772
713.00,44.972
714.00,45.038
715.00,45.054
716.00,45.024
717.00,45.368
718.00,45.414
719.00,45.391
720.00,45.412
721.00,49.917
722.00,49.857
723.00,49.994
724.00,49.934
725.00,50.025
726.00,49.997
727.00,50.074
728.00,50.148
729.00,50.160
730.00,50.233
731.00,50.212
732.00,50.215
733.00,50.277
734.00,50.369
735.00,50.416
736.00,50.392
737.00,50.491
738.00,50.574
739.00,50.577
740.00,50.547
741.00,50.612
742.00,50.639
743.00,50.680
744.00,50.643
745.00,50.716
746.00,50.697
747.00,50.777
748.00,50.753
749.00,50.730
750.00,50.741
751.00,50.728
752.00,50.768
753.00,50.791
754.00,50.802
755.00,50.810
756.00,50.875
757.00,50.734
758.00,50.887
759.00,50.881
760.00,50.889
761.00,51.029
762.00,50.957
763.00,51.047
764.00,51.019
765.00,51.016
766.00,51.003
767.00,51.071
768.00,51.074
769.00,51.079
770.00,51.120
771.00,51.111
772.00,51.121
773.00,51.155
774.00,51.045
775.00,51.194
776.00,51.064
777.00,51.182
778.00,51.162
779.00,51.309
780.00,51.189
781.00,51.183
782.00,51.247
783.00,51.193
784.00,51.236
785.00,51.138
786.00,51.195
787.00,51.188
788.00,51.127
789.00,51.128
790.00,51.130
791.00,51.245
792.00,51.149
793.00,51.126
794.00,51.129
795.00,51.123
796.00,51.183
797.00,51.032
798.00,51.097
799.00,51.080
800.00,51.029
801.00,51.102
802.00,51.029
803.00,51.130
804.00,51.016
805.00,51.057
806.00,51.015
807.00,50.958
808.00,51.019
809.00,50.962
810.00,50.965
811.00,51.021
812.00,50.986
813.00,50.915
814.00,50.971
815.00,50.882
816.00,50.912
817.00,50.887
818.00,50.764
819.00,50.835
820.00,50.761
821.00,50.859
822.00,50.871
823.00,50.817
824.00,50.807
825.00,50.776
826.00,50.816
827.00,50.778
828.00,50.834
829.00,50.762
830.00,50.744
831.00,53.104
832.00,53.096
833.00,53.070
834.00,53.070
835.00,52.997
836.00,53.032
837.00,52.996
838.00,52.992
839.00,52.959
840.00,52.901
841.00,52.938
842.00,52.895
843.00,52.908
844.00,52.890
845.00,52.813
846.00,53.008
847.00,52.842
848.00,52.851
849.00,52.761
850.00,52.766
851.00,52.704
852.00,52.698
853.00,52.673
854.00,52.653
855.00,52.593
856.00,52.576
857.00,52.580
858.00,52.535
859.00,52.522
860.00,52.499
861.00,52.508
862.00,52.490
863.00,52.460
864.00,52.439
865.00,52.458
866.00,52.443
867.00,52.432
868.00,52.417
869.00,52.385
870.00,52.421
871.00,52.382
872.00,52.372
873.00,52.375
874.00,52.390
875.00,52.329
876.00,52.377
877.00,52.333
878.00,52.326
879.00,52.280
880.00,52.277
881.00,52.261
882.00,52.270
883.00,52.225
884.00,52.185
885.00,52.220
886.00,52.159
887.00,52.205
888.00,52.114
889.00,52.126
890.00,52.099
891.00,52.091
892.00,52.074
893.00,52.033
894.00,52.036
895.00,52.031
896.00,51.996
897.00,52.005
898.00,51.957
899.00,51.973
900.00,51.962
901.00,51.947
902.00,51.949
903.00,51.921
904.00,51.896
905.00,51.878
906.00,51.880
907.00,51.844
908.00,51.813
909.00,51.800
910.00,51.756
911.00,51.776
912.00,51.759
913.00,51.714
914.00,51.673
915.00,51.659
916.00,51.672
917.00,51.638
918.00,51.587
919.00,51.677
920.00,51.530
921.00,51.547
922.00,51.530
923.00,51.483
924.00,51.493
925.00,51.469
926.00,51.477
927.00,51.440
928.00,51.425
929.00,51.437
930.00,51.411
931.00,51.401
932.00,51.340
933.00,51.351
934.00,51.330
935.00,51.304
936.00,51.283
937.00,51.269
938.00,51.255
939.00,51.247
940.00,51.229
941.00,51.227
942.00,51.183
943.00,51.171
944.00,51.128
945.00,51.153
946.00,51.138
947.00,51.090
948.00,51.083
949.00,51.069
950.00,51.043
951.00,51.031
952.00,51.013
953.00,50.952
954.00,50.926
955.00,50.886
956.00,50.880
957.00,50.866
958.00,50.875
959.00,50.824
960.00,50.822
961.00,50.830
962.00,50.829
963.00,50.784
964.00,50.790
965.00,50.861
966.00,50.764
967.00,50.741
968.00,50.728
969.00,50.734
970.00,50.727
971.00,50.739
972.00,50.687
973.00,50.735
974.00,50.759
975.00,50.716
976.00,50.727
977.00,50.720
978.00,50.747
979.00,50.678
980.00,50.728
981.00,50.728
982.00,50.698
983.00,50.713
984.00,50.690
985.00,50.710
986.00,50.656
987.00,50.706
988.00,50.671
989.00,50.655
990.00,50.652
991.00,50.627
992.00,50.646
993.00,50.609
994.00,50.589
995.00,50.583
996.00,50.578
997.00,50.559
998.00,50.541
999.00,50.567
1000.00,50.476
1001.00,50.504
1002.00,50.495
1003.00,50.493
1004.00,50.460
1005.00,50.444
1006.00,50.474
1007.00,50.433
1008.00,50.420
1009.00,50.397
1010.00,50.407
1011.00,50.384
1012.00,50.364
1013.00,50.375
1014.00,50.333
1015.00,50.351
1016.00,50.314
1017.00,50.330
1018.00,50.311
1019.00,50.260
1020.00,50.265
1021.00,50.232
1022.00,50.232
1023.00,50.222
1024.00,50.193
1025.00,50.159
1026.00,50.174
1027.00,50.151
1028.00,50.161
1029.00,50.147
1030.00,50.109
1031.00,50.129
1032.00,50.073
1033.00,50.068
1034.00,50.039
1035.00,49.997
1036.00,49.978
1037.00,49.975
1038.00,49.966
1039.00,49.939
1040.00,49.939
1041.00,49.916
1042.00,49.903
1043.00,49.872
1044.00,49.903
1045.00,49.901
1046.00,49.883
1047.00,49.903
1048.00,49.917
1049.00,49.927
1050.00,49.917
1051.00,49.980
1052.00,49.949
1053.00,49.963
1054.00,49.977
1055.00,49.977
1056.00,50.003
1057.00,49.992
1058.00,49.983
1059.00,49.972
1060.00,49.985
1061.00,49.968
1062.00,49.965
1063.00,49.957
1064.00,49.957
1065.00,49.942
1066.00,49.914
1067.00,49.922
1068.00,49.941
1069.00,49.905
1070.00,49.883
1071.00,49.874
1072.00,49.907
1073.00,49.885
1074.00,49.885
1075.00,49.864
1076.00,49.870
1077.00,49.848
1078.00,49.840
1079.00,49.826
1080.00,49.821
1081.00,49.813
1082.00,49.802
1083.00,49.798
1084.00,49.806
1085.00,49.797
1086.00,49.805
1087.00,49.814
1088.00,49.773
1089.00,49.773
1090.00,49.765
1091.00,49.772
1092.00,49.757
1093.00,49.736
1094.00,49.706
1095.00,49.710
1096.00,49.687
1097.00,49.698
1098.00,49.687
1099.00,49.678
1100.00,49.676
1101.00,49.674
1102.00,49.668
1103.00,49.647
1104.00,49.635
1105.00,49.636
1106.00,49.624
1107.00,49.603
1108.00,49.602
1109.00,49.594
1110.00,49.579
1111.00,49.585
1112.00,49.572
1113.00,49.570
1114.00,49.564
1115.00,49.572
1116.00,49.569
1117.00,49.554
1118.00,49.531
1119.00,49.538
1120.00,49.534
1121.00,49.539
1122.00,49.520
1123.00,49.504
1124.00,49.504
1125.00,49.491
1126.00,49.475
1127.00,49.480
1128.00,49.466
1129.00,49.447
1130.00,49.444
1131.00,49.439
1132.00,49.434
1133.00,49.445
1134.00,49.422
1135.00,49.423
1136.00,49.421
1137.00,49.414
1138.00,49.410
1139.00,49.420
1140.00,49.405
1141.00,49.401
1142.00,49.390
1143.00,49.403
1144.00,49.389
1145.00,49.382
1146.00,49.388
1147.00,49.383
1148.00,49.371
1149.00,49.397
1150.00,49.397
1151.00,49.389
1152.00,49.385
1153.00,49.381
1154.00,49.357
1155.00,49.370
1156.00,49.355
1157.00,49.369
1158.00,49.359
1159.00,49.359
1160.00,49.363
1161.00,49.379
1162.00,49.366
1163.00,49.369
1164.00,49.358
1165.00,49.338
1166.00,49.358
1167.00,49.348
1168.00,49.376
1169.00,49.349
1170.00,49.359
1171.00,49.347
1172.00,49.345
1173.00,49.329
1174.00,49.334
1175.00,49.333
1176.00,49.325
1177.00,49.341
1178.00,49.348
1179.00,49.365
1180.00,49.355
1181.00,49.365
1182.00,49.357
1183.00,49.360
1184.00,49.352
1185.00,49.361
1186.00,49.330
1187.00,49.339
1188.00,49.344
1189.00,49.347
1190.00,49.334
1191.00,49.318
1192.00,49.345
1193.00,49.330
1194.00,49.349
1195.00,49.325
1196.00,49.355
1197.00,49.342
1198.00,49.333
1199.00,49.340
1200.00,49.343
1201.00,49.355
1202.00,49.324
1203.00,49.337
1204.00,49.318
1205.00,49.344
1206.00,49.334
1207.00,49.335
1208.00,49.326
1209.00,49.331
1210.00,49.345
1211.00,49.344
1212.00,49.367
1213.00,49.333
1214.00,49.360
1215.00,49.326
1216.00,49.341
1217.00,49.350
1218.00,49.341
1219.00,49.361
1220.00,49.346
1221.00,49.365
1222.00,49.335
1223.00,49.358
1224.00,49.355
1225.00,49.344
1226.00,49.345
1227.00,49.349
1228.00,49.350
1229.00,49.356
1230.00,49.371
1231.00,49.354
1232.00,49.381
1233.00,49.374
1234.00,49.387
1235.00,49.381
1236.00,49.390
1237.00,49.407
1238.00,49.394
1239.00,49.411
1240.00,49.422
1241.00,49.419
1242.00,49.421
1243.00,49.438
1244.00,49.409
1245.00,49.457
1246.00,49.464
1247.00,49.464
1248.00,49.462
1249.00,49.471
1250.00,49.469
1251.00,49.461
1252.00,49.476
1253.00,49.450
1254.00,49.494
1255.00,49.477
1256.00,49.446
1257.00,49.459
1258.00,49.501
1259.00,49.492
1260.00,49.507
1261.00,49.499
1262.00,49.520
1263.00,49.508
1264.00,49.496
1265.00,49.503
1266.00,49.507
1267.00,49.534
1268.00,49.529
1269.00,49.540
1270.00,49.563
1271.00,49.580
1272.00,49.573
1273.00,49.594
1274.00,49.583
1275.00,49.585
1276.00,49.579
1277.00,49.584
1278.00,49.602
1279.00,49.605
1280.00,49.595
1281.00,49.611
1282.00,49.619
1283.00,49.610
1284.00,49.626
1285.00,49.615
1286.00,49.640
1287.00,49.641
1288.00,49.635
1289.00,49.630
1290.00,49.662
1291.00,49.646
1292.00,49.649
1293.00,49.665
1294.00,49.679
1295.00,49.691
1296.00,49.678
1297.00,49.679
1298.00,49.735
1299.00,49.703
1300.00,49.725
1301.00,49.719
1302.00,49.754
1303.00,49.748
1304.00,49.732
1305.00,49.760
1306.00,49.770
1307.00,49.770
1308.00,49.771
1309.00,49.795
1310.00,49.784
1311.00,49.779
1312.00,49.797
1313.00,49.802
1314.00,49.819
1315.00,49.837
1316.00,49.844
1317.00,49.875
1318.00,49.881
1319.00,49.876
1320.00,49.885
1321.00,50.020
1322.00,50.001
1323.00,50.002
1324.00,49.996
1325.00,49.980
1326.00,50.004
1327.00,49.995
1328.00,50.012
1329.00,49.995
1330.00,50.007
1331.00,50.012
1332.00,50.020
1333.00,50.006
1334.00,50.056
1335.00,50.070
1336.00,50.105
1337.00,50.119
1338.00,50.198
1339.00,50.229
1340.00,50.285
1341.00,50.347
1342.00,50.421
1343.00,50.493
1344.00,50.511
1345.00,50.581
1346.00,50.616
1347.00,50.657
1348.00,50.669
1349.00,50.705
1350.00,50.706
1351.00,50.737
1352.00,50.724
1353.00,50.803
1354.00,50.764
1355.00,50.698
1356.00,50.793
1357.00,50.756
1358.00,50.743
1359.00,50.737
1360.00,50.794
1361.00,50.897
1362.00,50.691
1363.00,50.856
1364.00,50.936
1365.00,50.774
1366.00,50.858
1367.00,50.841
1368.00,50.663
1369.00,50.802
1370.00,50.800
1371.00,50.749
1372.00,50.790
1373.00,50.834
1374.00,50.803
1375.00,50.771
1376.00,50.768
1377.00,50.765
1378.00,50.816
1379.00,50.818
1380.00,50.833
1381.00,50.846
1382.00,50.815
1383.00,50.829
1384.00,50.771
1385.00,50.768
1386.00,50.808
1387.00,50.751
1388.00,50.763
1389.00,50.728
1390.00,50.785
1391.00,50.841
1392.00,50.735
1393.00,50.742
1394.00,50.757
1395.00,50.818
1396.00,50.839
1397.00,50.735
1398.00,50.776
1399.00,50.739
1400.00,50.813
1401.00,50.741
1402.00,50.836
1403.00,50.820
1404.00,50.692
1405.00,50.822
1406.00,50.860
1407.00,50.830
1408.00,50.833
1409.00,50.649
1410.00,50.889
1411.00,50.848
1412.00,50.924
1413.00,50.887
1414.00,50.886
1415.00,50.901
1416.00,50.951
1417.00,50.977
1418.00,50.946
1419.00,50.962
1420.00,50.972
1421.00,51.018
1422.00,50.980
1423.00,51.016
1424.00,51.030
1425.00,51.048
1426.00,51.065
1427.00,51.079
1428.00,51.114
1429.00,51.165
1430.00,51.149
1431.00,51.182
1432.00,51.157
1433.00,51.167
1434.00,51.175
1435.00,51.234
1436.00,51.231
1437.00,51.233
1438.00,51.259
1439.00,51.289
1440.00,51.296
1441.00,51.314
1442.00,51.320
1443.00,51.325
1444.00,51.404
1445.00,51.348
1446.00,51.378
1447.00,51.412
1448.00,51.454
1449.00,51.470
1450.00,51.472
1451.00,51.472
1452.00,51.500
1453.00,51.514
1454.00,51.536
1455.00,51.557
1456.00,51.571
1457.00,51.591
1458.00,51.611
1459.00,51.621
1460.00,51.649
1461.00,51.630
1462.00,51.674
1463.00,51.680
1464.00,51.702
1465.00,51.712
1466.00,51.719
1467.00,51.742
1468.00,51.814
1469.00,51.792
1470.00,51.810
1471.00,51.847
1472.00,51.840
1473.00,51.851
1474.00,51.887
1475.00,51.900
1476.00,51.922
1477.00,51.882
1478.00,51.909
1479.00,51.943
1480.00,51.937
1481.00,51.961
1482.00,51.995
1483.00,52.007
1484.00,52.024
1485.00,52.021
1486.00,52.044
1487.00,52.060
1488.00,52.069
1489.00,52.063
1490.00,52.087
1491.00,52.084
1492.00,52.125
1493.00,52.102
1494.00,52.160
1495.00,52.140
1496.00,52.156
1497.00,52.138
1498.00,52.157
1499.00,52.177
1500.00,52.188
1501.00, 
1502.00, 
1503.00, 
1504.00, 
1505.00, 
1506.00, 
1507.00, 
1508.00, 
1509.00, 
1510.00, 
1511.00, 
1512.00, 
1513.00, 
1514.00, 
1515.00, 
1516.00, 
1517.00, 
1518.00, 
1519.00, 
1520.00, 
1521.00, 
1522.00, 
1523.00, 
1524.00, 
1525.00, 
1526.00, 
1527.00, 
1528.00, 
1529.00, 
1530.00, 
1531.00, 
1532.00, 
1533.00, 
1534.00, 
1535.00, 
1536.00, 
1537.00, 
1538.00, 
1539.00, 
1540.00, 
1541.00, 
1542.00, 
1543.00, 
1544.00, 
1545.00, 
1546.00, 
1547.00, 
1548.00, 
1549.00, 
1550.00, 
1551.00, 
1552.00, 
1553.00, 
1554.00, 
1555.00, 
1556.00, 
1557.00, 
1558.00, 
1559.00, 
1560.00, 
1561.00, 
1562.00, 
1563.00, 
1564.00, 
1565.00, 
1566.00, 
1567.00, 
1568.00, 
1569.00, 
1570.00, 
1571.00, 
1572.00, 
1573.00, 
1574.00, 
1575.00, 
1576.00, 
1577.00, 
1578.00, 
1579.00, 
1580.00, 
1581.00, 
1582.00, 
1583.00, 
1584.00, 
1585.00, 
1586.00, 
1587.00, 
1588.00, 
1589.00, 
1590.00, 
1591.00, 
1592.00, 
1593.00, 
1594.00, 
1595.00, 
1596.00, 
1597.00, 
1598.00, 
1599.00, 
1600.00, 
1601.00, 
1602.00, 
1603.00, 
1604.00, 
1605.00, 
1606.00, 
1607.00, 
1608.00, 
1609.00, 
1610.00, 
1611.00, 
1612.00, 
1613.00, 
1614.00, 
1615.00, 
1616.00, 
1617.00, 
1618.00, 
1619.00, 
1620.00, 
1621.00, 
1622.00, 
1623.00, 
1624.00, 
1625.00, 
1626.00, 
1627.00, 
1628.00, 
1629.00, 
1630.00, 
1631.00, 
1632.00, 
1633.00, 
1634.00, 
1635.00, 
1636.00, 
1637.00, 
1638.00, 
1639.00, 
1640.00, 
1641.00, 
1642.00, 
1643.00, 
1644.00, 
1645.00, 
1646.00, 
1647.00, 
1648.00, 
1649.00, 
1650.00, 
1651.00, 
1652.00, 
1653.00, 
1654.00, 
1655.00, 
1656.00, 
1657.00, 
1658.00, 
1659.00, 
1660.00, 
1661.00, 
1662.00, 
1663.00, 
1664.00, 
1665.00, 
1666.00, 
1667.00, 
1668.00, 
1669.00, 
1670.00, 
1671.00, 
1672.00, 
1673.00, 
1674.00, 
1675.00, 
1676.00, 
1677.00, 
1678.00, 
1679.00, 
1680.00, 
1681.00, 
1682.00, 
1683.00, 
1684.00, 
1685.00, 
1686.00, 
1687.00, 
1688.00, 
1689.00, 
1690.00, 
1691.00, 
1692.00, 
1693.00, 
1694.00, 
1695.00, 
1696.00, 
1697.00, 
1698.00, 
1699.00, 
1700.00, 
1701.00, 
1702.00, 
1703.00, 
1704.00, 
1705.00, 
1706.00, 
1707.00, 
1708.00, 
1709.00, 
1710.00, 
1711.00, 
1712.00, 
1713.00, 
1714.00, 
1715.00, 
1716.00, 
1717.00, 
1718.00, 
1719.00, 
1720.00, 
1721.00, 
1722.00, 
1723.00, 
1724.00, 
1725.00, 
1726.00, 
1727.00, 
1728.00, 
1729.00, 
1730.00, 
1731.00, 
1732.00, 
1733.00, 
1734.00, 
1735.00, 
1736.00, 
1737.00, 
1738.00, 
1739.00, 
1740.00, 
1741.00, 
1742.00, 
1743.00, 
1744.00, 
1745.00, 
1746.00, 
1747.00, 
1748.00, 
1749.00, 
1750.00, 
1751.00, 
1752.00, 
1753.00, 
1754.00, 
1755.00, 
1756.00, 
1757.00, 
1758.00, 
1759.00, 
1760.00, 
1761.00, 
1762.00, 
1763.00, 
1764.00, 
1765.00, 
1766.00, 
1767.00, 
1768.00, 
1769.00, 
1770.00, 
1771.00, 
1772.00, 
1773.00, 
1774.00, 
1775.00, 
1776.00, 
1777.00, 
1778.00, 
1779.00, 
1780.00, 
1781.00, 
1782.00, 
1783.00, 
1784.00, 
1785.00, 
1786.00, 
1787.00, 
1788.00, 
1789.00, 
1790.00, 
1791.00, 
1792.00, 
1793.00, 
1794.00, 
1795.00, 
1796.00, 
1797.00, 
1798.00, 
1799.00, 
1800.00, 
1801.00, 
1802.00, 
1803.00, 
1804.00, 
1805.00, 
1806.00, 
1807.00, 
1808.00, 
1809.00, 
1810.00, 
1811.00, 
1812.00, 
1813.00, 
1814.00, 
1815.00, 
1816.00, 
1817.00, 
1818.00, 
1819.00, 
1820.00, 
1821.00, 
1822.00, 
1823.00, 
1824.00, 
1825.00, 
1826.00, 
1827.00, 
1828.00, 
1829.00, 
1830.00, 
1831.00, 
1832.00, 
1833.00, 
1834.00, 
1835.00, 
1836.00, 
1837.00, 
1838.00, 
1839.00, 
1840.00, 
1841.00, 
1842.00, 
1843.00, 
1844.00, 
1845.00, 
1846.00, 
1847.00, 
1848.00, 
1849.00, 
1850.00, 
1851.00, 
1852.00, 
1853.00, 
1854.00, 
1855.00, 
1856.00, 
1857.00, 
1858.00, 
1859.00, 
1860.00, 
1861.00, 
1862.00, 
1863.00, 
1864.00, 
1865.00, 
1866.00, 
1867.00, 
1868.00, 
1869.00, 
1870.00, 
1871.00, 
1872.00, 
1873.00, 
1874.00, 
1875.00, 
1876.00, 
1877.00, 
1878.00, 
1879.00, 
1880.00, 
1881.00, 
1882.00, 
1883.00, 
1884.00, 
1885.00, 
1886.00, 
1887.00, 
1888.00, 
1889.00, 
1890.00, 
1891.00, 
1892.00, 
1893.00, 
1894.00, 
1895.00, 
1896.00, 
1897.00, 
1898.00, 
1899.00, 
1900.00, 
1901.00, 
1902.00, 
1903.00, 
1904.00, 
1905.00, 
1906.00, 
1907.00, 
1908.00, 
1909.00, 
1910.00, 
1911.00, 
1912.00, 
1913.00, 
1914.00, 
1915.00, 
1916.00, 
1917.00, 
1918.00, 
1919.00, 
1920.00, 
1921.00, 
1922.00, 
1923.00, 
1924.00, 
1925.00, 
1926.00, 
1927.00, 
1928.00, 
1929.00, 
1930.00, 
1931.00, 
1932.00, 
1933.00, 
1934.00, 
1935.00, 
1936.00, 
1937.00, 
1938.00, 
1939.00, 
1940.00, 
1941.00, 
1942.00, 
1943.00, 
1944.00, 
1945.00, 
1946.00, 
1947.00, 
1948.00, 
1949.00, 
1950.00, 
1951.00, 
1952.00, 
1953.00, 
1954.00, 
1955.00, 
1956.00, 
1957.00, 
1958.00, 
1959.00, 
1960.00, 
1961.00, 
1962.00, 
1963.00, 
1964.00, 
1965.00, 
1966.00, 
1967.00, 
1968.00, 
1969.00, 
1970.00, 
1971.00, 
1972.00, 
1973.00, 
1974.00, 
1975.00, 
1976.00, 
1977.00, 
1978.00, 
1979.00, 
1980.00, 
1981.00, 
1982.00, 
1983.00, 
1984.00, 
1985.00, 
1986.00, 
1987.00, 
1988.00, 
1989.00, 
1990.00, 
1991.00, 
1992.00, 
1993.00, 
1994.00, 
1995.00, 
1996.00, 
1997.00, 
1998.00, 
1999.00, 
2000.00, 
2001.00, 
2002.00, 
2003.00, 
2004.00, 
2005.00, 
2006.00, 
2007.00, 
2008.00, 
2009.00, 
2010.00, 
2011.00, 
2012.00, 
2013.00, 
2014.00, 
2015.00, 
2016.00, 
2017.00, 
2018.00, 
2019.00, 
2020.00, 
2021.00, 
2022.00, 
2023.00, 
2024.00, 
2025.00, 
2026.00, 
2027.00, 
2028.00, 
2029.00, 
2030.00, 
2031.00, 
2032.00, 
2033.00, 
2034.00, 
2035.00, 
2036.00, 
2037.00, 
2038.00, 
2039.00, 
2040.00, 
2041.00, 
2042.00, 
2043.00, 
2044.00, 
2045.00, 
2046.00, 
2047.00, 
2048.00, 
2049.00, 
2050.00, 
2051.00, 
2052.00, 
2053.00, 
2054.00, 
2055.00, 
2056.00, 
2057.00, 
2058.00, 
2059.00, 
2060.00, 
2061.00, 
2062.00, 
2063.00, 
2064.00, 
2065.00, 
2066.00, 
2067.00, 
2068.00, 
2069.00, 
2070.00, 
2071.00, 
2072.00, 
2073.00, 
2074.00, 
2075.00, 
2076.00, 
2077.00, 
2078.00, 
2079.00, 
2080.00, 
2081.00, 
2082.00, 
2083.00, 
2084.00, 
2085.00, 
2086.00, 
2087.00, 
2088.00, 
2089.00, 
2090.00, 
2091.00, 
2092.00, 
2093.00, 
2094.00, 
2095.00, 
2096.00, 
2097.00, 
2098.00, 
2099.00, 
2100.00, 
2101.00, 
2102.00, 
2103.00, 
2104.00, 
2105.00, 
2106.00, 
2107.00, 
2108.00, 
2109.00, 
2110.00, 
2111.00, 
2112.00, 
2113.00, 
2114.00, 
2115.00, 
2116.00, 
2117.00, 
2118.00, 
2119.00, 
2120.00, 
2121.00, 
2122.00, 
2123.00, 
2124.00, 
2125.00, 
2126.00, 
2127.00, 
2128.00, 
2129.00, 
2130.00, 
2131.00, 
2132.00, 
2133.00, 
2134.00, 
2135.00, 
2136.00, 
2137.00, 
2138.00, 
2139.00, 
2140.00, 
2141.00, 
2142.00, 
2143.00, 
2144.00, 
2145.00, 
2146.00, 
2147.00, 
2148.00, 
2149.00, 
2150.00, 
2151.00, 
2152.00, 
2153.00, 
2154.00, 
2155.00, 
2156.00, 
2157.00, 
2158.00, 
2159.00, 
2160.00, 
2161.00, 
2162.00, 
2163.00, 
2164.00, 
2165.00, 
2166.00, 
2167.00, 
2168.00, 
2169.00, 
2170.00, 
2171.00, 
2172.00, 
2173.00, 
2174.00, 
2175.00, 
2176.00, 
2177.00, 
2178.00, 
2179.00, 
2180.00, 
2181.00, 
2182.00, 
2183.00, 
2184.00, 
2185.00, 
2186.00, 
2187.00, 
2188.00, 
2189.00, 
2190.00, 
2191.00, 
2192.00, 
2193.00, 
2194.00, 
2195.00, 
2196.00, 
2197.00, 
2198.00, 
2199.00, 
2200.00, 
2201.00, 
2202.00, 
2203.00, 
2204.00, 
2205.00, 
2206.00, 
2207.00, 
2208.00, 
2209.00, 
2210.00, 
2211.00, 
2212.00, 
2213.00, 
2214.00, 
2215.00, 
2216.00, 
2217.00, 
2218.00, 
2219.00, 
2220.00, 
2221.00, 
2222.00, 
2223.00, 
2224.00, 
2225.00, 
2226.00, 
2227.00, 
2228.00, 
2229.00, 
2230.00, 
2231.00, 
2232.00, 
2233.00, 
2234.00, 
2235.00, 
2236.00, 
2237.00, 
2238.00, 
2239.00, 
2240.00, 
2241.00, 
2242.00, 
2243.00, 
2244.00, 
2245.00, 
2246.00, 
2247.00, 
2248.00, 
2249.00, 
2250.00, 
2251.00, 
2252.00, 
2253.00, 
2254.00, 
2255.00, 
2256.00, 
2257.00, 
2258.00, 
2259.00, 
2260.00, 
2261.00, 
2262.00, 
2263.00, 
2264.00, 
2265.00, 
2266.00, 
2267.00, 
2268.00, 
2269.00, 
2270.00, 
2271.00, 
2272.00, 
2273.00, 
2274.00, 
2275.00, 
2276.00, 
2277.00, 
2278.00, 
2279.00, 
2280.00, 
2281.00, 
2282.00, 
2283.00, 
2284.00, 
2285.00, 
2286.00, 
2287.00, 
2288.00, 
2289.00, 
2290.00, 
2291.00, 
2292.00, 
2293.00, 
2294.00, 
2295.00, 
2296.00, 
2297.00, 
2298.00, 
2299.00, 
2300.00, 
2301.00, 
2302.00, 
2303.00, 
2304.00, 
2305.00, 
2306.00, 
2307.00, 
2308.00, 
2309.00, 
2310.00, 
2311.00, 
2312.00, 
2313.00, 
2314.00, 
2315.00, 
2316.00, 
2317.00, 
2318.00, 
2319.00, 
2320.00, 
2321.00, 
2322.00, 
2323.00, 
2324.00, 
2325.00, 
2326.00, 
2327.00, 
2328.00, 
2329.00, 
2330.00, 
2331.00, 
2332.00, 
2333.00, 
2334.00, 
2335.00, 
2336.00, 
2337.00, 
2338.00, 
2339.00, 
2340.00, 
2341.00, 
2342.00, 
2343.00, 
2344.00, 
2345.00, 
2346.00, 
2347.00, 
2348.00, 
2349.00, 
2350.00, 
2351.00, 
2352.00, 
2353.00, 
2354.00, 
2355.00, 
2356.00, 
2357.00, 
2358.00, 
2359.00, 
2360.00, 
2361.00, 
2362.00, 
2363.00, 
2364.00, 
2365.00, 
2366.00, 
2367.00, 
2368.00, 
2369.00, 
2370.00, 
2371.00, 
2372.00, 
2373.00, 
2374.00, 
2375.00, 
2376.00, 
2377.00, 
2378.00, 
2379.00, 
2380.00, 
2381.00, 
2382.00, 
2383.00, 
2384.00, 
2385.00, 
2386.00, 
2387.00, 
2388.00, 
2389.00, 
2390.00, 
2391.00, 
2392.00, 
2393.00, 
2394.00, 
2395.00, 
2396.00, 
2397.00, 
2398.00, 
2399.00, 
2400.00, 
2401.00, 
2402.00, 
2403.00, 
2404.00, 
2405.00, 
2406.00, 
2407.00, 
2408.00, 
2409.00, 
2410.00, 
2411.00, 
2412.00, 
2413.00, 
2414.00, 
2415.00, 
2416.00, 
2417.00, 
2418.00, 
2419.00, 
2420.00, 
2421.00, 
2422.00, 
2423.00, 
2424.00, 
2425.00, 
2426.00, 
2427.00, 
2428.00, 
2429.00, 
2430.00, 
2431.00, 
2432.00, 
2433.00, 
2434.00, 
2435.00, 
2436.00, 
2437.00, 
2438.00, 
2439.00, 
2440.00, 
2441.00, 
2442.00, 
2443.00, 
2444.00, 
2445.00, 
2446.00, 
2447.00, 
2448.00, 
2449.00, 
2450.00, 
2451.00, 
2452.00, 
2453.00, 
2454.00, 
2455.00, 
2456.00, 
2457.00, 
2458.00, 
2459.00, 
2460.00, 
2461.00, 
2462.00, 
2463.00, 
2464.00, 
2465.00, 
2466.00, 
2467.00, 
2468.00, 
2469.00, 
2470.00, 
2471.00, 
2472.00, 
2473.00, 
2474.00, 
2475.00, 
2476.00, 
2477.00, 
2478.00, 
2479.00, 
2480.00, 
2481.00, 
2482.00, 
2483.00, 
2484.00, 
2485.00, 
2486.00, 
2487.00, 
2488.00, 
2489.00, 
2490.00, 
2491.00, 
2492.00, 
2493.00, 
2494.00, 
2495.00, 
2496.00, 
2497.00, 
2498.00, 
2499.00, 
2500.00, 
2501.00, 
2502.00, 
2503.00, 
2504.00, 
2505.00, 
2506.00, 
2507.00, 
2508.00, 
2509.00, 
2510.00, 
2511.00, 
2512.00, 
2513.00, 
2514.00, 
2515.00, 
2516.00, 
2517.00, 
2518.00, 
2519.00, 
2520.00, 
2521.00, 
2522.00, 
2523.00, 
2524.00, 
2525.00, 
2526.00, 
2527.00, 
2528.00, 
2529.00, 
2530.00, 
2531.00, 
2532.00, 
2533.00, 
2534.00, 
2535.00, 
2536.00, 
2537.00, 
2538.00, 
2539.00, 
2540.00, 
2541.00, 
2542.00, 
2543.00, 
2544.00, 
2545.00, 
2546.00, 
2547.00, 
2548.00, 
2549.00, 
2550.00, 
2551.00, 
2552.00, 
2553.00, 
2554.00, 
2555.00, 
2556.00, 
2557.00, 
2558.00, 
2559.00, 
2560.00, 
2561.00, 
2562.00, 
2563.00, 
2564.00, 
2565.00, 
2566.00, 
2567.00, 
2568.00, 
2569.00, 
2570.00, 
2571.00, 
2572.00, 
2573.00, 
2574.00, 
2575.00, 
2576.00, 
2577.00, 
2578.00, 
2579.00, 
2580.00, 
2581.00, 
2582.00, 
2583.00, 
2584.00, 
2585.00, 
2586.00, 
2587.00, 
2588.00, 
2589.00, 
2590.00, 
2591.00, 
2592.00, 
2593.00, 
2594.00, 
2595.00, 
2596.00, 
2597.00, 
2598.00, 
2599.00, 
2600.00, 
