"2cP1 - RawData"
"Wavelength nm.","T%"
200.00,-0.000
201.00,0.002
202.00,0.003
203.00,0.002
204.00,0.001
205.00,0.000
206.00,0.003
207.00,0.004
208.00,0.001
209.00,-0.001
210.00,0.001
211.00,0.004
212.00,0.002
213.00,0.002
214.00,0.003
215.00,0.002
216.00,0.002
217.00,-0.000
218.00,0.001
219.00,0.001
220.00,-0.001
221.00,0.002
222.00,-0.001
223.00,0.003
224.00,0.003
225.00,0.002
226.00,0.001
227.00,0.001
228.00,0.001
229.00,0.002
230.00,0.002
231.00,0.002
232.00,-0.000
233.00,-0.001
234.00,-0.002
235.00,0.001
236.00,0.000
237.00,0.001
238.00,-0.001
239.00,0.002
240.00,-0.000
241.00,-0.001
242.00,0.001
243.00,0.000
244.00,-0.001
245.00,0.002
246.00,-0.000
247.00,-0.002
248.00,0.001
249.00,0.001
250.00,-0.001
251.00,-0.000
252.00,0.000
253.00,0.000
254.00,-0.001
255.00,-0.001
256.00,0.002
257.00,-0.000
258.00,0.001
259.00,-0.001
260.00,0.000
261.00,0.001
262.00,0.001
263.00,0.000
264.00,0.000
265.00,0.000
266.00,0.001
267.00,0.001
268.00,0.001
269.00,-0.000
270.00,0.001
271.00,0.000
272.00,-0.001
273.00,0.001
274.00,-0.001
275.00,0.001
276.00,-0.000
277.00,-0.001
278.00,0.000
279.00,0.002
280.00,0.003
281.00,-0.001
282.00,0.001
283.00,-0.001
284.00,0.001
285.00,0.000
286.00,-0.002
287.00,-0.001
288.00,0.002
289.00,-0.001
290.00,-0.000
291.00,-0.002
292.00,0.002
293.00,0.000
294.00,0.001
295.00,0.001
296.00,0.001
297.00,0.001
298.00,0.001
299.00,-0.000
300.00,0.001
301.00,0.004
302.00,0.004
303.00,0.007
304.00,0.011
305.00,0.019
306.00,0.025
307.00,0.039
308.00,0.062
309.00,0.101
310.00,0.140
311.00,0.186
312.00,0.252
313.00,0.346
314.00,0.451
315.00,0.596
316.00,0.760
317.00,0.961
318.00,1.185
319.00,1.453
320.00,1.754
321.00,2.118
322.00,2.511
323.00,2.949
324.00,3.420
325.00,3.917
326.00,4.419
327.00,4.995
328.00,5.581
329.00,6.175
330.00,6.834
331.00,7.440
332.00,8.102
333.00,8.805
334.00,9.452
335.00,10.142
336.00,10.806
337.00,11.491
338.00,12.124
339.00,12.727
340.00,13.339
341.00,13.954
342.00,14.510
343.00,15.102
344.00,15.628
345.00,16.131
346.00,16.566
347.00,17.054
348.00,17.515
349.00,17.900
350.00,18.249
351.00,18.580
352.00,18.969
353.00,19.314
354.00,19.589
355.00,19.839
356.00,20.133
357.00,20.412
358.00,20.612
359.00,20.819
360.00,21.017
361.00,21.166
362.00,21.375
363.00,21.537
364.00,21.631
365.00,21.806
366.00,21.909
367.00,21.964
368.00,22.052
369.00,22.100
370.00,22.169
371.00,22.170
372.00,22.201
373.00,22.211
374.00,22.186
375.00,22.207
376.00,22.201
377.00,22.114
378.00,22.097
379.00,22.038
380.00,22.000
381.00,21.993
382.00,21.998
383.00,22.031
384.00,22.027
385.00,22.102
386.00,22.122
387.00,22.175
388.00,22.229
389.00,22.255
390.00,22.252
391.00,22.314
392.00,22.289
393.00,22.331
394.00,22.325
395.00,22.349
396.00,22.360
397.00,22.385
398.00,22.386
399.00,22.360
400.00,22.386
401.00,22.370
402.00,22.383
403.00,22.380
404.00,22.447
405.00,22.353
406.00,22.333
407.00,22.350
408.00,22.313
409.00,22.289
410.00,22.242
411.00,22.257
412.00,22.198
413.00,22.214
414.00,22.215
415.00,22.195
416.00,22.227
417.00,22.215
418.00,22.272
419.00,22.281
420.00,22.286
421.00,22.405
422.00,22.418
423.00,22.454
424.00,22.490
425.00,22.520
426.00,22.517
427.00,22.587
428.00,22.622
429.00,22.635
430.00,22.667
431.00,22.745
432.00,22.778
433.00,22.812
434.00,22.865
435.00,22.928
436.00,22.989
437.00,23.058
438.00,23.120
439.00,23.197
440.00,23.286
441.00,23.369
442.00,23.415
443.00,23.506
444.00,23.601
445.00,23.670
446.00,23.754
447.00,23.851
448.00,23.969
449.00,24.038
450.00,24.145
451.00,24.257
452.00,24.352
453.00,24.467
454.00,24.547
455.00,24.659
456.00,24.762
457.00,24.878
458.00,24.978
459.00,25.086
460.00,25.230
461.00,25.383
462.00,25.437
463.00,25.551
464.00,25.667
465.00,25.797
466.00,25.877
467.00,26.045
468.00,26.121
469.00,26.241
470.00,26.349
471.00,26.463
472.00,26.575
473.00,26.671
474.00,26.763
475.00,26.906
476.00,27.023
477.00,27.126
478.00,27.222
479.00,27.338
480.00,27.501
481.00,27.664
482.00,27.804
483.00,27.941
484.00,28.084
485.00,28.264
486.00,28.387
487.00,28.525
488.00,28.657
489.00,28.825
490.00,28.939
491.00,29.057
492.00,29.291
493.00,29.347
494.00,29.420
495.00,29.568
496.00,29.675
497.00,29.773
498.00,29.909
499.00,30.135
500.00,30.182
501.00,30.323
502.00,30.480
503.00,30.585
504.00,30.656
505.00,30.786
506.00,30.925
507.00,30.974
508.00,31.185
509.00,31.331
510.00,31.416
511.00,31.537
512.00,31.671
513.00,31.778
514.00,31.921
515.00,32.036
516.00,32.113
517.00,32.276
518.00,32.376
519.00,32.467
520.00,32.521
521.00,32.605
522.00,32.653
523.00,32.776
524.00,32.852
525.00,32.974
526.00,33.065
527.00,33.149
528.00,33.188
529.00,33.375
530.00,33.429
531.00,33.620
532.00,33.667
533.00,33.786
534.00,33.871
535.00,33.930
536.00,34.045
537.00,34.120
538.00,34.233
539.00,34.286
540.00,34.372
541.00,34.444
542.00,34.498
543.00,34.613
544.00,34.663
545.00,34.755
546.00,34.796
547.00,34.887
548.00,34.963
549.00,34.997
550.00,35.105
551.00,35.236
552.00,35.314
553.00,35.411
554.00,35.458
555.00,35.484
556.00,35.537
557.00,35.594
558.00,35.656
559.00,35.694
560.00,35.770
561.00,35.860
562.00,35.939
563.00,35.981
564.00,36.024
565.00,36.036
566.00,36.098
567.00,36.121
568.00,36.173
569.00,36.236
570.00,36.256
571.00,36.284
572.00,36.360
573.00,36.401
574.00,36.438
575.00,36.470
576.00,36.480
577.00,36.608
578.00,36.639
579.00,36.721
580.00,36.778
581.00,36.845
582.00,37.002
583.00,37.015
584.00,37.113
585.00,37.174
586.00,37.253
587.00,37.335
588.00,37.380
589.00,37.405
590.00,37.457
591.00,37.486
592.00,37.508
593.00,37.501
594.00,37.597
595.00,37.683
596.00,37.715
597.00,37.807
598.00,37.871
599.00,37.865
600.00,37.966
601.00,37.956
602.00,38.048
603.00,38.083
604.00,38.153
605.00,38.187
606.00,38.215
607.00,38.211
608.00,38.326
609.00,38.305
610.00,38.356
611.00,38.434
612.00,38.492
613.00,38.514
614.00,38.570
615.00,38.607
616.00,38.723
617.00,38.752
618.00,38.809
619.00,38.882
620.00,38.918
621.00,38.957
622.00,39.012
623.00,39.055
624.00,39.157
625.00,39.229
626.00,39.271
627.00,39.366
628.00,39.407
629.00,39.460
630.00,39.514
631.00,39.556
632.00,39.596
633.00,39.720
634.00,39.782
635.00,39.834
636.00,39.934
637.00,39.982
638.00,40.067
639.00,40.166
640.00,40.190
641.00,40.282
642.00,40.270
643.00,40.416
644.00,40.468
645.00,40.496
646.00,40.673
647.00,40.699
648.00,40.672
649.00,40.889
650.00,40.888
651.00,40.965
652.00,41.041
653.00,41.077
654.00,41.067
655.00,41.292
656.00,41.412
657.00,41.413
658.00,41.610
659.00,41.673
660.00,41.736
661.00,41.793
662.00,41.929
663.00,41.994
664.00,42.140
665.00,42.168
666.00,42.272
667.00,42.316
668.00,42.462
669.00,42.606
670.00,42.651
671.00,42.685
672.00,42.746
673.00,42.875
674.00,42.937
675.00,42.986
676.00,43.180
677.00,43.182
678.00,43.263
679.00,43.394
680.00,43.429
681.00,43.600
682.00,43.647
683.00,43.724
684.00,43.865
685.00,43.933
686.00,44.001
687.00,44.056
688.00,44.125
689.00,44.201
690.00,44.207
691.00,44.459
692.00,44.419
693.00,44.298
694.00,44.470
695.00,44.776
696.00,44.807
697.00,44.931
698.00,44.918
699.00,45.079
700.00,45.409
701.00,45.212
702.00,45.319
703.00,45.409
704.00,45.473
705.00,45.510
706.00,45.624
707.00,45.692
708.00,45.647
709.00,45.830
710.00,45.981
711.00,45.885
712.00,46.028
713.00,46.084
714.00,46.072
715.00,46.178
716.00,46.270
717.00,46.370
718.00,46.371
719.00,46.392
720.00,46.503
721.00,50.616
722.00,50.537
723.00,50.636
724.00,50.614
725.00,50.670
726.00,50.663
727.00,50.708
728.00,50.751
729.00,50.720
730.00,50.755
731.00,50.742
732.00,50.737
733.00,50.849
734.00,50.900
735.00,50.961
736.00,50.934
737.00,50.999
738.00,51.026
739.00,51.052
740.00,50.986
741.00,51.117
742.00,51.111
743.00,51.099
744.00,51.122
745.00,51.094
746.00,51.173
747.00,51.172
748.00,51.154
749.00,51.104
750.00,51.106
751.00,51.102
752.00,51.180
753.00,51.080
754.00,51.153
755.00,51.158
756.00,51.202
757.00,51.170
758.00,51.200
759.00,51.181
760.00,51.224
761.00,51.276
762.00,51.267
763.00,51.284
764.00,51.353
765.00,51.333
766.00,51.310
767.00,51.346
768.00,51.319
769.00,51.342
770.00,51.386
771.00,51.412
772.00,51.367
773.00,51.377
774.00,51.391
775.00,51.381
776.00,51.425
777.00,51.429
778.00,51.410
779.00,51.493
780.00,51.419
781.00,51.492
782.00,51.486
783.00,51.487
784.00,51.471
785.00,51.376
786.00,51.368
787.00,51.414
788.00,51.390
789.00,51.349
790.00,51.373
791.00,51.429
792.00,51.320
793.00,51.294
794.00,51.313
795.00,51.278
796.00,51.368
797.00,51.295
798.00,51.277
799.00,51.291
800.00,51.306
801.00,51.270
802.00,51.202
803.00,51.294
804.00,51.184
805.00,51.136
806.00,51.175
807.00,51.159
808.00,51.189
809.00,51.112
810.00,51.187
811.00,51.130
812.00,51.258
813.00,51.148
814.00,51.160
815.00,51.068
816.00,51.138
817.00,51.071
818.00,50.905
819.00,51.012
820.00,50.934
821.00,50.994
822.00,50.976
823.00,50.965
824.00,50.911
825.00,50.921
826.00,51.031
827.00,50.975
828.00,50.992
829.00,50.933
830.00,50.885
831.00,53.398
832.00,53.405
833.00,53.364
834.00,53.364
835.00,53.310
836.00,53.360
837.00,53.309
838.00,53.250
839.00,53.348
840.00,53.206
841.00,53.222
842.00,53.202
843.00,53.160
844.00,53.185
845.00,53.100
846.00,53.169
847.00,53.143
848.00,53.123
849.00,53.022
850.00,53.063
851.00,52.983
852.00,52.972
853.00,52.925
854.00,52.912
855.00,52.860
856.00,52.830
857.00,52.847
858.00,52.818
859.00,52.782
860.00,52.761
861.00,52.758
862.00,52.722
863.00,52.723
864.00,52.683
865.00,52.701
866.00,52.690
867.00,52.709
868.00,52.680
869.00,52.657
870.00,52.659
871.00,52.640
872.00,52.630
873.00,52.590
874.00,52.593
875.00,52.590
876.00,52.574
877.00,52.567
878.00,52.563
879.00,52.515
880.00,52.483
881.00,52.621
882.00,52.479
883.00,52.473
884.00,52.429
885.00,52.422
886.00,52.388
887.00,52.371
888.00,52.339
889.00,52.326
890.00,52.321
891.00,52.308
892.00,52.268
893.00,52.309
894.00,52.264
895.00,52.179
896.00,52.207
897.00,52.219
898.00,52.160
899.00,52.162
900.00,52.165
901.00,52.168
902.00,52.148
903.00,52.113
904.00,52.100
905.00,52.113
906.00,52.085
907.00,52.043
908.00,52.030
909.00,52.026
910.00,51.981
911.00,51.981
912.00,51.982
913.00,51.909
914.00,51.901
915.00,51.867
916.00,51.872
917.00,51.840
918.00,51.834
919.00,51.793
920.00,51.784
921.00,51.768
922.00,51.772
923.00,51.732
924.00,51.729
925.00,51.683
926.00,51.677
927.00,51.654
928.00,51.636
929.00,51.634
930.00,51.595
931.00,51.606
932.00,51.557
933.00,51.568
934.00,51.565
935.00,51.508
936.00,51.621
937.00,51.485
938.00,51.452
939.00,51.463
940.00,51.427
941.00,51.424
942.00,51.380
943.00,51.395
944.00,51.333
945.00,51.345
946.00,51.328
947.00,51.279
948.00,51.276
949.00,51.251
950.00,51.236
951.00,51.190
952.00,51.172
953.00,51.142
954.00,51.137
955.00,51.094
956.00,51.092
957.00,51.049
958.00,51.078
959.00,51.030
960.00,51.010
961.00,50.980
962.00,51.003
963.00,50.961
964.00,50.944
965.00,50.933
966.00,50.940
967.00,50.931
968.00,50.904
969.00,50.920
970.00,50.907
971.00,50.912
972.00,50.879
973.00,50.900
974.00,50.922
975.00,50.890
976.00,50.920
977.00,50.889
978.00,50.934
979.00,50.881
980.00,50.917
981.00,50.945
982.00,50.876
983.00,50.899
984.00,50.884
985.00,50.903
986.00,50.842
987.00,50.870
988.00,50.850
989.00,50.833
990.00,50.836
991.00,50.804
992.00,50.823
993.00,50.790
994.00,50.767
995.00,50.769
996.00,50.751
997.00,50.751
998.00,50.727
999.00,50.739
1000.00,50.662
1001.00,50.701
1002.00,50.680
1003.00,50.669
1004.00,50.670
1005.00,50.644
1006.00,50.645
1007.00,50.622
1008.00,50.603
1009.00,50.592
1010.00,50.581
1011.00,50.567
1012.00,50.533
1013.00,50.555
1014.00,50.509
1015.00,50.522
1016.00,50.487
1017.00,50.497
1018.00,50.467
1019.00,50.434
1020.00,50.428
1021.00,50.393
1022.00,50.399
1023.00,50.344
1024.00,50.355
1025.00,50.351
1026.00,50.328
1027.00,50.333
1028.00,50.306
1029.00,50.291
1030.00,50.272
1031.00,50.278
1032.00,50.235
1033.00,50.234
1034.00,50.208
1035.00,50.183
1036.00,50.154
1037.00,50.137
1038.00,50.117
1039.00,50.092
1040.00,50.085
1041.00,50.065
1042.00,50.076
1043.00,50.013
1044.00,50.042
1045.00,50.024
1046.00,50.016
1047.00,50.016
1048.00,50.024
1049.00,50.044
1050.00,50.047
1051.00,50.081
1052.00,50.081
1053.00,50.100
1054.00,50.084
1055.00,50.110
1056.00,50.118
1057.00,50.114
1058.00,50.103
1059.00,50.098
1060.00,50.107
1061.00,50.099
1062.00,50.090
1063.00,50.089
1064.00,50.076
1065.00,50.072
1066.00,50.062
1067.00,50.047
1068.00,50.049
1069.00,50.046
1070.00,50.013
1071.00,49.995
1072.00,50.029
1073.00,50.018
1074.00,49.986
1075.00,49.974
1076.00,49.964
1077.00,49.953
1078.00,49.945
1079.00,49.925
1080.00,49.931
1081.00,49.914
1082.00,49.903
1083.00,49.892
1084.00,49.881
1085.00,49.875
1086.00,49.884
1087.00,49.867
1088.00,49.869
1089.00,49.841
1090.00,49.839
1091.00,49.835
1092.00,49.816
1093.00,49.803
1094.00,49.777
1095.00,49.778
1096.00,49.774
1097.00,49.766
1098.00,49.761
1099.00,49.752
1100.00,49.752
1101.00,49.725
1102.00,49.721
1103.00,49.714
1104.00,49.695
1105.00,49.687
1106.00,49.683
1107.00,49.672
1108.00,49.666
1109.00,49.657
1110.00,49.658
1111.00,49.645
1112.00,49.640
1113.00,49.636
1114.00,49.622
1115.00,49.614
1116.00,49.610
1117.00,49.583
1118.00,49.579
1119.00,49.581
1120.00,49.574
1121.00,49.577
1122.00,49.555
1123.00,49.549
1124.00,49.551
1125.00,49.526
1126.00,49.520
1127.00,49.513
1128.00,49.513
1129.00,49.495
1130.00,49.493
1131.00,49.479
1132.00,49.481
1133.00,49.503
1134.00,49.509
1135.00,49.463
1136.00,49.452
1137.00,49.441
1138.00,49.446
1139.00,49.446
1140.00,49.433
1141.00,49.420
1142.00,49.420
1143.00,49.431
1144.00,49.410
1145.00,49.407
1146.00,49.413
1147.00,49.402
1148.00,49.395
1149.00,49.407
1150.00,49.395
1151.00,49.396
1152.00,49.390
1153.00,49.382
1154.00,49.378
1155.00,49.378
1156.00,49.357
1157.00,49.361
1158.00,49.358
1159.00,49.347
1160.00,49.340
1161.00,49.347
1162.00,49.337
1163.00,49.341
1164.00,49.336
1165.00,49.325
1166.00,49.326
1167.00,49.324
1168.00,49.330
1169.00,49.318
1170.00,49.322
1171.00,49.301
1172.00,49.301
1173.00,49.306
1174.00,49.317
1175.00,49.321
1176.00,49.306
1177.00,49.311
1178.00,49.298
1179.00,49.315
1180.00,49.305
1181.00,49.318
1182.00,49.315
1183.00,49.291
1184.00,49.290
1185.00,49.303
1186.00,49.282
1187.00,49.288
1188.00,49.265
1189.00,49.274
1190.00,49.268
1191.00,49.264
1192.00,49.274
1193.00,49.261
1194.00,49.278
1195.00,49.254
1196.00,49.276
1197.00,49.261
1198.00,49.259
1199.00,49.259
1200.00,49.249
1201.00,49.265
1202.00,49.242
1203.00,49.252
1204.00,49.235
1205.00,49.249
1206.00,49.249
1207.00,49.249
1208.00,49.236
1209.00,49.233
1210.00,49.243
1211.00,49.235
1212.00,49.251
1213.00,49.223
1214.00,49.236
1215.00,49.230
1216.00,49.227
1217.00,49.241
1218.00,49.225
1219.00,49.241
1220.00,49.234
1221.00,49.224
1222.00,49.219
1223.00,49.242
1224.00,49.231
1225.00,49.221
1226.00,49.226
1227.00,49.221
1228.00,49.230
1229.00,49.239
1230.00,49.264
1231.00,49.271
1232.00,49.266
1233.00,49.257
1234.00,49.264
1235.00,49.256
1236.00,49.282
1237.00,49.251
1238.00,49.256
1239.00,49.254
1240.00,49.267
1241.00,49.272
1242.00,49.269
1243.00,49.290
1244.00,49.263
1245.00,49.285
1246.00,49.286
1247.00,49.280
1248.00,49.272
1249.00,49.269
1250.00,49.285
1251.00,49.281
1252.00,49.297
1253.00,49.283
1254.00,49.312
1255.00,49.309
1256.00,49.278
1257.00,49.275
1258.00,49.321
1259.00,49.310
1260.00,49.326
1261.00,49.319
1262.00,49.331
1263.00,49.318
1264.00,49.331
1265.00,49.327
1266.00,49.339
1267.00,49.365
1268.00,49.355
1269.00,49.343
1270.00,49.348
1271.00,49.365
1272.00,49.367
1273.00,49.373
1274.00,49.372
1275.00,49.367
1276.00,49.370
1277.00,49.367
1278.00,49.388
1279.00,49.377
1280.00,49.373
1281.00,49.385
1282.00,49.397
1283.00,49.382
1284.00,49.392
1285.00,49.377
1286.00,49.397
1287.00,49.387
1288.00,49.408
1289.00,49.392
1290.00,49.421
1291.00,49.415
1292.00,49.422
1293.00,49.416
1294.00,49.429
1295.00,49.434
1296.00,49.434
1297.00,49.448
1298.00,49.458
1299.00,49.449
1300.00,49.456
1301.00,49.464
1302.00,49.471
1303.00,49.491
1304.00,49.471
1305.00,49.494
1306.00,49.502
1307.00,49.504
1308.00,49.492
1309.00,49.499
1310.00,49.504
1311.00,49.490
1312.00,49.494
1313.00,49.489
1314.00,49.500
1315.00,49.510
1316.00,49.518
1317.00,49.541
1318.00,49.527
1319.00,49.534
1320.00,49.570
1321.00,49.725
1322.00,49.741
1323.00,49.708
1324.00,49.714
1325.00,49.712
1326.00,49.724
1327.00,49.719
1328.00,49.718
1329.00,49.710
1330.00,49.721
1331.00,49.715
1332.00,49.712
1333.00,49.728
1334.00,49.766
1335.00,49.757
1336.00,49.797
1337.00,49.819
1338.00,49.882
1339.00,49.942
1340.00,50.013
1341.00,50.093
1342.00,50.122
1343.00,50.172
1344.00,50.222
1345.00,50.275
1346.00,50.305
1347.00,50.325
1348.00,50.338
1349.00,50.376
1350.00,50.366
1351.00,50.397
1352.00,50.396
1353.00,50.449
1354.00,50.440
1355.00,50.296
1356.00,50.463
1357.00,50.433
1358.00,50.427
1359.00,50.432
1360.00,50.492
1361.00,50.466
1362.00,50.312
1363.00,50.566
1364.00,50.579
1365.00,50.436
1366.00,50.504
1367.00,50.461
1368.00,50.370
1369.00,50.393
1370.00,50.410
1371.00,50.640
1372.00,50.425
1373.00,50.428
1374.00,50.422
1375.00,50.402
1376.00,50.395
1377.00,50.399
1378.00,50.401
1379.00,50.406
1380.00,50.417
1381.00,50.429
1382.00,50.354
1383.00,50.363
1384.00,50.354
1385.00,50.356
1386.00,50.391
1387.00,50.333
1388.00,50.358
1389.00,50.305
1390.00,50.420
1391.00,50.401
1392.00,50.318
1393.00,50.314
1394.00,50.314
1395.00,50.331
1396.00,50.334
1397.00,50.278
1398.00,50.377
1399.00,50.375
1400.00,50.316
1401.00,50.276
1402.00,50.056
1403.00,50.398
1404.00,50.270
1405.00,50.413
1406.00,50.372
1407.00,50.427
1408.00,50.403
1409.00,50.188
1410.00,50.421
1411.00,50.433
1412.00,50.486
1413.00,50.455
1414.00,50.456
1415.00,50.479
1416.00,50.534
1417.00,50.489
1418.00,50.484
1419.00,50.487
1420.00,50.522
1421.00,50.536
1422.00,50.537
1423.00,50.548
1424.00,50.558
1425.00,50.560
1426.00,50.578
1427.00,50.597
1428.00,50.602
1429.00,50.625
1430.00,50.632
1431.00,50.640
1432.00,50.665
1433.00,50.680
1434.00,50.680
1435.00,50.717
1436.00,50.725
1437.00,50.719
1438.00,50.739
1439.00,50.763
1440.00,50.770
1441.00,50.782
1442.00,50.794
1443.00,50.819
1444.00,50.825
1445.00,50.834
1446.00,50.849
1447.00,50.870
1448.00,50.906
1449.00,50.906
1450.00,50.901
1451.00,50.914
1452.00,50.935
1453.00,50.956
1454.00,50.957
1455.00,50.980
1456.00,51.000
1457.00,51.016
1458.00,51.006
1459.00,51.036
1460.00,51.043
1461.00,51.058
1462.00,51.102
1463.00,51.089
1464.00,51.112
1465.00,51.111
1466.00,51.117
1467.00,51.145
1468.00,51.191
1469.00,51.173
1470.00,51.176
1471.00,51.195
1472.00,51.202
1473.00,51.216
1474.00,51.245
1475.00,51.261
1476.00,51.265
1477.00,51.253
1478.00,51.271
1479.00,51.294
1480.00,51.289
1481.00,51.308
1482.00,51.338
1483.00,51.343
1484.00,51.349
1485.00,51.361
1486.00,51.385
1487.00,51.392
1488.00,51.397
1489.00,51.407
1490.00,51.426
1491.00,51.418
1492.00,51.435
1493.00,51.432
1494.00,51.457
1495.00,51.480
1496.00,51.460
1497.00,51.478
1498.00,51.489
1499.00,51.506
1500.00,51.530
1501.00, 
1502.00, 
1503.00, 
1504.00, 
1505.00, 
1506.00, 
1507.00, 
1508.00, 
1509.00, 
1510.00, 
1511.00, 
1512.00, 
1513.00, 
1514.00, 
1515.00, 
1516.00, 
1517.00, 
1518.00, 
1519.00, 
1520.00, 
1521.00, 
1522.00, 
1523.00, 
1524.00, 
1525.00, 
1526.00, 
1527.00, 
1528.00, 
1529.00, 
1530.00, 
1531.00, 
1532.00, 
1533.00, 
1534.00, 
1535.00, 
1536.00, 
1537.00, 
1538.00, 
1539.00, 
1540.00, 
1541.00, 
1542.00, 
1543.00, 
1544.00, 
1545.00, 
1546.00, 
1547.00, 
1548.00, 
1549.00, 
1550.00, 
1551.00, 
1552.00, 
1553.00, 
1554.00, 
1555.00, 
1556.00, 
1557.00, 
1558.00, 
1559.00, 
1560.00, 
1561.00, 
1562.00, 
1563.00, 
1564.00, 
1565.00, 
1566.00, 
1567.00, 
1568.00, 
1569.00, 
1570.00, 
1571.00, 
1572.00, 
1573.00, 
1574.00, 
1575.00, 
1576.00, 
1577.00, 
1578.00, 
1579.00, 
1580.00, 
1581.00, 
1582.00, 
1583.00, 
1584.00, 
1585.00, 
1586.00, 
1587.00, 
1588.00, 
1589.00, 
1590.00, 
1591.00, 
1592.00, 
1593.00, 
1594.00, 
1595.00, 
1596.00, 
1597.00, 
1598.00, 
1599.00, 
1600.00, 
1601.00, 
1602.00, 
1603.00, 
1604.00, 
1605.00, 
1606.00, 
1607.00, 
1608.00, 
1609.00, 
1610.00, 
1611.00, 
1612.00, 
1613.00, 
1614.00, 
1615.00, 
1616.00, 
1617.00, 
1618.00, 
1619.00, 
1620.00, 
1621.00, 
1622.00, 
1623.00, 
1624.00, 
1625.00, 
1626.00, 
1627.00, 
1628.00, 
1629.00, 
1630.00, 
1631.00, 
1632.00, 
1633.00, 
1634.00, 
1635.00, 
1636.00, 
1637.00, 
1638.00, 
1639.00, 
1640.00, 
1641.00, 
1642.00, 
1643.00, 
1644.00, 
1645.00, 
1646.00, 
1647.00, 
1648.00, 
1649.00, 
1650.00, 
1651.00, 
1652.00, 
1653.00, 
1654.00, 
1655.00, 
1656.00, 
1657.00, 
1658.00, 
1659.00, 
1660.00, 
1661.00, 
1662.00, 
1663.00, 
1664.00, 
1665.00, 
1666.00, 
1667.00, 
1668.00, 
1669.00, 
1670.00, 
1671.00, 
1672.00, 
1673.00, 
1674.00, 
1675.00, 
1676.00, 
1677.00, 
1678.00, 
1679.00, 
1680.00, 
1681.00, 
1682.00, 
1683.00, 
1684.00, 
1685.00, 
1686.00, 
1687.00, 
1688.00, 
1689.00, 
1690.00, 
1691.00, 
1692.00, 
1693.00, 
1694.00, 
1695.00, 
1696.00, 
1697.00, 
1698.00, 
1699.00, 
1700.00, 
1701.00, 
1702.00, 
1703.00, 
1704.00, 
1705.00, 
1706.00, 
1707.00, 
1708.00, 
1709.00, 
1710.00, 
1711.00, 
1712.00, 
1713.00, 
1714.00, 
1715.00, 
1716.00, 
1717.00, 
1718.00, 
1719.00, 
1720.00, 
1721.00, 
1722.00, 
1723.00, 
1724.00, 
1725.00, 
1726.00, 
1727.00, 
1728.00, 
1729.00, 
1730.00, 
1731.00, 
1732.00, 
1733.00, 
1734.00, 
1735.00, 
1736.00, 
1737.00, 
1738.00, 
1739.00, 
1740.00, 
1741.00, 
1742.00, 
1743.00, 
1744.00, 
1745.00, 
1746.00, 
1747.00, 
1748.00, 
1749.00, 
1750.00, 
1751.00, 
1752.00, 
1753.00, 
1754.00, 
1755.00, 
1756.00, 
1757.00, 
1758.00, 
1759.00, 
1760.00, 
1761.00, 
1762.00, 
1763.00, 
1764.00, 
1765.00, 
1766.00, 
1767.00, 
1768.00, 
1769.00, 
1770.00, 
1771.00, 
1772.00, 
1773.00, 
1774.00, 
1775.00, 
1776.00, 
1777.00, 
1778.00, 
1779.00, 
1780.00, 
1781.00, 
1782.00, 
1783.00, 
1784.00, 
1785.00, 
1786.00, 
1787.00, 
1788.00, 
1789.00, 
1790.00, 
1791.00, 
1792.00, 
1793.00, 
1794.00, 
1795.00, 
1796.00, 
1797.00, 
1798.00, 
1799.00, 
1800.00, 
1801.00, 
1802.00, 
1803.00, 
1804.00, 
1805.00, 
1806.00, 
1807.00, 
1808.00, 
1809.00, 
1810.00, 
1811.00, 
1812.00, 
1813.00, 
1814.00, 
1815.00, 
1816.00, 
1817.00, 
1818.00, 
1819.00, 
1820.00, 
1821.00, 
1822.00, 
1823.00, 
1824.00, 
1825.00, 
1826.00, 
1827.00, 
1828.00, 
1829.00, 
1830.00, 
1831.00, 
1832.00, 
1833.00, 
1834.00, 
1835.00, 
1836.00, 
1837.00, 
1838.00, 
1839.00, 
1840.00, 
1841.00, 
1842.00, 
1843.00, 
1844.00, 
1845.00, 
1846.00, 
1847.00, 
1848.00, 
1849.00, 
1850.00, 
1851.00, 
1852.00, 
1853.00, 
1854.00, 
1855.00, 
1856.00, 
1857.00, 
1858.00, 
1859.00, 
1860.00, 
1861.00, 
1862.00, 
1863.00, 
1864.00, 
1865.00, 
1866.00, 
1867.00, 
1868.00, 
1869.00, 
1870.00, 
1871.00, 
1872.00, 
1873.00, 
1874.00, 
1875.00, 
1876.00, 
1877.00, 
1878.00, 
1879.00, 
1880.00, 
1881.00, 
1882.00, 
1883.00, 
1884.00, 
1885.00, 
1886.00, 
1887.00, 
1888.00, 
1889.00, 
1890.00, 
1891.00, 
1892.00, 
1893.00, 
1894.00, 
1895.00, 
1896.00, 
1897.00, 
1898.00, 
1899.00, 
1900.00, 
1901.00, 
1902.00, 
1903.00, 
1904.00, 
1905.00, 
1906.00, 
1907.00, 
1908.00, 
1909.00, 
1910.00, 
1911.00, 
1912.00, 
1913.00, 
1914.00, 
1915.00, 
1916.00, 
1917.00, 
1918.00, 
1919.00, 
1920.00, 
1921.00, 
1922.00, 
1923.00, 
1924.00, 
1925.00, 
1926.00, 
1927.00, 
1928.00, 
1929.00, 
1930.00, 
1931.00, 
1932.00, 
1933.00, 
1934.00, 
1935.00, 
1936.00, 
1937.00, 
1938.00, 
1939.00, 
1940.00, 
1941.00, 
1942.00, 
1943.00, 
1944.00, 
1945.00, 
1946.00, 
1947.00, 
1948.00, 
1949.00, 
1950.00, 
1951.00, 
1952.00, 
1953.00, 
1954.00, 
1955.00, 
1956.00, 
1957.00, 
1958.00, 
1959.00, 
1960.00, 
1961.00, 
1962.00, 
1963.00, 
1964.00, 
1965.00, 
1966.00, 
1967.00, 
1968.00, 
1969.00, 
1970.00, 
1971.00, 
1972.00, 
1973.00, 
1974.00, 
1975.00, 
1976.00, 
1977.00, 
1978.00, 
1979.00, 
1980.00, 
1981.00, 
1982.00, 
1983.00, 
1984.00, 
1985.00, 
1986.00, 
1987.00, 
1988.00, 
1989.00, 
1990.00, 
1991.00, 
1992.00, 
1993.00, 
1994.00, 
1995.00, 
1996.00, 
1997.00, 
1998.00, 
1999.00, 
2000.00, 
2001.00, 
2002.00, 
2003.00, 
2004.00, 
2005.00, 
2006.00, 
2007.00, 
2008.00, 
2009.00, 
2010.00, 
2011.00, 
2012.00, 
2013.00, 
2014.00, 
2015.00, 
2016.00, 
2017.00, 
2018.00, 
2019.00, 
2020.00, 
2021.00, 
2022.00, 
2023.00, 
2024.00, 
2025.00, 
2026.00, 
2027.00, 
2028.00, 
2029.00, 
2030.00, 
2031.00, 
2032.00, 
2033.00, 
2034.00, 
2035.00, 
2036.00, 
2037.00, 
2038.00, 
2039.00, 
2040.00, 
2041.00, 
2042.00, 
2043.00, 
2044.00, 
2045.00, 
2046.00, 
2047.00, 
2048.00, 
2049.00, 
2050.00, 
2051.00, 
2052.00, 
2053.00, 
2054.00, 
2055.00, 
2056.00, 
2057.00, 
2058.00, 
2059.00, 
2060.00, 
2061.00, 
2062.00, 
2063.00, 
2064.00, 
2065.00, 
2066.00, 
2067.00, 
2068.00, 
2069.00, 
2070.00, 
2071.00, 
2072.00, 
2073.00, 
2074.00, 
2075.00, 
2076.00, 
2077.00, 
2078.00, 
2079.00, 
2080.00, 
2081.00, 
2082.00, 
2083.00, 
2084.00, 
2085.00, 
2086.00, 
2087.00, 
2088.00, 
2089.00, 
2090.00, 
2091.00, 
2092.00, 
2093.00, 
2094.00, 
2095.00, 
2096.00, 
2097.00, 
2098.00, 
2099.00, 
2100.00, 
2101.00, 
2102.00, 
2103.00, 
2104.00, 
2105.00, 
2106.00, 
2107.00, 
2108.00, 
2109.00, 
2110.00, 
2111.00, 
2112.00, 
2113.00, 
2114.00, 
2115.00, 
2116.00, 
2117.00, 
2118.00, 
2119.00, 
2120.00, 
2121.00, 
2122.00, 
2123.00, 
2124.00, 
2125.00, 
2126.00, 
2127.00, 
2128.00, 
2129.00, 
2130.00, 
2131.00, 
2132.00, 
2133.00, 
2134.00, 
2135.00, 
2136.00, 
2137.00, 
2138.00, 
2139.00, 
2140.00, 
2141.00, 
2142.00, 
2143.00, 
2144.00, 
2145.00, 
2146.00, 
2147.00, 
2148.00, 
2149.00, 
2150.00, 
2151.00, 
2152.00, 
2153.00, 
2154.00, 
2155.00, 
2156.00, 
2157.00, 
2158.00, 
2159.00, 
2160.00, 
2161.00, 
2162.00, 
2163.00, 
2164.00, 
2165.00, 
2166.00, 
2167.00, 
2168.00, 
2169.00, 
2170.00, 
2171.00, 
2172.00, 
2173.00, 
2174.00, 
2175.00, 
2176.00, 
2177.00, 
2178.00, 
2179.00, 
2180.00, 
2181.00, 
2182.00, 
2183.00, 
2184.00, 
2185.00, 
2186.00, 
2187.00, 
2188.00, 
2189.00, 
2190.00, 
2191.00, 
2192.00, 
2193.00, 
2194.00, 
2195.00, 
2196.00, 
2197.00, 
2198.00, 
2199.00, 
2200.00, 
2201.00, 
2202.00, 
2203.00, 
2204.00, 
2205.00, 
2206.00, 
2207.00, 
2208.00, 
2209.00, 
2210.00, 
2211.00, 
2212.00, 
2213.00, 
2214.00, 
2215.00, 
2216.00, 
2217.00, 
2218.00, 
2219.00, 
2220.00, 
2221.00, 
2222.00, 
2223.00, 
2224.00, 
2225.00, 
2226.00, 
2227.00, 
2228.00, 
2229.00, 
2230.00, 
2231.00, 
2232.00, 
2233.00, 
2234.00, 
2235.00, 
2236.00, 
2237.00, 
2238.00, 
2239.00, 
2240.00, 
2241.00, 
2242.00, 
2243.00, 
2244.00, 
2245.00, 
2246.00, 
2247.00, 
2248.00, 
2249.00, 
2250.00, 
2251.00, 
2252.00, 
2253.00, 
2254.00, 
2255.00, 
2256.00, 
2257.00, 
2258.00, 
2259.00, 
2260.00, 
2261.00, 
2262.00, 
2263.00, 
2264.00, 
2265.00, 
2266.00, 
2267.00, 
2268.00, 
2269.00, 
2270.00, 
2271.00, 
2272.00, 
2273.00, 
2274.00, 
2275.00, 
2276.00, 
2277.00, 
2278.00, 
2279.00, 
2280.00, 
2281.00, 
2282.00, 
2283.00, 
2284.00, 
2285.00, 
2286.00, 
2287.00, 
2288.00, 
2289.00, 
2290.00, 
2291.00, 
2292.00, 
2293.00, 
2294.00, 
2295.00, 
2296.00, 
2297.00, 
2298.00, 
2299.00, 
2300.00, 
2301.00, 
2302.00, 
2303.00, 
2304.00, 
2305.00, 
2306.00, 
2307.00, 
2308.00, 
2309.00, 
2310.00, 
2311.00, 
2312.00, 
2313.00, 
2314.00, 
2315.00, 
2316.00, 
2317.00, 
2318.00, 
2319.00, 
2320.00, 
2321.00, 
2322.00, 
2323.00, 
2324.00, 
2325.00, 
2326.00, 
2327.00, 
2328.00, 
2329.00, 
2330.00, 
2331.00, 
2332.00, 
2333.00, 
2334.00, 
2335.00, 
2336.00, 
2337.00, 
2338.00, 
2339.00, 
2340.00, 
2341.00, 
2342.00, 
2343.00, 
2344.00, 
2345.00, 
2346.00, 
2347.00, 
2348.00, 
2349.00, 
2350.00, 
2351.00, 
2352.00, 
2353.00, 
2354.00, 
2355.00, 
2356.00, 
2357.00, 
2358.00, 
2359.00, 
2360.00, 
2361.00, 
2362.00, 
2363.00, 
2364.00, 
2365.00, 
2366.00, 
2367.00, 
2368.00, 
2369.00, 
2370.00, 
2371.00, 
2372.00, 
2373.00, 
2374.00, 
2375.00, 
2376.00, 
2377.00, 
2378.00, 
2379.00, 
2380.00, 
2381.00, 
2382.00, 
2383.00, 
2384.00, 
2385.00, 
2386.00, 
2387.00, 
2388.00, 
2389.00, 
2390.00, 
2391.00, 
2392.00, 
2393.00, 
2394.00, 
2395.00, 
2396.00, 
2397.00, 
2398.00, 
2399.00, 
2400.00, 
2401.00, 
2402.00, 
2403.00, 
2404.00, 
2405.00, 
2406.00, 
2407.00, 
2408.00, 
2409.00, 
2410.00, 
2411.00, 
2412.00, 
2413.00, 
2414.00, 
2415.00, 
2416.00, 
2417.00, 
2418.00, 
2419.00, 
2420.00, 
2421.00, 
2422.00, 
2423.00, 
2424.00, 
2425.00, 
2426.00, 
2427.00, 
2428.00, 
2429.00, 
2430.00, 
2431.00, 
2432.00, 
2433.00, 
2434.00, 
2435.00, 
2436.00, 
2437.00, 
2438.00, 
2439.00, 
2440.00, 
2441.00, 
2442.00, 
2443.00, 
2444.00, 
2445.00, 
2446.00, 
2447.00, 
2448.00, 
2449.00, 
2450.00, 
2451.00, 
2452.00, 
2453.00, 
2454.00, 
2455.00, 
2456.00, 
2457.00, 
2458.00, 
2459.00, 
2460.00, 
2461.00, 
2462.00, 
2463.00, 
2464.00, 
2465.00, 
2466.00, 
2467.00, 
2468.00, 
2469.00, 
2470.00, 
2471.00, 
2472.00, 
2473.00, 
2474.00, 
2475.00, 
2476.00, 
2477.00, 
2478.00, 
2479.00, 
2480.00, 
2481.00, 
2482.00, 
2483.00, 
2484.00, 
2485.00, 
2486.00, 
2487.00, 
2488.00, 
2489.00, 
2490.00, 
2491.00, 
2492.00, 
2493.00, 
2494.00, 
2495.00, 
2496.00, 
2497.00, 
2498.00, 
2499.00, 
2500.00, 
2501.00, 
2502.00, 
2503.00, 
2504.00, 
2505.00, 
2506.00, 
2507.00, 
2508.00, 
2509.00, 
2510.00, 
2511.00, 
2512.00, 
2513.00, 
2514.00, 
2515.00, 
2516.00, 
2517.00, 
2518.00, 
2519.00, 
2520.00, 
2521.00, 
2522.00, 
2523.00, 
2524.00, 
2525.00, 
2526.00, 
2527.00, 
2528.00, 
2529.00, 
2530.00, 
2531.00, 
2532.00, 
2533.00, 
2534.00, 
2535.00, 
2536.00, 
2537.00, 
2538.00, 
2539.00, 
2540.00, 
2541.00, 
2542.00, 
2543.00, 
2544.00, 
2545.00, 
2546.00, 
2547.00, 
2548.00, 
2549.00, 
2550.00, 
2551.00, 
2552.00, 
2553.00, 
2554.00, 
2555.00, 
2556.00, 
2557.00, 
2558.00, 
2559.00, 
2560.00, 
2561.00, 
2562.00, 
2563.00, 
2564.00, 
2565.00, 
2566.00, 
2567.00, 
2568.00, 
2569.00, 
2570.00, 
2571.00, 
2572.00, 
2573.00, 
2574.00, 
2575.00, 
2576.00, 
2577.00, 
2578.00, 
2579.00, 
2580.00, 
2581.00, 
2582.00, 
2583.00, 
2584.00, 
2585.00, 
2586.00, 
2587.00, 
2588.00, 
2589.00, 
2590.00, 
2591.00, 
2592.00, 
2593.00, 
2594.00, 
2595.00, 
2596.00, 
2597.00, 
2598.00, 
2599.00, 
2600.00, 
