"2cP2 - RawData"
"Wavelength nm.","T%"
200.00,0.002
201.00,0.002
202.00,-0.000
203.00,0.000
204.00,0.001
205.00,0.003
206.00,0.001
207.00,0.003
208.00,0.004
209.00,0.002
210.00,0.004
211.00,0.001
212.00,0.004
213.00,0.002
214.00,0.001
215.00,0.001
216.00,0.001
217.00,0.002
218.00,0.002
219.00,0.001
220.00,0.003
221.00,0.004
222.00,0.002
223.00,0.003
224.00,0.001
225.00,-0.002
226.00,0.001
227.00,0.001
228.00,0.002
229.00,-0.001
230.00,-0.001
231.00,0.002
232.00,0.001
233.00,-0.001
234.00,0.002
235.00,0.001
236.00,0.001
237.00,0.000
238.00,0.000
239.00,0.002
240.00,-0.000
241.00,0.002
242.00,-0.001
243.00,-0.001
244.00,-0.002
245.00,0.002
246.00,0.001
247.00,-0.001
248.00,0.000
249.00,0.000
250.00,-0.001
251.00,0.001
252.00,0.002
253.00,0.000
254.00,0.003
255.00,0.000
256.00,-0.002
257.00,0.000
258.00,-0.001
259.00,-0.000
260.00,-0.001
261.00,-0.000
262.00,0.001
263.00,0.001
264.00,-0.001
265.00,-0.001
266.00,-0.001
267.00,0.000
268.00,0.001
269.00,0.001
270.00,0.000
271.00,0.002
272.00,-0.001
273.00,-0.001
274.00,0.001
275.00,0.000
276.00,0.001
277.00,-0.001
278.00,-0.002
279.00,0.001
280.00,-0.001
281.00,-0.001
282.00,-0.001
283.00,-0.001
284.00,0.002
285.00,0.001
286.00,-0.000
287.00,0.002
288.00,0.002
289.00,0.001
290.00,-0.001
291.00,0.000
292.00,-0.001
293.00,-0.001
294.00,0.000
295.00,0.001
296.00,0.000
297.00,-0.001
298.00,0.001
299.00,0.002
300.00,0.002
301.00,0.005
302.00,0.009
303.00,0.014
304.00,0.018
305.00,0.030
306.00,0.045
307.00,0.072
308.00,0.107
309.00,0.167
310.00,0.236
311.00,0.315
312.00,0.432
313.00,0.586
314.00,0.772
315.00,1.011
316.00,1.302
317.00,1.642
318.00,2.029
319.00,2.484
320.00,3.022
321.00,3.616
322.00,4.307
323.00,5.061
324.00,5.873
325.00,6.723
326.00,7.573
327.00,8.585
328.00,9.607
329.00,10.615
330.00,11.718
331.00,12.818
332.00,13.966
333.00,15.169
334.00,16.301
335.00,17.516
336.00,18.441
337.00,19.845
338.00,20.951
339.00,21.965
340.00,23.106
341.00,24.169
342.00,25.222
343.00,26.225
344.00,27.140
345.00,28.052
346.00,28.832
347.00,29.701
348.00,30.467
349.00,31.181
350.00,31.860
351.00,32.585
352.00,33.163
353.00,33.783
354.00,34.375
355.00,34.892
356.00,35.457
357.00,35.895
358.00,36.288
359.00,36.779
360.00,37.097
361.00,37.456
362.00,37.787
363.00,38.211
364.00,38.473
365.00,38.760
366.00,39.041
367.00,39.154
368.00,39.339
369.00,39.561
370.00,39.686
371.00,39.809
372.00,39.886
373.00,39.965
374.00,39.993
375.00,40.057
376.00,40.049
377.00,40.056
378.00,40.003
379.00,39.987
380.00,39.960
381.00,40.039
382.00,40.140
383.00,40.156
384.00,40.295
385.00,40.455
386.00,40.509
387.00,40.615
388.00,40.792
389.00,40.919
390.00,41.011
391.00,41.139
392.00,41.237
393.00,41.252
394.00,41.362
395.00,41.465
396.00,41.490
397.00,41.545
398.00,41.591
399.00,41.633
400.00,41.656
401.00,41.679
402.00,41.666
403.00,41.761
404.00,41.965
405.00,41.828
406.00,41.831
407.00,41.803
408.00,41.746
409.00,41.703
410.00,41.638
411.00,41.648
412.00,41.573
413.00,41.615
414.00,41.590
415.00,41.577
416.00,41.613
417.00,41.601
418.00,41.620
419.00,41.642
420.00,41.678
421.00,41.813
422.00,41.844
423.00,41.845
424.00,41.835
425.00,41.905
426.00,41.912
427.00,41.941
428.00,41.949
429.00,41.976
430.00,41.972
431.00,42.037
432.00,42.040
433.00,42.046
434.00,42.087
435.00,42.160
436.00,42.169
437.00,42.232
438.00,42.266
439.00,42.274
440.00,42.383
441.00,42.381
442.00,42.414
443.00,42.483
444.00,42.545
445.00,42.551
446.00,42.646
447.00,42.682
448.00,42.773
449.00,42.856
450.00,42.920
451.00,42.958
452.00,43.028
453.00,43.111
454.00,43.128
455.00,43.220
456.00,43.278
457.00,43.345
458.00,43.394
459.00,43.440
460.00,43.484
461.00,43.690
462.00,43.661
463.00,43.697
464.00,43.845
465.00,43.840
466.00,43.889
467.00,44.001
468.00,44.001
469.00,44.045
470.00,44.072
471.00,44.129
472.00,44.161
473.00,44.157
474.00,44.166
475.00,44.234
476.00,44.369
477.00,44.394
478.00,44.469
479.00,44.501
480.00,44.616
481.00,44.704
482.00,44.800
483.00,44.906
484.00,44.956
485.00,45.081
486.00,45.129
487.00,45.266
488.00,45.319
489.00,45.461
490.00,45.510
491.00,45.540
492.00,45.723
493.00,45.697
494.00,45.697
495.00,45.794
496.00,45.842
497.00,45.898
498.00,45.984
499.00,46.083
500.00,46.060
501.00,46.023
502.00,46.273
503.00,46.287
504.00,46.341
505.00,46.460
506.00,46.529
507.00,46.513
508.00,46.530
509.00,46.664
510.00,46.725
511.00,46.696
512.00,46.813
513.00,46.858
514.00,46.866
515.00,47.011
516.00,46.991
517.00,46.939
518.00,47.257
519.00,47.204
520.00,47.225
521.00,47.259
522.00,47.288
523.00,47.300
524.00,47.364
525.00,47.481
526.00,47.474
527.00,47.577
528.00,47.549
529.00,47.674
530.00,47.641
531.00,47.866
532.00,47.816
533.00,47.927
534.00,47.929
535.00,47.979
536.00,48.065
537.00,48.117
538.00,48.164
539.00,48.165
540.00,48.188
541.00,48.217
542.00,48.240
543.00,48.289
544.00,48.345
545.00,48.352
546.00,48.360
547.00,48.467
548.00,48.496
549.00,48.529
550.00,48.609
551.00,48.651
552.00,48.709
553.00,48.711
554.00,48.821
555.00,48.752
556.00,48.768
557.00,48.834
558.00,48.899
559.00,48.956
560.00,48.887
561.00,48.992
562.00,49.016
563.00,48.939
564.00,49.007
565.00,49.060
566.00,49.059
567.00,48.980
568.00,49.078
569.00,49.059
570.00,48.768
571.00,49.079
572.00,49.096
573.00,48.989
574.00,49.106
575.00,49.040
576.00,48.975
577.00,49.222
578.00,49.266
579.00,49.315
580.00,49.374
581.00,49.454
582.00,49.512
583.00,49.540
584.00,49.637
585.00,49.606
586.00,49.675
587.00,49.743
588.00,49.755
589.00,49.633
590.00,49.609
591.00,49.733
592.00,49.771
593.00,49.755
594.00,49.844
595.00,49.914
596.00,49.934
597.00,49.908
598.00,50.038
599.00,49.964
600.00,50.026
601.00,50.060
602.00,50.112
603.00,50.050
604.00,50.046
605.00,50.062
606.00,50.090
607.00,50.102
608.00,50.208
609.00,50.129
610.00,50.123
611.00,50.181
612.00,50.191
613.00,50.127
614.00,50.178
615.00,50.179
616.00,50.238
617.00,50.223
618.00,50.317
619.00,50.289
620.00,50.252
621.00,50.260
622.00,50.353
623.00,50.404
624.00,50.344
625.00,50.384
626.00,50.396
627.00,50.468
628.00,50.405
629.00,50.369
630.00,50.410
631.00,50.395
632.00,50.453
633.00,50.499
634.00,50.441
635.00,50.533
636.00,50.611
637.00,50.559
638.00,50.605
639.00,50.636
640.00,50.558
641.00,50.633
642.00,50.642
643.00,50.637
644.00,50.661
645.00,50.718
646.00,50.735
647.00,50.719
648.00,50.661
649.00,50.816
650.00,50.762
651.00,50.778
652.00,50.868
653.00,50.950
654.00,50.850
655.00,50.839
656.00,50.888
657.00,50.955
658.00,50.980
659.00,50.948
660.00,50.918
661.00,50.928
662.00,50.977
663.00,50.977
664.00,51.033
665.00,51.046
666.00,51.105
667.00,51.115
668.00,51.119
669.00,51.186
670.00,51.112
671.00,51.122
672.00,51.081
673.00,51.160
674.00,51.224
675.00,51.159
676.00,51.240
677.00,51.204
678.00,51.057
679.00,51.255
680.00,51.226
681.00,51.127
682.00,51.268
683.00,51.254
684.00,51.316
685.00,51.210
686.00,51.203
687.00,51.268
688.00,51.372
689.00,51.291
690.00,51.283
691.00,51.374
692.00,51.279
693.00,51.271
694.00,51.245
695.00,51.366
696.00,51.368
697.00,51.419
698.00,51.443
699.00,51.431
700.00,51.481
701.00,51.403
702.00,51.466
703.00,51.513
704.00,51.423
705.00,51.351
706.00,51.392
707.00,51.462
708.00,51.251
709.00,51.313
710.00,51.583
711.00,51.206
712.00,51.074
713.00,51.357
714.00,51.407
715.00,51.370
716.00,51.348
717.00,51.477
718.00,51.375
719.00,51.348
720.00,51.341
721.00,55.653
722.00,55.597
723.00,55.652
724.00,55.546
725.00,55.453
726.00,55.442
727.00,55.379
728.00,55.411
729.00,55.275
730.00,55.244
731.00,55.166
732.00,55.165
733.00,55.142
734.00,55.113
735.00,54.981
736.00,55.040
737.00,54.978
738.00,54.969
739.00,55.058
740.00,54.860
741.00,54.922
742.00,54.861
743.00,54.810
744.00,54.735
745.00,54.709
746.00,54.717
747.00,54.684
748.00,54.603
749.00,54.514
750.00,54.450
751.00,54.380
752.00,54.349
753.00,54.327
754.00,54.251
755.00,54.228
756.00,54.226
757.00,54.144
758.00,54.111
759.00,54.164
760.00,54.112
761.00,54.134
762.00,54.056
763.00,54.009
764.00,53.941
765.00,53.934
766.00,53.905
767.00,53.891
768.00,53.806
769.00,53.794
770.00,53.798
771.00,53.780
772.00,53.712
773.00,53.673
774.00,53.653
775.00,53.711
776.00,53.659
777.00,53.638
778.00,53.567
779.00,53.629
780.00,53.509
781.00,53.522
782.00,53.451
783.00,53.437
784.00,53.350
785.00,53.294
786.00,53.312
787.00,53.343
788.00,53.249
789.00,53.283
790.00,53.144
791.00,53.209
792.00,53.169
793.00,53.035
794.00,53.016
795.00,53.052
796.00,52.991
797.00,52.917
798.00,52.888
799.00,52.909
800.00,52.828
801.00,52.841
802.00,52.714
803.00,52.781
804.00,52.635
805.00,52.641
806.00,52.601
807.00,52.602
808.00,52.597
809.00,52.531
810.00,52.523
811.00,52.493
812.00,52.441
813.00,52.442
814.00,52.419
815.00,52.329
816.00,52.392
817.00,52.313
818.00,52.175
819.00,52.265
820.00,52.151
821.00,52.182
822.00,52.132
823.00,52.144
824.00,52.105
825.00,52.102
826.00,52.055
827.00,52.085
828.00,51.987
829.00,51.981
830.00,51.920
831.00,54.510
832.00,54.487
833.00,54.469
834.00,54.422
835.00,54.389
836.00,54.375
837.00,54.342
838.00,54.296
839.00,54.264
840.00,54.219
841.00,54.233
842.00,54.194
843.00,54.174
844.00,54.192
845.00,54.075
846.00,54.113
847.00,54.080
848.00,54.013
849.00,53.910
850.00,53.903
851.00,53.870
852.00,53.858
853.00,53.802
854.00,53.738
855.00,53.826
856.00,53.699
857.00,53.649
858.00,53.619
859.00,53.564
860.00,53.530
861.00,53.541
862.00,53.463
863.00,53.468
864.00,53.444
865.00,53.454
866.00,53.429
867.00,53.424
868.00,53.401
869.00,53.355
870.00,53.367
871.00,53.320
872.00,53.301
873.00,53.295
874.00,53.300
875.00,53.280
876.00,53.295
877.00,53.229
878.00,53.228
879.00,53.184
880.00,53.180
881.00,53.154
882.00,53.127
883.00,53.114
884.00,53.045
885.00,53.139
886.00,53.018
887.00,53.008
888.00,52.972
889.00,52.925
890.00,52.906
891.00,52.862
892.00,52.865
893.00,52.812
894.00,52.811
895.00,52.803
896.00,52.778
897.00,52.783
898.00,52.733
899.00,52.714
900.00,52.725
901.00,52.710
902.00,52.723
903.00,52.671
904.00,52.646
905.00,52.615
906.00,52.611
907.00,52.565
908.00,52.539
909.00,52.548
910.00,52.482
911.00,52.510
912.00,52.496
913.00,52.408
914.00,52.391
915.00,52.349
916.00,52.349
917.00,52.318
918.00,52.303
919.00,52.268
920.00,52.244
921.00,52.229
922.00,52.232
923.00,52.208
924.00,52.193
925.00,52.120
926.00,52.348
927.00,52.129
928.00,52.087
929.00,52.078
930.00,52.036
931.00,52.043
932.00,52.000
933.00,51.987
934.00,51.978
935.00,51.971
936.00,51.952
937.00,51.905
938.00,51.892
939.00,51.898
940.00,51.826
941.00,51.880
942.00,51.797
943.00,51.822
944.00,51.757
945.00,51.756
946.00,51.740
947.00,51.703
948.00,51.691
949.00,51.669
950.00,51.650
951.00,51.622
952.00,51.589
953.00,51.613
954.00,51.586
955.00,51.500
956.00,51.500
957.00,51.454
958.00,51.472
959.00,51.419
960.00,51.401
961.00,51.380
962.00,51.393
963.00,51.339
964.00,51.336
965.00,51.317
966.00,51.300
967.00,51.280
968.00,51.276
969.00,51.289
970.00,51.277
971.00,51.289
972.00,51.259
973.00,51.280
974.00,51.308
975.00,51.265
976.00,51.294
977.00,51.254
978.00,51.299
979.00,51.255
980.00,51.281
981.00,51.280
982.00,51.252
983.00,51.263
984.00,51.254
985.00,51.250
986.00,51.175
987.00,51.273
988.00,51.197
989.00,51.171
990.00,51.181
991.00,51.152
992.00,51.173
993.00,51.143
994.00,51.120
995.00,51.111
996.00,51.101
997.00,51.096
998.00,51.074
999.00,51.084
1000.00,51.001
1001.00,51.059
1002.00,51.099
1003.00,51.017
1004.00,51.008
1005.00,50.982
1006.00,51.002
1007.00,50.969
1008.00,50.953
1009.00,50.936
1010.00,50.914
1011.00,50.903
1012.00,50.880
1013.00,50.888
1014.00,50.841
1015.00,50.857
1016.00,50.818
1017.00,50.843
1018.00,50.810
1019.00,50.764
1020.00,50.764
1021.00,50.729
1022.00,50.737
1023.00,50.684
1024.00,50.680
1025.00,50.671
1026.00,50.664
1027.00,50.647
1028.00,50.647
1029.00,50.630
1030.00,50.613
1031.00,50.615
1032.00,50.562
1033.00,50.557
1034.00,50.532
1035.00,50.490
1036.00,50.479
1037.00,50.466
1038.00,50.435
1039.00,50.417
1040.00,50.410
1041.00,50.383
1042.00,50.375
1043.00,50.342
1044.00,50.360
1045.00,50.349
1046.00,50.343
1047.00,50.334
1048.00,50.342
1049.00,50.358
1050.00,50.362
1051.00,50.396
1052.00,50.395
1053.00,50.409
1054.00,50.392
1055.00,50.422
1056.00,50.427
1057.00,50.424
1058.00,50.420
1059.00,50.422
1060.00,50.415
1061.00,50.395
1062.00,50.404
1063.00,50.434
1064.00,50.381
1065.00,50.381
1066.00,50.370
1067.00,50.367
1068.00,50.368
1069.00,50.342
1070.00,50.332
1071.00,50.312
1072.00,50.345
1073.00,50.313
1074.00,50.308
1075.00,50.292
1076.00,50.284
1077.00,50.276
1078.00,50.284
1079.00,50.257
1080.00,50.257
1081.00,50.240
1082.00,50.230
1083.00,50.227
1084.00,50.207
1085.00,50.195
1086.00,50.209
1087.00,50.189
1088.00,50.168
1089.00,50.172
1090.00,50.161
1091.00,50.155
1092.00,50.141
1093.00,50.119
1094.00,50.100
1095.00,50.090
1096.00,50.084
1097.00,50.085
1098.00,50.069
1099.00,50.059
1100.00,50.063
1101.00,50.034
1102.00,50.040
1103.00,50.042
1104.00,50.021
1105.00,50.006
1106.00,50.002
1107.00,50.000
1108.00,50.000
1109.00,49.981
1110.00,49.977
1111.00,49.978
1112.00,49.954
1113.00,49.937
1114.00,49.949
1115.00,49.934
1116.00,49.924
1117.00,49.915
1118.00,49.900
1119.00,49.891
1120.00,49.888
1121.00,49.897
1122.00,49.882
1123.00,49.859
1124.00,49.868
1125.00,49.853
1126.00,49.843
1127.00,49.842
1128.00,49.834
1129.00,49.817
1130.00,49.812
1131.00,49.812
1132.00,49.801
1133.00,49.801
1134.00,49.782
1135.00,49.782
1136.00,49.780
1137.00,49.761
1138.00,49.767
1139.00,49.769
1140.00,49.757
1141.00,49.745
1142.00,49.744
1143.00,49.753
1144.00,49.739
1145.00,49.734
1146.00,49.745
1147.00,49.734
1148.00,49.717
1149.00,49.728
1150.00,49.726
1151.00,49.726
1152.00,49.713
1153.00,49.699
1154.00,49.703
1155.00,49.705
1156.00,49.677
1157.00,49.679
1158.00,49.678
1159.00,49.671
1160.00,49.667
1161.00,49.672
1162.00,49.663
1163.00,49.668
1164.00,49.654
1165.00,49.647
1166.00,49.662
1167.00,49.645
1168.00,49.659
1169.00,49.659
1170.00,49.655
1171.00,49.621
1172.00,49.635
1173.00,49.650
1174.00,49.649
1175.00,49.649
1176.00,49.637
1177.00,49.641
1178.00,49.626
1179.00,49.639
1180.00,49.636
1181.00,49.639
1182.00,49.637
1183.00,49.630
1184.00,49.621
1185.00,49.630
1186.00,49.607
1187.00,49.617
1188.00,49.617
1189.00,49.610
1190.00,49.611
1191.00,49.616
1192.00,49.616
1193.00,49.611
1194.00,49.633
1195.00,49.589
1196.00,49.615
1197.00,49.614
1198.00,49.609
1199.00,49.599
1200.00,49.588
1201.00,49.600
1202.00,49.569
1203.00,49.574
1204.00,49.568
1205.00,49.592
1206.00,49.568
1207.00,49.580
1208.00,49.572
1209.00,49.566
1210.00,49.590
1211.00,49.586
1212.00,49.607
1213.00,49.586
1214.00,49.581
1215.00,49.573
1216.00,49.567
1217.00,49.576
1218.00,49.562
1219.00,49.567
1220.00,49.565
1221.00,49.577
1222.00,49.564
1223.00,49.588
1224.00,49.578
1225.00,49.577
1226.00,49.576
1227.00,49.570
1228.00,49.581
1229.00,49.590
1230.00,49.606
1231.00,49.598
1232.00,49.617
1233.00,49.605
1234.00,49.623
1235.00,49.608
1236.00,49.613
1237.00,49.607
1238.00,49.610
1239.00,49.614
1240.00,49.634
1241.00,49.625
1242.00,49.629
1243.00,49.656
1244.00,49.620
1245.00,49.648
1246.00,49.661
1247.00,49.645
1248.00,49.638
1249.00,49.636
1250.00,49.648
1251.00,49.652
1252.00,49.657
1253.00,49.653
1254.00,49.679
1255.00,49.669
1256.00,49.622
1257.00,49.632
1258.00,49.679
1259.00,49.691
1260.00,49.686
1261.00,49.684
1262.00,49.688
1263.00,49.666
1264.00,49.685
1265.00,49.695
1266.00,49.687
1267.00,49.699
1268.00,49.703
1269.00,49.691
1270.00,49.704
1271.00,49.720
1272.00,49.725
1273.00,49.731
1274.00,49.726
1275.00,49.723
1276.00,49.747
1277.00,49.735
1278.00,49.756
1279.00,49.751
1280.00,49.739
1281.00,49.760
1282.00,49.770
1283.00,49.749
1284.00,49.749
1285.00,49.741
1286.00,49.749
1287.00,49.750
1288.00,49.764
1289.00,49.753
1290.00,49.781
1291.00,49.778
1292.00,49.791
1293.00,49.782
1294.00,49.799
1295.00,49.808
1296.00,49.805
1297.00,49.814
1298.00,49.837
1299.00,49.813
1300.00,49.823
1301.00,49.838
1302.00,49.843
1303.00,49.865
1304.00,49.841
1305.00,49.859
1306.00,49.877
1307.00,49.871
1308.00,49.869
1309.00,49.879
1310.00,49.880
1311.00,49.874
1312.00,49.882
1313.00,49.876
1314.00,49.886
1315.00,49.890
1316.00,49.899
1317.00,49.923
1318.00,49.902
1319.00,49.904
1320.00,49.961
1321.00,50.085
1322.00,50.095
1323.00,50.081
1324.00,50.083
1325.00,50.061
1326.00,50.098
1327.00,50.084
1328.00,50.086
1329.00,50.078
1330.00,50.076
1331.00,50.069
1332.00,50.065
1333.00,50.070
1334.00,50.112
1335.00,50.120
1336.00,50.152
1337.00,50.177
1338.00,50.254
1339.00,50.305
1340.00,50.358
1341.00,50.406
1342.00,50.481
1343.00,50.527
1344.00,50.566
1345.00,50.639
1346.00,50.666
1347.00,50.701
1348.00,50.715
1349.00,50.746
1350.00,50.743
1351.00,50.766
1352.00,50.774
1353.00,50.821
1354.00,50.804
1355.00,50.741
1356.00,50.835
1357.00,50.782
1358.00,50.798
1359.00,50.822
1360.00,50.890
1361.00,51.026
1362.00,50.695
1363.00,50.929
1364.00,50.977
1365.00,50.806
1366.00,50.877
1367.00,50.832
1368.00,50.700
1369.00,50.805
1370.00,50.795
1371.00,50.742
1372.00,50.795
1373.00,50.801
1374.00,50.795
1375.00,50.772
1376.00,50.774
1377.00,50.762
1378.00,50.718
1379.00,50.779
1380.00,50.834
1381.00,50.773
1382.00,50.786
1383.00,50.761
1384.00,50.741
1385.00,50.744
1386.00,50.784
1387.00,50.697
1388.00,50.733
1389.00,50.703
1390.00,50.817
1391.00,50.767
1392.00,50.711
1393.00,50.689
1394.00,50.695
1395.00,50.727
1396.00,50.739
1397.00,50.639
1398.00,50.800
1399.00,50.767
1400.00,50.737
1401.00,50.670
1402.00,50.840
1403.00,50.796
1404.00,50.652
1405.00,50.804
1406.00,50.771
1407.00,50.796
1408.00,50.813
1409.00,50.582
1410.00,50.831
1411.00,50.682
1412.00,50.862
1413.00,50.795
1414.00,50.817
1415.00,50.866
1416.00,50.885
1417.00,50.894
1418.00,50.879
1419.00,50.871
1420.00,50.917
1421.00,50.932
1422.00,50.921
1423.00,50.924
1424.00,50.940
1425.00,50.950
1426.00,50.957
1427.00,50.986
1428.00,50.990
1429.00,51.013
1430.00,51.018
1431.00,51.021
1432.00,51.032
1433.00,51.063
1434.00,51.049
1435.00,51.101
1436.00,51.119
1437.00,51.103
1438.00,51.118
1439.00,51.156
1440.00,51.163
1441.00,51.176
1442.00,51.174
1443.00,51.204
1444.00,51.233
1445.00,51.210
1446.00,51.232
1447.00,51.274
1448.00,51.306
1449.00,51.312
1450.00,51.296
1451.00,51.312
1452.00,51.333
1453.00,51.358
1454.00,51.352
1455.00,51.385
1456.00,51.393
1457.00,51.409
1458.00,51.420
1459.00,51.437
1460.00,51.448
1461.00,51.451
1462.00,51.482
1463.00,51.498
1464.00,51.500
1465.00,51.503
1466.00,51.512
1467.00,51.539
1468.00,51.581
1469.00,51.570
1470.00,51.563
1471.00,51.594
1472.00,51.607
1473.00,51.617
1474.00,51.647
1475.00,51.651
1476.00,51.668
1477.00,51.659
1478.00,51.664
1479.00,51.694
1480.00,51.692
1481.00,51.719
1482.00,51.750
1483.00,51.759
1484.00,51.770
1485.00,51.774
1486.00,51.784
1487.00,51.796
1488.00,51.813
1489.00,51.808
1490.00,51.825
1491.00,51.820
1492.00,51.839
1493.00,51.829
1494.00,51.849
1495.00,51.874
1496.00,51.865
1497.00,51.890
1498.00,51.889
1499.00,51.904
1500.00,51.914
1501.00, 
1502.00, 
1503.00, 
1504.00, 
1505.00, 
1506.00, 
1507.00, 
1508.00, 
1509.00, 
1510.00, 
1511.00, 
1512.00, 
1513.00, 
1514.00, 
1515.00, 
1516.00, 
1517.00, 
1518.00, 
1519.00, 
1520.00, 
1521.00, 
1522.00, 
1523.00, 
1524.00, 
1525.00, 
1526.00, 
1527.00, 
1528.00, 
1529.00, 
1530.00, 
1531.00, 
1532.00, 
1533.00, 
1534.00, 
1535.00, 
1536.00, 
1537.00, 
1538.00, 
1539.00, 
1540.00, 
1541.00, 
1542.00, 
1543.00, 
1544.00, 
1545.00, 
1546.00, 
1547.00, 
1548.00, 
1549.00, 
1550.00, 
1551.00, 
1552.00, 
1553.00, 
1554.00, 
1555.00, 
1556.00, 
1557.00, 
1558.00, 
1559.00, 
1560.00, 
1561.00, 
1562.00, 
1563.00, 
1564.00, 
1565.00, 
1566.00, 
1567.00, 
1568.00, 
1569.00, 
1570.00, 
1571.00, 
1572.00, 
1573.00, 
1574.00, 
1575.00, 
1576.00, 
1577.00, 
1578.00, 
1579.00, 
1580.00, 
1581.00, 
1582.00, 
1583.00, 
1584.00, 
1585.00, 
1586.00, 
1587.00, 
1588.00, 
1589.00, 
1590.00, 
1591.00, 
1592.00, 
1593.00, 
1594.00, 
1595.00, 
1596.00, 
1597.00, 
1598.00, 
1599.00, 
1600.00, 
1601.00, 
1602.00, 
1603.00, 
1604.00, 
1605.00, 
1606.00, 
1607.00, 
1608.00, 
1609.00, 
1610.00, 
1611.00, 
1612.00, 
1613.00, 
1614.00, 
1615.00, 
1616.00, 
1617.00, 
1618.00, 
1619.00, 
1620.00, 
1621.00, 
1622.00, 
1623.00, 
1624.00, 
1625.00, 
1626.00, 
1627.00, 
1628.00, 
1629.00, 
1630.00, 
1631.00, 
1632.00, 
1633.00, 
1634.00, 
1635.00, 
1636.00, 
1637.00, 
1638.00, 
1639.00, 
1640.00, 
1641.00, 
1642.00, 
1643.00, 
1644.00, 
1645.00, 
1646.00, 
1647.00, 
1648.00, 
1649.00, 
1650.00, 
1651.00, 
1652.00, 
1653.00, 
1654.00, 
1655.00, 
1656.00, 
1657.00, 
1658.00, 
1659.00, 
1660.00, 
1661.00, 
1662.00, 
1663.00, 
1664.00, 
1665.00, 
1666.00, 
1667.00, 
1668.00, 
1669.00, 
1670.00, 
1671.00, 
1672.00, 
1673.00, 
1674.00, 
1675.00, 
1676.00, 
1677.00, 
1678.00, 
1679.00, 
1680.00, 
1681.00, 
1682.00, 
1683.00, 
1684.00, 
1685.00, 
1686.00, 
1687.00, 
1688.00, 
1689.00, 
1690.00, 
1691.00, 
1692.00, 
1693.00, 
1694.00, 
1695.00, 
1696.00, 
1697.00, 
1698.00, 
1699.00, 
1700.00, 
1701.00, 
1702.00, 
1703.00, 
1704.00, 
1705.00, 
1706.00, 
1707.00, 
1708.00, 
1709.00, 
1710.00, 
1711.00, 
1712.00, 
1713.00, 
1714.00, 
1715.00, 
1716.00, 
1717.00, 
1718.00, 
1719.00, 
1720.00, 
1721.00, 
1722.00, 
1723.00, 
1724.00, 
1725.00, 
1726.00, 
1727.00, 
1728.00, 
1729.00, 
1730.00, 
1731.00, 
1732.00, 
1733.00, 
1734.00, 
1735.00, 
1736.00, 
1737.00, 
1738.00, 
1739.00, 
1740.00, 
1741.00, 
1742.00, 
1743.00, 
1744.00, 
1745.00, 
1746.00, 
1747.00, 
1748.00, 
1749.00, 
1750.00, 
1751.00, 
1752.00, 
1753.00, 
1754.00, 
1755.00, 
1756.00, 
1757.00, 
1758.00, 
1759.00, 
1760.00, 
1761.00, 
1762.00, 
1763.00, 
1764.00, 
1765.00, 
1766.00, 
1767.00, 
1768.00, 
1769.00, 
1770.00, 
1771.00, 
1772.00, 
1773.00, 
1774.00, 
1775.00, 
1776.00, 
1777.00, 
1778.00, 
1779.00, 
1780.00, 
1781.00, 
1782.00, 
1783.00, 
1784.00, 
1785.00, 
1786.00, 
1787.00, 
1788.00, 
1789.00, 
1790.00, 
1791.00, 
1792.00, 
1793.00, 
1794.00, 
1795.00, 
1796.00, 
1797.00, 
1798.00, 
1799.00, 
1800.00, 
1801.00, 
1802.00, 
1803.00, 
1804.00, 
1805.00, 
1806.00, 
1807.00, 
1808.00, 
1809.00, 
1810.00, 
1811.00, 
1812.00, 
1813.00, 
1814.00, 
1815.00, 
1816.00, 
1817.00, 
1818.00, 
1819.00, 
1820.00, 
1821.00, 
1822.00, 
1823.00, 
1824.00, 
1825.00, 
1826.00, 
1827.00, 
1828.00, 
1829.00, 
1830.00, 
1831.00, 
1832.00, 
1833.00, 
1834.00, 
1835.00, 
1836.00, 
1837.00, 
1838.00, 
1839.00, 
1840.00, 
1841.00, 
1842.00, 
1843.00, 
1844.00, 
1845.00, 
1846.00, 
1847.00, 
1848.00, 
1849.00, 
1850.00, 
1851.00, 
1852.00, 
1853.00, 
1854.00, 
1855.00, 
1856.00, 
1857.00, 
1858.00, 
1859.00, 
1860.00, 
1861.00, 
1862.00, 
1863.00, 
1864.00, 
1865.00, 
1866.00, 
1867.00, 
1868.00, 
1869.00, 
1870.00, 
1871.00, 
1872.00, 
1873.00, 
1874.00, 
1875.00, 
1876.00, 
1877.00, 
1878.00, 
1879.00, 
1880.00, 
1881.00, 
1882.00, 
1883.00, 
1884.00, 
1885.00, 
1886.00, 
1887.00, 
1888.00, 
1889.00, 
1890.00, 
1891.00, 
1892.00, 
1893.00, 
1894.00, 
1895.00, 
1896.00, 
1897.00, 
1898.00, 
1899.00, 
1900.00, 
1901.00, 
1902.00, 
1903.00, 
1904.00, 
1905.00, 
1906.00, 
1907.00, 
1908.00, 
1909.00, 
1910.00, 
1911.00, 
1912.00, 
1913.00, 
1914.00, 
1915.00, 
1916.00, 
1917.00, 
1918.00, 
1919.00, 
1920.00, 
1921.00, 
1922.00, 
1923.00, 
1924.00, 
1925.00, 
1926.00, 
1927.00, 
1928.00, 
1929.00, 
1930.00, 
1931.00, 
1932.00, 
1933.00, 
1934.00, 
1935.00, 
1936.00, 
1937.00, 
1938.00, 
1939.00, 
1940.00, 
1941.00, 
1942.00, 
1943.00, 
1944.00, 
1945.00, 
1946.00, 
1947.00, 
1948.00, 
1949.00, 
1950.00, 
1951.00, 
1952.00, 
1953.00, 
1954.00, 
1955.00, 
1956.00, 
1957.00, 
1958.00, 
1959.00, 
1960.00, 
1961.00, 
1962.00, 
1963.00, 
1964.00, 
1965.00, 
1966.00, 
1967.00, 
1968.00, 
1969.00, 
1970.00, 
1971.00, 
1972.00, 
1973.00, 
1974.00, 
1975.00, 
1976.00, 
1977.00, 
1978.00, 
1979.00, 
1980.00, 
1981.00, 
1982.00, 
1983.00, 
1984.00, 
1985.00, 
1986.00, 
1987.00, 
1988.00, 
1989.00, 
1990.00, 
1991.00, 
1992.00, 
1993.00, 
1994.00, 
1995.00, 
1996.00, 
1997.00, 
1998.00, 
1999.00, 
2000.00, 
2001.00, 
2002.00, 
2003.00, 
2004.00, 
2005.00, 
2006.00, 
2007.00, 
2008.00, 
2009.00, 
2010.00, 
2011.00, 
2012.00, 
2013.00, 
2014.00, 
2015.00, 
2016.00, 
2017.00, 
2018.00, 
2019.00, 
2020.00, 
2021.00, 
2022.00, 
2023.00, 
2024.00, 
2025.00, 
2026.00, 
2027.00, 
2028.00, 
2029.00, 
2030.00, 
2031.00, 
2032.00, 
2033.00, 
2034.00, 
2035.00, 
2036.00, 
2037.00, 
2038.00, 
2039.00, 
2040.00, 
2041.00, 
2042.00, 
2043.00, 
2044.00, 
2045.00, 
2046.00, 
2047.00, 
2048.00, 
2049.00, 
2050.00, 
2051.00, 
2052.00, 
2053.00, 
2054.00, 
2055.00, 
2056.00, 
2057.00, 
2058.00, 
2059.00, 
2060.00, 
2061.00, 
2062.00, 
2063.00, 
2064.00, 
2065.00, 
2066.00, 
2067.00, 
2068.00, 
2069.00, 
2070.00, 
2071.00, 
2072.00, 
2073.00, 
2074.00, 
2075.00, 
2076.00, 
2077.00, 
2078.00, 
2079.00, 
2080.00, 
2081.00, 
2082.00, 
2083.00, 
2084.00, 
2085.00, 
2086.00, 
2087.00, 
2088.00, 
2089.00, 
2090.00, 
2091.00, 
2092.00, 
2093.00, 
2094.00, 
2095.00, 
2096.00, 
2097.00, 
2098.00, 
2099.00, 
2100.00, 
2101.00, 
2102.00, 
2103.00, 
2104.00, 
2105.00, 
2106.00, 
2107.00, 
2108.00, 
2109.00, 
2110.00, 
2111.00, 
2112.00, 
2113.00, 
2114.00, 
2115.00, 
2116.00, 
2117.00, 
2118.00, 
2119.00, 
2120.00, 
2121.00, 
2122.00, 
2123.00, 
2124.00, 
2125.00, 
2126.00, 
2127.00, 
2128.00, 
2129.00, 
2130.00, 
2131.00, 
2132.00, 
2133.00, 
2134.00, 
2135.00, 
2136.00, 
2137.00, 
2138.00, 
2139.00, 
2140.00, 
2141.00, 
2142.00, 
2143.00, 
2144.00, 
2145.00, 
2146.00, 
2147.00, 
2148.00, 
2149.00, 
2150.00, 
2151.00, 
2152.00, 
2153.00, 
2154.00, 
2155.00, 
2156.00, 
2157.00, 
2158.00, 
2159.00, 
2160.00, 
2161.00, 
2162.00, 
2163.00, 
2164.00, 
2165.00, 
2166.00, 
2167.00, 
2168.00, 
2169.00, 
2170.00, 
2171.00, 
2172.00, 
2173.00, 
2174.00, 
2175.00, 
2176.00, 
2177.00, 
2178.00, 
2179.00, 
2180.00, 
2181.00, 
2182.00, 
2183.00, 
2184.00, 
2185.00, 
2186.00, 
2187.00, 
2188.00, 
2189.00, 
2190.00, 
2191.00, 
2192.00, 
2193.00, 
2194.00, 
2195.00, 
2196.00, 
2197.00, 
2198.00, 
2199.00, 
2200.00, 
2201.00, 
2202.00, 
2203.00, 
2204.00, 
2205.00, 
2206.00, 
2207.00, 
2208.00, 
2209.00, 
2210.00, 
2211.00, 
2212.00, 
2213.00, 
2214.00, 
2215.00, 
2216.00, 
2217.00, 
2218.00, 
2219.00, 
2220.00, 
2221.00, 
2222.00, 
2223.00, 
2224.00, 
2225.00, 
2226.00, 
2227.00, 
2228.00, 
2229.00, 
2230.00, 
2231.00, 
2232.00, 
2233.00, 
2234.00, 
2235.00, 
2236.00, 
2237.00, 
2238.00, 
2239.00, 
2240.00, 
2241.00, 
2242.00, 
2243.00, 
2244.00, 
2245.00, 
2246.00, 
2247.00, 
2248.00, 
2249.00, 
2250.00, 
2251.00, 
2252.00, 
2253.00, 
2254.00, 
2255.00, 
2256.00, 
2257.00, 
2258.00, 
2259.00, 
2260.00, 
2261.00, 
2262.00, 
2263.00, 
2264.00, 
2265.00, 
2266.00, 
2267.00, 
2268.00, 
2269.00, 
2270.00, 
2271.00, 
2272.00, 
2273.00, 
2274.00, 
2275.00, 
2276.00, 
2277.00, 
2278.00, 
2279.00, 
2280.00, 
2281.00, 
2282.00, 
2283.00, 
2284.00, 
2285.00, 
2286.00, 
2287.00, 
2288.00, 
2289.00, 
2290.00, 
2291.00, 
2292.00, 
2293.00, 
2294.00, 
2295.00, 
2296.00, 
2297.00, 
2298.00, 
2299.00, 
2300.00, 
2301.00, 
2302.00, 
2303.00, 
2304.00, 
2305.00, 
2306.00, 
2307.00, 
2308.00, 
2309.00, 
2310.00, 
2311.00, 
2312.00, 
2313.00, 
2314.00, 
2315.00, 
2316.00, 
2317.00, 
2318.00, 
2319.00, 
2320.00, 
2321.00, 
2322.00, 
2323.00, 
2324.00, 
2325.00, 
2326.00, 
2327.00, 
2328.00, 
2329.00, 
2330.00, 
2331.00, 
2332.00, 
2333.00, 
2334.00, 
2335.00, 
2336.00, 
2337.00, 
2338.00, 
2339.00, 
2340.00, 
2341.00, 
2342.00, 
2343.00, 
2344.00, 
2345.00, 
2346.00, 
2347.00, 
2348.00, 
2349.00, 
2350.00, 
2351.00, 
2352.00, 
2353.00, 
2354.00, 
2355.00, 
2356.00, 
2357.00, 
2358.00, 
2359.00, 
2360.00, 
2361.00, 
2362.00, 
2363.00, 
2364.00, 
2365.00, 
2366.00, 
2367.00, 
2368.00, 
2369.00, 
2370.00, 
2371.00, 
2372.00, 
2373.00, 
2374.00, 
2375.00, 
2376.00, 
2377.00, 
2378.00, 
2379.00, 
2380.00, 
2381.00, 
2382.00, 
2383.00, 
2384.00, 
2385.00, 
2386.00, 
2387.00, 
2388.00, 
2389.00, 
2390.00, 
2391.00, 
2392.00, 
2393.00, 
2394.00, 
2395.00, 
2396.00, 
2397.00, 
2398.00, 
2399.00, 
2400.00, 
2401.00, 
2402.00, 
2403.00, 
2404.00, 
2405.00, 
2406.00, 
2407.00, 
2408.00, 
2409.00, 
2410.00, 
2411.00, 
2412.00, 
2413.00, 
2414.00, 
2415.00, 
2416.00, 
2417.00, 
2418.00, 
2419.00, 
2420.00, 
2421.00, 
2422.00, 
2423.00, 
2424.00, 
2425.00, 
2426.00, 
2427.00, 
2428.00, 
2429.00, 
2430.00, 
2431.00, 
2432.00, 
2433.00, 
2434.00, 
2435.00, 
2436.00, 
2437.00, 
2438.00, 
2439.00, 
2440.00, 
2441.00, 
2442.00, 
2443.00, 
2444.00, 
2445.00, 
2446.00, 
2447.00, 
2448.00, 
2449.00, 
2450.00, 
2451.00, 
2452.00, 
2453.00, 
2454.00, 
2455.00, 
2456.00, 
2457.00, 
2458.00, 
2459.00, 
2460.00, 
2461.00, 
2462.00, 
2463.00, 
2464.00, 
2465.00, 
2466.00, 
2467.00, 
2468.00, 
2469.00, 
2470.00, 
2471.00, 
2472.00, 
2473.00, 
2474.00, 
2475.00, 
2476.00, 
2477.00, 
2478.00, 
2479.00, 
2480.00, 
2481.00, 
2482.00, 
2483.00, 
2484.00, 
2485.00, 
2486.00, 
2487.00, 
2488.00, 
2489.00, 
2490.00, 
2491.00, 
2492.00, 
2493.00, 
2494.00, 
2495.00, 
2496.00, 
2497.00, 
2498.00, 
2499.00, 
2500.00, 
2501.00, 
2502.00, 
2503.00, 
2504.00, 
2505.00, 
2506.00, 
2507.00, 
2508.00, 
2509.00, 
2510.00, 
2511.00, 
2512.00, 
2513.00, 
2514.00, 
2515.00, 
2516.00, 
2517.00, 
2518.00, 
2519.00, 
2520.00, 
2521.00, 
2522.00, 
2523.00, 
2524.00, 
2525.00, 
2526.00, 
2527.00, 
2528.00, 
2529.00, 
2530.00, 
2531.00, 
2532.00, 
2533.00, 
2534.00, 
2535.00, 
2536.00, 
2537.00, 
2538.00, 
2539.00, 
2540.00, 
2541.00, 
2542.00, 
2543.00, 
2544.00, 
2545.00, 
2546.00, 
2547.00, 
2548.00, 
2549.00, 
2550.00, 
2551.00, 
2552.00, 
2553.00, 
2554.00, 
2555.00, 
2556.00, 
2557.00, 
2558.00, 
2559.00, 
2560.00, 
2561.00, 
2562.00, 
2563.00, 
2564.00, 
2565.00, 
2566.00, 
2567.00, 
2568.00, 
2569.00, 
2570.00, 
2571.00, 
2572.00, 
2573.00, 
2574.00, 
2575.00, 
2576.00, 
2577.00, 
2578.00, 
2579.00, 
2580.00, 
2581.00, 
2582.00, 
2583.00, 
2584.00, 
2585.00, 
2586.00, 
2587.00, 
2588.00, 
2589.00, 
2590.00, 
2591.00, 
2592.00, 
2593.00, 
2594.00, 
2595.00, 
2596.00, 
2597.00, 
2598.00, 
2599.00, 
2600.00, 
