"2cP3 - RawData"
"Wavelength nm.","T%"
200.00,0.001
201.00,-0.000
202.00,0.003
203.00,0.002
204.00,0.002
205.00,0.004
206.00,-0.000
207.00,0.001
208.00,0.002
209.00,0.003
210.00,-0.000
211.00,0.002
212.00,0.001
213.00,0.001
214.00,0.001
215.00,0.002
216.00,0.000
217.00,0.003
218.00,-0.003
219.00,-0.001
220.00,0.003
221.00,0.002
222.00,0.001
223.00,-0.000
224.00,-0.001
225.00,0.003
226.00,0.003
227.00,0.004
228.00,0.001
229.00,0.001
230.00,0.001
231.00,0.001
232.00,0.000
233.00,0.001
234.00,0.002
235.00,0.000
236.00,-0.001
237.00,-0.003
238.00,-0.001
239.00,0.000
240.00,0.003
241.00,0.002
242.00,0.001
243.00,0.000
244.00,-0.000
245.00,0.000
246.00,0.000
247.00,0.001
248.00,0.001
249.00,0.001
250.00,0.001
251.00,-0.000
252.00,0.001
253.00,0.001
254.00,-0.002
255.00,0.002
256.00,-0.000
257.00,0.002
258.00,-0.000
259.00,0.001
260.00,0.000
261.00,0.000
262.00,0.000
263.00,0.001
264.00,0.002
265.00,-0.001
266.00,-0.001
267.00,-0.000
268.00,-0.001
269.00,-0.000
270.00,-0.000
271.00,0.000
272.00,0.001
273.00,0.000
274.00,-0.001
275.00,0.001
276.00,-0.000
277.00,-0.000
278.00,0.001
279.00,-0.000
280.00,-0.001
281.00,-0.000
282.00,0.000
283.00,-0.000
284.00,-0.000
285.00,-0.002
286.00,-0.001
287.00,-0.000
288.00,0.001
289.00,0.002
290.00,0.001
291.00,0.002
292.00,-0.000
293.00,0.001
294.00,0.001
295.00,0.001
296.00,-0.000
297.00,0.000
298.00,0.001
299.00,0.000
300.00,0.002
301.00,0.002
302.00,0.006
303.00,0.009
304.00,0.013
305.00,0.019
306.00,0.029
307.00,0.044
308.00,0.072
309.00,0.112
310.00,0.158
311.00,0.208
312.00,0.288
313.00,0.401
314.00,0.520
315.00,0.675
316.00,0.862
317.00,1.093
318.00,1.342
319.00,1.669
320.00,2.022
321.00,2.415
322.00,2.878
323.00,3.369
324.00,3.919
325.00,4.480
326.00,5.050
327.00,5.708
328.00,6.410
329.00,7.091
330.00,7.810
331.00,8.562
332.00,9.312
333.00,10.087
334.00,10.837
335.00,11.640
336.00,12.385
337.00,13.191
338.00,13.944
339.00,14.639
340.00,15.396
341.00,16.103
342.00,16.744
343.00,17.442
344.00,17.997
345.00,18.634
346.00,19.116
347.00,19.700
348.00,20.258
349.00,20.661
350.00,21.117
351.00,21.590
352.00,21.971
353.00,22.310
354.00,22.678
355.00,23.027
356.00,23.374
357.00,23.715
358.00,23.976
359.00,24.246
360.00,24.462
361.00,24.680
362.00,24.822
363.00,25.030
364.00,25.213
365.00,25.414
366.00,25.556
367.00,25.610
368.00,25.757
369.00,25.831
370.00,25.914
371.00,25.977
372.00,26.030
373.00,26.051
374.00,26.034
375.00,26.059
376.00,25.997
377.00,25.979
378.00,25.979
379.00,25.917
380.00,25.921
381.00,25.933
382.00,25.951
383.00,25.934
384.00,25.994
385.00,26.058
386.00,26.119
387.00,26.136
388.00,26.202
389.00,26.299
390.00,26.279
391.00,26.345
392.00,26.313
393.00,26.415
394.00,26.469
395.00,26.516
396.00,26.498
397.00,26.562
398.00,26.561
399.00,26.559
400.00,26.564
401.00,26.601
402.00,26.604
403.00,26.617
404.00,26.721
405.00,26.560
406.00,26.578
407.00,26.479
408.00,26.523
409.00,26.492
410.00,26.462
411.00,26.456
412.00,26.400
413.00,26.418
414.00,26.444
415.00,26.450
416.00,26.450
417.00,26.485
418.00,26.493
419.00,26.562
420.00,26.557
421.00,26.539
422.00,26.677
423.00,26.704
424.00,26.690
425.00,26.753
426.00,26.776
427.00,26.847
428.00,26.876
429.00,26.896
430.00,26.930
431.00,26.970
432.00,27.033
433.00,27.040
434.00,27.118
435.00,27.148
436.00,27.209
437.00,27.329
438.00,27.382
439.00,27.417
440.00,27.508
441.00,27.563
442.00,27.639
443.00,27.714
444.00,27.762
445.00,27.832
446.00,27.928
447.00,28.019
448.00,28.120
449.00,28.241
450.00,28.321
451.00,28.415
452.00,28.474
453.00,28.591
454.00,28.673
455.00,28.758
456.00,28.882
457.00,28.971
458.00,29.064
459.00,29.147
460.00,29.310
461.00,29.429
462.00,29.497
463.00,29.623
464.00,29.761
465.00,29.873
466.00,29.935
467.00,30.099
468.00,30.168
469.00,30.250
470.00,30.354
471.00,30.428
472.00,30.538
473.00,30.625
474.00,30.722
475.00,30.831
476.00,30.944
477.00,31.011
478.00,31.137
479.00,31.251
480.00,31.370
481.00,31.462
482.00,31.660
483.00,31.796
484.00,31.918
485.00,32.078
486.00,32.212
487.00,32.342
488.00,32.479
489.00,32.635
490.00,32.755
491.00,32.878
492.00,33.093
493.00,33.165
494.00,33.213
495.00,33.323
496.00,33.425
497.00,33.522
498.00,33.690
499.00,33.833
500.00,33.876
501.00,34.028
502.00,34.135
503.00,34.238
504.00,34.339
505.00,34.438
506.00,34.605
507.00,34.669
508.00,34.713
509.00,34.935
510.00,35.013
511.00,35.064
512.00,35.243
513.00,35.339
514.00,35.409
515.00,35.582
516.00,35.627
517.00,35.644
518.00,35.890
519.00,35.937
520.00,35.975
521.00,36.050
522.00,36.158
523.00,36.176
524.00,36.369
525.00,36.480
526.00,36.564
527.00,36.712
528.00,36.782
529.00,36.864
530.00,36.943
531.00,37.086
532.00,37.149
533.00,37.208
534.00,37.349
535.00,37.421
536.00,37.459
537.00,37.584
538.00,37.707
539.00,37.724
540.00,37.789
541.00,37.840
542.00,37.916
543.00,37.982
544.00,38.108
545.00,38.146
546.00,38.178
547.00,38.274
548.00,38.350
549.00,38.281
550.00,38.540
551.00,38.668
552.00,38.689
553.00,38.741
554.00,38.808
555.00,38.856
556.00,38.932
557.00,38.998
558.00,39.038
559.00,39.144
560.00,39.200
561.00,39.237
562.00,39.307
563.00,39.364
564.00,39.437
565.00,39.449
566.00,39.474
567.00,39.494
568.00,39.529
569.00,39.614
570.00,39.555
571.00,39.664
572.00,39.735
573.00,39.730
574.00,39.812
575.00,39.815
576.00,39.845
577.00,39.940
578.00,40.036
579.00,40.059
580.00,40.097
581.00,40.213
582.00,40.249
583.00,40.377
584.00,40.479
585.00,40.547
586.00,40.607
587.00,40.660
588.00,40.707
589.00,40.731
590.00,40.828
591.00,40.800
592.00,40.824
593.00,40.822
594.00,40.895
595.00,40.915
596.00,40.982
597.00,40.944
598.00,41.188
599.00,41.175
600.00,41.272
601.00,41.272
602.00,41.370
603.00,41.336
604.00,41.418
605.00,41.496
606.00,41.545
607.00,41.589
608.00,41.668
609.00,41.669
610.00,41.607
611.00,41.676
612.00,41.769
613.00,41.732
614.00,41.794
615.00,41.878
616.00,41.960
617.00,41.996
618.00,41.989
619.00,42.116
620.00,42.106
621.00,42.141
622.00,42.234
623.00,42.296
624.00,42.334
625.00,42.382
626.00,42.422
627.00,42.492
628.00,42.502
629.00,42.593
630.00,42.662
631.00,42.716
632.00,42.705
633.00,42.813
634.00,42.875
635.00,42.927
636.00,43.033
637.00,43.055
638.00,43.175
639.00,43.217
640.00,43.199
641.00,43.306
642.00,43.321
643.00,43.378
644.00,43.437
645.00,43.516
646.00,43.648
647.00,43.645
648.00,43.645
649.00,43.801
650.00,43.844
651.00,43.845
652.00,44.032
653.00,44.086
654.00,44.034
655.00,44.208
656.00,44.220
657.00,44.375
658.00,44.463
659.00,44.516
660.00,44.476
661.00,44.564
662.00,44.728
663.00,44.729
664.00,44.866
665.00,44.967
666.00,44.978
667.00,45.064
668.00,45.052
669.00,45.258
670.00,45.335
671.00,45.114
672.00,45.242
673.00,45.518
674.00,45.515
675.00,45.603
676.00,45.711
677.00,45.730
678.00,45.702
679.00,45.852
680.00,45.870
681.00,45.964
682.00,46.037
683.00,46.019
684.00,46.199
685.00,46.236
686.00,46.275
687.00,46.365
688.00,46.359
689.00,46.445
690.00,46.561
691.00,46.699
692.00,46.567
693.00,46.731
694.00,46.731
695.00,46.747
696.00,46.854
697.00,46.954
698.00,47.009
699.00,47.086
700.00,47.379
701.00,47.214
702.00,47.315
703.00,47.482
704.00,47.502
705.00,47.382
706.00,47.502
707.00,47.680
708.00,47.503
709.00,47.730
710.00,47.987
711.00,47.598
712.00,47.797
713.00,47.894
714.00,47.763
715.00,47.825
716.00,48.024
717.00,48.035
718.00,47.920
719.00,47.973
720.00,48.116
721.00,52.431
722.00,52.420
723.00,52.422
724.00,52.423
725.00,52.403
726.00,52.399
727.00,52.411
728.00,52.434
729.00,52.452
730.00,52.393
731.00,52.414
732.00,52.498
733.00,52.479
734.00,52.483
735.00,52.551
736.00,52.505
737.00,52.549
738.00,52.554
739.00,52.628
740.00,52.522
741.00,52.566
742.00,52.588
743.00,52.642
744.00,52.554
745.00,52.536
746.00,52.617
747.00,52.631
748.00,52.576
749.00,52.490
750.00,52.465
751.00,52.424
752.00,52.485
753.00,52.467
754.00,52.442
755.00,52.513
756.00,52.480
757.00,52.441
758.00,52.467
759.00,52.550
760.00,52.484
761.00,52.533
762.00,52.463
763.00,52.529
764.00,52.475
765.00,52.521
766.00,52.496
767.00,52.505
768.00,52.443
769.00,52.496
770.00,52.502
771.00,52.571
772.00,52.483
773.00,52.463
774.00,52.441
775.00,52.500
776.00,52.412
777.00,52.468
778.00,52.489
779.00,52.538
780.00,52.434
781.00,52.433
782.00,52.455
783.00,52.369
784.00,52.419
785.00,52.381
786.00,52.435
787.00,52.424
788.00,52.371
789.00,52.390
790.00,52.360
791.00,52.417
792.00,52.290
793.00,52.247
794.00,52.293
795.00,52.254
796.00,52.270
797.00,52.221
798.00,52.182
799.00,52.165
800.00,52.114
801.00,52.206
802.00,52.107
803.00,52.124
804.00,52.069
805.00,52.062
806.00,52.054
807.00,52.005
808.00,52.139
809.00,52.034
810.00,52.072
811.00,51.996
812.00,52.028
813.00,51.932
814.00,52.014
815.00,51.918
816.00,51.895
817.00,51.821
818.00,51.841
819.00,51.856
820.00,51.699
821.00,51.828
822.00,51.790
823.00,51.756
824.00,51.731
825.00,51.649
826.00,51.781
827.00,51.787
828.00,51.721
829.00,51.677
830.00,51.682
831.00,54.149
832.00,54.183
833.00,54.152
834.00,54.144
835.00,54.117
836.00,54.104
837.00,54.044
838.00,54.059
839.00,54.044
840.00,53.976
841.00,53.987
842.00,53.955
843.00,53.967
844.00,53.928
845.00,53.855
846.00,53.924
847.00,53.883
848.00,53.830
849.00,53.784
850.00,53.779
851.00,53.703
852.00,53.685
853.00,53.801
854.00,53.634
855.00,53.599
856.00,53.559
857.00,53.526
858.00,53.552
859.00,53.497
860.00,53.480
861.00,53.460
862.00,53.435
863.00,53.412
864.00,53.414
865.00,53.394
866.00,53.396
867.00,53.377
868.00,53.379
869.00,53.342
870.00,53.331
871.00,53.331
872.00,53.305
873.00,53.292
874.00,53.262
875.00,53.277
876.00,53.268
877.00,53.278
878.00,53.246
879.00,53.204
880.00,53.213
881.00,53.209
882.00,53.192
883.00,53.291
884.00,53.110
885.00,53.088
886.00,53.067
887.00,53.073
888.00,53.012
889.00,53.020
890.00,52.991
891.00,52.976
892.00,52.958
893.00,52.906
894.00,52.904
895.00,52.895
896.00,52.877
897.00,52.852
898.00,52.832
899.00,52.810
900.00,52.828
901.00,52.828
902.00,52.804
903.00,52.794
904.00,52.770
905.00,52.758
906.00,52.759
907.00,52.711
908.00,52.676
909.00,52.667
910.00,52.616
911.00,52.634
912.00,52.622
913.00,52.595
914.00,52.546
915.00,52.523
916.00,52.538
917.00,52.513
918.00,52.499
919.00,52.436
920.00,52.426
921.00,52.417
922.00,52.349
923.00,52.345
924.00,52.339
925.00,52.282
926.00,52.324
927.00,52.275
928.00,52.268
929.00,52.278
930.00,52.235
931.00,52.222
932.00,52.190
933.00,52.181
934.00,52.183
935.00,52.158
936.00,52.141
937.00,52.102
938.00,52.078
939.00,52.067
940.00,52.057
941.00,52.051
942.00,52.003
943.00,52.015
944.00,51.966
945.00,51.986
946.00,51.959
947.00,51.915
948.00,51.901
949.00,51.887
950.00,51.848
951.00,51.850
952.00,51.795
953.00,51.775
954.00,51.811
955.00,51.722
956.00,51.701
957.00,51.691
958.00,51.688
959.00,51.634
960.00,51.615
961.00,51.624
962.00,51.627
963.00,51.571
964.00,51.553
965.00,51.566
966.00,51.559
967.00,51.536
968.00,51.505
969.00,51.587
970.00,51.517
971.00,51.523
972.00,51.484
973.00,51.527
974.00,51.539
975.00,51.498
976.00,51.530
977.00,51.518
978.00,51.532
979.00,51.512
980.00,51.533
981.00,51.576
982.00,51.458
983.00,51.499
984.00,51.492
985.00,51.507
986.00,51.452
987.00,51.483
988.00,51.459
989.00,51.438
990.00,51.442
991.00,51.415
992.00,51.433
993.00,51.388
994.00,51.367
995.00,51.377
996.00,51.367
997.00,51.347
998.00,51.339
999.00,51.353
1000.00,51.276
1001.00,51.323
1002.00,51.291
1003.00,51.282
1004.00,51.268
1005.00,51.236
1006.00,51.270
1007.00,51.225
1008.00,51.209
1009.00,51.193
1010.00,51.190
1011.00,51.166
1012.00,51.153
1013.00,51.153
1014.00,51.129
1015.00,51.143
1016.00,51.089
1017.00,51.112
1018.00,51.063
1019.00,51.041
1020.00,51.033
1021.00,50.991
1022.00,51.002
1023.00,50.954
1024.00,50.942
1025.00,50.936
1026.00,50.926
1027.00,50.910
1028.00,50.911
1029.00,50.910
1030.00,50.896
1031.00,50.886
1032.00,50.835
1033.00,50.829
1034.00,50.810
1035.00,50.769
1036.00,50.745
1037.00,50.724
1038.00,50.708
1039.00,50.681
1040.00,50.686
1041.00,50.641
1042.00,50.653
1043.00,50.615
1044.00,50.646
1045.00,50.642
1046.00,50.613
1047.00,50.621
1048.00,50.627
1049.00,50.626
1050.00,50.645
1051.00,50.660
1052.00,50.669
1053.00,50.685
1054.00,50.670
1055.00,50.719
1056.00,50.715
1057.00,50.711
1058.00,50.701
1059.00,50.706
1060.00,50.701
1061.00,50.701
1062.00,50.672
1063.00,50.682
1064.00,50.671
1065.00,50.654
1066.00,50.649
1067.00,50.649
1068.00,50.654
1069.00,50.623
1070.00,50.602
1071.00,50.587
1072.00,50.618
1073.00,50.579
1074.00,50.583
1075.00,50.578
1076.00,50.558
1077.00,50.548
1078.00,50.554
1079.00,50.532
1080.00,50.537
1081.00,50.513
1082.00,50.499
1083.00,50.512
1084.00,50.486
1085.00,50.477
1086.00,50.493
1087.00,50.463
1088.00,50.455
1089.00,50.460
1090.00,50.464
1091.00,50.466
1092.00,50.426
1093.00,50.404
1094.00,50.394
1095.00,50.382
1096.00,50.370
1097.00,50.371
1098.00,50.354
1099.00,50.332
1100.00,50.331
1101.00,50.305
1102.00,50.310
1103.00,50.295
1104.00,50.289
1105.00,50.307
1106.00,50.301
1107.00,50.273
1108.00,50.276
1109.00,50.259
1110.00,50.262
1111.00,50.254
1112.00,50.231
1113.00,50.218
1114.00,50.211
1115.00,50.202
1116.00,50.216
1117.00,50.188
1118.00,50.180
1119.00,50.184
1120.00,50.185
1121.00,50.183
1122.00,50.167
1123.00,50.146
1124.00,50.152
1125.00,50.129
1126.00,50.113
1127.00,50.120
1128.00,50.105
1129.00,50.089
1130.00,50.082
1131.00,50.067
1132.00,50.077
1133.00,50.069
1134.00,50.058
1135.00,50.049
1136.00,50.053
1137.00,50.052
1138.00,50.039
1139.00,50.035
1140.00,50.020
1141.00,50.028
1142.00,50.021
1143.00,50.028
1144.00,50.005
1145.00,49.993
1146.00,50.009
1147.00,49.993
1148.00,49.984
1149.00,50.000
1150.00,49.992
1151.00,49.989
1152.00,49.986
1153.00,49.970
1154.00,49.950
1155.00,49.966
1156.00,49.940
1157.00,49.955
1158.00,49.938
1159.00,49.927
1160.00,49.931
1161.00,49.938
1162.00,49.926
1163.00,49.936
1164.00,49.925
1165.00,49.910
1166.00,49.927
1167.00,49.918
1168.00,49.936
1169.00,49.913
1170.00,49.906
1171.00,49.894
1172.00,49.902
1173.00,49.897
1174.00,49.913
1175.00,49.890
1176.00,49.889
1177.00,49.907
1178.00,49.884
1179.00,49.901
1180.00,49.890
1181.00,49.908
1182.00,49.906
1183.00,49.890
1184.00,49.879
1185.00,49.898
1186.00,49.876
1187.00,49.884
1188.00,49.880
1189.00,49.868
1190.00,49.875
1191.00,49.868
1192.00,49.873
1193.00,49.879
1194.00,49.879
1195.00,49.858
1196.00,49.890
1197.00,49.878
1198.00,49.873
1199.00,49.868
1200.00,49.861
1201.00,49.869
1202.00,49.842
1203.00,49.850
1204.00,49.842
1205.00,49.862
1206.00,49.837
1207.00,49.852
1208.00,49.830
1209.00,49.830
1210.00,49.853
1211.00,49.834
1212.00,49.858
1213.00,49.827
1214.00,49.845
1215.00,49.834
1216.00,49.825
1217.00,49.837
1218.00,49.829
1219.00,49.836
1220.00,49.821
1221.00,49.836
1222.00,49.816
1223.00,49.846
1224.00,49.839
1225.00,49.827
1226.00,49.841
1227.00,49.821
1228.00,49.837
1229.00,49.850
1230.00,49.857
1231.00,49.860
1232.00,49.881
1233.00,49.867
1234.00,49.873
1235.00,49.856
1236.00,49.852
1237.00,49.860
1238.00,49.852
1239.00,49.864
1240.00,49.880
1241.00,49.880
1242.00,49.877
1243.00,49.905
1244.00,49.862
1245.00,49.898
1246.00,49.902
1247.00,49.890
1248.00,49.900
1249.00,49.898
1250.00,49.897
1251.00,49.905
1252.00,49.923
1253.00,49.897
1254.00,49.935
1255.00,49.911
1256.00,49.897
1257.00,49.886
1258.00,49.927
1259.00,49.931
1260.00,49.941
1261.00,49.930
1262.00,49.943
1263.00,49.927
1264.00,49.936
1265.00,49.937
1266.00,49.937
1267.00,49.945
1268.00,49.950
1269.00,49.934
1270.00,49.961
1271.00,49.966
1272.00,49.962
1273.00,49.988
1274.00,49.973
1275.00,49.972
1276.00,49.979
1277.00,49.976
1278.00,49.991
1279.00,49.986
1280.00,49.986
1281.00,50.000
1282.00,50.016
1283.00,49.979
1284.00,50.008
1285.00,49.985
1286.00,50.010
1287.00,50.011
1288.00,50.028
1289.00,50.023
1290.00,50.033
1291.00,50.035
1292.00,50.046
1293.00,50.025
1294.00,50.034
1295.00,50.039
1296.00,50.040
1297.00,50.049
1298.00,50.070
1299.00,50.045
1300.00,50.065
1301.00,50.071
1302.00,50.071
1303.00,50.095
1304.00,50.070
1305.00,50.096
1306.00,50.113
1307.00,50.108
1308.00,50.106
1309.00,50.127
1310.00,50.118
1311.00,50.117
1312.00,50.115
1313.00,50.111
1314.00,50.129
1315.00,50.140
1316.00,50.145
1317.00,50.169
1318.00,50.150
1319.00,50.154
1320.00,50.187
1321.00,50.322
1322.00,50.335
1323.00,50.316
1324.00,50.314
1325.00,50.305
1326.00,50.317
1327.00,50.301
1328.00,50.317
1329.00,50.294
1330.00,50.302
1331.00,50.307
1332.00,50.314
1333.00,50.319
1334.00,50.364
1335.00,50.353
1336.00,50.402
1337.00,50.401
1338.00,50.485
1339.00,50.527
1340.00,50.569
1341.00,50.628
1342.00,50.709
1343.00,50.756
1344.00,50.796
1345.00,50.859
1346.00,50.898
1347.00,50.942
1348.00,50.932
1349.00,50.962
1350.00,50.975
1351.00,50.990
1352.00,51.011
1353.00,51.095
1354.00,51.056
1355.00,50.991
1356.00,51.058
1357.00,51.025
1358.00,51.040
1359.00,51.012
1360.00,51.086
1361.00,51.129
1362.00,50.931
1363.00,51.104
1364.00,51.155
1365.00,51.033
1366.00,51.103
1367.00,51.083
1368.00,50.940
1369.00,51.072
1370.00,51.023
1371.00,50.981
1372.00,51.022
1373.00,51.034
1374.00,51.022
1375.00,51.005
1376.00,51.003
1377.00,50.973
1378.00,50.996
1379.00,51.027
1380.00,51.013
1381.00,51.052
1382.00,50.964
1383.00,50.972
1384.00,50.941
1385.00,50.949
1386.00,50.998
1387.00,50.892
1388.00,50.969
1389.00,50.920
1390.00,50.980
1391.00,50.963
1392.00,50.913
1393.00,50.941
1394.00,50.917
1395.00,50.928
1396.00,50.968
1397.00,50.924
1398.00,51.027
1399.00,50.950
1400.00,50.906
1401.00,50.890
1402.00,51.026
1403.00,50.990
1404.00,50.847
1405.00,51.020
1406.00,51.000
1407.00,51.014
1408.00,51.102
1409.00,51.078
1410.00,51.052
1411.00,51.015
1412.00,51.093
1413.00,51.053
1414.00,51.034
1415.00,51.067
1416.00,51.108
1417.00,51.114
1418.00,51.103
1419.00,51.094
1420.00,51.108
1421.00,51.139
1422.00,51.144
1423.00,51.143
1424.00,51.160
1425.00,51.172
1426.00,51.174
1427.00,51.215
1428.00,51.219
1429.00,51.250
1430.00,51.248
1431.00,51.237
1432.00,51.264
1433.00,51.285
1434.00,51.270
1435.00,51.323
1436.00,51.328
1437.00,51.327
1438.00,51.363
1439.00,51.379
1440.00,51.390
1441.00,51.408
1442.00,51.398
1443.00,51.431
1444.00,51.443
1445.00,51.426
1446.00,51.439
1447.00,51.479
1448.00,51.518
1449.00,51.534
1450.00,51.518
1451.00,51.529
1452.00,51.547
1453.00,51.567
1454.00,51.572
1455.00,51.600
1456.00,51.617
1457.00,51.629
1458.00,51.642
1459.00,51.649
1460.00,51.676
1461.00,51.686
1462.00,51.714
1463.00,51.718
1464.00,51.730
1465.00,51.740
1466.00,51.741
1467.00,51.759
1468.00,51.803
1469.00,51.787
1470.00,51.791
1471.00,51.831
1472.00,51.829
1473.00,51.826
1474.00,51.872
1475.00,51.872
1476.00,51.881
1477.00,51.878
1478.00,51.886
1479.00,51.921
1480.00,51.915
1481.00,51.928
1482.00,51.970
1483.00,51.977
1484.00,51.982
1485.00,51.994
1486.00,51.998
1487.00,52.008
1488.00,52.021
1489.00,52.022
1490.00,52.030
1491.00,52.037
1492.00,52.062
1493.00,52.060
1494.00,52.081
1495.00,52.078
1496.00,52.082
1497.00,52.085
1498.00,52.097
1499.00,52.129
1500.00,52.144
1501.00, 
1502.00, 
1503.00, 
1504.00, 
1505.00, 
1506.00, 
1507.00, 
1508.00, 
1509.00, 
1510.00, 
1511.00, 
1512.00, 
1513.00, 
1514.00, 
1515.00, 
1516.00, 
1517.00, 
1518.00, 
1519.00, 
1520.00, 
1521.00, 
1522.00, 
1523.00, 
1524.00, 
1525.00, 
1526.00, 
1527.00, 
1528.00, 
1529.00, 
1530.00, 
1531.00, 
1532.00, 
1533.00, 
1534.00, 
1535.00, 
1536.00, 
1537.00, 
1538.00, 
1539.00, 
1540.00, 
1541.00, 
1542.00, 
1543.00, 
1544.00, 
1545.00, 
1546.00, 
1547.00, 
1548.00, 
1549.00, 
1550.00, 
1551.00, 
1552.00, 
1553.00, 
1554.00, 
1555.00, 
1556.00, 
1557.00, 
1558.00, 
1559.00, 
1560.00, 
1561.00, 
1562.00, 
1563.00, 
1564.00, 
1565.00, 
1566.00, 
1567.00, 
1568.00, 
1569.00, 
1570.00, 
1571.00, 
1572.00, 
1573.00, 
1574.00, 
1575.00, 
1576.00, 
1577.00, 
1578.00, 
1579.00, 
1580.00, 
1581.00, 
1582.00, 
1583.00, 
1584.00, 
1585.00, 
1586.00, 
1587.00, 
1588.00, 
1589.00, 
1590.00, 
1591.00, 
1592.00, 
1593.00, 
1594.00, 
1595.00, 
1596.00, 
1597.00, 
1598.00, 
1599.00, 
1600.00, 
1601.00, 
1602.00, 
1603.00, 
1604.00, 
1605.00, 
1606.00, 
1607.00, 
1608.00, 
1609.00, 
1610.00, 
1611.00, 
1612.00, 
1613.00, 
1614.00, 
1615.00, 
1616.00, 
1617.00, 
1618.00, 
1619.00, 
1620.00, 
1621.00, 
1622.00, 
1623.00, 
1624.00, 
1625.00, 
1626.00, 
1627.00, 
1628.00, 
1629.00, 
1630.00, 
1631.00, 
1632.00, 
1633.00, 
1634.00, 
1635.00, 
1636.00, 
1637.00, 
1638.00, 
1639.00, 
1640.00, 
1641.00, 
1642.00, 
1643.00, 
1644.00, 
1645.00, 
1646.00, 
1647.00, 
1648.00, 
1649.00, 
1650.00, 
1651.00, 
1652.00, 
1653.00, 
1654.00, 
1655.00, 
1656.00, 
1657.00, 
1658.00, 
1659.00, 
1660.00, 
1661.00, 
1662.00, 
1663.00, 
1664.00, 
1665.00, 
1666.00, 
1667.00, 
1668.00, 
1669.00, 
1670.00, 
1671.00, 
1672.00, 
1673.00, 
1674.00, 
1675.00, 
1676.00, 
1677.00, 
1678.00, 
1679.00, 
1680.00, 
1681.00, 
1682.00, 
1683.00, 
1684.00, 
1685.00, 
1686.00, 
1687.00, 
1688.00, 
1689.00, 
1690.00, 
1691.00, 
1692.00, 
1693.00, 
1694.00, 
1695.00, 
1696.00, 
1697.00, 
1698.00, 
1699.00, 
1700.00, 
1701.00, 
1702.00, 
1703.00, 
1704.00, 
1705.00, 
1706.00, 
1707.00, 
1708.00, 
1709.00, 
1710.00, 
1711.00, 
1712.00, 
1713.00, 
1714.00, 
1715.00, 
1716.00, 
1717.00, 
1718.00, 
1719.00, 
1720.00, 
1721.00, 
1722.00, 
1723.00, 
1724.00, 
1725.00, 
1726.00, 
1727.00, 
1728.00, 
1729.00, 
1730.00, 
1731.00, 
1732.00, 
1733.00, 
1734.00, 
1735.00, 
1736.00, 
1737.00, 
1738.00, 
1739.00, 
1740.00, 
1741.00, 
1742.00, 
1743.00, 
1744.00, 
1745.00, 
1746.00, 
1747.00, 
1748.00, 
1749.00, 
1750.00, 
1751.00, 
1752.00, 
1753.00, 
1754.00, 
1755.00, 
1756.00, 
1757.00, 
1758.00, 
1759.00, 
1760.00, 
1761.00, 
1762.00, 
1763.00, 
1764.00, 
1765.00, 
1766.00, 
1767.00, 
1768.00, 
1769.00, 
1770.00, 
1771.00, 
1772.00, 
1773.00, 
1774.00, 
1775.00, 
1776.00, 
1777.00, 
1778.00, 
1779.00, 
1780.00, 
1781.00, 
1782.00, 
1783.00, 
1784.00, 
1785.00, 
1786.00, 
1787.00, 
1788.00, 
1789.00, 
1790.00, 
1791.00, 
1792.00, 
1793.00, 
1794.00, 
1795.00, 
1796.00, 
1797.00, 
1798.00, 
1799.00, 
1800.00, 
1801.00, 
1802.00, 
1803.00, 
1804.00, 
1805.00, 
1806.00, 
1807.00, 
1808.00, 
1809.00, 
1810.00, 
1811.00, 
1812.00, 
1813.00, 
1814.00, 
1815.00, 
1816.00, 
1817.00, 
1818.00, 
1819.00, 
1820.00, 
1821.00, 
1822.00, 
1823.00, 
1824.00, 
1825.00, 
1826.00, 
1827.00, 
1828.00, 
1829.00, 
1830.00, 
1831.00, 
1832.00, 
1833.00, 
1834.00, 
1835.00, 
1836.00, 
1837.00, 
1838.00, 
1839.00, 
1840.00, 
1841.00, 
1842.00, 
1843.00, 
1844.00, 
1845.00, 
1846.00, 
1847.00, 
1848.00, 
1849.00, 
1850.00, 
1851.00, 
1852.00, 
1853.00, 
1854.00, 
1855.00, 
1856.00, 
1857.00, 
1858.00, 
1859.00, 
1860.00, 
1861.00, 
1862.00, 
1863.00, 
1864.00, 
1865.00, 
1866.00, 
1867.00, 
1868.00, 
1869.00, 
1870.00, 
1871.00, 
1872.00, 
1873.00, 
1874.00, 
1875.00, 
1876.00, 
1877.00, 
1878.00, 
1879.00, 
1880.00, 
1881.00, 
1882.00, 
1883.00, 
1884.00, 
1885.00, 
1886.00, 
1887.00, 
1888.00, 
1889.00, 
1890.00, 
1891.00, 
1892.00, 
1893.00, 
1894.00, 
1895.00, 
1896.00, 
1897.00, 
1898.00, 
1899.00, 
1900.00, 
1901.00, 
1902.00, 
1903.00, 
1904.00, 
1905.00, 
1906.00, 
1907.00, 
1908.00, 
1909.00, 
1910.00, 
1911.00, 
1912.00, 
1913.00, 
1914.00, 
1915.00, 
1916.00, 
1917.00, 
1918.00, 
1919.00, 
1920.00, 
1921.00, 
1922.00, 
1923.00, 
1924.00, 
1925.00, 
1926.00, 
1927.00, 
1928.00, 
1929.00, 
1930.00, 
1931.00, 
1932.00, 
1933.00, 
1934.00, 
1935.00, 
1936.00, 
1937.00, 
1938.00, 
1939.00, 
1940.00, 
1941.00, 
1942.00, 
1943.00, 
1944.00, 
1945.00, 
1946.00, 
1947.00, 
1948.00, 
1949.00, 
1950.00, 
1951.00, 
1952.00, 
1953.00, 
1954.00, 
1955.00, 
1956.00, 
1957.00, 
1958.00, 
1959.00, 
1960.00, 
1961.00, 
1962.00, 
1963.00, 
1964.00, 
1965.00, 
1966.00, 
1967.00, 
1968.00, 
1969.00, 
1970.00, 
1971.00, 
1972.00, 
1973.00, 
1974.00, 
1975.00, 
1976.00, 
1977.00, 
1978.00, 
1979.00, 
1980.00, 
1981.00, 
1982.00, 
1983.00, 
1984.00, 
1985.00, 
1986.00, 
1987.00, 
1988.00, 
1989.00, 
1990.00, 
1991.00, 
1992.00, 
1993.00, 
1994.00, 
1995.00, 
1996.00, 
1997.00, 
1998.00, 
1999.00, 
2000.00, 
2001.00, 
2002.00, 
2003.00, 
2004.00, 
2005.00, 
2006.00, 
2007.00, 
2008.00, 
2009.00, 
2010.00, 
2011.00, 
2012.00, 
2013.00, 
2014.00, 
2015.00, 
2016.00, 
2017.00, 
2018.00, 
2019.00, 
2020.00, 
2021.00, 
2022.00, 
2023.00, 
2024.00, 
2025.00, 
2026.00, 
2027.00, 
2028.00, 
2029.00, 
2030.00, 
2031.00, 
2032.00, 
2033.00, 
2034.00, 
2035.00, 
2036.00, 
2037.00, 
2038.00, 
2039.00, 
2040.00, 
2041.00, 
2042.00, 
2043.00, 
2044.00, 
2045.00, 
2046.00, 
2047.00, 
2048.00, 
2049.00, 
2050.00, 
2051.00, 
2052.00, 
2053.00, 
2054.00, 
2055.00, 
2056.00, 
2057.00, 
2058.00, 
2059.00, 
2060.00, 
2061.00, 
2062.00, 
2063.00, 
2064.00, 
2065.00, 
2066.00, 
2067.00, 
2068.00, 
2069.00, 
2070.00, 
2071.00, 
2072.00, 
2073.00, 
2074.00, 
2075.00, 
2076.00, 
2077.00, 
2078.00, 
2079.00, 
2080.00, 
2081.00, 
2082.00, 
2083.00, 
2084.00, 
2085.00, 
2086.00, 
2087.00, 
2088.00, 
2089.00, 
2090.00, 
2091.00, 
2092.00, 
2093.00, 
2094.00, 
2095.00, 
2096.00, 
2097.00, 
2098.00, 
2099.00, 
2100.00, 
2101.00, 
2102.00, 
2103.00, 
2104.00, 
2105.00, 
2106.00, 
2107.00, 
2108.00, 
2109.00, 
2110.00, 
2111.00, 
2112.00, 
2113.00, 
2114.00, 
2115.00, 
2116.00, 
2117.00, 
2118.00, 
2119.00, 
2120.00, 
2121.00, 
2122.00, 
2123.00, 
2124.00, 
2125.00, 
2126.00, 
2127.00, 
2128.00, 
2129.00, 
2130.00, 
2131.00, 
2132.00, 
2133.00, 
2134.00, 
2135.00, 
2136.00, 
2137.00, 
2138.00, 
2139.00, 
2140.00, 
2141.00, 
2142.00, 
2143.00, 
2144.00, 
2145.00, 
2146.00, 
2147.00, 
2148.00, 
2149.00, 
2150.00, 
2151.00, 
2152.00, 
2153.00, 
2154.00, 
2155.00, 
2156.00, 
2157.00, 
2158.00, 
2159.00, 
2160.00, 
2161.00, 
2162.00, 
2163.00, 
2164.00, 
2165.00, 
2166.00, 
2167.00, 
2168.00, 
2169.00, 
2170.00, 
2171.00, 
2172.00, 
2173.00, 
2174.00, 
2175.00, 
2176.00, 
2177.00, 
2178.00, 
2179.00, 
2180.00, 
2181.00, 
2182.00, 
2183.00, 
2184.00, 
2185.00, 
2186.00, 
2187.00, 
2188.00, 
2189.00, 
2190.00, 
2191.00, 
2192.00, 
2193.00, 
2194.00, 
2195.00, 
2196.00, 
2197.00, 
2198.00, 
2199.00, 
2200.00, 
2201.00, 
2202.00, 
2203.00, 
2204.00, 
2205.00, 
2206.00, 
2207.00, 
2208.00, 
2209.00, 
2210.00, 
2211.00, 
2212.00, 
2213.00, 
2214.00, 
2215.00, 
2216.00, 
2217.00, 
2218.00, 
2219.00, 
2220.00, 
2221.00, 
2222.00, 
2223.00, 
2224.00, 
2225.00, 
2226.00, 
2227.00, 
2228.00, 
2229.00, 
2230.00, 
2231.00, 
2232.00, 
2233.00, 
2234.00, 
2235.00, 
2236.00, 
2237.00, 
2238.00, 
2239.00, 
2240.00, 
2241.00, 
2242.00, 
2243.00, 
2244.00, 
2245.00, 
2246.00, 
2247.00, 
2248.00, 
2249.00, 
2250.00, 
2251.00, 
2252.00, 
2253.00, 
2254.00, 
2255.00, 
2256.00, 
2257.00, 
2258.00, 
2259.00, 
2260.00, 
2261.00, 
2262.00, 
2263.00, 
2264.00, 
2265.00, 
2266.00, 
2267.00, 
2268.00, 
2269.00, 
2270.00, 
2271.00, 
2272.00, 
2273.00, 
2274.00, 
2275.00, 
2276.00, 
2277.00, 
2278.00, 
2279.00, 
2280.00, 
2281.00, 
2282.00, 
2283.00, 
2284.00, 
2285.00, 
2286.00, 
2287.00, 
2288.00, 
2289.00, 
2290.00, 
2291.00, 
2292.00, 
2293.00, 
2294.00, 
2295.00, 
2296.00, 
2297.00, 
2298.00, 
2299.00, 
2300.00, 
2301.00, 
2302.00, 
2303.00, 
2304.00, 
2305.00, 
2306.00, 
2307.00, 
2308.00, 
2309.00, 
2310.00, 
2311.00, 
2312.00, 
2313.00, 
2314.00, 
2315.00, 
2316.00, 
2317.00, 
2318.00, 
2319.00, 
2320.00, 
2321.00, 
2322.00, 
2323.00, 
2324.00, 
2325.00, 
2326.00, 
2327.00, 
2328.00, 
2329.00, 
2330.00, 
2331.00, 
2332.00, 
2333.00, 
2334.00, 
2335.00, 
2336.00, 
2337.00, 
2338.00, 
2339.00, 
2340.00, 
2341.00, 
2342.00, 
2343.00, 
2344.00, 
2345.00, 
2346.00, 
2347.00, 
2348.00, 
2349.00, 
2350.00, 
2351.00, 
2352.00, 
2353.00, 
2354.00, 
2355.00, 
2356.00, 
2357.00, 
2358.00, 
2359.00, 
2360.00, 
2361.00, 
2362.00, 
2363.00, 
2364.00, 
2365.00, 
2366.00, 
2367.00, 
2368.00, 
2369.00, 
2370.00, 
2371.00, 
2372.00, 
2373.00, 
2374.00, 
2375.00, 
2376.00, 
2377.00, 
2378.00, 
2379.00, 
2380.00, 
2381.00, 
2382.00, 
2383.00, 
2384.00, 
2385.00, 
2386.00, 
2387.00, 
2388.00, 
2389.00, 
2390.00, 
2391.00, 
2392.00, 
2393.00, 
2394.00, 
2395.00, 
2396.00, 
2397.00, 
2398.00, 
2399.00, 
2400.00, 
2401.00, 
2402.00, 
2403.00, 
2404.00, 
2405.00, 
2406.00, 
2407.00, 
2408.00, 
2409.00, 
2410.00, 
2411.00, 
2412.00, 
2413.00, 
2414.00, 
2415.00, 
2416.00, 
2417.00, 
2418.00, 
2419.00, 
2420.00, 
2421.00, 
2422.00, 
2423.00, 
2424.00, 
2425.00, 
2426.00, 
2427.00, 
2428.00, 
2429.00, 
2430.00, 
2431.00, 
2432.00, 
2433.00, 
2434.00, 
2435.00, 
2436.00, 
2437.00, 
2438.00, 
2439.00, 
2440.00, 
2441.00, 
2442.00, 
2443.00, 
2444.00, 
2445.00, 
2446.00, 
2447.00, 
2448.00, 
2449.00, 
2450.00, 
2451.00, 
2452.00, 
2453.00, 
2454.00, 
2455.00, 
2456.00, 
2457.00, 
2458.00, 
2459.00, 
2460.00, 
2461.00, 
2462.00, 
2463.00, 
2464.00, 
2465.00, 
2466.00, 
2467.00, 
2468.00, 
2469.00, 
2470.00, 
2471.00, 
2472.00, 
2473.00, 
2474.00, 
2475.00, 
2476.00, 
2477.00, 
2478.00, 
2479.00, 
2480.00, 
2481.00, 
2482.00, 
2483.00, 
2484.00, 
2485.00, 
2486.00, 
2487.00, 
2488.00, 
2489.00, 
2490.00, 
2491.00, 
2492.00, 
2493.00, 
2494.00, 
2495.00, 
2496.00, 
2497.00, 
2498.00, 
2499.00, 
2500.00, 
2501.00, 
2502.00, 
2503.00, 
2504.00, 
2505.00, 
2506.00, 
2507.00, 
2508.00, 
2509.00, 
2510.00, 
2511.00, 
2512.00, 
2513.00, 
2514.00, 
2515.00, 
2516.00, 
2517.00, 
2518.00, 
2519.00, 
2520.00, 
2521.00, 
2522.00, 
2523.00, 
2524.00, 
2525.00, 
2526.00, 
2527.00, 
2528.00, 
2529.00, 
2530.00, 
2531.00, 
2532.00, 
2533.00, 
2534.00, 
2535.00, 
2536.00, 
2537.00, 
2538.00, 
2539.00, 
2540.00, 
2541.00, 
2542.00, 
2543.00, 
2544.00, 
2545.00, 
2546.00, 
2547.00, 
2548.00, 
2549.00, 
2550.00, 
2551.00, 
2552.00, 
2553.00, 
2554.00, 
2555.00, 
2556.00, 
2557.00, 
2558.00, 
2559.00, 
2560.00, 
2561.00, 
2562.00, 
2563.00, 
2564.00, 
2565.00, 
2566.00, 
2567.00, 
2568.00, 
2569.00, 
2570.00, 
2571.00, 
2572.00, 
2573.00, 
2574.00, 
2575.00, 
2576.00, 
2577.00, 
2578.00, 
2579.00, 
2580.00, 
2581.00, 
2582.00, 
2583.00, 
2584.00, 
2585.00, 
2586.00, 
2587.00, 
2588.00, 
2589.00, 
2590.00, 
2591.00, 
2592.00, 
2593.00, 
2594.00, 
2595.00, 
2596.00, 
2597.00, 
2598.00, 
2599.00, 
2600.00, 
