"2cP4 - RawData"
"Wavelength nm.","T%"
200.00,0.003
201.00,0.001
202.00,0.002
203.00,0.003
204.00,0.001
205.00,0.001
206.00,0.000
207.00,-0.002
208.00,0.001
209.00,0.002
210.00,0.002
211.00,0.000
212.00,-0.001
213.00,0.001
214.00,0.000
215.00,0.000
216.00,0.001
217.00,-0.000
218.00,0.005
219.00,0.002
220.00,0.001
221.00,-0.002
222.00,-0.001
223.00,-0.000
224.00,0.000
225.00,-0.001
226.00,0.000
227.00,0.001
228.00,-0.000
229.00,0.001
230.00,0.002
231.00,0.001
232.00,-0.001
233.00,0.002
234.00,-0.001
235.00,-0.000
236.00,0.000
237.00,0.002
238.00,0.001
239.00,-0.000
240.00,0.001
241.00,0.000
242.00,0.000
243.00,0.000
244.00,0.001
245.00,0.001
246.00,-0.000
247.00,-0.000
248.00,0.001
249.00,-0.001
250.00,0.001
251.00,0.001
252.00,0.001
253.00,0.001
254.00,-0.001
255.00,-0.001
256.00,0.000
257.00,-0.001
258.00,0.001
259.00,0.002
260.00,-0.001
261.00,0.001
262.00,0.001
263.00,0.002
264.00,-0.000
265.00,0.001
266.00,-0.000
267.00,-0.000
268.00,0.000
269.00,-0.001
270.00,0.000
271.00,-0.000
272.00,0.000
273.00,0.001
274.00,-0.000
275.00,-0.001
276.00,-0.001
277.00,0.000
278.00,0.001
279.00,0.002
280.00,0.001
281.00,0.001
282.00,0.002
283.00,-0.000
284.00,-0.001
285.00,0.000
286.00,0.000
287.00,-0.001
288.00,-0.002
289.00,0.000
290.00,-0.000
291.00,0.003
292.00,-0.000
293.00,0.000
294.00,0.000
295.00,-0.000
296.00,0.000
297.00,-0.000
298.00,0.001
299.00,0.001
300.00,0.001
301.00,0.004
302.00,0.005
303.00,0.006
304.00,0.009
305.00,0.016
306.00,0.023
307.00,0.037
308.00,0.059
309.00,0.090
310.00,0.130
311.00,0.171
312.00,0.237
313.00,0.314
314.00,0.416
315.00,0.547
316.00,0.698
317.00,0.897
318.00,1.086
319.00,1.331
320.00,1.607
321.00,1.937
322.00,2.304
323.00,2.707
324.00,3.140
325.00,3.584
326.00,4.042
327.00,4.558
328.00,5.081
329.00,5.637
330.00,6.220
331.00,6.780
332.00,7.359
333.00,7.976
334.00,8.553
335.00,9.186
336.00,9.783
337.00,10.394
338.00,10.979
339.00,11.531
340.00,12.068
341.00,12.580
342.00,13.112
343.00,13.598
344.00,14.098
345.00,14.549
346.00,14.970
347.00,15.390
348.00,15.742
349.00,16.116
350.00,16.444
351.00,16.747
352.00,17.030
353.00,17.270
354.00,17.524
355.00,17.810
356.00,18.056
357.00,18.238
358.00,18.418
359.00,18.650
360.00,18.795
361.00,18.929
362.00,19.041
363.00,19.223
364.00,19.311
365.00,19.442
366.00,19.511
367.00,19.568
368.00,19.642
369.00,19.649
370.00,19.685
371.00,19.708
372.00,19.722
373.00,19.712
374.00,19.704
375.00,19.720
376.00,19.648
377.00,19.595
378.00,19.582
379.00,19.497
380.00,19.478
381.00,19.462
382.00,19.460
383.00,19.430
384.00,19.470
385.00,19.500
386.00,19.497
387.00,19.517
388.00,19.602
389.00,19.605
390.00,19.616
391.00,19.626
392.00,19.652
393.00,19.656
394.00,19.667
395.00,19.678
396.00,19.651
397.00,19.691
398.00,19.716
399.00,19.688
400.00,19.701
401.00,19.718
402.00,19.704
403.00,19.712
404.00,19.743
405.00,19.683
406.00,19.645
407.00,19.655
408.00,19.642
409.00,19.596
410.00,19.556
411.00,19.556
412.00,19.524
413.00,19.533
414.00,19.538
415.00,19.551
416.00,19.597
417.00,19.583
418.00,19.623
419.00,19.672
420.00,19.711
421.00,19.764
422.00,19.798
423.00,19.831
424.00,19.883
425.00,19.908
426.00,19.934
427.00,20.001
428.00,20.037
429.00,20.065
430.00,20.115
431.00,20.194
432.00,20.251
433.00,20.279
434.00,20.354
435.00,20.406
436.00,20.478
437.00,20.563
438.00,20.637
439.00,20.699
440.00,20.788
441.00,20.869
442.00,20.935
443.00,21.045
444.00,21.108
445.00,21.188
446.00,21.331
447.00,21.415
448.00,21.500
449.00,21.614
450.00,21.726
451.00,21.836
452.00,21.923
453.00,22.051
454.00,22.145
455.00,22.250
456.00,22.382
457.00,22.504
458.00,22.607
459.00,22.748
460.00,22.871
461.00,23.062
462.00,23.121
463.00,23.265
464.00,23.417
465.00,23.505
466.00,23.651
467.00,23.798
468.00,23.904
469.00,24.035
470.00,24.127
471.00,24.235
472.00,24.356
473.00,24.467
474.00,24.580
475.00,24.713
476.00,24.843
477.00,24.938
478.00,25.088
479.00,25.220
480.00,25.357
481.00,25.540
482.00,25.681
483.00,25.811
484.00,25.994
485.00,26.153
486.00,26.289
487.00,26.448
488.00,26.586
489.00,26.753
490.00,26.925
491.00,27.037
492.00,27.280
493.00,27.391
494.00,27.404
495.00,27.582
496.00,27.713
497.00,27.825
498.00,28.014
499.00,28.167
500.00,28.236
501.00,28.400
502.00,28.514
503.00,28.670
504.00,28.702
505.00,28.880
506.00,29.030
507.00,29.125
508.00,29.225
509.00,29.367
510.00,29.518
511.00,29.615
512.00,29.792
513.00,29.906
514.00,30.041
515.00,30.175
516.00,30.281
517.00,30.420
518.00,30.509
519.00,30.592
520.00,30.665
521.00,30.755
522.00,30.835
523.00,30.898
524.00,31.019
525.00,31.154
526.00,31.200
527.00,31.332
528.00,31.409
529.00,31.562
530.00,31.672
531.00,31.852
532.00,31.888
533.00,32.028
534.00,32.095
535.00,32.178
536.00,32.238
537.00,32.340
538.00,32.457
539.00,32.463
540.00,32.548
541.00,32.621
542.00,32.678
543.00,32.749
544.00,32.847
545.00,32.934
546.00,32.968
547.00,33.048
548.00,33.169
549.00,33.224
550.00,33.355
551.00,33.388
552.00,33.488
553.00,33.534
554.00,33.604
555.00,33.654
556.00,33.697
557.00,33.786
558.00,33.819
559.00,33.904
560.00,33.964
561.00,34.053
562.00,34.084
563.00,34.158
564.00,34.226
565.00,34.230
566.00,34.286
567.00,34.280
568.00,34.353
569.00,34.411
570.00,34.416
571.00,34.525
572.00,34.533
573.00,34.476
574.00,34.622
575.00,34.611
576.00,34.605
577.00,34.729
578.00,34.789
579.00,34.878
580.00,34.917
581.00,35.035
582.00,35.137
583.00,35.139
584.00,35.258
585.00,35.304
586.00,35.341
587.00,35.389
588.00,35.503
589.00,35.420
590.00,35.461
591.00,35.566
592.00,35.580
593.00,35.588
594.00,35.738
595.00,35.763
596.00,35.846
597.00,35.861
598.00,36.002
599.00,35.988
600.00,36.019
601.00,36.028
602.00,36.125
603.00,36.141
604.00,36.187
605.00,36.256
606.00,36.324
607.00,36.331
608.00,36.422
609.00,36.495
610.00,36.439
611.00,36.519
612.00,36.573
613.00,36.644
614.00,36.724
615.00,36.737
616.00,36.879
617.00,36.902
618.00,36.954
619.00,37.021
620.00,37.052
621.00,37.096
622.00,37.229
623.00,37.326
624.00,37.344
625.00,37.399
626.00,37.490
627.00,37.582
628.00,37.625
629.00,37.652
630.00,37.721
631.00,37.803
632.00,37.852
633.00,38.010
634.00,38.069
635.00,38.161
636.00,38.244
637.00,38.268
638.00,38.345
639.00,38.456
640.00,38.493
641.00,38.554
642.00,38.669
643.00,38.678
644.00,38.803
645.00,38.955
646.00,39.032
647.00,39.052
648.00,39.060
649.00,39.185
650.00,39.363
651.00,39.439
652.00,39.635
653.00,39.710
654.00,39.724
655.00,39.965
656.00,40.093
657.00,40.080
658.00,40.165
659.00,40.357
660.00,40.402
661.00,40.434
662.00,40.626
663.00,40.606
664.00,40.791
665.00,40.909
666.00,40.965
667.00,41.142
668.00,41.089
669.00,41.320
670.00,41.482
671.00,41.416
672.00,41.560
673.00,41.718
674.00,41.727
675.00,41.887
676.00,42.116
677.00,42.121
678.00,42.084
679.00,42.561
680.00,42.375
681.00,42.541
682.00,42.675
683.00,42.774
684.00,42.927
685.00,42.965
686.00,43.038
687.00,43.149
688.00,43.143
689.00,43.249
690.00,43.476
691.00,43.713
692.00,43.544
693.00,43.728
694.00,43.779
695.00,43.873
696.00,43.984
697.00,44.138
698.00,44.221
699.00,44.365
700.00,44.533
701.00,44.583
702.00,44.722
703.00,44.806
704.00,44.921
705.00,44.821
706.00,44.996
707.00,45.132
708.00,44.994
709.00,45.303
710.00,45.653
711.00,45.338
712.00,45.469
713.00,45.517
714.00,45.644
715.00,45.700
716.00,45.849
717.00,45.892
718.00,45.957
719.00,46.050
720.00,46.196
721.00,50.482
722.00,50.503
723.00,50.625
724.00,50.581
725.00,50.589
726.00,50.589
727.00,50.628
728.00,50.755
729.00,50.743
730.00,50.785
731.00,50.769
732.00,50.885
733.00,50.946
734.00,50.987
735.00,51.013
736.00,51.070
737.00,51.154
738.00,51.158
739.00,51.273
740.00,51.257
741.00,51.335
742.00,51.325
743.00,51.376
744.00,51.336
745.00,51.347
746.00,51.452
747.00,51.480
748.00,51.452
749.00,51.404
750.00,51.471
751.00,51.466
752.00,51.483
753.00,51.538
754.00,51.534
755.00,51.578
756.00,51.526
757.00,51.562
758.00,51.609
759.00,51.647
760.00,51.623
761.00,51.767
762.00,51.724
763.00,51.772
764.00,51.794
765.00,51.722
766.00,51.816
767.00,51.842
768.00,51.864
769.00,51.887
770.00,51.885
771.00,51.901
772.00,51.961
773.00,51.905
774.00,51.916
775.00,51.987
776.00,51.930
777.00,51.937
778.00,51.992
779.00,52.113
780.00,52.023
781.00,52.075
782.00,52.129
783.00,52.033
784.00,52.101
785.00,52.012
786.00,52.034
787.00,52.052
788.00,52.033
789.00,52.078
790.00,52.059
791.00,52.159
792.00,51.986
793.00,52.008
794.00,52.050
795.00,52.083
796.00,52.126
797.00,51.963
798.00,52.031
799.00,52.031
800.00,51.995
801.00,52.010
802.00,51.967
803.00,52.019
804.00,51.896
805.00,51.962
806.00,51.925
807.00,51.892
808.00,52.013
809.00,51.892
810.00,51.934
811.00,51.911
812.00,51.957
813.00,51.818
814.00,51.910
815.00,51.841
816.00,51.931
817.00,51.835
818.00,51.773
819.00,51.868
820.00,51.794
821.00,51.757
822.00,51.759
823.00,51.743
824.00,51.768
825.00,51.614
826.00,51.724
827.00,51.764
828.00,51.732
829.00,51.711
830.00,51.698
831.00,53.901
832.00,53.862
833.00,53.900
834.00,53.855
835.00,53.837
836.00,53.878
837.00,53.821
838.00,53.824
839.00,53.800
840.00,53.748
841.00,53.751
842.00,53.750
843.00,53.744
844.00,53.746
845.00,53.637
846.00,53.721
847.00,53.661
848.00,53.649
849.00,53.612
850.00,53.578
851.00,53.548
852.00,53.538
853.00,53.488
854.00,53.466
855.00,53.421
856.00,53.421
857.00,53.376
858.00,53.387
859.00,53.354
860.00,53.319
861.00,53.323
862.00,53.276
863.00,53.295
864.00,53.263
865.00,53.302
866.00,53.272
867.00,53.291
868.00,53.277
869.00,53.250
870.00,53.265
871.00,53.245
872.00,53.243
873.00,53.218
874.00,53.183
875.00,53.283
876.00,53.202
877.00,53.173
878.00,53.143
879.00,53.131
880.00,53.131
881.00,53.111
882.00,53.106
883.00,53.110
884.00,53.070
885.00,53.053
886.00,53.014
887.00,53.011
888.00,52.986
889.00,52.966
890.00,52.947
891.00,52.914
892.00,52.921
893.00,52.864
894.00,52.870
895.00,52.859
896.00,52.837
897.00,52.833
898.00,52.806
899.00,52.793
900.00,52.805
901.00,52.799
902.00,52.790
903.00,52.779
904.00,52.751
905.00,52.739
906.00,52.731
907.00,52.686
908.00,52.677
909.00,52.680
910.00,52.616
911.00,52.619
912.00,52.636
913.00,52.558
914.00,52.508
915.00,52.517
916.00,52.531
917.00,52.483
918.00,52.456
919.00,52.445
920.00,52.442
921.00,52.413
922.00,52.408
923.00,52.361
924.00,52.381
925.00,52.328
926.00,52.337
927.00,52.311
928.00,52.282
929.00,52.300
930.00,52.251
931.00,52.249
932.00,52.213
933.00,52.200
934.00,52.191
935.00,52.170
936.00,52.144
937.00,52.154
938.00,52.127
939.00,52.126
940.00,52.103
941.00,52.090
942.00,52.062
943.00,52.064
944.00,51.970
945.00,52.002
946.00,51.983
947.00,51.960
948.00,51.935
949.00,51.938
950.00,51.907
951.00,51.877
952.00,51.852
953.00,51.831
954.00,51.810
955.00,51.760
956.00,51.749
957.00,51.717
958.00,51.732
959.00,51.667
960.00,51.673
961.00,51.746
962.00,51.677
963.00,51.620
964.00,51.617
965.00,51.623
966.00,51.627
967.00,51.605
968.00,51.589
969.00,51.605
970.00,51.583
971.00,51.602
972.00,51.553
973.00,51.591
974.00,51.606
975.00,51.574
976.00,51.602
977.00,51.584
978.00,51.614
979.00,51.550
980.00,51.592
981.00,51.591
982.00,51.560
983.00,51.575
984.00,51.559
985.00,51.583
986.00,51.529
987.00,51.561
988.00,51.519
989.00,51.505
990.00,51.503
991.00,51.481
992.00,51.494
993.00,51.464
994.00,51.433
995.00,51.448
996.00,51.433
997.00,51.419
998.00,51.406
999.00,51.428
1000.00,51.351
1001.00,51.380
1002.00,51.353
1003.00,51.359
1004.00,51.336
1005.00,51.308
1006.00,51.350
1007.00,51.293
1008.00,51.284
1009.00,51.270
1010.00,51.261
1011.00,51.249
1012.00,51.220
1013.00,51.214
1014.00,51.172
1015.00,51.188
1016.00,51.143
1017.00,51.162
1018.00,51.117
1019.00,51.110
1020.00,51.085
1021.00,51.073
1022.00,51.120
1023.00,51.035
1024.00,51.050
1025.00,51.039
1026.00,51.027
1027.00,50.993
1028.00,50.988
1029.00,50.971
1030.00,50.947
1031.00,50.951
1032.00,50.912
1033.00,50.912
1034.00,50.897
1035.00,50.862
1036.00,50.836
1037.00,50.828
1038.00,50.800
1039.00,50.772
1040.00,50.777
1041.00,50.741
1042.00,50.738
1043.00,50.709
1044.00,50.737
1045.00,50.713
1046.00,50.701
1047.00,50.713
1048.00,50.724
1049.00,50.738
1050.00,50.737
1051.00,50.770
1052.00,50.769
1053.00,50.789
1054.00,50.777
1055.00,50.796
1056.00,50.805
1057.00,50.806
1058.00,50.791
1059.00,50.789
1060.00,50.782
1061.00,50.772
1062.00,50.753
1063.00,50.762
1064.00,50.749
1065.00,50.744
1066.00,50.747
1067.00,50.758
1068.00,50.735
1069.00,50.707
1070.00,50.696
1071.00,50.671
1072.00,50.690
1073.00,50.658
1074.00,50.660
1075.00,50.649
1076.00,50.641
1077.00,50.629
1078.00,50.630
1079.00,50.603
1080.00,50.613
1081.00,50.590
1082.00,50.606
1083.00,50.627
1084.00,50.591
1085.00,50.589
1086.00,50.591
1087.00,50.571
1088.00,50.555
1089.00,50.543
1090.00,50.541
1091.00,50.540
1092.00,50.529
1093.00,50.492
1094.00,50.482
1095.00,50.474
1096.00,50.464
1097.00,50.462
1098.00,50.456
1099.00,50.455
1100.00,50.446
1101.00,50.416
1102.00,50.410
1103.00,50.406
1104.00,50.388
1105.00,50.381
1106.00,50.368
1107.00,50.362
1108.00,50.351
1109.00,50.338
1110.00,50.349
1111.00,50.338
1112.00,50.334
1113.00,50.330
1114.00,50.323
1115.00,50.319
1116.00,50.310
1117.00,50.288
1118.00,50.281
1119.00,50.271
1120.00,50.264
1121.00,50.264
1122.00,50.244
1123.00,50.229
1124.00,50.227
1125.00,50.221
1126.00,50.207
1127.00,50.212
1128.00,50.215
1129.00,50.191
1130.00,50.177
1131.00,50.177
1132.00,50.173
1133.00,50.168
1134.00,50.156
1135.00,50.157
1136.00,50.155
1137.00,50.141
1138.00,50.143
1139.00,50.148
1140.00,50.134
1141.00,50.123
1142.00,50.116
1143.00,50.149
1144.00,50.111
1145.00,50.080
1146.00,50.089
1147.00,50.084
1148.00,50.068
1149.00,50.083
1150.00,50.090
1151.00,50.095
1152.00,50.079
1153.00,50.085
1154.00,50.065
1155.00,50.073
1156.00,50.045
1157.00,50.058
1158.00,50.056
1159.00,50.051
1160.00,50.045
1161.00,50.063
1162.00,50.061
1163.00,50.052
1164.00,50.053
1165.00,50.044
1166.00,50.041
1167.00,50.027
1168.00,50.043
1169.00,50.034
1170.00,50.032
1171.00,50.008
1172.00,50.012
1173.00,50.001
1174.00,50.006
1175.00,49.998
1176.00,50.005
1177.00,50.006
1178.00,49.991
1179.00,50.005
1180.00,49.996
1181.00,50.010
1182.00,50.010
1183.00,49.997
1184.00,49.994
1185.00,50.016
1186.00,49.990
1187.00,49.998
1188.00,49.987
1189.00,49.987
1190.00,49.984
1191.00,49.987
1192.00,49.991
1193.00,49.968
1194.00,49.984
1195.00,49.960
1196.00,49.986
1197.00,49.967
1198.00,49.969
1199.00,49.969
1200.00,49.966
1201.00,49.964
1202.00,49.935
1203.00,49.943
1204.00,49.925
1205.00,49.948
1206.00,49.933
1207.00,49.943
1208.00,49.932
1209.00,49.933
1210.00,49.947
1211.00,49.934
1212.00,49.955
1213.00,49.919
1214.00,49.950
1215.00,49.935
1216.00,49.940
1217.00,49.944
1218.00,49.930
1219.00,49.947
1220.00,49.926
1221.00,49.930
1222.00,49.912
1223.00,49.947
1224.00,49.941
1225.00,49.926
1226.00,49.929
1227.00,49.929
1228.00,49.943
1229.00,49.940
1230.00,49.966
1231.00,49.961
1232.00,49.982
1233.00,49.974
1234.00,49.986
1235.00,49.975
1236.00,49.973
1237.00,49.977
1238.00,49.986
1239.00,49.976
1240.00,49.974
1241.00,49.983
1242.00,49.978
1243.00,50.004
1244.00,49.977
1245.00,50.014
1246.00,50.012
1247.00,49.996
1248.00,50.000
1249.00,50.001
1250.00,50.000
1251.00,50.007
1252.00,50.012
1253.00,50.004
1254.00,50.037
1255.00,50.010
1256.00,49.984
1257.00,49.992
1258.00,50.042
1259.00,50.022
1260.00,50.049
1261.00,50.038
1262.00,50.035
1263.00,50.023
1264.00,50.042
1265.00,50.051
1266.00,50.040
1267.00,50.052
1268.00,50.068
1269.00,50.047
1270.00,50.057
1271.00,50.066
1272.00,50.074
1273.00,50.085
1274.00,50.076
1275.00,50.082
1276.00,50.080
1277.00,50.078
1278.00,50.091
1279.00,50.091
1280.00,50.077
1281.00,50.094
1282.00,50.103
1283.00,50.106
1284.00,50.092
1285.00,50.088
1286.00,50.111
1287.00,50.100
1288.00,50.110
1289.00,50.108
1290.00,50.134
1291.00,50.122
1292.00,50.125
1293.00,50.126
1294.00,50.142
1295.00,50.153
1296.00,50.132
1297.00,50.163
1298.00,50.212
1299.00,50.173
1300.00,50.171
1301.00,50.183
1302.00,50.186
1303.00,50.200
1304.00,50.182
1305.00,50.207
1306.00,50.211
1307.00,50.199
1308.00,50.235
1309.00,50.235
1310.00,50.217
1311.00,50.195
1312.00,50.215
1313.00,50.215
1314.00,50.228
1315.00,50.245
1316.00,50.248
1317.00,50.260
1318.00,50.246
1319.00,50.258
1320.00,50.273
1321.00,50.428
1322.00,50.441
1323.00,50.419
1324.00,50.419
1325.00,50.402
1326.00,50.434
1327.00,50.415
1328.00,50.409
1329.00,50.407
1330.00,50.416
1331.00,50.427
1332.00,50.431
1333.00,50.429
1334.00,50.449
1335.00,50.454
1336.00,50.484
1337.00,50.504
1338.00,50.585
1339.00,50.624
1340.00,50.675
1341.00,50.732
1342.00,50.801
1343.00,50.862
1344.00,50.901
1345.00,50.954
1346.00,50.982
1347.00,51.033
1348.00,51.052
1349.00,51.066
1350.00,51.075
1351.00,51.088
1352.00,51.089
1353.00,51.127
1354.00,51.129
1355.00,51.065
1356.00,51.143
1357.00,51.109
1358.00,51.094
1359.00,51.097
1360.00,51.149
1361.00,51.194
1362.00,51.008
1363.00,51.217
1364.00,51.285
1365.00,51.120
1366.00,51.174
1367.00,51.165
1368.00,51.019
1369.00,51.118
1370.00,51.135
1371.00,51.088
1372.00,51.112
1373.00,51.131
1374.00,51.113
1375.00,51.097
1376.00,51.080
1377.00,51.098
1378.00,51.106
1379.00,51.073
1380.00,51.096
1381.00,51.147
1382.00,51.048
1383.00,51.083
1384.00,51.068
1385.00,51.061
1386.00,51.065
1387.00,51.032
1388.00,51.083
1389.00,51.026
1390.00,51.088
1391.00,51.086
1392.00,51.011
1393.00,51.020
1394.00,51.009
1395.00,51.051
1396.00,51.085
1397.00,50.923
1398.00,51.109
1399.00,51.089
1400.00,51.063
1401.00,50.986
1402.00,51.144
1403.00,51.110
1404.00,50.988
1405.00,51.137
1406.00,51.120
1407.00,51.141
1408.00,51.122
1409.00,50.864
1410.00,51.161
1411.00,51.124
1412.00,51.189
1413.00,51.142
1414.00,51.180
1415.00,51.188
1416.00,51.194
1417.00,51.212
1418.00,51.208
1419.00,51.204
1420.00,51.240
1421.00,51.274
1422.00,51.260
1423.00,51.271
1424.00,51.274
1425.00,51.282
1426.00,51.278
1427.00,51.316
1428.00,51.321
1429.00,51.336
1430.00,51.342
1431.00,51.357
1432.00,51.378
1433.00,51.387
1434.00,51.374
1435.00,51.443
1436.00,51.431
1437.00,51.433
1438.00,51.452
1439.00,51.495
1440.00,51.491
1441.00,51.487
1442.00,51.517
1443.00,51.534
1444.00,51.549
1445.00,51.548
1446.00,51.583
1447.00,51.611
1448.00,51.633
1449.00,51.637
1450.00,51.625
1451.00,51.643
1452.00,51.648
1453.00,51.676
1454.00,51.698
1455.00,51.716
1456.00,51.731
1457.00,51.743
1458.00,51.750
1459.00,51.761
1460.00,51.781
1461.00,51.793
1462.00,51.814
1463.00,51.817
1464.00,51.832
1465.00,51.837
1466.00,51.837
1467.00,51.865
1468.00,51.924
1469.00,51.900
1470.00,51.905
1471.00,51.933
1472.00,51.939
1473.00,51.948
1474.00,51.976
1475.00,51.990
1476.00,51.994
1477.00,51.978
1478.00,52.001
1479.00,52.024
1480.00,52.019
1481.00,52.038
1482.00,52.068
1483.00,52.071
1484.00,52.076
1485.00,52.079
1486.00,52.102
1487.00,52.113
1488.00,52.121
1489.00,52.118
1490.00,52.137
1491.00,52.150
1492.00,52.163
1493.00,52.158
1494.00,52.207
1495.00,52.191
1496.00,52.188
1497.00,52.195
1498.00,52.217
1499.00,52.227
1500.00,52.236
1501.00, 
1502.00, 
1503.00, 
1504.00, 
1505.00, 
1506.00, 
1507.00, 
1508.00, 
1509.00, 
1510.00, 
1511.00, 
1512.00, 
1513.00, 
1514.00, 
1515.00, 
1516.00, 
1517.00, 
1518.00, 
1519.00, 
1520.00, 
1521.00, 
1522.00, 
1523.00, 
1524.00, 
1525.00, 
1526.00, 
1527.00, 
1528.00, 
1529.00, 
1530.00, 
1531.00, 
1532.00, 
1533.00, 
1534.00, 
1535.00, 
1536.00, 
1537.00, 
1538.00, 
1539.00, 
1540.00, 
1541.00, 
1542.00, 
1543.00, 
1544.00, 
1545.00, 
1546.00, 
1547.00, 
1548.00, 
1549.00, 
1550.00, 
1551.00, 
1552.00, 
1553.00, 
1554.00, 
1555.00, 
1556.00, 
1557.00, 
1558.00, 
1559.00, 
1560.00, 
1561.00, 
1562.00, 
1563.00, 
1564.00, 
1565.00, 
1566.00, 
1567.00, 
1568.00, 
1569.00, 
1570.00, 
1571.00, 
1572.00, 
1573.00, 
1574.00, 
1575.00, 
1576.00, 
1577.00, 
1578.00, 
1579.00, 
1580.00, 
1581.00, 
1582.00, 
1583.00, 
1584.00, 
1585.00, 
1586.00, 
1587.00, 
1588.00, 
1589.00, 
1590.00, 
1591.00, 
1592.00, 
1593.00, 
1594.00, 
1595.00, 
1596.00, 
1597.00, 
1598.00, 
1599.00, 
1600.00, 
1601.00, 
1602.00, 
1603.00, 
1604.00, 
1605.00, 
1606.00, 
1607.00, 
1608.00, 
1609.00, 
1610.00, 
1611.00, 
1612.00, 
1613.00, 
1614.00, 
1615.00, 
1616.00, 
1617.00, 
1618.00, 
1619.00, 
1620.00, 
1621.00, 
1622.00, 
1623.00, 
1624.00, 
1625.00, 
1626.00, 
1627.00, 
1628.00, 
1629.00, 
1630.00, 
1631.00, 
1632.00, 
1633.00, 
1634.00, 
1635.00, 
1636.00, 
1637.00, 
1638.00, 
1639.00, 
1640.00, 
1641.00, 
1642.00, 
1643.00, 
1644.00, 
1645.00, 
1646.00, 
1647.00, 
1648.00, 
1649.00, 
1650.00, 
1651.00, 
1652.00, 
1653.00, 
1654.00, 
1655.00, 
1656.00, 
1657.00, 
1658.00, 
1659.00, 
1660.00, 
1661.00, 
1662.00, 
1663.00, 
1664.00, 
1665.00, 
1666.00, 
1667.00, 
1668.00, 
1669.00, 
1670.00, 
1671.00, 
1672.00, 
1673.00, 
1674.00, 
1675.00, 
1676.00, 
1677.00, 
1678.00, 
1679.00, 
1680.00, 
1681.00, 
1682.00, 
1683.00, 
1684.00, 
1685.00, 
1686.00, 
1687.00, 
1688.00, 
1689.00, 
1690.00, 
1691.00, 
1692.00, 
1693.00, 
1694.00, 
1695.00, 
1696.00, 
1697.00, 
1698.00, 
1699.00, 
1700.00, 
1701.00, 
1702.00, 
1703.00, 
1704.00, 
1705.00, 
1706.00, 
1707.00, 
1708.00, 
1709.00, 
1710.00, 
1711.00, 
1712.00, 
1713.00, 
1714.00, 
1715.00, 
1716.00, 
1717.00, 
1718.00, 
1719.00, 
1720.00, 
1721.00, 
1722.00, 
1723.00, 
1724.00, 
1725.00, 
1726.00, 
1727.00, 
1728.00, 
1729.00, 
1730.00, 
1731.00, 
1732.00, 
1733.00, 
1734.00, 
1735.00, 
1736.00, 
1737.00, 
1738.00, 
1739.00, 
1740.00, 
1741.00, 
1742.00, 
1743.00, 
1744.00, 
1745.00, 
1746.00, 
1747.00, 
1748.00, 
1749.00, 
1750.00, 
1751.00, 
1752.00, 
1753.00, 
1754.00, 
1755.00, 
1756.00, 
1757.00, 
1758.00, 
1759.00, 
1760.00, 
1761.00, 
1762.00, 
1763.00, 
1764.00, 
1765.00, 
1766.00, 
1767.00, 
1768.00, 
1769.00, 
1770.00, 
1771.00, 
1772.00, 
1773.00, 
1774.00, 
1775.00, 
1776.00, 
1777.00, 
1778.00, 
1779.00, 
1780.00, 
1781.00, 
1782.00, 
1783.00, 
1784.00, 
1785.00, 
1786.00, 
1787.00, 
1788.00, 
1789.00, 
1790.00, 
1791.00, 
1792.00, 
1793.00, 
1794.00, 
1795.00, 
1796.00, 
1797.00, 
1798.00, 
1799.00, 
1800.00, 
1801.00, 
1802.00, 
1803.00, 
1804.00, 
1805.00, 
1806.00, 
1807.00, 
1808.00, 
1809.00, 
1810.00, 
1811.00, 
1812.00, 
1813.00, 
1814.00, 
1815.00, 
1816.00, 
1817.00, 
1818.00, 
1819.00, 
1820.00, 
1821.00, 
1822.00, 
1823.00, 
1824.00, 
1825.00, 
1826.00, 
1827.00, 
1828.00, 
1829.00, 
1830.00, 
1831.00, 
1832.00, 
1833.00, 
1834.00, 
1835.00, 
1836.00, 
1837.00, 
1838.00, 
1839.00, 
1840.00, 
1841.00, 
1842.00, 
1843.00, 
1844.00, 
1845.00, 
1846.00, 
1847.00, 
1848.00, 
1849.00, 
1850.00, 
1851.00, 
1852.00, 
1853.00, 
1854.00, 
1855.00, 
1856.00, 
1857.00, 
1858.00, 
1859.00, 
1860.00, 
1861.00, 
1862.00, 
1863.00, 
1864.00, 
1865.00, 
1866.00, 
1867.00, 
1868.00, 
1869.00, 
1870.00, 
1871.00, 
1872.00, 
1873.00, 
1874.00, 
1875.00, 
1876.00, 
1877.00, 
1878.00, 
1879.00, 
1880.00, 
1881.00, 
1882.00, 
1883.00, 
1884.00, 
1885.00, 
1886.00, 
1887.00, 
1888.00, 
1889.00, 
1890.00, 
1891.00, 
1892.00, 
1893.00, 
1894.00, 
1895.00, 
1896.00, 
1897.00, 
1898.00, 
1899.00, 
1900.00, 
1901.00, 
1902.00, 
1903.00, 
1904.00, 
1905.00, 
1906.00, 
1907.00, 
1908.00, 
1909.00, 
1910.00, 
1911.00, 
1912.00, 
1913.00, 
1914.00, 
1915.00, 
1916.00, 
1917.00, 
1918.00, 
1919.00, 
1920.00, 
1921.00, 
1922.00, 
1923.00, 
1924.00, 
1925.00, 
1926.00, 
1927.00, 
1928.00, 
1929.00, 
1930.00, 
1931.00, 
1932.00, 
1933.00, 
1934.00, 
1935.00, 
1936.00, 
1937.00, 
1938.00, 
1939.00, 
1940.00, 
1941.00, 
1942.00, 
1943.00, 
1944.00, 
1945.00, 
1946.00, 
1947.00, 
1948.00, 
1949.00, 
1950.00, 
1951.00, 
1952.00, 
1953.00, 
1954.00, 
1955.00, 
1956.00, 
1957.00, 
1958.00, 
1959.00, 
1960.00, 
1961.00, 
1962.00, 
1963.00, 
1964.00, 
1965.00, 
1966.00, 
1967.00, 
1968.00, 
1969.00, 
1970.00, 
1971.00, 
1972.00, 
1973.00, 
1974.00, 
1975.00, 
1976.00, 
1977.00, 
1978.00, 
1979.00, 
1980.00, 
1981.00, 
1982.00, 
1983.00, 
1984.00, 
1985.00, 
1986.00, 
1987.00, 
1988.00, 
1989.00, 
1990.00, 
1991.00, 
1992.00, 
1993.00, 
1994.00, 
1995.00, 
1996.00, 
1997.00, 
1998.00, 
1999.00, 
2000.00, 
2001.00, 
2002.00, 
2003.00, 
2004.00, 
2005.00, 
2006.00, 
2007.00, 
2008.00, 
2009.00, 
2010.00, 
2011.00, 
2012.00, 
2013.00, 
2014.00, 
2015.00, 
2016.00, 
2017.00, 
2018.00, 
2019.00, 
2020.00, 
2021.00, 
2022.00, 
2023.00, 
2024.00, 
2025.00, 
2026.00, 
2027.00, 
2028.00, 
2029.00, 
2030.00, 
2031.00, 
2032.00, 
2033.00, 
2034.00, 
2035.00, 
2036.00, 
2037.00, 
2038.00, 
2039.00, 
2040.00, 
2041.00, 
2042.00, 
2043.00, 
2044.00, 
2045.00, 
2046.00, 
2047.00, 
2048.00, 
2049.00, 
2050.00, 
2051.00, 
2052.00, 
2053.00, 
2054.00, 
2055.00, 
2056.00, 
2057.00, 
2058.00, 
2059.00, 
2060.00, 
2061.00, 
2062.00, 
2063.00, 
2064.00, 
2065.00, 
2066.00, 
2067.00, 
2068.00, 
2069.00, 
2070.00, 
2071.00, 
2072.00, 
2073.00, 
2074.00, 
2075.00, 
2076.00, 
2077.00, 
2078.00, 
2079.00, 
2080.00, 
2081.00, 
2082.00, 
2083.00, 
2084.00, 
2085.00, 
2086.00, 
2087.00, 
2088.00, 
2089.00, 
2090.00, 
2091.00, 
2092.00, 
2093.00, 
2094.00, 
2095.00, 
2096.00, 
2097.00, 
2098.00, 
2099.00, 
2100.00, 
2101.00, 
2102.00, 
2103.00, 
2104.00, 
2105.00, 
2106.00, 
2107.00, 
2108.00, 
2109.00, 
2110.00, 
2111.00, 
2112.00, 
2113.00, 
2114.00, 
2115.00, 
2116.00, 
2117.00, 
2118.00, 
2119.00, 
2120.00, 
2121.00, 
2122.00, 
2123.00, 
2124.00, 
2125.00, 
2126.00, 
2127.00, 
2128.00, 
2129.00, 
2130.00, 
2131.00, 
2132.00, 
2133.00, 
2134.00, 
2135.00, 
2136.00, 
2137.00, 
2138.00, 
2139.00, 
2140.00, 
2141.00, 
2142.00, 
2143.00, 
2144.00, 
2145.00, 
2146.00, 
2147.00, 
2148.00, 
2149.00, 
2150.00, 
2151.00, 
2152.00, 
2153.00, 
2154.00, 
2155.00, 
2156.00, 
2157.00, 
2158.00, 
2159.00, 
2160.00, 
2161.00, 
2162.00, 
2163.00, 
2164.00, 
2165.00, 
2166.00, 
2167.00, 
2168.00, 
2169.00, 
2170.00, 
2171.00, 
2172.00, 
2173.00, 
2174.00, 
2175.00, 
2176.00, 
2177.00, 
2178.00, 
2179.00, 
2180.00, 
2181.00, 
2182.00, 
2183.00, 
2184.00, 
2185.00, 
2186.00, 
2187.00, 
2188.00, 
2189.00, 
2190.00, 
2191.00, 
2192.00, 
2193.00, 
2194.00, 
2195.00, 
2196.00, 
2197.00, 
2198.00, 
2199.00, 
2200.00, 
2201.00, 
2202.00, 
2203.00, 
2204.00, 
2205.00, 
2206.00, 
2207.00, 
2208.00, 
2209.00, 
2210.00, 
2211.00, 
2212.00, 
2213.00, 
2214.00, 
2215.00, 
2216.00, 
2217.00, 
2218.00, 
2219.00, 
2220.00, 
2221.00, 
2222.00, 
2223.00, 
2224.00, 
2225.00, 
2226.00, 
2227.00, 
2228.00, 
2229.00, 
2230.00, 
2231.00, 
2232.00, 
2233.00, 
2234.00, 
2235.00, 
2236.00, 
2237.00, 
2238.00, 
2239.00, 
2240.00, 
2241.00, 
2242.00, 
2243.00, 
2244.00, 
2245.00, 
2246.00, 
2247.00, 
2248.00, 
2249.00, 
2250.00, 
2251.00, 
2252.00, 
2253.00, 
2254.00, 
2255.00, 
2256.00, 
2257.00, 
2258.00, 
2259.00, 
2260.00, 
2261.00, 
2262.00, 
2263.00, 
2264.00, 
2265.00, 
2266.00, 
2267.00, 
2268.00, 
2269.00, 
2270.00, 
2271.00, 
2272.00, 
2273.00, 
2274.00, 
2275.00, 
2276.00, 
2277.00, 
2278.00, 
2279.00, 
2280.00, 
2281.00, 
2282.00, 
2283.00, 
2284.00, 
2285.00, 
2286.00, 
2287.00, 
2288.00, 
2289.00, 
2290.00, 
2291.00, 
2292.00, 
2293.00, 
2294.00, 
2295.00, 
2296.00, 
2297.00, 
2298.00, 
2299.00, 
2300.00, 
2301.00, 
2302.00, 
2303.00, 
2304.00, 
2305.00, 
2306.00, 
2307.00, 
2308.00, 
2309.00, 
2310.00, 
2311.00, 
2312.00, 
2313.00, 
2314.00, 
2315.00, 
2316.00, 
2317.00, 
2318.00, 
2319.00, 
2320.00, 
2321.00, 
2322.00, 
2323.00, 
2324.00, 
2325.00, 
2326.00, 
2327.00, 
2328.00, 
2329.00, 
2330.00, 
2331.00, 
2332.00, 
2333.00, 
2334.00, 
2335.00, 
2336.00, 
2337.00, 
2338.00, 
2339.00, 
2340.00, 
2341.00, 
2342.00, 
2343.00, 
2344.00, 
2345.00, 
2346.00, 
2347.00, 
2348.00, 
2349.00, 
2350.00, 
2351.00, 
2352.00, 
2353.00, 
2354.00, 
2355.00, 
2356.00, 
2357.00, 
2358.00, 
2359.00, 
2360.00, 
2361.00, 
2362.00, 
2363.00, 
2364.00, 
2365.00, 
2366.00, 
2367.00, 
2368.00, 
2369.00, 
2370.00, 
2371.00, 
2372.00, 
2373.00, 
2374.00, 
2375.00, 
2376.00, 
2377.00, 
2378.00, 
2379.00, 
2380.00, 
2381.00, 
2382.00, 
2383.00, 
2384.00, 
2385.00, 
2386.00, 
2387.00, 
2388.00, 
2389.00, 
2390.00, 
2391.00, 
2392.00, 
2393.00, 
2394.00, 
2395.00, 
2396.00, 
2397.00, 
2398.00, 
2399.00, 
2400.00, 
2401.00, 
2402.00, 
2403.00, 
2404.00, 
2405.00, 
2406.00, 
2407.00, 
2408.00, 
2409.00, 
2410.00, 
2411.00, 
2412.00, 
2413.00, 
2414.00, 
2415.00, 
2416.00, 
2417.00, 
2418.00, 
2419.00, 
2420.00, 
2421.00, 
2422.00, 
2423.00, 
2424.00, 
2425.00, 
2426.00, 
2427.00, 
2428.00, 
2429.00, 
2430.00, 
2431.00, 
2432.00, 
2433.00, 
2434.00, 
2435.00, 
2436.00, 
2437.00, 
2438.00, 
2439.00, 
2440.00, 
2441.00, 
2442.00, 
2443.00, 
2444.00, 
2445.00, 
2446.00, 
2447.00, 
2448.00, 
2449.00, 
2450.00, 
2451.00, 
2452.00, 
2453.00, 
2454.00, 
2455.00, 
2456.00, 
2457.00, 
2458.00, 
2459.00, 
2460.00, 
2461.00, 
2462.00, 
2463.00, 
2464.00, 
2465.00, 
2466.00, 
2467.00, 
2468.00, 
2469.00, 
2470.00, 
2471.00, 
2472.00, 
2473.00, 
2474.00, 
2475.00, 
2476.00, 
2477.00, 
2478.00, 
2479.00, 
2480.00, 
2481.00, 
2482.00, 
2483.00, 
2484.00, 
2485.00, 
2486.00, 
2487.00, 
2488.00, 
2489.00, 
2490.00, 
2491.00, 
2492.00, 
2493.00, 
2494.00, 
2495.00, 
2496.00, 
2497.00, 
2498.00, 
2499.00, 
2500.00, 
2501.00, 
2502.00, 
2503.00, 
2504.00, 
2505.00, 
2506.00, 
2507.00, 
2508.00, 
2509.00, 
2510.00, 
2511.00, 
2512.00, 
2513.00, 
2514.00, 
2515.00, 
2516.00, 
2517.00, 
2518.00, 
2519.00, 
2520.00, 
2521.00, 
2522.00, 
2523.00, 
2524.00, 
2525.00, 
2526.00, 
2527.00, 
2528.00, 
2529.00, 
2530.00, 
2531.00, 
2532.00, 
2533.00, 
2534.00, 
2535.00, 
2536.00, 
2537.00, 
2538.00, 
2539.00, 
2540.00, 
2541.00, 
2542.00, 
2543.00, 
2544.00, 
2545.00, 
2546.00, 
2547.00, 
2548.00, 
2549.00, 
2550.00, 
2551.00, 
2552.00, 
2553.00, 
2554.00, 
2555.00, 
2556.00, 
2557.00, 
2558.00, 
2559.00, 
2560.00, 
2561.00, 
2562.00, 
2563.00, 
2564.00, 
2565.00, 
2566.00, 
2567.00, 
2568.00, 
2569.00, 
2570.00, 
2571.00, 
2572.00, 
2573.00, 
2574.00, 
2575.00, 
2576.00, 
2577.00, 
2578.00, 
2579.00, 
2580.00, 
2581.00, 
2582.00, 
2583.00, 
2584.00, 
2585.00, 
2586.00, 
2587.00, 
2588.00, 
2589.00, 
2590.00, 
2591.00, 
2592.00, 
2593.00, 
2594.00, 
2595.00, 
2596.00, 
2597.00, 
2598.00, 
2599.00, 
2600.00, 
