"2cP5 - RawData"
"Wavelength nm.","T%"
200.00,-0.000
201.00,0.002
202.00,0.003
203.00,-0.001
204.00,0.001
205.00,-0.001
206.00,0.002
207.00,0.003
208.00,0.001
209.00,0.003
210.00,0.001
211.00,0.002
212.00,0.001
213.00,-0.001
214.00,0.001
215.00,0.002
216.00,0.004
217.00,-0.001
218.00,-0.001
219.00,0.002
220.00,0.001
221.00,0.001
222.00,0.001
223.00,0.001
224.00,0.000
225.00,0.001
226.00,0.000
227.00,0.001
228.00,0.001
229.00,0.000
230.00,-0.000
231.00,0.000
232.00,0.002
233.00,-0.000
234.00,-0.001
235.00,0.000
236.00,0.001
237.00,0.003
238.00,0.001
239.00,0.000
240.00,0.001
241.00,0.002
242.00,0.002
243.00,-0.000
244.00,0.001
245.00,-0.001
246.00,-0.000
247.00,0.002
248.00,-0.000
249.00,0.000
250.00,0.002
251.00,-0.001
252.00,-0.001
253.00,-0.000
254.00,-0.001
255.00,0.001
256.00,-0.001
257.00,-0.000
258.00,-0.000
259.00,0.001
260.00,-0.000
261.00,0.000
262.00,0.001
263.00,0.002
264.00,0.001
265.00,-0.001
266.00,-0.002
267.00,0.001
268.00,-0.000
269.00,-0.000
270.00,-0.000
271.00,-0.001
272.00,0.001
273.00,0.000
274.00,-0.001
275.00,0.000
276.00,0.001
277.00,0.000
278.00,0.000
279.00,-0.000
280.00,-0.001
281.00,0.002
282.00,0.001
283.00,0.001
284.00,0.001
285.00,0.000
286.00,-0.002
287.00,-0.001
288.00,0.000
289.00,0.001
290.00,0.002
291.00,0.000
292.00,-0.000
293.00,0.001
294.00,0.000
295.00,0.001
296.00,0.001
297.00,-0.001
298.00,-0.000
299.00,0.000
300.00,0.003
301.00,0.002
302.00,0.003
303.00,0.008
304.00,0.009
305.00,0.015
306.00,0.023
307.00,0.034
308.00,0.056
309.00,0.088
310.00,0.121
311.00,0.160
312.00,0.219
313.00,0.294
314.00,0.395
315.00,0.513
316.00,0.646
317.00,0.827
318.00,1.023
319.00,1.247
320.00,1.523
321.00,1.816
322.00,2.155
323.00,2.550
324.00,2.948
325.00,3.343
326.00,3.756
327.00,4.274
328.00,4.791
329.00,5.272
330.00,5.824
331.00,6.346
332.00,6.891
333.00,7.491
334.00,8.046
335.00,8.615
336.00,9.163
337.00,9.739
338.00,10.293
339.00,10.763
340.00,11.314
341.00,11.811
342.00,12.310
343.00,12.757
344.00,13.175
345.00,13.676
346.00,14.047
347.00,14.393
348.00,14.759
349.00,15.060
350.00,15.389
351.00,15.681
352.00,15.943
353.00,16.185
354.00,16.426
355.00,16.651
356.00,16.896
357.00,17.062
358.00,17.199
359.00,17.416
360.00,17.609
361.00,17.708
362.00,17.846
363.00,17.969
364.00,18.027
365.00,18.110
366.00,18.179
367.00,18.269
368.00,18.293
369.00,18.304
370.00,18.376
371.00,18.353
372.00,18.341
373.00,18.337
374.00,18.348
375.00,18.355
376.00,18.302
377.00,18.250
378.00,18.196
379.00,18.126
380.00,18.115
381.00,18.085
382.00,18.101
383.00,18.053
384.00,18.073
385.00,18.114
386.00,18.129
387.00,18.144
388.00,18.205
389.00,18.196
390.00,18.216
391.00,18.203
392.00,18.183
393.00,18.190
394.00,18.201
395.00,18.271
396.00,18.248
397.00,18.205
398.00,18.229
399.00,18.183
400.00,18.252
401.00,18.219
402.00,18.228
403.00,18.230
404.00,18.270
405.00,18.214
406.00,18.178
407.00,18.180
408.00,18.145
409.00,18.117
410.00,18.088
411.00,18.097
412.00,18.055
413.00,18.098
414.00,18.061
415.00,18.081
416.00,18.102
417.00,18.111
418.00,18.133
419.00,18.190
420.00,18.243
421.00,18.272
422.00,18.307
423.00,18.339
424.00,18.386
425.00,18.397
426.00,18.410
427.00,18.493
428.00,18.524
429.00,18.551
430.00,18.612
431.00,18.689
432.00,18.720
433.00,18.747
434.00,18.829
435.00,18.895
436.00,18.956
437.00,19.033
438.00,19.107
439.00,19.186
440.00,19.276
441.00,19.325
442.00,19.388
443.00,19.471
444.00,19.595
445.00,19.693
446.00,19.798
447.00,19.858
448.00,19.983
449.00,20.088
450.00,20.223
451.00,20.281
452.00,20.375
453.00,20.500
454.00,20.596
455.00,20.702
456.00,20.811
457.00,20.959
458.00,21.032
459.00,21.172
460.00,21.360
461.00,21.514
462.00,21.580
463.00,21.704
464.00,21.834
465.00,21.961
466.00,22.084
467.00,22.244
468.00,22.342
469.00,22.465
470.00,22.564
471.00,22.682
472.00,22.816
473.00,22.917
474.00,23.023
475.00,23.177
476.00,23.337
477.00,23.405
478.00,23.544
479.00,23.704
480.00,23.857
481.00,23.954
482.00,24.132
483.00,24.274
484.00,24.460
485.00,24.617
486.00,24.803
487.00,24.891
488.00,25.062
489.00,25.205
490.00,25.411
491.00,25.507
492.00,25.736
493.00,25.902
494.00,25.919
495.00,26.078
496.00,26.267
497.00,26.292
498.00,26.434
499.00,26.648
500.00,26.714
501.00,26.916
502.00,27.074
503.00,27.201
504.00,27.272
505.00,27.439
506.00,27.561
507.00,27.662
508.00,27.766
509.00,27.956
510.00,28.084
511.00,28.175
512.00,28.366
513.00,28.494
514.00,28.598
515.00,28.779
516.00,28.851
517.00,28.996
518.00,29.129
519.00,29.175
520.00,29.206
521.00,29.352
522.00,29.461
523.00,29.492
524.00,29.651
525.00,29.791
526.00,29.866
527.00,29.962
528.00,30.049
529.00,30.219
530.00,30.340
531.00,30.491
532.00,30.527
533.00,30.641
534.00,30.755
535.00,30.815
536.00,30.938
537.00,31.015
538.00,31.088
539.00,31.131
540.00,31.255
541.00,31.270
542.00,31.380
543.00,31.431
544.00,31.544
545.00,31.620
546.00,31.670
547.00,31.798
548.00,31.875
549.00,31.942
550.00,32.041
551.00,32.125
552.00,32.177
553.00,32.232
554.00,32.304
555.00,32.326
556.00,32.396
557.00,32.478
558.00,32.536
559.00,32.618
560.00,32.686
561.00,32.700
562.00,32.806
563.00,32.803
564.00,32.880
565.00,32.909
566.00,32.957
567.00,33.017
568.00,33.014
569.00,33.155
570.00,33.187
571.00,33.193
572.00,33.239
573.00,33.270
574.00,33.292
575.00,33.328
576.00,33.331
577.00,33.412
578.00,33.534
579.00,33.601
580.00,33.631
581.00,33.762
582.00,33.863
583.00,33.862
584.00,33.983
585.00,34.042
586.00,34.113
587.00,34.149
588.00,34.214
589.00,34.138
590.00,34.202
591.00,34.309
592.00,34.304
593.00,34.264
594.00,34.452
595.00,34.575
596.00,34.487
597.00,34.526
598.00,34.685
599.00,34.636
600.00,34.716
601.00,34.769
602.00,34.859
603.00,34.676
604.00,34.892
605.00,35.043
606.00,34.985
607.00,35.029
608.00,35.193
609.00,35.319
610.00,35.124
611.00,35.214
612.00,35.332
613.00,35.321
614.00,35.306
615.00,35.457
616.00,35.642
617.00,35.638
618.00,35.601
619.00,35.686
620.00,35.754
621.00,35.796
622.00,35.884
623.00,35.928
624.00,35.967
625.00,36.108
626.00,36.155
627.00,36.256
628.00,36.153
629.00,36.266
630.00,36.447
631.00,36.491
632.00,36.517
633.00,36.656
634.00,36.760
635.00,36.847
636.00,36.992
637.00,36.989
638.00,37.047
639.00,37.177
640.00,37.198
641.00,37.300
642.00,37.424
643.00,37.482
644.00,37.580
645.00,37.622
646.00,37.787
647.00,37.857
648.00,37.904
649.00,37.919
650.00,38.037
651.00,38.169
652.00,38.317
653.00,38.412
654.00,38.393
655.00,38.648
656.00,38.891
657.00,38.855
658.00,38.937
659.00,39.046
660.00,39.110
661.00,39.179
662.00,39.275
663.00,39.367
664.00,39.559
665.00,39.759
666.00,39.720
667.00,39.845
668.00,39.842
669.00,40.123
670.00,40.332
671.00,40.253
672.00,40.312
673.00,40.470
674.00,40.623
675.00,40.655
676.00,40.906
677.00,41.035
678.00,40.900
679.00,41.124
680.00,41.231
681.00,41.434
682.00,41.476
683.00,41.558
684.00,41.714
685.00,41.823
686.00,41.842
687.00,42.001
688.00,42.041
689.00,42.118
690.00,42.410
691.00,42.633
692.00,42.413
693.00,42.475
694.00,42.644
695.00,42.855
696.00,43.017
697.00,43.004
698.00,43.109
699.00,43.325
700.00,43.450
701.00,43.423
702.00,43.576
703.00,43.715
704.00,43.816
705.00,43.749
706.00,43.906
707.00,43.967
708.00,43.907
709.00,44.313
710.00,44.628
711.00,44.333
712.00,44.534
713.00,44.619
714.00,44.747
715.00,44.760
716.00,44.750
717.00,44.932
718.00,45.099
719.00,45.151
720.00,45.233
721.00,49.644
722.00,49.698
723.00,49.843
724.00,49.779
725.00,49.866
726.00,49.799
727.00,49.908
728.00,49.990
729.00,50.035
730.00,50.066
731.00,50.070
732.00,50.105
733.00,50.253
734.00,50.288
735.00,50.323
736.00,50.337
737.00,50.469
738.00,50.561
739.00,50.602
740.00,50.589
741.00,50.663
742.00,50.682
743.00,50.728
744.00,50.697
745.00,50.705
746.00,50.824
747.00,50.903
748.00,50.860
749.00,50.816
750.00,50.891
751.00,50.837
752.00,50.935
753.00,50.951
754.00,50.958
755.00,51.045
756.00,51.047
757.00,51.092
758.00,51.070
759.00,51.114
760.00,51.151
761.00,51.211
762.00,51.173
763.00,51.218
764.00,51.279
765.00,51.292
766.00,51.322
767.00,51.342
768.00,51.345
769.00,51.390
770.00,51.438
771.00,51.524
772.00,51.420
773.00,51.511
774.00,51.505
775.00,51.561
776.00,51.533
777.00,51.562
778.00,51.569
779.00,51.661
780.00,51.624
781.00,51.647
782.00,51.732
783.00,51.632
784.00,51.714
785.00,51.640
786.00,51.684
787.00,51.653
788.00,51.670
789.00,51.723
790.00,51.674
791.00,51.793
792.00,51.717
793.00,51.618
794.00,51.694
795.00,51.644
796.00,51.710
797.00,51.628
798.00,51.691
799.00,51.674
800.00,51.569
801.00,51.710
802.00,51.594
803.00,51.729
804.00,51.606
805.00,51.669
806.00,51.607
807.00,51.578
808.00,51.694
809.00,51.606
810.00,51.675
811.00,51.639
812.00,51.630
813.00,51.624
814.00,51.614
815.00,51.536
816.00,51.689
817.00,51.579
818.00,51.469
819.00,51.619
820.00,51.462
821.00,51.485
822.00,51.509
823.00,51.516
824.00,51.516
825.00,51.487
826.00,51.514
827.00,51.550
828.00,51.487
829.00,51.525
830.00,51.589
831.00,53.611
832.00,53.626
833.00,53.575
834.00,53.597
835.00,53.559
836.00,53.599
837.00,53.554
838.00,53.546
839.00,53.546
840.00,53.487
841.00,53.521
842.00,53.480
843.00,53.496
844.00,53.472
845.00,53.411
846.00,53.478
847.00,53.440
848.00,53.442
849.00,53.369
850.00,53.364
851.00,53.316
852.00,53.305
853.00,53.264
854.00,53.244
855.00,53.203
856.00,53.168
857.00,53.188
858.00,53.171
859.00,53.134
860.00,53.124
861.00,53.159
862.00,53.086
863.00,53.065
864.00,53.069
865.00,53.086
866.00,53.069
867.00,53.071
868.00,53.271
869.00,53.046
870.00,53.053
871.00,53.028
872.00,53.029
873.00,53.022
874.00,53.000
875.00,52.980
876.00,52.989
877.00,52.956
878.00,52.964
879.00,52.925
880.00,52.936
881.00,52.921
882.00,52.918
883.00,52.907
884.00,52.858
885.00,52.862
886.00,52.826
887.00,52.818
888.00,52.792
889.00,52.779
890.00,52.757
891.00,52.742
892.00,52.730
893.00,52.699
894.00,52.690
895.00,52.680
896.00,52.658
897.00,52.658
898.00,52.609
899.00,52.636
900.00,52.613
901.00,52.608
902.00,52.617
903.00,52.585
904.00,52.579
905.00,52.562
906.00,52.566
907.00,52.520
908.00,52.492
909.00,52.514
910.00,52.420
911.00,52.459
912.00,52.446
913.00,52.383
914.00,52.357
915.00,52.348
916.00,52.339
917.00,52.323
918.00,52.324
919.00,52.301
920.00,52.282
921.00,52.264
922.00,52.285
923.00,52.219
924.00,52.216
925.00,52.172
926.00,52.210
927.00,52.162
928.00,52.130
929.00,52.142
930.00,52.097
931.00,52.121
932.00,52.057
933.00,52.058
934.00,52.038
935.00,52.038
936.00,52.006
937.00,51.996
938.00,51.954
939.00,51.967
940.00,51.958
941.00,51.934
942.00,51.896
943.00,51.908
944.00,51.854
945.00,51.869
946.00,51.853
947.00,51.804
948.00,51.797
949.00,51.778
950.00,51.753
951.00,51.712
952.00,51.698
953.00,51.674
954.00,51.662
955.00,51.613
956.00,51.614
957.00,51.570
958.00,51.588
959.00,51.543
960.00,51.525
961.00,51.521
962.00,51.520
963.00,51.465
964.00,51.473
965.00,51.471
966.00,51.445
967.00,51.437
968.00,51.435
969.00,51.438
970.00,51.431
971.00,51.446
972.00,51.398
973.00,51.441
974.00,51.455
975.00,51.415
976.00,51.439
977.00,51.424
978.00,51.478
979.00,51.414
980.00,51.433
981.00,51.444
982.00,51.390
983.00,51.433
984.00,51.458
985.00,51.427
986.00,51.370
987.00,51.401
988.00,51.362
989.00,51.356
990.00,51.362
991.00,51.332
992.00,51.361
993.00,51.306
994.00,51.286
995.00,51.296
996.00,51.283
997.00,51.273
998.00,51.253
999.00,51.276
1000.00,51.198
1001.00,51.227
1002.00,51.200
1003.00,51.215
1004.00,51.186
1005.00,51.149
1006.00,51.186
1007.00,51.132
1008.00,51.125
1009.00,51.103
1010.00,51.095
1011.00,51.092
1012.00,51.063
1013.00,51.064
1014.00,51.028
1015.00,51.043
1016.00,51.010
1017.00,51.029
1018.00,50.994
1019.00,50.956
1020.00,50.966
1021.00,50.920
1022.00,50.944
1023.00,50.895
1024.00,50.888
1025.00,50.883
1026.00,50.855
1027.00,50.835
1028.00,50.836
1029.00,50.819
1030.00,50.802
1031.00,50.818
1032.00,50.760
1033.00,50.763
1034.00,50.746
1035.00,50.703
1036.00,50.687
1037.00,50.669
1038.00,50.645
1039.00,50.624
1040.00,50.605
1041.00,50.583
1042.00,50.570
1043.00,50.537
1044.00,50.574
1045.00,50.560
1046.00,50.549
1047.00,50.583
1048.00,50.579
1049.00,50.586
1050.00,50.589
1051.00,50.643
1052.00,50.634
1053.00,50.642
1054.00,50.616
1055.00,50.658
1056.00,50.673
1057.00,50.676
1058.00,50.677
1059.00,50.658
1060.00,50.673
1061.00,50.657
1062.00,50.636
1063.00,50.641
1064.00,50.641
1065.00,50.614
1066.00,50.604
1067.00,50.600
1068.00,50.616
1069.00,50.589
1070.00,50.571
1071.00,50.557
1072.00,50.579
1073.00,50.539
1074.00,50.553
1075.00,50.527
1076.00,50.527
1077.00,50.521
1078.00,50.502
1079.00,50.496
1080.00,50.506
1081.00,50.495
1082.00,50.481
1083.00,50.480
1084.00,50.450
1085.00,50.451
1086.00,50.442
1087.00,50.428
1088.00,50.417
1089.00,50.409
1090.00,50.403
1091.00,50.411
1092.00,50.384
1093.00,50.371
1094.00,50.351
1095.00,50.345
1096.00,50.332
1097.00,50.336
1098.00,50.314
1099.00,50.309
1100.00,50.308
1101.00,50.287
1102.00,50.291
1103.00,50.284
1104.00,50.267
1105.00,50.266
1106.00,50.238
1107.00,50.240
1108.00,50.221
1109.00,50.208
1110.00,50.214
1111.00,50.212
1112.00,50.182
1113.00,50.184
1114.00,50.183
1115.00,50.178
1116.00,50.164
1117.00,50.143
1118.00,50.141
1119.00,50.131
1120.00,50.121
1121.00,50.141
1122.00,50.101
1123.00,50.096
1124.00,50.106
1125.00,50.097
1126.00,50.082
1127.00,50.088
1128.00,50.087
1129.00,50.082
1130.00,50.062
1131.00,50.040
1132.00,50.044
1133.00,50.039
1134.00,50.007
1135.00,50.023
1136.00,50.026
1137.00,50.014
1138.00,50.011
1139.00,50.012
1140.00,49.999
1141.00,49.996
1142.00,49.982
1143.00,50.006
1144.00,49.974
1145.00,49.963
1146.00,49.983
1147.00,49.973
1148.00,49.961
1149.00,49.980
1150.00,49.963
1151.00,49.970
1152.00,49.955
1153.00,49.943
1154.00,49.941
1155.00,49.938
1156.00,49.906
1157.00,49.926
1158.00,49.932
1159.00,49.914
1160.00,49.915
1161.00,49.937
1162.00,49.920
1163.00,49.916
1164.00,49.909
1165.00,49.917
1166.00,49.946
1167.00,49.925
1168.00,49.934
1169.00,49.903
1170.00,49.899
1171.00,49.882
1172.00,49.880
1173.00,49.896
1174.00,49.891
1175.00,49.878
1176.00,49.880
1177.00,49.874
1178.00,49.851
1179.00,49.880
1180.00,49.872
1181.00,49.891
1182.00,49.895
1183.00,49.869
1184.00,49.880
1185.00,49.887
1186.00,49.863
1187.00,49.878
1188.00,49.864
1189.00,49.854
1190.00,49.856
1191.00,49.840
1192.00,49.848
1193.00,49.824
1194.00,49.843
1195.00,49.824
1196.00,49.862
1197.00,49.854
1198.00,49.846
1199.00,49.838
1200.00,49.832
1201.00,49.853
1202.00,49.813
1203.00,49.813
1204.00,49.800
1205.00,49.820
1206.00,49.814
1207.00,49.825
1208.00,49.810
1209.00,49.815
1210.00,49.832
1211.00,49.803
1212.00,49.834
1213.00,49.802
1214.00,49.819
1215.00,49.805
1216.00,49.800
1217.00,49.822
1218.00,49.806
1219.00,49.807
1220.00,49.814
1221.00,49.818
1222.00,49.795
1223.00,49.821
1224.00,49.799
1225.00,49.804
1226.00,49.816
1227.00,49.802
1228.00,49.822
1229.00,49.839
1230.00,49.844
1231.00,49.849
1232.00,49.860
1233.00,49.849
1234.00,49.865
1235.00,49.848
1236.00,49.849
1237.00,49.847
1238.00,49.841
1239.00,49.852
1240.00,49.845
1241.00,49.848
1242.00,49.859
1243.00,49.878
1244.00,49.837
1245.00,49.878
1246.00,49.884
1247.00,49.856
1248.00,49.872
1249.00,49.873
1250.00,49.878
1251.00,49.879
1252.00,49.879
1253.00,49.867
1254.00,49.902
1255.00,49.889
1256.00,49.865
1257.00,49.855
1258.00,49.892
1259.00,49.881
1260.00,49.892
1261.00,49.890
1262.00,49.900
1263.00,49.876
1264.00,49.895
1265.00,49.899
1266.00,49.895
1267.00,49.924
1268.00,49.920
1269.00,49.916
1270.00,49.935
1271.00,49.946
1272.00,49.955
1273.00,49.969
1274.00,49.950
1275.00,49.956
1276.00,49.957
1277.00,49.954
1278.00,49.970
1279.00,49.963
1280.00,49.950
1281.00,49.979
1282.00,49.969
1283.00,49.978
1284.00,49.984
1285.00,49.961
1286.00,49.998
1287.00,49.996
1288.00,49.998
1289.00,49.993
1290.00,50.014
1291.00,49.996
1292.00,50.007
1293.00,49.998
1294.00,50.016
1295.00,50.032
1296.00,50.021
1297.00,50.049
1298.00,50.071
1299.00,50.041
1300.00,50.061
1301.00,50.051
1302.00,50.065
1303.00,50.065
1304.00,50.043
1305.00,50.071
1306.00,50.088
1307.00,50.076
1308.00,50.090
1309.00,50.099
1310.00,50.088
1311.00,50.084
1312.00,50.091
1313.00,50.091
1314.00,50.110
1315.00,50.121
1316.00,50.126
1317.00,50.150
1318.00,50.136
1319.00,50.148
1320.00,50.162
1321.00,50.309
1322.00,50.314
1323.00,50.291
1324.00,50.278
1325.00,50.273
1326.00,50.287
1327.00,50.285
1328.00,50.300
1329.00,50.281
1330.00,50.272
1331.00,50.290
1332.00,50.317
1333.00,50.233
1334.00,50.315
1335.00,50.325
1336.00,50.364
1337.00,50.380
1338.00,50.444
1339.00,50.494
1340.00,50.540
1341.00,50.604
1342.00,50.669
1343.00,50.712
1344.00,50.757
1345.00,50.828
1346.00,50.863
1347.00,50.956
1348.00,50.913
1349.00,50.929
1350.00,50.932
1351.00,50.945
1352.00,50.963
1353.00,51.020
1354.00,50.997
1355.00,50.909
1356.00,51.027
1357.00,50.995
1358.00,50.968
1359.00,51.016
1360.00,51.199
1361.00,51.362
1362.00,50.718
1363.00,50.719
1364.00,51.146
1365.00,50.994
1366.00,51.060
1367.00,51.013
1368.00,50.916
1369.00,51.016
1370.00,50.984
1371.00,50.954
1372.00,50.986
1373.00,51.009
1374.00,51.000
1375.00,50.983
1376.00,50.969
1377.00,50.977
1378.00,50.980
1379.00,50.964
1380.00,51.004
1381.00,50.995
1382.00,50.825
1383.00,50.976
1384.00,50.913
1385.00,50.930
1386.00,50.985
1387.00,50.906
1388.00,50.947
1389.00,50.864
1390.00,50.957
1391.00,51.009
1392.00,50.880
1393.00,50.848
1394.00,50.908
1395.00,50.926
1396.00,50.951
1397.00,50.831
1398.00,50.970
1399.00,50.957
1400.00,50.898
1401.00,50.840
1402.00,51.001
1403.00,50.983
1404.00,50.861
1405.00,50.991
1406.00,50.991
1407.00,50.981
1408.00,50.983
1409.00,50.775
1410.00,51.031
1411.00,51.009
1412.00,51.027
1413.00,50.987
1414.00,51.033
1415.00,51.056
1416.00,51.061
1417.00,51.056
1418.00,51.069
1419.00,51.087
1420.00,51.095
1421.00,51.119
1422.00,51.121
1423.00,51.138
1424.00,51.146
1425.00,51.158
1426.00,51.165
1427.00,51.194
1428.00,51.177
1429.00,51.208
1430.00,51.210
1431.00,51.213
1432.00,51.248
1433.00,51.261
1434.00,51.251
1435.00,51.313
1436.00,51.296
1437.00,51.282
1438.00,51.315
1439.00,51.311
1440.00,51.326
1441.00,51.339
1442.00,51.353
1443.00,51.403
1444.00,51.399
1445.00,51.403
1446.00,51.427
1447.00,51.449
1448.00,51.499
1449.00,51.482
1450.00,51.499
1451.00,51.508
1452.00,51.529
1453.00,51.527
1454.00,51.556
1455.00,51.564
1456.00,51.571
1457.00,51.588
1458.00,51.597
1459.00,51.628
1460.00,51.653
1461.00,51.638
1462.00,51.677
1463.00,51.660
1464.00,51.666
1465.00,51.702
1466.00,51.685
1467.00,51.708
1468.00,51.772
1469.00,51.744
1470.00,51.760
1471.00,51.798
1472.00,51.807
1473.00,51.827
1474.00,51.843
1475.00,51.833
1476.00,51.878
1477.00,51.850
1478.00,51.853
1479.00,51.894
1480.00,51.877
1481.00,51.889
1482.00,51.919
1483.00,51.911
1484.00,51.940
1485.00,51.936
1486.00,51.951
1487.00,51.985
1488.00,52.005
1489.00,51.982
1490.00,52.012
1491.00,52.012
1492.00,52.037
1493.00,52.021
1494.00,52.060
1495.00,52.067
1496.00,52.075
1497.00,52.058
1498.00,52.088
1499.00,52.097
1500.00,52.103
1501.00, 
1502.00, 
1503.00, 
1504.00, 
1505.00, 
1506.00, 
1507.00, 
1508.00, 
1509.00, 
1510.00, 
1511.00, 
1512.00, 
1513.00, 
1514.00, 
1515.00, 
1516.00, 
1517.00, 
1518.00, 
1519.00, 
1520.00, 
1521.00, 
1522.00, 
1523.00, 
1524.00, 
1525.00, 
1526.00, 
1527.00, 
1528.00, 
1529.00, 
1530.00, 
1531.00, 
1532.00, 
1533.00, 
1534.00, 
1535.00, 
1536.00, 
1537.00, 
1538.00, 
1539.00, 
1540.00, 
1541.00, 
1542.00, 
1543.00, 
1544.00, 
1545.00, 
1546.00, 
1547.00, 
1548.00, 
1549.00, 
1550.00, 
1551.00, 
1552.00, 
1553.00, 
1554.00, 
1555.00, 
1556.00, 
1557.00, 
1558.00, 
1559.00, 
1560.00, 
1561.00, 
1562.00, 
1563.00, 
1564.00, 
1565.00, 
1566.00, 
1567.00, 
1568.00, 
1569.00, 
1570.00, 
1571.00, 
1572.00, 
1573.00, 
1574.00, 
1575.00, 
1576.00, 
1577.00, 
1578.00, 
1579.00, 
1580.00, 
1581.00, 
1582.00, 
1583.00, 
1584.00, 
1585.00, 
1586.00, 
1587.00, 
1588.00, 
1589.00, 
1590.00, 
1591.00, 
1592.00, 
1593.00, 
1594.00, 
1595.00, 
1596.00, 
1597.00, 
1598.00, 
1599.00, 
1600.00, 
1601.00, 
1602.00, 
1603.00, 
1604.00, 
1605.00, 
1606.00, 
1607.00, 
1608.00, 
1609.00, 
1610.00, 
1611.00, 
1612.00, 
1613.00, 
1614.00, 
1615.00, 
1616.00, 
1617.00, 
1618.00, 
1619.00, 
1620.00, 
1621.00, 
1622.00, 
1623.00, 
1624.00, 
1625.00, 
1626.00, 
1627.00, 
1628.00, 
1629.00, 
1630.00, 
1631.00, 
1632.00, 
1633.00, 
1634.00, 
1635.00, 
1636.00, 
1637.00, 
1638.00, 
1639.00, 
1640.00, 
1641.00, 
1642.00, 
1643.00, 
1644.00, 
1645.00, 
1646.00, 
1647.00, 
1648.00, 
1649.00, 
1650.00, 
1651.00, 
1652.00, 
1653.00, 
1654.00, 
1655.00, 
1656.00, 
1657.00, 
1658.00, 
1659.00, 
1660.00, 
1661.00, 
1662.00, 
1663.00, 
1664.00, 
1665.00, 
1666.00, 
1667.00, 
1668.00, 
1669.00, 
1670.00, 
1671.00, 
1672.00, 
1673.00, 
1674.00, 
1675.00, 
1676.00, 
1677.00, 
1678.00, 
1679.00, 
1680.00, 
1681.00, 
1682.00, 
1683.00, 
1684.00, 
1685.00, 
1686.00, 
1687.00, 
1688.00, 
1689.00, 
1690.00, 
1691.00, 
1692.00, 
1693.00, 
1694.00, 
1695.00, 
1696.00, 
1697.00, 
1698.00, 
1699.00, 
1700.00, 
1701.00, 
1702.00, 
1703.00, 
1704.00, 
1705.00, 
1706.00, 
1707.00, 
1708.00, 
1709.00, 
1710.00, 
1711.00, 
1712.00, 
1713.00, 
1714.00, 
1715.00, 
1716.00, 
1717.00, 
1718.00, 
1719.00, 
1720.00, 
1721.00, 
1722.00, 
1723.00, 
1724.00, 
1725.00, 
1726.00, 
1727.00, 
1728.00, 
1729.00, 
1730.00, 
1731.00, 
1732.00, 
1733.00, 
1734.00, 
1735.00, 
1736.00, 
1737.00, 
1738.00, 
1739.00, 
1740.00, 
1741.00, 
1742.00, 
1743.00, 
1744.00, 
1745.00, 
1746.00, 
1747.00, 
1748.00, 
1749.00, 
1750.00, 
1751.00, 
1752.00, 
1753.00, 
1754.00, 
1755.00, 
1756.00, 
1757.00, 
1758.00, 
1759.00, 
1760.00, 
1761.00, 
1762.00, 
1763.00, 
1764.00, 
1765.00, 
1766.00, 
1767.00, 
1768.00, 
1769.00, 
1770.00, 
1771.00, 
1772.00, 
1773.00, 
1774.00, 
1775.00, 
1776.00, 
1777.00, 
1778.00, 
1779.00, 
1780.00, 
1781.00, 
1782.00, 
1783.00, 
1784.00, 
1785.00, 
1786.00, 
1787.00, 
1788.00, 
1789.00, 
1790.00, 
1791.00, 
1792.00, 
1793.00, 
1794.00, 
1795.00, 
1796.00, 
1797.00, 
1798.00, 
1799.00, 
1800.00, 
1801.00, 
1802.00, 
1803.00, 
1804.00, 
1805.00, 
1806.00, 
1807.00, 
1808.00, 
1809.00, 
1810.00, 
1811.00, 
1812.00, 
1813.00, 
1814.00, 
1815.00, 
1816.00, 
1817.00, 
1818.00, 
1819.00, 
1820.00, 
1821.00, 
1822.00, 
1823.00, 
1824.00, 
1825.00, 
1826.00, 
1827.00, 
1828.00, 
1829.00, 
1830.00, 
1831.00, 
1832.00, 
1833.00, 
1834.00, 
1835.00, 
1836.00, 
1837.00, 
1838.00, 
1839.00, 
1840.00, 
1841.00, 
1842.00, 
1843.00, 
1844.00, 
1845.00, 
1846.00, 
1847.00, 
1848.00, 
1849.00, 
1850.00, 
1851.00, 
1852.00, 
1853.00, 
1854.00, 
1855.00, 
1856.00, 
1857.00, 
1858.00, 
1859.00, 
1860.00, 
1861.00, 
1862.00, 
1863.00, 
1864.00, 
1865.00, 
1866.00, 
1867.00, 
1868.00, 
1869.00, 
1870.00, 
1871.00, 
1872.00, 
1873.00, 
1874.00, 
1875.00, 
1876.00, 
1877.00, 
1878.00, 
1879.00, 
1880.00, 
1881.00, 
1882.00, 
1883.00, 
1884.00, 
1885.00, 
1886.00, 
1887.00, 
1888.00, 
1889.00, 
1890.00, 
1891.00, 
1892.00, 
1893.00, 
1894.00, 
1895.00, 
1896.00, 
1897.00, 
1898.00, 
1899.00, 
1900.00, 
1901.00, 
1902.00, 
1903.00, 
1904.00, 
1905.00, 
1906.00, 
1907.00, 
1908.00, 
1909.00, 
1910.00, 
1911.00, 
1912.00, 
1913.00, 
1914.00, 
1915.00, 
1916.00, 
1917.00, 
1918.00, 
1919.00, 
1920.00, 
1921.00, 
1922.00, 
1923.00, 
1924.00, 
1925.00, 
1926.00, 
1927.00, 
1928.00, 
1929.00, 
1930.00, 
1931.00, 
1932.00, 
1933.00, 
1934.00, 
1935.00, 
1936.00, 
1937.00, 
1938.00, 
1939.00, 
1940.00, 
1941.00, 
1942.00, 
1943.00, 
1944.00, 
1945.00, 
1946.00, 
1947.00, 
1948.00, 
1949.00, 
1950.00, 
1951.00, 
1952.00, 
1953.00, 
1954.00, 
1955.00, 
1956.00, 
1957.00, 
1958.00, 
1959.00, 
1960.00, 
1961.00, 
1962.00, 
1963.00, 
1964.00, 
1965.00, 
1966.00, 
1967.00, 
1968.00, 
1969.00, 
1970.00, 
1971.00, 
1972.00, 
1973.00, 
1974.00, 
1975.00, 
1976.00, 
1977.00, 
1978.00, 
1979.00, 
1980.00, 
1981.00, 
1982.00, 
1983.00, 
1984.00, 
1985.00, 
1986.00, 
1987.00, 
1988.00, 
1989.00, 
1990.00, 
1991.00, 
1992.00, 
1993.00, 
1994.00, 
1995.00, 
1996.00, 
1997.00, 
1998.00, 
1999.00, 
2000.00, 
2001.00, 
2002.00, 
2003.00, 
2004.00, 
2005.00, 
2006.00, 
2007.00, 
2008.00, 
2009.00, 
2010.00, 
2011.00, 
2012.00, 
2013.00, 
2014.00, 
2015.00, 
2016.00, 
2017.00, 
2018.00, 
2019.00, 
2020.00, 
2021.00, 
2022.00, 
2023.00, 
2024.00, 
2025.00, 
2026.00, 
2027.00, 
2028.00, 
2029.00, 
2030.00, 
2031.00, 
2032.00, 
2033.00, 
2034.00, 
2035.00, 
2036.00, 
2037.00, 
2038.00, 
2039.00, 
2040.00, 
2041.00, 
2042.00, 
2043.00, 
2044.00, 
2045.00, 
2046.00, 
2047.00, 
2048.00, 
2049.00, 
2050.00, 
2051.00, 
2052.00, 
2053.00, 
2054.00, 
2055.00, 
2056.00, 
2057.00, 
2058.00, 
2059.00, 
2060.00, 
2061.00, 
2062.00, 
2063.00, 
2064.00, 
2065.00, 
2066.00, 
2067.00, 
2068.00, 
2069.00, 
2070.00, 
2071.00, 
2072.00, 
2073.00, 
2074.00, 
2075.00, 
2076.00, 
2077.00, 
2078.00, 
2079.00, 
2080.00, 
2081.00, 
2082.00, 
2083.00, 
2084.00, 
2085.00, 
2086.00, 
2087.00, 
2088.00, 
2089.00, 
2090.00, 
2091.00, 
2092.00, 
2093.00, 
2094.00, 
2095.00, 
2096.00, 
2097.00, 
2098.00, 
2099.00, 
2100.00, 
2101.00, 
2102.00, 
2103.00, 
2104.00, 
2105.00, 
2106.00, 
2107.00, 
2108.00, 
2109.00, 
2110.00, 
2111.00, 
2112.00, 
2113.00, 
2114.00, 
2115.00, 
2116.00, 
2117.00, 
2118.00, 
2119.00, 
2120.00, 
2121.00, 
2122.00, 
2123.00, 
2124.00, 
2125.00, 
2126.00, 
2127.00, 
2128.00, 
2129.00, 
2130.00, 
2131.00, 
2132.00, 
2133.00, 
2134.00, 
2135.00, 
2136.00, 
2137.00, 
2138.00, 
2139.00, 
2140.00, 
2141.00, 
2142.00, 
2143.00, 
2144.00, 
2145.00, 
2146.00, 
2147.00, 
2148.00, 
2149.00, 
2150.00, 
2151.00, 
2152.00, 
2153.00, 
2154.00, 
2155.00, 
2156.00, 
2157.00, 
2158.00, 
2159.00, 
2160.00, 
2161.00, 
2162.00, 
2163.00, 
2164.00, 
2165.00, 
2166.00, 
2167.00, 
2168.00, 
2169.00, 
2170.00, 
2171.00, 
2172.00, 
2173.00, 
2174.00, 
2175.00, 
2176.00, 
2177.00, 
2178.00, 
2179.00, 
2180.00, 
2181.00, 
2182.00, 
2183.00, 
2184.00, 
2185.00, 
2186.00, 
2187.00, 
2188.00, 
2189.00, 
2190.00, 
2191.00, 
2192.00, 
2193.00, 
2194.00, 
2195.00, 
2196.00, 
2197.00, 
2198.00, 
2199.00, 
2200.00, 
2201.00, 
2202.00, 
2203.00, 
2204.00, 
2205.00, 
2206.00, 
2207.00, 
2208.00, 
2209.00, 
2210.00, 
2211.00, 
2212.00, 
2213.00, 
2214.00, 
2215.00, 
2216.00, 
2217.00, 
2218.00, 
2219.00, 
2220.00, 
2221.00, 
2222.00, 
2223.00, 
2224.00, 
2225.00, 
2226.00, 
2227.00, 
2228.00, 
2229.00, 
2230.00, 
2231.00, 
2232.00, 
2233.00, 
2234.00, 
2235.00, 
2236.00, 
2237.00, 
2238.00, 
2239.00, 
2240.00, 
2241.00, 
2242.00, 
2243.00, 
2244.00, 
2245.00, 
2246.00, 
2247.00, 
2248.00, 
2249.00, 
2250.00, 
2251.00, 
2252.00, 
2253.00, 
2254.00, 
2255.00, 
2256.00, 
2257.00, 
2258.00, 
2259.00, 
2260.00, 
2261.00, 
2262.00, 
2263.00, 
2264.00, 
2265.00, 
2266.00, 
2267.00, 
2268.00, 
2269.00, 
2270.00, 
2271.00, 
2272.00, 
2273.00, 
2274.00, 
2275.00, 
2276.00, 
2277.00, 
2278.00, 
2279.00, 
2280.00, 
2281.00, 
2282.00, 
2283.00, 
2284.00, 
2285.00, 
2286.00, 
2287.00, 
2288.00, 
2289.00, 
2290.00, 
2291.00, 
2292.00, 
2293.00, 
2294.00, 
2295.00, 
2296.00, 
2297.00, 
2298.00, 
2299.00, 
2300.00, 
2301.00, 
2302.00, 
2303.00, 
2304.00, 
2305.00, 
2306.00, 
2307.00, 
2308.00, 
2309.00, 
2310.00, 
2311.00, 
2312.00, 
2313.00, 
2314.00, 
2315.00, 
2316.00, 
2317.00, 
2318.00, 
2319.00, 
2320.00, 
2321.00, 
2322.00, 
2323.00, 
2324.00, 
2325.00, 
2326.00, 
2327.00, 
2328.00, 
2329.00, 
2330.00, 
2331.00, 
2332.00, 
2333.00, 
2334.00, 
2335.00, 
2336.00, 
2337.00, 
2338.00, 
2339.00, 
2340.00, 
2341.00, 
2342.00, 
2343.00, 
2344.00, 
2345.00, 
2346.00, 
2347.00, 
2348.00, 
2349.00, 
2350.00, 
2351.00, 
2352.00, 
2353.00, 
2354.00, 
2355.00, 
2356.00, 
2357.00, 
2358.00, 
2359.00, 
2360.00, 
2361.00, 
2362.00, 
2363.00, 
2364.00, 
2365.00, 
2366.00, 
2367.00, 
2368.00, 
2369.00, 
2370.00, 
2371.00, 
2372.00, 
2373.00, 
2374.00, 
2375.00, 
2376.00, 
2377.00, 
2378.00, 
2379.00, 
2380.00, 
2381.00, 
2382.00, 
2383.00, 
2384.00, 
2385.00, 
2386.00, 
2387.00, 
2388.00, 
2389.00, 
2390.00, 
2391.00, 
2392.00, 
2393.00, 
2394.00, 
2395.00, 
2396.00, 
2397.00, 
2398.00, 
2399.00, 
2400.00, 
2401.00, 
2402.00, 
2403.00, 
2404.00, 
2405.00, 
2406.00, 
2407.00, 
2408.00, 
2409.00, 
2410.00, 
2411.00, 
2412.00, 
2413.00, 
2414.00, 
2415.00, 
2416.00, 
2417.00, 
2418.00, 
2419.00, 
2420.00, 
2421.00, 
2422.00, 
2423.00, 
2424.00, 
2425.00, 
2426.00, 
2427.00, 
2428.00, 
2429.00, 
2430.00, 
2431.00, 
2432.00, 
2433.00, 
2434.00, 
2435.00, 
2436.00, 
2437.00, 
2438.00, 
2439.00, 
2440.00, 
2441.00, 
2442.00, 
2443.00, 
2444.00, 
2445.00, 
2446.00, 
2447.00, 
2448.00, 
2449.00, 
2450.00, 
2451.00, 
2452.00, 
2453.00, 
2454.00, 
2455.00, 
2456.00, 
2457.00, 
2458.00, 
2459.00, 
2460.00, 
2461.00, 
2462.00, 
2463.00, 
2464.00, 
2465.00, 
2466.00, 
2467.00, 
2468.00, 
2469.00, 
2470.00, 
2471.00, 
2472.00, 
2473.00, 
2474.00, 
2475.00, 
2476.00, 
2477.00, 
2478.00, 
2479.00, 
2480.00, 
2481.00, 
2482.00, 
2483.00, 
2484.00, 
2485.00, 
2486.00, 
2487.00, 
2488.00, 
2489.00, 
2490.00, 
2491.00, 
2492.00, 
2493.00, 
2494.00, 
2495.00, 
2496.00, 
2497.00, 
2498.00, 
2499.00, 
2500.00, 
2501.00, 
2502.00, 
2503.00, 
2504.00, 
2505.00, 
2506.00, 
2507.00, 
2508.00, 
2509.00, 
2510.00, 
2511.00, 
2512.00, 
2513.00, 
2514.00, 
2515.00, 
2516.00, 
2517.00, 
2518.00, 
2519.00, 
2520.00, 
2521.00, 
2522.00, 
2523.00, 
2524.00, 
2525.00, 
2526.00, 
2527.00, 
2528.00, 
2529.00, 
2530.00, 
2531.00, 
2532.00, 
2533.00, 
2534.00, 
2535.00, 
2536.00, 
2537.00, 
2538.00, 
2539.00, 
2540.00, 
2541.00, 
2542.00, 
2543.00, 
2544.00, 
2545.00, 
2546.00, 
2547.00, 
2548.00, 
2549.00, 
2550.00, 
2551.00, 
2552.00, 
2553.00, 
2554.00, 
2555.00, 
2556.00, 
2557.00, 
2558.00, 
2559.00, 
2560.00, 
2561.00, 
2562.00, 
2563.00, 
2564.00, 
2565.00, 
2566.00, 
2567.00, 
2568.00, 
2569.00, 
2570.00, 
2571.00, 
2572.00, 
2573.00, 
2574.00, 
2575.00, 
2576.00, 
2577.00, 
2578.00, 
2579.00, 
2580.00, 
2581.00, 
2582.00, 
2583.00, 
2584.00, 
2585.00, 
2586.00, 
2587.00, 
2588.00, 
2589.00, 
2590.00, 
2591.00, 
2592.00, 
2593.00, 
2594.00, 
2595.00, 
2596.00, 
2597.00, 
2598.00, 
2599.00, 
2600.00, 
