"1aP2 - RawData"
"Wavelength nm.","T%"
200.00,0.003
201.00,0.002
202.00,-0.004
203.00,0.002
204.00,0.002
205.00,0.002
206.00,0.001
207.00,0.004
208.00,0.000
209.00,-0.002
210.00,0.001
211.00,0.002
212.00,0.001
213.00,0.003
214.00,0.003
215.00,-0.000
216.00,0.003
217.00,-0.001
218.00,-0.001
219.00,0.001
220.00,0.002
221.00,0.003
222.00,0.001
223.00,0.002
224.00,0.001
225.00,-0.002
226.00,0.001
227.00,-0.001
228.00,-0.000
229.00,-0.000
230.00,-0.001
231.00,-0.000
232.00,-0.001
233.00,-0.000
234.00,0.003
235.00,-0.001
236.00,-0.001
237.00,0.000
238.00,0.001
239.00,-0.001
240.00,0.002
241.00,-0.001
242.00,0.001
243.00,-0.000
244.00,0.002
245.00,0.000
246.00,0.002
247.00,0.002
248.00,0.002
249.00,0.001
250.00,0.000
251.00,-0.000
252.00,0.001
253.00,0.003
254.00,-0.000
255.00,0.001
256.00,0.000
257.00,0.000
258.00,0.002
259.00,-0.001
260.00,-0.000
261.00,-0.000
262.00,0.000
263.00,0.001
264.00,-0.000
265.00,0.002
266.00,0.002
267.00,0.001
268.00,-0.001
269.00,0.001
270.00,-0.000
271.00,-0.000
272.00,-0.001
273.00,-0.000
274.00,-0.000
275.00,-0.000
276.00,0.001
277.00,0.001
278.00,-0.000
279.00,-0.000
280.00,-0.001
281.00,-0.001
282.00,0.002
283.00,-0.001
284.00,-0.000
285.00,0.000
286.00,-0.001
287.00,-0.000
288.00,0.000
289.00,-0.001
290.00,-0.000
291.00,0.000
292.00,0.002
293.00,-0.001
294.00,-0.001
295.00,-0.000
296.00,0.000
297.00,-0.000
298.00,0.001
299.00,0.002
300.00,0.003
301.00,0.004
302.00,0.008
303.00,0.011
304.00,0.015
305.00,0.024
306.00,0.035
307.00,0.056
308.00,0.083
309.00,0.125
310.00,0.169
311.00,0.226
312.00,0.314
313.00,0.419
314.00,0.547
315.00,0.700
316.00,0.884
317.00,1.097
318.00,1.323
319.00,1.635
320.00,1.970
321.00,2.326
322.00,2.742
323.00,3.180
324.00,3.665
325.00,4.126
326.00,4.614
327.00,5.155
328.00,5.720
329.00,6.265
330.00,6.877
331.00,7.442
332.00,8.049
333.00,8.642
334.00,9.179
335.00,9.772
336.00,10.346
337.00,10.907
338.00,11.487
339.00,11.988
340.00,12.498
341.00,13.023
342.00,13.459
343.00,13.933
344.00,14.386
345.00,14.758
346.00,15.098
347.00,15.446
348.00,15.768
349.00,16.025
350.00,16.329
351.00,16.599
352.00,16.809
353.00,17.065
354.00,17.250
355.00,17.443
356.00,17.621
357.00,17.737
358.00,17.934
359.00,18.099
360.00,18.241
361.00,18.243
362.00,18.410
363.00,18.460
364.00,18.471
365.00,18.529
366.00,18.568
367.00,18.622
368.00,18.614
369.00,18.648
370.00,18.686
371.00,18.646
372.00,18.580
373.00,18.616
374.00,18.589
375.00,18.494
376.00,18.464
377.00,18.374
378.00,18.292
379.00,18.222
380.00,18.164
381.00,18.165
382.00,18.124
383.00,18.044
384.00,18.096
385.00,18.038
386.00,18.067
387.00,18.105
388.00,18.112
389.00,18.112
390.00,18.100
391.00,18.073
392.00,18.078
393.00,18.080
394.00,18.083
395.00,18.074
396.00,18.019
397.00,18.051
398.00,18.041
399.00,18.053
400.00,18.011
401.00,17.943
402.00,18.032
403.00,17.999
404.00,17.928
405.00,17.948
406.00,17.882
407.00,17.874
408.00,17.864
409.00,17.809
410.00,17.760
411.00,17.769
412.00,17.724
413.00,17.760
414.00,17.731
415.00,17.711
416.00,17.782
417.00,17.755
418.00,17.758
419.00,17.866
420.00,17.886
421.00,17.853
422.00,17.803
423.00,17.834
424.00,17.878
425.00,17.871
426.00,17.936
427.00,18.005
428.00,18.039
429.00,18.050
430.00,18.105
431.00,18.178
432.00,18.161
433.00,18.259
434.00,18.324
435.00,18.370
436.00,18.451
437.00,18.463
438.00,18.518
439.00,18.645
440.00,18.714
441.00,18.781
442.00,18.851
443.00,18.923
444.00,19.020
445.00,19.079
446.00,19.188
447.00,19.278
448.00,19.373
449.00,19.493
450.00,19.584
451.00,19.663
452.00,19.759
453.00,19.890
454.00,19.990
455.00,20.099
456.00,20.191
457.00,20.317
458.00,20.438
459.00,20.536
460.00,20.686
461.00,20.809
462.00,20.910
463.00,21.036
464.00,21.148
465.00,21.285
466.00,21.480
467.00,21.570
468.00,21.663
469.00,21.816
470.00,21.913
471.00,21.999
472.00,22.166
473.00,22.244
474.00,22.377
475.00,22.526
476.00,22.600
477.00,22.772
478.00,22.870
479.00,23.085
480.00,23.215
481.00,23.349
482.00,23.509
483.00,23.614
484.00,23.801
485.00,23.982
486.00,24.100
487.00,24.288
488.00,24.417
489.00,24.592
490.00,24.746
491.00,24.905
492.00,25.035
493.00,25.285
494.00,25.441
495.00,25.453
496.00,25.605
497.00,25.712
498.00,25.875
499.00,26.019
500.00,26.123
501.00,26.274
502.00,26.460
503.00,26.592
504.00,26.637
505.00,26.790
506.00,26.877
507.00,27.011
508.00,27.166
509.00,27.347
510.00,27.431
511.00,27.533
512.00,27.685
513.00,27.924
514.00,28.019
515.00,28.143
516.00,28.232
517.00,28.322
518.00,28.509
519.00,28.558
520.00,28.669
521.00,28.793
522.00,28.885
523.00,28.945
524.00,29.073
525.00,29.224
526.00,29.312
527.00,29.400
528.00,29.486
529.00,29.713
530.00,29.822
531.00,29.875
532.00,29.985
533.00,30.085
534.00,30.187
535.00,30.300
536.00,30.362
537.00,30.406
538.00,30.455
539.00,30.523
540.00,30.707
541.00,30.707
542.00,30.833
543.00,30.873
544.00,31.010
545.00,31.086
546.00,31.117
547.00,31.258
548.00,31.330
549.00,31.385
550.00,31.493
551.00,31.616
552.00,31.674
553.00,31.681
554.00,31.760
555.00,31.806
556.00,31.892
557.00,31.921
558.00,32.025
559.00,32.090
560.00,32.187
561.00,32.291
562.00,32.285
563.00,32.321
564.00,32.400
565.00,32.413
566.00,32.470
567.00,32.553
568.00,32.623
569.00,32.650
570.00,32.661
571.00,32.633
572.00,32.775
573.00,32.751
574.00,32.783
575.00,32.820
576.00,32.831
577.00,32.873
578.00,32.993
579.00,33.107
580.00,33.100
581.00,33.311
582.00,33.329
583.00,33.318
584.00,33.437
585.00,33.521
586.00,33.566
587.00,33.606
588.00,33.685
589.00,33.622
590.00,33.664
591.00,33.686
592.00,33.708
593.00,33.757
594.00,33.934
595.00,34.032
596.00,33.948
597.00,33.966
598.00,34.169
599.00,34.147
600.00,34.264
601.00,34.343
602.00,34.375
603.00,34.396
604.00,34.400
605.00,34.460
606.00,34.525
607.00,34.607
608.00,34.600
609.00,34.695
610.00,34.900
611.00,34.614
612.00,34.773
613.00,34.954
614.00,34.919
615.00,35.023
616.00,35.115
617.00,35.110
618.00,35.151
619.00,35.228
620.00,35.250
621.00,35.312
622.00,35.415
623.00,35.481
624.00,35.608
625.00,35.666
626.00,35.690
627.00,35.772
628.00,35.826
629.00,35.863
630.00,35.891
631.00,35.964
632.00,36.137
633.00,36.230
634.00,36.276
635.00,36.357
636.00,36.478
637.00,36.547
638.00,36.642
639.00,36.731
640.00,36.770
641.00,36.837
642.00,36.897
643.00,36.996
644.00,37.117
645.00,37.227
646.00,37.378
647.00,37.432
648.00,37.537
649.00,37.601
650.00,37.635
651.00,37.814
652.00,37.901
653.00,37.960
654.00,38.083
655.00,38.246
656.00,38.541
657.00,38.563
658.00,38.764
659.00,38.702
660.00,38.776
661.00,38.840
662.00,38.923
663.00,38.982
664.00,39.227
665.00,39.532
666.00,39.565
667.00,39.542
668.00,39.593
669.00,39.849
670.00,40.128
671.00,39.938
672.00,40.074
673.00,40.295
674.00,40.363
675.00,40.419
676.00,40.705
677.00,40.864
678.00,40.602
679.00,40.882
680.00,40.930
681.00,41.116
682.00,41.223
683.00,41.214
684.00,41.504
685.00,41.660
686.00,41.449
687.00,41.711
688.00,41.905
689.00,41.939
690.00,42.183
691.00,42.538
692.00,42.144
693.00,42.180
694.00,42.431
695.00,42.621
696.00,42.570
697.00,42.677
698.00,42.661
699.00,43.390
700.00,43.837
701.00,43.291
702.00,43.472
703.00,43.791
704.00,43.796
705.00,43.648
706.00,43.747
707.00,43.983
708.00,43.902
709.00,44.276
710.00,44.662
711.00,44.233
712.00,44.290
713.00,44.533
714.00,44.609
715.00,44.664
716.00,44.708
717.00,44.882
718.00,44.970
719.00,45.055
720.00,45.253
721.00,49.571
722.00,49.638
723.00,49.665
724.00,49.754
725.00,49.721
726.00,49.769
727.00,49.896
728.00,49.861
729.00,49.953
730.00,50.046
731.00,50.137
732.00,50.113
733.00,50.296
734.00,50.223
735.00,50.326
736.00,50.365
737.00,50.498
738.00,50.509
739.00,50.529
740.00,50.666
741.00,50.726
742.00,50.850
743.00,50.828
744.00,50.823
745.00,50.846
746.00,50.836
747.00,50.891
748.00,50.906
749.00,50.982
750.00,50.962
751.00,50.981
752.00,51.091
753.00,51.041
754.00,51.082
755.00,51.133
756.00,51.138
757.00,51.266
758.00,51.202
759.00,51.237
760.00,51.232
761.00,51.301
762.00,51.394
763.00,51.432
764.00,51.369
765.00,51.366
766.00,51.469
767.00,51.472
768.00,51.527
769.00,51.582
770.00,51.681
771.00,51.609
772.00,51.628
773.00,51.685
774.00,51.696
775.00,51.822
776.00,51.689
777.00,51.802
778.00,51.758
779.00,51.899
780.00,51.781
781.00,51.773
782.00,51.828
783.00,51.924
784.00,51.963
785.00,51.829
786.00,51.885
787.00,51.908
788.00,51.896
789.00,51.948
790.00,51.890
791.00,52.001
792.00,51.892
793.00,51.917
794.00,51.906
795.00,51.862
796.00,51.917
797.00,51.905
798.00,51.916
799.00,51.926
800.00,51.869
801.00,51.926
802.00,51.864
803.00,52.003
804.00,51.919
805.00,51.952
806.00,51.921
807.00,51.916
808.00,51.940
809.00,51.973
810.00,51.907
811.00,51.936
812.00,51.964
813.00,51.904
814.00,51.942
815.00,51.902
816.00,51.901
817.00,51.894
818.00,51.884
819.00,51.943
820.00,51.866
821.00,51.921
822.00,51.889
823.00,51.823
824.00,51.866
825.00,51.870
826.00,51.881
827.00,51.891
828.00,51.932
829.00,51.864
830.00,51.918
831.00,54.530
832.00,54.612
833.00,54.455
834.00,54.465
835.00,54.492
836.00,54.492
837.00,54.490
838.00,54.480
839.00,54.475
840.00,54.422
841.00,54.492
842.00,54.454
843.00,54.455
844.00,54.428
845.00,54.377
846.00,54.428
847.00,54.370
848.00,54.422
849.00,54.333
850.00,54.366
851.00,54.244
852.00,54.320
853.00,54.288
854.00,54.291
855.00,54.205
856.00,54.211
857.00,54.298
858.00,54.148
859.00,54.176
860.00,54.186
861.00,54.220
862.00,54.151
863.00,54.157
864.00,54.113
865.00,54.162
866.00,54.126
867.00,54.137
868.00,54.131
869.00,54.135
870.00,54.166
871.00,54.111
872.00,54.138
873.00,54.087
874.00,54.158
875.00,54.078
876.00,54.121
877.00,54.067
878.00,54.116
879.00,54.088
880.00,54.072
881.00,54.038
882.00,54.137
883.00,54.048
884.00,53.985
885.00,53.986
886.00,54.007
887.00,53.946
888.00,53.957
889.00,53.950
890.00,53.948
891.00,53.923
892.00,53.898
893.00,53.909
894.00,53.894
895.00,53.859
896.00,53.833
897.00,53.834
898.00,53.842
899.00,53.840
900.00,53.808
901.00,53.758
902.00,53.842
903.00,53.768
904.00,53.766
905.00,53.777
906.00,53.768
907.00,53.734
908.00,53.691
909.00,53.695
910.00,53.668
911.00,53.679
912.00,53.640
913.00,53.599
914.00,53.631
915.00,53.611
916.00,53.554
917.00,53.561
918.00,53.582
919.00,53.529
920.00,53.459
921.00,53.491
922.00,53.474
923.00,53.492
924.00,53.405
925.00,53.440
926.00,53.424
927.00,53.422
928.00,53.379
929.00,53.405
930.00,53.365
931.00,53.356
932.00,53.331
933.00,53.352
934.00,53.317
935.00,53.300
936.00,53.283
937.00,53.281
938.00,53.255
939.00,53.262
940.00,53.238
941.00,53.242
942.00,53.193
943.00,53.180
944.00,53.204
945.00,53.151
946.00,53.144
947.00,53.068
948.00,53.087
949.00,53.079
950.00,53.078
951.00,53.016
952.00,53.019
953.00,52.955
954.00,52.971
955.00,52.928
956.00,52.921
957.00,52.878
958.00,52.887
959.00,52.826
960.00,52.845
961.00,52.862
962.00,52.856
963.00,52.809
964.00,52.810
965.00,52.819
966.00,52.790
967.00,52.801
968.00,52.764
969.00,52.790
970.00,52.766
971.00,52.789
972.00,52.744
973.00,52.784
974.00,52.807
975.00,52.779
976.00,52.794
977.00,52.795
978.00,52.841
979.00,52.792
980.00,52.799
981.00,52.823
982.00,52.755
983.00,52.819
984.00,52.777
985.00,52.792
986.00,52.753
987.00,52.782
988.00,52.735
989.00,52.733
990.00,52.726
991.00,52.722
992.00,52.732
993.00,52.692
994.00,52.710
995.00,52.678
996.00,52.672
997.00,52.675
998.00,52.643
999.00,52.661
1000.00,52.613
1001.00,52.591
1002.00,52.598
1003.00,52.592
1004.00,52.572
1005.00,52.541
1006.00,52.584
1007.00,52.562
1008.00,52.552
1009.00,52.531
1010.00,52.530
1011.00,52.524
1012.00,52.483
1013.00,52.495
1014.00,52.455
1015.00,52.458
1016.00,52.431
1017.00,52.415
1018.00,52.406
1019.00,52.381
1020.00,52.442
1021.00,52.373
1022.00,52.384
1023.00,52.322
1024.00,52.334
1025.00,52.308
1026.00,52.294
1027.00,52.272
1028.00,52.264
1029.00,52.266
1030.00,52.236
1031.00,52.251
1032.00,52.210
1033.00,52.211
1034.00,52.193
1035.00,52.161
1036.00,52.133
1037.00,52.111
1038.00,52.113
1039.00,52.070
1040.00,52.073
1041.00,52.029
1042.00,52.032
1043.00,52.010
1044.00,52.050
1045.00,52.024
1046.00,52.013
1047.00,52.032
1048.00,52.056
1049.00,52.061
1050.00,52.050
1051.00,52.131
1052.00,52.094
1053.00,52.111
1054.00,52.112
1055.00,52.148
1056.00,52.158
1057.00,52.161
1058.00,52.142
1059.00,52.136
1060.00,52.172
1061.00,52.117
1062.00,52.108
1063.00,52.119
1064.00,52.103
1065.00,52.073
1066.00,52.096
1067.00,52.079
1068.00,52.108
1069.00,52.066
1070.00,52.050
1071.00,52.037
1072.00,52.060
1073.00,52.037
1074.00,52.039
1075.00,52.006
1076.00,52.026
1077.00,52.012
1078.00,51.993
1079.00,52.006
1080.00,52.005
1081.00,51.986
1082.00,52.004
1083.00,51.996
1084.00,52.000
1085.00,52.005
1086.00,51.989
1087.00,51.996
1088.00,51.970
1089.00,51.950
1090.00,51.961
1091.00,51.959
1092.00,51.937
1093.00,51.949
1094.00,51.918
1095.00,51.921
1096.00,51.886
1097.00,51.890
1098.00,51.877
1099.00,51.877
1100.00,51.855
1101.00,51.862
1102.00,51.835
1103.00,51.843
1104.00,51.836
1105.00,51.805
1106.00,51.784
1107.00,51.803
1108.00,51.786
1109.00,51.779
1110.00,51.779
1111.00,51.780
1112.00,51.774
1113.00,51.765
1114.00,51.755
1115.00,51.760
1116.00,51.744
1117.00,51.738
1118.00,51.741
1119.00,51.732
1120.00,51.723
1121.00,51.733
1122.00,51.692
1123.00,51.698
1124.00,51.691
1125.00,51.702
1126.00,51.697
1127.00,51.705
1128.00,51.675
1129.00,51.672
1130.00,51.633
1131.00,51.653
1132.00,51.647
1133.00,51.628
1134.00,51.641
1135.00,51.636
1136.00,51.614
1137.00,51.649
1138.00,51.618
1139.00,51.622
1140.00,51.631
1141.00,51.620
1142.00,51.596
1143.00,51.633
1144.00,51.596
1145.00,51.610
1146.00,51.594
1147.00,51.581
1148.00,51.585
1149.00,51.605
1150.00,51.607
1151.00,51.631
1152.00,51.612
1153.00,51.589
1154.00,51.580
1155.00,51.581
1156.00,51.576
1157.00,51.599
1158.00,51.584
1159.00,51.590
1160.00,51.564
1161.00,51.578
1162.00,51.568
1163.00,51.554
1164.00,51.580
1165.00,51.576
1166.00,51.567
1167.00,51.556
1168.00,51.574
1169.00,51.544
1170.00,51.551
1171.00,51.534
1172.00,51.554
1173.00,51.558
1174.00,51.539
1175.00,51.538
1176.00,51.543
1177.00,51.530
1178.00,51.538
1179.00,51.547
1180.00,51.529
1181.00,51.566
1182.00,51.542
1183.00,51.562
1184.00,51.548
1185.00,51.554
1186.00,51.547
1187.00,51.557
1188.00,51.548
1189.00,51.544
1190.00,51.534
1191.00,51.518
1192.00,51.552
1193.00,51.532
1194.00,51.537
1195.00,51.516
1196.00,51.554
1197.00,51.555
1198.00,51.538
1199.00,51.526
1200.00,51.549
1201.00,51.562
1202.00,51.546
1203.00,51.574
1204.00,51.548
1205.00,51.546
1206.00,51.550
1207.00,51.535
1208.00,51.531
1209.00,51.545
1210.00,51.535
1211.00,51.538
1212.00,51.568
1213.00,51.526
1214.00,51.558
1215.00,51.516
1216.00,51.556
1217.00,51.535
1218.00,51.524
1219.00,51.581
1220.00,51.529
1221.00,51.542
1222.00,51.525
1223.00,51.551
1224.00,51.546
1225.00,51.539
1226.00,51.544
1227.00,51.534
1228.00,51.558
1229.00,51.552
1230.00,51.586
1231.00,51.575
1232.00,51.586
1233.00,51.600
1234.00,51.607
1235.00,51.593
1236.00,51.594
1237.00,51.606
1238.00,51.592
1239.00,51.607
1240.00,51.579
1241.00,51.585
1242.00,51.590
1243.00,51.583
1244.00,51.568
1245.00,51.609
1246.00,51.614
1247.00,51.634
1248.00,51.623
1249.00,51.609
1250.00,51.617
1251.00,51.590
1252.00,51.610
1253.00,51.602
1254.00,51.636
1255.00,51.618
1256.00,51.617
1257.00,51.616
1258.00,51.660
1259.00,51.637
1260.00,51.677
1261.00,51.676
1262.00,51.652
1263.00,51.658
1264.00,51.666
1265.00,51.664
1266.00,51.672
1267.00,51.695
1268.00,51.676
1269.00,51.697
1270.00,51.721
1271.00,51.719
1272.00,51.730
1273.00,51.738
1274.00,51.734
1275.00,51.750
1276.00,51.726
1277.00,51.740
1278.00,51.734
1279.00,51.734
1280.00,51.740
1281.00,51.744
1282.00,51.764
1283.00,51.763
1284.00,51.774
1285.00,51.766
1286.00,51.794
1287.00,51.771
1288.00,51.776
1289.00,51.753
1290.00,51.801
1291.00,51.797
1292.00,51.769
1293.00,51.792
1294.00,51.829
1295.00,51.816
1296.00,51.822
1297.00,51.834
1298.00,51.856
1299.00,51.827
1300.00,51.857
1301.00,51.837
1302.00,51.885
1303.00,51.862
1304.00,51.849
1305.00,51.878
1306.00,51.861
1307.00,51.873
1308.00,51.876
1309.00,51.890
1310.00,51.897
1311.00,51.900
1312.00,51.903
1313.00,51.934
1314.00,51.930
1315.00,51.944
1316.00,51.947
1317.00,51.958
1318.00,51.956
1319.00,51.961
1320.00,51.947
1321.00,52.137
1322.00,52.102
1323.00,52.088
1324.00,52.107
1325.00,52.085
1326.00,52.083
1327.00,52.095
1328.00,52.088
1329.00,52.059
1330.00,52.095
1331.00,52.069
1332.00,52.071
1333.00,52.078
1334.00,52.083
1335.00,52.110
1336.00,52.149
1337.00,52.175
1338.00,52.264
1339.00,52.296
1340.00,52.349
1341.00,52.423
1342.00,52.479
1343.00,52.519
1344.00,52.576
1345.00,52.621
1346.00,52.682
1347.00,52.690
1348.00,52.695
1349.00,52.745
1350.00,52.748
1351.00,52.758
1352.00,52.763
1353.00,52.758
1354.00,52.771
1355.00,52.707
1356.00,52.823
1357.00,52.779
1358.00,52.821
1359.00,52.770
1360.00,52.767
1361.00,52.433
1362.00,52.754
1363.00,52.903
1364.00,52.987
1365.00,52.822
1366.00,52.881
1367.00,52.843
1368.00,52.753
1369.00,52.989
1370.00,52.769
1371.00,52.744
1372.00,52.783
1373.00,52.816
1374.00,52.848
1375.00,52.797
1376.00,52.790
1377.00,52.752
1378.00,52.867
1379.00,52.828
1380.00,52.843
1381.00,52.918
1382.00,52.725
1383.00,52.842
1384.00,52.686
1385.00,52.710
1386.00,52.804
1387.00,52.815
1388.00,52.702
1389.00,52.713
1390.00,52.797
1391.00,52.780
1392.00,52.771
1393.00,52.742
1394.00,52.831
1395.00,52.750
1396.00,52.721
1397.00,52.728
1398.00,52.839
1399.00,52.758
1400.00,53.080
1401.00,52.767
1402.00,52.846
1403.00,52.871
1404.00,52.866
1405.00,52.830
1406.00,52.845
1407.00,52.822
1408.00,52.866
1409.00,52.801
1410.00,52.871
1411.00,52.820
1412.00,52.899
1413.00,52.848
1414.00,52.820
1415.00,52.857
1416.00,52.901
1417.00,52.934
1418.00,52.880
1419.00,52.888
1420.00,52.887
1421.00,52.970
1422.00,52.952
1423.00,52.960
1424.00,52.943
1425.00,52.961
1426.00,53.000
1427.00,53.027
1428.00,53.002
1429.00,53.013
1430.00,53.033
1431.00,53.066
1432.00,53.085
1433.00,53.106
1434.00,53.074
1435.00,53.159
1436.00,53.157
1437.00,53.138
1438.00,53.150
1439.00,53.188
1440.00,53.213
1441.00,53.191
1442.00,53.211
1443.00,53.269
1444.00,53.292
1445.00,53.199
1446.00,53.317
1447.00,53.295
1448.00,53.347
1449.00,53.331
1450.00,53.352
1451.00,53.361
1452.00,53.384
1453.00,53.368
1454.00,53.403
1455.00,53.405
1456.00,53.418
1457.00,53.413
1458.00,53.420
1459.00,53.449
1460.00,53.495
1461.00,53.449
1462.00,53.517
1463.00,53.496
1464.00,53.524
1465.00,53.549
1466.00,53.537
1467.00,53.561
1468.00,53.612
1469.00,53.558
1470.00,53.611
1471.00,53.608
1472.00,53.601
1473.00,53.633
1474.00,53.650
1475.00,53.670
1476.00,53.698
1477.00,53.660
1478.00,53.686
1479.00,53.701
1480.00,53.677
1481.00,53.697
1482.00,53.737
1483.00,53.733
1484.00,53.768
1485.00,53.748
1486.00,53.769
1487.00,53.808
1488.00,53.797
1489.00,53.797
1490.00,53.837
1491.00,53.817
1492.00,53.874
1493.00,53.829
1494.00,53.879
1495.00,53.865
1496.00,53.891
1497.00,53.877
1498.00,53.905
1499.00,53.914
1500.00,53.916
1501.00, 
1502.00, 
1503.00, 
1504.00, 
1505.00, 
1506.00, 
1507.00, 
1508.00, 
1509.00, 
1510.00, 
1511.00, 
1512.00, 
1513.00, 
1514.00, 
1515.00, 
1516.00, 
1517.00, 
1518.00, 
1519.00, 
1520.00, 
1521.00, 
1522.00, 
1523.00, 
1524.00, 
1525.00, 
1526.00, 
1527.00, 
1528.00, 
1529.00, 
1530.00, 
1531.00, 
1532.00, 
1533.00, 
1534.00, 
1535.00, 
1536.00, 
1537.00, 
1538.00, 
1539.00, 
1540.00, 
1541.00, 
1542.00, 
1543.00, 
1544.00, 
1545.00, 
1546.00, 
1547.00, 
1548.00, 
1549.00, 
1550.00, 
1551.00, 
1552.00, 
1553.00, 
1554.00, 
1555.00, 
1556.00, 
1557.00, 
1558.00, 
1559.00, 
1560.00, 
1561.00, 
1562.00, 
1563.00, 
1564.00, 
1565.00, 
1566.00, 
1567.00, 
1568.00, 
1569.00, 
1570.00, 
1571.00, 
1572.00, 
1573.00, 
1574.00, 
1575.00, 
1576.00, 
1577.00, 
1578.00, 
1579.00, 
1580.00, 
1581.00, 
1582.00, 
1583.00, 
1584.00, 
1585.00, 
1586.00, 
1587.00, 
1588.00, 
1589.00, 
1590.00, 
1591.00, 
1592.00, 
1593.00, 
1594.00, 
1595.00, 
1596.00, 
1597.00, 
1598.00, 
1599.00, 
1600.00, 
1601.00, 
1602.00, 
1603.00, 
1604.00, 
1605.00, 
1606.00, 
1607.00, 
1608.00, 
1609.00, 
1610.00, 
1611.00, 
1612.00, 
1613.00, 
1614.00, 
1615.00, 
1616.00, 
1617.00, 
1618.00, 
1619.00, 
1620.00, 
1621.00, 
1622.00, 
1623.00, 
1624.00, 
1625.00, 
1626.00, 
1627.00, 
1628.00, 
1629.00, 
1630.00, 
1631.00, 
1632.00, 
1633.00, 
1634.00, 
1635.00, 
1636.00, 
1637.00, 
1638.00, 
1639.00, 
1640.00, 
1641.00, 
1642.00, 
1643.00, 
1644.00, 
1645.00, 
1646.00, 
1647.00, 
1648.00, 
1649.00, 
1650.00, 
1651.00, 
1652.00, 
1653.00, 
1654.00, 
1655.00, 
1656.00, 
1657.00, 
1658.00, 
1659.00, 
1660.00, 
1661.00, 
1662.00, 
1663.00, 
1664.00, 
1665.00, 
1666.00, 
1667.00, 
1668.00, 
1669.00, 
1670.00, 
1671.00, 
1672.00, 
1673.00, 
1674.00, 
1675.00, 
1676.00, 
1677.00, 
1678.00, 
1679.00, 
1680.00, 
1681.00, 
1682.00, 
1683.00, 
1684.00, 
1685.00, 
1686.00, 
1687.00, 
1688.00, 
1689.00, 
1690.00, 
1691.00, 
1692.00, 
1693.00, 
1694.00, 
1695.00, 
1696.00, 
1697.00, 
1698.00, 
1699.00, 
1700.00, 
1701.00, 
1702.00, 
1703.00, 
1704.00, 
1705.00, 
1706.00, 
1707.00, 
1708.00, 
1709.00, 
1710.00, 
1711.00, 
1712.00, 
1713.00, 
1714.00, 
1715.00, 
1716.00, 
1717.00, 
1718.00, 
1719.00, 
1720.00, 
1721.00, 
1722.00, 
1723.00, 
1724.00, 
1725.00, 
1726.00, 
1727.00, 
1728.00, 
1729.00, 
1730.00, 
1731.00, 
1732.00, 
1733.00, 
1734.00, 
1735.00, 
1736.00, 
1737.00, 
1738.00, 
1739.00, 
1740.00, 
1741.00, 
1742.00, 
1743.00, 
1744.00, 
1745.00, 
1746.00, 
1747.00, 
1748.00, 
1749.00, 
1750.00, 
1751.00, 
1752.00, 
1753.00, 
1754.00, 
1755.00, 
1756.00, 
1757.00, 
1758.00, 
1759.00, 
1760.00, 
1761.00, 
1762.00, 
1763.00, 
1764.00, 
1765.00, 
1766.00, 
1767.00, 
1768.00, 
1769.00, 
1770.00, 
1771.00, 
1772.00, 
1773.00, 
1774.00, 
1775.00, 
1776.00, 
1777.00, 
1778.00, 
1779.00, 
1780.00, 
1781.00, 
1782.00, 
1783.00, 
1784.00, 
1785.00, 
1786.00, 
1787.00, 
1788.00, 
1789.00, 
1790.00, 
1791.00, 
1792.00, 
1793.00, 
1794.00, 
1795.00, 
1796.00, 
1797.00, 
1798.00, 
1799.00, 
1800.00, 
1801.00, 
1802.00, 
1803.00, 
1804.00, 
1805.00, 
1806.00, 
1807.00, 
1808.00, 
1809.00, 
1810.00, 
1811.00, 
1812.00, 
1813.00, 
1814.00, 
1815.00, 
1816.00, 
1817.00, 
1818.00, 
1819.00, 
1820.00, 
1821.00, 
1822.00, 
1823.00, 
1824.00, 
1825.00, 
1826.00, 
1827.00, 
1828.00, 
1829.00, 
1830.00, 
1831.00, 
1832.00, 
1833.00, 
1834.00, 
1835.00, 
1836.00, 
1837.00, 
1838.00, 
1839.00, 
1840.00, 
1841.00, 
1842.00, 
1843.00, 
1844.00, 
1845.00, 
1846.00, 
1847.00, 
1848.00, 
1849.00, 
1850.00, 
1851.00, 
1852.00, 
1853.00, 
1854.00, 
1855.00, 
1856.00, 
1857.00, 
1858.00, 
1859.00, 
1860.00, 
1861.00, 
1862.00, 
1863.00, 
1864.00, 
1865.00, 
1866.00, 
1867.00, 
1868.00, 
1869.00, 
1870.00, 
1871.00, 
1872.00, 
1873.00, 
1874.00, 
1875.00, 
1876.00, 
1877.00, 
1878.00, 
1879.00, 
1880.00, 
1881.00, 
1882.00, 
1883.00, 
1884.00, 
1885.00, 
1886.00, 
1887.00, 
1888.00, 
1889.00, 
1890.00, 
1891.00, 
1892.00, 
1893.00, 
1894.00, 
1895.00, 
1896.00, 
1897.00, 
1898.00, 
1899.00, 
1900.00, 
1901.00, 
1902.00, 
1903.00, 
1904.00, 
1905.00, 
1906.00, 
1907.00, 
1908.00, 
1909.00, 
1910.00, 
1911.00, 
1912.00, 
1913.00, 
1914.00, 
1915.00, 
1916.00, 
1917.00, 
1918.00, 
1919.00, 
1920.00, 
1921.00, 
1922.00, 
1923.00, 
1924.00, 
1925.00, 
1926.00, 
1927.00, 
1928.00, 
1929.00, 
1930.00, 
1931.00, 
1932.00, 
1933.00, 
1934.00, 
1935.00, 
1936.00, 
1937.00, 
1938.00, 
1939.00, 
1940.00, 
1941.00, 
1942.00, 
1943.00, 
1944.00, 
1945.00, 
1946.00, 
1947.00, 
1948.00, 
1949.00, 
1950.00, 
1951.00, 
1952.00, 
1953.00, 
1954.00, 
1955.00, 
1956.00, 
1957.00, 
1958.00, 
1959.00, 
1960.00, 
1961.00, 
1962.00, 
1963.00, 
1964.00, 
1965.00, 
1966.00, 
1967.00, 
1968.00, 
1969.00, 
1970.00, 
1971.00, 
1972.00, 
1973.00, 
1974.00, 
1975.00, 
1976.00, 
1977.00, 
1978.00, 
1979.00, 
1980.00, 
1981.00, 
1982.00, 
1983.00, 
1984.00, 
1985.00, 
1986.00, 
1987.00, 
1988.00, 
1989.00, 
1990.00, 
1991.00, 
1992.00, 
1993.00, 
1994.00, 
1995.00, 
1996.00, 
1997.00, 
1998.00, 
1999.00, 
2000.00, 
2001.00, 
2002.00, 
2003.00, 
2004.00, 
2005.00, 
2006.00, 
2007.00, 
2008.00, 
2009.00, 
2010.00, 
2011.00, 
2012.00, 
2013.00, 
2014.00, 
2015.00, 
2016.00, 
2017.00, 
2018.00, 
2019.00, 
2020.00, 
2021.00, 
2022.00, 
2023.00, 
2024.00, 
2025.00, 
2026.00, 
2027.00, 
2028.00, 
2029.00, 
2030.00, 
2031.00, 
2032.00, 
2033.00, 
2034.00, 
2035.00, 
2036.00, 
2037.00, 
2038.00, 
2039.00, 
2040.00, 
2041.00, 
2042.00, 
2043.00, 
2044.00, 
2045.00, 
2046.00, 
2047.00, 
2048.00, 
2049.00, 
2050.00, 
2051.00, 
2052.00, 
2053.00, 
2054.00, 
2055.00, 
2056.00, 
2057.00, 
2058.00, 
2059.00, 
2060.00, 
2061.00, 
2062.00, 
2063.00, 
2064.00, 
2065.00, 
2066.00, 
2067.00, 
2068.00, 
2069.00, 
2070.00, 
2071.00, 
2072.00, 
2073.00, 
2074.00, 
2075.00, 
2076.00, 
2077.00, 
2078.00, 
2079.00, 
2080.00, 
2081.00, 
2082.00, 
2083.00, 
2084.00, 
2085.00, 
2086.00, 
2087.00, 
2088.00, 
2089.00, 
2090.00, 
2091.00, 
2092.00, 
2093.00, 
2094.00, 
2095.00, 
2096.00, 
2097.00, 
2098.00, 
2099.00, 
2100.00, 
2101.00, 
2102.00, 
2103.00, 
2104.00, 
2105.00, 
2106.00, 
2107.00, 
2108.00, 
2109.00, 
2110.00, 
2111.00, 
2112.00, 
2113.00, 
2114.00, 
2115.00, 
2116.00, 
2117.00, 
2118.00, 
2119.00, 
2120.00, 
2121.00, 
2122.00, 
2123.00, 
2124.00, 
2125.00, 
2126.00, 
2127.00, 
2128.00, 
2129.00, 
2130.00, 
2131.00, 
2132.00, 
2133.00, 
2134.00, 
2135.00, 
2136.00, 
2137.00, 
2138.00, 
2139.00, 
2140.00, 
2141.00, 
2142.00, 
2143.00, 
2144.00, 
2145.00, 
2146.00, 
2147.00, 
2148.00, 
2149.00, 
2150.00, 
2151.00, 
2152.00, 
2153.00, 
2154.00, 
2155.00, 
2156.00, 
2157.00, 
2158.00, 
2159.00, 
2160.00, 
2161.00, 
2162.00, 
2163.00, 
2164.00, 
2165.00, 
2166.00, 
2167.00, 
2168.00, 
2169.00, 
2170.00, 
2171.00, 
2172.00, 
2173.00, 
2174.00, 
2175.00, 
2176.00, 
2177.00, 
2178.00, 
2179.00, 
2180.00, 
2181.00, 
2182.00, 
2183.00, 
2184.00, 
2185.00, 
2186.00, 
2187.00, 
2188.00, 
2189.00, 
2190.00, 
2191.00, 
2192.00, 
2193.00, 
2194.00, 
2195.00, 
2196.00, 
2197.00, 
2198.00, 
2199.00, 
2200.00, 
2201.00, 
2202.00, 
2203.00, 
2204.00, 
2205.00, 
2206.00, 
2207.00, 
2208.00, 
2209.00, 
2210.00, 
2211.00, 
2212.00, 
2213.00, 
2214.00, 
2215.00, 
2216.00, 
2217.00, 
2218.00, 
2219.00, 
2220.00, 
2221.00, 
2222.00, 
2223.00, 
2224.00, 
2225.00, 
2226.00, 
2227.00, 
2228.00, 
2229.00, 
2230.00, 
2231.00, 
2232.00, 
2233.00, 
2234.00, 
2235.00, 
2236.00, 
2237.00, 
2238.00, 
2239.00, 
2240.00, 
2241.00, 
2242.00, 
2243.00, 
2244.00, 
2245.00, 
2246.00, 
2247.00, 
2248.00, 
2249.00, 
2250.00, 
2251.00, 
2252.00, 
2253.00, 
2254.00, 
2255.00, 
2256.00, 
2257.00, 
2258.00, 
2259.00, 
2260.00, 
2261.00, 
2262.00, 
2263.00, 
2264.00, 
2265.00, 
2266.00, 
2267.00, 
2268.00, 
2269.00, 
2270.00, 
2271.00, 
2272.00, 
2273.00, 
2274.00, 
2275.00, 
2276.00, 
2277.00, 
2278.00, 
2279.00, 
2280.00, 
2281.00, 
2282.00, 
2283.00, 
2284.00, 
2285.00, 
2286.00, 
2287.00, 
2288.00, 
2289.00, 
2290.00, 
2291.00, 
2292.00, 
2293.00, 
2294.00, 
2295.00, 
2296.00, 
2297.00, 
2298.00, 
2299.00, 
2300.00, 
2301.00, 
2302.00, 
2303.00, 
2304.00, 
2305.00, 
2306.00, 
2307.00, 
2308.00, 
2309.00, 
2310.00, 
2311.00, 
2312.00, 
2313.00, 
2314.00, 
2315.00, 
2316.00, 
2317.00, 
2318.00, 
2319.00, 
2320.00, 
2321.00, 
2322.00, 
2323.00, 
2324.00, 
2325.00, 
2326.00, 
2327.00, 
2328.00, 
2329.00, 
2330.00, 
2331.00, 
2332.00, 
2333.00, 
2334.00, 
2335.00, 
2336.00, 
2337.00, 
2338.00, 
2339.00, 
2340.00, 
2341.00, 
2342.00, 
2343.00, 
2344.00, 
2345.00, 
2346.00, 
2347.00, 
2348.00, 
2349.00, 
2350.00, 
2351.00, 
2352.00, 
2353.00, 
2354.00, 
2355.00, 
2356.00, 
2357.00, 
2358.00, 
2359.00, 
2360.00, 
2361.00, 
2362.00, 
2363.00, 
2364.00, 
2365.00, 
2366.00, 
2367.00, 
2368.00, 
2369.00, 
2370.00, 
2371.00, 
2372.00, 
2373.00, 
2374.00, 
2375.00, 
2376.00, 
2377.00, 
2378.00, 
2379.00, 
2380.00, 
2381.00, 
2382.00, 
2383.00, 
2384.00, 
2385.00, 
2386.00, 
2387.00, 
2388.00, 
2389.00, 
2390.00, 
2391.00, 
2392.00, 
2393.00, 
2394.00, 
2395.00, 
2396.00, 
2397.00, 
2398.00, 
2399.00, 
2400.00, 
2401.00, 
2402.00, 
2403.00, 
2404.00, 
2405.00, 
2406.00, 
2407.00, 
2408.00, 
2409.00, 
2410.00, 
2411.00, 
2412.00, 
2413.00, 
2414.00, 
2415.00, 
2416.00, 
2417.00, 
2418.00, 
2419.00, 
2420.00, 
2421.00, 
2422.00, 
2423.00, 
2424.00, 
2425.00, 
2426.00, 
2427.00, 
2428.00, 
2429.00, 
2430.00, 
2431.00, 
2432.00, 
2433.00, 
2434.00, 
2435.00, 
2436.00, 
2437.00, 
2438.00, 
2439.00, 
2440.00, 
2441.00, 
2442.00, 
2443.00, 
2444.00, 
2445.00, 
2446.00, 
2447.00, 
2448.00, 
2449.00, 
2450.00, 
2451.00, 
2452.00, 
2453.00, 
2454.00, 
2455.00, 
2456.00, 
2457.00, 
2458.00, 
2459.00, 
2460.00, 
2461.00, 
2462.00, 
2463.00, 
2464.00, 
2465.00, 
2466.00, 
2467.00, 
2468.00, 
2469.00, 
2470.00, 
2471.00, 
2472.00, 
2473.00, 
2474.00, 
2475.00, 
2476.00, 
2477.00, 
2478.00, 
2479.00, 
2480.00, 
2481.00, 
2482.00, 
2483.00, 
2484.00, 
2485.00, 
2486.00, 
2487.00, 
2488.00, 
2489.00, 
2490.00, 
2491.00, 
2492.00, 
2493.00, 
2494.00, 
2495.00, 
2496.00, 
2497.00, 
2498.00, 
2499.00, 
2500.00, 
2501.00, 
2502.00, 
2503.00, 
2504.00, 
2505.00, 
2506.00, 
2507.00, 
2508.00, 
2509.00, 
2510.00, 
2511.00, 
2512.00, 
2513.00, 
2514.00, 
2515.00, 
2516.00, 
2517.00, 
2518.00, 
2519.00, 
2520.00, 
2521.00, 
2522.00, 
2523.00, 
2524.00, 
2525.00, 
2526.00, 
2527.00, 
2528.00, 
2529.00, 
2530.00, 
2531.00, 
2532.00, 
2533.00, 
2534.00, 
2535.00, 
2536.00, 
2537.00, 
2538.00, 
2539.00, 
2540.00, 
2541.00, 
2542.00, 
2543.00, 
2544.00, 
2545.00, 
2546.00, 
2547.00, 
2548.00, 
2549.00, 
2550.00, 
2551.00, 
2552.00, 
2553.00, 
2554.00, 
2555.00, 
2556.00, 
2557.00, 
2558.00, 
2559.00, 
2560.00, 
2561.00, 
2562.00, 
2563.00, 
2564.00, 
2565.00, 
2566.00, 
2567.00, 
2568.00, 
2569.00, 
2570.00, 
2571.00, 
2572.00, 
2573.00, 
2574.00, 
2575.00, 
2576.00, 
2577.00, 
2578.00, 
2579.00, 
2580.00, 
2581.00, 
2582.00, 
2583.00, 
2584.00, 
2585.00, 
2586.00, 
2587.00, 
2588.00, 
2589.00, 
2590.00, 
2591.00, 
2592.00, 
2593.00, 
2594.00, 
2595.00, 
2596.00, 
2597.00, 
2598.00, 
2599.00, 
2600.00, 
