"1bP2 - RawData"
"Wavelength nm.","T%"
200.00,0.005
201.00,0.001
202.00,-0.002
203.00,0.002
204.00,0.002
205.00,0.000
206.00,-0.002
207.00,-0.001
208.00,0.001
209.00,0.001
210.00,0.001
211.00,0.001
212.00,0.001
213.00,-0.000
214.00,0.001
215.00,0.001
216.00,0.001
217.00,0.001
218.00,-0.000
219.00,0.004
220.00,0.001
221.00,0.001
222.00,0.002
223.00,0.002
224.00,-0.001
225.00,0.001
226.00,0.001
227.00,0.001
228.00,0.001
229.00,-0.000
230.00,0.001
231.00,0.002
232.00,0.002
233.00,-0.000
234.00,0.003
235.00,0.001
236.00,-0.002
237.00,-0.001
238.00,0.001
239.00,-0.002
240.00,0.001
241.00,0.001
242.00,0.001
243.00,-0.000
244.00,-0.001
245.00,0.001
246.00,-0.001
247.00,0.000
248.00,-0.000
249.00,0.000
250.00,0.001
251.00,-0.001
252.00,0.001
253.00,0.002
254.00,-0.000
255.00,0.000
256.00,0.002
257.00,0.002
258.00,0.000
259.00,0.002
260.00,0.000
261.00,-0.001
262.00,0.001
263.00,-0.002
264.00,0.001
265.00,-0.001
266.00,0.001
267.00,-0.002
268.00,0.000
269.00,0.002
270.00,0.001
271.00,0.000
272.00,-0.001
273.00,0.002
274.00,-0.000
275.00,-0.001
276.00,-0.001
277.00,-0.001
278.00,-0.000
279.00,0.001
280.00,0.001
281.00,0.001
282.00,0.000
283.00,0.001
284.00,0.001
285.00,-0.003
286.00,-0.000
287.00,0.001
288.00,0.001
289.00,-0.000
290.00,-0.001
291.00,-0.002
292.00,-0.001
293.00,-0.000
294.00,-0.001
295.00,0.000
296.00,-0.001
297.00,0.001
298.00,0.001
299.00,0.003
300.00,0.002
301.00,0.005
302.00,0.007
303.00,0.010
304.00,0.017
305.00,0.025
306.00,0.038
307.00,0.058
308.00,0.089
309.00,0.135
310.00,0.187
311.00,0.252
312.00,0.342
313.00,0.453
314.00,0.590
315.00,0.768
316.00,0.971
317.00,1.188
318.00,1.460
319.00,1.773
320.00,2.119
321.00,2.510
322.00,2.945
323.00,3.432
324.00,3.955
325.00,4.475
326.00,4.975
327.00,5.555
328.00,6.170
329.00,6.731
330.00,7.365
331.00,7.991
332.00,8.628
333.00,9.269
334.00,9.863
335.00,10.467
336.00,11.079
337.00,11.697
338.00,12.288
339.00,12.847
340.00,13.388
341.00,13.931
342.00,14.425
343.00,14.880
344.00,15.419
345.00,15.798
346.00,16.177
347.00,16.489
348.00,16.841
349.00,17.171
350.00,17.500
351.00,17.754
352.00,17.976
353.00,18.219
354.00,18.440
355.00,18.649
356.00,18.854
357.00,18.966
358.00,19.186
359.00,19.363
360.00,19.503
361.00,19.545
362.00,19.664
363.00,19.766
364.00,19.784
365.00,19.875
366.00,19.898
367.00,19.900
368.00,19.955
369.00,19.979
370.00,20.032
371.00,19.960
372.00,19.924
373.00,19.960
374.00,19.934
375.00,19.841
376.00,19.748
377.00,19.750
378.00,19.625
379.00,19.542
380.00,19.489
381.00,19.468
382.00,19.436
383.00,19.380
384.00,19.399
385.00,19.457
386.00,19.340
387.00,19.453
388.00,19.369
389.00,19.432
390.00,19.450
391.00,19.416
392.00,19.434
393.00,19.397
394.00,19.418
395.00,19.402
396.00,19.370
397.00,19.386
398.00,19.378
399.00,19.375
400.00,19.342
401.00,19.321
402.00,19.386
403.00,19.388
404.00,19.324
405.00,19.288
406.00,19.262
407.00,19.236
408.00,19.219
409.00,19.172
410.00,19.084
411.00,19.092
412.00,19.052
413.00,19.074
414.00,19.054
415.00,19.045
416.00,19.102
417.00,19.049
418.00,19.088
419.00,19.171
420.00,19.201
421.00,19.149
422.00,19.141
423.00,19.192
424.00,19.213
425.00,19.227
426.00,19.272
427.00,19.334
428.00,19.340
429.00,19.381
430.00,19.422
431.00,19.488
432.00,19.508
433.00,19.574
434.00,19.638
435.00,19.707
436.00,19.739
437.00,19.813
438.00,19.859
439.00,19.933
440.00,20.004
441.00,20.053
442.00,20.171
443.00,20.231
444.00,20.296
445.00,20.378
446.00,20.452
447.00,20.543
448.00,20.662
449.00,20.752
450.00,20.859
451.00,20.957
452.00,21.011
453.00,21.186
454.00,21.246
455.00,21.325
456.00,21.455
457.00,21.588
458.00,21.629
459.00,21.792
460.00,21.942
461.00,22.070
462.00,22.147
463.00,22.339
464.00,22.415
465.00,22.552
466.00,22.732
467.00,22.836
468.00,22.935
469.00,23.014
470.00,23.097
471.00,23.209
472.00,23.408
473.00,23.428
474.00,23.591
475.00,23.733
476.00,23.802
477.00,23.951
478.00,24.084
479.00,24.271
480.00,24.427
481.00,24.551
482.00,24.690
483.00,24.811
484.00,24.975
485.00,25.141
486.00,25.302
487.00,25.436
488.00,25.565
489.00,25.769
490.00,25.925
491.00,26.070
492.00,26.175
493.00,26.431
494.00,26.592
495.00,26.609
496.00,26.718
497.00,26.834
498.00,27.003
499.00,27.139
500.00,27.307
501.00,27.384
502.00,27.557
503.00,27.671
504.00,27.722
505.00,27.888
506.00,28.000
507.00,28.085
508.00,28.227
509.00,28.400
510.00,28.556
511.00,28.611
512.00,28.785
513.00,28.955
514.00,29.075
515.00,29.212
516.00,29.317
517.00,29.373
518.00,29.538
519.00,29.598
520.00,29.641
521.00,29.809
522.00,29.914
523.00,29.981
524.00,30.080
525.00,30.218
526.00,30.317
527.00,30.417
528.00,30.495
529.00,30.671
530.00,30.840
531.00,30.886
532.00,30.976
533.00,31.122
534.00,31.212
535.00,31.283
536.00,31.343
537.00,31.401
538.00,31.471
539.00,31.557
540.00,31.641
541.00,31.661
542.00,31.713
543.00,31.811
544.00,31.891
545.00,31.993
546.00,32.014
547.00,32.156
548.00,32.269
549.00,32.296
550.00,32.356
551.00,32.479
552.00,32.577
553.00,32.574
554.00,32.643
555.00,32.683
556.00,32.789
557.00,32.849
558.00,32.907
559.00,32.960
560.00,33.091
561.00,33.133
562.00,33.183
563.00,33.224
564.00,33.282
565.00,33.285
566.00,33.324
567.00,33.369
568.00,33.396
569.00,33.491
570.00,33.528
571.00,33.551
572.00,33.580
573.00,33.550
574.00,33.606
575.00,33.665
576.00,33.662
577.00,33.740
578.00,33.828
579.00,33.913
580.00,33.922
581.00,34.112
582.00,34.194
583.00,34.123
584.00,34.272
585.00,34.339
586.00,34.277
587.00,34.360
588.00,34.447
589.00,34.366
590.00,34.502
591.00,34.550
592.00,34.485
593.00,34.596
594.00,34.674
595.00,34.781
596.00,34.790
597.00,34.885
598.00,34.960
599.00,34.999
600.00,35.078
601.00,35.116
602.00,35.099
603.00,35.133
604.00,35.173
605.00,35.242
606.00,35.288
607.00,35.302
608.00,35.338
609.00,35.505
610.00,35.672
611.00,35.447
612.00,35.434
613.00,35.487
614.00,35.587
615.00,35.716
616.00,35.824
617.00,35.827
618.00,35.879
619.00,35.957
620.00,35.950
621.00,36.016
622.00,36.162
623.00,36.163
624.00,36.268
625.00,36.394
626.00,36.401
627.00,36.449
628.00,36.520
629.00,36.570
630.00,36.589
631.00,36.607
632.00,36.780
633.00,36.856
634.00,36.932
635.00,37.052
636.00,37.121
637.00,37.167
638.00,37.272
639.00,37.365
640.00,37.337
641.00,37.428
642.00,37.495
643.00,37.566
644.00,37.642
645.00,37.833
646.00,37.991
647.00,38.045
648.00,38.128
649.00,38.180
650.00,38.199
651.00,38.397
652.00,38.470
653.00,38.483
654.00,38.589
655.00,38.858
656.00,39.047
657.00,39.046
658.00,39.174
659.00,39.208
660.00,39.185
661.00,39.277
662.00,39.395
663.00,39.497
664.00,39.715
665.00,39.936
666.00,39.854
667.00,39.949
668.00,39.983
669.00,40.279
670.00,40.496
671.00,40.287
672.00,40.457
673.00,40.689
674.00,40.736
675.00,40.843
676.00,41.005
677.00,41.197
678.00,40.975
679.00,41.238
680.00,41.338
681.00,41.594
682.00,41.535
683.00,41.543
684.00,41.706
685.00,41.806
686.00,41.820
687.00,42.040
688.00,42.130
689.00,42.137
690.00,42.454
691.00,42.763
692.00,42.426
693.00,42.419
694.00,42.689
695.00,42.924
696.00,43.011
697.00,43.006
698.00,43.036
699.00,43.276
700.00,43.343
701.00,43.505
702.00,43.680
703.00,43.838
704.00,43.879
705.00,43.786
706.00,43.836
707.00,44.019
708.00,43.989
709.00,44.335
710.00,44.748
711.00,44.214
712.00,44.321
713.00,44.612
714.00,44.696
715.00,44.613
716.00,44.748
717.00,44.896
718.00,45.041
719.00,45.055
720.00,45.150
721.00,49.662
722.00,49.799
723.00,49.806
724.00,49.853
725.00,49.862
726.00,49.938
727.00,49.922
728.00,49.957
729.00,50.030
730.00,50.104
731.00,50.163
732.00,50.194
733.00,50.261
734.00,50.266
735.00,50.356
736.00,50.351
737.00,50.417
738.00,50.520
739.00,50.520
740.00,50.578
741.00,50.675
742.00,50.757
743.00,50.786
744.00,50.743
745.00,50.774
746.00,50.787
747.00,50.807
748.00,50.825
749.00,50.908
750.00,50.855
751.00,50.803
752.00,50.960
753.00,50.927
754.00,50.972
755.00,50.925
756.00,51.026
757.00,51.096
758.00,50.987
759.00,51.072
760.00,51.109
761.00,51.162
762.00,51.212
763.00,51.307
764.00,51.227
765.00,51.268
766.00,51.362
767.00,51.300
768.00,51.368
769.00,51.319
770.00,51.460
771.00,51.378
772.00,51.429
773.00,51.447
774.00,51.498
775.00,51.531
776.00,51.462
777.00,51.599
778.00,51.565
779.00,51.601
780.00,51.541
781.00,51.581
782.00,51.556
783.00,51.555
784.00,51.659
785.00,51.561
786.00,51.623
787.00,51.609
788.00,51.576
789.00,51.653
790.00,51.610
791.00,51.707
792.00,51.559
793.00,51.635
794.00,51.584
795.00,51.554
796.00,51.666
797.00,51.577
798.00,51.596
799.00,51.534
800.00,51.544
801.00,51.643
802.00,51.550
803.00,51.627
804.00,51.597
805.00,51.615
806.00,51.590
807.00,51.589
808.00,51.556
809.00,51.553
810.00,51.545
811.00,51.562
812.00,51.540
813.00,51.567
814.00,51.569
815.00,51.583
816.00,51.495
817.00,51.460
818.00,51.500
819.00,51.512
820.00,51.457
821.00,51.589
822.00,51.483
823.00,51.408
824.00,51.483
825.00,51.415
826.00,51.440
827.00,51.497
828.00,51.514
829.00,51.435
830.00,51.396
831.00,54.189
832.00,54.162
833.00,54.137
834.00,54.127
835.00,54.113
836.00,54.125
837.00,54.124
838.00,54.115
839.00,54.095
840.00,54.061
841.00,54.106
842.00,54.092
843.00,54.069
844.00,54.055
845.00,54.005
846.00,54.038
847.00,54.004
848.00,54.022
849.00,53.946
850.00,53.916
851.00,53.851
852.00,53.905
853.00,53.880
854.00,53.873
855.00,53.839
856.00,53.798
857.00,53.809
858.00,53.729
859.00,53.742
860.00,53.741
861.00,53.737
862.00,53.674
863.00,53.711
864.00,53.722
865.00,53.741
866.00,53.705
867.00,53.692
868.00,53.691
869.00,53.673
870.00,53.695
871.00,53.661
872.00,53.691
873.00,53.622
874.00,53.721
875.00,53.661
876.00,53.692
877.00,53.599
878.00,53.763
879.00,53.628
880.00,53.616
881.00,53.622
882.00,53.692
883.00,53.589
884.00,53.564
885.00,53.554
886.00,53.553
887.00,53.516
888.00,53.541
889.00,53.500
890.00,53.497
891.00,53.492
892.00,53.457
893.00,53.372
894.00,53.559
895.00,53.439
896.00,53.410
897.00,53.387
898.00,53.373
899.00,53.399
900.00,53.344
901.00,53.376
902.00,53.376
903.00,53.346
904.00,53.328
905.00,53.303
906.00,53.297
907.00,53.427
908.00,53.229
909.00,53.259
910.00,53.217
911.00,53.224
912.00,53.192
913.00,53.149
914.00,53.183
915.00,53.167
916.00,53.143
917.00,53.062
918.00,53.184
919.00,53.055
920.00,53.032
921.00,53.023
922.00,53.042
923.00,53.027
924.00,52.967
925.00,52.991
926.00,52.960
927.00,52.960
928.00,52.892
929.00,52.919
930.00,52.890
931.00,52.894
932.00,52.851
933.00,52.880
934.00,52.831
935.00,52.812
936.00,52.802
937.00,52.795
938.00,52.784
939.00,52.772
940.00,52.742
941.00,52.749
942.00,52.712
943.00,52.689
944.00,52.665
945.00,52.671
946.00,52.667
947.00,52.606
948.00,52.610
949.00,52.607
950.00,52.608
951.00,52.554
952.00,52.553
953.00,52.490
954.00,52.480
955.00,52.445
956.00,52.441
957.00,52.395
958.00,52.436
959.00,52.349
960.00,52.364
961.00,52.388
962.00,52.364
963.00,52.300
964.00,52.360
965.00,52.346
966.00,52.335
967.00,52.333
968.00,52.300
969.00,52.344
970.00,52.305
971.00,52.314
972.00,52.261
973.00,52.311
974.00,52.348
975.00,52.317
976.00,52.313
977.00,52.314
978.00,52.352
979.00,52.340
980.00,52.324
981.00,52.340
982.00,52.291
983.00,52.341
984.00,52.299
985.00,52.316
986.00,52.281
987.00,52.307
988.00,52.259
989.00,52.243
990.00,52.250
991.00,52.253
992.00,52.250
993.00,52.223
994.00,52.230
995.00,52.197
996.00,52.180
997.00,52.188
998.00,52.154
999.00,52.177
1000.00,52.123
1001.00,52.122
1002.00,52.132
1003.00,52.108
1004.00,52.134
1005.00,52.064
1006.00,52.102
1007.00,52.092
1008.00,52.057
1009.00,52.030
1010.00,52.086
1011.00,52.035
1012.00,51.999
1013.00,52.026
1014.00,51.979
1015.00,51.997
1016.00,51.962
1017.00,51.939
1018.00,51.953
1019.00,51.906
1020.00,51.908
1021.00,51.890
1022.00,51.904
1023.00,51.849
1024.00,51.871
1025.00,51.861
1026.00,51.826
1027.00,51.803
1028.00,51.780
1029.00,51.790
1030.00,51.756
1031.00,51.772
1032.00,51.739
1033.00,51.724
1034.00,51.711
1035.00,51.695
1036.00,51.637
1037.00,51.650
1038.00,51.651
1039.00,51.613
1040.00,51.616
1041.00,51.540
1042.00,51.545
1043.00,51.523
1044.00,51.561
1045.00,51.535
1046.00,51.542
1047.00,51.563
1048.00,51.573
1049.00,51.586
1050.00,51.582
1051.00,51.638
1052.00,51.618
1053.00,51.635
1054.00,51.637
1055.00,51.658
1056.00,51.664
1057.00,51.670
1058.00,51.637
1059.00,51.639
1060.00,51.676
1061.00,51.623
1062.00,51.628
1063.00,51.647
1064.00,51.641
1065.00,51.608
1066.00,51.614
1067.00,51.608
1068.00,51.633
1069.00,51.577
1070.00,51.601
1071.00,51.597
1072.00,51.564
1073.00,51.547
1074.00,51.568
1075.00,51.548
1076.00,51.568
1077.00,51.546
1078.00,51.533
1079.00,51.541
1080.00,51.529
1081.00,51.518
1082.00,51.512
1083.00,51.489
1084.00,51.492
1085.00,51.498
1086.00,51.493
1087.00,51.479
1088.00,51.452
1089.00,51.454
1090.00,51.479
1091.00,51.481
1092.00,51.466
1093.00,51.464
1094.00,51.418
1095.00,51.416
1096.00,51.387
1097.00,51.397
1098.00,51.383
1099.00,51.370
1100.00,51.365
1101.00,51.375
1102.00,51.342
1103.00,51.372
1104.00,51.367
1105.00,51.329
1106.00,51.316
1107.00,51.333
1108.00,51.304
1109.00,51.295
1110.00,51.274
1111.00,51.277
1112.00,51.265
1113.00,51.255
1114.00,51.254
1115.00,51.267
1116.00,51.251
1117.00,51.251
1118.00,51.235
1119.00,51.236
1120.00,51.237
1121.00,51.226
1122.00,51.204
1123.00,51.220
1124.00,51.194
1125.00,51.226
1126.00,51.216
1127.00,51.195
1128.00,51.184
1129.00,51.182
1130.00,51.149
1131.00,51.193
1132.00,51.150
1133.00,51.158
1134.00,51.156
1135.00,51.125
1136.00,51.134
1137.00,51.170
1138.00,51.136
1139.00,51.150
1140.00,51.144
1141.00,51.138
1142.00,51.121
1143.00,51.143
1144.00,51.125
1145.00,51.117
1146.00,51.080
1147.00,51.100
1148.00,51.086
1149.00,51.094
1150.00,51.109
1151.00,51.127
1152.00,51.107
1153.00,51.112
1154.00,51.095
1155.00,51.100
1156.00,51.091
1157.00,51.089
1158.00,51.075
1159.00,51.083
1160.00,51.061
1161.00,51.097
1162.00,51.089
1163.00,51.061
1164.00,51.091
1165.00,51.070
1166.00,51.070
1167.00,51.064
1168.00,51.068
1169.00,51.058
1170.00,51.071
1171.00,51.037
1172.00,51.048
1173.00,51.055
1174.00,51.054
1175.00,51.058
1176.00,51.047
1177.00,51.026
1178.00,51.044
1179.00,51.050
1180.00,51.035
1181.00,51.063
1182.00,51.034
1183.00,51.053
1184.00,51.042
1185.00,51.044
1186.00,51.042
1187.00,51.049
1188.00,51.044
1189.00,51.047
1190.00,51.034
1191.00,51.036
1192.00,51.082
1193.00,51.046
1194.00,51.054
1195.00,51.023
1196.00,51.048
1197.00,51.055
1198.00,51.035
1199.00,51.035
1200.00,51.055
1201.00,51.057
1202.00,51.050
1203.00,51.051
1204.00,51.020
1205.00,51.065
1206.00,51.047
1207.00,51.046
1208.00,51.058
1209.00,51.037
1210.00,51.039
1211.00,51.041
1212.00,51.052
1213.00,51.007
1214.00,51.048
1215.00,51.015
1216.00,51.041
1217.00,51.041
1218.00,51.016
1219.00,51.063
1220.00,51.015
1221.00,51.039
1222.00,51.040
1223.00,51.050
1224.00,51.043
1225.00,51.037
1226.00,51.032
1227.00,51.035
1228.00,51.051
1229.00,51.034
1230.00,51.067
1231.00,51.053
1232.00,51.079
1233.00,51.091
1234.00,51.082
1235.00,51.089
1236.00,51.094
1237.00,51.080
1238.00,51.071
1239.00,51.088
1240.00,51.066
1241.00,51.100
1242.00,51.080
1243.00,51.092
1244.00,51.079
1245.00,51.100
1246.00,51.120
1247.00,51.106
1248.00,51.100
1249.00,51.132
1250.00,51.139
1251.00,51.112
1252.00,51.128
1253.00,51.101
1254.00,51.137
1255.00,51.125
1256.00,51.111
1257.00,51.107
1258.00,51.157
1259.00,51.149
1260.00,51.176
1261.00,51.176
1262.00,51.163
1263.00,51.178
1264.00,51.169
1265.00,51.156
1266.00,51.197
1267.00,51.198
1268.00,51.212
1269.00,51.229
1270.00,51.208
1271.00,51.212
1272.00,51.203
1273.00,51.218
1274.00,51.226
1275.00,51.233
1276.00,51.232
1277.00,51.249
1278.00,51.237
1279.00,51.245
1280.00,51.231
1281.00,51.252
1282.00,51.276
1283.00,51.304
1284.00,51.256
1285.00,51.272
1286.00,51.283
1287.00,51.275
1288.00,51.297
1289.00,51.282
1290.00,51.327
1291.00,51.315
1292.00,51.291
1293.00,51.313
1294.00,51.320
1295.00,51.314
1296.00,51.329
1297.00,51.330
1298.00,51.371
1299.00,51.352
1300.00,51.363
1301.00,51.353
1302.00,51.396
1303.00,51.370
1304.00,51.359
1305.00,51.393
1306.00,51.384
1307.00,51.400
1308.00,51.386
1309.00,51.400
1310.00,51.393
1311.00,51.376
1312.00,51.393
1313.00,51.423
1314.00,51.420
1315.00,51.442
1316.00,51.456
1317.00,51.478
1318.00,51.484
1319.00,51.475
1320.00,51.463
1321.00,51.644
1322.00,51.609
1323.00,51.593
1324.00,51.601
1325.00,51.583
1326.00,51.595
1327.00,51.587
1328.00,51.575
1329.00,51.578
1330.00,51.604
1331.00,51.576
1332.00,51.582
1333.00,51.586
1334.00,51.615
1335.00,51.637
1336.00,51.665
1337.00,51.697
1338.00,51.770
1339.00,51.802
1340.00,51.865
1341.00,51.930
1342.00,51.987
1343.00,52.038
1344.00,52.079
1345.00,52.113
1346.00,52.181
1347.00,52.189
1348.00,52.203
1349.00,52.216
1350.00,52.237
1351.00,52.267
1352.00,52.268
1353.00,52.257
1354.00,52.296
1355.00,52.207
1356.00,52.308
1357.00,52.283
1358.00,52.316
1359.00,52.189
1360.00,52.286
1361.00,51.947
1362.00,52.233
1363.00,52.408
1364.00,52.479
1365.00,52.323
1366.00,52.403
1367.00,52.357
1368.00,52.256
1369.00,52.367
1370.00,52.299
1371.00,52.236
1372.00,52.272
1373.00,52.337
1374.00,52.324
1375.00,52.276
1376.00,52.285
1377.00,52.238
1378.00,52.336
1379.00,52.326
1380.00,52.318
1381.00,52.414
1382.00,52.229
1383.00,52.321
1384.00,52.228
1385.00,52.207
1386.00,52.286
1387.00,52.320
1388.00,52.217
1389.00,52.230
1390.00,52.246
1391.00,52.255
1392.00,52.250
1393.00,52.211
1394.00,52.277
1395.00,52.259
1396.00,52.190
1397.00,52.173
1398.00,52.288
1399.00,52.239
1400.00,52.222
1401.00,52.243
1402.00,52.273
1403.00,52.347
1404.00,52.330
1405.00,52.221
1406.00,52.348
1407.00,52.306
1408.00,52.332
1409.00,52.298
1410.00,52.341
1411.00,52.297
1412.00,52.400
1413.00,52.315
1414.00,52.304
1415.00,52.347
1416.00,52.376
1417.00,52.393
1418.00,52.353
1419.00,52.354
1420.00,52.396
1421.00,52.450
1422.00,52.417
1423.00,52.462
1424.00,52.450
1425.00,52.487
1426.00,52.490
1427.00,52.496
1428.00,52.491
1429.00,52.488
1430.00,52.530
1431.00,52.537
1432.00,52.540
1433.00,52.577
1434.00,52.540
1435.00,52.606
1436.00,52.608
1437.00,52.593
1438.00,52.602
1439.00,52.653
1440.00,52.666
1441.00,52.652
1442.00,52.679
1443.00,52.689
1444.00,52.748
1445.00,52.693
1446.00,52.742
1447.00,52.769
1448.00,52.816
1449.00,52.792
1450.00,52.813
1451.00,52.804
1452.00,52.840
1453.00,52.828
1454.00,52.845
1455.00,52.850
1456.00,52.877
1457.00,52.863
1458.00,52.894
1459.00,52.913
1460.00,52.946
1461.00,52.923
1462.00,52.969
1463.00,52.961
1464.00,52.970
1465.00,52.986
1466.00,52.987
1467.00,53.023
1468.00,53.072
1469.00,53.055
1470.00,53.088
1471.00,53.082
1472.00,53.091
1473.00,53.122
1474.00,53.129
1475.00,53.165
1476.00,53.157
1477.00,53.126
1478.00,53.164
1479.00,53.175
1480.00,53.176
1481.00,53.188
1482.00,53.207
1483.00,53.217
1484.00,53.240
1485.00,53.219
1486.00,53.249
1487.00,53.268
1488.00,53.268
1489.00,53.269
1490.00,53.292
1491.00,53.283
1492.00,53.333
1493.00,53.284
1494.00,53.347
1495.00,53.312
1496.00,53.345
1497.00,53.342
1498.00,53.340
1499.00,53.362
1500.00,53.374
1501.00, 
1502.00, 
1503.00, 
1504.00, 
1505.00, 
1506.00, 
1507.00, 
1508.00, 
1509.00, 
1510.00, 
1511.00, 
1512.00, 
1513.00, 
1514.00, 
1515.00, 
1516.00, 
1517.00, 
1518.00, 
1519.00, 
1520.00, 
1521.00, 
1522.00, 
1523.00, 
1524.00, 
1525.00, 
1526.00, 
1527.00, 
1528.00, 
1529.00, 
1530.00, 
1531.00, 
1532.00, 
1533.00, 
1534.00, 
1535.00, 
1536.00, 
1537.00, 
1538.00, 
1539.00, 
1540.00, 
1541.00, 
1542.00, 
1543.00, 
1544.00, 
1545.00, 
1546.00, 
1547.00, 
1548.00, 
1549.00, 
1550.00, 
1551.00, 
1552.00, 
1553.00, 
1554.00, 
1555.00, 
1556.00, 
1557.00, 
1558.00, 
1559.00, 
1560.00, 
1561.00, 
1562.00, 
1563.00, 
1564.00, 
1565.00, 
1566.00, 
1567.00, 
1568.00, 
1569.00, 
1570.00, 
1571.00, 
1572.00, 
1573.00, 
1574.00, 
1575.00, 
1576.00, 
1577.00, 
1578.00, 
1579.00, 
1580.00, 
1581.00, 
1582.00, 
1583.00, 
1584.00, 
1585.00, 
1586.00, 
1587.00, 
1588.00, 
1589.00, 
1590.00, 
1591.00, 
1592.00, 
1593.00, 
1594.00, 
1595.00, 
1596.00, 
1597.00, 
1598.00, 
1599.00, 
1600.00, 
1601.00, 
1602.00, 
1603.00, 
1604.00, 
1605.00, 
1606.00, 
1607.00, 
1608.00, 
1609.00, 
1610.00, 
1611.00, 
1612.00, 
1613.00, 
1614.00, 
1615.00, 
1616.00, 
1617.00, 
1618.00, 
1619.00, 
1620.00, 
1621.00, 
1622.00, 
1623.00, 
1624.00, 
1625.00, 
1626.00, 
1627.00, 
1628.00, 
1629.00, 
1630.00, 
1631.00, 
1632.00, 
1633.00, 
1634.00, 
1635.00, 
1636.00, 
1637.00, 
1638.00, 
1639.00, 
1640.00, 
1641.00, 
1642.00, 
1643.00, 
1644.00, 
1645.00, 
1646.00, 
1647.00, 
1648.00, 
1649.00, 
1650.00, 
1651.00, 
1652.00, 
1653.00, 
1654.00, 
1655.00, 
1656.00, 
1657.00, 
1658.00, 
1659.00, 
1660.00, 
1661.00, 
1662.00, 
1663.00, 
1664.00, 
1665.00, 
1666.00, 
1667.00, 
1668.00, 
1669.00, 
1670.00, 
1671.00, 
1672.00, 
1673.00, 
1674.00, 
1675.00, 
1676.00, 
1677.00, 
1678.00, 
1679.00, 
1680.00, 
1681.00, 
1682.00, 
1683.00, 
1684.00, 
1685.00, 
1686.00, 
1687.00, 
1688.00, 
1689.00, 
1690.00, 
1691.00, 
1692.00, 
1693.00, 
1694.00, 
1695.00, 
1696.00, 
1697.00, 
1698.00, 
1699.00, 
1700.00, 
1701.00, 
1702.00, 
1703.00, 
1704.00, 
1705.00, 
1706.00, 
1707.00, 
1708.00, 
1709.00, 
1710.00, 
1711.00, 
1712.00, 
1713.00, 
1714.00, 
1715.00, 
1716.00, 
1717.00, 
1718.00, 
1719.00, 
1720.00, 
1721.00, 
1722.00, 
1723.00, 
1724.00, 
1725.00, 
1726.00, 
1727.00, 
1728.00, 
1729.00, 
1730.00, 
1731.00, 
1732.00, 
1733.00, 
1734.00, 
1735.00, 
1736.00, 
1737.00, 
1738.00, 
1739.00, 
1740.00, 
1741.00, 
1742.00, 
1743.00, 
1744.00, 
1745.00, 
1746.00, 
1747.00, 
1748.00, 
1749.00, 
1750.00, 
1751.00, 
1752.00, 
1753.00, 
1754.00, 
1755.00, 
1756.00, 
1757.00, 
1758.00, 
1759.00, 
1760.00, 
1761.00, 
1762.00, 
1763.00, 
1764.00, 
1765.00, 
1766.00, 
1767.00, 
1768.00, 
1769.00, 
1770.00, 
1771.00, 
1772.00, 
1773.00, 
1774.00, 
1775.00, 
1776.00, 
1777.00, 
1778.00, 
1779.00, 
1780.00, 
1781.00, 
1782.00, 
1783.00, 
1784.00, 
1785.00, 
1786.00, 
1787.00, 
1788.00, 
1789.00, 
1790.00, 
1791.00, 
1792.00, 
1793.00, 
1794.00, 
1795.00, 
1796.00, 
1797.00, 
1798.00, 
1799.00, 
1800.00, 
1801.00, 
1802.00, 
1803.00, 
1804.00, 
1805.00, 
1806.00, 
1807.00, 
1808.00, 
1809.00, 
1810.00, 
1811.00, 
1812.00, 
1813.00, 
1814.00, 
1815.00, 
1816.00, 
1817.00, 
1818.00, 
1819.00, 
1820.00, 
1821.00, 
1822.00, 
1823.00, 
1824.00, 
1825.00, 
1826.00, 
1827.00, 
1828.00, 
1829.00, 
1830.00, 
1831.00, 
1832.00, 
1833.00, 
1834.00, 
1835.00, 
1836.00, 
1837.00, 
1838.00, 
1839.00, 
1840.00, 
1841.00, 
1842.00, 
1843.00, 
1844.00, 
1845.00, 
1846.00, 
1847.00, 
1848.00, 
1849.00, 
1850.00, 
1851.00, 
1852.00, 
1853.00, 
1854.00, 
1855.00, 
1856.00, 
1857.00, 
1858.00, 
1859.00, 
1860.00, 
1861.00, 
1862.00, 
1863.00, 
1864.00, 
1865.00, 
1866.00, 
1867.00, 
1868.00, 
1869.00, 
1870.00, 
1871.00, 
1872.00, 
1873.00, 
1874.00, 
1875.00, 
1876.00, 
1877.00, 
1878.00, 
1879.00, 
1880.00, 
1881.00, 
1882.00, 
1883.00, 
1884.00, 
1885.00, 
1886.00, 
1887.00, 
1888.00, 
1889.00, 
1890.00, 
1891.00, 
1892.00, 
1893.00, 
1894.00, 
1895.00, 
1896.00, 
1897.00, 
1898.00, 
1899.00, 
1900.00, 
1901.00, 
1902.00, 
1903.00, 
1904.00, 
1905.00, 
1906.00, 
1907.00, 
1908.00, 
1909.00, 
1910.00, 
1911.00, 
1912.00, 
1913.00, 
1914.00, 
1915.00, 
1916.00, 
1917.00, 
1918.00, 
1919.00, 
1920.00, 
1921.00, 
1922.00, 
1923.00, 
1924.00, 
1925.00, 
1926.00, 
1927.00, 
1928.00, 
1929.00, 
1930.00, 
1931.00, 
1932.00, 
1933.00, 
1934.00, 
1935.00, 
1936.00, 
1937.00, 
1938.00, 
1939.00, 
1940.00, 
1941.00, 
1942.00, 
1943.00, 
1944.00, 
1945.00, 
1946.00, 
1947.00, 
1948.00, 
1949.00, 
1950.00, 
1951.00, 
1952.00, 
1953.00, 
1954.00, 
1955.00, 
1956.00, 
1957.00, 
1958.00, 
1959.00, 
1960.00, 
1961.00, 
1962.00, 
1963.00, 
1964.00, 
1965.00, 
1966.00, 
1967.00, 
1968.00, 
1969.00, 
1970.00, 
1971.00, 
1972.00, 
1973.00, 
1974.00, 
1975.00, 
1976.00, 
1977.00, 
1978.00, 
1979.00, 
1980.00, 
1981.00, 
1982.00, 
1983.00, 
1984.00, 
1985.00, 
1986.00, 
1987.00, 
1988.00, 
1989.00, 
1990.00, 
1991.00, 
1992.00, 
1993.00, 
1994.00, 
1995.00, 
1996.00, 
1997.00, 
1998.00, 
1999.00, 
2000.00, 
2001.00, 
2002.00, 
2003.00, 
2004.00, 
2005.00, 
2006.00, 
2007.00, 
2008.00, 
2009.00, 
2010.00, 
2011.00, 
2012.00, 
2013.00, 
2014.00, 
2015.00, 
2016.00, 
2017.00, 
2018.00, 
2019.00, 
2020.00, 
2021.00, 
2022.00, 
2023.00, 
2024.00, 
2025.00, 
2026.00, 
2027.00, 
2028.00, 
2029.00, 
2030.00, 
2031.00, 
2032.00, 
2033.00, 
2034.00, 
2035.00, 
2036.00, 
2037.00, 
2038.00, 
2039.00, 
2040.00, 
2041.00, 
2042.00, 
2043.00, 
2044.00, 
2045.00, 
2046.00, 
2047.00, 
2048.00, 
2049.00, 
2050.00, 
2051.00, 
2052.00, 
2053.00, 
2054.00, 
2055.00, 
2056.00, 
2057.00, 
2058.00, 
2059.00, 
2060.00, 
2061.00, 
2062.00, 
2063.00, 
2064.00, 
2065.00, 
2066.00, 
2067.00, 
2068.00, 
2069.00, 
2070.00, 
2071.00, 
2072.00, 
2073.00, 
2074.00, 
2075.00, 
2076.00, 
2077.00, 
2078.00, 
2079.00, 
2080.00, 
2081.00, 
2082.00, 
2083.00, 
2084.00, 
2085.00, 
2086.00, 
2087.00, 
2088.00, 
2089.00, 
2090.00, 
2091.00, 
2092.00, 
2093.00, 
2094.00, 
2095.00, 
2096.00, 
2097.00, 
2098.00, 
2099.00, 
2100.00, 
2101.00, 
2102.00, 
2103.00, 
2104.00, 
2105.00, 
2106.00, 
2107.00, 
2108.00, 
2109.00, 
2110.00, 
2111.00, 
2112.00, 
2113.00, 
2114.00, 
2115.00, 
2116.00, 
2117.00, 
2118.00, 
2119.00, 
2120.00, 
2121.00, 
2122.00, 
2123.00, 
2124.00, 
2125.00, 
2126.00, 
2127.00, 
2128.00, 
2129.00, 
2130.00, 
2131.00, 
2132.00, 
2133.00, 
2134.00, 
2135.00, 
2136.00, 
2137.00, 
2138.00, 
2139.00, 
2140.00, 
2141.00, 
2142.00, 
2143.00, 
2144.00, 
2145.00, 
2146.00, 
2147.00, 
2148.00, 
2149.00, 
2150.00, 
2151.00, 
2152.00, 
2153.00, 
2154.00, 
2155.00, 
2156.00, 
2157.00, 
2158.00, 
2159.00, 
2160.00, 
2161.00, 
2162.00, 
2163.00, 
2164.00, 
2165.00, 
2166.00, 
2167.00, 
2168.00, 
2169.00, 
2170.00, 
2171.00, 
2172.00, 
2173.00, 
2174.00, 
2175.00, 
2176.00, 
2177.00, 
2178.00, 
2179.00, 
2180.00, 
2181.00, 
2182.00, 
2183.00, 
2184.00, 
2185.00, 
2186.00, 
2187.00, 
2188.00, 
2189.00, 
2190.00, 
2191.00, 
2192.00, 
2193.00, 
2194.00, 
2195.00, 
2196.00, 
2197.00, 
2198.00, 
2199.00, 
2200.00, 
2201.00, 
2202.00, 
2203.00, 
2204.00, 
2205.00, 
2206.00, 
2207.00, 
2208.00, 
2209.00, 
2210.00, 
2211.00, 
2212.00, 
2213.00, 
2214.00, 
2215.00, 
2216.00, 
2217.00, 
2218.00, 
2219.00, 
2220.00, 
2221.00, 
2222.00, 
2223.00, 
2224.00, 
2225.00, 
2226.00, 
2227.00, 
2228.00, 
2229.00, 
2230.00, 
2231.00, 
2232.00, 
2233.00, 
2234.00, 
2235.00, 
2236.00, 
2237.00, 
2238.00, 
2239.00, 
2240.00, 
2241.00, 
2242.00, 
2243.00, 
2244.00, 
2245.00, 
2246.00, 
2247.00, 
2248.00, 
2249.00, 
2250.00, 
2251.00, 
2252.00, 
2253.00, 
2254.00, 
2255.00, 
2256.00, 
2257.00, 
2258.00, 
2259.00, 
2260.00, 
2261.00, 
2262.00, 
2263.00, 
2264.00, 
2265.00, 
2266.00, 
2267.00, 
2268.00, 
2269.00, 
2270.00, 
2271.00, 
2272.00, 
2273.00, 
2274.00, 
2275.00, 
2276.00, 
2277.00, 
2278.00, 
2279.00, 
2280.00, 
2281.00, 
2282.00, 
2283.00, 
2284.00, 
2285.00, 
2286.00, 
2287.00, 
2288.00, 
2289.00, 
2290.00, 
2291.00, 
2292.00, 
2293.00, 
2294.00, 
2295.00, 
2296.00, 
2297.00, 
2298.00, 
2299.00, 
2300.00, 
2301.00, 
2302.00, 
2303.00, 
2304.00, 
2305.00, 
2306.00, 
2307.00, 
2308.00, 
2309.00, 
2310.00, 
2311.00, 
2312.00, 
2313.00, 
2314.00, 
2315.00, 
2316.00, 
2317.00, 
2318.00, 
2319.00, 
2320.00, 
2321.00, 
2322.00, 
2323.00, 
2324.00, 
2325.00, 
2326.00, 
2327.00, 
2328.00, 
2329.00, 
2330.00, 
2331.00, 
2332.00, 
2333.00, 
2334.00, 
2335.00, 
2336.00, 
2337.00, 
2338.00, 
2339.00, 
2340.00, 
2341.00, 
2342.00, 
2343.00, 
2344.00, 
2345.00, 
2346.00, 
2347.00, 
2348.00, 
2349.00, 
2350.00, 
2351.00, 
2352.00, 
2353.00, 
2354.00, 
2355.00, 
2356.00, 
2357.00, 
2358.00, 
2359.00, 
2360.00, 
2361.00, 
2362.00, 
2363.00, 
2364.00, 
2365.00, 
2366.00, 
2367.00, 
2368.00, 
2369.00, 
2370.00, 
2371.00, 
2372.00, 
2373.00, 
2374.00, 
2375.00, 
2376.00, 
2377.00, 
2378.00, 
2379.00, 
2380.00, 
2381.00, 
2382.00, 
2383.00, 
2384.00, 
2385.00, 
2386.00, 
2387.00, 
2388.00, 
2389.00, 
2390.00, 
2391.00, 
2392.00, 
2393.00, 
2394.00, 
2395.00, 
2396.00, 
2397.00, 
2398.00, 
2399.00, 
2400.00, 
2401.00, 
2402.00, 
2403.00, 
2404.00, 
2405.00, 
2406.00, 
2407.00, 
2408.00, 
2409.00, 
2410.00, 
2411.00, 
2412.00, 
2413.00, 
2414.00, 
2415.00, 
2416.00, 
2417.00, 
2418.00, 
2419.00, 
2420.00, 
2421.00, 
2422.00, 
2423.00, 
2424.00, 
2425.00, 
2426.00, 
2427.00, 
2428.00, 
2429.00, 
2430.00, 
2431.00, 
2432.00, 
2433.00, 
2434.00, 
2435.00, 
2436.00, 
2437.00, 
2438.00, 
2439.00, 
2440.00, 
2441.00, 
2442.00, 
2443.00, 
2444.00, 
2445.00, 
2446.00, 
2447.00, 
2448.00, 
2449.00, 
2450.00, 
2451.00, 
2452.00, 
2453.00, 
2454.00, 
2455.00, 
2456.00, 
2457.00, 
2458.00, 
2459.00, 
2460.00, 
2461.00, 
2462.00, 
2463.00, 
2464.00, 
2465.00, 
2466.00, 
2467.00, 
2468.00, 
2469.00, 
2470.00, 
2471.00, 
2472.00, 
2473.00, 
2474.00, 
2475.00, 
2476.00, 
2477.00, 
2478.00, 
2479.00, 
2480.00, 
2481.00, 
2482.00, 
2483.00, 
2484.00, 
2485.00, 
2486.00, 
2487.00, 
2488.00, 
2489.00, 
2490.00, 
2491.00, 
2492.00, 
2493.00, 
2494.00, 
2495.00, 
2496.00, 
2497.00, 
2498.00, 
2499.00, 
2500.00, 
2501.00, 
2502.00, 
2503.00, 
2504.00, 
2505.00, 
2506.00, 
2507.00, 
2508.00, 
2509.00, 
2510.00, 
2511.00, 
2512.00, 
2513.00, 
2514.00, 
2515.00, 
2516.00, 
2517.00, 
2518.00, 
2519.00, 
2520.00, 
2521.00, 
2522.00, 
2523.00, 
2524.00, 
2525.00, 
2526.00, 
2527.00, 
2528.00, 
2529.00, 
2530.00, 
2531.00, 
2532.00, 
2533.00, 
2534.00, 
2535.00, 
2536.00, 
2537.00, 
2538.00, 
2539.00, 
2540.00, 
2541.00, 
2542.00, 
2543.00, 
2544.00, 
2545.00, 
2546.00, 
2547.00, 
2548.00, 
2549.00, 
2550.00, 
2551.00, 
2552.00, 
2553.00, 
2554.00, 
2555.00, 
2556.00, 
2557.00, 
2558.00, 
2559.00, 
2560.00, 
2561.00, 
2562.00, 
2563.00, 
2564.00, 
2565.00, 
2566.00, 
2567.00, 
2568.00, 
2569.00, 
2570.00, 
2571.00, 
2572.00, 
2573.00, 
2574.00, 
2575.00, 
2576.00, 
2577.00, 
2578.00, 
2579.00, 
2580.00, 
2581.00, 
2582.00, 
2583.00, 
2584.00, 
2585.00, 
2586.00, 
2587.00, 
2588.00, 
2589.00, 
2590.00, 
2591.00, 
2592.00, 
2593.00, 
2594.00, 
2595.00, 
2596.00, 
2597.00, 
2598.00, 
2599.00, 
2600.00, 
