"1cP2 - RawData"
"Wavelength nm.","T%"
200.00,0.005
201.00,0.003
202.00,0.000
203.00,0.006
204.00,0.001
205.00,-0.001
206.00,-0.000
207.00,0.002
208.00,0.002
209.00,0.002
210.00,-0.002
211.00,0.002
212.00,0.005
213.00,0.001
214.00,0.000
215.00,0.001
216.00,-0.001
217.00,0.003
218.00,0.001
219.00,0.000
220.00,0.002
221.00,0.003
222.00,0.001
223.00,-0.001
224.00,-0.000
225.00,0.000
226.00,0.001
227.00,0.001
228.00,-0.000
229.00,0.000
230.00,0.002
231.00,-0.000
232.00,0.000
233.00,0.000
234.00,0.002
235.00,0.000
236.00,-0.000
237.00,0.001
238.00,0.001
239.00,0.001
240.00,-0.002
241.00,0.001
242.00,0.001
243.00,-0.002
244.00,0.002
245.00,0.001
246.00,0.000
247.00,-0.000
248.00,0.002
249.00,0.001
250.00,0.001
251.00,0.000
252.00,0.001
253.00,-0.001
254.00,0.000
255.00,0.002
256.00,0.000
257.00,0.001
258.00,-0.000
259.00,0.000
260.00,-0.001
261.00,0.003
262.00,0.000
263.00,0.001
264.00,-0.001
265.00,0.000
266.00,0.002
267.00,-0.000
268.00,-0.001
269.00,0.000
270.00,0.001
271.00,0.000
272.00,0.000
273.00,0.002
274.00,0.000
275.00,0.001
276.00,0.000
277.00,0.002
278.00,-0.000
279.00,-0.002
280.00,-0.002
281.00,0.001
282.00,0.000
283.00,0.000
284.00,0.001
285.00,0.002
286.00,0.002
287.00,0.000
288.00,0.001
289.00,-0.000
290.00,0.001
291.00,-0.000
292.00,-0.002
293.00,0.002
294.00,0.002
295.00,-0.001
296.00,0.000
297.00,0.001
298.00,0.000
299.00,0.000
300.00,-0.001
301.00,0.000
302.00,0.001
303.00,0.000
304.00,0.004
305.00,0.002
306.00,0.002
307.00,0.006
308.00,0.005
309.00,0.010
310.00,0.016
311.00,0.022
312.00,0.032
313.00,0.057
314.00,0.086
315.00,0.124
316.00,0.176
317.00,0.243
318.00,0.336
319.00,0.457
320.00,0.601
321.00,0.787
322.00,1.005
323.00,1.260
324.00,1.557
325.00,1.872
326.00,2.233
327.00,2.650
328.00,3.080
329.00,3.543
330.00,4.078
331.00,4.625
332.00,5.186
333.00,5.804
334.00,6.306
335.00,7.017
336.00,7.618
337.00,8.254
338.00,8.920
339.00,9.536
340.00,10.144
341.00,10.799
342.00,11.364
343.00,11.942
344.00,12.540
345.00,13.040
346.00,13.515
347.00,13.973
348.00,14.442
349.00,14.848
350.00,15.264
351.00,15.641
352.00,15.942
353.00,16.311
354.00,16.621
355.00,16.900
356.00,17.194
357.00,17.380
358.00,17.615
359.00,17.891
360.00,18.119
361.00,18.217
362.00,18.410
363.00,18.569
364.00,18.618
365.00,18.681
366.00,18.777
367.00,18.845
368.00,18.883
369.00,18.953
370.00,19.014
371.00,18.955
372.00,18.906
373.00,18.968
374.00,18.906
375.00,18.816
376.00,18.725
377.00,18.670
378.00,18.535
379.00,18.428
380.00,18.398
381.00,18.372
382.00,18.341
383.00,18.306
384.00,18.343
385.00,18.395
386.00,18.385
387.00,18.459
388.00,18.474
389.00,18.498
390.00,18.489
391.00,18.491
392.00,18.523
393.00,18.504
394.00,18.500
395.00,18.518
396.00,18.488
397.00,18.496
398.00,18.489
399.00,18.490
400.00,18.434
401.00,18.400
402.00,18.464
403.00,18.461
404.00,18.361
405.00,18.352
406.00,18.335
407.00,18.239
408.00,18.241
409.00,18.143
410.00,18.084
411.00,18.074
412.00,18.029
413.00,18.036
414.00,17.960
415.00,17.969
416.00,17.985
417.00,17.896
418.00,17.957
419.00,17.994
420.00,18.042
421.00,17.967
422.00,17.938
423.00,17.937
424.00,17.978
425.00,17.973
426.00,17.994
427.00,18.069
428.00,18.067
429.00,18.108
430.00,18.114
431.00,18.168
432.00,18.179
433.00,18.216
434.00,18.264
435.00,18.328
436.00,18.353
437.00,18.387
438.00,18.439
439.00,18.486
440.00,18.566
441.00,18.618
442.00,18.695
443.00,18.742
444.00,18.828
445.00,18.890
446.00,18.966
447.00,19.048
448.00,19.129
449.00,19.204
450.00,19.313
451.00,19.386
452.00,19.477
453.00,19.603
454.00,19.684
455.00,19.776
456.00,19.893
457.00,19.988
458.00,20.065
459.00,20.164
460.00,20.319
461.00,20.436
462.00,20.517
463.00,20.639
464.00,20.759
465.00,20.877
466.00,21.034
467.00,21.107
468.00,21.172
469.00,21.314
470.00,21.448
471.00,21.402
472.00,21.640
473.00,21.705
474.00,21.842
475.00,21.967
476.00,22.045
477.00,22.195
478.00,22.310
479.00,22.483
480.00,22.611
481.00,22.750
482.00,22.885
483.00,23.027
484.00,23.201
485.00,23.342
486.00,23.478
487.00,23.635
488.00,23.733
489.00,23.915
490.00,24.041
491.00,24.205
492.00,24.324
493.00,24.567
494.00,24.723
495.00,24.753
496.00,24.849
497.00,24.979
498.00,25.132
499.00,25.263
500.00,25.417
501.00,25.535
502.00,25.686
503.00,25.823
504.00,25.878
505.00,26.011
506.00,26.142
507.00,26.263
508.00,26.376
509.00,26.561
510.00,26.654
511.00,26.765
512.00,26.962
513.00,27.110
514.00,27.233
515.00,27.347
516.00,27.460
517.00,27.559
518.00,27.696
519.00,27.776
520.00,27.867
521.00,27.981
522.00,28.091
523.00,28.148
524.00,28.277
525.00,28.401
526.00,28.512
527.00,28.578
528.00,28.666
529.00,28.870
530.00,29.003
531.00,29.071
532.00,29.194
533.00,29.277
534.00,29.387
535.00,29.518
536.00,29.531
537.00,29.594
538.00,29.674
539.00,29.847
540.00,29.901
541.00,30.010
542.00,30.070
543.00,30.109
544.00,30.258
545.00,30.307
546.00,30.372
547.00,30.510
548.00,30.593
549.00,30.648
550.00,30.735
551.00,30.876
552.00,30.948
553.00,30.982
554.00,31.028
555.00,31.081
556.00,31.213
557.00,31.252
558.00,31.312
559.00,31.426
560.00,31.505
561.00,31.558
562.00,31.618
563.00,31.665
564.00,31.736
565.00,31.756
566.00,31.798
567.00,31.899
568.00,31.904
569.00,31.963
570.00,32.003
571.00,31.986
572.00,32.107
573.00,32.110
574.00,32.163
575.00,32.180
576.00,32.207
577.00,32.282
578.00,32.378
579.00,32.460
580.00,32.491
581.00,32.667
582.00,32.694
583.00,32.728
584.00,32.833
585.00,32.880
586.00,32.972
587.00,32.983
588.00,33.042
589.00,33.018
590.00,33.138
591.00,33.157
592.00,33.100
593.00,33.193
594.00,33.315
595.00,33.401
596.00,33.421
597.00,33.491
598.00,33.559
599.00,33.567
600.00,33.744
601.00,33.751
602.00,33.740
603.00,33.772
604.00,33.779
605.00,33.894
606.00,33.964
607.00,34.002
608.00,34.034
609.00,34.161
610.00,34.313
611.00,34.171
612.00,34.237
613.00,34.269
614.00,34.327
615.00,34.418
616.00,34.538
617.00,34.542
618.00,34.566
619.00,34.614
620.00,34.642
621.00,34.716
622.00,34.825
623.00,34.858
624.00,34.945
625.00,35.097
626.00,35.108
627.00,35.135
628.00,35.199
629.00,35.266
630.00,35.258
631.00,35.352
632.00,35.488
633.00,35.594
634.00,35.632
635.00,35.730
636.00,35.820
637.00,35.880
638.00,35.949
639.00,36.056
640.00,36.123
641.00,36.150
642.00,36.197
643.00,36.340
644.00,36.377
645.00,36.500
646.00,36.665
647.00,36.732
648.00,36.796
649.00,36.875
650.00,36.897
651.00,37.053
652.00,37.187
653.00,37.181
654.00,37.283
655.00,37.514
656.00,37.766
657.00,37.765
658.00,37.855
659.00,37.801
660.00,37.938
661.00,37.930
662.00,38.046
663.00,38.188
664.00,38.361
665.00,38.672
666.00,38.616
667.00,38.657
668.00,38.773
669.00,38.931
670.00,39.155
671.00,39.066
672.00,39.232
673.00,39.379
674.00,39.448
675.00,39.524
676.00,39.745
677.00,39.887
678.00,39.651
679.00,39.929
680.00,40.036
681.00,40.246
682.00,40.272
683.00,40.265
684.00,40.462
685.00,40.584
686.00,40.487
687.00,40.653
688.00,40.889
689.00,41.003
690.00,41.227
691.00,41.461
692.00,41.213
693.00,41.261
694.00,41.556
695.00,41.793
696.00,41.762
697.00,41.741
698.00,41.871
699.00,42.069
700.00,42.243
701.00,42.287
702.00,42.384
703.00,42.672
704.00,42.651
705.00,42.591
706.00,42.669
707.00,42.774
708.00,42.769
709.00,43.144
710.00,43.574
711.00,43.059
712.00,43.216
713.00,43.388
714.00,43.443
715.00,43.448
716.00,43.440
717.00,43.719
718.00,43.915
719.00,43.846
720.00,44.063
721.00,48.485
722.00,48.584
723.00,48.561
724.00,48.592
725.00,48.544
726.00,48.634
727.00,48.732
728.00,48.722
729.00,48.759
730.00,48.911
731.00,48.925
732.00,48.971
733.00,49.030
734.00,49.008
735.00,49.135
736.00,49.147
737.00,49.185
738.00,49.301
739.00,49.336
740.00,49.368
741.00,49.394
742.00,49.572
743.00,49.542
744.00,49.480
745.00,49.524
746.00,49.526
747.00,49.544
748.00,49.558
749.00,49.610
750.00,49.631
751.00,49.612
752.00,49.761
753.00,49.741
754.00,49.706
755.00,49.756
756.00,49.767
757.00,49.840
758.00,49.771
759.00,49.787
760.00,49.809
761.00,49.895
762.00,49.894
763.00,50.033
764.00,49.896
765.00,49.998
766.00,50.026
767.00,50.063
768.00,50.021
769.00,50.109
770.00,50.203
771.00,50.133
772.00,50.120
773.00,50.171
774.00,50.207
775.00,50.235
776.00,50.215
777.00,50.283
778.00,50.228
779.00,50.371
780.00,50.267
781.00,50.282
782.00,50.240
783.00,50.300
784.00,50.365
785.00,50.292
786.00,50.393
787.00,50.303
788.00,50.290
789.00,50.328
790.00,50.323
791.00,50.414
792.00,50.205
793.00,50.334
794.00,50.351
795.00,50.238
796.00,50.321
797.00,50.246
798.00,50.260
799.00,50.198
800.00,50.254
801.00,50.271
802.00,50.208
803.00,50.266
804.00,50.230
805.00,50.218
806.00,50.264
807.00,50.220
808.00,50.223
809.00,50.271
810.00,50.200
811.00,50.180
812.00,50.181
813.00,50.162
814.00,50.193
815.00,50.166
816.00,50.104
817.00,50.094
818.00,50.085
819.00,50.207
820.00,50.115
821.00,50.163
822.00,50.075
823.00,50.137
824.00,50.029
825.00,49.961
826.00,50.001
827.00,50.069
828.00,50.065
829.00,50.008
830.00,50.000
831.00,52.499
832.00,52.475
833.00,52.398
834.00,52.409
835.00,52.409
836.00,52.393
837.00,52.411
838.00,52.382
839.00,52.377
840.00,52.340
841.00,52.374
842.00,52.318
843.00,52.302
844.00,52.303
845.00,52.225
846.00,52.283
847.00,52.217
848.00,52.240
849.00,52.152
850.00,52.171
851.00,52.093
852.00,52.124
853.00,52.103
854.00,52.067
855.00,52.024
856.00,52.026
857.00,52.007
858.00,51.889
859.00,51.960
860.00,51.927
861.00,51.979
862.00,51.909
863.00,51.916
864.00,51.904
865.00,51.923
866.00,51.891
867.00,51.865
868.00,51.857
869.00,51.853
870.00,51.874
871.00,51.831
872.00,51.862
873.00,51.822
874.00,51.856
875.00,51.792
876.00,51.845
877.00,51.808
878.00,51.832
879.00,51.780
880.00,51.764
881.00,51.723
882.00,51.797
883.00,51.683
884.00,51.661
885.00,51.653
886.00,51.661
887.00,51.627
888.00,51.625
889.00,51.604
890.00,51.555
891.00,51.614
892.00,51.520
893.00,51.518
894.00,51.506
895.00,51.479
896.00,51.447
897.00,51.459
898.00,51.434
899.00,51.410
900.00,51.404
901.00,51.401
902.00,51.401
903.00,51.358
904.00,51.352
905.00,51.337
906.00,51.349
907.00,51.315
908.00,51.265
909.00,51.275
910.00,51.233
911.00,51.244
912.00,51.208
913.00,51.185
914.00,51.185
915.00,51.149
916.00,51.120
917.00,51.124
918.00,51.128
919.00,51.082
920.00,51.023
921.00,51.036
922.00,51.017
923.00,51.012
924.00,50.970
925.00,50.966
926.00,50.955
927.00,50.960
928.00,50.914
929.00,50.954
930.00,50.896
931.00,50.885
932.00,50.841
933.00,50.852
934.00,50.817
935.00,50.789
936.00,50.766
937.00,50.775
938.00,50.754
939.00,50.732
940.00,50.724
941.00,50.717
942.00,50.669
943.00,50.661
944.00,50.649
945.00,50.628
946.00,50.603
947.00,50.528
948.00,50.562
949.00,50.552
950.00,50.534
951.00,50.470
952.00,50.493
953.00,50.432
954.00,50.438
955.00,50.395
956.00,50.403
957.00,50.354
958.00,50.360
959.00,50.303
960.00,50.303
961.00,50.317
962.00,50.305
963.00,50.251
964.00,50.246
965.00,50.243
966.00,50.226
967.00,50.234
968.00,50.187
969.00,50.230
970.00,50.197
971.00,50.220
972.00,50.173
973.00,50.208
974.00,50.233
975.00,50.197
976.00,50.209
977.00,50.191
978.00,50.233
979.00,50.196
980.00,50.201
981.00,50.217
982.00,50.174
983.00,50.213
984.00,50.163
985.00,50.194
986.00,50.166
987.00,50.180
988.00,50.135
989.00,50.116
990.00,50.132
991.00,50.104
992.00,50.116
993.00,50.094
994.00,50.082
995.00,50.066
996.00,50.042
997.00,50.039
998.00,50.013
999.00,50.028
1000.00,50.000
1001.00,49.978
1002.00,49.985
1003.00,49.963
1004.00,49.947
1005.00,49.920
1006.00,49.940
1007.00,49.927
1008.00,49.923
1009.00,49.894
1010.00,49.891
1011.00,49.884
1012.00,49.845
1013.00,49.868
1014.00,49.816
1015.00,49.825
1016.00,49.782
1017.00,49.769
1018.00,49.777
1019.00,49.725
1020.00,49.766
1021.00,49.735
1022.00,49.694
1023.00,49.644
1024.00,49.664
1025.00,49.641
1026.00,49.627
1027.00,49.604
1028.00,49.590
1029.00,49.575
1030.00,49.540
1031.00,49.563
1032.00,49.521
1033.00,49.523
1034.00,49.501
1035.00,49.479
1036.00,49.451
1037.00,49.442
1038.00,49.433
1039.00,49.394
1040.00,49.398
1041.00,49.343
1042.00,49.348
1043.00,49.324
1044.00,49.369
1045.00,49.354
1046.00,49.351
1047.00,49.378
1048.00,49.390
1049.00,49.397
1050.00,49.387
1051.00,49.445
1052.00,49.418
1053.00,49.424
1054.00,49.430
1055.00,49.445
1056.00,49.453
1057.00,49.440
1058.00,49.421
1059.00,49.432
1060.00,49.455
1061.00,49.410
1062.00,49.410
1063.00,49.413
1064.00,49.397
1065.00,49.374
1066.00,49.374
1067.00,49.382
1068.00,49.421
1069.00,49.363
1070.00,49.343
1071.00,49.338
1072.00,49.365
1073.00,49.352
1074.00,49.350
1075.00,49.325
1076.00,49.334
1077.00,49.316
1078.00,49.300
1079.00,49.301
1080.00,49.285
1081.00,49.270
1082.00,49.264
1083.00,49.245
1084.00,49.250
1085.00,49.250
1086.00,49.238
1087.00,49.240
1088.00,49.224
1089.00,49.229
1090.00,49.226
1091.00,49.218
1092.00,49.202
1093.00,49.197
1094.00,49.167
1095.00,49.162
1096.00,49.130
1097.00,49.135
1098.00,49.129
1099.00,49.122
1100.00,49.119
1101.00,49.130
1102.00,49.111
1103.00,49.132
1104.00,49.113
1105.00,49.085
1106.00,49.068
1107.00,49.079
1108.00,49.055
1109.00,49.039
1110.00,49.034
1111.00,49.038
1112.00,49.024
1113.00,49.016
1114.00,49.009
1115.00,49.008
1116.00,48.983
1117.00,48.989
1118.00,48.964
1119.00,48.975
1120.00,48.971
1121.00,48.965
1122.00,48.941
1123.00,48.947
1124.00,48.927
1125.00,48.944
1126.00,48.924
1127.00,48.928
1128.00,48.908
1129.00,48.912
1130.00,48.884
1131.00,48.907
1132.00,48.905
1133.00,48.912
1134.00,48.885
1135.00,48.868
1136.00,48.882
1137.00,48.892
1138.00,48.860
1139.00,48.869
1140.00,48.857
1141.00,48.854
1142.00,48.842
1143.00,48.876
1144.00,48.839
1145.00,48.848
1146.00,48.829
1147.00,48.836
1148.00,48.833
1149.00,48.832
1150.00,48.839
1151.00,48.842
1152.00,48.831
1153.00,48.828
1154.00,48.822
1155.00,48.831
1156.00,48.818
1157.00,48.833
1158.00,48.817
1159.00,48.836
1160.00,48.812
1161.00,48.815
1162.00,48.807
1163.00,48.790
1164.00,48.809
1165.00,48.795
1166.00,48.807
1167.00,48.780
1168.00,48.797
1169.00,48.799
1170.00,48.794
1171.00,48.764
1172.00,48.774
1173.00,48.766
1174.00,48.772
1175.00,48.765
1176.00,48.759
1177.00,48.757
1178.00,48.765
1179.00,48.771
1180.00,48.751
1181.00,48.775
1182.00,48.752
1183.00,48.765
1184.00,48.753
1185.00,48.753
1186.00,48.743
1187.00,48.757
1188.00,48.769
1189.00,48.774
1190.00,48.740
1191.00,48.736
1192.00,48.772
1193.00,48.741
1194.00,48.756
1195.00,48.736
1196.00,48.769
1197.00,48.766
1198.00,48.732
1199.00,48.750
1200.00,48.752
1201.00,48.754
1202.00,48.743
1203.00,48.736
1204.00,48.726
1205.00,48.750
1206.00,48.742
1207.00,48.728
1208.00,48.733
1209.00,48.746
1210.00,48.759
1211.00,48.758
1212.00,48.773
1213.00,48.737
1214.00,48.756
1215.00,48.730
1216.00,48.758
1217.00,48.742
1218.00,48.742
1219.00,48.776
1220.00,48.735
1221.00,48.768
1222.00,48.741
1223.00,48.753
1224.00,48.758
1225.00,48.747
1226.00,48.752
1227.00,48.756
1228.00,48.772
1229.00,48.758
1230.00,48.792
1231.00,48.782
1232.00,48.811
1233.00,48.812
1234.00,48.803
1235.00,48.819
1236.00,48.822
1237.00,48.818
1238.00,48.812
1239.00,48.831
1240.00,48.805
1241.00,48.824
1242.00,48.820
1243.00,48.827
1244.00,48.815
1245.00,48.841
1246.00,48.868
1247.00,48.838
1248.00,48.854
1249.00,48.886
1250.00,48.869
1251.00,48.847
1252.00,48.873
1253.00,48.853
1254.00,48.888
1255.00,48.875
1256.00,48.857
1257.00,48.848
1258.00,48.895
1259.00,48.889
1260.00,48.939
1261.00,48.919
1262.00,48.894
1263.00,48.902
1264.00,48.912
1265.00,48.920
1266.00,48.942
1267.00,48.971
1268.00,48.955
1269.00,48.965
1270.00,48.969
1271.00,48.974
1272.00,48.971
1273.00,48.980
1274.00,48.978
1275.00,48.986
1276.00,48.979
1277.00,48.992
1278.00,48.994
1279.00,49.019
1280.00,49.005
1281.00,49.031
1282.00,49.055
1283.00,49.043
1284.00,49.042
1285.00,49.034
1286.00,49.052
1287.00,49.045
1288.00,49.050
1289.00,49.035
1290.00,49.075
1291.00,49.062
1292.00,49.054
1293.00,49.072
1294.00,49.085
1295.00,49.086
1296.00,49.100
1297.00,49.109
1298.00,49.150
1299.00,49.112
1300.00,49.132
1301.00,49.114
1302.00,49.142
1303.00,49.122
1304.00,49.112
1305.00,49.153
1306.00,49.149
1307.00,49.176
1308.00,49.176
1309.00,49.194
1310.00,49.187
1311.00,49.167
1312.00,49.185
1313.00,49.208
1314.00,49.212
1315.00,49.228
1316.00,49.232
1317.00,49.261
1318.00,49.256
1319.00,49.259
1320.00,49.248
1321.00,49.439
1322.00,49.418
1323.00,49.408
1324.00,49.406
1325.00,49.395
1326.00,49.413
1327.00,49.412
1328.00,49.393
1329.00,49.389
1330.00,49.408
1331.00,49.403
1332.00,49.416
1333.00,49.436
1334.00,49.463
1335.00,49.477
1336.00,49.508
1337.00,49.530
1338.00,49.595
1339.00,49.642
1340.00,49.710
1341.00,49.786
1342.00,49.828
1343.00,49.868
1344.00,49.911
1345.00,49.963
1346.00,50.010
1347.00,50.009
1348.00,50.043
1349.00,50.075
1350.00,50.090
1351.00,50.116
1352.00,50.122
1353.00,50.136
1354.00,50.168
1355.00,50.143
1356.00,50.212
1357.00,50.144
1358.00,50.208
1359.00,50.152
1360.00,50.161
1361.00,49.801
1362.00,50.162
1363.00,50.290
1364.00,50.274
1365.00,50.197
1366.00,50.274
1367.00,50.207
1368.00,50.136
1369.00,50.224
1370.00,50.193
1371.00,50.099
1372.00,50.143
1373.00,50.176
1374.00,50.194
1375.00,50.181
1376.00,50.174
1377.00,50.142
1378.00,50.193
1379.00,50.243
1380.00,50.255
1381.00,50.398
1382.00,50.144
1383.00,50.218
1384.00,50.174
1385.00,50.174
1386.00,50.278
1387.00,50.224
1388.00,50.148
1389.00,50.234
1390.00,50.236
1391.00,50.195
1392.00,50.186
1393.00,50.156
1394.00,50.179
1395.00,50.178
1396.00,50.097
1397.00,50.145
1398.00,50.217
1399.00,50.201
1400.00,50.134
1401.00,50.198
1402.00,50.198
1403.00,50.230
1404.00,50.255
1405.00,50.229
1406.00,50.264
1407.00,50.242
1408.00,50.261
1409.00,50.224
1410.00,50.267
1411.00,50.256
1412.00,50.321
1413.00,50.266
1414.00,50.239
1415.00,50.293
1416.00,50.314
1417.00,50.369
1418.00,50.324
1419.00,50.332
1420.00,50.352
1421.00,50.426
1422.00,50.401
1423.00,50.434
1424.00,50.429
1425.00,50.466
1426.00,50.473
1427.00,50.478
1428.00,50.467
1429.00,50.472
1430.00,50.517
1431.00,50.522
1432.00,50.540
1433.00,50.567
1434.00,50.541
1435.00,50.614
1436.00,50.627
1437.00,50.626
1438.00,50.634
1439.00,50.671
1440.00,50.699
1441.00,50.699
1442.00,50.738
1443.00,50.750
1444.00,50.802
1445.00,50.745
1446.00,50.776
1447.00,50.821
1448.00,50.880
1449.00,50.842
1450.00,50.866
1451.00,50.877
1452.00,50.904
1453.00,50.884
1454.00,50.923
1455.00,50.938
1456.00,50.965
1457.00,50.972
1458.00,51.002
1459.00,51.013
1460.00,51.043
1461.00,51.062
1462.00,51.091
1463.00,51.085
1464.00,51.128
1465.00,51.111
1466.00,51.109
1467.00,51.128
1468.00,51.187
1469.00,51.156
1470.00,51.188
1471.00,51.192
1472.00,51.207
1473.00,51.232
1474.00,51.256
1475.00,51.283
1476.00,51.291
1477.00,51.270
1478.00,51.310
1479.00,51.327
1480.00,51.326
1481.00,51.339
1482.00,51.374
1483.00,51.391
1484.00,51.411
1485.00,51.405
1486.00,51.435
1487.00,51.461
1488.00,51.483
1489.00,51.472
1490.00,51.500
1491.00,51.507
1492.00,51.542
1493.00,51.505
1494.00,51.553
1495.00,51.539
1496.00,51.569
1497.00,51.561
1498.00,51.580
1499.00,51.603
1500.00,51.610
1501.00, 
1502.00, 
1503.00, 
1504.00, 
1505.00, 
1506.00, 
1507.00, 
1508.00, 
1509.00, 
1510.00, 
1511.00, 
1512.00, 
1513.00, 
1514.00, 
1515.00, 
1516.00, 
1517.00, 
1518.00, 
1519.00, 
1520.00, 
1521.00, 
1522.00, 
1523.00, 
1524.00, 
1525.00, 
1526.00, 
1527.00, 
1528.00, 
1529.00, 
1530.00, 
1531.00, 
1532.00, 
1533.00, 
1534.00, 
1535.00, 
1536.00, 
1537.00, 
1538.00, 
1539.00, 
1540.00, 
1541.00, 
1542.00, 
1543.00, 
1544.00, 
1545.00, 
1546.00, 
1547.00, 
1548.00, 
1549.00, 
1550.00, 
1551.00, 
1552.00, 
1553.00, 
1554.00, 
1555.00, 
1556.00, 
1557.00, 
1558.00, 
1559.00, 
1560.00, 
1561.00, 
1562.00, 
1563.00, 
1564.00, 
1565.00, 
1566.00, 
1567.00, 
1568.00, 
1569.00, 
1570.00, 
1571.00, 
1572.00, 
1573.00, 
1574.00, 
1575.00, 
1576.00, 
1577.00, 
1578.00, 
1579.00, 
1580.00, 
1581.00, 
1582.00, 
1583.00, 
1584.00, 
1585.00, 
1586.00, 
1587.00, 
1588.00, 
1589.00, 
1590.00, 
1591.00, 
1592.00, 
1593.00, 
1594.00, 
1595.00, 
1596.00, 
1597.00, 
1598.00, 
1599.00, 
1600.00, 
1601.00, 
1602.00, 
1603.00, 
1604.00, 
1605.00, 
1606.00, 
1607.00, 
1608.00, 
1609.00, 
1610.00, 
1611.00, 
1612.00, 
1613.00, 
1614.00, 
1615.00, 
1616.00, 
1617.00, 
1618.00, 
1619.00, 
1620.00, 
1621.00, 
1622.00, 
1623.00, 
1624.00, 
1625.00, 
1626.00, 
1627.00, 
1628.00, 
1629.00, 
1630.00, 
1631.00, 
1632.00, 
1633.00, 
1634.00, 
1635.00, 
1636.00, 
1637.00, 
1638.00, 
1639.00, 
1640.00, 
1641.00, 
1642.00, 
1643.00, 
1644.00, 
1645.00, 
1646.00, 
1647.00, 
1648.00, 
1649.00, 
1650.00, 
1651.00, 
1652.00, 
1653.00, 
1654.00, 
1655.00, 
1656.00, 
1657.00, 
1658.00, 
1659.00, 
1660.00, 
1661.00, 
1662.00, 
1663.00, 
1664.00, 
1665.00, 
1666.00, 
1667.00, 
1668.00, 
1669.00, 
1670.00, 
1671.00, 
1672.00, 
1673.00, 
1674.00, 
1675.00, 
1676.00, 
1677.00, 
1678.00, 
1679.00, 
1680.00, 
1681.00, 
1682.00, 
1683.00, 
1684.00, 
1685.00, 
1686.00, 
1687.00, 
1688.00, 
1689.00, 
1690.00, 
1691.00, 
1692.00, 
1693.00, 
1694.00, 
1695.00, 
1696.00, 
1697.00, 
1698.00, 
1699.00, 
1700.00, 
1701.00, 
1702.00, 
1703.00, 
1704.00, 
1705.00, 
1706.00, 
1707.00, 
1708.00, 
1709.00, 
1710.00, 
1711.00, 
1712.00, 
1713.00, 
1714.00, 
1715.00, 
1716.00, 
1717.00, 
1718.00, 
1719.00, 
1720.00, 
1721.00, 
1722.00, 
1723.00, 
1724.00, 
1725.00, 
1726.00, 
1727.00, 
1728.00, 
1729.00, 
1730.00, 
1731.00, 
1732.00, 
1733.00, 
1734.00, 
1735.00, 
1736.00, 
1737.00, 
1738.00, 
1739.00, 
1740.00, 
1741.00, 
1742.00, 
1743.00, 
1744.00, 
1745.00, 
1746.00, 
1747.00, 
1748.00, 
1749.00, 
1750.00, 
1751.00, 
1752.00, 
1753.00, 
1754.00, 
1755.00, 
1756.00, 
1757.00, 
1758.00, 
1759.00, 
1760.00, 
1761.00, 
1762.00, 
1763.00, 
1764.00, 
1765.00, 
1766.00, 
1767.00, 
1768.00, 
1769.00, 
1770.00, 
1771.00, 
1772.00, 
1773.00, 
1774.00, 
1775.00, 
1776.00, 
1777.00, 
1778.00, 
1779.00, 
1780.00, 
1781.00, 
1782.00, 
1783.00, 
1784.00, 
1785.00, 
1786.00, 
1787.00, 
1788.00, 
1789.00, 
1790.00, 
1791.00, 
1792.00, 
1793.00, 
1794.00, 
1795.00, 
1796.00, 
1797.00, 
1798.00, 
1799.00, 
1800.00, 
1801.00, 
1802.00, 
1803.00, 
1804.00, 
1805.00, 
1806.00, 
1807.00, 
1808.00, 
1809.00, 
1810.00, 
1811.00, 
1812.00, 
1813.00, 
1814.00, 
1815.00, 
1816.00, 
1817.00, 
1818.00, 
1819.00, 
1820.00, 
1821.00, 
1822.00, 
1823.00, 
1824.00, 
1825.00, 
1826.00, 
1827.00, 
1828.00, 
1829.00, 
1830.00, 
1831.00, 
1832.00, 
1833.00, 
1834.00, 
1835.00, 
1836.00, 
1837.00, 
1838.00, 
1839.00, 
1840.00, 
1841.00, 
1842.00, 
1843.00, 
1844.00, 
1845.00, 
1846.00, 
1847.00, 
1848.00, 
1849.00, 
1850.00, 
1851.00, 
1852.00, 
1853.00, 
1854.00, 
1855.00, 
1856.00, 
1857.00, 
1858.00, 
1859.00, 
1860.00, 
1861.00, 
1862.00, 
1863.00, 
1864.00, 
1865.00, 
1866.00, 
1867.00, 
1868.00, 
1869.00, 
1870.00, 
1871.00, 
1872.00, 
1873.00, 
1874.00, 
1875.00, 
1876.00, 
1877.00, 
1878.00, 
1879.00, 
1880.00, 
1881.00, 
1882.00, 
1883.00, 
1884.00, 
1885.00, 
1886.00, 
1887.00, 
1888.00, 
1889.00, 
1890.00, 
1891.00, 
1892.00, 
1893.00, 
1894.00, 
1895.00, 
1896.00, 
1897.00, 
1898.00, 
1899.00, 
1900.00, 
1901.00, 
1902.00, 
1903.00, 
1904.00, 
1905.00, 
1906.00, 
1907.00, 
1908.00, 
1909.00, 
1910.00, 
1911.00, 
1912.00, 
1913.00, 
1914.00, 
1915.00, 
1916.00, 
1917.00, 
1918.00, 
1919.00, 
1920.00, 
1921.00, 
1922.00, 
1923.00, 
1924.00, 
1925.00, 
1926.00, 
1927.00, 
1928.00, 
1929.00, 
1930.00, 
1931.00, 
1932.00, 
1933.00, 
1934.00, 
1935.00, 
1936.00, 
1937.00, 
1938.00, 
1939.00, 
1940.00, 
1941.00, 
1942.00, 
1943.00, 
1944.00, 
1945.00, 
1946.00, 
1947.00, 
1948.00, 
1949.00, 
1950.00, 
1951.00, 
1952.00, 
1953.00, 
1954.00, 
1955.00, 
1956.00, 
1957.00, 
1958.00, 
1959.00, 
1960.00, 
1961.00, 
1962.00, 
1963.00, 
1964.00, 
1965.00, 
1966.00, 
1967.00, 
1968.00, 
1969.00, 
1970.00, 
1971.00, 
1972.00, 
1973.00, 
1974.00, 
1975.00, 
1976.00, 
1977.00, 
1978.00, 
1979.00, 
1980.00, 
1981.00, 
1982.00, 
1983.00, 
1984.00, 
1985.00, 
1986.00, 
1987.00, 
1988.00, 
1989.00, 
1990.00, 
1991.00, 
1992.00, 
1993.00, 
1994.00, 
1995.00, 
1996.00, 
1997.00, 
1998.00, 
1999.00, 
2000.00, 
2001.00, 
2002.00, 
2003.00, 
2004.00, 
2005.00, 
2006.00, 
2007.00, 
2008.00, 
2009.00, 
2010.00, 
2011.00, 
2012.00, 
2013.00, 
2014.00, 
2015.00, 
2016.00, 
2017.00, 
2018.00, 
2019.00, 
2020.00, 
2021.00, 
2022.00, 
2023.00, 
2024.00, 
2025.00, 
2026.00, 
2027.00, 
2028.00, 
2029.00, 
2030.00, 
2031.00, 
2032.00, 
2033.00, 
2034.00, 
2035.00, 
2036.00, 
2037.00, 
2038.00, 
2039.00, 
2040.00, 
2041.00, 
2042.00, 
2043.00, 
2044.00, 
2045.00, 
2046.00, 
2047.00, 
2048.00, 
2049.00, 
2050.00, 
2051.00, 
2052.00, 
2053.00, 
2054.00, 
2055.00, 
2056.00, 
2057.00, 
2058.00, 
2059.00, 
2060.00, 
2061.00, 
2062.00, 
2063.00, 
2064.00, 
2065.00, 
2066.00, 
2067.00, 
2068.00, 
2069.00, 
2070.00, 
2071.00, 
2072.00, 
2073.00, 
2074.00, 
2075.00, 
2076.00, 
2077.00, 
2078.00, 
2079.00, 
2080.00, 
2081.00, 
2082.00, 
2083.00, 
2084.00, 
2085.00, 
2086.00, 
2087.00, 
2088.00, 
2089.00, 
2090.00, 
2091.00, 
2092.00, 
2093.00, 
2094.00, 
2095.00, 
2096.00, 
2097.00, 
2098.00, 
2099.00, 
2100.00, 
2101.00, 
2102.00, 
2103.00, 
2104.00, 
2105.00, 
2106.00, 
2107.00, 
2108.00, 
2109.00, 
2110.00, 
2111.00, 
2112.00, 
2113.00, 
2114.00, 
2115.00, 
2116.00, 
2117.00, 
2118.00, 
2119.00, 
2120.00, 
2121.00, 
2122.00, 
2123.00, 
2124.00, 
2125.00, 
2126.00, 
2127.00, 
2128.00, 
2129.00, 
2130.00, 
2131.00, 
2132.00, 
2133.00, 
2134.00, 
2135.00, 
2136.00, 
2137.00, 
2138.00, 
2139.00, 
2140.00, 
2141.00, 
2142.00, 
2143.00, 
2144.00, 
2145.00, 
2146.00, 
2147.00, 
2148.00, 
2149.00, 
2150.00, 
2151.00, 
2152.00, 
2153.00, 
2154.00, 
2155.00, 
2156.00, 
2157.00, 
2158.00, 
2159.00, 
2160.00, 
2161.00, 
2162.00, 
2163.00, 
2164.00, 
2165.00, 
2166.00, 
2167.00, 
2168.00, 
2169.00, 
2170.00, 
2171.00, 
2172.00, 
2173.00, 
2174.00, 
2175.00, 
2176.00, 
2177.00, 
2178.00, 
2179.00, 
2180.00, 
2181.00, 
2182.00, 
2183.00, 
2184.00, 
2185.00, 
2186.00, 
2187.00, 
2188.00, 
2189.00, 
2190.00, 
2191.00, 
2192.00, 
2193.00, 
2194.00, 
2195.00, 
2196.00, 
2197.00, 
2198.00, 
2199.00, 
2200.00, 
2201.00, 
2202.00, 
2203.00, 
2204.00, 
2205.00, 
2206.00, 
2207.00, 
2208.00, 
2209.00, 
2210.00, 
2211.00, 
2212.00, 
2213.00, 
2214.00, 
2215.00, 
2216.00, 
2217.00, 
2218.00, 
2219.00, 
2220.00, 
2221.00, 
2222.00, 
2223.00, 
2224.00, 
2225.00, 
2226.00, 
2227.00, 
2228.00, 
2229.00, 
2230.00, 
2231.00, 
2232.00, 
2233.00, 
2234.00, 
2235.00, 
2236.00, 
2237.00, 
2238.00, 
2239.00, 
2240.00, 
2241.00, 
2242.00, 
2243.00, 
2244.00, 
2245.00, 
2246.00, 
2247.00, 
2248.00, 
2249.00, 
2250.00, 
2251.00, 
2252.00, 
2253.00, 
2254.00, 
2255.00, 
2256.00, 
2257.00, 
2258.00, 
2259.00, 
2260.00, 
2261.00, 
2262.00, 
2263.00, 
2264.00, 
2265.00, 
2266.00, 
2267.00, 
2268.00, 
2269.00, 
2270.00, 
2271.00, 
2272.00, 
2273.00, 
2274.00, 
2275.00, 
2276.00, 
2277.00, 
2278.00, 
2279.00, 
2280.00, 
2281.00, 
2282.00, 
2283.00, 
2284.00, 
2285.00, 
2286.00, 
2287.00, 
2288.00, 
2289.00, 
2290.00, 
2291.00, 
2292.00, 
2293.00, 
2294.00, 
2295.00, 
2296.00, 
2297.00, 
2298.00, 
2299.00, 
2300.00, 
2301.00, 
2302.00, 
2303.00, 
2304.00, 
2305.00, 
2306.00, 
2307.00, 
2308.00, 
2309.00, 
2310.00, 
2311.00, 
2312.00, 
2313.00, 
2314.00, 
2315.00, 
2316.00, 
2317.00, 
2318.00, 
2319.00, 
2320.00, 
2321.00, 
2322.00, 
2323.00, 
2324.00, 
2325.00, 
2326.00, 
2327.00, 
2328.00, 
2329.00, 
2330.00, 
2331.00, 
2332.00, 
2333.00, 
2334.00, 
2335.00, 
2336.00, 
2337.00, 
2338.00, 
2339.00, 
2340.00, 
2341.00, 
2342.00, 
2343.00, 
2344.00, 
2345.00, 
2346.00, 
2347.00, 
2348.00, 
2349.00, 
2350.00, 
2351.00, 
2352.00, 
2353.00, 
2354.00, 
2355.00, 
2356.00, 
2357.00, 
2358.00, 
2359.00, 
2360.00, 
2361.00, 
2362.00, 
2363.00, 
2364.00, 
2365.00, 
2366.00, 
2367.00, 
2368.00, 
2369.00, 
2370.00, 
2371.00, 
2372.00, 
2373.00, 
2374.00, 
2375.00, 
2376.00, 
2377.00, 
2378.00, 
2379.00, 
2380.00, 
2381.00, 
2382.00, 
2383.00, 
2384.00, 
2385.00, 
2386.00, 
2387.00, 
2388.00, 
2389.00, 
2390.00, 
2391.00, 
2392.00, 
2393.00, 
2394.00, 
2395.00, 
2396.00, 
2397.00, 
2398.00, 
2399.00, 
2400.00, 
2401.00, 
2402.00, 
2403.00, 
2404.00, 
2405.00, 
2406.00, 
2407.00, 
2408.00, 
2409.00, 
2410.00, 
2411.00, 
2412.00, 
2413.00, 
2414.00, 
2415.00, 
2416.00, 
2417.00, 
2418.00, 
2419.00, 
2420.00, 
2421.00, 
2422.00, 
2423.00, 
2424.00, 
2425.00, 
2426.00, 
2427.00, 
2428.00, 
2429.00, 
2430.00, 
2431.00, 
2432.00, 
2433.00, 
2434.00, 
2435.00, 
2436.00, 
2437.00, 
2438.00, 
2439.00, 
2440.00, 
2441.00, 
2442.00, 
2443.00, 
2444.00, 
2445.00, 
2446.00, 
2447.00, 
2448.00, 
2449.00, 
2450.00, 
2451.00, 
2452.00, 
2453.00, 
2454.00, 
2455.00, 
2456.00, 
2457.00, 
2458.00, 
2459.00, 
2460.00, 
2461.00, 
2462.00, 
2463.00, 
2464.00, 
2465.00, 
2466.00, 
2467.00, 
2468.00, 
2469.00, 
2470.00, 
2471.00, 
2472.00, 
2473.00, 
2474.00, 
2475.00, 
2476.00, 
2477.00, 
2478.00, 
2479.00, 
2480.00, 
2481.00, 
2482.00, 
2483.00, 
2484.00, 
2485.00, 
2486.00, 
2487.00, 
2488.00, 
2489.00, 
2490.00, 
2491.00, 
2492.00, 
2493.00, 
2494.00, 
2495.00, 
2496.00, 
2497.00, 
2498.00, 
2499.00, 
2500.00, 
2501.00, 
2502.00, 
2503.00, 
2504.00, 
2505.00, 
2506.00, 
2507.00, 
2508.00, 
2509.00, 
2510.00, 
2511.00, 
2512.00, 
2513.00, 
2514.00, 
2515.00, 
2516.00, 
2517.00, 
2518.00, 
2519.00, 
2520.00, 
2521.00, 
2522.00, 
2523.00, 
2524.00, 
2525.00, 
2526.00, 
2527.00, 
2528.00, 
2529.00, 
2530.00, 
2531.00, 
2532.00, 
2533.00, 
2534.00, 
2535.00, 
2536.00, 
2537.00, 
2538.00, 
2539.00, 
2540.00, 
2541.00, 
2542.00, 
2543.00, 
2544.00, 
2545.00, 
2546.00, 
2547.00, 
2548.00, 
2549.00, 
2550.00, 
2551.00, 
2552.00, 
2553.00, 
2554.00, 
2555.00, 
2556.00, 
2557.00, 
2558.00, 
2559.00, 
2560.00, 
2561.00, 
2562.00, 
2563.00, 
2564.00, 
2565.00, 
2566.00, 
2567.00, 
2568.00, 
2569.00, 
2570.00, 
2571.00, 
2572.00, 
2573.00, 
2574.00, 
2575.00, 
2576.00, 
2577.00, 
2578.00, 
2579.00, 
2580.00, 
2581.00, 
2582.00, 
2583.00, 
2584.00, 
2585.00, 
2586.00, 
2587.00, 
2588.00, 
2589.00, 
2590.00, 
2591.00, 
2592.00, 
2593.00, 
2594.00, 
2595.00, 
2596.00, 
2597.00, 
2598.00, 
2599.00, 
2600.00, 
