"1cP3 - RawData"
"Wavelength nm.","T%"
200.00,-0.001
201.00,-0.001
202.00,-0.001
203.00,0.003
204.00,-0.001
205.00,0.001
206.00,0.002
207.00,0.003
208.00,0.003
209.00,0.001
210.00,-0.000
211.00,0.001
212.00,-0.000
213.00,0.000
214.00,-0.001
215.00,0.001
216.00,0.001
217.00,-0.000
218.00,0.002
219.00,0.000
220.00,0.001
221.00,0.001
222.00,0.000
223.00,-0.002
224.00,0.001
225.00,0.002
226.00,-0.000
227.00,0.001
228.00,-0.001
229.00,0.001
230.00,0.002
231.00,-0.000
232.00,0.001
233.00,0.002
234.00,0.002
235.00,0.000
236.00,0.001
237.00,0.002
238.00,-0.002
239.00,-0.001
240.00,0.002
241.00,0.001
242.00,0.002
243.00,0.001
244.00,0.001
245.00,-0.002
246.00,0.002
247.00,0.001
248.00,0.001
249.00,-0.001
250.00,-0.000
251.00,0.000
252.00,0.001
253.00,0.001
254.00,-0.001
255.00,0.000
256.00,0.000
257.00,0.000
258.00,0.001
259.00,0.001
260.00,0.002
261.00,0.000
262.00,0.000
263.00,-0.000
264.00,0.002
265.00,-0.001
266.00,-0.000
267.00,0.001
268.00,-0.000
269.00,0.000
270.00,0.001
271.00,0.001
272.00,-0.001
273.00,0.000
274.00,0.001
275.00,0.000
276.00,0.000
277.00,0.001
278.00,-0.000
279.00,0.000
280.00,0.002
281.00,0.001
282.00,0.001
283.00,0.001
284.00,0.001
285.00,0.001
286.00,0.000
287.00,0.000
288.00,-0.000
289.00,0.001
290.00,0.001
291.00,0.000
292.00,-0.002
293.00,0.001
294.00,0.001
295.00,-0.000
296.00,0.000
297.00,-0.001
298.00,-0.001
299.00,0.001
300.00,0.000
301.00,0.001
302.00,-0.000
303.00,-0.000
304.00,0.002
305.00,0.001
306.00,0.001
307.00,0.005
308.00,0.005
309.00,0.008
310.00,0.012
311.00,0.021
312.00,0.028
313.00,0.045
314.00,0.071
315.00,0.103
316.00,0.141
317.00,0.195
318.00,0.271
319.00,0.366
320.00,0.487
321.00,0.631
322.00,0.792
323.00,1.005
324.00,1.235
325.00,1.480
326.00,1.761
327.00,2.082
328.00,2.449
329.00,2.767
330.00,3.204
331.00,3.630
332.00,4.077
333.00,4.541
334.00,4.995
335.00,5.495
336.00,5.963
337.00,6.470
338.00,6.980
339.00,7.424
340.00,7.899
341.00,8.384
342.00,8.840
343.00,9.269
344.00,9.741
345.00,10.123
346.00,10.472
347.00,10.808
348.00,11.166
349.00,11.478
350.00,11.795
351.00,12.069
352.00,12.305
353.00,12.562
354.00,12.784
355.00,13.012
356.00,13.216
357.00,13.351
358.00,13.564
359.00,13.723
360.00,13.889
361.00,13.932
362.00,14.076
363.00,14.183
364.00,14.206
365.00,14.291
366.00,14.341
367.00,14.386
368.00,14.404
369.00,14.426
370.00,14.454
371.00,14.443
372.00,14.397
373.00,14.408
374.00,14.356
375.00,14.277
376.00,14.223
377.00,14.147
378.00,14.038
379.00,13.987
380.00,13.886
381.00,13.923
382.00,13.891
383.00,13.881
384.00,13.881
385.00,13.916
386.00,13.885
387.00,13.940
388.00,13.963
389.00,13.947
390.00,13.964
391.00,13.962
392.00,13.982
393.00,13.934
394.00,13.968
395.00,13.963
396.00,13.950
397.00,13.947
398.00,13.957
399.00,13.943
400.00,13.912
401.00,13.886
402.00,13.924
403.00,13.922
404.00,13.875
405.00,13.845
406.00,13.818
407.00,13.784
408.00,13.776
409.00,13.714
410.00,13.659
411.00,13.679
412.00,13.642
413.00,13.644
414.00,13.619
415.00,13.623
416.00,13.643
417.00,13.601
418.00,13.622
419.00,13.690
420.00,13.723
421.00,13.659
422.00,13.654
423.00,13.687
424.00,13.703
425.00,13.744
426.00,13.740
427.00,13.793
428.00,13.813
429.00,13.826
430.00,13.865
431.00,13.936
432.00,13.941
433.00,13.998
434.00,14.052
435.00,14.090
436.00,14.146
437.00,14.182
438.00,14.235
439.00,14.306
440.00,14.347
441.00,14.407
442.00,14.488
443.00,14.538
444.00,14.622
445.00,14.708
446.00,14.771
447.00,14.864
448.00,14.926
449.00,15.045
450.00,15.112
451.00,15.208
452.00,15.298
453.00,15.416
454.00,15.504
455.00,15.589
456.00,15.703
457.00,15.811
458.00,15.878
459.00,16.002
460.00,16.133
461.00,16.250
462.00,16.346
463.00,16.487
464.00,16.597
465.00,16.700
466.00,16.879
467.00,16.975
468.00,17.042
469.00,17.172
470.00,17.263
471.00,17.351
472.00,17.488
473.00,17.586
474.00,17.681
475.00,17.820
476.00,17.902
477.00,18.068
478.00,18.187
479.00,18.295
480.00,18.476
481.00,18.582
482.00,18.747
483.00,18.915
484.00,19.040
485.00,19.216
486.00,19.346
487.00,19.494
488.00,19.636
489.00,19.768
490.00,19.953
491.00,20.088
492.00,20.205
493.00,20.438
494.00,20.600
495.00,20.600
496.00,20.728
497.00,20.865
498.00,20.985
499.00,21.157
500.00,21.305
501.00,21.390
502.00,21.594
503.00,21.715
504.00,21.770
505.00,21.912
506.00,22.054
507.00,22.156
508.00,22.292
509.00,22.475
510.00,22.609
511.00,22.692
512.00,22.867
513.00,23.025
514.00,23.138
515.00,23.273
516.00,23.403
517.00,23.485
518.00,23.632
519.00,23.709
520.00,23.849
521.00,23.987
522.00,24.095
523.00,24.158
524.00,24.253
525.00,24.421
526.00,24.556
527.00,24.648
528.00,24.738
529.00,24.912
530.00,25.070
531.00,25.153
532.00,25.267
533.00,25.383
534.00,25.491
535.00,25.554
536.00,25.641
537.00,25.743
538.00,25.830
539.00,25.898
540.00,26.012
541.00,26.073
542.00,26.159
543.00,26.233
544.00,26.376
545.00,26.438
546.00,26.460
547.00,26.592
548.00,26.702
549.00,26.756
550.00,26.829
551.00,26.973
552.00,27.062
553.00,27.089
554.00,27.174
555.00,27.220
556.00,27.359
557.00,27.396
558.00,27.467
559.00,27.588
560.00,27.623
561.00,27.750
562.00,27.838
563.00,27.832
564.00,27.900
565.00,27.980
566.00,27.979
567.00,28.053
568.00,28.118
569.00,28.190
570.00,28.218
571.00,28.283
572.00,28.352
573.00,28.347
574.00,28.381
575.00,28.433
576.00,28.474
577.00,28.518
578.00,28.658
579.00,28.688
580.00,28.663
581.00,28.927
582.00,28.939
583.00,28.964
584.00,29.104
585.00,29.170
586.00,29.194
587.00,29.257
588.00,29.322
589.00,29.310
590.00,29.366
591.00,29.457
592.00,29.414
593.00,29.483
594.00,29.617
595.00,29.685
596.00,29.722
597.00,29.803
598.00,29.884
599.00,29.904
600.00,30.020
601.00,30.042
602.00,30.071
603.00,30.113
604.00,30.186
605.00,30.290
606.00,30.382
607.00,30.386
608.00,30.462
609.00,30.565
610.00,30.724
611.00,30.547
612.00,30.602
613.00,30.676
614.00,30.752
615.00,30.837
616.00,30.938
617.00,30.918
618.00,30.993
619.00,31.083
620.00,31.105
621.00,31.090
622.00,31.212
623.00,31.426
624.00,31.496
625.00,31.572
626.00,31.630
627.00,31.690
628.00,31.752
629.00,31.807
630.00,31.858
631.00,31.938
632.00,32.100
633.00,32.209
634.00,32.232
635.00,32.324
636.00,32.430
637.00,32.528
638.00,32.631
639.00,32.748
640.00,32.808
641.00,32.859
642.00,32.942
643.00,33.059
644.00,33.172
645.00,33.280
646.00,33.416
647.00,33.538
648.00,33.640
649.00,33.712
650.00,33.750
651.00,33.978
652.00,34.068
653.00,34.131
654.00,34.221
655.00,34.472
656.00,34.717
657.00,34.737
658.00,34.897
659.00,34.941
660.00,34.951
661.00,35.094
662.00,35.157
663.00,35.301
664.00,35.522
665.00,35.742
666.00,35.653
667.00,35.821
668.00,35.906
669.00,36.110
670.00,36.348
671.00,36.236
672.00,36.364
673.00,36.617
674.00,36.758
675.00,36.894
676.00,37.084
677.00,37.288
678.00,37.001
679.00,37.276
680.00,37.439
681.00,37.631
682.00,37.650
683.00,37.693
684.00,37.946
685.00,38.095
686.00,38.025
687.00,38.348
688.00,38.448
689.00,38.478
690.00,38.810
691.00,39.004
692.00,38.764
693.00,38.875
694.00,39.175
695.00,39.387
696.00,39.419
697.00,39.419
698.00,39.506
699.00,39.773
700.00,39.996
701.00,40.003
702.00,40.231
703.00,40.383
704.00,40.539
705.00,40.435
706.00,40.555
707.00,40.786
708.00,40.741
709.00,41.141
710.00,41.503
711.00,40.982
712.00,41.177
713.00,41.419
714.00,41.496
715.00,41.519
716.00,41.606
717.00,41.859
718.00,42.043
719.00,42.028
720.00,42.152
721.00,46.606
722.00,46.689
723.00,46.716
724.00,46.869
725.00,46.815
726.00,46.934
727.00,46.980
728.00,47.102
729.00,47.169
730.00,47.330
731.00,47.348
732.00,47.388
733.00,47.465
734.00,47.537
735.00,47.608
736.00,47.727
737.00,47.799
738.00,47.881
739.00,47.921
740.00,48.014
741.00,48.011
742.00,48.193
743.00,48.207
744.00,48.228
745.00,48.259
746.00,48.280
747.00,48.363
748.00,48.373
749.00,48.354
750.00,48.477
751.00,48.433
752.00,48.580
753.00,48.585
754.00,48.606
755.00,48.677
756.00,48.630
757.00,48.753
758.00,48.714
759.00,48.778
760.00,48.809
761.00,48.871
762.00,48.864
763.00,49.068
764.00,49.010
765.00,49.053
766.00,49.050
767.00,49.173
768.00,49.198
769.00,49.221
770.00,49.357
771.00,49.234
772.00,49.288
773.00,49.441
774.00,49.386
775.00,49.516
776.00,49.411
777.00,49.503
778.00,49.502
779.00,49.549
780.00,49.565
781.00,49.534
782.00,49.576
783.00,49.601
784.00,49.723
785.00,49.637
786.00,49.645
787.00,49.700
788.00,49.670
789.00,49.776
790.00,49.737
791.00,49.771
792.00,49.704
793.00,49.783
794.00,49.697
795.00,49.672
796.00,49.707
797.00,49.744
798.00,49.768
799.00,49.692
800.00,49.701
801.00,49.778
802.00,49.720
803.00,49.823
804.00,49.769
805.00,49.765
806.00,49.776
807.00,49.793
808.00,49.829
809.00,49.804
810.00,49.767
811.00,49.743
812.00,49.798
813.00,49.740
814.00,49.797
815.00,49.792
816.00,49.772
817.00,49.778
818.00,49.738
819.00,49.820
820.00,49.744
821.00,49.842
822.00,49.782
823.00,49.704
824.00,49.787
825.00,49.708
826.00,49.681
827.00,49.791
828.00,49.723
829.00,49.719
830.00,49.713
831.00,52.192
832.00,52.185
833.00,52.173
834.00,52.146
835.00,52.167
836.00,52.153
837.00,52.175
838.00,52.186
839.00,52.135
840.00,52.101
841.00,52.165
842.00,52.038
843.00,52.136
844.00,52.103
845.00,52.013
846.00,52.099
847.00,52.013
848.00,52.064
849.00,51.987
850.00,51.969
851.00,51.910
852.00,51.971
853.00,51.917
854.00,51.890
855.00,51.875
856.00,51.890
857.00,51.876
858.00,51.808
859.00,51.807
860.00,51.854
861.00,51.837
862.00,51.820
863.00,51.820
864.00,51.776
865.00,51.788
866.00,51.787
867.00,51.741
868.00,51.757
869.00,51.750
870.00,51.763
871.00,51.741
872.00,51.778
873.00,51.707
874.00,51.751
875.00,51.694
876.00,51.729
877.00,51.724
878.00,51.723
879.00,51.696
880.00,51.674
881.00,51.684
882.00,51.734
883.00,51.663
884.00,51.620
885.00,51.627
886.00,51.625
887.00,51.586
888.00,51.581
889.00,51.566
890.00,51.545
891.00,51.515
892.00,51.491
893.00,51.509
894.00,51.504
895.00,51.470
896.00,51.441
897.00,51.418
898.00,51.391
899.00,51.395
900.00,51.389
901.00,51.395
902.00,51.406
903.00,51.370
904.00,51.358
905.00,51.358
906.00,51.350
907.00,51.320
908.00,51.287
909.00,51.288
910.00,51.246
911.00,51.258
912.00,51.231
913.00,51.198
914.00,51.223
915.00,51.205
916.00,51.166
917.00,51.152
918.00,51.145
919.00,51.096
920.00,51.069
921.00,51.066
922.00,51.052
923.00,51.045
924.00,51.005
925.00,51.021
926.00,50.999
927.00,50.996
928.00,50.955
929.00,50.959
930.00,50.941
931.00,50.917
932.00,50.892
933.00,50.899
934.00,50.873
935.00,50.850
936.00,50.842
937.00,50.826
938.00,50.811
939.00,50.809
940.00,50.767
941.00,50.779
942.00,50.760
943.00,50.718
944.00,50.701
945.00,50.706
946.00,50.700
947.00,50.628
948.00,50.644
949.00,50.627
950.00,50.619
951.00,50.571
952.00,50.563
953.00,50.507
954.00,50.496
955.00,50.462
956.00,50.460
957.00,50.410
958.00,50.439
959.00,50.377
960.00,50.383
961.00,50.392
962.00,50.373
963.00,50.325
964.00,50.332
965.00,50.335
966.00,50.306
967.00,50.320
968.00,50.282
969.00,50.312
970.00,50.284
971.00,50.300
972.00,50.260
973.00,50.294
974.00,50.302
975.00,50.290
976.00,50.285
977.00,50.274
978.00,50.320
979.00,50.306
980.00,50.299
981.00,50.314
982.00,50.274
983.00,50.307
984.00,50.272
985.00,50.312
986.00,50.263
987.00,50.272
988.00,50.221
989.00,50.206
990.00,50.217
991.00,50.205
992.00,50.214
993.00,50.180
994.00,50.177
995.00,50.156
996.00,50.145
997.00,50.153
998.00,50.126
999.00,50.150
1000.00,50.102
1001.00,50.084
1002.00,50.108
1003.00,50.084
1004.00,50.075
1005.00,50.038
1006.00,50.069
1007.00,50.048
1008.00,50.031
1009.00,49.998
1010.00,50.008
1011.00,49.994
1012.00,49.965
1013.00,49.987
1014.00,49.948
1015.00,49.959
1016.00,49.942
1017.00,49.922
1018.00,49.914
1019.00,49.874
1020.00,49.873
1021.00,49.855
1022.00,49.867
1023.00,49.815
1024.00,49.825
1025.00,49.809
1026.00,49.801
1027.00,49.765
1028.00,49.764
1029.00,49.738
1030.00,49.699
1031.00,49.733
1032.00,49.672
1033.00,49.667
1034.00,49.639
1035.00,49.624
1036.00,49.595
1037.00,49.577
1038.00,49.573
1039.00,49.538
1040.00,49.534
1041.00,49.495
1042.00,49.505
1043.00,49.475
1044.00,49.521
1045.00,49.484
1046.00,49.487
1047.00,49.520
1048.00,49.516
1049.00,49.538
1050.00,49.525
1051.00,49.583
1052.00,49.568
1053.00,49.562
1054.00,49.568
1055.00,49.588
1056.00,49.610
1057.00,49.604
1058.00,49.581
1059.00,49.591
1060.00,49.604
1061.00,49.564
1062.00,49.580
1063.00,49.579
1064.00,49.560
1065.00,49.535
1066.00,49.545
1067.00,49.537
1068.00,49.568
1069.00,49.519
1070.00,49.513
1071.00,49.498
1072.00,49.532
1073.00,49.503
1074.00,49.500
1075.00,49.475
1076.00,49.479
1077.00,49.461
1078.00,49.432
1079.00,49.434
1080.00,49.438
1081.00,49.419
1082.00,49.428
1083.00,49.417
1084.00,49.413
1085.00,49.411
1086.00,49.399
1087.00,49.403
1088.00,49.379
1089.00,49.369
1090.00,49.368
1091.00,49.379
1092.00,49.378
1093.00,49.355
1094.00,49.330
1095.00,49.314
1096.00,49.303
1097.00,49.302
1098.00,49.284
1099.00,49.281
1100.00,49.275
1101.00,49.267
1102.00,49.248
1103.00,49.263
1104.00,49.260
1105.00,49.241
1106.00,49.238
1107.00,49.275
1108.00,49.237
1109.00,49.222
1110.00,49.218
1111.00,49.212
1112.00,49.202
1113.00,49.204
1114.00,49.178
1115.00,49.171
1116.00,49.157
1117.00,49.145
1118.00,49.146
1119.00,49.157
1120.00,49.158
1121.00,49.159
1122.00,49.119
1123.00,49.137
1124.00,49.113
1125.00,49.124
1126.00,49.123
1127.00,49.123
1128.00,49.084
1129.00,49.090
1130.00,49.065
1131.00,49.085
1132.00,49.086
1133.00,49.073
1134.00,49.048
1135.00,49.022
1136.00,49.026
1137.00,49.054
1138.00,49.045
1139.00,49.047
1140.00,49.045
1141.00,49.038
1142.00,49.017
1143.00,49.056
1144.00,48.996
1145.00,48.999
1146.00,49.014
1147.00,49.017
1148.00,49.000
1149.00,49.002
1150.00,49.017
1151.00,49.026
1152.00,49.011
1153.00,49.024
1154.00,49.006
1155.00,48.994
1156.00,48.976
1157.00,49.001
1158.00,48.971
1159.00,48.986
1160.00,48.966
1161.00,48.980
1162.00,48.979
1163.00,48.964
1164.00,48.975
1165.00,48.973
1166.00,48.964
1167.00,48.954
1168.00,48.985
1169.00,48.949
1170.00,48.949
1171.00,48.928
1172.00,48.938
1173.00,48.936
1174.00,48.936
1175.00,48.936
1176.00,48.938
1177.00,48.921
1178.00,48.933
1179.00,48.938
1180.00,48.909
1181.00,48.936
1182.00,48.925
1183.00,48.929
1184.00,48.932
1185.00,48.945
1186.00,48.930
1187.00,48.946
1188.00,48.942
1189.00,48.946
1190.00,48.929
1191.00,48.909
1192.00,48.945
1193.00,48.915
1194.00,48.924
1195.00,48.903
1196.00,48.934
1197.00,48.931
1198.00,48.905
1199.00,48.912
1200.00,48.924
1201.00,48.945
1202.00,48.933
1203.00,48.940
1204.00,48.927
1205.00,48.938
1206.00,48.942
1207.00,48.930
1208.00,48.931
1209.00,48.940
1210.00,48.927
1211.00,48.934
1212.00,48.955
1213.00,48.917
1214.00,48.966
1215.00,48.929
1216.00,48.942
1217.00,48.935
1218.00,48.915
1219.00,48.961
1220.00,48.919
1221.00,48.935
1222.00,48.932
1223.00,48.953
1224.00,48.931
1225.00,48.921
1226.00,48.932
1227.00,48.930
1228.00,48.959
1229.00,48.969
1230.00,48.988
1231.00,48.970
1232.00,49.001
1233.00,49.010
1234.00,48.999
1235.00,48.994
1236.00,48.994
1237.00,49.003
1238.00,48.975
1239.00,49.008
1240.00,48.988
1241.00,49.012
1242.00,49.011
1243.00,49.024
1244.00,49.003
1245.00,49.025
1246.00,49.020
1247.00,48.999
1248.00,48.994
1249.00,49.013
1250.00,49.038
1251.00,49.015
1252.00,49.037
1253.00,49.039
1254.00,49.075
1255.00,49.062
1256.00,49.047
1257.00,49.049
1258.00,49.081
1259.00,49.075
1260.00,49.129
1261.00,49.098
1262.00,49.085
1263.00,49.093
1264.00,49.100
1265.00,49.096
1266.00,49.103
1267.00,49.125
1268.00,49.116
1269.00,49.131
1270.00,49.146
1271.00,49.138
1272.00,49.152
1273.00,49.157
1274.00,49.178
1275.00,49.190
1276.00,49.158
1277.00,49.174
1278.00,49.171
1279.00,49.188
1280.00,49.181
1281.00,49.206
1282.00,49.221
1283.00,49.222
1284.00,49.231
1285.00,49.217
1286.00,49.241
1287.00,49.235
1288.00,49.235
1289.00,49.240
1290.00,49.291
1291.00,49.255
1292.00,49.252
1293.00,49.261
1294.00,49.284
1295.00,49.277
1296.00,49.280
1297.00,49.308
1298.00,49.315
1299.00,49.290
1300.00,49.332
1301.00,49.280
1302.00,49.323
1303.00,49.313
1304.00,49.299
1305.00,49.337
1306.00,49.321
1307.00,49.335
1308.00,49.347
1309.00,49.373
1310.00,49.358
1311.00,49.366
1312.00,49.375
1313.00,49.399
1314.00,49.407
1315.00,49.436
1316.00,49.452
1317.00,49.479
1318.00,49.464
1319.00,49.468
1320.00,49.450
1321.00,49.619
1322.00,49.608
1323.00,49.582
1324.00,49.585
1325.00,49.579
1326.00,49.597
1327.00,49.597
1328.00,49.598
1329.00,49.592
1330.00,49.615
1331.00,49.608
1332.00,49.617
1333.00,49.633
1334.00,49.651
1335.00,49.652
1336.00,49.706
1337.00,49.708
1338.00,49.790
1339.00,49.832
1340.00,49.885
1341.00,49.959
1342.00,50.012
1343.00,50.045
1344.00,50.098
1345.00,50.142
1346.00,50.199
1347.00,50.215
1348.00,50.228
1349.00,50.262
1350.00,50.282
1351.00,50.297
1352.00,50.333
1353.00,50.338
1354.00,50.347
1355.00,50.301
1356.00,50.351
1357.00,50.316
1358.00,50.422
1359.00,50.320
1360.00,50.347
1361.00,49.946
1362.00,50.355
1363.00,50.417
1364.00,50.384
1365.00,50.395
1366.00,50.498
1367.00,50.398
1368.00,50.397
1369.00,50.460
1370.00,50.365
1371.00,50.327
1372.00,50.343
1373.00,50.395
1374.00,50.416
1375.00,50.375
1376.00,50.379
1377.00,50.371
1378.00,50.499
1379.00,50.466
1380.00,50.520
1381.00,50.464
1382.00,50.313
1383.00,50.433
1384.00,50.343
1385.00,50.371
1386.00,50.405
1387.00,50.385
1388.00,50.326
1389.00,50.375
1390.00,50.439
1391.00,50.352
1392.00,50.374
1393.00,50.433
1394.00,50.357
1395.00,50.155
1396.00,50.309
1397.00,50.424
1398.00,50.415
1399.00,50.347
1400.00,50.290
1401.00,50.372
1402.00,50.495
1403.00,50.416
1404.00,50.457
1405.00,50.446
1406.00,50.477
1407.00,50.452
1408.00,50.409
1409.00,50.436
1410.00,50.494
1411.00,50.445
1412.00,50.556
1413.00,50.519
1414.00,50.435
1415.00,50.489
1416.00,50.529
1417.00,50.569
1418.00,50.525
1419.00,50.531
1420.00,50.547
1421.00,50.636
1422.00,50.597
1423.00,50.613
1424.00,50.614
1425.00,50.641
1426.00,50.644
1427.00,50.673
1428.00,50.669
1429.00,50.697
1430.00,50.702
1431.00,50.731
1432.00,50.756
1433.00,50.764
1434.00,50.772
1435.00,50.859
1436.00,50.830
1437.00,50.816
1438.00,50.838
1439.00,50.883
1440.00,50.905
1441.00,50.899
1442.00,50.919
1443.00,50.949
1444.00,50.996
1445.00,50.948
1446.00,51.003
1447.00,51.018
1448.00,51.077
1449.00,51.059
1450.00,51.071
1451.00,51.084
1452.00,51.112
1453.00,51.082
1454.00,51.135
1455.00,51.151
1456.00,51.183
1457.00,51.170
1458.00,51.203
1459.00,51.215
1460.00,51.253
1461.00,51.234
1462.00,51.296
1463.00,51.287
1464.00,51.300
1465.00,51.324
1466.00,51.316
1467.00,51.334
1468.00,51.391
1469.00,51.378
1470.00,51.409
1471.00,51.415
1472.00,51.430
1473.00,51.447
1474.00,51.467
1475.00,51.477
1476.00,51.499
1477.00,51.476
1478.00,51.518
1479.00,51.549
1480.00,51.529
1481.00,51.552
1482.00,51.600
1483.00,51.592
1484.00,51.622
1485.00,51.600
1486.00,51.619
1487.00,51.658
1488.00,51.679
1489.00,51.673
1490.00,51.688
1491.00,51.676
1492.00,51.733
1493.00,51.702
1494.00,51.758
1495.00,51.751
1496.00,51.788
1497.00,51.771
1498.00,51.796
1499.00,51.804
1500.00,51.821
1501.00, 
1502.00, 
1503.00, 
1504.00, 
1505.00, 
1506.00, 
1507.00, 
1508.00, 
1509.00, 
1510.00, 
1511.00, 
1512.00, 
1513.00, 
1514.00, 
1515.00, 
1516.00, 
1517.00, 
1518.00, 
1519.00, 
1520.00, 
1521.00, 
1522.00, 
1523.00, 
1524.00, 
1525.00, 
1526.00, 
1527.00, 
1528.00, 
1529.00, 
1530.00, 
1531.00, 
1532.00, 
1533.00, 
1534.00, 
1535.00, 
1536.00, 
1537.00, 
1538.00, 
1539.00, 
1540.00, 
1541.00, 
1542.00, 
1543.00, 
1544.00, 
1545.00, 
1546.00, 
1547.00, 
1548.00, 
1549.00, 
1550.00, 
1551.00, 
1552.00, 
1553.00, 
1554.00, 
1555.00, 
1556.00, 
1557.00, 
1558.00, 
1559.00, 
1560.00, 
1561.00, 
1562.00, 
1563.00, 
1564.00, 
1565.00, 
1566.00, 
1567.00, 
1568.00, 
1569.00, 
1570.00, 
1571.00, 
1572.00, 
1573.00, 
1574.00, 
1575.00, 
1576.00, 
1577.00, 
1578.00, 
1579.00, 
1580.00, 
1581.00, 
1582.00, 
1583.00, 
1584.00, 
1585.00, 
1586.00, 
1587.00, 
1588.00, 
1589.00, 
1590.00, 
1591.00, 
1592.00, 
1593.00, 
1594.00, 
1595.00, 
1596.00, 
1597.00, 
1598.00, 
1599.00, 
1600.00, 
1601.00, 
1602.00, 
1603.00, 
1604.00, 
1605.00, 
1606.00, 
1607.00, 
1608.00, 
1609.00, 
1610.00, 
1611.00, 
1612.00, 
1613.00, 
1614.00, 
1615.00, 
1616.00, 
1617.00, 
1618.00, 
1619.00, 
1620.00, 
1621.00, 
1622.00, 
1623.00, 
1624.00, 
1625.00, 
1626.00, 
1627.00, 
1628.00, 
1629.00, 
1630.00, 
1631.00, 
1632.00, 
1633.00, 
1634.00, 
1635.00, 
1636.00, 
1637.00, 
1638.00, 
1639.00, 
1640.00, 
1641.00, 
1642.00, 
1643.00, 
1644.00, 
1645.00, 
1646.00, 
1647.00, 
1648.00, 
1649.00, 
1650.00, 
1651.00, 
1652.00, 
1653.00, 
1654.00, 
1655.00, 
1656.00, 
1657.00, 
1658.00, 
1659.00, 
1660.00, 
1661.00, 
1662.00, 
1663.00, 
1664.00, 
1665.00, 
1666.00, 
1667.00, 
1668.00, 
1669.00, 
1670.00, 
1671.00, 
1672.00, 
1673.00, 
1674.00, 
1675.00, 
1676.00, 
1677.00, 
1678.00, 
1679.00, 
1680.00, 
1681.00, 
1682.00, 
1683.00, 
1684.00, 
1685.00, 
1686.00, 
1687.00, 
1688.00, 
1689.00, 
1690.00, 
1691.00, 
1692.00, 
1693.00, 
1694.00, 
1695.00, 
1696.00, 
1697.00, 
1698.00, 
1699.00, 
1700.00, 
1701.00, 
1702.00, 
1703.00, 
1704.00, 
1705.00, 
1706.00, 
1707.00, 
1708.00, 
1709.00, 
1710.00, 
1711.00, 
1712.00, 
1713.00, 
1714.00, 
1715.00, 
1716.00, 
1717.00, 
1718.00, 
1719.00, 
1720.00, 
1721.00, 
1722.00, 
1723.00, 
1724.00, 
1725.00, 
1726.00, 
1727.00, 
1728.00, 
1729.00, 
1730.00, 
1731.00, 
1732.00, 
1733.00, 
1734.00, 
1735.00, 
1736.00, 
1737.00, 
1738.00, 
1739.00, 
1740.00, 
1741.00, 
1742.00, 
1743.00, 
1744.00, 
1745.00, 
1746.00, 
1747.00, 
1748.00, 
1749.00, 
1750.00, 
1751.00, 
1752.00, 
1753.00, 
1754.00, 
1755.00, 
1756.00, 
1757.00, 
1758.00, 
1759.00, 
1760.00, 
1761.00, 
1762.00, 
1763.00, 
1764.00, 
1765.00, 
1766.00, 
1767.00, 
1768.00, 
1769.00, 
1770.00, 
1771.00, 
1772.00, 
1773.00, 
1774.00, 
1775.00, 
1776.00, 
1777.00, 
1778.00, 
1779.00, 
1780.00, 
1781.00, 
1782.00, 
1783.00, 
1784.00, 
1785.00, 
1786.00, 
1787.00, 
1788.00, 
1789.00, 
1790.00, 
1791.00, 
1792.00, 
1793.00, 
1794.00, 
1795.00, 
1796.00, 
1797.00, 
1798.00, 
1799.00, 
1800.00, 
1801.00, 
1802.00, 
1803.00, 
1804.00, 
1805.00, 
1806.00, 
1807.00, 
1808.00, 
1809.00, 
1810.00, 
1811.00, 
1812.00, 
1813.00, 
1814.00, 
1815.00, 
1816.00, 
1817.00, 
1818.00, 
1819.00, 
1820.00, 
1821.00, 
1822.00, 
1823.00, 
1824.00, 
1825.00, 
1826.00, 
1827.00, 
1828.00, 
1829.00, 
1830.00, 
1831.00, 
1832.00, 
1833.00, 
1834.00, 
1835.00, 
1836.00, 
1837.00, 
1838.00, 
1839.00, 
1840.00, 
1841.00, 
1842.00, 
1843.00, 
1844.00, 
1845.00, 
1846.00, 
1847.00, 
1848.00, 
1849.00, 
1850.00, 
1851.00, 
1852.00, 
1853.00, 
1854.00, 
1855.00, 
1856.00, 
1857.00, 
1858.00, 
1859.00, 
1860.00, 
1861.00, 
1862.00, 
1863.00, 
1864.00, 
1865.00, 
1866.00, 
1867.00, 
1868.00, 
1869.00, 
1870.00, 
1871.00, 
1872.00, 
1873.00, 
1874.00, 
1875.00, 
1876.00, 
1877.00, 
1878.00, 
1879.00, 
1880.00, 
1881.00, 
1882.00, 
1883.00, 
1884.00, 
1885.00, 
1886.00, 
1887.00, 
1888.00, 
1889.00, 
1890.00, 
1891.00, 
1892.00, 
1893.00, 
1894.00, 
1895.00, 
1896.00, 
1897.00, 
1898.00, 
1899.00, 
1900.00, 
1901.00, 
1902.00, 
1903.00, 
1904.00, 
1905.00, 
1906.00, 
1907.00, 
1908.00, 
1909.00, 
1910.00, 
1911.00, 
1912.00, 
1913.00, 
1914.00, 
1915.00, 
1916.00, 
1917.00, 
1918.00, 
1919.00, 
1920.00, 
1921.00, 
1922.00, 
1923.00, 
1924.00, 
1925.00, 
1926.00, 
1927.00, 
1928.00, 
1929.00, 
1930.00, 
1931.00, 
1932.00, 
1933.00, 
1934.00, 
1935.00, 
1936.00, 
1937.00, 
1938.00, 
1939.00, 
1940.00, 
1941.00, 
1942.00, 
1943.00, 
1944.00, 
1945.00, 
1946.00, 
1947.00, 
1948.00, 
1949.00, 
1950.00, 
1951.00, 
1952.00, 
1953.00, 
1954.00, 
1955.00, 
1956.00, 
1957.00, 
1958.00, 
1959.00, 
1960.00, 
1961.00, 
1962.00, 
1963.00, 
1964.00, 
1965.00, 
1966.00, 
1967.00, 
1968.00, 
1969.00, 
1970.00, 
1971.00, 
1972.00, 
1973.00, 
1974.00, 
1975.00, 
1976.00, 
1977.00, 
1978.00, 
1979.00, 
1980.00, 
1981.00, 
1982.00, 
1983.00, 
1984.00, 
1985.00, 
1986.00, 
1987.00, 
1988.00, 
1989.00, 
1990.00, 
1991.00, 
1992.00, 
1993.00, 
1994.00, 
1995.00, 
1996.00, 
1997.00, 
1998.00, 
1999.00, 
2000.00, 
2001.00, 
2002.00, 
2003.00, 
2004.00, 
2005.00, 
2006.00, 
2007.00, 
2008.00, 
2009.00, 
2010.00, 
2011.00, 
2012.00, 
2013.00, 
2014.00, 
2015.00, 
2016.00, 
2017.00, 
2018.00, 
2019.00, 
2020.00, 
2021.00, 
2022.00, 
2023.00, 
2024.00, 
2025.00, 
2026.00, 
2027.00, 
2028.00, 
2029.00, 
2030.00, 
2031.00, 
2032.00, 
2033.00, 
2034.00, 
2035.00, 
2036.00, 
2037.00, 
2038.00, 
2039.00, 
2040.00, 
2041.00, 
2042.00, 
2043.00, 
2044.00, 
2045.00, 
2046.00, 
2047.00, 
2048.00, 
2049.00, 
2050.00, 
2051.00, 
2052.00, 
2053.00, 
2054.00, 
2055.00, 
2056.00, 
2057.00, 
2058.00, 
2059.00, 
2060.00, 
2061.00, 
2062.00, 
2063.00, 
2064.00, 
2065.00, 
2066.00, 
2067.00, 
2068.00, 
2069.00, 
2070.00, 
2071.00, 
2072.00, 
2073.00, 
2074.00, 
2075.00, 
2076.00, 
2077.00, 
2078.00, 
2079.00, 
2080.00, 
2081.00, 
2082.00, 
2083.00, 
2084.00, 
2085.00, 
2086.00, 
2087.00, 
2088.00, 
2089.00, 
2090.00, 
2091.00, 
2092.00, 
2093.00, 
2094.00, 
2095.00, 
2096.00, 
2097.00, 
2098.00, 
2099.00, 
2100.00, 
2101.00, 
2102.00, 
2103.00, 
2104.00, 
2105.00, 
2106.00, 
2107.00, 
2108.00, 
2109.00, 
2110.00, 
2111.00, 
2112.00, 
2113.00, 
2114.00, 
2115.00, 
2116.00, 
2117.00, 
2118.00, 
2119.00, 
2120.00, 
2121.00, 
2122.00, 
2123.00, 
2124.00, 
2125.00, 
2126.00, 
2127.00, 
2128.00, 
2129.00, 
2130.00, 
2131.00, 
2132.00, 
2133.00, 
2134.00, 
2135.00, 
2136.00, 
2137.00, 
2138.00, 
2139.00, 
2140.00, 
2141.00, 
2142.00, 
2143.00, 
2144.00, 
2145.00, 
2146.00, 
2147.00, 
2148.00, 
2149.00, 
2150.00, 
2151.00, 
2152.00, 
2153.00, 
2154.00, 
2155.00, 
2156.00, 
2157.00, 
2158.00, 
2159.00, 
2160.00, 
2161.00, 
2162.00, 
2163.00, 
2164.00, 
2165.00, 
2166.00, 
2167.00, 
2168.00, 
2169.00, 
2170.00, 
2171.00, 
2172.00, 
2173.00, 
2174.00, 
2175.00, 
2176.00, 
2177.00, 
2178.00, 
2179.00, 
2180.00, 
2181.00, 
2182.00, 
2183.00, 
2184.00, 
2185.00, 
2186.00, 
2187.00, 
2188.00, 
2189.00, 
2190.00, 
2191.00, 
2192.00, 
2193.00, 
2194.00, 
2195.00, 
2196.00, 
2197.00, 
2198.00, 
2199.00, 
2200.00, 
2201.00, 
2202.00, 
2203.00, 
2204.00, 
2205.00, 
2206.00, 
2207.00, 
2208.00, 
2209.00, 
2210.00, 
2211.00, 
2212.00, 
2213.00, 
2214.00, 
2215.00, 
2216.00, 
2217.00, 
2218.00, 
2219.00, 
2220.00, 
2221.00, 
2222.00, 
2223.00, 
2224.00, 
2225.00, 
2226.00, 
2227.00, 
2228.00, 
2229.00, 
2230.00, 
2231.00, 
2232.00, 
2233.00, 
2234.00, 
2235.00, 
2236.00, 
2237.00, 
2238.00, 
2239.00, 
2240.00, 
2241.00, 
2242.00, 
2243.00, 
2244.00, 
2245.00, 
2246.00, 
2247.00, 
2248.00, 
2249.00, 
2250.00, 
2251.00, 
2252.00, 
2253.00, 
2254.00, 
2255.00, 
2256.00, 
2257.00, 
2258.00, 
2259.00, 
2260.00, 
2261.00, 
2262.00, 
2263.00, 
2264.00, 
2265.00, 
2266.00, 
2267.00, 
2268.00, 
2269.00, 
2270.00, 
2271.00, 
2272.00, 
2273.00, 
2274.00, 
2275.00, 
2276.00, 
2277.00, 
2278.00, 
2279.00, 
2280.00, 
2281.00, 
2282.00, 
2283.00, 
2284.00, 
2285.00, 
2286.00, 
2287.00, 
2288.00, 
2289.00, 
2290.00, 
2291.00, 
2292.00, 
2293.00, 
2294.00, 
2295.00, 
2296.00, 
2297.00, 
2298.00, 
2299.00, 
2300.00, 
2301.00, 
2302.00, 
2303.00, 
2304.00, 
2305.00, 
2306.00, 
2307.00, 
2308.00, 
2309.00, 
2310.00, 
2311.00, 
2312.00, 
2313.00, 
2314.00, 
2315.00, 
2316.00, 
2317.00, 
2318.00, 
2319.00, 
2320.00, 
2321.00, 
2322.00, 
2323.00, 
2324.00, 
2325.00, 
2326.00, 
2327.00, 
2328.00, 
2329.00, 
2330.00, 
2331.00, 
2332.00, 
2333.00, 
2334.00, 
2335.00, 
2336.00, 
2337.00, 
2338.00, 
2339.00, 
2340.00, 
2341.00, 
2342.00, 
2343.00, 
2344.00, 
2345.00, 
2346.00, 
2347.00, 
2348.00, 
2349.00, 
2350.00, 
2351.00, 
2352.00, 
2353.00, 
2354.00, 
2355.00, 
2356.00, 
2357.00, 
2358.00, 
2359.00, 
2360.00, 
2361.00, 
2362.00, 
2363.00, 
2364.00, 
2365.00, 
2366.00, 
2367.00, 
2368.00, 
2369.00, 
2370.00, 
2371.00, 
2372.00, 
2373.00, 
2374.00, 
2375.00, 
2376.00, 
2377.00, 
2378.00, 
2379.00, 
2380.00, 
2381.00, 
2382.00, 
2383.00, 
2384.00, 
2385.00, 
2386.00, 
2387.00, 
2388.00, 
2389.00, 
2390.00, 
2391.00, 
2392.00, 
2393.00, 
2394.00, 
2395.00, 
2396.00, 
2397.00, 
2398.00, 
2399.00, 
2400.00, 
2401.00, 
2402.00, 
2403.00, 
2404.00, 
2405.00, 
2406.00, 
2407.00, 
2408.00, 
2409.00, 
2410.00, 
2411.00, 
2412.00, 
2413.00, 
2414.00, 
2415.00, 
2416.00, 
2417.00, 
2418.00, 
2419.00, 
2420.00, 
2421.00, 
2422.00, 
2423.00, 
2424.00, 
2425.00, 
2426.00, 
2427.00, 
2428.00, 
2429.00, 
2430.00, 
2431.00, 
2432.00, 
2433.00, 
2434.00, 
2435.00, 
2436.00, 
2437.00, 
2438.00, 
2439.00, 
2440.00, 
2441.00, 
2442.00, 
2443.00, 
2444.00, 
2445.00, 
2446.00, 
2447.00, 
2448.00, 
2449.00, 
2450.00, 
2451.00, 
2452.00, 
2453.00, 
2454.00, 
2455.00, 
2456.00, 
2457.00, 
2458.00, 
2459.00, 
2460.00, 
2461.00, 
2462.00, 
2463.00, 
2464.00, 
2465.00, 
2466.00, 
2467.00, 
2468.00, 
2469.00, 
2470.00, 
2471.00, 
2472.00, 
2473.00, 
2474.00, 
2475.00, 
2476.00, 
2477.00, 
2478.00, 
2479.00, 
2480.00, 
2481.00, 
2482.00, 
2483.00, 
2484.00, 
2485.00, 
2486.00, 
2487.00, 
2488.00, 
2489.00, 
2490.00, 
2491.00, 
2492.00, 
2493.00, 
2494.00, 
2495.00, 
2496.00, 
2497.00, 
2498.00, 
2499.00, 
2500.00, 
2501.00, 
2502.00, 
2503.00, 
2504.00, 
2505.00, 
2506.00, 
2507.00, 
2508.00, 
2509.00, 
2510.00, 
2511.00, 
2512.00, 
2513.00, 
2514.00, 
2515.00, 
2516.00, 
2517.00, 
2518.00, 
2519.00, 
2520.00, 
2521.00, 
2522.00, 
2523.00, 
2524.00, 
2525.00, 
2526.00, 
2527.00, 
2528.00, 
2529.00, 
2530.00, 
2531.00, 
2532.00, 
2533.00, 
2534.00, 
2535.00, 
2536.00, 
2537.00, 
2538.00, 
2539.00, 
2540.00, 
2541.00, 
2542.00, 
2543.00, 
2544.00, 
2545.00, 
2546.00, 
2547.00, 
2548.00, 
2549.00, 
2550.00, 
2551.00, 
2552.00, 
2553.00, 
2554.00, 
2555.00, 
2556.00, 
2557.00, 
2558.00, 
2559.00, 
2560.00, 
2561.00, 
2562.00, 
2563.00, 
2564.00, 
2565.00, 
2566.00, 
2567.00, 
2568.00, 
2569.00, 
2570.00, 
2571.00, 
2572.00, 
2573.00, 
2574.00, 
2575.00, 
2576.00, 
2577.00, 
2578.00, 
2579.00, 
2580.00, 
2581.00, 
2582.00, 
2583.00, 
2584.00, 
2585.00, 
2586.00, 
2587.00, 
2588.00, 
2589.00, 
2590.00, 
2591.00, 
2592.00, 
2593.00, 
2594.00, 
2595.00, 
2596.00, 
2597.00, 
2598.00, 
2599.00, 
2600.00, 
