"2cP1 - RawData"
"Wavelength nm.","T%"
200.00,0.003
201.00,-0.001
202.00,0.001
203.00,-0.000
204.00,0.002
205.00,0.001
206.00,-0.000
207.00,0.001
208.00,0.003
209.00,-0.000
210.00,-0.000
211.00,0.001
212.00,-0.003
213.00,0.003
214.00,0.002
215.00,0.001
216.00,0.001
217.00,0.002
218.00,0.001
219.00,0.003
220.00,0.000
221.00,0.002
222.00,0.002
223.00,0.002
224.00,0.001
225.00,0.001
226.00,0.001
227.00,0.003
228.00,0.001
229.00,0.000
230.00,0.002
231.00,-0.000
232.00,0.001
233.00,0.001
234.00,0.003
235.00,0.004
236.00,-0.001
237.00,0.002
238.00,-0.001
239.00,-0.001
240.00,0.000
241.00,-0.000
242.00,0.002
243.00,0.000
244.00,0.001
245.00,0.000
246.00,0.001
247.00,-0.000
248.00,-0.001
249.00,-0.000
250.00,0.001
251.00,-0.000
252.00,-0.001
253.00,0.000
254.00,0.001
255.00,0.001
256.00,0.000
257.00,-0.001
258.00,0.001
259.00,-0.000
260.00,0.001
261.00,-0.001
262.00,-0.001
263.00,0.001
264.00,-0.000
265.00,0.001
266.00,0.000
267.00,0.002
268.00,0.001
269.00,0.001
270.00,0.001
271.00,0.001
272.00,0.001
273.00,0.000
274.00,-0.001
275.00,0.000
276.00,0.000
277.00,0.000
278.00,0.002
279.00,0.001
280.00,0.001
281.00,0.000
282.00,0.000
283.00,-0.000
284.00,0.001
285.00,0.002
286.00,0.000
287.00,-0.001
288.00,0.000
289.00,0.000
290.00,-0.001
291.00,-0.000
292.00,0.000
293.00,-0.001
294.00,0.002
295.00,0.000
296.00,-0.000
297.00,0.001
298.00,-0.000
299.00,0.001
300.00,0.000
301.00,0.004
302.00,0.002
303.00,0.004
304.00,0.005
305.00,0.010
306.00,0.016
307.00,0.024
308.00,0.037
309.00,0.057
310.00,0.080
311.00,0.109
312.00,0.143
313.00,0.199
314.00,0.259
315.00,0.327
316.00,0.429
317.00,0.534
318.00,0.660
319.00,0.811
320.00,0.980
321.00,1.167
322.00,1.387
323.00,1.641
324.00,1.899
325.00,2.148
326.00,2.422
327.00,2.737
328.00,3.067
329.00,3.368
330.00,3.718
331.00,4.053
332.00,4.416
333.00,4.759
334.00,5.111
335.00,5.469
336.00,5.811
337.00,6.177
338.00,6.506
339.00,6.838
340.00,7.131
341.00,7.466
342.00,7.699
343.00,8.057
344.00,8.355
345.00,8.549
346.00,8.807
347.00,9.028
348.00,9.242
349.00,9.438
350.00,9.614
351.00,9.796
352.00,9.920
353.00,10.103
354.00,10.217
355.00,10.338
356.00,10.456
357.00,10.561
358.00,10.646
359.00,10.752
360.00,10.803
361.00,10.887
362.00,10.941
363.00,10.984
364.00,11.033
365.00,11.060
366.00,11.065
367.00,11.094
368.00,11.083
369.00,11.125
370.00,11.123
371.00,11.113
372.00,11.089
373.00,11.046
374.00,11.001
375.00,11.019
376.00,10.955
377.00,10.932
378.00,10.852
379.00,10.794
380.00,10.777
381.00,10.750
382.00,10.714
383.00,10.696
384.00,10.660
385.00,10.680
386.00,10.652
387.00,10.657
388.00,10.633
389.00,10.633
390.00,10.636
391.00,10.575
392.00,10.563
393.00,10.536
394.00,10.577
395.00,10.549
396.00,10.536
397.00,10.524
398.00,10.531
399.00,10.518
400.00,10.489
401.00,10.474
402.00,10.467
403.00,10.445
404.00,10.453
405.00,10.436
406.00,10.424
407.00,10.408
408.00,10.386
409.00,10.348
410.00,10.329
411.00,10.316
412.00,10.314
413.00,10.312
414.00,10.302
415.00,10.289
416.00,10.306
417.00,10.312
418.00,10.309
419.00,10.340
420.00,10.336
421.00,10.364
422.00,10.364
423.00,10.397
424.00,10.386
425.00,10.425
426.00,10.456
427.00,10.479
428.00,10.498
429.00,10.539
430.00,10.558
431.00,10.621
432.00,10.639
433.00,10.681
434.00,10.735
435.00,10.780
436.00,10.833
437.00,10.879
438.00,10.925
439.00,10.987
440.00,11.051
441.00,11.100
442.00,11.149
443.00,11.244
444.00,11.304
445.00,11.375
446.00,11.450
447.00,11.525
448.00,11.612
449.00,11.678
450.00,11.779
451.00,11.851
452.00,11.957
453.00,12.051
454.00,12.134
455.00,12.228
456.00,12.311
457.00,12.427
458.00,12.508
459.00,12.600
460.00,12.714
461.00,12.815
462.00,12.951
463.00,13.037
464.00,13.168
465.00,13.286
466.00,13.399
467.00,13.502
468.00,13.608
469.00,13.728
470.00,13.836
471.00,13.943
472.00,14.043
473.00,14.153
474.00,14.271
475.00,14.384
476.00,14.489
477.00,14.611
478.00,14.730
479.00,14.874
480.00,15.050
481.00,15.188
482.00,15.282
483.00,15.442
484.00,15.558
485.00,15.725
486.00,15.844
487.00,16.000
488.00,16.088
489.00,16.295
490.00,16.438
491.00,16.582
492.00,16.714
493.00,16.886
494.00,17.012
495.00,17.100
496.00,17.228
497.00,17.364
498.00,17.511
499.00,17.643
500.00,17.787
501.00,17.894
502.00,18.028
503.00,18.200
504.00,18.267
505.00,18.395
506.00,18.630
507.00,18.742
508.00,18.846
509.00,19.043
510.00,19.160
511.00,19.277
512.00,19.425
513.00,19.548
514.00,19.716
515.00,19.823
516.00,19.925
517.00,20.036
518.00,20.200
519.00,20.279
520.00,20.452
521.00,20.527
522.00,20.634
523.00,20.755
524.00,20.850
525.00,20.950
526.00,21.071
527.00,21.185
528.00,21.246
529.00,21.375
530.00,21.471
531.00,21.663
532.00,21.768
533.00,21.864
534.00,21.963
535.00,22.068
536.00,22.164
537.00,22.253
538.00,22.369
539.00,22.447
540.00,22.552
541.00,22.626
542.00,22.730
543.00,22.809
544.00,22.900
545.00,22.972
546.00,23.020
547.00,23.142
548.00,23.203
549.00,23.297
550.00,23.414
551.00,23.489
552.00,23.605
553.00,23.687
554.00,23.745
555.00,23.816
556.00,23.900
557.00,23.979
558.00,23.988
559.00,24.122
560.00,24.225
561.00,24.199
562.00,24.328
563.00,24.369
564.00,24.353
565.00,24.516
566.00,24.549
567.00,24.611
568.00,24.661
569.00,24.719
570.00,24.761
571.00,24.822
572.00,24.891
573.00,24.946
574.00,25.016
575.00,25.069
576.00,25.105
577.00,25.198
578.00,25.245
579.00,25.313
580.00,25.380
581.00,25.501
582.00,25.544
583.00,25.609
584.00,25.737
585.00,25.733
586.00,25.819
587.00,25.916
588.00,25.952
589.00,26.019
590.00,26.071
591.00,26.091
592.00,26.097
593.00,26.197
594.00,26.307
595.00,26.327
596.00,26.388
597.00,26.476
598.00,26.506
599.00,26.552
600.00,26.680
601.00,26.717
602.00,26.712
603.00,26.756
604.00,26.871
605.00,26.968
606.00,27.033
607.00,27.110
608.00,27.180
609.00,27.193
610.00,27.297
611.00,27.337
612.00,27.401
613.00,27.443
614.00,27.529
615.00,27.539
616.00,27.694
617.00,27.724
618.00,27.815
619.00,27.821
620.00,27.890
621.00,28.053
622.00,28.153
623.00,28.193
624.00,28.327
625.00,28.419
626.00,28.461
627.00,28.534
628.00,28.663
629.00,28.745
630.00,28.793
631.00,28.875
632.00,29.015
633.00,29.077
634.00,29.162
635.00,29.270
636.00,29.370
637.00,29.586
638.00,29.679
639.00,29.775
640.00,29.808
641.00,29.942
642.00,30.035
643.00,30.117
644.00,30.267
645.00,30.370
646.00,30.488
647.00,30.604
648.00,30.759
649.00,30.921
650.00,30.939
651.00,31.063
652.00,31.205
653.00,31.271
654.00,31.462
655.00,31.513
656.00,31.727
657.00,31.926
658.00,32.105
659.00,32.155
660.00,32.306
661.00,32.401
662.00,32.500
663.00,32.523
664.00,32.858
665.00,32.939
666.00,33.063
667.00,33.189
668.00,33.363
669.00,33.541
670.00,33.628
671.00,33.741
672.00,33.832
673.00,34.099
674.00,34.204
675.00,34.357
676.00,34.542
677.00,34.650
678.00,34.789
679.00,34.924
680.00,35.104
681.00,35.243
682.00,35.372
683.00,35.544
684.00,35.702
685.00,35.915
686.00,35.911
687.00,36.232
688.00,36.342
689.00,36.405
690.00,36.586
691.00,36.791
692.00,36.876
693.00,37.029
694.00,37.153
695.00,37.431
696.00,37.528
697.00,37.687
698.00,37.857
699.00,37.955
700.00,38.242
701.00,38.236
702.00,38.501
703.00,38.716
704.00,38.744
705.00,38.845
706.00,38.946
707.00,39.187
708.00,39.258
709.00,39.428
710.00,39.670
711.00,39.738
712.00,39.859
713.00,40.030
714.00,40.104
715.00,40.273
716.00,40.453
717.00,40.494
718.00,40.664
719.00,40.736
720.00,40.998
721.00,44.599
722.00,44.751
723.00,44.767
724.00,44.896
725.00,44.937
726.00,45.041
727.00,45.119
728.00,45.253
729.00,45.320
730.00,45.439
731.00,45.581
732.00,45.676
733.00,45.751
734.00,45.823
735.00,45.954
736.00,46.020
737.00,46.098
738.00,46.232
739.00,46.315
740.00,46.445
741.00,46.514
742.00,46.679
743.00,46.713
744.00,46.790
745.00,46.807
746.00,46.831
747.00,46.908
748.00,46.984
749.00,47.020
750.00,47.047
751.00,47.136
752.00,47.316
753.00,47.286
754.00,47.370
755.00,47.450
756.00,47.433
757.00,47.550
758.00,47.524
759.00,47.636
760.00,47.714
761.00,47.776
762.00,47.841
763.00,47.995
764.00,47.969
765.00,48.040
766.00,48.080
767.00,48.158
768.00,48.190
769.00,48.289
770.00,48.360
771.00,48.408
772.00,48.438
773.00,48.513
774.00,48.575
775.00,48.630
776.00,48.615
777.00,48.718
778.00,48.706
779.00,48.747
780.00,48.817
781.00,48.799
782.00,48.826
783.00,48.862
784.00,48.964
785.00,48.970
786.00,48.993
787.00,49.043
788.00,49.008
789.00,49.147
790.00,49.074
791.00,49.168
792.00,49.078
793.00,49.161
794.00,49.183
795.00,49.108
796.00,49.206
797.00,49.228
798.00,49.193
799.00,49.176
800.00,49.194
801.00,49.241
802.00,49.275
803.00,49.270
804.00,49.323
805.00,49.321
806.00,49.350
807.00,49.292
808.00,49.410
809.00,49.441
810.00,49.406
811.00,49.331
812.00,49.369
813.00,49.386
814.00,49.438
815.00,49.465
816.00,49.476
817.00,49.509
818.00,49.449
819.00,49.438
820.00,49.437
821.00,49.518
822.00,49.472
823.00,49.438
824.00,49.494
825.00,49.523
826.00,49.473
827.00,49.571
828.00,49.565
829.00,49.534
830.00,49.510
831.00,52.083
832.00,52.085
833.00,52.053
834.00,52.041
835.00,52.076
836.00,52.068
837.00,52.045
838.00,52.068
839.00,52.038
840.00,52.042
841.00,52.081
842.00,52.058
843.00,52.034
844.00,52.076
845.00,51.994
846.00,52.055
847.00,52.027
848.00,52.012
849.00,51.969
850.00,51.965
851.00,51.943
852.00,51.956
853.00,51.945
854.00,51.930
855.00,51.886
856.00,51.879
857.00,51.834
858.00,51.814
859.00,51.802
860.00,51.821
861.00,51.850
862.00,51.748
863.00,51.798
864.00,51.781
865.00,51.801
866.00,51.866
867.00,51.791
868.00,51.778
869.00,51.786
870.00,51.785
871.00,51.771
872.00,51.821
873.00,51.751
874.00,51.804
875.00,51.774
876.00,51.757
877.00,51.748
878.00,51.766
879.00,51.758
880.00,51.759
881.00,51.749
882.00,51.757
883.00,51.743
884.00,51.700
885.00,51.692
886.00,51.678
887.00,51.667
888.00,51.643
889.00,51.629
890.00,51.618
891.00,51.600
892.00,51.582
893.00,51.582
894.00,51.582
895.00,51.569
896.00,51.534
897.00,51.539
898.00,51.527
899.00,51.494
900.00,51.517
901.00,51.503
902.00,51.503
903.00,51.481
904.00,51.488
905.00,51.459
906.00,51.440
907.00,51.430
908.00,51.414
909.00,51.373
910.00,51.417
911.00,51.379
912.00,51.375
913.00,51.343
914.00,51.345
915.00,51.333
916.00,51.285
917.00,51.265
918.00,51.273
919.00,51.228
920.00,51.179
921.00,51.199
922.00,51.175
923.00,51.184
924.00,51.170
925.00,51.160
926.00,51.135
927.00,51.122
928.00,51.100
929.00,51.094
930.00,51.060
931.00,51.058
932.00,51.055
933.00,51.047
934.00,51.099
935.00,50.989
936.00,50.999
937.00,50.988
938.00,50.975
939.00,50.963
940.00,50.912
941.00,50.923
942.00,50.885
943.00,50.878
944.00,50.848
945.00,50.851
946.00,50.856
947.00,50.810
948.00,50.811
949.00,50.797
950.00,50.791
951.00,50.754
952.00,50.724
953.00,50.677
954.00,50.682
955.00,50.644
956.00,50.646
957.00,50.592
958.00,50.624
959.00,50.574
960.00,50.564
961.00,50.548
962.00,50.567
963.00,50.505
964.00,50.496
965.00,50.476
966.00,50.451
967.00,50.488
968.00,50.441
969.00,50.470
970.00,50.451
971.00,50.467
972.00,50.445
973.00,50.445
974.00,50.475
975.00,50.444
976.00,50.469
977.00,50.447
978.00,50.479
979.00,50.463
980.00,50.473
981.00,50.478
982.00,50.426
983.00,50.472
984.00,50.425
985.00,50.445
986.00,50.413
987.00,50.433
988.00,50.413
989.00,50.394
990.00,50.398
991.00,50.373
992.00,50.383
993.00,50.366
994.00,50.351
995.00,50.352
996.00,50.334
997.00,50.325
998.00,50.288
999.00,50.306
1000.00,50.260
1001.00,50.269
1002.00,50.279
1003.00,50.246
1004.00,50.246
1005.00,50.209
1006.00,50.217
1007.00,50.190
1008.00,50.187
1009.00,50.183
1010.00,50.155
1011.00,50.160
1012.00,50.131
1013.00,50.152
1014.00,50.110
1015.00,50.111
1016.00,50.083
1017.00,50.071
1018.00,50.067
1019.00,50.019
1020.00,50.023
1021.00,50.005
1022.00,50.011
1023.00,49.963
1024.00,49.974
1025.00,49.958
1026.00,49.948
1027.00,49.908
1028.00,49.912
1029.00,49.896
1030.00,49.862
1031.00,49.874
1032.00,49.835
1033.00,49.832
1034.00,49.812
1035.00,49.786
1036.00,49.761
1037.00,49.738
1038.00,49.721
1039.00,49.687
1040.00,49.703
1041.00,49.666
1042.00,49.662
1043.00,49.631
1044.00,49.651
1045.00,49.642
1046.00,49.642
1047.00,49.644
1048.00,49.662
1049.00,49.668
1050.00,49.672
1051.00,49.699
1052.00,49.706
1053.00,49.717
1054.00,49.717
1055.00,49.738
1056.00,49.739
1057.00,49.735
1058.00,49.724
1059.00,49.729
1060.00,49.736
1061.00,49.717
1062.00,49.696
1063.00,49.713
1064.00,49.682
1065.00,49.668
1066.00,49.678
1067.00,49.668
1068.00,49.678
1069.00,49.640
1070.00,49.630
1071.00,49.615
1072.00,49.615
1073.00,49.586
1074.00,49.591
1075.00,49.589
1076.00,49.578
1077.00,49.570
1078.00,49.564
1079.00,49.549
1080.00,49.547
1081.00,49.526
1082.00,49.535
1083.00,49.513
1084.00,49.525
1085.00,49.499
1086.00,49.500
1087.00,49.491
1088.00,49.482
1089.00,49.484
1090.00,49.467
1091.00,49.461
1092.00,49.448
1093.00,49.431
1094.00,49.419
1095.00,49.402
1096.00,49.390
1097.00,49.379
1098.00,49.379
1099.00,49.365
1100.00,49.364
1101.00,49.347
1102.00,49.339
1103.00,49.346
1104.00,49.355
1105.00,49.341
1106.00,49.305
1107.00,49.314
1108.00,49.310
1109.00,49.271
1110.00,49.284
1111.00,49.279
1112.00,49.267
1113.00,49.243
1114.00,49.251
1115.00,49.240
1116.00,49.230
1117.00,49.223
1118.00,49.219
1119.00,49.217
1120.00,49.216
1121.00,49.207
1122.00,49.197
1123.00,49.199
1124.00,49.180
1125.00,49.174
1126.00,49.159
1127.00,49.151
1128.00,49.135
1129.00,49.133
1130.00,49.121
1131.00,49.122
1132.00,49.128
1133.00,49.128
1134.00,49.109
1135.00,49.113
1136.00,49.091
1137.00,49.096
1138.00,49.079
1139.00,49.078
1140.00,49.069
1141.00,49.059
1142.00,49.056
1143.00,49.068
1144.00,49.042
1145.00,49.055
1146.00,49.052
1147.00,49.045
1148.00,49.036
1149.00,49.036
1150.00,49.048
1151.00,49.033
1152.00,49.019
1153.00,48.996
1154.00,48.995
1155.00,49.010
1156.00,48.986
1157.00,48.987
1158.00,48.993
1159.00,48.987
1160.00,48.976
1161.00,48.982
1162.00,48.972
1163.00,48.973
1164.00,48.970
1165.00,48.954
1166.00,48.960
1167.00,48.957
1168.00,48.955
1169.00,48.953
1170.00,48.967
1171.00,48.946
1172.00,48.953
1173.00,48.952
1174.00,48.942
1175.00,48.936
1176.00,48.932
1177.00,48.933
1178.00,48.934
1179.00,48.926
1180.00,48.914
1181.00,48.938
1182.00,48.924
1183.00,48.921
1184.00,48.913
1185.00,48.930
1186.00,48.913
1187.00,48.921
1188.00,48.908
1189.00,48.917
1190.00,48.906
1191.00,48.900
1192.00,48.914
1193.00,48.886
1194.00,48.905
1195.00,48.863
1196.00,48.892
1197.00,48.898
1198.00,48.886
1199.00,48.895
1200.00,48.885
1201.00,48.895
1202.00,48.894
1203.00,48.888
1204.00,48.879
1205.00,48.884
1206.00,48.883
1207.00,48.878
1208.00,48.863
1209.00,48.854
1210.00,48.869
1211.00,48.870
1212.00,48.872
1213.00,48.847
1214.00,48.870
1215.00,48.858
1216.00,48.869
1217.00,48.870
1218.00,48.853
1219.00,48.880
1220.00,48.846
1221.00,48.857
1222.00,48.855
1223.00,48.858
1224.00,48.851
1225.00,48.850
1226.00,48.854
1227.00,48.838
1228.00,48.862
1229.00,48.869
1230.00,48.900
1231.00,48.889
1232.00,48.911
1233.00,48.898
1234.00,48.900
1235.00,48.905
1236.00,48.907
1237.00,48.894
1238.00,48.897
1239.00,48.911
1240.00,48.892
1241.00,48.896
1242.00,48.893
1243.00,48.912
1244.00,48.890
1245.00,48.899
1246.00,48.923
1247.00,48.910
1248.00,48.904
1249.00,48.923
1250.00,48.923
1251.00,48.919
1252.00,48.939
1253.00,48.927
1254.00,48.947
1255.00,48.933
1256.00,48.916
1257.00,48.895
1258.00,48.942
1259.00,48.932
1260.00,48.960
1261.00,48.947
1262.00,48.941
1263.00,48.953
1264.00,48.952
1265.00,48.954
1266.00,48.967
1267.00,48.971
1268.00,48.977
1269.00,48.976
1270.00,48.992
1271.00,48.993
1272.00,48.996
1273.00,48.996
1274.00,48.997
1275.00,48.990
1276.00,48.994
1277.00,49.009
1278.00,49.010
1279.00,49.009
1280.00,49.022
1281.00,49.029
1282.00,49.047
1283.00,49.038
1284.00,49.043
1285.00,49.018
1286.00,49.028
1287.00,49.025
1288.00,49.062
1289.00,49.040
1290.00,49.070
1291.00,49.069
1292.00,49.064
1293.00,49.080
1294.00,49.088
1295.00,49.087
1296.00,49.097
1297.00,49.091
1298.00,49.107
1299.00,49.100
1300.00,49.105
1301.00,49.103
1302.00,49.111
1303.00,49.133
1304.00,49.115
1305.00,49.121
1306.00,49.135
1307.00,49.167
1308.00,49.134
1309.00,49.155
1310.00,49.157
1311.00,49.157
1312.00,49.160
1313.00,49.155
1314.00,49.163
1315.00,49.170
1316.00,49.173
1317.00,49.197
1318.00,49.196
1319.00,49.192
1320.00,49.226
1321.00,49.359
1322.00,49.367
1323.00,49.347
1324.00,49.361
1325.00,49.345
1326.00,49.366
1327.00,49.371
1328.00,49.357
1329.00,49.348
1330.00,49.365
1331.00,49.360
1332.00,49.354
1333.00,49.352
1334.00,49.405
1335.00,49.401
1336.00,49.430
1337.00,49.465
1338.00,49.527
1339.00,49.570
1340.00,49.634
1341.00,49.695
1342.00,49.773
1343.00,49.814
1344.00,49.858
1345.00,49.909
1346.00,49.947
1347.00,49.954
1348.00,49.988
1349.00,50.020
1350.00,50.041
1351.00,50.060
1352.00,50.066
1353.00,50.097
1354.00,50.081
1355.00,49.991
1356.00,50.094
1357.00,50.094
1358.00,50.125
1359.00,50.064
1360.00,50.033
1361.00,49.397
1362.00,50.003
1363.00,50.167
1364.00,50.077
1365.00,50.089
1366.00,50.145
1367.00,50.066
1368.00,50.059
1369.00,50.117
1370.00,50.063
1371.00,49.993
1372.00,50.049
1373.00,50.071
1374.00,50.077
1375.00,50.074
1376.00,50.094
1377.00,49.899
1378.00,50.162
1379.00,50.101
1380.00,50.095
1381.00,50.102
1382.00,49.965
1383.00,50.075
1384.00,50.034
1385.00,50.000
1386.00,50.083
1387.00,50.044
1388.00,50.000
1389.00,50.038
1390.00,50.123
1391.00,49.996
1392.00,50.064
1393.00,50.093
1394.00,50.009
1395.00,50.054
1396.00,49.995
1397.00,50.043
1398.00,50.144
1399.00,50.044
1400.00,50.015
1401.00,50.077
1402.00,50.137
1403.00,50.116
1404.00,50.150
1405.00,50.118
1406.00,50.124
1407.00,50.134
1408.00,50.124
1409.00,50.100
1410.00,50.147
1411.00,50.144
1412.00,50.179
1413.00,50.150
1414.00,50.140
1415.00,50.183
1416.00,50.210
1417.00,50.229
1418.00,50.206
1419.00,50.194
1420.00,50.233
1421.00,50.276
1422.00,50.261
1423.00,50.260
1424.00,50.290
1425.00,50.293
1426.00,50.311
1427.00,50.322
1428.00,50.332
1429.00,50.351
1430.00,50.365
1431.00,50.374
1432.00,50.383
1433.00,50.405
1434.00,50.401
1435.00,50.456
1436.00,50.458
1437.00,50.451
1438.00,50.469
1439.00,50.499
1440.00,50.514
1441.00,50.516
1442.00,50.534
1443.00,50.581
1444.00,50.577
1445.00,50.548
1446.00,50.597
1447.00,50.620
1448.00,50.652
1449.00,50.658
1450.00,50.655
1451.00,50.681
1452.00,50.692
1453.00,50.698
1454.00,50.708
1455.00,50.726
1456.00,50.751
1457.00,50.747
1458.00,50.762
1459.00,50.780
1460.00,50.803
1461.00,50.816
1462.00,50.841
1463.00,50.857
1464.00,50.863
1465.00,50.881
1466.00,50.880
1467.00,50.905
1468.00,50.936
1469.00,50.941
1470.00,50.948
1471.00,50.953
1472.00,50.975
1473.00,50.994
1474.00,51.015
1475.00,51.016
1476.00,51.021
1477.00,51.026
1478.00,51.037
1479.00,51.087
1480.00,51.080
1481.00,51.083
1482.00,51.122
1483.00,51.136
1484.00,51.140
1485.00,51.143
1486.00,51.159
1487.00,51.180
1488.00,51.187
1489.00,51.186
1490.00,51.206
1491.00,51.206
1492.00,51.227
1493.00,51.226
1494.00,51.244
1495.00,51.254
1496.00,51.265
1497.00,51.286
1498.00,51.273
1499.00,51.301
1500.00,51.327
1501.00, 
1502.00, 
1503.00, 
1504.00, 
1505.00, 
1506.00, 
1507.00, 
1508.00, 
1509.00, 
1510.00, 
1511.00, 
1512.00, 
1513.00, 
1514.00, 
1515.00, 
1516.00, 
1517.00, 
1518.00, 
1519.00, 
1520.00, 
1521.00, 
1522.00, 
1523.00, 
1524.00, 
1525.00, 
1526.00, 
1527.00, 
1528.00, 
1529.00, 
1530.00, 
1531.00, 
1532.00, 
1533.00, 
1534.00, 
1535.00, 
1536.00, 
1537.00, 
1538.00, 
1539.00, 
1540.00, 
1541.00, 
1542.00, 
1543.00, 
1544.00, 
1545.00, 
1546.00, 
1547.00, 
1548.00, 
1549.00, 
1550.00, 
1551.00, 
1552.00, 
1553.00, 
1554.00, 
1555.00, 
1556.00, 
1557.00, 
1558.00, 
1559.00, 
1560.00, 
1561.00, 
1562.00, 
1563.00, 
1564.00, 
1565.00, 
1566.00, 
1567.00, 
1568.00, 
1569.00, 
1570.00, 
1571.00, 
1572.00, 
1573.00, 
1574.00, 
1575.00, 
1576.00, 
1577.00, 
1578.00, 
1579.00, 
1580.00, 
1581.00, 
1582.00, 
1583.00, 
1584.00, 
1585.00, 
1586.00, 
1587.00, 
1588.00, 
1589.00, 
1590.00, 
1591.00, 
1592.00, 
1593.00, 
1594.00, 
1595.00, 
1596.00, 
1597.00, 
1598.00, 
1599.00, 
1600.00, 
1601.00, 
1602.00, 
1603.00, 
1604.00, 
1605.00, 
1606.00, 
1607.00, 
1608.00, 
1609.00, 
1610.00, 
1611.00, 
1612.00, 
1613.00, 
1614.00, 
1615.00, 
1616.00, 
1617.00, 
1618.00, 
1619.00, 
1620.00, 
1621.00, 
1622.00, 
1623.00, 
1624.00, 
1625.00, 
1626.00, 
1627.00, 
1628.00, 
1629.00, 
1630.00, 
1631.00, 
1632.00, 
1633.00, 
1634.00, 
1635.00, 
1636.00, 
1637.00, 
1638.00, 
1639.00, 
1640.00, 
1641.00, 
1642.00, 
1643.00, 
1644.00, 
1645.00, 
1646.00, 
1647.00, 
1648.00, 
1649.00, 
1650.00, 
1651.00, 
1652.00, 
1653.00, 
1654.00, 
1655.00, 
1656.00, 
1657.00, 
1658.00, 
1659.00, 
1660.00, 
1661.00, 
1662.00, 
1663.00, 
1664.00, 
1665.00, 
1666.00, 
1667.00, 
1668.00, 
1669.00, 
1670.00, 
1671.00, 
1672.00, 
1673.00, 
1674.00, 
1675.00, 
1676.00, 
1677.00, 
1678.00, 
1679.00, 
1680.00, 
1681.00, 
1682.00, 
1683.00, 
1684.00, 
1685.00, 
1686.00, 
1687.00, 
1688.00, 
1689.00, 
1690.00, 
1691.00, 
1692.00, 
1693.00, 
1694.00, 
1695.00, 
1696.00, 
1697.00, 
1698.00, 
1699.00, 
1700.00, 
1701.00, 
1702.00, 
1703.00, 
1704.00, 
1705.00, 
1706.00, 
1707.00, 
1708.00, 
1709.00, 
1710.00, 
1711.00, 
1712.00, 
1713.00, 
1714.00, 
1715.00, 
1716.00, 
1717.00, 
1718.00, 
1719.00, 
1720.00, 
1721.00, 
1722.00, 
1723.00, 
1724.00, 
1725.00, 
1726.00, 
1727.00, 
1728.00, 
1729.00, 
1730.00, 
1731.00, 
1732.00, 
1733.00, 
1734.00, 
1735.00, 
1736.00, 
1737.00, 
1738.00, 
1739.00, 
1740.00, 
1741.00, 
1742.00, 
1743.00, 
1744.00, 
1745.00, 
1746.00, 
1747.00, 
1748.00, 
1749.00, 
1750.00, 
1751.00, 
1752.00, 
1753.00, 
1754.00, 
1755.00, 
1756.00, 
1757.00, 
1758.00, 
1759.00, 
1760.00, 
1761.00, 
1762.00, 
1763.00, 
1764.00, 
1765.00, 
1766.00, 
1767.00, 
1768.00, 
1769.00, 
1770.00, 
1771.00, 
1772.00, 
1773.00, 
1774.00, 
1775.00, 
1776.00, 
1777.00, 
1778.00, 
1779.00, 
1780.00, 
1781.00, 
1782.00, 
1783.00, 
1784.00, 
1785.00, 
1786.00, 
1787.00, 
1788.00, 
1789.00, 
1790.00, 
1791.00, 
1792.00, 
1793.00, 
1794.00, 
1795.00, 
1796.00, 
1797.00, 
1798.00, 
1799.00, 
1800.00, 
1801.00, 
1802.00, 
1803.00, 
1804.00, 
1805.00, 
1806.00, 
1807.00, 
1808.00, 
1809.00, 
1810.00, 
1811.00, 
1812.00, 
1813.00, 
1814.00, 
1815.00, 
1816.00, 
1817.00, 
1818.00, 
1819.00, 
1820.00, 
1821.00, 
1822.00, 
1823.00, 
1824.00, 
1825.00, 
1826.00, 
1827.00, 
1828.00, 
1829.00, 
1830.00, 
1831.00, 
1832.00, 
1833.00, 
1834.00, 
1835.00, 
1836.00, 
1837.00, 
1838.00, 
1839.00, 
1840.00, 
1841.00, 
1842.00, 
1843.00, 
1844.00, 
1845.00, 
1846.00, 
1847.00, 
1848.00, 
1849.00, 
1850.00, 
1851.00, 
1852.00, 
1853.00, 
1854.00, 
1855.00, 
1856.00, 
1857.00, 
1858.00, 
1859.00, 
1860.00, 
1861.00, 
1862.00, 
1863.00, 
1864.00, 
1865.00, 
1866.00, 
1867.00, 
1868.00, 
1869.00, 
1870.00, 
1871.00, 
1872.00, 
1873.00, 
1874.00, 
1875.00, 
1876.00, 
1877.00, 
1878.00, 
1879.00, 
1880.00, 
1881.00, 
1882.00, 
1883.00, 
1884.00, 
1885.00, 
1886.00, 
1887.00, 
1888.00, 
1889.00, 
1890.00, 
1891.00, 
1892.00, 
1893.00, 
1894.00, 
1895.00, 
1896.00, 
1897.00, 
1898.00, 
1899.00, 
1900.00, 
1901.00, 
1902.00, 
1903.00, 
1904.00, 
1905.00, 
1906.00, 
1907.00, 
1908.00, 
1909.00, 
1910.00, 
1911.00, 
1912.00, 
1913.00, 
1914.00, 
1915.00, 
1916.00, 
1917.00, 
1918.00, 
1919.00, 
1920.00, 
1921.00, 
1922.00, 
1923.00, 
1924.00, 
1925.00, 
1926.00, 
1927.00, 
1928.00, 
1929.00, 
1930.00, 
1931.00, 
1932.00, 
1933.00, 
1934.00, 
1935.00, 
1936.00, 
1937.00, 
1938.00, 
1939.00, 
1940.00, 
1941.00, 
1942.00, 
1943.00, 
1944.00, 
1945.00, 
1946.00, 
1947.00, 
1948.00, 
1949.00, 
1950.00, 
1951.00, 
1952.00, 
1953.00, 
1954.00, 
1955.00, 
1956.00, 
1957.00, 
1958.00, 
1959.00, 
1960.00, 
1961.00, 
1962.00, 
1963.00, 
1964.00, 
1965.00, 
1966.00, 
1967.00, 
1968.00, 
1969.00, 
1970.00, 
1971.00, 
1972.00, 
1973.00, 
1974.00, 
1975.00, 
1976.00, 
1977.00, 
1978.00, 
1979.00, 
1980.00, 
1981.00, 
1982.00, 
1983.00, 
1984.00, 
1985.00, 
1986.00, 
1987.00, 
1988.00, 
1989.00, 
1990.00, 
1991.00, 
1992.00, 
1993.00, 
1994.00, 
1995.00, 
1996.00, 
1997.00, 
1998.00, 
1999.00, 
2000.00, 
2001.00, 
2002.00, 
2003.00, 
2004.00, 
2005.00, 
2006.00, 
2007.00, 
2008.00, 
2009.00, 
2010.00, 
2011.00, 
2012.00, 
2013.00, 
2014.00, 
2015.00, 
2016.00, 
2017.00, 
2018.00, 
2019.00, 
2020.00, 
2021.00, 
2022.00, 
2023.00, 
2024.00, 
2025.00, 
2026.00, 
2027.00, 
2028.00, 
2029.00, 
2030.00, 
2031.00, 
2032.00, 
2033.00, 
2034.00, 
2035.00, 
2036.00, 
2037.00, 
2038.00, 
2039.00, 
2040.00, 
2041.00, 
2042.00, 
2043.00, 
2044.00, 
2045.00, 
2046.00, 
2047.00, 
2048.00, 
2049.00, 
2050.00, 
2051.00, 
2052.00, 
2053.00, 
2054.00, 
2055.00, 
2056.00, 
2057.00, 
2058.00, 
2059.00, 
2060.00, 
2061.00, 
2062.00, 
2063.00, 
2064.00, 
2065.00, 
2066.00, 
2067.00, 
2068.00, 
2069.00, 
2070.00, 
2071.00, 
2072.00, 
2073.00, 
2074.00, 
2075.00, 
2076.00, 
2077.00, 
2078.00, 
2079.00, 
2080.00, 
2081.00, 
2082.00, 
2083.00, 
2084.00, 
2085.00, 
2086.00, 
2087.00, 
2088.00, 
2089.00, 
2090.00, 
2091.00, 
2092.00, 
2093.00, 
2094.00, 
2095.00, 
2096.00, 
2097.00, 
2098.00, 
2099.00, 
2100.00, 
2101.00, 
2102.00, 
2103.00, 
2104.00, 
2105.00, 
2106.00, 
2107.00, 
2108.00, 
2109.00, 
2110.00, 
2111.00, 
2112.00, 
2113.00, 
2114.00, 
2115.00, 
2116.00, 
2117.00, 
2118.00, 
2119.00, 
2120.00, 
2121.00, 
2122.00, 
2123.00, 
2124.00, 
2125.00, 
2126.00, 
2127.00, 
2128.00, 
2129.00, 
2130.00, 
2131.00, 
2132.00, 
2133.00, 
2134.00, 
2135.00, 
2136.00, 
2137.00, 
2138.00, 
2139.00, 
2140.00, 
2141.00, 
2142.00, 
2143.00, 
2144.00, 
2145.00, 
2146.00, 
2147.00, 
2148.00, 
2149.00, 
2150.00, 
2151.00, 
2152.00, 
2153.00, 
2154.00, 
2155.00, 
2156.00, 
2157.00, 
2158.00, 
2159.00, 
2160.00, 
2161.00, 
2162.00, 
2163.00, 
2164.00, 
2165.00, 
2166.00, 
2167.00, 
2168.00, 
2169.00, 
2170.00, 
2171.00, 
2172.00, 
2173.00, 
2174.00, 
2175.00, 
2176.00, 
2177.00, 
2178.00, 
2179.00, 
2180.00, 
2181.00, 
2182.00, 
2183.00, 
2184.00, 
2185.00, 
2186.00, 
2187.00, 
2188.00, 
2189.00, 
2190.00, 
2191.00, 
2192.00, 
2193.00, 
2194.00, 
2195.00, 
2196.00, 
2197.00, 
2198.00, 
2199.00, 
2200.00, 
2201.00, 
2202.00, 
2203.00, 
2204.00, 
2205.00, 
2206.00, 
2207.00, 
2208.00, 
2209.00, 
2210.00, 
2211.00, 
2212.00, 
2213.00, 
2214.00, 
2215.00, 
2216.00, 
2217.00, 
2218.00, 
2219.00, 
2220.00, 
2221.00, 
2222.00, 
2223.00, 
2224.00, 
2225.00, 
2226.00, 
2227.00, 
2228.00, 
2229.00, 
2230.00, 
2231.00, 
2232.00, 
2233.00, 
2234.00, 
2235.00, 
2236.00, 
2237.00, 
2238.00, 
2239.00, 
2240.00, 
2241.00, 
2242.00, 
2243.00, 
2244.00, 
2245.00, 
2246.00, 
2247.00, 
2248.00, 
2249.00, 
2250.00, 
2251.00, 
2252.00, 
2253.00, 
2254.00, 
2255.00, 
2256.00, 
2257.00, 
2258.00, 
2259.00, 
2260.00, 
2261.00, 
2262.00, 
2263.00, 
2264.00, 
2265.00, 
2266.00, 
2267.00, 
2268.00, 
2269.00, 
2270.00, 
2271.00, 
2272.00, 
2273.00, 
2274.00, 
2275.00, 
2276.00, 
2277.00, 
2278.00, 
2279.00, 
2280.00, 
2281.00, 
2282.00, 
2283.00, 
2284.00, 
2285.00, 
2286.00, 
2287.00, 
2288.00, 
2289.00, 
2290.00, 
2291.00, 
2292.00, 
2293.00, 
2294.00, 
2295.00, 
2296.00, 
2297.00, 
2298.00, 
2299.00, 
2300.00, 
2301.00, 
2302.00, 
2303.00, 
2304.00, 
2305.00, 
2306.00, 
2307.00, 
2308.00, 
2309.00, 
2310.00, 
2311.00, 
2312.00, 
2313.00, 
2314.00, 
2315.00, 
2316.00, 
2317.00, 
2318.00, 
2319.00, 
2320.00, 
2321.00, 
2322.00, 
2323.00, 
2324.00, 
2325.00, 
2326.00, 
2327.00, 
2328.00, 
2329.00, 
2330.00, 
2331.00, 
2332.00, 
2333.00, 
2334.00, 
2335.00, 
2336.00, 
2337.00, 
2338.00, 
2339.00, 
2340.00, 
2341.00, 
2342.00, 
2343.00, 
2344.00, 
2345.00, 
2346.00, 
2347.00, 
2348.00, 
2349.00, 
2350.00, 
2351.00, 
2352.00, 
2353.00, 
2354.00, 
2355.00, 
2356.00, 
2357.00, 
2358.00, 
2359.00, 
2360.00, 
2361.00, 
2362.00, 
2363.00, 
2364.00, 
2365.00, 
2366.00, 
2367.00, 
2368.00, 
2369.00, 
2370.00, 
2371.00, 
2372.00, 
2373.00, 
2374.00, 
2375.00, 
2376.00, 
2377.00, 
2378.00, 
2379.00, 
2380.00, 
2381.00, 
2382.00, 
2383.00, 
2384.00, 
2385.00, 
2386.00, 
2387.00, 
2388.00, 
2389.00, 
2390.00, 
2391.00, 
2392.00, 
2393.00, 
2394.00, 
2395.00, 
2396.00, 
2397.00, 
2398.00, 
2399.00, 
2400.00, 
2401.00, 
2402.00, 
2403.00, 
2404.00, 
2405.00, 
2406.00, 
2407.00, 
2408.00, 
2409.00, 
2410.00, 
2411.00, 
2412.00, 
2413.00, 
2414.00, 
2415.00, 
2416.00, 
2417.00, 
2418.00, 
2419.00, 
2420.00, 
2421.00, 
2422.00, 
2423.00, 
2424.00, 
2425.00, 
2426.00, 
2427.00, 
2428.00, 
2429.00, 
2430.00, 
2431.00, 
2432.00, 
2433.00, 
2434.00, 
2435.00, 
2436.00, 
2437.00, 
2438.00, 
2439.00, 
2440.00, 
2441.00, 
2442.00, 
2443.00, 
2444.00, 
2445.00, 
2446.00, 
2447.00, 
2448.00, 
2449.00, 
2450.00, 
2451.00, 
2452.00, 
2453.00, 
2454.00, 
2455.00, 
2456.00, 
2457.00, 
2458.00, 
2459.00, 
2460.00, 
2461.00, 
2462.00, 
2463.00, 
2464.00, 
2465.00, 
2466.00, 
2467.00, 
2468.00, 
2469.00, 
2470.00, 
2471.00, 
2472.00, 
2473.00, 
2474.00, 
2475.00, 
2476.00, 
2477.00, 
2478.00, 
2479.00, 
2480.00, 
2481.00, 
2482.00, 
2483.00, 
2484.00, 
2485.00, 
2486.00, 
2487.00, 
2488.00, 
2489.00, 
2490.00, 
2491.00, 
2492.00, 
2493.00, 
2494.00, 
2495.00, 
2496.00, 
2497.00, 
2498.00, 
2499.00, 
2500.00, 
2501.00, 
2502.00, 
2503.00, 
2504.00, 
2505.00, 
2506.00, 
2507.00, 
2508.00, 
2509.00, 
2510.00, 
2511.00, 
2512.00, 
2513.00, 
2514.00, 
2515.00, 
2516.00, 
2517.00, 
2518.00, 
2519.00, 
2520.00, 
2521.00, 
2522.00, 
2523.00, 
2524.00, 
2525.00, 
2526.00, 
2527.00, 
2528.00, 
2529.00, 
2530.00, 
2531.00, 
2532.00, 
2533.00, 
2534.00, 
2535.00, 
2536.00, 
2537.00, 
2538.00, 
2539.00, 
2540.00, 
2541.00, 
2542.00, 
2543.00, 
2544.00, 
2545.00, 
2546.00, 
2547.00, 
2548.00, 
2549.00, 
2550.00, 
2551.00, 
2552.00, 
2553.00, 
2554.00, 
2555.00, 
2556.00, 
2557.00, 
2558.00, 
2559.00, 
2560.00, 
2561.00, 
2562.00, 
2563.00, 
2564.00, 
2565.00, 
2566.00, 
2567.00, 
2568.00, 
2569.00, 
2570.00, 
2571.00, 
2572.00, 
2573.00, 
2574.00, 
2575.00, 
2576.00, 
2577.00, 
2578.00, 
2579.00, 
2580.00, 
2581.00, 
2582.00, 
2583.00, 
2584.00, 
2585.00, 
2586.00, 
2587.00, 
2588.00, 
2589.00, 
2590.00, 
2591.00, 
2592.00, 
2593.00, 
2594.00, 
2595.00, 
2596.00, 
2597.00, 
2598.00, 
2599.00, 
2600.00, 
