"2cP2 - RawData"
"Wavelength nm.","T%"
200.00,-0.001
201.00,-0.001
202.00,0.004
203.00,0.001
204.00,-0.001
205.00,0.003
206.00,0.000
207.00,0.002
208.00,0.002
209.00,0.002
210.00,0.002
211.00,0.006
212.00,-0.000
213.00,-0.002
214.00,0.001
215.00,-0.000
216.00,0.002
217.00,0.001
218.00,0.005
219.00,0.002
220.00,0.000
221.00,0.001
222.00,-0.001
223.00,0.001
224.00,0.000
225.00,0.004
226.00,0.001
227.00,0.002
228.00,-0.000
229.00,0.001
230.00,0.001
231.00,0.001
232.00,0.001
233.00,0.001
234.00,0.002
235.00,-0.001
236.00,-0.001
237.00,0.003
238.00,0.001
239.00,-0.001
240.00,-0.001
241.00,-0.000
242.00,-0.001
243.00,0.002
244.00,-0.000
245.00,-0.000
246.00,-0.000
247.00,0.000
248.00,0.003
249.00,-0.000
250.00,0.002
251.00,0.001
252.00,0.001
253.00,-0.000
254.00,-0.001
255.00,-0.000
256.00,0.001
257.00,-0.001
258.00,0.001
259.00,-0.001
260.00,-0.000
261.00,-0.000
262.00,-0.001
263.00,-0.001
264.00,-0.000
265.00,-0.001
266.00,0.000
267.00,0.001
268.00,0.001
269.00,0.001
270.00,-0.000
271.00,0.001
272.00,0.002
273.00,-0.000
274.00,-0.000
275.00,0.002
276.00,-0.000
277.00,-0.001
278.00,-0.000
279.00,0.001
280.00,0.000
281.00,-0.001
282.00,0.001
283.00,-0.000
284.00,-0.000
285.00,0.001
286.00,0.002
287.00,0.000
288.00,-0.001
289.00,-0.002
290.00,-0.000
291.00,0.001
292.00,-0.000
293.00,0.001
294.00,0.001
295.00,-0.000
296.00,0.000
297.00,-0.001
298.00,-0.000
299.00,0.002
300.00,0.003
301.00,0.003
302.00,0.003
303.00,0.007
304.00,0.009
305.00,0.016
306.00,0.023
307.00,0.037
308.00,0.054
309.00,0.084
310.00,0.119
311.00,0.161
312.00,0.218
313.00,0.298
314.00,0.395
315.00,0.513
316.00,0.657
317.00,0.823
318.00,1.008
319.00,1.235
320.00,1.515
321.00,1.814
322.00,2.142
323.00,2.512
324.00,2.924
325.00,3.324
326.00,3.762
327.00,4.236
328.00,4.726
329.00,5.232
330.00,5.782
331.00,6.325
332.00,6.875
333.00,7.426
334.00,7.993
335.00,8.556
336.00,9.080
337.00,9.563
338.00,10.229
339.00,10.751
340.00,11.264
341.00,11.791
342.00,12.261
343.00,12.729
344.00,13.232
345.00,13.561
346.00,13.978
347.00,14.350
348.00,14.731
349.00,15.076
350.00,15.363
351.00,15.656
352.00,15.920
353.00,16.190
354.00,16.422
355.00,16.640
356.00,16.882
357.00,17.050
358.00,17.247
359.00,17.393
360.00,17.543
361.00,17.649
362.00,17.818
363.00,17.908
364.00,17.957
365.00,18.058
366.00,18.116
367.00,18.165
368.00,18.200
369.00,18.279
370.00,18.299
371.00,18.258
372.00,18.254
373.00,18.220
374.00,18.201
375.00,18.184
376.00,18.122
377.00,18.086
378.00,17.996
379.00,17.923
380.00,17.881
381.00,17.813
382.00,17.803
383.00,17.752
384.00,17.792
385.00,17.819
386.00,17.772
387.00,17.796
388.00,17.785
389.00,17.778
390.00,17.783
391.00,17.766
392.00,17.769
393.00,17.750
394.00,17.727
395.00,17.707
396.00,17.705
397.00,17.705
398.00,17.679
399.00,17.652
400.00,17.625
401.00,17.589
402.00,17.611
403.00,17.575
404.00,17.578
405.00,17.559
406.00,17.531
407.00,17.461
408.00,17.447
409.00,17.392
410.00,17.339
411.00,17.330
412.00,17.283
413.00,17.265
414.00,17.243
415.00,17.223
416.00,17.255
417.00,17.232
418.00,17.218
419.00,17.249
420.00,17.247
421.00,17.265
422.00,17.236
423.00,17.247
424.00,17.254
425.00,17.271
426.00,17.284
427.00,17.316
428.00,17.288
429.00,17.371
430.00,17.393
431.00,17.449
432.00,17.472
433.00,17.521
434.00,17.555
435.00,17.615
436.00,17.656
437.00,17.687
438.00,17.717
439.00,17.816
440.00,17.862
441.00,17.933
442.00,17.987
443.00,18.042
444.00,18.128
445.00,18.203
446.00,18.256
447.00,18.368
448.00,18.434
449.00,18.525
450.00,18.601
451.00,18.696
452.00,18.803
453.00,18.902
454.00,18.986
455.00,19.083
456.00,19.202
457.00,19.281
458.00,19.383
459.00,19.474
460.00,19.607
461.00,19.706
462.00,19.815
463.00,19.957
464.00,20.074
465.00,20.176
466.00,20.321
467.00,20.412
468.00,20.519
469.00,20.642
470.00,20.743
471.00,20.826
472.00,20.945
473.00,21.016
474.00,21.127
475.00,21.276
476.00,21.348
477.00,21.507
478.00,21.627
479.00,21.768
480.00,21.936
481.00,22.069
482.00,22.169
483.00,22.321
484.00,22.448
485.00,22.621
486.00,22.752
487.00,22.919
488.00,23.064
489.00,23.221
490.00,23.365
491.00,23.504
492.00,23.616
493.00,23.810
494.00,23.926
495.00,24.009
496.00,24.132
497.00,24.274
498.00,24.424
499.00,24.577
500.00,24.656
501.00,24.789
502.00,24.983
503.00,25.090
504.00,25.259
505.00,25.373
506.00,25.492
507.00,25.576
508.00,25.734
509.00,25.904
510.00,25.974
511.00,26.105
512.00,26.260
513.00,26.390
514.00,26.492
515.00,26.583
516.00,26.702
517.00,26.883
518.00,27.056
519.00,27.104
520.00,27.272
521.00,27.355
522.00,27.445
523.00,27.554
524.00,27.610
525.00,27.778
526.00,27.862
527.00,27.995
528.00,28.051
529.00,28.183
530.00,28.275
531.00,28.446
532.00,28.561
533.00,28.663
534.00,28.758
535.00,28.880
536.00,28.951
537.00,29.032
538.00,29.147
539.00,29.238
540.00,29.310
541.00,29.396
542.00,29.489
543.00,29.549
544.00,29.652
545.00,29.721
546.00,29.792
547.00,29.929
548.00,30.026
549.00,30.060
550.00,30.182
551.00,30.266
552.00,30.375
553.00,30.418
554.00,30.498
555.00,30.552
556.00,30.663
557.00,30.721
558.00,30.768
559.00,30.859
560.00,30.973
561.00,30.992
562.00,31.087
563.00,31.086
564.00,31.194
565.00,31.268
566.00,31.220
567.00,31.324
568.00,31.347
569.00,31.368
570.00,31.433
571.00,31.491
572.00,31.538
573.00,31.579
574.00,31.626
575.00,31.580
576.00,31.738
577.00,31.845
578.00,31.912
579.00,31.965
580.00,32.041
581.00,32.212
582.00,32.212
583.00,32.247
584.00,32.456
585.00,32.441
586.00,32.413
587.00,32.502
588.00,32.514
589.00,32.549
590.00,32.711
591.00,32.755
592.00,32.774
593.00,32.883
594.00,32.968
595.00,32.991
596.00,33.045
597.00,33.106
598.00,33.210
599.00,33.218
600.00,33.405
601.00,33.436
602.00,33.421
603.00,33.498
604.00,33.522
605.00,33.574
606.00,33.663
607.00,33.737
608.00,33.818
609.00,33.846
610.00,33.877
611.00,33.873
612.00,33.973
613.00,33.963
614.00,34.063
615.00,34.126
616.00,34.210
617.00,34.270
618.00,34.370
619.00,34.436
620.00,34.396
621.00,34.496
622.00,34.611
623.00,34.637
624.00,34.725
625.00,34.838
626.00,34.853
627.00,34.904
628.00,35.024
629.00,35.083
630.00,35.094
631.00,35.120
632.00,35.256
633.00,35.419
634.00,35.442
635.00,35.584
636.00,35.667
637.00,35.818
638.00,35.840
639.00,35.923
640.00,35.994
641.00,36.050
642.00,36.171
643.00,36.251
644.00,36.319
645.00,36.436
646.00,36.570
647.00,36.603
648.00,36.753
649.00,36.907
650.00,36.882
651.00,37.013
652.00,37.094
653.00,37.186
654.00,37.332
655.00,37.455
656.00,37.574
657.00,37.837
658.00,37.936
659.00,37.948
660.00,37.978
661.00,37.983
662.00,38.200
663.00,38.274
664.00,38.423
665.00,38.462
666.00,38.540
667.00,38.687
668.00,38.816
669.00,38.890
670.00,39.036
671.00,39.046
672.00,39.088
673.00,39.426
674.00,39.522
675.00,39.523
676.00,39.779
677.00,39.786
678.00,39.827
679.00,39.992
680.00,40.089
681.00,40.317
682.00,40.350
683.00,40.458
684.00,40.625
685.00,40.690
686.00,40.757
687.00,41.051
688.00,41.127
689.00,41.104
690.00,41.309
691.00,41.448
692.00,41.494
693.00,41.577
694.00,41.757
695.00,41.961
696.00,41.927
697.00,42.057
698.00,42.215
699.00,42.250
700.00,42.431
701.00,42.523
702.00,42.675
703.00,42.863
704.00,42.880
705.00,43.040
706.00,43.027
707.00,43.203
708.00,43.196
709.00,43.373
710.00,43.666
711.00,43.517
712.00,43.607
713.00,43.810
714.00,43.811
715.00,43.901
716.00,43.959
717.00,44.077
718.00,44.214
719.00,44.250
720.00,44.491
721.00,48.577
722.00,48.537
723.00,48.639
724.00,48.623
725.00,48.614
726.00,48.684
727.00,48.729
728.00,48.820
729.00,48.878
730.00,48.965
731.00,49.003
732.00,49.099
733.00,49.119
734.00,49.193
735.00,49.233
736.00,49.258
737.00,49.339
738.00,49.435
739.00,49.430
740.00,49.498
741.00,49.545
742.00,49.622
743.00,49.662
744.00,49.693
745.00,49.687
746.00,49.654
747.00,49.698
748.00,49.717
749.00,49.724
750.00,49.771
751.00,49.734
752.00,49.898
753.00,49.895
754.00,49.922
755.00,49.963
756.00,49.953
757.00,50.062
758.00,49.967
759.00,50.036
760.00,50.101
761.00,50.075
762.00,50.131
763.00,50.257
764.00,50.247
765.00,50.201
766.00,50.250
767.00,50.306
768.00,50.426
769.00,50.432
770.00,50.416
771.00,50.447
772.00,50.369
773.00,50.503
774.00,50.499
775.00,50.578
776.00,50.560
777.00,50.591
778.00,50.615
779.00,50.606
780.00,50.657
781.00,50.606
782.00,50.657
783.00,50.633
784.00,50.723
785.00,50.709
786.00,50.633
787.00,50.684
788.00,50.718
789.00,50.707
790.00,50.664
791.00,50.712
792.00,50.621
793.00,50.699
794.00,50.668
795.00,50.594
796.00,50.719
797.00,50.667
798.00,50.622
799.00,50.630
800.00,50.624
801.00,50.699
802.00,50.620
803.00,50.736
804.00,50.721
805.00,50.642
806.00,50.697
807.00,50.629
808.00,50.679
809.00,50.659
810.00,50.663
811.00,50.583
812.00,50.632
813.00,50.626
814.00,50.645
815.00,50.657
816.00,50.583
817.00,50.633
818.00,50.600
819.00,50.567
820.00,50.564
821.00,50.559
822.00,50.557
823.00,50.585
824.00,50.533
825.00,50.530
826.00,50.542
827.00,50.682
828.00,50.574
829.00,50.503
830.00,50.431
831.00,53.021
832.00,53.009
833.00,52.966
834.00,52.985
835.00,52.965
836.00,52.963
837.00,52.965
838.00,52.915
839.00,52.893
840.00,52.875
841.00,52.901
842.00,52.889
843.00,52.874
844.00,52.874
845.00,52.780
846.00,52.843
847.00,52.811
848.00,52.920
849.00,52.754
850.00,52.719
851.00,52.653
852.00,52.683
853.00,52.652
854.00,52.637
855.00,52.598
856.00,52.557
857.00,52.579
858.00,52.518
859.00,52.500
860.00,52.476
861.00,52.490
862.00,52.439
863.00,52.487
864.00,52.435
865.00,52.463
866.00,52.436
867.00,52.438
868.00,52.419
869.00,52.429
870.00,52.424
871.00,52.403
872.00,52.408
873.00,52.348
874.00,52.389
875.00,52.350
876.00,52.348
877.00,52.342
878.00,52.325
879.00,52.302
880.00,52.303
881.00,52.287
882.00,52.304
883.00,52.294
884.00,52.249
885.00,52.228
886.00,52.223
887.00,52.203
888.00,52.203
889.00,52.170
890.00,52.145
891.00,52.129
892.00,52.098
893.00,52.095
894.00,52.098
895.00,52.076
896.00,52.047
897.00,52.052
898.00,52.014
899.00,52.005
900.00,52.006
901.00,51.989
902.00,51.993
903.00,51.955
904.00,51.958
905.00,51.923
906.00,51.907
907.00,51.890
908.00,51.861
909.00,51.852
910.00,51.823
911.00,51.833
912.00,51.811
913.00,51.769
914.00,51.763
915.00,51.748
916.00,51.745
917.00,51.713
918.00,51.646
919.00,51.757
920.00,51.632
921.00,51.623
922.00,51.616
923.00,51.621
924.00,51.586
925.00,51.571
926.00,51.546
927.00,51.524
928.00,51.590
929.00,51.500
930.00,51.486
931.00,51.503
932.00,51.430
933.00,51.421
934.00,51.599
935.00,51.402
936.00,51.391
937.00,51.391
938.00,51.334
939.00,51.345
940.00,51.292
941.00,51.298
942.00,51.256
943.00,51.251
944.00,51.234
945.00,51.225
946.00,51.223
947.00,51.164
948.00,51.138
949.00,51.186
950.00,51.132
951.00,51.095
952.00,51.074
953.00,51.027
954.00,51.027
955.00,50.971
956.00,50.977
957.00,50.920
958.00,50.943
959.00,50.889
960.00,50.873
961.00,50.863
962.00,50.876
963.00,50.835
964.00,50.814
965.00,50.787
966.00,50.802
967.00,50.814
968.00,50.770
969.00,50.795
970.00,50.779
971.00,50.799
972.00,50.770
973.00,50.782
974.00,50.810
975.00,50.787
976.00,50.794
977.00,50.766
978.00,50.802
979.00,50.779
980.00,50.791
981.00,50.797
982.00,50.777
983.00,50.797
984.00,50.761
985.00,50.778
986.00,50.730
987.00,50.744
988.00,50.714
989.00,50.699
990.00,50.706
991.00,50.683
992.00,50.703
993.00,50.676
994.00,50.661
995.00,50.718
996.00,50.623
997.00,50.625
998.00,50.581
999.00,50.606
1000.00,50.568
1001.00,50.571
1002.00,50.565
1003.00,50.555
1004.00,50.546
1005.00,50.515
1006.00,50.522
1007.00,50.509
1008.00,50.488
1009.00,50.486
1010.00,50.476
1011.00,50.454
1012.00,50.406
1013.00,50.438
1014.00,50.385
1015.00,50.400
1016.00,50.366
1017.00,50.362
1018.00,50.348
1019.00,50.322
1020.00,50.315
1021.00,50.297
1022.00,50.308
1023.00,50.248
1024.00,50.276
1025.00,50.254
1026.00,50.240
1027.00,50.207
1028.00,50.195
1029.00,50.185
1030.00,50.151
1031.00,50.151
1032.00,50.108
1033.00,50.116
1034.00,50.091
1035.00,50.063
1036.00,50.043
1037.00,50.016
1038.00,50.000
1039.00,49.970
1040.00,49.984
1041.00,49.928
1042.00,49.920
1043.00,49.892
1044.00,49.933
1045.00,49.909
1046.00,49.912
1047.00,49.922
1048.00,49.933
1049.00,49.942
1050.00,49.948
1051.00,49.972
1052.00,49.973
1053.00,49.984
1054.00,49.985
1055.00,50.013
1056.00,50.053
1057.00,50.009
1058.00,49.992
1059.00,49.983
1060.00,49.998
1061.00,49.982
1062.00,49.961
1063.00,49.971
1064.00,49.953
1065.00,49.925
1066.00,49.928
1067.00,49.921
1068.00,49.942
1069.00,49.891
1070.00,49.876
1071.00,49.870
1072.00,49.879
1073.00,49.846
1074.00,49.858
1075.00,49.836
1076.00,49.828
1077.00,49.810
1078.00,49.811
1079.00,49.790
1080.00,49.784
1081.00,49.769
1082.00,49.782
1083.00,49.755
1084.00,49.750
1085.00,49.753
1086.00,49.734
1087.00,49.722
1088.00,49.710
1089.00,49.699
1090.00,49.703
1091.00,49.688
1092.00,49.684
1093.00,49.656
1094.00,49.633
1095.00,49.638
1096.00,49.621
1097.00,49.599
1098.00,49.608
1099.00,49.595
1100.00,49.583
1101.00,49.567
1102.00,49.560
1103.00,49.557
1104.00,49.567
1105.00,49.532
1106.00,49.532
1107.00,49.543
1108.00,49.532
1109.00,49.509
1110.00,49.512
1111.00,49.508
1112.00,49.503
1113.00,49.483
1114.00,49.490
1115.00,49.479
1116.00,49.469
1117.00,49.463
1118.00,49.456
1119.00,49.446
1120.00,49.444
1121.00,49.434
1122.00,49.415
1123.00,49.422
1124.00,49.404
1125.00,49.395
1126.00,49.396
1127.00,49.391
1128.00,49.368
1129.00,49.358
1130.00,49.339
1131.00,49.344
1132.00,49.357
1133.00,49.351
1134.00,49.339
1135.00,49.324
1136.00,49.330
1137.00,49.327
1138.00,49.322
1139.00,49.328
1140.00,49.313
1141.00,49.294
1142.00,49.297
1143.00,49.307
1144.00,49.269
1145.00,49.273
1146.00,49.273
1147.00,49.256
1148.00,49.250
1149.00,49.256
1150.00,49.255
1151.00,49.260
1152.00,49.237
1153.00,49.224
1154.00,49.221
1155.00,49.227
1156.00,49.218
1157.00,49.225
1158.00,49.210
1159.00,49.218
1160.00,49.202
1161.00,49.203
1162.00,49.196
1163.00,49.194
1164.00,49.189
1165.00,49.184
1166.00,49.188
1167.00,49.181
1168.00,49.186
1169.00,49.180
1170.00,49.188
1171.00,49.164
1172.00,49.169
1173.00,49.160
1174.00,49.156
1175.00,49.153
1176.00,49.149
1177.00,49.143
1178.00,49.143
1179.00,49.156
1180.00,49.136
1181.00,49.158
1182.00,49.154
1183.00,49.144
1184.00,49.136
1185.00,49.143
1186.00,49.122
1187.00,49.125
1188.00,49.109
1189.00,49.121
1190.00,49.107
1191.00,49.102
1192.00,49.122
1193.00,49.098
1194.00,49.102
1195.00,49.074
1196.00,49.104
1197.00,49.108
1198.00,49.107
1199.00,49.110
1200.00,49.102
1201.00,49.111
1202.00,49.099
1203.00,49.099
1204.00,49.083
1205.00,49.091
1206.00,49.086
1207.00,49.081
1208.00,49.083
1209.00,49.085
1210.00,49.089
1211.00,49.079
1212.00,49.096
1213.00,49.056
1214.00,49.085
1215.00,49.070
1216.00,49.071
1217.00,49.067
1218.00,49.049
1219.00,49.096
1220.00,49.060
1221.00,49.073
1222.00,49.075
1223.00,49.099
1224.00,49.094
1225.00,49.068
1226.00,49.078
1227.00,49.055
1228.00,49.076
1229.00,49.075
1230.00,49.109
1231.00,49.098
1232.00,49.115
1233.00,49.111
1234.00,49.107
1235.00,49.106
1236.00,49.113
1237.00,49.112
1238.00,49.095
1239.00,49.109
1240.00,49.096
1241.00,49.107
1242.00,49.100
1243.00,49.116
1244.00,49.100
1245.00,49.110
1246.00,49.132
1247.00,49.131
1248.00,49.131
1249.00,49.143
1250.00,49.134
1251.00,49.121
1252.00,49.140
1253.00,49.127
1254.00,49.148
1255.00,49.137
1256.00,49.130
1257.00,49.106
1258.00,49.149
1259.00,49.142
1260.00,49.165
1261.00,49.159
1262.00,49.145
1263.00,49.146
1264.00,49.161
1265.00,49.152
1266.00,49.182
1267.00,49.189
1268.00,49.210
1269.00,49.195
1270.00,49.190
1271.00,49.181
1272.00,49.190
1273.00,49.191
1274.00,49.193
1275.00,49.203
1276.00,49.199
1277.00,49.202
1278.00,49.201
1279.00,49.211
1280.00,49.210
1281.00,49.225
1282.00,49.225
1283.00,49.204
1284.00,49.257
1285.00,49.218
1286.00,49.225
1287.00,49.217
1288.00,49.240
1289.00,49.241
1290.00,49.262
1291.00,49.250
1292.00,49.249
1293.00,49.244
1294.00,49.279
1295.00,49.270
1296.00,49.271
1297.00,49.279
1298.00,49.297
1299.00,49.288
1300.00,49.300
1301.00,49.298
1302.00,49.310
1303.00,49.324
1304.00,49.300
1305.00,49.322
1306.00,49.303
1307.00,49.328
1308.00,49.337
1309.00,49.334
1310.00,49.333
1311.00,49.344
1312.00,49.340
1313.00,49.334
1314.00,49.340
1315.00,49.344
1316.00,49.352
1317.00,49.368
1318.00,49.372
1319.00,49.370
1320.00,49.383
1321.00,49.527
1322.00,49.547
1323.00,49.527
1324.00,49.540
1325.00,49.528
1326.00,49.533
1327.00,49.533
1328.00,49.523
1329.00,49.519
1330.00,49.532
1331.00,49.520
1332.00,49.523
1333.00,49.526
1334.00,49.561
1335.00,49.575
1336.00,49.619
1337.00,49.634
1338.00,49.693
1339.00,49.750
1340.00,49.790
1341.00,49.856
1342.00,49.936
1343.00,49.958
1344.00,49.994
1345.00,50.060
1346.00,50.107
1347.00,50.107
1348.00,50.135
1349.00,50.171
1350.00,50.196
1351.00,50.216
1352.00,50.222
1353.00,50.229
1354.00,50.232
1355.00,50.205
1356.00,50.241
1357.00,50.233
1358.00,50.275
1359.00,50.243
1360.00,50.273
1361.00,49.826
1362.00,50.235
1363.00,50.324
1364.00,50.248
1365.00,50.255
1366.00,50.315
1367.00,50.235
1368.00,50.204
1369.00,50.298
1370.00,50.215
1371.00,50.226
1372.00,50.218
1373.00,50.218
1374.00,50.253
1375.00,50.215
1376.00,50.212
1377.00,50.195
1378.00,50.252
1379.00,50.238
1380.00,50.230
1381.00,50.262
1382.00,50.150
1383.00,50.212
1384.00,50.152
1385.00,50.131
1386.00,50.223
1387.00,50.187
1388.00,50.121
1389.00,50.141
1390.00,50.265
1391.00,50.185
1392.00,50.166
1393.00,50.188
1394.00,50.166
1395.00,50.167
1396.00,50.117
1397.00,50.151
1398.00,50.247
1399.00,50.158
1400.00,50.117
1401.00,50.192
1402.00,50.286
1403.00,50.244
1404.00,50.253
1405.00,50.241
1406.00,50.234
1407.00,50.259
1408.00,50.250
1409.00,50.216
1410.00,50.266
1411.00,50.275
1412.00,50.294
1413.00,50.229
1414.00,50.236
1415.00,50.285
1416.00,50.318
1417.00,50.309
1418.00,50.303
1419.00,50.293
1420.00,50.318
1421.00,50.376
1422.00,50.360
1423.00,50.364
1424.00,50.383
1425.00,50.383
1426.00,50.408
1427.00,50.427
1428.00,50.435
1429.00,50.435
1430.00,50.459
1431.00,50.467
1432.00,50.481
1433.00,50.506
1434.00,50.477
1435.00,50.553
1436.00,50.548
1437.00,50.546
1438.00,50.554
1439.00,50.589
1440.00,50.607
1441.00,50.594
1442.00,50.613
1443.00,50.663
1444.00,50.663
1445.00,50.641
1446.00,50.681
1447.00,50.698
1448.00,50.722
1449.00,50.729
1450.00,50.736
1451.00,50.753
1452.00,50.764
1453.00,50.765
1454.00,50.788
1455.00,50.801
1456.00,50.823
1457.00,50.827
1458.00,50.837
1459.00,50.879
1460.00,50.898
1461.00,50.906
1462.00,50.923
1463.00,50.935
1464.00,50.943
1465.00,50.951
1466.00,50.950
1467.00,50.971
1468.00,51.023
1469.00,51.019
1470.00,51.027
1471.00,51.042
1472.00,51.047
1473.00,51.062
1474.00,51.084
1475.00,51.088
1476.00,51.099
1477.00,51.107
1478.00,51.124
1479.00,51.138
1480.00,51.136
1481.00,51.146
1482.00,51.177
1483.00,51.174
1484.00,51.198
1485.00,51.210
1486.00,51.219
1487.00,51.249
1488.00,51.237
1489.00,51.242
1490.00,51.254
1491.00,51.266
1492.00,51.296
1493.00,51.294
1494.00,51.303
1495.00,51.310
1496.00,51.318
1497.00,51.327
1498.00,51.330
1499.00,51.359
1500.00,51.376
1501.00, 
1502.00, 
1503.00, 
1504.00, 
1505.00, 
1506.00, 
1507.00, 
1508.00, 
1509.00, 
1510.00, 
1511.00, 
1512.00, 
1513.00, 
1514.00, 
1515.00, 
1516.00, 
1517.00, 
1518.00, 
1519.00, 
1520.00, 
1521.00, 
1522.00, 
1523.00, 
1524.00, 
1525.00, 
1526.00, 
1527.00, 
1528.00, 
1529.00, 
1530.00, 
1531.00, 
1532.00, 
1533.00, 
1534.00, 
1535.00, 
1536.00, 
1537.00, 
1538.00, 
1539.00, 
1540.00, 
1541.00, 
1542.00, 
1543.00, 
1544.00, 
1545.00, 
1546.00, 
1547.00, 
1548.00, 
1549.00, 
1550.00, 
1551.00, 
1552.00, 
1553.00, 
1554.00, 
1555.00, 
1556.00, 
1557.00, 
1558.00, 
1559.00, 
1560.00, 
1561.00, 
1562.00, 
1563.00, 
1564.00, 
1565.00, 
1566.00, 
1567.00, 
1568.00, 
1569.00, 
1570.00, 
1571.00, 
1572.00, 
1573.00, 
1574.00, 
1575.00, 
1576.00, 
1577.00, 
1578.00, 
1579.00, 
1580.00, 
1581.00, 
1582.00, 
1583.00, 
1584.00, 
1585.00, 
1586.00, 
1587.00, 
1588.00, 
1589.00, 
1590.00, 
1591.00, 
1592.00, 
1593.00, 
1594.00, 
1595.00, 
1596.00, 
1597.00, 
1598.00, 
1599.00, 
1600.00, 
1601.00, 
1602.00, 
1603.00, 
1604.00, 
1605.00, 
1606.00, 
1607.00, 
1608.00, 
1609.00, 
1610.00, 
1611.00, 
1612.00, 
1613.00, 
1614.00, 
1615.00, 
1616.00, 
1617.00, 
1618.00, 
1619.00, 
1620.00, 
1621.00, 
1622.00, 
1623.00, 
1624.00, 
1625.00, 
1626.00, 
1627.00, 
1628.00, 
1629.00, 
1630.00, 
1631.00, 
1632.00, 
1633.00, 
1634.00, 
1635.00, 
1636.00, 
1637.00, 
1638.00, 
1639.00, 
1640.00, 
1641.00, 
1642.00, 
1643.00, 
1644.00, 
1645.00, 
1646.00, 
1647.00, 
1648.00, 
1649.00, 
1650.00, 
1651.00, 
1652.00, 
1653.00, 
1654.00, 
1655.00, 
1656.00, 
1657.00, 
1658.00, 
1659.00, 
1660.00, 
1661.00, 
1662.00, 
1663.00, 
1664.00, 
1665.00, 
1666.00, 
1667.00, 
1668.00, 
1669.00, 
1670.00, 
1671.00, 
1672.00, 
1673.00, 
1674.00, 
1675.00, 
1676.00, 
1677.00, 
1678.00, 
1679.00, 
1680.00, 
1681.00, 
1682.00, 
1683.00, 
1684.00, 
1685.00, 
1686.00, 
1687.00, 
1688.00, 
1689.00, 
1690.00, 
1691.00, 
1692.00, 
1693.00, 
1694.00, 
1695.00, 
1696.00, 
1697.00, 
1698.00, 
1699.00, 
1700.00, 
1701.00, 
1702.00, 
1703.00, 
1704.00, 
1705.00, 
1706.00, 
1707.00, 
1708.00, 
1709.00, 
1710.00, 
1711.00, 
1712.00, 
1713.00, 
1714.00, 
1715.00, 
1716.00, 
1717.00, 
1718.00, 
1719.00, 
1720.00, 
1721.00, 
1722.00, 
1723.00, 
1724.00, 
1725.00, 
1726.00, 
1727.00, 
1728.00, 
1729.00, 
1730.00, 
1731.00, 
1732.00, 
1733.00, 
1734.00, 
1735.00, 
1736.00, 
1737.00, 
1738.00, 
1739.00, 
1740.00, 
1741.00, 
1742.00, 
1743.00, 
1744.00, 
1745.00, 
1746.00, 
1747.00, 
1748.00, 
1749.00, 
1750.00, 
1751.00, 
1752.00, 
1753.00, 
1754.00, 
1755.00, 
1756.00, 
1757.00, 
1758.00, 
1759.00, 
1760.00, 
1761.00, 
1762.00, 
1763.00, 
1764.00, 
1765.00, 
1766.00, 
1767.00, 
1768.00, 
1769.00, 
1770.00, 
1771.00, 
1772.00, 
1773.00, 
1774.00, 
1775.00, 
1776.00, 
1777.00, 
1778.00, 
1779.00, 
1780.00, 
1781.00, 
1782.00, 
1783.00, 
1784.00, 
1785.00, 
1786.00, 
1787.00, 
1788.00, 
1789.00, 
1790.00, 
1791.00, 
1792.00, 
1793.00, 
1794.00, 
1795.00, 
1796.00, 
1797.00, 
1798.00, 
1799.00, 
1800.00, 
1801.00, 
1802.00, 
1803.00, 
1804.00, 
1805.00, 
1806.00, 
1807.00, 
1808.00, 
1809.00, 
1810.00, 
1811.00, 
1812.00, 
1813.00, 
1814.00, 
1815.00, 
1816.00, 
1817.00, 
1818.00, 
1819.00, 
1820.00, 
1821.00, 
1822.00, 
1823.00, 
1824.00, 
1825.00, 
1826.00, 
1827.00, 
1828.00, 
1829.00, 
1830.00, 
1831.00, 
1832.00, 
1833.00, 
1834.00, 
1835.00, 
1836.00, 
1837.00, 
1838.00, 
1839.00, 
1840.00, 
1841.00, 
1842.00, 
1843.00, 
1844.00, 
1845.00, 
1846.00, 
1847.00, 
1848.00, 
1849.00, 
1850.00, 
1851.00, 
1852.00, 
1853.00, 
1854.00, 
1855.00, 
1856.00, 
1857.00, 
1858.00, 
1859.00, 
1860.00, 
1861.00, 
1862.00, 
1863.00, 
1864.00, 
1865.00, 
1866.00, 
1867.00, 
1868.00, 
1869.00, 
1870.00, 
1871.00, 
1872.00, 
1873.00, 
1874.00, 
1875.00, 
1876.00, 
1877.00, 
1878.00, 
1879.00, 
1880.00, 
1881.00, 
1882.00, 
1883.00, 
1884.00, 
1885.00, 
1886.00, 
1887.00, 
1888.00, 
1889.00, 
1890.00, 
1891.00, 
1892.00, 
1893.00, 
1894.00, 
1895.00, 
1896.00, 
1897.00, 
1898.00, 
1899.00, 
1900.00, 
1901.00, 
1902.00, 
1903.00, 
1904.00, 
1905.00, 
1906.00, 
1907.00, 
1908.00, 
1909.00, 
1910.00, 
1911.00, 
1912.00, 
1913.00, 
1914.00, 
1915.00, 
1916.00, 
1917.00, 
1918.00, 
1919.00, 
1920.00, 
1921.00, 
1922.00, 
1923.00, 
1924.00, 
1925.00, 
1926.00, 
1927.00, 
1928.00, 
1929.00, 
1930.00, 
1931.00, 
1932.00, 
1933.00, 
1934.00, 
1935.00, 
1936.00, 
1937.00, 
1938.00, 
1939.00, 
1940.00, 
1941.00, 
1942.00, 
1943.00, 
1944.00, 
1945.00, 
1946.00, 
1947.00, 
1948.00, 
1949.00, 
1950.00, 
1951.00, 
1952.00, 
1953.00, 
1954.00, 
1955.00, 
1956.00, 
1957.00, 
1958.00, 
1959.00, 
1960.00, 
1961.00, 
1962.00, 
1963.00, 
1964.00, 
1965.00, 
1966.00, 
1967.00, 
1968.00, 
1969.00, 
1970.00, 
1971.00, 
1972.00, 
1973.00, 
1974.00, 
1975.00, 
1976.00, 
1977.00, 
1978.00, 
1979.00, 
1980.00, 
1981.00, 
1982.00, 
1983.00, 
1984.00, 
1985.00, 
1986.00, 
1987.00, 
1988.00, 
1989.00, 
1990.00, 
1991.00, 
1992.00, 
1993.00, 
1994.00, 
1995.00, 
1996.00, 
1997.00, 
1998.00, 
1999.00, 
2000.00, 
2001.00, 
2002.00, 
2003.00, 
2004.00, 
2005.00, 
2006.00, 
2007.00, 
2008.00, 
2009.00, 
2010.00, 
2011.00, 
2012.00, 
2013.00, 
2014.00, 
2015.00, 
2016.00, 
2017.00, 
2018.00, 
2019.00, 
2020.00, 
2021.00, 
2022.00, 
2023.00, 
2024.00, 
2025.00, 
2026.00, 
2027.00, 
2028.00, 
2029.00, 
2030.00, 
2031.00, 
2032.00, 
2033.00, 
2034.00, 
2035.00, 
2036.00, 
2037.00, 
2038.00, 
2039.00, 
2040.00, 
2041.00, 
2042.00, 
2043.00, 
2044.00, 
2045.00, 
2046.00, 
2047.00, 
2048.00, 
2049.00, 
2050.00, 
2051.00, 
2052.00, 
2053.00, 
2054.00, 
2055.00, 
2056.00, 
2057.00, 
2058.00, 
2059.00, 
2060.00, 
2061.00, 
2062.00, 
2063.00, 
2064.00, 
2065.00, 
2066.00, 
2067.00, 
2068.00, 
2069.00, 
2070.00, 
2071.00, 
2072.00, 
2073.00, 
2074.00, 
2075.00, 
2076.00, 
2077.00, 
2078.00, 
2079.00, 
2080.00, 
2081.00, 
2082.00, 
2083.00, 
2084.00, 
2085.00, 
2086.00, 
2087.00, 
2088.00, 
2089.00, 
2090.00, 
2091.00, 
2092.00, 
2093.00, 
2094.00, 
2095.00, 
2096.00, 
2097.00, 
2098.00, 
2099.00, 
2100.00, 
2101.00, 
2102.00, 
2103.00, 
2104.00, 
2105.00, 
2106.00, 
2107.00, 
2108.00, 
2109.00, 
2110.00, 
2111.00, 
2112.00, 
2113.00, 
2114.00, 
2115.00, 
2116.00, 
2117.00, 
2118.00, 
2119.00, 
2120.00, 
2121.00, 
2122.00, 
2123.00, 
2124.00, 
2125.00, 
2126.00, 
2127.00, 
2128.00, 
2129.00, 
2130.00, 
2131.00, 
2132.00, 
2133.00, 
2134.00, 
2135.00, 
2136.00, 
2137.00, 
2138.00, 
2139.00, 
2140.00, 
2141.00, 
2142.00, 
2143.00, 
2144.00, 
2145.00, 
2146.00, 
2147.00, 
2148.00, 
2149.00, 
2150.00, 
2151.00, 
2152.00, 
2153.00, 
2154.00, 
2155.00, 
2156.00, 
2157.00, 
2158.00, 
2159.00, 
2160.00, 
2161.00, 
2162.00, 
2163.00, 
2164.00, 
2165.00, 
2166.00, 
2167.00, 
2168.00, 
2169.00, 
2170.00, 
2171.00, 
2172.00, 
2173.00, 
2174.00, 
2175.00, 
2176.00, 
2177.00, 
2178.00, 
2179.00, 
2180.00, 
2181.00, 
2182.00, 
2183.00, 
2184.00, 
2185.00, 
2186.00, 
2187.00, 
2188.00, 
2189.00, 
2190.00, 
2191.00, 
2192.00, 
2193.00, 
2194.00, 
2195.00, 
2196.00, 
2197.00, 
2198.00, 
2199.00, 
2200.00, 
2201.00, 
2202.00, 
2203.00, 
2204.00, 
2205.00, 
2206.00, 
2207.00, 
2208.00, 
2209.00, 
2210.00, 
2211.00, 
2212.00, 
2213.00, 
2214.00, 
2215.00, 
2216.00, 
2217.00, 
2218.00, 
2219.00, 
2220.00, 
2221.00, 
2222.00, 
2223.00, 
2224.00, 
2225.00, 
2226.00, 
2227.00, 
2228.00, 
2229.00, 
2230.00, 
2231.00, 
2232.00, 
2233.00, 
2234.00, 
2235.00, 
2236.00, 
2237.00, 
2238.00, 
2239.00, 
2240.00, 
2241.00, 
2242.00, 
2243.00, 
2244.00, 
2245.00, 
2246.00, 
2247.00, 
2248.00, 
2249.00, 
2250.00, 
2251.00, 
2252.00, 
2253.00, 
2254.00, 
2255.00, 
2256.00, 
2257.00, 
2258.00, 
2259.00, 
2260.00, 
2261.00, 
2262.00, 
2263.00, 
2264.00, 
2265.00, 
2266.00, 
2267.00, 
2268.00, 
2269.00, 
2270.00, 
2271.00, 
2272.00, 
2273.00, 
2274.00, 
2275.00, 
2276.00, 
2277.00, 
2278.00, 
2279.00, 
2280.00, 
2281.00, 
2282.00, 
2283.00, 
2284.00, 
2285.00, 
2286.00, 
2287.00, 
2288.00, 
2289.00, 
2290.00, 
2291.00, 
2292.00, 
2293.00, 
2294.00, 
2295.00, 
2296.00, 
2297.00, 
2298.00, 
2299.00, 
2300.00, 
2301.00, 
2302.00, 
2303.00, 
2304.00, 
2305.00, 
2306.00, 
2307.00, 
2308.00, 
2309.00, 
2310.00, 
2311.00, 
2312.00, 
2313.00, 
2314.00, 
2315.00, 
2316.00, 
2317.00, 
2318.00, 
2319.00, 
2320.00, 
2321.00, 
2322.00, 
2323.00, 
2324.00, 
2325.00, 
2326.00, 
2327.00, 
2328.00, 
2329.00, 
2330.00, 
2331.00, 
2332.00, 
2333.00, 
2334.00, 
2335.00, 
2336.00, 
2337.00, 
2338.00, 
2339.00, 
2340.00, 
2341.00, 
2342.00, 
2343.00, 
2344.00, 
2345.00, 
2346.00, 
2347.00, 
2348.00, 
2349.00, 
2350.00, 
2351.00, 
2352.00, 
2353.00, 
2354.00, 
2355.00, 
2356.00, 
2357.00, 
2358.00, 
2359.00, 
2360.00, 
2361.00, 
2362.00, 
2363.00, 
2364.00, 
2365.00, 
2366.00, 
2367.00, 
2368.00, 
2369.00, 
2370.00, 
2371.00, 
2372.00, 
2373.00, 
2374.00, 
2375.00, 
2376.00, 
2377.00, 
2378.00, 
2379.00, 
2380.00, 
2381.00, 
2382.00, 
2383.00, 
2384.00, 
2385.00, 
2386.00, 
2387.00, 
2388.00, 
2389.00, 
2390.00, 
2391.00, 
2392.00, 
2393.00, 
2394.00, 
2395.00, 
2396.00, 
2397.00, 
2398.00, 
2399.00, 
2400.00, 
2401.00, 
2402.00, 
2403.00, 
2404.00, 
2405.00, 
2406.00, 
2407.00, 
2408.00, 
2409.00, 
2410.00, 
2411.00, 
2412.00, 
2413.00, 
2414.00, 
2415.00, 
2416.00, 
2417.00, 
2418.00, 
2419.00, 
2420.00, 
2421.00, 
2422.00, 
2423.00, 
2424.00, 
2425.00, 
2426.00, 
2427.00, 
2428.00, 
2429.00, 
2430.00, 
2431.00, 
2432.00, 
2433.00, 
2434.00, 
2435.00, 
2436.00, 
2437.00, 
2438.00, 
2439.00, 
2440.00, 
2441.00, 
2442.00, 
2443.00, 
2444.00, 
2445.00, 
2446.00, 
2447.00, 
2448.00, 
2449.00, 
2450.00, 
2451.00, 
2452.00, 
2453.00, 
2454.00, 
2455.00, 
2456.00, 
2457.00, 
2458.00, 
2459.00, 
2460.00, 
2461.00, 
2462.00, 
2463.00, 
2464.00, 
2465.00, 
2466.00, 
2467.00, 
2468.00, 
2469.00, 
2470.00, 
2471.00, 
2472.00, 
2473.00, 
2474.00, 
2475.00, 
2476.00, 
2477.00, 
2478.00, 
2479.00, 
2480.00, 
2481.00, 
2482.00, 
2483.00, 
2484.00, 
2485.00, 
2486.00, 
2487.00, 
2488.00, 
2489.00, 
2490.00, 
2491.00, 
2492.00, 
2493.00, 
2494.00, 
2495.00, 
2496.00, 
2497.00, 
2498.00, 
2499.00, 
2500.00, 
2501.00, 
2502.00, 
2503.00, 
2504.00, 
2505.00, 
2506.00, 
2507.00, 
2508.00, 
2509.00, 
2510.00, 
2511.00, 
2512.00, 
2513.00, 
2514.00, 
2515.00, 
2516.00, 
2517.00, 
2518.00, 
2519.00, 
2520.00, 
2521.00, 
2522.00, 
2523.00, 
2524.00, 
2525.00, 
2526.00, 
2527.00, 
2528.00, 
2529.00, 
2530.00, 
2531.00, 
2532.00, 
2533.00, 
2534.00, 
2535.00, 
2536.00, 
2537.00, 
2538.00, 
2539.00, 
2540.00, 
2541.00, 
2542.00, 
2543.00, 
2544.00, 
2545.00, 
2546.00, 
2547.00, 
2548.00, 
2549.00, 
2550.00, 
2551.00, 
2552.00, 
2553.00, 
2554.00, 
2555.00, 
2556.00, 
2557.00, 
2558.00, 
2559.00, 
2560.00, 
2561.00, 
2562.00, 
2563.00, 
2564.00, 
2565.00, 
2566.00, 
2567.00, 
2568.00, 
2569.00, 
2570.00, 
2571.00, 
2572.00, 
2573.00, 
2574.00, 
2575.00, 
2576.00, 
2577.00, 
2578.00, 
2579.00, 
2580.00, 
2581.00, 
2582.00, 
2583.00, 
2584.00, 
2585.00, 
2586.00, 
2587.00, 
2588.00, 
2589.00, 
2590.00, 
2591.00, 
2592.00, 
2593.00, 
2594.00, 
2595.00, 
2596.00, 
2597.00, 
2598.00, 
2599.00, 
2600.00, 
