"1aP2 - RawData"
"Wavelength nm.","T%"
200.00,0.000
201.00,0.001
202.00,0.001
203.00,-0.000
204.00,-0.001
205.00,0.001
206.00,0.001
207.00,-0.000
208.00,0.004
209.00,0.002
210.00,0.002
211.00,-0.002
212.00,0.000
213.00,0.001
214.00,-0.001
215.00,0.000
216.00,0.002
217.00,0.000
218.00,0.006
219.00,0.001
220.00,-0.001
221.00,0.001
222.00,-0.001
223.00,-0.001
224.00,-0.001
225.00,-0.002
226.00,0.002
227.00,0.002
228.00,0.002
229.00,-0.000
230.00,-0.000
231.00,-0.001
232.00,-0.001
233.00,0.002
234.00,0.001
235.00,0.001
236.00,0.002
237.00,0.001
238.00,-0.003
239.00,0.000
240.00,-0.000
241.00,-0.001
242.00,-0.001
243.00,0.000
244.00,-0.000
245.00,-0.000
246.00,0.003
247.00,0.001
248.00,-0.001
249.00,0.002
250.00,-0.000
251.00,-0.001
252.00,0.001
253.00,0.001
254.00,0.001
255.00,-0.002
256.00,-0.002
257.00,-0.001
258.00,-0.001
259.00,0.000
260.00,0.000
261.00,0.001
262.00,0.001
263.00,0.000
264.00,0.000
265.00,0.001
266.00,-0.000
267.00,0.002
268.00,-0.001
269.00,-0.001
270.00,-0.000
271.00,0.001
272.00,0.000
273.00,0.000
274.00,-0.001
275.00,-0.000
276.00,0.000
277.00,-0.000
278.00,0.000
279.00,0.001
280.00,-0.001
281.00,-0.000
282.00,0.000
283.00,0.000
284.00,0.001
285.00,0.001
286.00,-0.000
287.00,0.001
288.00,-0.001
289.00,0.001
290.00,-0.000
291.00,0.002
292.00,-0.000
293.00,0.000
294.00,0.001
295.00,-0.001
296.00,-0.001
297.00,0.001
298.00,-0.000
299.00,0.002
300.00,0.002
301.00,0.005
302.00,0.006
303.00,0.009
304.00,0.015
305.00,0.024
306.00,0.037
307.00,0.056
308.00,0.086
309.00,0.134
310.00,0.184
311.00,0.242
312.00,0.324
313.00,0.435
314.00,0.570
315.00,0.741
316.00,0.940
317.00,1.166
318.00,1.425
319.00,1.728
320.00,2.091
321.00,2.474
322.00,2.910
323.00,3.374
324.00,3.890
325.00,4.395
326.00,4.911
327.00,5.524
328.00,6.086
329.00,6.704
330.00,7.315
331.00,7.924
332.00,8.568
333.00,9.212
334.00,9.840
335.00,10.493
336.00,11.072
337.00,11.734
338.00,12.309
339.00,12.825
340.00,13.372
341.00,13.912
342.00,14.425
343.00,14.902
344.00,15.373
345.00,15.788
346.00,16.191
347.00,16.524
348.00,16.916
349.00,17.179
350.00,17.530
351.00,17.795
352.00,18.024
353.00,18.282
354.00,18.494
355.00,18.712
356.00,18.896
357.00,19.068
358.00,19.217
359.00,19.381
360.00,19.510
361.00,19.610
362.00,19.698
363.00,19.822
364.00,19.875
365.00,19.962
366.00,20.003
367.00,19.997
368.00,20.084
369.00,20.062
370.00,20.063
371.00,20.101
372.00,20.065
373.00,20.054
374.00,19.985
375.00,19.864
376.00,19.889
377.00,19.834
378.00,19.761
379.00,19.672
380.00,19.670
381.00,19.605
382.00,19.588
383.00,19.569
384.00,19.575
385.00,19.596
386.00,19.563
387.00,19.610
388.00,19.606
389.00,19.571
390.00,19.555
391.00,19.586
392.00,19.609
393.00,19.577
394.00,19.598
395.00,19.595
396.00,19.556
397.00,19.559
398.00,19.539
399.00,19.544
400.00,19.560
401.00,19.510
402.00,19.564
403.00,19.545
404.00,19.510
405.00,19.494
406.00,19.519
407.00,19.424
408.00,19.442
409.00,19.368
410.00,19.348
411.00,19.347
412.00,19.298
413.00,19.306
414.00,19.277
415.00,19.300
416.00,19.290
417.00,19.307
418.00,19.322
419.00,19.414
420.00,19.407
421.00,19.381
422.00,19.414
423.00,19.423
424.00,19.502
425.00,19.488
426.00,19.514
427.00,19.570
428.00,19.634
429.00,19.637
430.00,19.676
431.00,19.748
432.00,19.796
433.00,19.885
434.00,19.907
435.00,19.974
436.00,20.016
437.00,20.086
438.00,20.143
439.00,20.204
440.00,20.292
441.00,20.367
442.00,20.462
443.00,20.520
444.00,20.602
445.00,20.701
446.00,20.778
447.00,20.900
448.00,20.978
449.00,21.070
450.00,21.222
451.00,21.315
452.00,21.391
453.00,21.502
454.00,21.578
455.00,21.719
456.00,21.815
457.00,21.984
458.00,22.071
459.00,22.159
460.00,22.269
461.00,22.338
462.00,22.594
463.00,22.710
464.00,22.855
465.00,22.975
466.00,23.134
467.00,23.247
468.00,23.346
469.00,23.493
470.00,23.567
471.00,23.724
472.00,23.843
473.00,23.914
474.00,24.046
475.00,24.215
476.00,24.301
477.00,24.445
478.00,24.560
479.00,24.736
480.00,24.907
481.00,24.988
482.00,25.173
483.00,25.328
484.00,25.459
485.00,25.673
486.00,25.764
487.00,25.943
488.00,26.141
489.00,26.265
490.00,26.403
491.00,26.499
492.00,26.757
493.00,26.937
494.00,27.087
495.00,27.135
496.00,27.267
497.00,27.396
498.00,27.577
499.00,27.694
500.00,27.824
501.00,27.941
502.00,28.064
503.00,28.241
504.00,28.320
505.00,28.473
506.00,28.614
507.00,28.700
508.00,28.844
509.00,28.985
510.00,29.119
511.00,29.276
512.00,29.343
513.00,29.504
514.00,29.674
515.00,29.702
516.00,29.935
517.00,30.043
518.00,30.176
519.00,30.291
520.00,30.363
521.00,30.419
522.00,30.562
523.00,30.647
524.00,30.745
525.00,30.828
526.00,30.928
527.00,31.005
528.00,31.167
529.00,31.313
530.00,31.444
531.00,31.593
532.00,31.641
533.00,31.726
534.00,31.858
535.00,31.885
536.00,32.033
537.00,32.077
538.00,32.191
539.00,32.246
540.00,32.343
541.00,32.411
542.00,32.454
543.00,32.535
544.00,32.606
545.00,32.706
546.00,32.733
547.00,32.864
548.00,32.914
549.00,32.994
550.00,33.053
551.00,33.160
552.00,33.256
553.00,33.325
554.00,33.387
555.00,33.424
556.00,33.485
557.00,33.576
558.00,33.593
559.00,33.657
560.00,33.723
561.00,33.825
562.00,33.926
563.00,33.912
564.00,34.009
565.00,34.041
566.00,34.054
567.00,34.096
568.00,34.141
569.00,34.192
570.00,34.229
571.00,34.302
572.00,34.345
573.00,34.367
574.00,34.426
575.00,34.451
576.00,34.470
577.00,34.501
578.00,34.609
579.00,34.634
580.00,34.741
581.00,34.817
582.00,34.893
583.00,34.958
584.00,35.033
585.00,35.031
586.00,35.143
587.00,35.206
588.00,35.165
589.00,35.211
590.00,35.266
591.00,35.320
592.00,35.302
593.00,35.332
594.00,35.448
595.00,35.487
596.00,35.561
597.00,35.603
598.00,35.742
599.00,35.718
600.00,35.748
601.00,35.866
602.00,35.878
603.00,35.996
604.00,35.993
605.00,36.045
606.00,36.122
607.00,36.131
608.00,36.200
609.00,36.159
610.00,36.253
611.00,36.350
612.00,36.200
613.00,36.329
614.00,36.331
615.00,36.359
616.00,36.484
617.00,36.576
618.00,36.523
619.00,36.641
620.00,36.920
621.00,36.850
622.00,36.899
623.00,36.987
624.00,37.093
625.00,37.127
626.00,37.205
627.00,37.263
628.00,37.330
629.00,37.380
630.00,37.403
631.00,37.510
632.00,37.582
633.00,37.678
634.00,37.775
635.00,37.893
636.00,37.986
637.00,38.090
638.00,38.122
639.00,38.231
640.00,38.285
641.00,38.335
642.00,38.405
643.00,38.501
644.00,38.607
645.00,38.688
646.00,38.832
647.00,38.889
648.00,38.981
649.00,39.122
650.00,39.097
651.00,39.253
652.00,39.303
653.00,39.410
654.00,39.538
655.00,39.563
656.00,39.767
657.00,39.783
658.00,39.950
659.00,40.090
660.00,40.169
661.00,40.207
662.00,40.378
663.00,40.430
664.00,40.622
665.00,40.758
666.00,40.715
667.00,41.089
668.00,41.116
669.00,41.127
670.00,41.373
671.00,41.309
672.00,41.331
673.00,41.568
674.00,41.681
675.00,41.878
676.00,41.958
677.00,42.045
678.00,42.016
679.00,42.140
680.00,42.279
681.00,42.462
682.00,42.576
683.00,42.632
684.00,42.871
685.00,42.943
686.00,42.925
687.00,43.057
688.00,43.146
689.00,43.188
690.00,43.384
691.00,43.551
692.00,43.533
693.00,43.595
694.00,43.733
695.00,43.904
696.00,44.026
697.00,44.190
698.00,44.254
699.00,44.380
700.00,44.506
701.00,44.554
702.00,44.764
703.00,44.845
704.00,44.909
705.00,45.033
706.00,45.080
707.00,45.246
708.00,45.126
709.00,45.425
710.00,45.741
711.00,45.420
712.00,45.638
713.00,45.691
714.00,45.848
715.00,45.977
716.00,45.933
717.00,46.055
718.00,46.088
719.00,46.237
720.00,46.413
721.00,50.670
722.00,50.678
723.00,50.646
724.00,50.733
725.00,50.757
726.00,50.845
727.00,50.898
728.00,50.962
729.00,50.998
730.00,51.065
731.00,51.053
732.00,51.152
733.00,51.218
734.00,51.262
735.00,51.303
736.00,51.390
737.00,51.425
738.00,51.546
739.00,51.525
740.00,51.585
741.00,51.634
742.00,51.626
743.00,51.701
744.00,51.753
745.00,51.819
746.00,51.780
747.00,51.799
748.00,51.854
749.00,51.940
750.00,51.937
751.00,51.895
752.00,52.016
753.00,51.964
754.00,52.014
755.00,51.968
756.00,52.067
757.00,52.073
758.00,52.186
759.00,52.168
760.00,52.220
761.00,52.181
762.00,52.234
763.00,52.331
764.00,52.276
765.00,52.281
766.00,52.339
767.00,52.389
768.00,52.336
769.00,52.359
770.00,52.438
771.00,52.453
772.00,52.541
773.00,52.463
774.00,52.531
775.00,52.559
776.00,52.515
777.00,52.718
778.00,52.664
779.00,52.606
780.00,52.609
781.00,52.664
782.00,52.684
783.00,52.593
784.00,52.613
785.00,52.637
786.00,52.751
787.00,52.711
788.00,52.751
789.00,52.741
790.00,52.700
791.00,52.753
792.00,52.667
793.00,52.772
794.00,52.713
795.00,52.699
796.00,52.792
797.00,52.658
798.00,52.767
799.00,52.672
800.00,52.788
801.00,52.765
802.00,52.722
803.00,52.699
804.00,52.690
805.00,52.741
806.00,52.663
807.00,52.743
808.00,52.668
809.00,52.649
810.00,52.755
811.00,52.689
812.00,52.771
813.00,52.641
814.00,52.736
815.00,52.688
816.00,52.631
817.00,52.651
818.00,52.574
819.00,52.644
820.00,52.606
821.00,52.632
822.00,52.649
823.00,52.539
824.00,52.660
825.00,52.531
826.00,52.565
827.00,52.606
828.00,52.589
829.00,52.626
830.00,52.625
831.00,55.251
832.00,55.237
833.00,55.205
834.00,55.258
835.00,55.210
836.00,55.219
837.00,55.184
838.00,55.158
839.00,55.094
840.00,55.073
841.00,55.110
842.00,55.108
843.00,55.147
844.00,55.119
845.00,55.068
846.00,55.128
847.00,55.056
848.00,55.096
849.00,55.017
850.00,54.991
851.00,54.919
852.00,54.989
853.00,54.965
854.00,54.895
855.00,54.852
856.00,54.871
857.00,54.871
858.00,54.840
859.00,54.790
860.00,54.822
861.00,54.817
862.00,54.774
863.00,54.823
864.00,54.756
865.00,54.791
866.00,54.806
867.00,54.758
868.00,54.772
869.00,54.792
870.00,54.759
871.00,54.743
872.00,54.764
873.00,54.685
874.00,54.769
875.00,54.712
876.00,54.738
877.00,54.705
878.00,54.737
879.00,54.706
880.00,54.744
881.00,54.669
882.00,54.739
883.00,54.679
884.00,54.635
885.00,54.636
886.00,54.640
887.00,54.751
888.00,54.591
889.00,54.654
890.00,54.509
891.00,54.554
892.00,54.521
893.00,54.522
894.00,54.583
895.00,54.348
896.00,54.469
897.00,54.482
898.00,54.454
899.00,54.444
900.00,54.425
901.00,54.422
902.00,54.437
903.00,54.385
904.00,54.366
905.00,54.385
906.00,54.372
907.00,54.335
908.00,54.305
909.00,54.319
910.00,54.280
911.00,54.280
912.00,54.255
913.00,54.211
914.00,54.248
915.00,54.214
916.00,54.178
917.00,54.182
918.00,54.183
919.00,54.140
920.00,54.100
921.00,54.130
922.00,54.117
923.00,54.080
924.00,54.047
925.00,54.064
926.00,54.075
927.00,54.037
928.00,54.000
929.00,54.018
930.00,53.972
931.00,53.951
932.00,53.930
933.00,53.956
934.00,53.939
935.00,53.881
936.00,53.848
937.00,53.870
938.00,53.806
939.00,53.846
940.00,53.824
941.00,53.838
942.00,53.789
943.00,53.788
944.00,53.762
945.00,53.762
946.00,53.744
947.00,53.690
948.00,53.689
949.00,53.686
950.00,53.652
951.00,53.632
952.00,53.616
953.00,53.583
954.00,53.568
955.00,53.539
956.00,53.516
957.00,53.502
958.00,53.512
959.00,53.452
960.00,53.447
961.00,53.474
962.00,53.467
963.00,53.409
964.00,53.407
965.00,53.407
966.00,53.395
967.00,53.369
968.00,53.372
969.00,53.390
970.00,53.358
971.00,53.385
972.00,53.374
973.00,53.389
974.00,53.402
975.00,53.370
976.00,53.387
977.00,53.385
978.00,53.415
979.00,53.385
980.00,53.394
981.00,53.394
982.00,53.355
983.00,53.382
984.00,53.368
985.00,53.390
986.00,53.331
987.00,53.362
988.00,53.315
989.00,53.301
990.00,53.296
991.00,53.298
992.00,53.308
993.00,53.266
994.00,53.269
995.00,53.264
996.00,53.269
997.00,53.244
998.00,53.225
999.00,53.234
1000.00,53.198
1001.00,53.191
1002.00,53.189
1003.00,53.167
1004.00,53.151
1005.00,53.125
1006.00,53.163
1007.00,53.126
1008.00,53.113
1009.00,53.112
1010.00,53.111
1011.00,53.098
1012.00,53.082
1013.00,53.086
1014.00,53.050
1015.00,53.062
1016.00,53.024
1017.00,53.021
1018.00,53.067
1019.00,52.972
1020.00,52.973
1021.00,52.953
1022.00,52.945
1023.00,52.915
1024.00,52.926
1025.00,52.907
1026.00,52.901
1027.00,52.873
1028.00,52.852
1029.00,52.862
1030.00,52.838
1031.00,52.827
1032.00,52.795
1033.00,52.799
1034.00,52.792
1035.00,52.757
1036.00,52.732
1037.00,52.734
1038.00,52.711
1039.00,52.689
1040.00,52.681
1041.00,52.653
1042.00,52.640
1043.00,52.605
1044.00,52.637
1045.00,52.617
1046.00,52.623
1047.00,52.635
1048.00,52.643
1049.00,52.660
1050.00,52.664
1051.00,52.696
1052.00,52.676
1053.00,52.703
1054.00,52.684
1055.00,52.711
1056.00,52.730
1057.00,52.735
1058.00,52.720
1059.00,52.707
1060.00,52.735
1061.00,52.717
1062.00,52.699
1063.00,52.723
1064.00,52.724
1065.00,52.705
1066.00,52.685
1067.00,52.694
1068.00,52.707
1069.00,52.679
1070.00,52.662
1071.00,52.657
1072.00,52.660
1073.00,52.644
1074.00,52.631
1075.00,52.621
1076.00,52.643
1077.00,52.614
1078.00,52.601
1079.00,52.606
1080.00,52.590
1081.00,52.591
1082.00,52.596
1083.00,52.580
1084.00,52.585
1085.00,52.581
1086.00,52.578
1087.00,52.574
1088.00,52.560
1089.00,52.545
1090.00,52.545
1091.00,52.556
1092.00,52.539
1093.00,52.530
1094.00,52.510
1095.00,52.502
1096.00,52.484
1097.00,52.488
1098.00,52.476
1099.00,52.458
1100.00,52.456
1101.00,52.451
1102.00,52.440
1103.00,52.452
1104.00,52.443
1105.00,52.426
1106.00,52.413
1107.00,52.408
1108.00,52.394
1109.00,52.394
1110.00,52.387
1111.00,52.378
1112.00,52.376
1113.00,52.359
1114.00,52.360
1115.00,52.371
1116.00,52.347
1117.00,52.331
1118.00,52.320
1119.00,52.329
1120.00,52.308
1121.00,52.318
1122.00,52.307
1123.00,52.273
1124.00,52.311
1125.00,52.331
1126.00,52.281
1127.00,52.288
1128.00,52.283
1129.00,52.260
1130.00,52.247
1131.00,52.244
1132.00,52.224
1133.00,52.239
1134.00,52.237
1135.00,52.213
1136.00,52.216
1137.00,52.225
1138.00,52.207
1139.00,52.229
1140.00,52.230
1141.00,52.194
1142.00,52.197
1143.00,52.219
1144.00,52.195
1145.00,52.188
1146.00,52.189
1147.00,52.193
1148.00,52.173
1149.00,52.179
1150.00,52.185
1151.00,52.188
1152.00,52.190
1153.00,52.173
1154.00,52.159
1155.00,52.187
1156.00,52.175
1157.00,52.151
1158.00,52.151
1159.00,52.158
1160.00,52.155
1161.00,52.176
1162.00,52.168
1163.00,52.178
1164.00,52.164
1165.00,52.153
1166.00,52.173
1167.00,52.168
1168.00,52.180
1169.00,52.171
1170.00,52.158
1171.00,52.150
1172.00,52.150
1173.00,52.143
1174.00,52.149
1175.00,52.135
1176.00,52.147
1177.00,52.138
1178.00,52.144
1179.00,52.145
1180.00,52.150
1181.00,52.163
1182.00,52.142
1183.00,52.148
1184.00,52.128
1185.00,52.149
1186.00,52.147
1187.00,52.134
1188.00,52.120
1189.00,52.115
1190.00,52.102
1191.00,52.104
1192.00,52.132
1193.00,52.124
1194.00,52.133
1195.00,52.106
1196.00,52.147
1197.00,52.144
1198.00,52.127
1199.00,52.143
1200.00,52.150
1201.00,52.159
1202.00,52.143
1203.00,52.152
1204.00,52.140
1205.00,52.159
1206.00,52.144
1207.00,52.142
1208.00,52.127
1209.00,52.127
1210.00,52.139
1211.00,52.149
1212.00,52.162
1213.00,52.136
1214.00,52.160
1215.00,52.137
1216.00,52.152
1217.00,52.147
1218.00,52.152
1219.00,52.159
1220.00,52.144
1221.00,52.164
1222.00,52.139
1223.00,52.166
1224.00,52.173
1225.00,52.146
1226.00,52.142
1227.00,52.148
1228.00,52.154
1229.00,52.156
1230.00,52.189
1231.00,52.177
1232.00,52.200
1233.00,52.205
1234.00,52.213
1235.00,52.206
1236.00,52.207
1237.00,52.202
1238.00,52.203
1239.00,52.214
1240.00,52.207
1241.00,52.207
1242.00,52.214
1243.00,52.224
1244.00,52.210
1245.00,52.222
1246.00,52.232
1247.00,52.230
1248.00,52.210
1249.00,52.215
1250.00,52.213
1251.00,52.222
1252.00,52.236
1253.00,52.217
1254.00,52.234
1255.00,52.230
1256.00,52.199
1257.00,52.221
1258.00,52.271
1259.00,52.273
1260.00,52.284
1261.00,52.276
1262.00,52.282
1263.00,52.265
1264.00,52.272
1265.00,52.282
1266.00,52.277
1267.00,52.295
1268.00,52.314
1269.00,52.314
1270.00,52.325
1271.00,52.333
1272.00,52.323
1273.00,52.343
1274.00,52.343
1275.00,52.328
1276.00,52.357
1277.00,52.372
1278.00,52.368
1279.00,52.369
1280.00,52.360
1281.00,52.384
1282.00,52.381
1283.00,52.433
1284.00,52.393
1285.00,52.398
1286.00,52.401
1287.00,52.397
1288.00,52.400
1289.00,52.393
1290.00,52.417
1291.00,52.420
1292.00,52.412
1293.00,52.441
1294.00,52.444
1295.00,52.467
1296.00,52.452
1297.00,52.459
1298.00,52.486
1299.00,52.458
1300.00,52.469
1301.00,52.469
1302.00,52.494
1303.00,52.496
1304.00,52.482
1305.00,52.489
1306.00,52.496
1307.00,52.516
1308.00,52.497
1309.00,52.522
1310.00,52.510
1311.00,52.496
1312.00,52.524
1313.00,52.532
1314.00,52.555
1315.00,52.564
1316.00,52.568
1317.00,52.579
1318.00,52.592
1319.00,52.582
1320.00,52.576
1321.00,52.752
1322.00,52.724
1323.00,52.733
1324.00,52.727
1325.00,52.690
1326.00,52.715
1327.00,52.711
1328.00,52.696
1329.00,52.702
1330.00,52.711
1331.00,52.726
1332.00,52.725
1333.00,52.729
1334.00,52.761
1335.00,52.792
1336.00,52.806
1337.00,52.840
1338.00,52.899
1339.00,52.943
1340.00,52.987
1341.00,53.061
1342.00,53.103
1343.00,53.169
1344.00,53.205
1345.00,53.266
1346.00,53.303
1347.00,53.315
1348.00,53.350
1349.00,53.371
1350.00,53.379
1351.00,53.412
1352.00,53.404
1353.00,53.407
1354.00,53.395
1355.00,53.380
1356.00,53.464
1357.00,53.421
1358.00,53.410
1359.00,53.457
1360.00,53.427
1361.00,53.492
1362.00,53.396
1363.00,53.501
1364.00,53.575
1365.00,53.451
1366.00,53.538
1367.00,53.491
1368.00,53.429
1369.00,53.485
1370.00,53.464
1371.00,53.421
1372.00,53.415
1373.00,53.443
1374.00,53.458
1375.00,53.442
1376.00,53.410
1377.00,53.443
1378.00,53.540
1379.00,53.429
1380.00,53.462
1381.00,53.499
1382.00,53.230
1383.00,53.483
1384.00,53.381
1385.00,53.376
1386.00,53.441
1387.00,53.434
1388.00,53.370
1389.00,53.352
1390.00,53.418
1391.00,53.443
1392.00,53.406
1393.00,53.394
1394.00,53.456
1395.00,53.413
1396.00,53.360
1397.00,53.399
1398.00,53.444
1399.00,53.454
1400.00,53.450
1401.00,53.409
1402.00,53.450
1403.00,53.462
1404.00,53.447
1405.00,53.484
1406.00,53.470
1407.00,53.464
1408.00,53.483
1409.00,53.490
1410.00,53.512
1411.00,53.485
1412.00,53.569
1413.00,53.498
1414.00,53.522
1415.00,53.540
1416.00,53.580
1417.00,53.595
1418.00,53.547
1419.00,53.553
1420.00,53.578
1421.00,53.617
1422.00,53.596
1423.00,53.618
1424.00,53.613
1425.00,53.640
1426.00,53.638
1427.00,53.662
1428.00,53.666
1429.00,53.688
1430.00,53.702
1431.00,53.700
1432.00,53.725
1433.00,53.733
1434.00,53.721
1435.00,53.783
1436.00,53.790
1437.00,53.794
1438.00,53.811
1439.00,53.849
1440.00,53.831
1441.00,53.866
1442.00,53.889
1443.00,53.898
1444.00,53.953
1445.00,53.889
1446.00,53.922
1447.00,53.956
1448.00,53.984
1449.00,53.982
1450.00,53.981
1451.00,54.003
1452.00,54.011
1453.00,54.017
1454.00,54.025
1455.00,54.058
1456.00,54.079
1457.00,54.075
1458.00,54.108
1459.00,54.115
1460.00,54.140
1461.00,54.148
1462.00,54.174
1463.00,54.175
1464.00,54.172
1465.00,54.210
1466.00,54.193
1467.00,54.228
1468.00,54.266
1469.00,54.242
1470.00,54.259
1471.00,54.281
1472.00,54.296
1473.00,54.313
1474.00,54.333
1475.00,54.356
1476.00,54.352
1477.00,54.349
1478.00,54.374
1479.00,54.393
1480.00,54.381
1481.00,54.386
1482.00,54.415
1483.00,54.419
1484.00,54.422
1485.00,54.442
1486.00,54.453
1487.00,54.470
1488.00,54.494
1489.00,54.486
1490.00,54.498
1491.00,54.517
1492.00,54.521
1493.00,54.523
1494.00,54.546
1495.00,54.550
1496.00,54.579
1497.00,54.572
1498.00,54.570
1499.00,54.600
1500.00,54.606
1501.00, 
1502.00, 
1503.00, 
1504.00, 
1505.00, 
1506.00, 
1507.00, 
1508.00, 
1509.00, 
1510.00, 
1511.00, 
1512.00, 
1513.00, 
1514.00, 
1515.00, 
1516.00, 
1517.00, 
1518.00, 
1519.00, 
1520.00, 
1521.00, 
1522.00, 
1523.00, 
1524.00, 
1525.00, 
1526.00, 
1527.00, 
1528.00, 
1529.00, 
1530.00, 
1531.00, 
1532.00, 
1533.00, 
1534.00, 
1535.00, 
1536.00, 
1537.00, 
1538.00, 
1539.00, 
1540.00, 
1541.00, 
1542.00, 
1543.00, 
1544.00, 
1545.00, 
1546.00, 
1547.00, 
1548.00, 
1549.00, 
1550.00, 
1551.00, 
1552.00, 
1553.00, 
1554.00, 
1555.00, 
1556.00, 
1557.00, 
1558.00, 
1559.00, 
1560.00, 
1561.00, 
1562.00, 
1563.00, 
1564.00, 
1565.00, 
1566.00, 
1567.00, 
1568.00, 
1569.00, 
1570.00, 
1571.00, 
1572.00, 
1573.00, 
1574.00, 
1575.00, 
1576.00, 
1577.00, 
1578.00, 
1579.00, 
1580.00, 
1581.00, 
1582.00, 
1583.00, 
1584.00, 
1585.00, 
1586.00, 
1587.00, 
1588.00, 
1589.00, 
1590.00, 
1591.00, 
1592.00, 
1593.00, 
1594.00, 
1595.00, 
1596.00, 
1597.00, 
1598.00, 
1599.00, 
1600.00, 
1601.00, 
1602.00, 
1603.00, 
1604.00, 
1605.00, 
1606.00, 
1607.00, 
1608.00, 
1609.00, 
1610.00, 
1611.00, 
1612.00, 
1613.00, 
1614.00, 
1615.00, 
1616.00, 
1617.00, 
1618.00, 
1619.00, 
1620.00, 
1621.00, 
1622.00, 
1623.00, 
1624.00, 
1625.00, 
1626.00, 
1627.00, 
1628.00, 
1629.00, 
1630.00, 
1631.00, 
1632.00, 
1633.00, 
1634.00, 
1635.00, 
1636.00, 
1637.00, 
1638.00, 
1639.00, 
1640.00, 
1641.00, 
1642.00, 
1643.00, 
1644.00, 
1645.00, 
1646.00, 
1647.00, 
1648.00, 
1649.00, 
1650.00, 
1651.00, 
1652.00, 
1653.00, 
1654.00, 
1655.00, 
1656.00, 
1657.00, 
1658.00, 
1659.00, 
1660.00, 
1661.00, 
1662.00, 
1663.00, 
1664.00, 
1665.00, 
1666.00, 
1667.00, 
1668.00, 
1669.00, 
1670.00, 
1671.00, 
1672.00, 
1673.00, 
1674.00, 
1675.00, 
1676.00, 
1677.00, 
1678.00, 
1679.00, 
1680.00, 
1681.00, 
1682.00, 
1683.00, 
1684.00, 
1685.00, 
1686.00, 
1687.00, 
1688.00, 
1689.00, 
1690.00, 
1691.00, 
1692.00, 
1693.00, 
1694.00, 
1695.00, 
1696.00, 
1697.00, 
1698.00, 
1699.00, 
1700.00, 
1701.00, 
1702.00, 
1703.00, 
1704.00, 
1705.00, 
1706.00, 
1707.00, 
1708.00, 
1709.00, 
1710.00, 
1711.00, 
1712.00, 
1713.00, 
1714.00, 
1715.00, 
1716.00, 
1717.00, 
1718.00, 
1719.00, 
1720.00, 
1721.00, 
1722.00, 
1723.00, 
1724.00, 
1725.00, 
1726.00, 
1727.00, 
1728.00, 
1729.00, 
1730.00, 
1731.00, 
1732.00, 
1733.00, 
1734.00, 
1735.00, 
1736.00, 
1737.00, 
1738.00, 
1739.00, 
1740.00, 
1741.00, 
1742.00, 
1743.00, 
1744.00, 
1745.00, 
1746.00, 
1747.00, 
1748.00, 
1749.00, 
1750.00, 
1751.00, 
1752.00, 
1753.00, 
1754.00, 
1755.00, 
1756.00, 
1757.00, 
1758.00, 
1759.00, 
1760.00, 
1761.00, 
1762.00, 
1763.00, 
1764.00, 
1765.00, 
1766.00, 
1767.00, 
1768.00, 
1769.00, 
1770.00, 
1771.00, 
1772.00, 
1773.00, 
1774.00, 
1775.00, 
1776.00, 
1777.00, 
1778.00, 
1779.00, 
1780.00, 
1781.00, 
1782.00, 
1783.00, 
1784.00, 
1785.00, 
1786.00, 
1787.00, 
1788.00, 
1789.00, 
1790.00, 
1791.00, 
1792.00, 
1793.00, 
1794.00, 
1795.00, 
1796.00, 
1797.00, 
1798.00, 
1799.00, 
1800.00, 
1801.00, 
1802.00, 
1803.00, 
1804.00, 
1805.00, 
1806.00, 
1807.00, 
1808.00, 
1809.00, 
1810.00, 
1811.00, 
1812.00, 
1813.00, 
1814.00, 
1815.00, 
1816.00, 
1817.00, 
1818.00, 
1819.00, 
1820.00, 
1821.00, 
1822.00, 
1823.00, 
1824.00, 
1825.00, 
1826.00, 
1827.00, 
1828.00, 
1829.00, 
1830.00, 
1831.00, 
1832.00, 
1833.00, 
1834.00, 
1835.00, 
1836.00, 
1837.00, 
1838.00, 
1839.00, 
1840.00, 
1841.00, 
1842.00, 
1843.00, 
1844.00, 
1845.00, 
1846.00, 
1847.00, 
1848.00, 
1849.00, 
1850.00, 
1851.00, 
1852.00, 
1853.00, 
1854.00, 
1855.00, 
1856.00, 
1857.00, 
1858.00, 
1859.00, 
1860.00, 
1861.00, 
1862.00, 
1863.00, 
1864.00, 
1865.00, 
1866.00, 
1867.00, 
1868.00, 
1869.00, 
1870.00, 
1871.00, 
1872.00, 
1873.00, 
1874.00, 
1875.00, 
1876.00, 
1877.00, 
1878.00, 
1879.00, 
1880.00, 
1881.00, 
1882.00, 
1883.00, 
1884.00, 
1885.00, 
1886.00, 
1887.00, 
1888.00, 
1889.00, 
1890.00, 
1891.00, 
1892.00, 
1893.00, 
1894.00, 
1895.00, 
1896.00, 
1897.00, 
1898.00, 
1899.00, 
1900.00, 
1901.00, 
1902.00, 
1903.00, 
1904.00, 
1905.00, 
1906.00, 
1907.00, 
1908.00, 
1909.00, 
1910.00, 
1911.00, 
1912.00, 
1913.00, 
1914.00, 
1915.00, 
1916.00, 
1917.00, 
1918.00, 
1919.00, 
1920.00, 
1921.00, 
1922.00, 
1923.00, 
1924.00, 
1925.00, 
1926.00, 
1927.00, 
1928.00, 
1929.00, 
1930.00, 
1931.00, 
1932.00, 
1933.00, 
1934.00, 
1935.00, 
1936.00, 
1937.00, 
1938.00, 
1939.00, 
1940.00, 
1941.00, 
1942.00, 
1943.00, 
1944.00, 
1945.00, 
1946.00, 
1947.00, 
1948.00, 
1949.00, 
1950.00, 
1951.00, 
1952.00, 
1953.00, 
1954.00, 
1955.00, 
1956.00, 
1957.00, 
1958.00, 
1959.00, 
1960.00, 
1961.00, 
1962.00, 
1963.00, 
1964.00, 
1965.00, 
1966.00, 
1967.00, 
1968.00, 
1969.00, 
1970.00, 
1971.00, 
1972.00, 
1973.00, 
1974.00, 
1975.00, 
1976.00, 
1977.00, 
1978.00, 
1979.00, 
1980.00, 
1981.00, 
1982.00, 
1983.00, 
1984.00, 
1985.00, 
1986.00, 
1987.00, 
1988.00, 
1989.00, 
1990.00, 
1991.00, 
1992.00, 
1993.00, 
1994.00, 
1995.00, 
1996.00, 
1997.00, 
1998.00, 
1999.00, 
2000.00, 
2001.00, 
2002.00, 
2003.00, 
2004.00, 
2005.00, 
2006.00, 
2007.00, 
2008.00, 
2009.00, 
2010.00, 
2011.00, 
2012.00, 
2013.00, 
2014.00, 
2015.00, 
2016.00, 
2017.00, 
2018.00, 
2019.00, 
2020.00, 
2021.00, 
2022.00, 
2023.00, 
2024.00, 
2025.00, 
2026.00, 
2027.00, 
2028.00, 
2029.00, 
2030.00, 
2031.00, 
2032.00, 
2033.00, 
2034.00, 
2035.00, 
2036.00, 
2037.00, 
2038.00, 
2039.00, 
2040.00, 
2041.00, 
2042.00, 
2043.00, 
2044.00, 
2045.00, 
2046.00, 
2047.00, 
2048.00, 
2049.00, 
2050.00, 
2051.00, 
2052.00, 
2053.00, 
2054.00, 
2055.00, 
2056.00, 
2057.00, 
2058.00, 
2059.00, 
2060.00, 
2061.00, 
2062.00, 
2063.00, 
2064.00, 
2065.00, 
2066.00, 
2067.00, 
2068.00, 
2069.00, 
2070.00, 
2071.00, 
2072.00, 
2073.00, 
2074.00, 
2075.00, 
2076.00, 
2077.00, 
2078.00, 
2079.00, 
2080.00, 
2081.00, 
2082.00, 
2083.00, 
2084.00, 
2085.00, 
2086.00, 
2087.00, 
2088.00, 
2089.00, 
2090.00, 
2091.00, 
2092.00, 
2093.00, 
2094.00, 
2095.00, 
2096.00, 
2097.00, 
2098.00, 
2099.00, 
2100.00, 
2101.00, 
2102.00, 
2103.00, 
2104.00, 
2105.00, 
2106.00, 
2107.00, 
2108.00, 
2109.00, 
2110.00, 
2111.00, 
2112.00, 
2113.00, 
2114.00, 
2115.00, 
2116.00, 
2117.00, 
2118.00, 
2119.00, 
2120.00, 
2121.00, 
2122.00, 
2123.00, 
2124.00, 
2125.00, 
2126.00, 
2127.00, 
2128.00, 
2129.00, 
2130.00, 
2131.00, 
2132.00, 
2133.00, 
2134.00, 
2135.00, 
2136.00, 
2137.00, 
2138.00, 
2139.00, 
2140.00, 
2141.00, 
2142.00, 
2143.00, 
2144.00, 
2145.00, 
2146.00, 
2147.00, 
2148.00, 
2149.00, 
2150.00, 
2151.00, 
2152.00, 
2153.00, 
2154.00, 
2155.00, 
2156.00, 
2157.00, 
2158.00, 
2159.00, 
2160.00, 
2161.00, 
2162.00, 
2163.00, 
2164.00, 
2165.00, 
2166.00, 
2167.00, 
2168.00, 
2169.00, 
2170.00, 
2171.00, 
2172.00, 
2173.00, 
2174.00, 
2175.00, 
2176.00, 
2177.00, 
2178.00, 
2179.00, 
2180.00, 
2181.00, 
2182.00, 
2183.00, 
2184.00, 
2185.00, 
2186.00, 
2187.00, 
2188.00, 
2189.00, 
2190.00, 
2191.00, 
2192.00, 
2193.00, 
2194.00, 
2195.00, 
2196.00, 
2197.00, 
2198.00, 
2199.00, 
2200.00, 
2201.00, 
2202.00, 
2203.00, 
2204.00, 
2205.00, 
2206.00, 
2207.00, 
2208.00, 
2209.00, 
2210.00, 
2211.00, 
2212.00, 
2213.00, 
2214.00, 
2215.00, 
2216.00, 
2217.00, 
2218.00, 
2219.00, 
2220.00, 
2221.00, 
2222.00, 
2223.00, 
2224.00, 
2225.00, 
2226.00, 
2227.00, 
2228.00, 
2229.00, 
2230.00, 
2231.00, 
2232.00, 
2233.00, 
2234.00, 
2235.00, 
2236.00, 
2237.00, 
2238.00, 
2239.00, 
2240.00, 
2241.00, 
2242.00, 
2243.00, 
2244.00, 
2245.00, 
2246.00, 
2247.00, 
2248.00, 
2249.00, 
2250.00, 
2251.00, 
2252.00, 
2253.00, 
2254.00, 
2255.00, 
2256.00, 
2257.00, 
2258.00, 
2259.00, 
2260.00, 
2261.00, 
2262.00, 
2263.00, 
2264.00, 
2265.00, 
2266.00, 
2267.00, 
2268.00, 
2269.00, 
2270.00, 
2271.00, 
2272.00, 
2273.00, 
2274.00, 
2275.00, 
2276.00, 
2277.00, 
2278.00, 
2279.00, 
2280.00, 
2281.00, 
2282.00, 
2283.00, 
2284.00, 
2285.00, 
2286.00, 
2287.00, 
2288.00, 
2289.00, 
2290.00, 
2291.00, 
2292.00, 
2293.00, 
2294.00, 
2295.00, 
2296.00, 
2297.00, 
2298.00, 
2299.00, 
2300.00, 
2301.00, 
2302.00, 
2303.00, 
2304.00, 
2305.00, 
2306.00, 
2307.00, 
2308.00, 
2309.00, 
2310.00, 
2311.00, 
2312.00, 
2313.00, 
2314.00, 
2315.00, 
2316.00, 
2317.00, 
2318.00, 
2319.00, 
2320.00, 
2321.00, 
2322.00, 
2323.00, 
2324.00, 
2325.00, 
2326.00, 
2327.00, 
2328.00, 
2329.00, 
2330.00, 
2331.00, 
2332.00, 
2333.00, 
2334.00, 
2335.00, 
2336.00, 
2337.00, 
2338.00, 
2339.00, 
2340.00, 
2341.00, 
2342.00, 
2343.00, 
2344.00, 
2345.00, 
2346.00, 
2347.00, 
2348.00, 
2349.00, 
2350.00, 
2351.00, 
2352.00, 
2353.00, 
2354.00, 
2355.00, 
2356.00, 
2357.00, 
2358.00, 
2359.00, 
2360.00, 
2361.00, 
2362.00, 
2363.00, 
2364.00, 
2365.00, 
2366.00, 
2367.00, 
2368.00, 
2369.00, 
2370.00, 
2371.00, 
2372.00, 
2373.00, 
2374.00, 
2375.00, 
2376.00, 
2377.00, 
2378.00, 
2379.00, 
2380.00, 
2381.00, 
2382.00, 
2383.00, 
2384.00, 
2385.00, 
2386.00, 
2387.00, 
2388.00, 
2389.00, 
2390.00, 
2391.00, 
2392.00, 
2393.00, 
2394.00, 
2395.00, 
2396.00, 
2397.00, 
2398.00, 
2399.00, 
2400.00, 
2401.00, 
2402.00, 
2403.00, 
2404.00, 
2405.00, 
2406.00, 
2407.00, 
2408.00, 
2409.00, 
2410.00, 
2411.00, 
2412.00, 
2413.00, 
2414.00, 
2415.00, 
2416.00, 
2417.00, 
2418.00, 
2419.00, 
2420.00, 
2421.00, 
2422.00, 
2423.00, 
2424.00, 
2425.00, 
2426.00, 
2427.00, 
2428.00, 
2429.00, 
2430.00, 
2431.00, 
2432.00, 
2433.00, 
2434.00, 
2435.00, 
2436.00, 
2437.00, 
2438.00, 
2439.00, 
2440.00, 
2441.00, 
2442.00, 
2443.00, 
2444.00, 
2445.00, 
2446.00, 
2447.00, 
2448.00, 
2449.00, 
2450.00, 
2451.00, 
2452.00, 
2453.00, 
2454.00, 
2455.00, 
2456.00, 
2457.00, 
2458.00, 
2459.00, 
2460.00, 
2461.00, 
2462.00, 
2463.00, 
2464.00, 
2465.00, 
2466.00, 
2467.00, 
2468.00, 
2469.00, 
2470.00, 
2471.00, 
2472.00, 
2473.00, 
2474.00, 
2475.00, 
2476.00, 
2477.00, 
2478.00, 
2479.00, 
2480.00, 
2481.00, 
2482.00, 
2483.00, 
2484.00, 
2485.00, 
2486.00, 
2487.00, 
2488.00, 
2489.00, 
2490.00, 
2491.00, 
2492.00, 
2493.00, 
2494.00, 
2495.00, 
2496.00, 
2497.00, 
2498.00, 
2499.00, 
2500.00, 
2501.00, 
2502.00, 
2503.00, 
2504.00, 
2505.00, 
2506.00, 
2507.00, 
2508.00, 
2509.00, 
2510.00, 
2511.00, 
2512.00, 
2513.00, 
2514.00, 
2515.00, 
2516.00, 
2517.00, 
2518.00, 
2519.00, 
2520.00, 
2521.00, 
2522.00, 
2523.00, 
2524.00, 
2525.00, 
2526.00, 
2527.00, 
2528.00, 
2529.00, 
2530.00, 
2531.00, 
2532.00, 
2533.00, 
2534.00, 
2535.00, 
2536.00, 
2537.00, 
2538.00, 
2539.00, 
2540.00, 
2541.00, 
2542.00, 
2543.00, 
2544.00, 
2545.00, 
2546.00, 
2547.00, 
2548.00, 
2549.00, 
2550.00, 
2551.00, 
2552.00, 
2553.00, 
2554.00, 
2555.00, 
2556.00, 
2557.00, 
2558.00, 
2559.00, 
2560.00, 
2561.00, 
2562.00, 
2563.00, 
2564.00, 
2565.00, 
2566.00, 
2567.00, 
2568.00, 
2569.00, 
2570.00, 
2571.00, 
2572.00, 
2573.00, 
2574.00, 
2575.00, 
2576.00, 
2577.00, 
2578.00, 
2579.00, 
2580.00, 
2581.00, 
2582.00, 
2583.00, 
2584.00, 
2585.00, 
2586.00, 
2587.00, 
2588.00, 
2589.00, 
2590.00, 
2591.00, 
2592.00, 
2593.00, 
2594.00, 
2595.00, 
2596.00, 
2597.00, 
2598.00, 
2599.00, 
2600.00, 
