"1bP2 - RawData"
"Wavelength nm.","T%"
200.00,0.001
201.00,-0.001
202.00,0.003
203.00,0.001
204.00,0.001
205.00,0.002
206.00,-0.001
207.00,0.000
208.00,0.001
209.00,0.000
210.00,-0.001
211.00,-0.000
212.00,0.000
213.00,-0.001
214.00,-0.001
215.00,0.001
216.00,0.004
217.00,0.002
218.00,0.003
219.00,0.002
220.00,0.002
221.00,-0.000
222.00,-0.000
223.00,0.001
224.00,0.002
225.00,-0.002
226.00,0.001
227.00,-0.001
228.00,-0.000
229.00,0.001
230.00,0.000
231.00,0.001
232.00,-0.000
233.00,0.000
234.00,0.001
235.00,-0.001
236.00,0.002
237.00,-0.001
238.00,0.001
239.00,0.001
240.00,0.001
241.00,0.001
242.00,0.001
243.00,0.001
244.00,0.002
245.00,0.001
246.00,-0.000
247.00,0.001
248.00,0.000
249.00,0.001
250.00,0.001
251.00,-0.000
252.00,0.000
253.00,-0.001
254.00,0.000
255.00,0.001
256.00,-0.000
257.00,0.002
258.00,0.000
259.00,0.001
260.00,0.002
261.00,-0.000
262.00,0.000
263.00,0.001
264.00,0.001
265.00,0.003
266.00,-0.000
267.00,-0.000
268.00,0.000
269.00,-0.001
270.00,0.001
271.00,0.001
272.00,-0.000
273.00,0.001
274.00,0.002
275.00,-0.001
276.00,0.000
277.00,0.001
278.00,-0.000
279.00,0.000
280.00,0.002
281.00,-0.000
282.00,0.000
283.00,0.000
284.00,0.001
285.00,0.001
286.00,0.000
287.00,0.001
288.00,-0.000
289.00,-0.002
290.00,0.001
291.00,0.001
292.00,-0.000
293.00,0.001
294.00,-0.000
295.00,-0.000
296.00,0.001
297.00,-0.001
298.00,0.002
299.00,0.004
300.00,0.004
301.00,0.005
302.00,0.007
303.00,0.011
304.00,0.017
305.00,0.027
306.00,0.037
307.00,0.061
308.00,0.096
309.00,0.145
310.00,0.196
311.00,0.264
312.00,0.350
313.00,0.472
314.00,0.615
315.00,0.798
316.00,1.021
317.00,1.263
318.00,1.535
319.00,1.875
320.00,2.236
321.00,2.664
322.00,3.128
323.00,3.635
324.00,4.182
325.00,4.724
326.00,5.254
327.00,5.894
328.00,6.506
329.00,7.134
330.00,7.803
331.00,8.476
332.00,9.108
333.00,9.849
334.00,10.478
335.00,11.169
336.00,11.837
337.00,12.505
338.00,13.097
339.00,13.658
340.00,14.230
341.00,14.787
342.00,15.328
343.00,15.835
344.00,16.349
345.00,16.799
346.00,17.188
347.00,17.594
348.00,17.952
349.00,18.235
350.00,18.613
351.00,18.891
352.00,19.138
353.00,19.394
354.00,19.628
355.00,19.884
356.00,20.063
357.00,20.233
358.00,20.381
359.00,20.591
360.00,20.784
361.00,20.828
362.00,20.984
363.00,21.111
364.00,21.113
365.00,21.163
366.00,21.241
367.00,21.261
368.00,21.326
369.00,21.329
370.00,21.335
371.00,21.334
372.00,21.295
373.00,21.327
374.00,21.273
375.00,21.207
376.00,21.149
377.00,21.083
378.00,21.001
379.00,20.919
380.00,20.931
381.00,20.838
382.00,20.841
383.00,20.817
384.00,20.806
385.00,20.840
386.00,20.802
387.00,20.849
388.00,20.871
389.00,20.854
390.00,20.864
391.00,20.836
392.00,20.872
393.00,20.858
394.00,20.814
395.00,20.793
396.00,20.790
397.00,20.785
398.00,20.815
399.00,20.837
400.00,20.801
401.00,20.752
402.00,20.819
403.00,20.811
404.00,20.777
405.00,20.740
406.00,20.792
407.00,20.662
408.00,20.697
409.00,20.628
410.00,20.559
411.00,20.602
412.00,20.533
413.00,20.548
414.00,20.492
415.00,20.521
416.00,20.542
417.00,20.515
418.00,20.550
419.00,20.620
420.00,20.640
421.00,20.598
422.00,20.624
423.00,20.664
424.00,20.684
425.00,20.731
426.00,20.735
427.00,20.781
428.00,20.820
429.00,20.832
430.00,20.885
431.00,20.948
432.00,20.957
433.00,21.038
434.00,21.050
435.00,21.137
436.00,21.186
437.00,21.272
438.00,21.322
439.00,21.397
440.00,21.468
441.00,21.499
442.00,21.583
443.00,21.600
444.00,21.722
445.00,21.857
446.00,21.941
447.00,22.012
448.00,22.132
449.00,22.228
450.00,22.380
451.00,22.480
452.00,22.514
453.00,22.646
454.00,22.723
455.00,22.817
456.00,22.963
457.00,23.072
458.00,23.163
459.00,23.279
460.00,23.410
461.00,23.545
462.00,23.629
463.00,23.785
464.00,23.908
465.00,24.012
466.00,24.154
467.00,24.286
468.00,24.381
469.00,24.484
470.00,24.616
471.00,24.726
472.00,24.822
473.00,24.927
474.00,25.057
475.00,25.178
476.00,25.273
477.00,25.431
478.00,25.566
479.00,25.716
480.00,25.851
481.00,25.982
482.00,26.150
483.00,26.303
484.00,26.459
485.00,26.576
486.00,26.714
487.00,26.886
488.00,27.044
489.00,27.228
490.00,27.354
491.00,27.526
492.00,27.651
493.00,27.875
494.00,28.036
495.00,28.038
496.00,28.164
497.00,28.271
498.00,28.435
499.00,28.592
500.00,28.726
501.00,28.795
502.00,28.951
503.00,29.103
504.00,29.129
505.00,29.311
506.00,29.439
507.00,29.491
508.00,29.646
509.00,29.801
510.00,29.927
511.00,30.037
512.00,30.209
513.00,30.339
514.00,30.447
515.00,30.613
516.00,30.693
517.00,30.762
518.00,30.943
519.00,30.994
520.00,31.036
521.00,31.185
522.00,31.300
523.00,31.320
524.00,31.464
525.00,31.597
526.00,31.696
527.00,31.722
528.00,31.833
529.00,32.033
530.00,32.175
531.00,32.275
532.00,32.340
533.00,32.372
534.00,32.548
535.00,32.553
536.00,32.692
537.00,32.745
538.00,32.821
539.00,32.876
540.00,32.949
541.00,33.028
542.00,33.042
543.00,33.086
544.00,33.191
545.00,33.294
546.00,33.252
547.00,33.387
548.00,33.548
549.00,33.535
550.00,33.668
551.00,33.785
552.00,33.837
553.00,33.903
554.00,33.930
555.00,33.974
556.00,34.040
557.00,34.079
558.00,34.166
559.00,34.228
560.00,34.320
561.00,34.403
562.00,34.457
563.00,34.467
564.00,34.504
565.00,34.548
566.00,34.556
567.00,34.642
568.00,34.679
569.00,34.731
570.00,34.776
571.00,34.790
572.00,34.845
573.00,34.804
574.00,34.859
575.00,34.903
576.00,34.904
577.00,34.964
578.00,35.080
579.00,35.044
580.00,35.177
581.00,35.300
582.00,35.386
583.00,35.384
584.00,35.517
585.00,35.581
586.00,35.626
587.00,35.694
588.00,35.665
589.00,35.607
590.00,35.726
591.00,35.785
592.00,35.714
593.00,35.786
594.00,35.905
595.00,36.013
596.00,36.051
597.00,36.126
598.00,36.156
599.00,36.085
600.00,36.179
601.00,36.295
602.00,36.296
603.00,36.377
604.00,36.384
605.00,36.416
606.00,36.468
607.00,36.530
608.00,36.591
609.00,36.559
610.00,36.697
611.00,36.846
612.00,36.678
613.00,36.734
614.00,36.794
615.00,36.859
616.00,36.983
617.00,36.962
618.00,36.996
619.00,37.093
620.00,37.125
621.00,37.168
622.00,37.257
623.00,37.302
624.00,37.394
625.00,37.512
626.00,37.569
627.00,37.579
628.00,37.660
629.00,37.676
630.00,37.686
631.00,37.805
632.00,37.857
633.00,37.975
634.00,38.058
635.00,38.187
636.00,38.237
637.00,38.289
638.00,38.369
639.00,38.468
640.00,38.515
641.00,38.529
642.00,38.640
643.00,38.729
644.00,38.825
645.00,38.909
646.00,39.011
647.00,39.083
648.00,39.168
649.00,39.178
650.00,39.219
651.00,39.409
652.00,39.501
653.00,39.462
654.00,39.555
655.00,39.694
656.00,39.982
657.00,39.906
658.00,40.023
659.00,40.163
660.00,40.217
661.00,40.292
662.00,40.332
663.00,40.446
664.00,40.681
665.00,40.864
666.00,40.806
667.00,40.938
668.00,40.979
669.00,41.231
670.00,41.392
671.00,41.502
672.00,42.022
673.00,41.517
674.00,41.578
675.00,41.742
676.00,41.909
677.00,42.014
678.00,41.843
679.00,42.032
680.00,42.211
681.00,42.412
682.00,42.403
683.00,42.418
684.00,42.647
685.00,42.771
686.00,42.646
687.00,42.700
688.00,42.850
689.00,42.975
690.00,43.230
691.00,43.461
692.00,43.289
693.00,43.252
694.00,43.412
695.00,43.611
696.00,43.734
697.00,43.787
698.00,43.872
699.00,44.049
700.00,44.145
701.00,44.108
702.00,44.301
703.00,44.502
704.00,44.599
705.00,44.617
706.00,44.697
707.00,44.739
708.00,44.610
709.00,45.015
710.00,45.432
711.00,45.015
712.00,45.036
713.00,45.139
714.00,45.346
715.00,45.393
716.00,45.309
717.00,45.432
718.00,45.539
719.00,45.427
720.00,45.825
721.00,50.310
722.00,50.292
723.00,50.337
724.00,50.327
725.00,50.406
726.00,50.463
727.00,50.447
728.00,50.486
729.00,50.533
730.00,50.604
731.00,50.689
732.00,50.638
733.00,50.755
734.00,50.776
735.00,50.845
736.00,50.893
737.00,50.888
738.00,51.042
739.00,50.988
740.00,51.037
741.00,51.164
742.00,51.168
743.00,51.150
744.00,51.144
745.00,51.179
746.00,51.226
747.00,51.210
748.00,51.225
749.00,51.270
750.00,51.335
751.00,51.233
752.00,51.345
753.00,51.311
754.00,51.343
755.00,51.336
756.00,51.412
757.00,51.363
758.00,51.502
759.00,51.488
760.00,51.462
761.00,51.452
762.00,51.534
763.00,51.619
764.00,51.561
765.00,51.526
766.00,51.653
767.00,51.632
768.00,51.607
769.00,51.642
770.00,51.686
771.00,51.601
772.00,51.694
773.00,51.662
774.00,51.660
775.00,51.768
776.00,51.695
777.00,51.882
778.00,51.827
779.00,51.785
780.00,51.893
781.00,51.785
782.00,51.886
783.00,51.751
784.00,51.825
785.00,51.800
786.00,51.882
787.00,51.889
788.00,51.888
789.00,51.957
790.00,51.859
791.00,51.897
792.00,51.854
793.00,51.912
794.00,51.840
795.00,51.823
796.00,51.846
797.00,51.824
798.00,51.899
799.00,51.757
800.00,51.771
801.00,51.791
802.00,51.733
803.00,51.765
804.00,51.758
805.00,51.809
806.00,51.762
807.00,51.810
808.00,51.718
809.00,51.741
810.00,51.778
811.00,51.726
812.00,51.705
813.00,51.735
814.00,51.729
815.00,51.766
816.00,51.696
817.00,51.710
818.00,51.641
819.00,51.625
820.00,51.632
821.00,51.700
822.00,51.653
823.00,51.560
824.00,51.664
825.00,51.698
826.00,51.618
827.00,51.588
828.00,51.696
829.00,51.672
830.00,51.723
831.00,54.326
832.00,54.332
833.00,54.294
834.00,54.322
835.00,54.281
836.00,54.263
837.00,54.236
838.00,54.247
839.00,54.255
840.00,54.196
841.00,54.193
842.00,54.171
843.00,54.202
844.00,54.194
845.00,54.138
846.00,54.178
847.00,54.107
848.00,54.134
849.00,54.046
850.00,54.082
851.00,53.970
852.00,54.014
853.00,53.950
854.00,53.945
855.00,53.927
856.00,53.904
857.00,53.938
858.00,53.900
859.00,53.855
860.00,53.857
861.00,53.889
862.00,53.821
863.00,53.831
864.00,53.823
865.00,53.828
866.00,53.846
867.00,53.739
868.00,53.940
869.00,53.791
870.00,53.761
871.00,53.765
872.00,53.772
873.00,53.718
874.00,53.777
875.00,53.721
876.00,53.740
877.00,53.730
878.00,53.784
879.00,53.745
880.00,53.754
881.00,53.729
882.00,53.776
883.00,53.597
884.00,53.615
885.00,53.633
886.00,53.648
887.00,53.607
888.00,53.567
889.00,53.635
890.00,53.503
891.00,53.549
892.00,53.526
893.00,53.511
894.00,53.580
895.00,53.388
896.00,53.466
897.00,53.464
898.00,53.419
899.00,53.416
900.00,53.401
901.00,53.389
902.00,53.428
903.00,53.377
904.00,53.376
905.00,53.369
906.00,53.376
907.00,53.343
908.00,53.296
909.00,53.303
910.00,53.275
911.00,53.285
912.00,53.263
913.00,53.221
914.00,53.246
915.00,53.195
916.00,53.175
917.00,53.168
918.00,53.170
919.00,53.135
920.00,53.099
921.00,53.132
922.00,53.106
923.00,53.061
924.00,53.022
925.00,53.051
926.00,53.047
927.00,53.013
928.00,52.987
929.00,53.000
930.00,52.939
931.00,52.938
932.00,52.906
933.00,52.944
934.00,52.906
935.00,52.871
936.00,52.833
937.00,52.872
938.00,52.790
939.00,52.835
940.00,52.805
941.00,52.798
942.00,52.774
943.00,52.772
944.00,52.750
945.00,52.741
946.00,52.719
947.00,52.658
948.00,52.664
949.00,52.667
950.00,52.648
951.00,52.631
952.00,52.627
953.00,52.579
954.00,52.574
955.00,52.524
956.00,52.505
957.00,52.491
958.00,52.496
959.00,52.425
960.00,52.426
961.00,52.441
962.00,52.424
963.00,52.380
964.00,52.388
965.00,52.385
966.00,52.382
967.00,52.363
968.00,52.352
969.00,52.373
970.00,52.349
971.00,52.380
972.00,52.333
973.00,52.375
974.00,52.389
975.00,52.351
976.00,52.384
977.00,52.377
978.00,52.399
979.00,52.369
980.00,52.398
981.00,52.386
982.00,52.355
983.00,52.369
984.00,52.354
985.00,52.377
986.00,52.327
987.00,52.375
988.00,52.328
989.00,52.311
990.00,52.306
991.00,52.306
992.00,52.308
993.00,52.269
994.00,52.270
995.00,52.250
996.00,52.260
997.00,52.245
998.00,52.205
999.00,52.221
1000.00,52.168
1001.00,52.187
1002.00,52.172
1003.00,52.156
1004.00,52.150
1005.00,52.106
1006.00,52.153
1007.00,52.129
1008.00,52.103
1009.00,52.093
1010.00,52.101
1011.00,52.085
1012.00,52.063
1013.00,52.070
1014.00,52.012
1015.00,52.045
1016.00,51.997
1017.00,51.991
1018.00,51.997
1019.00,51.952
1020.00,51.967
1021.00,51.953
1022.00,51.928
1023.00,51.904
1024.00,51.946
1025.00,51.896
1026.00,51.865
1027.00,51.847
1028.00,51.838
1029.00,51.839
1030.00,51.775
1031.00,51.804
1032.00,51.773
1033.00,51.770
1034.00,51.766
1035.00,51.716
1036.00,51.686
1037.00,51.690
1038.00,51.676
1039.00,51.633
1040.00,51.636
1041.00,51.594
1042.00,51.584
1043.00,51.565
1044.00,51.597
1045.00,51.588
1046.00,51.574
1047.00,51.588
1048.00,51.605
1049.00,51.611
1050.00,51.609
1051.00,51.658
1052.00,51.638
1053.00,51.673
1054.00,51.656
1055.00,51.696
1056.00,51.709
1057.00,51.715
1058.00,51.687
1059.00,51.693
1060.00,51.705
1061.00,51.670
1062.00,51.674
1063.00,51.681
1064.00,51.694
1065.00,51.684
1066.00,51.662
1067.00,51.662
1068.00,51.674
1069.00,51.625
1070.00,51.618
1071.00,51.603
1072.00,51.626
1073.00,51.599
1074.00,51.598
1075.00,51.594
1076.00,51.609
1077.00,51.580
1078.00,51.562
1079.00,51.557
1080.00,51.576
1081.00,51.591
1082.00,51.566
1083.00,51.566
1084.00,51.560
1085.00,51.569
1086.00,51.530
1087.00,51.557
1088.00,51.560
1089.00,51.517
1090.00,51.516
1091.00,51.519
1092.00,51.511
1093.00,51.489
1094.00,51.468
1095.00,51.481
1096.00,51.448
1097.00,51.453
1098.00,51.448
1099.00,51.436
1100.00,51.433
1101.00,51.418
1102.00,51.393
1103.00,51.400
1104.00,51.392
1105.00,51.375
1106.00,51.361
1107.00,51.352
1108.00,51.341
1109.00,51.348
1110.00,51.327
1111.00,51.329
1112.00,51.318
1113.00,51.304
1114.00,51.299
1115.00,51.301
1116.00,51.284
1117.00,51.277
1118.00,51.271
1119.00,51.289
1120.00,51.274
1121.00,51.281
1122.00,51.275
1123.00,51.242
1124.00,51.273
1125.00,51.313
1126.00,51.242
1127.00,51.244
1128.00,51.233
1129.00,51.201
1130.00,51.191
1131.00,51.192
1132.00,51.192
1133.00,51.207
1134.00,51.191
1135.00,51.166
1136.00,51.168
1137.00,51.189
1138.00,51.175
1139.00,51.185
1140.00,51.184
1141.00,51.164
1142.00,51.171
1143.00,51.175
1144.00,51.150
1145.00,51.144
1146.00,51.128
1147.00,51.142
1148.00,51.127
1149.00,51.147
1150.00,51.131
1151.00,51.133
1152.00,51.136
1153.00,51.136
1154.00,51.115
1155.00,51.135
1156.00,51.114
1157.00,51.111
1158.00,51.106
1159.00,51.100
1160.00,51.095
1161.00,51.130
1162.00,51.119
1163.00,51.121
1164.00,51.128
1165.00,51.114
1166.00,51.121
1167.00,51.102
1168.00,51.112
1169.00,51.103
1170.00,51.093
1171.00,51.080
1172.00,51.100
1173.00,51.084
1174.00,51.096
1175.00,51.102
1176.00,51.104
1177.00,51.093
1178.00,51.087
1179.00,51.106
1180.00,51.111
1181.00,51.127
1182.00,51.110
1183.00,51.108
1184.00,51.087
1185.00,51.109
1186.00,51.100
1187.00,51.099
1188.00,51.098
1189.00,51.103
1190.00,51.092
1191.00,51.083
1192.00,51.096
1193.00,51.079
1194.00,51.075
1195.00,51.049
1196.00,51.099
1197.00,51.112
1198.00,51.067
1199.00,51.102
1200.00,51.118
1201.00,51.104
1202.00,51.082
1203.00,51.083
1204.00,51.069
1205.00,51.091
1206.00,51.077
1207.00,51.091
1208.00,51.069
1209.00,51.089
1210.00,51.099
1211.00,51.080
1212.00,51.082
1213.00,51.046
1214.00,51.088
1215.00,51.054
1216.00,51.072
1217.00,51.089
1218.00,51.091
1219.00,51.123
1220.00,51.093
1221.00,51.125
1222.00,51.099
1223.00,51.101
1224.00,51.118
1225.00,51.088
1226.00,51.089
1227.00,51.086
1228.00,51.099
1229.00,51.104
1230.00,51.129
1231.00,51.124
1232.00,51.162
1233.00,51.156
1234.00,51.139
1235.00,51.138
1236.00,51.126
1237.00,51.114
1238.00,51.133
1239.00,51.122
1240.00,51.113
1241.00,51.129
1242.00,51.121
1243.00,51.154
1244.00,51.130
1245.00,51.154
1246.00,51.167
1247.00,51.154
1248.00,51.153
1249.00,51.164
1250.00,51.163
1251.00,51.153
1252.00,51.186
1253.00,51.152
1254.00,51.195
1255.00,51.179
1256.00,51.117
1257.00,51.137
1258.00,51.216
1259.00,51.219
1260.00,51.227
1261.00,51.213
1262.00,51.211
1263.00,51.207
1264.00,51.211
1265.00,51.224
1266.00,51.222
1267.00,51.212
1268.00,51.227
1269.00,51.220
1270.00,51.247
1271.00,51.268
1272.00,51.257
1273.00,51.282
1274.00,51.263
1275.00,51.271
1276.00,51.279
1277.00,51.275
1278.00,51.294
1279.00,51.300
1280.00,51.282
1281.00,51.291
1282.00,51.297
1283.00,51.361
1284.00,51.313
1285.00,51.306
1286.00,51.308
1287.00,51.311
1288.00,51.317
1289.00,51.304
1290.00,51.346
1291.00,51.337
1292.00,51.330
1293.00,51.341
1294.00,51.345
1295.00,51.366
1296.00,51.358
1297.00,51.363
1298.00,51.397
1299.00,51.365
1300.00,51.376
1301.00,51.377
1302.00,51.416
1303.00,51.404
1304.00,51.395
1305.00,51.415
1306.00,51.417
1307.00,51.427
1308.00,51.416
1309.00,51.442
1310.00,51.425
1311.00,51.391
1312.00,51.430
1313.00,51.437
1314.00,51.469
1315.00,51.495
1316.00,51.466
1317.00,51.498
1318.00,51.510
1319.00,51.510
1320.00,51.510
1321.00,51.658
1322.00,51.639
1323.00,51.655
1324.00,51.653
1325.00,51.624
1326.00,51.666
1327.00,51.646
1328.00,51.615
1329.00,51.614
1330.00,51.632
1331.00,51.635
1332.00,51.637
1333.00,51.622
1334.00,51.661
1335.00,51.674
1336.00,51.688
1337.00,51.740
1338.00,51.813
1339.00,51.858
1340.00,51.913
1341.00,51.971
1342.00,52.026
1343.00,52.069
1344.00,52.112
1345.00,52.184
1346.00,52.223
1347.00,52.229
1348.00,52.281
1349.00,52.277
1350.00,52.285
1351.00,52.304
1352.00,52.332
1353.00,52.335
1354.00,52.321
1355.00,52.298
1356.00,52.357
1357.00,52.354
1358.00,52.389
1359.00,52.381
1360.00,52.357
1361.00,52.315
1362.00,52.304
1363.00,52.362
1364.00,52.460
1365.00,52.352
1366.00,52.558
1367.00,52.546
1368.00,52.309
1369.00,52.367
1370.00,52.347
1371.00,52.256
1372.00,52.304
1373.00,52.349
1374.00,52.364
1375.00,52.333
1376.00,52.328
1377.00,52.348
1378.00,52.433
1379.00,52.371
1380.00,52.340
1381.00,52.407
1382.00,52.304
1383.00,52.335
1384.00,52.251
1385.00,52.291
1386.00,52.327
1387.00,52.345
1388.00,52.274
1389.00,52.337
1390.00,52.271
1391.00,52.327
1392.00,52.311
1393.00,52.310
1394.00,52.334
1395.00,52.308
1396.00,52.254
1397.00,52.282
1398.00,52.336
1399.00,52.277
1400.00,52.033
1401.00,52.300
1402.00,52.361
1403.00,52.319
1404.00,52.312
1405.00,52.344
1406.00,52.371
1407.00,52.362
1408.00,52.345
1409.00,52.358
1410.00,52.391
1411.00,52.362
1412.00,52.465
1413.00,52.368
1414.00,52.350
1415.00,52.389
1416.00,52.460
1417.00,52.450
1418.00,52.404
1419.00,52.410
1420.00,52.432
1421.00,52.481
1422.00,52.468
1423.00,52.491
1424.00,52.474
1425.00,52.508
1426.00,52.495
1427.00,52.510
1428.00,52.512
1429.00,52.547
1430.00,52.530
1431.00,52.549
1432.00,52.565
1433.00,52.593
1434.00,52.598
1435.00,52.656
1436.00,52.647
1437.00,52.639
1438.00,52.656
1439.00,52.695
1440.00,52.694
1441.00,52.700
1442.00,52.729
1443.00,52.749
1444.00,52.825
1445.00,52.751
1446.00,52.769
1447.00,52.824
1448.00,52.842
1449.00,52.842
1450.00,52.850
1451.00,52.856
1452.00,52.880
1453.00,52.872
1454.00,52.892
1455.00,52.913
1456.00,52.926
1457.00,52.905
1458.00,52.958
1459.00,52.966
1460.00,52.973
1461.00,53.011
1462.00,53.039
1463.00,53.010
1464.00,53.019
1465.00,53.040
1466.00,53.039
1467.00,53.070
1468.00,53.112
1469.00,53.078
1470.00,53.107
1471.00,53.120
1472.00,53.127
1473.00,53.154
1474.00,53.181
1475.00,53.205
1476.00,53.208
1477.00,53.188
1478.00,53.220
1479.00,53.225
1480.00,53.230
1481.00,53.234
1482.00,53.280
1483.00,53.282
1484.00,53.294
1485.00,53.309
1486.00,53.310
1487.00,53.327
1488.00,53.338
1489.00,53.321
1490.00,53.328
1491.00,53.339
1492.00,53.353
1493.00,53.338
1494.00,53.392
1495.00,53.375
1496.00,53.405
1497.00,53.396
1498.00,53.411
1499.00,53.438
1500.00,53.427
1501.00, 
1502.00, 
1503.00, 
1504.00, 
1505.00, 
1506.00, 
1507.00, 
1508.00, 
1509.00, 
1510.00, 
1511.00, 
1512.00, 
1513.00, 
1514.00, 
1515.00, 
1516.00, 
1517.00, 
1518.00, 
1519.00, 
1520.00, 
1521.00, 
1522.00, 
1523.00, 
1524.00, 
1525.00, 
1526.00, 
1527.00, 
1528.00, 
1529.00, 
1530.00, 
1531.00, 
1532.00, 
1533.00, 
1534.00, 
1535.00, 
1536.00, 
1537.00, 
1538.00, 
1539.00, 
1540.00, 
1541.00, 
1542.00, 
1543.00, 
1544.00, 
1545.00, 
1546.00, 
1547.00, 
1548.00, 
1549.00, 
1550.00, 
1551.00, 
1552.00, 
1553.00, 
1554.00, 
1555.00, 
1556.00, 
1557.00, 
1558.00, 
1559.00, 
1560.00, 
1561.00, 
1562.00, 
1563.00, 
1564.00, 
1565.00, 
1566.00, 
1567.00, 
1568.00, 
1569.00, 
1570.00, 
1571.00, 
1572.00, 
1573.00, 
1574.00, 
1575.00, 
1576.00, 
1577.00, 
1578.00, 
1579.00, 
1580.00, 
1581.00, 
1582.00, 
1583.00, 
1584.00, 
1585.00, 
1586.00, 
1587.00, 
1588.00, 
1589.00, 
1590.00, 
1591.00, 
1592.00, 
1593.00, 
1594.00, 
1595.00, 
1596.00, 
1597.00, 
1598.00, 
1599.00, 
1600.00, 
1601.00, 
1602.00, 
1603.00, 
1604.00, 
1605.00, 
1606.00, 
1607.00, 
1608.00, 
1609.00, 
1610.00, 
1611.00, 
1612.00, 
1613.00, 
1614.00, 
1615.00, 
1616.00, 
1617.00, 
1618.00, 
1619.00, 
1620.00, 
1621.00, 
1622.00, 
1623.00, 
1624.00, 
1625.00, 
1626.00, 
1627.00, 
1628.00, 
1629.00, 
1630.00, 
1631.00, 
1632.00, 
1633.00, 
1634.00, 
1635.00, 
1636.00, 
1637.00, 
1638.00, 
1639.00, 
1640.00, 
1641.00, 
1642.00, 
1643.00, 
1644.00, 
1645.00, 
1646.00, 
1647.00, 
1648.00, 
1649.00, 
1650.00, 
1651.00, 
1652.00, 
1653.00, 
1654.00, 
1655.00, 
1656.00, 
1657.00, 
1658.00, 
1659.00, 
1660.00, 
1661.00, 
1662.00, 
1663.00, 
1664.00, 
1665.00, 
1666.00, 
1667.00, 
1668.00, 
1669.00, 
1670.00, 
1671.00, 
1672.00, 
1673.00, 
1674.00, 
1675.00, 
1676.00, 
1677.00, 
1678.00, 
1679.00, 
1680.00, 
1681.00, 
1682.00, 
1683.00, 
1684.00, 
1685.00, 
1686.00, 
1687.00, 
1688.00, 
1689.00, 
1690.00, 
1691.00, 
1692.00, 
1693.00, 
1694.00, 
1695.00, 
1696.00, 
1697.00, 
1698.00, 
1699.00, 
1700.00, 
1701.00, 
1702.00, 
1703.00, 
1704.00, 
1705.00, 
1706.00, 
1707.00, 
1708.00, 
1709.00, 
1710.00, 
1711.00, 
1712.00, 
1713.00, 
1714.00, 
1715.00, 
1716.00, 
1717.00, 
1718.00, 
1719.00, 
1720.00, 
1721.00, 
1722.00, 
1723.00, 
1724.00, 
1725.00, 
1726.00, 
1727.00, 
1728.00, 
1729.00, 
1730.00, 
1731.00, 
1732.00, 
1733.00, 
1734.00, 
1735.00, 
1736.00, 
1737.00, 
1738.00, 
1739.00, 
1740.00, 
1741.00, 
1742.00, 
1743.00, 
1744.00, 
1745.00, 
1746.00, 
1747.00, 
1748.00, 
1749.00, 
1750.00, 
1751.00, 
1752.00, 
1753.00, 
1754.00, 
1755.00, 
1756.00, 
1757.00, 
1758.00, 
1759.00, 
1760.00, 
1761.00, 
1762.00, 
1763.00, 
1764.00, 
1765.00, 
1766.00, 
1767.00, 
1768.00, 
1769.00, 
1770.00, 
1771.00, 
1772.00, 
1773.00, 
1774.00, 
1775.00, 
1776.00, 
1777.00, 
1778.00, 
1779.00, 
1780.00, 
1781.00, 
1782.00, 
1783.00, 
1784.00, 
1785.00, 
1786.00, 
1787.00, 
1788.00, 
1789.00, 
1790.00, 
1791.00, 
1792.00, 
1793.00, 
1794.00, 
1795.00, 
1796.00, 
1797.00, 
1798.00, 
1799.00, 
1800.00, 
1801.00, 
1802.00, 
1803.00, 
1804.00, 
1805.00, 
1806.00, 
1807.00, 
1808.00, 
1809.00, 
1810.00, 
1811.00, 
1812.00, 
1813.00, 
1814.00, 
1815.00, 
1816.00, 
1817.00, 
1818.00, 
1819.00, 
1820.00, 
1821.00, 
1822.00, 
1823.00, 
1824.00, 
1825.00, 
1826.00, 
1827.00, 
1828.00, 
1829.00, 
1830.00, 
1831.00, 
1832.00, 
1833.00, 
1834.00, 
1835.00, 
1836.00, 
1837.00, 
1838.00, 
1839.00, 
1840.00, 
1841.00, 
1842.00, 
1843.00, 
1844.00, 
1845.00, 
1846.00, 
1847.00, 
1848.00, 
1849.00, 
1850.00, 
1851.00, 
1852.00, 
1853.00, 
1854.00, 
1855.00, 
1856.00, 
1857.00, 
1858.00, 
1859.00, 
1860.00, 
1861.00, 
1862.00, 
1863.00, 
1864.00, 
1865.00, 
1866.00, 
1867.00, 
1868.00, 
1869.00, 
1870.00, 
1871.00, 
1872.00, 
1873.00, 
1874.00, 
1875.00, 
1876.00, 
1877.00, 
1878.00, 
1879.00, 
1880.00, 
1881.00, 
1882.00, 
1883.00, 
1884.00, 
1885.00, 
1886.00, 
1887.00, 
1888.00, 
1889.00, 
1890.00, 
1891.00, 
1892.00, 
1893.00, 
1894.00, 
1895.00, 
1896.00, 
1897.00, 
1898.00, 
1899.00, 
1900.00, 
1901.00, 
1902.00, 
1903.00, 
1904.00, 
1905.00, 
1906.00, 
1907.00, 
1908.00, 
1909.00, 
1910.00, 
1911.00, 
1912.00, 
1913.00, 
1914.00, 
1915.00, 
1916.00, 
1917.00, 
1918.00, 
1919.00, 
1920.00, 
1921.00, 
1922.00, 
1923.00, 
1924.00, 
1925.00, 
1926.00, 
1927.00, 
1928.00, 
1929.00, 
1930.00, 
1931.00, 
1932.00, 
1933.00, 
1934.00, 
1935.00, 
1936.00, 
1937.00, 
1938.00, 
1939.00, 
1940.00, 
1941.00, 
1942.00, 
1943.00, 
1944.00, 
1945.00, 
1946.00, 
1947.00, 
1948.00, 
1949.00, 
1950.00, 
1951.00, 
1952.00, 
1953.00, 
1954.00, 
1955.00, 
1956.00, 
1957.00, 
1958.00, 
1959.00, 
1960.00, 
1961.00, 
1962.00, 
1963.00, 
1964.00, 
1965.00, 
1966.00, 
1967.00, 
1968.00, 
1969.00, 
1970.00, 
1971.00, 
1972.00, 
1973.00, 
1974.00, 
1975.00, 
1976.00, 
1977.00, 
1978.00, 
1979.00, 
1980.00, 
1981.00, 
1982.00, 
1983.00, 
1984.00, 
1985.00, 
1986.00, 
1987.00, 
1988.00, 
1989.00, 
1990.00, 
1991.00, 
1992.00, 
1993.00, 
1994.00, 
1995.00, 
1996.00, 
1997.00, 
1998.00, 
1999.00, 
2000.00, 
2001.00, 
2002.00, 
2003.00, 
2004.00, 
2005.00, 
2006.00, 
2007.00, 
2008.00, 
2009.00, 
2010.00, 
2011.00, 
2012.00, 
2013.00, 
2014.00, 
2015.00, 
2016.00, 
2017.00, 
2018.00, 
2019.00, 
2020.00, 
2021.00, 
2022.00, 
2023.00, 
2024.00, 
2025.00, 
2026.00, 
2027.00, 
2028.00, 
2029.00, 
2030.00, 
2031.00, 
2032.00, 
2033.00, 
2034.00, 
2035.00, 
2036.00, 
2037.00, 
2038.00, 
2039.00, 
2040.00, 
2041.00, 
2042.00, 
2043.00, 
2044.00, 
2045.00, 
2046.00, 
2047.00, 
2048.00, 
2049.00, 
2050.00, 
2051.00, 
2052.00, 
2053.00, 
2054.00, 
2055.00, 
2056.00, 
2057.00, 
2058.00, 
2059.00, 
2060.00, 
2061.00, 
2062.00, 
2063.00, 
2064.00, 
2065.00, 
2066.00, 
2067.00, 
2068.00, 
2069.00, 
2070.00, 
2071.00, 
2072.00, 
2073.00, 
2074.00, 
2075.00, 
2076.00, 
2077.00, 
2078.00, 
2079.00, 
2080.00, 
2081.00, 
2082.00, 
2083.00, 
2084.00, 
2085.00, 
2086.00, 
2087.00, 
2088.00, 
2089.00, 
2090.00, 
2091.00, 
2092.00, 
2093.00, 
2094.00, 
2095.00, 
2096.00, 
2097.00, 
2098.00, 
2099.00, 
2100.00, 
2101.00, 
2102.00, 
2103.00, 
2104.00, 
2105.00, 
2106.00, 
2107.00, 
2108.00, 
2109.00, 
2110.00, 
2111.00, 
2112.00, 
2113.00, 
2114.00, 
2115.00, 
2116.00, 
2117.00, 
2118.00, 
2119.00, 
2120.00, 
2121.00, 
2122.00, 
2123.00, 
2124.00, 
2125.00, 
2126.00, 
2127.00, 
2128.00, 
2129.00, 
2130.00, 
2131.00, 
2132.00, 
2133.00, 
2134.00, 
2135.00, 
2136.00, 
2137.00, 
2138.00, 
2139.00, 
2140.00, 
2141.00, 
2142.00, 
2143.00, 
2144.00, 
2145.00, 
2146.00, 
2147.00, 
2148.00, 
2149.00, 
2150.00, 
2151.00, 
2152.00, 
2153.00, 
2154.00, 
2155.00, 
2156.00, 
2157.00, 
2158.00, 
2159.00, 
2160.00, 
2161.00, 
2162.00, 
2163.00, 
2164.00, 
2165.00, 
2166.00, 
2167.00, 
2168.00, 
2169.00, 
2170.00, 
2171.00, 
2172.00, 
2173.00, 
2174.00, 
2175.00, 
2176.00, 
2177.00, 
2178.00, 
2179.00, 
2180.00, 
2181.00, 
2182.00, 
2183.00, 
2184.00, 
2185.00, 
2186.00, 
2187.00, 
2188.00, 
2189.00, 
2190.00, 
2191.00, 
2192.00, 
2193.00, 
2194.00, 
2195.00, 
2196.00, 
2197.00, 
2198.00, 
2199.00, 
2200.00, 
2201.00, 
2202.00, 
2203.00, 
2204.00, 
2205.00, 
2206.00, 
2207.00, 
2208.00, 
2209.00, 
2210.00, 
2211.00, 
2212.00, 
2213.00, 
2214.00, 
2215.00, 
2216.00, 
2217.00, 
2218.00, 
2219.00, 
2220.00, 
2221.00, 
2222.00, 
2223.00, 
2224.00, 
2225.00, 
2226.00, 
2227.00, 
2228.00, 
2229.00, 
2230.00, 
2231.00, 
2232.00, 
2233.00, 
2234.00, 
2235.00, 
2236.00, 
2237.00, 
2238.00, 
2239.00, 
2240.00, 
2241.00, 
2242.00, 
2243.00, 
2244.00, 
2245.00, 
2246.00, 
2247.00, 
2248.00, 
2249.00, 
2250.00, 
2251.00, 
2252.00, 
2253.00, 
2254.00, 
2255.00, 
2256.00, 
2257.00, 
2258.00, 
2259.00, 
2260.00, 
2261.00, 
2262.00, 
2263.00, 
2264.00, 
2265.00, 
2266.00, 
2267.00, 
2268.00, 
2269.00, 
2270.00, 
2271.00, 
2272.00, 
2273.00, 
2274.00, 
2275.00, 
2276.00, 
2277.00, 
2278.00, 
2279.00, 
2280.00, 
2281.00, 
2282.00, 
2283.00, 
2284.00, 
2285.00, 
2286.00, 
2287.00, 
2288.00, 
2289.00, 
2290.00, 
2291.00, 
2292.00, 
2293.00, 
2294.00, 
2295.00, 
2296.00, 
2297.00, 
2298.00, 
2299.00, 
2300.00, 
2301.00, 
2302.00, 
2303.00, 
2304.00, 
2305.00, 
2306.00, 
2307.00, 
2308.00, 
2309.00, 
2310.00, 
2311.00, 
2312.00, 
2313.00, 
2314.00, 
2315.00, 
2316.00, 
2317.00, 
2318.00, 
2319.00, 
2320.00, 
2321.00, 
2322.00, 
2323.00, 
2324.00, 
2325.00, 
2326.00, 
2327.00, 
2328.00, 
2329.00, 
2330.00, 
2331.00, 
2332.00, 
2333.00, 
2334.00, 
2335.00, 
2336.00, 
2337.00, 
2338.00, 
2339.00, 
2340.00, 
2341.00, 
2342.00, 
2343.00, 
2344.00, 
2345.00, 
2346.00, 
2347.00, 
2348.00, 
2349.00, 
2350.00, 
2351.00, 
2352.00, 
2353.00, 
2354.00, 
2355.00, 
2356.00, 
2357.00, 
2358.00, 
2359.00, 
2360.00, 
2361.00, 
2362.00, 
2363.00, 
2364.00, 
2365.00, 
2366.00, 
2367.00, 
2368.00, 
2369.00, 
2370.00, 
2371.00, 
2372.00, 
2373.00, 
2374.00, 
2375.00, 
2376.00, 
2377.00, 
2378.00, 
2379.00, 
2380.00, 
2381.00, 
2382.00, 
2383.00, 
2384.00, 
2385.00, 
2386.00, 
2387.00, 
2388.00, 
2389.00, 
2390.00, 
2391.00, 
2392.00, 
2393.00, 
2394.00, 
2395.00, 
2396.00, 
2397.00, 
2398.00, 
2399.00, 
2400.00, 
2401.00, 
2402.00, 
2403.00, 
2404.00, 
2405.00, 
2406.00, 
2407.00, 
2408.00, 
2409.00, 
2410.00, 
2411.00, 
2412.00, 
2413.00, 
2414.00, 
2415.00, 
2416.00, 
2417.00, 
2418.00, 
2419.00, 
2420.00, 
2421.00, 
2422.00, 
2423.00, 
2424.00, 
2425.00, 
2426.00, 
2427.00, 
2428.00, 
2429.00, 
2430.00, 
2431.00, 
2432.00, 
2433.00, 
2434.00, 
2435.00, 
2436.00, 
2437.00, 
2438.00, 
2439.00, 
2440.00, 
2441.00, 
2442.00, 
2443.00, 
2444.00, 
2445.00, 
2446.00, 
2447.00, 
2448.00, 
2449.00, 
2450.00, 
2451.00, 
2452.00, 
2453.00, 
2454.00, 
2455.00, 
2456.00, 
2457.00, 
2458.00, 
2459.00, 
2460.00, 
2461.00, 
2462.00, 
2463.00, 
2464.00, 
2465.00, 
2466.00, 
2467.00, 
2468.00, 
2469.00, 
2470.00, 
2471.00, 
2472.00, 
2473.00, 
2474.00, 
2475.00, 
2476.00, 
2477.00, 
2478.00, 
2479.00, 
2480.00, 
2481.00, 
2482.00, 
2483.00, 
2484.00, 
2485.00, 
2486.00, 
2487.00, 
2488.00, 
2489.00, 
2490.00, 
2491.00, 
2492.00, 
2493.00, 
2494.00, 
2495.00, 
2496.00, 
2497.00, 
2498.00, 
2499.00, 
2500.00, 
2501.00, 
2502.00, 
2503.00, 
2504.00, 
2505.00, 
2506.00, 
2507.00, 
2508.00, 
2509.00, 
2510.00, 
2511.00, 
2512.00, 
2513.00, 
2514.00, 
2515.00, 
2516.00, 
2517.00, 
2518.00, 
2519.00, 
2520.00, 
2521.00, 
2522.00, 
2523.00, 
2524.00, 
2525.00, 
2526.00, 
2527.00, 
2528.00, 
2529.00, 
2530.00, 
2531.00, 
2532.00, 
2533.00, 
2534.00, 
2535.00, 
2536.00, 
2537.00, 
2538.00, 
2539.00, 
2540.00, 
2541.00, 
2542.00, 
2543.00, 
2544.00, 
2545.00, 
2546.00, 
2547.00, 
2548.00, 
2549.00, 
2550.00, 
2551.00, 
2552.00, 
2553.00, 
2554.00, 
2555.00, 
2556.00, 
2557.00, 
2558.00, 
2559.00, 
2560.00, 
2561.00, 
2562.00, 
2563.00, 
2564.00, 
2565.00, 
2566.00, 
2567.00, 
2568.00, 
2569.00, 
2570.00, 
2571.00, 
2572.00, 
2573.00, 
2574.00, 
2575.00, 
2576.00, 
2577.00, 
2578.00, 
2579.00, 
2580.00, 
2581.00, 
2582.00, 
2583.00, 
2584.00, 
2585.00, 
2586.00, 
2587.00, 
2588.00, 
2589.00, 
2590.00, 
2591.00, 
2592.00, 
2593.00, 
2594.00, 
2595.00, 
2596.00, 
2597.00, 
2598.00, 
2599.00, 
2600.00, 
