"1cP1 - RawData"
"Wavelength nm.","T%"
200.00,0.001
201.00,0.000
202.00,0.001
203.00,0.001
204.00,0.002
205.00,0.003
206.00,-0.001
207.00,-0.001
208.00,0.003
209.00,-0.000
210.00,0.002
211.00,0.002
212.00,0.000
213.00,-0.003
214.00,0.003
215.00,-0.001
216.00,-0.001
217.00,-0.005
218.00,0.002
219.00,-0.001
220.00,0.002
221.00,0.003
222.00,0.001
223.00,-0.002
224.00,-0.001
225.00,0.001
226.00,0.002
227.00,0.002
228.00,0.000
229.00,0.003
230.00,0.001
231.00,0.000
232.00,0.002
233.00,0.001
234.00,0.003
235.00,0.000
236.00,0.001
237.00,0.002
238.00,0.001
239.00,-0.002
240.00,-0.000
241.00,0.000
242.00,0.000
243.00,0.001
244.00,0.002
245.00,0.000
246.00,-0.001
247.00,0.001
248.00,0.001
249.00,0.001
250.00,-0.000
251.00,-0.002
252.00,0.003
253.00,-0.001
254.00,-0.000
255.00,-0.001
256.00,-0.002
257.00,0.000
258.00,0.002
259.00,0.001
260.00,0.001
261.00,-0.000
262.00,-0.001
263.00,0.003
264.00,-0.001
265.00,0.000
266.00,0.000
267.00,-0.001
268.00,0.001
269.00,-0.000
270.00,0.000
271.00,-0.000
272.00,0.000
273.00,0.000
274.00,0.000
275.00,0.002
276.00,0.000
277.00,0.000
278.00,-0.000
279.00,0.002
280.00,0.001
281.00,0.000
282.00,0.003
283.00,0.000
284.00,-0.001
285.00,0.001
286.00,-0.000
287.00,0.001
288.00,0.001
289.00,0.001
290.00,-0.000
291.00,-0.000
292.00,-0.001
293.00,0.000
294.00,0.001
295.00,0.000
296.00,0.001
297.00,-0.000
298.00,-0.001
299.00,-0.000
300.00,0.000
301.00,0.001
302.00,0.001
303.00,0.002
304.00,0.000
305.00,-0.001
306.00,-0.000
307.00,0.001
308.00,0.006
309.00,0.007
310.00,0.012
311.00,0.019
312.00,0.030
313.00,0.048
314.00,0.071
315.00,0.101
316.00,0.147
317.00,0.198
318.00,0.271
319.00,0.376
320.00,0.492
321.00,0.636
322.00,0.808
323.00,1.015
324.00,1.257
325.00,1.505
326.00,1.785
327.00,2.123
328.00,2.482
329.00,2.852
330.00,3.267
331.00,3.691
332.00,4.144
333.00,4.630
334.00,5.097
335.00,5.596
336.00,6.074
337.00,6.639
338.00,7.098
339.00,7.569
340.00,8.069
341.00,8.556
342.00,9.006
343.00,9.451
344.00,9.899
345.00,10.300
346.00,10.665
347.00,11.010
348.00,11.373
349.00,11.681
350.00,11.980
351.00,12.265
352.00,12.494
353.00,12.795
354.00,13.005
355.00,13.236
356.00,13.433
357.00,13.578
358.00,13.723
359.00,13.942
360.00,14.090
361.00,14.146
362.00,14.305
363.00,14.365
364.00,14.471
365.00,14.445
366.00,14.563
367.00,14.566
368.00,14.624
369.00,14.623
370.00,14.657
371.00,14.676
372.00,14.589
373.00,14.605
374.00,14.576
375.00,14.470
376.00,14.426
377.00,14.343
378.00,14.245
379.00,14.158
380.00,14.160
381.00,14.092
382.00,14.076
383.00,14.085
384.00,14.076
385.00,14.125
386.00,14.082
387.00,14.152
388.00,14.176
389.00,14.161
390.00,14.210
391.00,14.184
392.00,14.187
393.00,14.182
394.00,14.189
395.00,14.203
396.00,14.149
397.00,14.158
398.00,14.158
399.00,14.147
400.00,14.148
401.00,14.100
402.00,14.142
403.00,14.131
404.00,14.102
405.00,14.086
406.00,14.110
407.00,14.017
408.00,14.017
409.00,13.975
410.00,13.914
411.00,13.924
412.00,13.866
413.00,13.884
414.00,13.855
415.00,13.839
416.00,13.860
417.00,13.835
418.00,13.851
419.00,13.913
420.00,13.932
421.00,13.894
422.00,13.921
423.00,13.963
424.00,13.963
425.00,13.997
426.00,14.012
427.00,14.053
428.00,14.066
429.00,14.088
430.00,14.145
431.00,14.201
432.00,14.221
433.00,14.284
434.00,14.307
435.00,14.343
436.00,14.434
437.00,14.448
438.00,14.532
439.00,14.575
440.00,14.651
441.00,14.723
442.00,14.794
443.00,14.861
444.00,14.946
445.00,15.015
446.00,15.112
447.00,15.182
448.00,15.270
449.00,15.357
450.00,15.479
451.00,15.579
452.00,15.635
453.00,15.749
454.00,15.832
455.00,15.935
456.00,16.050
457.00,16.186
458.00,16.257
459.00,16.367
460.00,16.510
461.00,16.606
462.00,16.735
463.00,16.893
464.00,17.001
465.00,17.079
466.00,17.267
467.00,17.365
468.00,17.475
469.00,17.577
470.00,17.681
471.00,17.790
472.00,17.896
473.00,18.001
474.00,18.129
475.00,18.247
476.00,18.348
477.00,18.487
478.00,18.626
479.00,18.775
480.00,18.908
481.00,19.038
482.00,19.172
483.00,19.339
484.00,19.504
485.00,19.635
486.00,19.780
487.00,19.935
488.00,20.084
489.00,20.244
490.00,20.379
491.00,20.537
492.00,20.693
493.00,20.863
494.00,21.054
495.00,21.105
496.00,21.238
497.00,21.347
498.00,21.516
499.00,21.664
500.00,21.832
501.00,21.937
502.00,22.080
503.00,22.248
504.00,22.306
505.00,22.456
506.00,22.605
507.00,22.712
508.00,22.842
509.00,23.011
510.00,23.122
511.00,23.249
512.00,23.415
513.00,23.551
514.00,23.710
515.00,23.842
516.00,23.946
517.00,24.052
518.00,24.221
519.00,24.285
520.00,24.358
521.00,24.495
522.00,24.591
523.00,24.661
524.00,24.791
525.00,24.931
526.00,25.041
527.00,25.088
528.00,25.204
529.00,25.353
530.00,25.541
531.00,25.645
532.00,25.752
533.00,25.860
534.00,25.967
535.00,26.065
536.00,26.160
537.00,26.217
538.00,26.331
539.00,26.376
540.00,26.498
541.00,26.580
542.00,26.648
543.00,26.704
544.00,26.821
545.00,26.919
546.00,26.947
547.00,27.088
548.00,27.171
549.00,27.262
550.00,27.352
551.00,27.449
552.00,27.545
553.00,27.598
554.00,27.645
555.00,27.711
556.00,27.808
557.00,27.841
558.00,27.918
559.00,27.993
560.00,28.053
561.00,28.167
562.00,28.262
563.00,28.284
564.00,28.332
565.00,28.401
566.00,28.430
567.00,28.459
568.00,28.507
569.00,28.616
570.00,28.651
571.00,28.701
572.00,28.742
573.00,28.765
574.00,28.809
575.00,28.837
576.00,28.867
577.00,28.913
578.00,29.029
579.00,29.058
580.00,29.102
581.00,29.240
582.00,29.307
583.00,29.342
584.00,29.441
585.00,29.525
586.00,29.549
587.00,29.648
588.00,29.667
589.00,29.629
590.00,29.744
591.00,29.795
592.00,29.787
593.00,29.856
594.00,29.999
595.00,30.025
596.00,30.070
597.00,30.174
598.00,30.235
599.00,30.287
600.00,30.332
601.00,30.420
602.00,30.421
603.00,30.481
604.00,30.544
605.00,30.602
606.00,30.675
607.00,30.715
608.00,30.759
609.00,30.747
610.00,30.886
611.00,31.070
612.00,30.960
613.00,30.980
614.00,31.077
615.00,31.159
616.00,31.246
617.00,31.243
618.00,31.308
619.00,31.372
620.00,31.436
621.00,31.507
622.00,31.538
623.00,31.587
624.00,31.781
625.00,31.877
626.00,31.897
627.00,31.957
628.00,32.037
629.00,32.104
630.00,32.168
631.00,32.251
632.00,32.338
633.00,32.468
634.00,32.558
635.00,32.689
636.00,32.696
637.00,32.733
638.00,32.795
639.00,33.045
640.00,33.145
641.00,33.114
642.00,33.270
643.00,33.313
644.00,33.458
645.00,33.587
646.00,33.671
647.00,33.757
648.00,33.871
649.00,33.823
650.00,33.931
651.00,34.164
652.00,34.188
653.00,34.115
654.00,34.426
655.00,34.342
656.00,34.923
657.00,34.820
658.00,34.937
659.00,35.119
660.00,35.146
661.00,35.288
662.00,35.323
663.00,35.500
664.00,35.691
665.00,35.889
666.00,35.864
667.00,36.046
668.00,36.023
669.00,36.240
670.00,36.606
671.00,36.485
672.00,36.622
673.00,36.806
674.00,36.867
675.00,36.972
676.00,37.212
677.00,37.409
678.00,37.284
679.00,37.537
680.00,37.681
681.00,37.892
682.00,37.926
683.00,37.959
684.00,38.202
685.00,38.316
686.00,38.293
687.00,38.536
688.00,38.556
689.00,38.682
690.00,38.961
691.00,39.203
692.00,39.102
693.00,39.137
694.00,39.409
695.00,39.649
696.00,39.736
697.00,39.812
698.00,39.893
699.00,40.130
700.00,40.182
701.00,40.288
702.00,40.499
703.00,40.672
704.00,40.730
705.00,40.760
706.00,40.932
707.00,40.998
708.00,40.889
709.00,41.377
710.00,41.759
711.00,41.312
712.00,41.503
713.00,41.650
714.00,41.862
715.00,41.887
716.00,41.927
717.00,42.179
718.00,42.236
719.00,42.362
720.00,42.502
721.00,46.429
722.00,46.371
723.00,46.459
724.00,46.512
725.00,46.586
726.00,46.677
727.00,46.751
728.00,46.732
729.00,46.823
730.00,46.939
731.00,46.985
732.00,47.111
733.00,47.197
734.00,47.286
735.00,47.327
736.00,47.362
737.00,47.440
738.00,47.514
739.00,47.666
740.00,47.601
741.00,47.763
742.00,47.741
743.00,47.786
744.00,47.947
745.00,47.961
746.00,48.009
747.00,47.995
748.00,48.050
749.00,48.059
750.00,48.136
751.00,48.130
752.00,48.219
753.00,48.263
754.00,48.313
755.00,48.345
756.00,48.319
757.00,48.388
758.00,48.474
759.00,48.451
760.00,48.512
761.00,48.554
762.00,48.592
763.00,48.688
764.00,48.698
765.00,48.673
766.00,48.776
767.00,48.804
768.00,48.855
769.00,48.764
770.00,48.908
771.00,48.933
772.00,48.959
773.00,49.005
774.00,49.048
775.00,49.050
776.00,49.045
777.00,49.186
778.00,49.209
779.00,49.156
780.00,49.202
781.00,49.236
782.00,49.294
783.00,49.225
784.00,49.226
785.00,49.232
786.00,49.361
787.00,49.344
788.00,49.349
789.00,49.389
790.00,49.349
791.00,49.385
792.00,49.290
793.00,49.418
794.00,49.392
795.00,49.422
796.00,49.424
797.00,49.398
798.00,49.429
799.00,49.361
800.00,49.386
801.00,49.420
802.00,49.387
803.00,49.357
804.00,49.396
805.00,49.487
806.00,49.354
807.00,49.440
808.00,49.409
809.00,49.347
810.00,49.420
811.00,49.341
812.00,49.432
813.00,49.350
814.00,49.396
815.00,49.414
816.00,49.379
817.00,49.410
818.00,49.295
819.00,49.363
820.00,49.306
821.00,49.348
822.00,49.395
823.00,49.244
824.00,49.355
825.00,49.325
826.00,49.228
827.00,49.364
828.00,49.389
829.00,49.360
830.00,49.364
831.00,51.735
832.00,51.727
833.00,51.717
834.00,51.691
835.00,51.690
836.00,51.724
837.00,51.683
838.00,51.702
839.00,51.649
840.00,51.613
841.00,51.645
842.00,51.656
843.00,51.663
844.00,51.640
845.00,51.570
846.00,51.706
847.00,51.593
848.00,51.585
849.00,51.525
850.00,51.539
851.00,51.439
852.00,51.489
853.00,51.436
854.00,51.416
855.00,51.393
856.00,51.362
857.00,51.457
858.00,51.364
859.00,51.265
860.00,51.394
861.00,51.367
862.00,51.305
863.00,51.310
864.00,51.400
865.00,51.315
866.00,51.292
867.00,51.276
868.00,51.269
869.00,51.275
870.00,51.248
871.00,51.252
872.00,51.253
873.00,51.205
874.00,51.251
875.00,51.205
876.00,51.212
877.00,51.217
878.00,51.216
879.00,51.207
880.00,51.207
881.00,51.153
882.00,51.200
883.00,51.140
884.00,51.099
885.00,51.114
886.00,51.127
887.00,51.073
888.00,51.040
889.00,51.103
890.00,50.980
891.00,51.025
892.00,50.970
893.00,50.978
894.00,51.026
895.00,50.853
896.00,50.926
897.00,50.924
898.00,50.898
899.00,50.883
900.00,50.891
901.00,50.883
902.00,50.910
903.00,50.862
904.00,50.856
905.00,50.868
906.00,50.857
907.00,50.765
908.00,50.760
909.00,50.789
910.00,50.770
911.00,50.744
912.00,50.743
913.00,50.698
914.00,50.706
915.00,50.659
916.00,50.642
917.00,50.639
918.00,50.622
919.00,50.595
920.00,50.561
921.00,50.579
922.00,50.562
923.00,50.520
924.00,50.518
925.00,50.534
926.00,50.514
927.00,50.489
928.00,50.460
929.00,50.458
930.00,50.420
931.00,50.408
932.00,50.397
933.00,50.403
934.00,50.379
935.00,50.337
936.00,50.304
937.00,50.327
938.00,50.257
939.00,50.307
940.00,50.262
941.00,50.272
942.00,50.248
943.00,50.251
944.00,50.211
945.00,50.189
946.00,50.182
947.00,50.147
948.00,50.122
949.00,50.113
950.00,50.113
951.00,50.059
952.00,50.054
953.00,50.023
954.00,50.022
955.00,49.979
956.00,49.963
957.00,49.944
958.00,49.943
959.00,49.871
960.00,49.880
961.00,49.930
962.00,49.863
963.00,49.868
964.00,49.834
965.00,49.830
966.00,49.826
967.00,49.814
968.00,49.797
969.00,49.821
970.00,49.787
971.00,49.803
972.00,49.765
973.00,49.795
974.00,49.824
975.00,49.794
976.00,49.825
977.00,49.814
978.00,49.834
979.00,49.796
980.00,49.830
981.00,49.828
982.00,49.782
983.00,49.800
984.00,49.761
985.00,49.790
986.00,49.747
987.00,49.779
988.00,49.742
989.00,49.719
990.00,49.731
991.00,49.737
992.00,49.746
993.00,49.710
994.00,49.717
995.00,49.687
996.00,49.690
997.00,49.677
998.00,49.650
999.00,49.665
1000.00,49.612
1001.00,49.618
1002.00,49.614
1003.00,49.581
1004.00,49.588
1005.00,49.569
1006.00,49.597
1007.00,49.551
1008.00,49.546
1009.00,49.523
1010.00,49.519
1011.00,49.510
1012.00,49.476
1013.00,49.489
1014.00,49.446
1015.00,49.468
1016.00,49.434
1017.00,49.421
1018.00,49.419
1019.00,49.389
1020.00,49.384
1021.00,49.379
1022.00,49.359
1023.00,49.314
1024.00,49.351
1025.00,49.341
1026.00,49.282
1027.00,49.278
1028.00,49.249
1029.00,49.246
1030.00,49.202
1031.00,49.221
1032.00,49.182
1033.00,49.179
1034.00,49.168
1035.00,49.144
1036.00,49.114
1037.00,49.123
1038.00,49.109
1039.00,49.071
1040.00,49.074
1041.00,49.026
1042.00,49.016
1043.00,48.998
1044.00,49.017
1045.00,49.003
1046.00,49.007
1047.00,49.024
1048.00,49.027
1049.00,49.053
1050.00,49.042
1051.00,49.077
1052.00,49.074
1053.00,49.089
1054.00,49.073
1055.00,49.112
1056.00,49.117
1057.00,49.117
1058.00,49.088
1059.00,49.085
1060.00,49.109
1061.00,49.075
1062.00,49.069
1063.00,49.077
1064.00,49.064
1065.00,49.061
1066.00,49.047
1067.00,49.053
1068.00,49.080
1069.00,49.031
1070.00,49.040
1071.00,49.053
1072.00,49.014
1073.00,48.995
1074.00,48.997
1075.00,48.990
1076.00,49.003
1077.00,48.986
1078.00,48.962
1079.00,48.961
1080.00,48.960
1081.00,48.945
1082.00,48.958
1083.00,48.958
1084.00,48.926
1085.00,48.918
1086.00,48.901
1087.00,48.916
1088.00,48.887
1089.00,48.886
1090.00,48.885
1091.00,48.883
1092.00,48.865
1093.00,48.864
1094.00,48.841
1095.00,48.843
1096.00,48.821
1097.00,48.820
1098.00,48.824
1099.00,48.803
1100.00,48.792
1101.00,48.790
1102.00,48.758
1103.00,48.768
1104.00,48.767
1105.00,48.741
1106.00,48.727
1107.00,48.731
1108.00,48.722
1109.00,48.736
1110.00,48.725
1111.00,48.708
1112.00,48.697
1113.00,48.685
1114.00,48.692
1115.00,48.712
1116.00,48.685
1117.00,48.662
1118.00,48.657
1119.00,48.661
1120.00,48.660
1121.00,48.659
1122.00,48.644
1123.00,48.631
1124.00,48.617
1125.00,48.617
1126.00,48.609
1127.00,48.599
1128.00,48.593
1129.00,48.571
1130.00,48.551
1131.00,48.580
1132.00,48.549
1133.00,48.572
1134.00,48.565
1135.00,48.544
1136.00,48.544
1137.00,48.564
1138.00,48.546
1139.00,48.549
1140.00,48.538
1141.00,48.535
1142.00,48.546
1143.00,48.560
1144.00,48.528
1145.00,48.543
1146.00,48.531
1147.00,48.535
1148.00,48.532
1149.00,48.536
1150.00,48.540
1151.00,48.535
1152.00,48.513
1153.00,48.515
1154.00,48.487
1155.00,48.501
1156.00,48.493
1157.00,48.489
1158.00,48.477
1159.00,48.481
1160.00,48.468
1161.00,48.490
1162.00,48.483
1163.00,48.483
1164.00,48.489
1165.00,48.471
1166.00,48.478
1167.00,48.478
1168.00,48.484
1169.00,48.467
1170.00,48.478
1171.00,48.450
1172.00,48.451
1173.00,48.449
1174.00,48.459
1175.00,48.465
1176.00,48.458
1177.00,48.459
1178.00,48.472
1179.00,48.470
1180.00,48.460
1181.00,48.497
1182.00,48.463
1183.00,48.459
1184.00,48.452
1185.00,48.463
1186.00,48.459
1187.00,48.466
1188.00,48.460
1189.00,48.469
1190.00,48.456
1191.00,48.443
1192.00,48.465
1193.00,48.438
1194.00,48.448
1195.00,48.427
1196.00,48.463
1197.00,48.466
1198.00,48.422
1199.00,48.445
1200.00,48.459
1201.00,48.455
1202.00,48.425
1203.00,48.453
1204.00,48.431
1205.00,48.461
1206.00,48.465
1207.00,48.470
1208.00,48.451
1209.00,48.447
1210.00,48.460
1211.00,48.456
1212.00,48.456
1213.00,48.423
1214.00,48.468
1215.00,48.429
1216.00,48.434
1217.00,48.444
1218.00,48.436
1219.00,48.455
1220.00,48.443
1221.00,48.456
1222.00,48.441
1223.00,48.461
1224.00,48.447
1225.00,48.430
1226.00,48.444
1227.00,48.441
1228.00,48.476
1229.00,48.474
1230.00,48.517
1231.00,48.497
1232.00,48.521
1233.00,48.530
1234.00,48.521
1235.00,48.522
1236.00,48.531
1237.00,48.523
1238.00,48.525
1239.00,48.531
1240.00,48.517
1241.00,48.538
1242.00,48.528
1243.00,48.553
1244.00,48.533
1245.00,48.545
1246.00,48.550
1247.00,48.546
1248.00,48.540
1249.00,48.556
1250.00,48.562
1251.00,48.554
1252.00,48.579
1253.00,48.557
1254.00,48.595
1255.00,48.589
1256.00,48.558
1257.00,48.569
1258.00,48.622
1259.00,48.594
1260.00,48.624
1261.00,48.624
1262.00,48.609
1263.00,48.616
1264.00,48.613
1265.00,48.635
1266.00,48.626
1267.00,48.627
1268.00,48.636
1269.00,48.636
1270.00,48.649
1271.00,48.659
1272.00,48.650
1273.00,48.664
1274.00,48.668
1275.00,48.673
1276.00,48.674
1277.00,48.684
1278.00,48.688
1279.00,48.693
1280.00,48.696
1281.00,48.707
1282.00,48.710
1283.00,48.764
1284.00,48.718
1285.00,48.721
1286.00,48.738
1287.00,48.734
1288.00,48.753
1289.00,48.730
1290.00,48.779
1291.00,48.777
1292.00,48.760
1293.00,48.770
1294.00,48.791
1295.00,48.802
1296.00,48.814
1297.00,48.805
1298.00,48.835
1299.00,48.819
1300.00,48.835
1301.00,48.833
1302.00,48.855
1303.00,48.842
1304.00,48.834
1305.00,48.872
1306.00,48.871
1307.00,48.886
1308.00,48.880
1309.00,48.902
1310.00,48.905
1311.00,48.880
1312.00,48.887
1313.00,48.928
1314.00,48.926
1315.00,48.940
1316.00,48.941
1317.00,48.959
1318.00,48.958
1319.00,48.960
1320.00,48.963
1321.00,49.119
1322.00,49.106
1323.00,49.106
1324.00,49.109
1325.00,49.077
1326.00,49.108
1327.00,49.113
1328.00,49.095
1329.00,49.112
1330.00,49.122
1331.00,49.112
1332.00,49.127
1333.00,49.118
1334.00,49.162
1335.00,49.183
1336.00,49.203
1337.00,49.232
1338.00,49.308
1339.00,49.341
1340.00,49.395
1341.00,49.458
1342.00,49.512
1343.00,49.577
1344.00,49.610
1345.00,49.674
1346.00,49.718
1347.00,49.711
1348.00,49.749
1349.00,49.784
1350.00,49.797
1351.00,49.800
1352.00,49.837
1353.00,49.832
1354.00,49.838
1355.00,49.805
1356.00,49.852
1357.00,49.866
1358.00,49.887
1359.00,49.882
1360.00,49.908
1361.00,49.919
1362.00,49.889
1363.00,49.926
1364.00,49.903
1365.00,49.871
1366.00,49.925
1367.00,49.881
1368.00,49.880
1369.00,49.894
1370.00,49.885
1371.00,49.823
1372.00,49.864
1373.00,49.903
1374.00,49.921
1375.00,49.873
1376.00,49.884
1377.00,49.885
1378.00,49.979
1379.00,49.913
1380.00,49.890
1381.00,49.969
1382.00,49.861
1383.00,49.917
1384.00,49.871
1385.00,49.908
1386.00,49.925
1387.00,49.877
1388.00,49.847
1389.00,49.901
1390.00,49.915
1391.00,49.888
1392.00,49.866
1393.00,49.941
1394.00,49.882
1395.00,49.932
1396.00,49.794
1397.00,49.964
1398.00,49.430
1399.00,49.885
1400.00,49.895
1401.00,49.892
1402.00,49.931
1403.00,49.883
1404.00,49.915
1405.00,49.916
1406.00,49.942
1407.00,49.941
1408.00,49.930
1409.00,49.939
1410.00,49.975
1411.00,49.941
1412.00,50.057
1413.00,49.965
1414.00,49.945
1415.00,50.006
1416.00,50.029
1417.00,50.060
1418.00,50.021
1419.00,50.028
1420.00,50.056
1421.00,50.107
1422.00,50.092
1423.00,50.124
1424.00,50.106
1425.00,50.147
1426.00,50.159
1427.00,50.171
1428.00,50.178
1429.00,50.212
1430.00,50.209
1431.00,50.230
1432.00,50.241
1433.00,50.266
1434.00,50.269
1435.00,50.322
1436.00,50.313
1437.00,50.324
1438.00,50.330
1439.00,50.358
1440.00,50.365
1441.00,50.365
1442.00,50.404
1443.00,50.411
1444.00,50.478
1445.00,50.432
1446.00,50.467
1447.00,50.493
1448.00,50.552
1449.00,50.523
1450.00,50.528
1451.00,50.569
1452.00,50.577
1453.00,50.583
1454.00,50.588
1455.00,50.627
1456.00,50.665
1457.00,50.654
1458.00,50.730
1459.00,50.735
1460.00,50.747
1461.00,50.750
1462.00,50.791
1463.00,50.779
1464.00,50.789
1465.00,50.806
1466.00,50.817
1467.00,50.861
1468.00,50.885
1469.00,50.853
1470.00,50.873
1471.00,50.870
1472.00,50.901
1473.00,50.923
1474.00,50.944
1475.00,50.994
1476.00,50.989
1477.00,50.981
1478.00,51.023
1479.00,51.020
1480.00,51.011
1481.00,51.026
1482.00,51.051
1483.00,51.065
1484.00,51.091
1485.00,51.089
1486.00,51.117
1487.00,51.125
1488.00,51.155
1489.00,51.149
1490.00,51.159
1491.00,51.171
1492.00,51.200
1493.00,51.184
1494.00,51.226
1495.00,51.216
1496.00,51.229
1497.00,51.225
1498.00,51.238
1499.00,51.247
1500.00,51.274
1501.00, 
1502.00, 
1503.00, 
1504.00, 
1505.00, 
1506.00, 
1507.00, 
1508.00, 
1509.00, 
1510.00, 
1511.00, 
1512.00, 
1513.00, 
1514.00, 
1515.00, 
1516.00, 
1517.00, 
1518.00, 
1519.00, 
1520.00, 
1521.00, 
1522.00, 
1523.00, 
1524.00, 
1525.00, 
1526.00, 
1527.00, 
1528.00, 
1529.00, 
1530.00, 
1531.00, 
1532.00, 
1533.00, 
1534.00, 
1535.00, 
1536.00, 
1537.00, 
1538.00, 
1539.00, 
1540.00, 
1541.00, 
1542.00, 
1543.00, 
1544.00, 
1545.00, 
1546.00, 
1547.00, 
1548.00, 
1549.00, 
1550.00, 
1551.00, 
1552.00, 
1553.00, 
1554.00, 
1555.00, 
1556.00, 
1557.00, 
1558.00, 
1559.00, 
1560.00, 
1561.00, 
1562.00, 
1563.00, 
1564.00, 
1565.00, 
1566.00, 
1567.00, 
1568.00, 
1569.00, 
1570.00, 
1571.00, 
1572.00, 
1573.00, 
1574.00, 
1575.00, 
1576.00, 
1577.00, 
1578.00, 
1579.00, 
1580.00, 
1581.00, 
1582.00, 
1583.00, 
1584.00, 
1585.00, 
1586.00, 
1587.00, 
1588.00, 
1589.00, 
1590.00, 
1591.00, 
1592.00, 
1593.00, 
1594.00, 
1595.00, 
1596.00, 
1597.00, 
1598.00, 
1599.00, 
1600.00, 
1601.00, 
1602.00, 
1603.00, 
1604.00, 
1605.00, 
1606.00, 
1607.00, 
1608.00, 
1609.00, 
1610.00, 
1611.00, 
1612.00, 
1613.00, 
1614.00, 
1615.00, 
1616.00, 
1617.00, 
1618.00, 
1619.00, 
1620.00, 
1621.00, 
1622.00, 
1623.00, 
1624.00, 
1625.00, 
1626.00, 
1627.00, 
1628.00, 
1629.00, 
1630.00, 
1631.00, 
1632.00, 
1633.00, 
1634.00, 
1635.00, 
1636.00, 
1637.00, 
1638.00, 
1639.00, 
1640.00, 
1641.00, 
1642.00, 
1643.00, 
1644.00, 
1645.00, 
1646.00, 
1647.00, 
1648.00, 
1649.00, 
1650.00, 
1651.00, 
1652.00, 
1653.00, 
1654.00, 
1655.00, 
1656.00, 
1657.00, 
1658.00, 
1659.00, 
1660.00, 
1661.00, 
1662.00, 
1663.00, 
1664.00, 
1665.00, 
1666.00, 
1667.00, 
1668.00, 
1669.00, 
1670.00, 
1671.00, 
1672.00, 
1673.00, 
1674.00, 
1675.00, 
1676.00, 
1677.00, 
1678.00, 
1679.00, 
1680.00, 
1681.00, 
1682.00, 
1683.00, 
1684.00, 
1685.00, 
1686.00, 
1687.00, 
1688.00, 
1689.00, 
1690.00, 
1691.00, 
1692.00, 
1693.00, 
1694.00, 
1695.00, 
1696.00, 
1697.00, 
1698.00, 
1699.00, 
1700.00, 
1701.00, 
1702.00, 
1703.00, 
1704.00, 
1705.00, 
1706.00, 
1707.00, 
1708.00, 
1709.00, 
1710.00, 
1711.00, 
1712.00, 
1713.00, 
1714.00, 
1715.00, 
1716.00, 
1717.00, 
1718.00, 
1719.00, 
1720.00, 
1721.00, 
1722.00, 
1723.00, 
1724.00, 
1725.00, 
1726.00, 
1727.00, 
1728.00, 
1729.00, 
1730.00, 
1731.00, 
1732.00, 
1733.00, 
1734.00, 
1735.00, 
1736.00, 
1737.00, 
1738.00, 
1739.00, 
1740.00, 
1741.00, 
1742.00, 
1743.00, 
1744.00, 
1745.00, 
1746.00, 
1747.00, 
1748.00, 
1749.00, 
1750.00, 
1751.00, 
1752.00, 
1753.00, 
1754.00, 
1755.00, 
1756.00, 
1757.00, 
1758.00, 
1759.00, 
1760.00, 
1761.00, 
1762.00, 
1763.00, 
1764.00, 
1765.00, 
1766.00, 
1767.00, 
1768.00, 
1769.00, 
1770.00, 
1771.00, 
1772.00, 
1773.00, 
1774.00, 
1775.00, 
1776.00, 
1777.00, 
1778.00, 
1779.00, 
1780.00, 
1781.00, 
1782.00, 
1783.00, 
1784.00, 
1785.00, 
1786.00, 
1787.00, 
1788.00, 
1789.00, 
1790.00, 
1791.00, 
1792.00, 
1793.00, 
1794.00, 
1795.00, 
1796.00, 
1797.00, 
1798.00, 
1799.00, 
1800.00, 
1801.00, 
1802.00, 
1803.00, 
1804.00, 
1805.00, 
1806.00, 
1807.00, 
1808.00, 
1809.00, 
1810.00, 
1811.00, 
1812.00, 
1813.00, 
1814.00, 
1815.00, 
1816.00, 
1817.00, 
1818.00, 
1819.00, 
1820.00, 
1821.00, 
1822.00, 
1823.00, 
1824.00, 
1825.00, 
1826.00, 
1827.00, 
1828.00, 
1829.00, 
1830.00, 
1831.00, 
1832.00, 
1833.00, 
1834.00, 
1835.00, 
1836.00, 
1837.00, 
1838.00, 
1839.00, 
1840.00, 
1841.00, 
1842.00, 
1843.00, 
1844.00, 
1845.00, 
1846.00, 
1847.00, 
1848.00, 
1849.00, 
1850.00, 
1851.00, 
1852.00, 
1853.00, 
1854.00, 
1855.00, 
1856.00, 
1857.00, 
1858.00, 
1859.00, 
1860.00, 
1861.00, 
1862.00, 
1863.00, 
1864.00, 
1865.00, 
1866.00, 
1867.00, 
1868.00, 
1869.00, 
1870.00, 
1871.00, 
1872.00, 
1873.00, 
1874.00, 
1875.00, 
1876.00, 
1877.00, 
1878.00, 
1879.00, 
1880.00, 
1881.00, 
1882.00, 
1883.00, 
1884.00, 
1885.00, 
1886.00, 
1887.00, 
1888.00, 
1889.00, 
1890.00, 
1891.00, 
1892.00, 
1893.00, 
1894.00, 
1895.00, 
1896.00, 
1897.00, 
1898.00, 
1899.00, 
1900.00, 
1901.00, 
1902.00, 
1903.00, 
1904.00, 
1905.00, 
1906.00, 
1907.00, 
1908.00, 
1909.00, 
1910.00, 
1911.00, 
1912.00, 
1913.00, 
1914.00, 
1915.00, 
1916.00, 
1917.00, 
1918.00, 
1919.00, 
1920.00, 
1921.00, 
1922.00, 
1923.00, 
1924.00, 
1925.00, 
1926.00, 
1927.00, 
1928.00, 
1929.00, 
1930.00, 
1931.00, 
1932.00, 
1933.00, 
1934.00, 
1935.00, 
1936.00, 
1937.00, 
1938.00, 
1939.00, 
1940.00, 
1941.00, 
1942.00, 
1943.00, 
1944.00, 
1945.00, 
1946.00, 
1947.00, 
1948.00, 
1949.00, 
1950.00, 
1951.00, 
1952.00, 
1953.00, 
1954.00, 
1955.00, 
1956.00, 
1957.00, 
1958.00, 
1959.00, 
1960.00, 
1961.00, 
1962.00, 
1963.00, 
1964.00, 
1965.00, 
1966.00, 
1967.00, 
1968.00, 
1969.00, 
1970.00, 
1971.00, 
1972.00, 
1973.00, 
1974.00, 
1975.00, 
1976.00, 
1977.00, 
1978.00, 
1979.00, 
1980.00, 
1981.00, 
1982.00, 
1983.00, 
1984.00, 
1985.00, 
1986.00, 
1987.00, 
1988.00, 
1989.00, 
1990.00, 
1991.00, 
1992.00, 
1993.00, 
1994.00, 
1995.00, 
1996.00, 
1997.00, 
1998.00, 
1999.00, 
2000.00, 
2001.00, 
2002.00, 
2003.00, 
2004.00, 
2005.00, 
2006.00, 
2007.00, 
2008.00, 
2009.00, 
2010.00, 
2011.00, 
2012.00, 
2013.00, 
2014.00, 
2015.00, 
2016.00, 
2017.00, 
2018.00, 
2019.00, 
2020.00, 
2021.00, 
2022.00, 
2023.00, 
2024.00, 
2025.00, 
2026.00, 
2027.00, 
2028.00, 
2029.00, 
2030.00, 
2031.00, 
2032.00, 
2033.00, 
2034.00, 
2035.00, 
2036.00, 
2037.00, 
2038.00, 
2039.00, 
2040.00, 
2041.00, 
2042.00, 
2043.00, 
2044.00, 
2045.00, 
2046.00, 
2047.00, 
2048.00, 
2049.00, 
2050.00, 
2051.00, 
2052.00, 
2053.00, 
2054.00, 
2055.00, 
2056.00, 
2057.00, 
2058.00, 
2059.00, 
2060.00, 
2061.00, 
2062.00, 
2063.00, 
2064.00, 
2065.00, 
2066.00, 
2067.00, 
2068.00, 
2069.00, 
2070.00, 
2071.00, 
2072.00, 
2073.00, 
2074.00, 
2075.00, 
2076.00, 
2077.00, 
2078.00, 
2079.00, 
2080.00, 
2081.00, 
2082.00, 
2083.00, 
2084.00, 
2085.00, 
2086.00, 
2087.00, 
2088.00, 
2089.00, 
2090.00, 
2091.00, 
2092.00, 
2093.00, 
2094.00, 
2095.00, 
2096.00, 
2097.00, 
2098.00, 
2099.00, 
2100.00, 
2101.00, 
2102.00, 
2103.00, 
2104.00, 
2105.00, 
2106.00, 
2107.00, 
2108.00, 
2109.00, 
2110.00, 
2111.00, 
2112.00, 
2113.00, 
2114.00, 
2115.00, 
2116.00, 
2117.00, 
2118.00, 
2119.00, 
2120.00, 
2121.00, 
2122.00, 
2123.00, 
2124.00, 
2125.00, 
2126.00, 
2127.00, 
2128.00, 
2129.00, 
2130.00, 
2131.00, 
2132.00, 
2133.00, 
2134.00, 
2135.00, 
2136.00, 
2137.00, 
2138.00, 
2139.00, 
2140.00, 
2141.00, 
2142.00, 
2143.00, 
2144.00, 
2145.00, 
2146.00, 
2147.00, 
2148.00, 
2149.00, 
2150.00, 
2151.00, 
2152.00, 
2153.00, 
2154.00, 
2155.00, 
2156.00, 
2157.00, 
2158.00, 
2159.00, 
2160.00, 
2161.00, 
2162.00, 
2163.00, 
2164.00, 
2165.00, 
2166.00, 
2167.00, 
2168.00, 
2169.00, 
2170.00, 
2171.00, 
2172.00, 
2173.00, 
2174.00, 
2175.00, 
2176.00, 
2177.00, 
2178.00, 
2179.00, 
2180.00, 
2181.00, 
2182.00, 
2183.00, 
2184.00, 
2185.00, 
2186.00, 
2187.00, 
2188.00, 
2189.00, 
2190.00, 
2191.00, 
2192.00, 
2193.00, 
2194.00, 
2195.00, 
2196.00, 
2197.00, 
2198.00, 
2199.00, 
2200.00, 
2201.00, 
2202.00, 
2203.00, 
2204.00, 
2205.00, 
2206.00, 
2207.00, 
2208.00, 
2209.00, 
2210.00, 
2211.00, 
2212.00, 
2213.00, 
2214.00, 
2215.00, 
2216.00, 
2217.00, 
2218.00, 
2219.00, 
2220.00, 
2221.00, 
2222.00, 
2223.00, 
2224.00, 
2225.00, 
2226.00, 
2227.00, 
2228.00, 
2229.00, 
2230.00, 
2231.00, 
2232.00, 
2233.00, 
2234.00, 
2235.00, 
2236.00, 
2237.00, 
2238.00, 
2239.00, 
2240.00, 
2241.00, 
2242.00, 
2243.00, 
2244.00, 
2245.00, 
2246.00, 
2247.00, 
2248.00, 
2249.00, 
2250.00, 
2251.00, 
2252.00, 
2253.00, 
2254.00, 
2255.00, 
2256.00, 
2257.00, 
2258.00, 
2259.00, 
2260.00, 
2261.00, 
2262.00, 
2263.00, 
2264.00, 
2265.00, 
2266.00, 
2267.00, 
2268.00, 
2269.00, 
2270.00, 
2271.00, 
2272.00, 
2273.00, 
2274.00, 
2275.00, 
2276.00, 
2277.00, 
2278.00, 
2279.00, 
2280.00, 
2281.00, 
2282.00, 
2283.00, 
2284.00, 
2285.00, 
2286.00, 
2287.00, 
2288.00, 
2289.00, 
2290.00, 
2291.00, 
2292.00, 
2293.00, 
2294.00, 
2295.00, 
2296.00, 
2297.00, 
2298.00, 
2299.00, 
2300.00, 
2301.00, 
2302.00, 
2303.00, 
2304.00, 
2305.00, 
2306.00, 
2307.00, 
2308.00, 
2309.00, 
2310.00, 
2311.00, 
2312.00, 
2313.00, 
2314.00, 
2315.00, 
2316.00, 
2317.00, 
2318.00, 
2319.00, 
2320.00, 
2321.00, 
2322.00, 
2323.00, 
2324.00, 
2325.00, 
2326.00, 
2327.00, 
2328.00, 
2329.00, 
2330.00, 
2331.00, 
2332.00, 
2333.00, 
2334.00, 
2335.00, 
2336.00, 
2337.00, 
2338.00, 
2339.00, 
2340.00, 
2341.00, 
2342.00, 
2343.00, 
2344.00, 
2345.00, 
2346.00, 
2347.00, 
2348.00, 
2349.00, 
2350.00, 
2351.00, 
2352.00, 
2353.00, 
2354.00, 
2355.00, 
2356.00, 
2357.00, 
2358.00, 
2359.00, 
2360.00, 
2361.00, 
2362.00, 
2363.00, 
2364.00, 
2365.00, 
2366.00, 
2367.00, 
2368.00, 
2369.00, 
2370.00, 
2371.00, 
2372.00, 
2373.00, 
2374.00, 
2375.00, 
2376.00, 
2377.00, 
2378.00, 
2379.00, 
2380.00, 
2381.00, 
2382.00, 
2383.00, 
2384.00, 
2385.00, 
2386.00, 
2387.00, 
2388.00, 
2389.00, 
2390.00, 
2391.00, 
2392.00, 
2393.00, 
2394.00, 
2395.00, 
2396.00, 
2397.00, 
2398.00, 
2399.00, 
2400.00, 
2401.00, 
2402.00, 
2403.00, 
2404.00, 
2405.00, 
2406.00, 
2407.00, 
2408.00, 
2409.00, 
2410.00, 
2411.00, 
2412.00, 
2413.00, 
2414.00, 
2415.00, 
2416.00, 
2417.00, 
2418.00, 
2419.00, 
2420.00, 
2421.00, 
2422.00, 
2423.00, 
2424.00, 
2425.00, 
2426.00, 
2427.00, 
2428.00, 
2429.00, 
2430.00, 
2431.00, 
2432.00, 
2433.00, 
2434.00, 
2435.00, 
2436.00, 
2437.00, 
2438.00, 
2439.00, 
2440.00, 
2441.00, 
2442.00, 
2443.00, 
2444.00, 
2445.00, 
2446.00, 
2447.00, 
2448.00, 
2449.00, 
2450.00, 
2451.00, 
2452.00, 
2453.00, 
2454.00, 
2455.00, 
2456.00, 
2457.00, 
2458.00, 
2459.00, 
2460.00, 
2461.00, 
2462.00, 
2463.00, 
2464.00, 
2465.00, 
2466.00, 
2467.00, 
2468.00, 
2469.00, 
2470.00, 
2471.00, 
2472.00, 
2473.00, 
2474.00, 
2475.00, 
2476.00, 
2477.00, 
2478.00, 
2479.00, 
2480.00, 
2481.00, 
2482.00, 
2483.00, 
2484.00, 
2485.00, 
2486.00, 
2487.00, 
2488.00, 
2489.00, 
2490.00, 
2491.00, 
2492.00, 
2493.00, 
2494.00, 
2495.00, 
2496.00, 
2497.00, 
2498.00, 
2499.00, 
2500.00, 
2501.00, 
2502.00, 
2503.00, 
2504.00, 
2505.00, 
2506.00, 
2507.00, 
2508.00, 
2509.00, 
2510.00, 
2511.00, 
2512.00, 
2513.00, 
2514.00, 
2515.00, 
2516.00, 
2517.00, 
2518.00, 
2519.00, 
2520.00, 
2521.00, 
2522.00, 
2523.00, 
2524.00, 
2525.00, 
2526.00, 
2527.00, 
2528.00, 
2529.00, 
2530.00, 
2531.00, 
2532.00, 
2533.00, 
2534.00, 
2535.00, 
2536.00, 
2537.00, 
2538.00, 
2539.00, 
2540.00, 
2541.00, 
2542.00, 
2543.00, 
2544.00, 
2545.00, 
2546.00, 
2547.00, 
2548.00, 
2549.00, 
2550.00, 
2551.00, 
2552.00, 
2553.00, 
2554.00, 
2555.00, 
2556.00, 
2557.00, 
2558.00, 
2559.00, 
2560.00, 
2561.00, 
2562.00, 
2563.00, 
2564.00, 
2565.00, 
2566.00, 
2567.00, 
2568.00, 
2569.00, 
2570.00, 
2571.00, 
2572.00, 
2573.00, 
2574.00, 
2575.00, 
2576.00, 
2577.00, 
2578.00, 
2579.00, 
2580.00, 
2581.00, 
2582.00, 
2583.00, 
2584.00, 
2585.00, 
2586.00, 
2587.00, 
2588.00, 
2589.00, 
2590.00, 
2591.00, 
2592.00, 
2593.00, 
2594.00, 
2595.00, 
2596.00, 
2597.00, 
2598.00, 
2599.00, 
2600.00, 
