"1cP2 - RawData"
"Wavelength nm.","T%"
200.00,-0.001
201.00,-0.000
202.00,-0.001
203.00,0.004
204.00,0.003
205.00,-0.001
206.00,-0.001
207.00,0.001
208.00,0.002
209.00,0.001
210.00,0.002
211.00,0.000
212.00,-0.003
213.00,0.001
214.00,-0.001
215.00,-0.001
216.00,0.000
217.00,-0.001
218.00,-0.001
219.00,-0.001
220.00,0.001
221.00,-0.001
222.00,0.000
223.00,0.002
224.00,-0.002
225.00,-0.001
226.00,0.003
227.00,0.002
228.00,0.000
229.00,-0.000
230.00,-0.001
231.00,0.001
232.00,0.002
233.00,0.001
234.00,0.002
235.00,0.002
236.00,0.001
237.00,0.001
238.00,0.000
239.00,0.004
240.00,-0.000
241.00,-0.001
242.00,0.002
243.00,0.001
244.00,-0.000
245.00,-0.000
246.00,0.001
247.00,0.002
248.00,0.002
249.00,0.002
250.00,-0.001
251.00,-0.002
252.00,-0.001
253.00,0.000
254.00,0.000
255.00,-0.000
256.00,-0.002
257.00,0.001
258.00,0.001
259.00,0.001
260.00,0.001
261.00,0.000
262.00,0.001
263.00,0.002
264.00,-0.002
265.00,0.001
266.00,0.000
267.00,-0.000
268.00,0.002
269.00,0.000
270.00,-0.001
271.00,0.000
272.00,0.000
273.00,-0.000
274.00,0.001
275.00,0.001
276.00,-0.000
277.00,-0.000
278.00,0.002
279.00,0.001
280.00,-0.001
281.00,0.000
282.00,0.001
283.00,0.002
284.00,0.000
285.00,0.000
286.00,-0.000
287.00,-0.001
288.00,-0.001
289.00,0.001
290.00,0.000
291.00,0.001
292.00,0.001
293.00,0.001
294.00,-0.000
295.00,-0.000
296.00,0.000
297.00,0.000
298.00,0.002
299.00,0.001
300.00,0.000
301.00,0.000
302.00,-0.001
303.00,0.000
304.00,0.000
305.00,0.002
306.00,0.001
307.00,0.004
308.00,0.007
309.00,0.011
310.00,0.018
311.00,0.025
312.00,0.039
313.00,0.061
314.00,0.093
315.00,0.132
316.00,0.202
317.00,0.274
318.00,0.382
319.00,0.510
320.00,0.683
321.00,0.883
322.00,1.133
323.00,1.423
324.00,1.761
325.00,2.131
326.00,2.459
327.00,2.992
328.00,3.497
329.00,4.012
330.00,4.614
331.00,5.213
332.00,5.873
333.00,6.567
334.00,7.217
335.00,7.942
336.00,8.682
337.00,9.460
338.00,10.176
339.00,10.861
340.00,11.568
341.00,12.305
342.00,12.965
343.00,13.600
344.00,14.257
345.00,14.863
346.00,15.421
347.00,15.947
348.00,16.505
349.00,16.964
350.00,17.443
351.00,17.856
352.00,18.239
353.00,18.665
354.00,19.032
355.00,19.350
356.00,19.695
357.00,19.926
358.00,20.231
359.00,20.534
360.00,20.815
361.00,20.974
362.00,21.115
363.00,21.338
364.00,21.357
365.00,21.553
366.00,21.642
367.00,21.701
368.00,21.799
369.00,21.819
370.00,21.867
371.00,21.908
372.00,21.847
373.00,21.935
374.00,21.862
375.00,21.753
376.00,21.696
377.00,21.588
378.00,21.464
379.00,21.393
380.00,21.343
381.00,21.327
382.00,21.358
383.00,21.342
384.00,21.378
385.00,21.458
386.00,21.416
387.00,21.545
388.00,21.617
389.00,21.528
390.00,21.648
391.00,21.569
392.00,21.657
393.00,21.661
394.00,21.700
395.00,21.694
396.00,21.673
397.00,21.672
398.00,21.643
399.00,21.703
400.00,21.663
401.00,21.570
402.00,21.647
403.00,21.671
404.00,21.591
405.00,21.574
406.00,21.587
407.00,21.488
408.00,21.476
409.00,21.401
410.00,21.302
411.00,21.303
412.00,21.212
413.00,21.244
414.00,21.180
415.00,21.155
416.00,21.193
417.00,21.157
418.00,21.158
419.00,21.252
420.00,21.251
421.00,21.150
422.00,21.157
423.00,21.192
424.00,21.222
425.00,21.195
426.00,21.235
427.00,21.248
428.00,21.295
429.00,21.303
430.00,21.338
431.00,21.398
432.00,21.385
433.00,21.448
434.00,21.477
435.00,21.516
436.00,21.575
437.00,21.605
438.00,21.667
439.00,21.683
440.00,21.780
441.00,21.829
442.00,21.916
443.00,21.957
444.00,22.040
445.00,22.110
446.00,22.195
447.00,22.268
448.00,22.341
449.00,22.442
450.00,22.564
451.00,22.649
452.00,22.709
453.00,22.811
454.00,22.902
455.00,23.009
456.00,23.106
457.00,23.225
458.00,23.291
459.00,23.409
460.00,23.551
461.00,23.660
462.00,23.745
463.00,23.883
464.00,24.009
465.00,24.101
466.00,24.270
467.00,24.378
468.00,24.446
469.00,24.528
470.00,24.630
471.00,24.758
472.00,24.857
473.00,24.935
474.00,25.052
475.00,25.163
476.00,25.253
477.00,25.409
478.00,25.508
479.00,25.654
480.00,25.793
481.00,25.905
482.00,26.063
483.00,26.220
484.00,26.357
485.00,26.477
486.00,26.646
487.00,26.785
488.00,26.945
489.00,27.106
490.00,27.249
491.00,27.391
492.00,27.529
493.00,27.734
494.00,27.883
495.00,27.896
496.00,27.979
497.00,28.097
498.00,28.275
499.00,28.388
500.00,28.542
501.00,28.633
502.00,28.745
503.00,28.910
504.00,28.964
505.00,29.105
506.00,29.155
507.00,29.321
508.00,29.461
509.00,29.638
510.00,29.763
511.00,29.827
512.00,30.010
513.00,30.150
514.00,30.286
515.00,30.420
516.00,30.506
517.00,30.579
518.00,30.761
519.00,30.857
520.00,30.862
521.00,30.968
522.00,31.117
523.00,31.110
524.00,31.261
525.00,31.406
526.00,31.502
527.00,31.545
528.00,31.674
529.00,31.859
530.00,32.010
531.00,32.107
532.00,32.180
533.00,32.280
534.00,32.386
535.00,32.469
536.00,32.564
537.00,32.647
538.00,32.717
539.00,32.783
540.00,32.872
541.00,32.918
542.00,33.009
543.00,33.090
544.00,33.141
545.00,33.275
546.00,33.293
547.00,33.409
548.00,33.479
549.00,33.560
550.00,33.639
551.00,33.736
552.00,33.838
553.00,33.929
554.00,33.976
555.00,34.010
556.00,34.078
557.00,34.159
558.00,34.189
559.00,34.244
560.00,34.320
561.00,34.415
562.00,34.507
563.00,34.516
564.00,34.572
565.00,34.641
566.00,34.645
567.00,34.624
568.00,34.706
569.00,34.823
570.00,34.851
571.00,34.910
572.00,34.942
573.00,34.893
574.00,34.955
575.00,34.966
576.00,34.999
577.00,35.074
578.00,35.210
579.00,35.249
580.00,35.264
581.00,35.437
582.00,35.522
583.00,35.520
584.00,35.624
585.00,35.685
586.00,35.747
587.00,35.826
588.00,35.856
589.00,35.782
590.00,35.897
591.00,35.957
592.00,35.911
593.00,35.943
594.00,36.052
595.00,36.145
596.00,36.247
597.00,36.326
598.00,36.376
599.00,36.300
600.00,36.358
601.00,36.466
602.00,36.466
603.00,36.545
604.00,36.593
605.00,36.596
606.00,36.723
607.00,36.752
608.00,36.772
609.00,36.751
610.00,36.860
611.00,37.059
612.00,36.874
613.00,36.921
614.00,37.019
615.00,37.068
616.00,37.184
617.00,37.173
618.00,37.176
619.00,37.254
620.00,37.288
621.00,37.315
622.00,37.334
623.00,37.506
624.00,37.633
625.00,37.645
626.00,37.699
627.00,37.743
628.00,37.826
629.00,37.824
630.00,37.876
631.00,37.955
632.00,38.036
633.00,38.150
634.00,38.234
635.00,38.297
636.00,38.334
637.00,38.385
638.00,38.430
639.00,38.555
640.00,38.647
641.00,38.603
642.00,38.750
643.00,38.807
644.00,38.888
645.00,38.982
646.00,39.144
647.00,39.174
648.00,39.248
649.00,39.206
650.00,39.240
651.00,39.435
652.00,39.569
653.00,39.564
654.00,39.561
655.00,39.804
656.00,40.057
657.00,39.867
658.00,40.052
659.00,40.031
660.00,40.207
661.00,40.264
662.00,40.334
663.00,40.439
664.00,40.707
665.00,40.819
666.00,40.755
667.00,40.979
668.00,40.829
669.00,41.077
670.00,41.414
671.00,41.011
672.00,41.319
673.00,41.701
674.00,41.478
675.00,41.672
676.00,41.856
677.00,41.971
678.00,41.801
679.00,41.983
680.00,42.135
681.00,42.319
682.00,42.234
683.00,42.307
684.00,42.585
685.00,42.548
686.00,42.495
687.00,42.643
688.00,42.686
689.00,42.776
690.00,43.029
691.00,43.261
692.00,43.093
693.00,43.051
694.00,43.265
695.00,43.490
696.00,43.495
697.00,43.516
698.00,43.666
699.00,43.829
700.00,43.886
701.00,43.862
702.00,44.147
703.00,44.184
704.00,44.232
705.00,44.347
706.00,44.355
707.00,44.437
708.00,44.317
709.00,44.778
710.00,45.142
711.00,44.629
712.00,44.688
713.00,44.868
714.00,45.017
715.00,45.143
716.00,45.048
717.00,45.267
718.00,45.346
719.00,45.355
720.00,45.288
721.00,49.857
722.00,49.862
723.00,49.845
724.00,49.906
725.00,49.963
726.00,50.031
727.00,50.033
728.00,50.098
729.00,50.047
730.00,50.135
731.00,50.190
732.00,50.178
733.00,50.302
734.00,50.302
735.00,50.333
736.00,50.368
737.00,50.347
738.00,50.421
739.00,50.439
740.00,50.451
741.00,50.573
742.00,50.523
743.00,50.561
744.00,50.617
745.00,50.559
746.00,50.645
747.00,50.615
748.00,50.571
749.00,50.662
750.00,50.648
751.00,50.636
752.00,50.641
753.00,50.592
754.00,50.611
755.00,50.692
756.00,50.684
757.00,50.605
758.00,50.746
759.00,50.759
760.00,50.721
761.00,50.709
762.00,50.802
763.00,50.776
764.00,50.807
765.00,50.767
766.00,50.814
767.00,50.847
768.00,50.817
769.00,50.808
770.00,50.871
771.00,50.933
772.00,50.904
773.00,50.876
774.00,50.958
775.00,50.961
776.00,50.923
777.00,51.035
778.00,50.943
779.00,50.948
780.00,50.914
781.00,50.953
782.00,50.950
783.00,50.927
784.00,50.857
785.00,50.908
786.00,50.999
787.00,50.913
788.00,50.979
789.00,50.969
790.00,50.887
791.00,50.939
792.00,50.810
793.00,50.901
794.00,50.836
795.00,50.858
796.00,50.879
797.00,50.821
798.00,50.916
799.00,50.797
800.00,50.855
801.00,50.762
802.00,50.736
803.00,50.775
804.00,50.777
805.00,50.756
806.00,50.707
807.00,50.735
808.00,50.695
809.00,50.633
810.00,50.653
811.00,50.680
812.00,50.669
813.00,50.642
814.00,50.609
815.00,50.608
816.00,50.563
817.00,50.591
818.00,50.526
819.00,50.596
820.00,50.463
821.00,50.498
822.00,50.527
823.00,50.463
824.00,50.517
825.00,50.487
826.00,50.437
827.00,50.453
828.00,50.425
829.00,50.445
830.00,50.410
831.00,52.892
832.00,52.880
833.00,52.843
834.00,52.807
835.00,52.880
836.00,52.796
837.00,52.760
838.00,52.761
839.00,52.756
840.00,52.708
841.00,52.709
842.00,52.669
843.00,52.694
844.00,52.705
845.00,52.621
846.00,52.635
847.00,52.579
848.00,52.586
849.00,52.500
850.00,52.504
851.00,52.425
852.00,52.458
853.00,52.418
854.00,52.380
855.00,52.348
856.00,52.303
857.00,52.317
858.00,52.294
859.00,52.233
860.00,52.272
861.00,52.231
862.00,52.221
863.00,52.228
864.00,52.175
865.00,52.200
866.00,52.174
867.00,52.149
868.00,52.148
869.00,52.133
870.00,52.123
871.00,52.098
872.00,52.126
873.00,52.044
874.00,52.109
875.00,51.996
876.00,52.060
877.00,52.022
878.00,52.038
879.00,52.018
880.00,51.990
881.00,51.964
882.00,52.013
883.00,51.957
884.00,51.885
885.00,51.889
886.00,51.935
887.00,51.860
888.00,51.815
889.00,51.879
890.00,51.769
891.00,51.800
892.00,51.751
893.00,51.747
894.00,51.799
895.00,51.611
896.00,51.692
897.00,51.681
898.00,51.644
899.00,51.630
900.00,51.630
901.00,51.584
902.00,51.699
903.00,51.755
904.00,51.560
905.00,51.563
906.00,51.559
907.00,51.527
908.00,51.497
909.00,51.508
910.00,51.478
911.00,51.455
912.00,51.441
913.00,51.384
914.00,51.409
915.00,51.364
916.00,51.325
917.00,51.345
918.00,51.305
919.00,51.272
920.00,51.239
921.00,51.227
922.00,51.258
923.00,51.231
924.00,51.196
925.00,51.206
926.00,51.336
927.00,51.147
928.00,51.104
929.00,51.116
930.00,51.086
931.00,51.076
932.00,51.024
933.00,51.061
934.00,51.028
935.00,50.983
936.00,50.945
937.00,50.964
938.00,50.878
939.00,50.926
940.00,50.892
941.00,50.902
942.00,50.868
943.00,50.860
944.00,50.867
945.00,50.809
946.00,50.757
947.00,50.733
948.00,50.724
949.00,50.722
950.00,50.708
951.00,50.675
952.00,50.662
953.00,50.623
954.00,50.609
955.00,50.591
956.00,50.567
957.00,50.531
958.00,50.541
959.00,50.477
960.00,50.469
961.00,50.473
962.00,50.466
963.00,50.423
964.00,50.429
965.00,50.423
966.00,50.413
967.00,50.394
968.00,50.374
969.00,50.406
970.00,50.369
971.00,50.387
972.00,50.346
973.00,50.384
974.00,50.399
975.00,50.357
976.00,50.373
977.00,50.374
978.00,50.399
979.00,50.351
980.00,50.378
981.00,50.363
982.00,50.323
983.00,50.354
984.00,50.327
985.00,50.367
986.00,50.310
987.00,50.348
988.00,50.303
989.00,50.286
990.00,50.280
991.00,50.291
992.00,50.298
993.00,50.244
994.00,50.250
995.00,50.230
996.00,50.225
997.00,50.210
998.00,50.170
999.00,50.194
1000.00,50.141
1001.00,50.152
1002.00,50.149
1003.00,50.119
1004.00,50.113
1005.00,50.083
1006.00,50.127
1007.00,50.092
1008.00,50.072
1009.00,50.052
1010.00,50.056
1011.00,50.035
1012.00,50.008
1013.00,50.022
1014.00,49.973
1015.00,49.990
1016.00,49.953
1017.00,49.934
1018.00,49.931
1019.00,49.892
1020.00,49.899
1021.00,49.881
1022.00,49.864
1023.00,49.818
1024.00,49.842
1025.00,49.803
1026.00,49.776
1027.00,49.766
1028.00,49.760
1029.00,49.755
1030.00,49.717
1031.00,49.735
1032.00,49.708
1033.00,49.696
1034.00,49.684
1035.00,49.660
1036.00,49.601
1037.00,49.593
1038.00,49.600
1039.00,49.550
1040.00,49.552
1041.00,49.528
1042.00,49.527
1043.00,49.509
1044.00,49.529
1045.00,49.497
1046.00,49.502
1047.00,49.500
1048.00,49.510
1049.00,49.548
1050.00,49.539
1051.00,49.597
1052.00,49.566
1053.00,49.587
1054.00,49.617
1055.00,49.607
1056.00,49.611
1057.00,49.622
1058.00,49.592
1059.00,49.592
1060.00,49.612
1061.00,49.584
1062.00,49.585
1063.00,49.591
1064.00,49.576
1065.00,49.569
1066.00,49.550
1067.00,49.553
1068.00,49.570
1069.00,49.519
1070.00,49.509
1071.00,49.497
1072.00,49.507
1073.00,49.482
1074.00,49.484
1075.00,49.471
1076.00,49.494
1077.00,49.467
1078.00,49.446
1079.00,49.446
1080.00,49.441
1081.00,49.434
1082.00,49.440
1083.00,49.416
1084.00,49.414
1085.00,49.400
1086.00,49.388
1087.00,49.404
1088.00,49.378
1089.00,49.353
1090.00,49.367
1091.00,49.377
1092.00,49.347
1093.00,49.355
1094.00,49.328
1095.00,49.339
1096.00,49.322
1097.00,49.309
1098.00,49.318
1099.00,49.305
1100.00,49.274
1101.00,49.281
1102.00,49.242
1103.00,49.252
1104.00,49.251
1105.00,49.229
1106.00,49.218
1107.00,49.219
1108.00,49.196
1109.00,49.204
1110.00,49.180
1111.00,49.181
1112.00,49.180
1113.00,49.167
1114.00,49.163
1115.00,49.180
1116.00,49.155
1117.00,49.143
1118.00,49.130
1119.00,49.133
1120.00,49.136
1121.00,49.132
1122.00,49.109
1123.00,49.105
1124.00,49.095
1125.00,49.096
1126.00,49.089
1127.00,49.081
1128.00,49.079
1129.00,49.057
1130.00,49.039
1131.00,49.057
1132.00,49.044
1133.00,49.063
1134.00,49.059
1135.00,49.041
1136.00,49.019
1137.00,49.028
1138.00,49.015
1139.00,49.033
1140.00,49.012
1141.00,48.994
1142.00,49.009
1143.00,48.996
1144.00,48.974
1145.00,48.992
1146.00,48.963
1147.00,48.977
1148.00,48.971
1149.00,48.989
1150.00,48.993
1151.00,48.989
1152.00,48.988
1153.00,48.995
1154.00,48.957
1155.00,48.958
1156.00,48.950
1157.00,48.944
1158.00,48.937
1159.00,48.949
1160.00,48.941
1161.00,48.962
1162.00,48.949
1163.00,48.942
1164.00,48.958
1165.00,48.944
1166.00,48.945
1167.00,48.951
1168.00,48.958
1169.00,48.945
1170.00,48.928
1171.00,48.898
1172.00,48.925
1173.00,48.917
1174.00,48.924
1175.00,48.933
1176.00,48.911
1177.00,48.894
1178.00,48.912
1179.00,48.920
1180.00,48.913
1181.00,48.940
1182.00,48.925
1183.00,48.929
1184.00,48.912
1185.00,48.922
1186.00,48.917
1187.00,48.910
1188.00,48.898
1189.00,48.903
1190.00,48.884
1191.00,48.874
1192.00,48.915
1193.00,48.899
1194.00,48.910
1195.00,48.887
1196.00,48.929
1197.00,48.933
1198.00,48.891
1199.00,48.913
1200.00,48.921
1201.00,48.916
1202.00,48.883
1203.00,48.907
1204.00,48.897
1205.00,48.928
1206.00,48.910
1207.00,48.912
1208.00,48.911
1209.00,48.910
1210.00,48.923
1211.00,48.923
1212.00,48.923
1213.00,48.887
1214.00,48.926
1215.00,48.891
1216.00,48.911
1217.00,48.911
1218.00,48.906
1219.00,48.937
1220.00,48.913
1221.00,48.935
1222.00,48.909
1223.00,48.911
1224.00,48.931
1225.00,48.918
1226.00,48.922
1227.00,48.923
1228.00,48.930
1229.00,48.933
1230.00,48.968
1231.00,48.948
1232.00,48.967
1233.00,48.979
1234.00,48.987
1235.00,48.976
1236.00,49.004
1237.00,49.006
1238.00,48.984
1239.00,48.982
1240.00,48.965
1241.00,48.992
1242.00,48.974
1243.00,48.998
1244.00,48.985
1245.00,49.003
1246.00,49.010
1247.00,48.994
1248.00,48.992
1249.00,49.008
1250.00,49.014
1251.00,48.999
1252.00,49.028
1253.00,49.009
1254.00,49.043
1255.00,49.041
1256.00,49.014
1257.00,49.008
1258.00,49.061
1259.00,49.042
1260.00,49.076
1261.00,49.058
1262.00,49.052
1263.00,49.055
1264.00,49.062
1265.00,49.074
1266.00,49.096
1267.00,49.099
1268.00,49.085
1269.00,49.102
1270.00,49.100
1271.00,49.111
1272.00,49.116
1273.00,49.138
1274.00,49.141
1275.00,49.139
1276.00,49.130
1277.00,49.136
1278.00,49.146
1279.00,49.158
1280.00,49.156
1281.00,49.163
1282.00,49.167
1283.00,49.217
1284.00,49.165
1285.00,49.177
1286.00,49.189
1287.00,49.168
1288.00,49.197
1289.00,49.165
1290.00,49.198
1291.00,49.200
1292.00,49.186
1293.00,49.216
1294.00,49.214
1295.00,49.229
1296.00,49.267
1297.00,49.244
1298.00,49.282
1299.00,49.266
1300.00,49.287
1301.00,49.279
1302.00,49.315
1303.00,49.292
1304.00,49.296
1305.00,49.327
1306.00,49.318
1307.00,49.339
1308.00,49.336
1309.00,49.348
1310.00,49.350
1311.00,49.326
1312.00,49.359
1313.00,49.392
1314.00,49.389
1315.00,49.396
1316.00,49.394
1317.00,49.411
1318.00,49.408
1319.00,49.407
1320.00,49.419
1321.00,49.592
1322.00,49.565
1323.00,49.566
1324.00,49.580
1325.00,49.541
1326.00,49.564
1327.00,49.559
1328.00,49.548
1329.00,49.560
1330.00,49.567
1331.00,49.559
1332.00,49.575
1333.00,49.576
1334.00,49.606
1335.00,49.637
1336.00,49.656
1337.00,49.702
1338.00,49.779
1339.00,49.800
1340.00,49.869
1341.00,49.937
1342.00,49.997
1343.00,50.043
1344.00,50.081
1345.00,50.143
1346.00,50.183
1347.00,50.173
1348.00,50.210
1349.00,50.240
1350.00,50.244
1351.00,50.260
1352.00,50.302
1353.00,50.287
1354.00,50.294
1355.00,50.273
1356.00,50.334
1357.00,50.338
1358.00,50.347
1359.00,50.342
1360.00,50.337
1361.00,50.350
1362.00,50.287
1363.00,50.423
1364.00,50.420
1365.00,50.369
1366.00,50.391
1367.00,50.373
1368.00,50.331
1369.00,50.379
1370.00,50.337
1371.00,50.124
1372.00,50.307
1373.00,50.389
1374.00,50.397
1375.00,50.350
1376.00,50.368
1377.00,50.387
1378.00,50.390
1379.00,50.368
1380.00,50.369
1381.00,50.402
1382.00,50.313
1383.00,50.355
1384.00,50.349
1385.00,50.399
1386.00,50.428
1387.00,50.364
1388.00,50.305
1389.00,50.342
1390.00,50.390
1391.00,50.325
1392.00,50.324
1393.00,50.338
1394.00,50.358
1395.00,50.282
1396.00,50.264
1397.00,50.320
1398.00,50.386
1399.00,50.356
1400.00,50.350
1401.00,50.336
1402.00,50.413
1403.00,50.372
1404.00,50.376
1405.00,50.391
1406.00,50.397
1407.00,50.414
1408.00,50.398
1409.00,50.399
1410.00,50.446
1411.00,50.398
1412.00,50.525
1413.00,50.426
1414.00,50.423
1415.00,50.458
1416.00,50.479
1417.00,50.514
1418.00,50.481
1419.00,50.493
1420.00,50.535
1421.00,50.574
1422.00,50.548
1423.00,50.603
1424.00,50.581
1425.00,50.620
1426.00,50.621
1427.00,50.647
1428.00,50.646
1429.00,50.674
1430.00,50.707
1431.00,50.696
1432.00,50.728
1433.00,50.762
1434.00,50.737
1435.00,50.789
1436.00,50.783
1437.00,50.789
1438.00,50.804
1439.00,50.837
1440.00,50.840
1441.00,50.852
1442.00,50.899
1443.00,50.929
1444.00,50.952
1445.00,50.939
1446.00,50.962
1447.00,51.008
1448.00,51.071
1449.00,50.993
1450.00,51.015
1451.00,51.038
1452.00,51.048
1453.00,51.053
1454.00,51.068
1455.00,51.095
1456.00,51.127
1457.00,51.113
1458.00,51.150
1459.00,51.170
1460.00,51.193
1461.00,51.219
1462.00,51.280
1463.00,51.226
1464.00,51.254
1465.00,51.274
1466.00,51.263
1467.00,51.302
1468.00,51.348
1469.00,51.323
1470.00,51.358
1471.00,51.349
1472.00,51.379
1473.00,51.398
1474.00,51.414
1475.00,51.446
1476.00,51.453
1477.00,51.441
1478.00,51.485
1479.00,51.489
1480.00,51.490
1481.00,51.503
1482.00,51.529
1483.00,51.558
1484.00,51.575
1485.00,51.577
1486.00,51.603
1487.00,51.617
1488.00,51.641
1489.00,51.643
1490.00,51.649
1491.00,51.654
1492.00,51.672
1493.00,51.662
1494.00,51.700
1495.00,51.696
1496.00,51.716
1497.00,51.720
1498.00,51.728
1499.00,51.746
1500.00,51.770
1501.00, 
1502.00, 
1503.00, 
1504.00, 
1505.00, 
1506.00, 
1507.00, 
1508.00, 
1509.00, 
1510.00, 
1511.00, 
1512.00, 
1513.00, 
1514.00, 
1515.00, 
1516.00, 
1517.00, 
1518.00, 
1519.00, 
1520.00, 
1521.00, 
1522.00, 
1523.00, 
1524.00, 
1525.00, 
1526.00, 
1527.00, 
1528.00, 
1529.00, 
1530.00, 
1531.00, 
1532.00, 
1533.00, 
1534.00, 
1535.00, 
1536.00, 
1537.00, 
1538.00, 
1539.00, 
1540.00, 
1541.00, 
1542.00, 
1543.00, 
1544.00, 
1545.00, 
1546.00, 
1547.00, 
1548.00, 
1549.00, 
1550.00, 
1551.00, 
1552.00, 
1553.00, 
1554.00, 
1555.00, 
1556.00, 
1557.00, 
1558.00, 
1559.00, 
1560.00, 
1561.00, 
1562.00, 
1563.00, 
1564.00, 
1565.00, 
1566.00, 
1567.00, 
1568.00, 
1569.00, 
1570.00, 
1571.00, 
1572.00, 
1573.00, 
1574.00, 
1575.00, 
1576.00, 
1577.00, 
1578.00, 
1579.00, 
1580.00, 
1581.00, 
1582.00, 
1583.00, 
1584.00, 
1585.00, 
1586.00, 
1587.00, 
1588.00, 
1589.00, 
1590.00, 
1591.00, 
1592.00, 
1593.00, 
1594.00, 
1595.00, 
1596.00, 
1597.00, 
1598.00, 
1599.00, 
1600.00, 
1601.00, 
1602.00, 
1603.00, 
1604.00, 
1605.00, 
1606.00, 
1607.00, 
1608.00, 
1609.00, 
1610.00, 
1611.00, 
1612.00, 
1613.00, 
1614.00, 
1615.00, 
1616.00, 
1617.00, 
1618.00, 
1619.00, 
1620.00, 
1621.00, 
1622.00, 
1623.00, 
1624.00, 
1625.00, 
1626.00, 
1627.00, 
1628.00, 
1629.00, 
1630.00, 
1631.00, 
1632.00, 
1633.00, 
1634.00, 
1635.00, 
1636.00, 
1637.00, 
1638.00, 
1639.00, 
1640.00, 
1641.00, 
1642.00, 
1643.00, 
1644.00, 
1645.00, 
1646.00, 
1647.00, 
1648.00, 
1649.00, 
1650.00, 
1651.00, 
1652.00, 
1653.00, 
1654.00, 
1655.00, 
1656.00, 
1657.00, 
1658.00, 
1659.00, 
1660.00, 
1661.00, 
1662.00, 
1663.00, 
1664.00, 
1665.00, 
1666.00, 
1667.00, 
1668.00, 
1669.00, 
1670.00, 
1671.00, 
1672.00, 
1673.00, 
1674.00, 
1675.00, 
1676.00, 
1677.00, 
1678.00, 
1679.00, 
1680.00, 
1681.00, 
1682.00, 
1683.00, 
1684.00, 
1685.00, 
1686.00, 
1687.00, 
1688.00, 
1689.00, 
1690.00, 
1691.00, 
1692.00, 
1693.00, 
1694.00, 
1695.00, 
1696.00, 
1697.00, 
1698.00, 
1699.00, 
1700.00, 
1701.00, 
1702.00, 
1703.00, 
1704.00, 
1705.00, 
1706.00, 
1707.00, 
1708.00, 
1709.00, 
1710.00, 
1711.00, 
1712.00, 
1713.00, 
1714.00, 
1715.00, 
1716.00, 
1717.00, 
1718.00, 
1719.00, 
1720.00, 
1721.00, 
1722.00, 
1723.00, 
1724.00, 
1725.00, 
1726.00, 
1727.00, 
1728.00, 
1729.00, 
1730.00, 
1731.00, 
1732.00, 
1733.00, 
1734.00, 
1735.00, 
1736.00, 
1737.00, 
1738.00, 
1739.00, 
1740.00, 
1741.00, 
1742.00, 
1743.00, 
1744.00, 
1745.00, 
1746.00, 
1747.00, 
1748.00, 
1749.00, 
1750.00, 
1751.00, 
1752.00, 
1753.00, 
1754.00, 
1755.00, 
1756.00, 
1757.00, 
1758.00, 
1759.00, 
1760.00, 
1761.00, 
1762.00, 
1763.00, 
1764.00, 
1765.00, 
1766.00, 
1767.00, 
1768.00, 
1769.00, 
1770.00, 
1771.00, 
1772.00, 
1773.00, 
1774.00, 
1775.00, 
1776.00, 
1777.00, 
1778.00, 
1779.00, 
1780.00, 
1781.00, 
1782.00, 
1783.00, 
1784.00, 
1785.00, 
1786.00, 
1787.00, 
1788.00, 
1789.00, 
1790.00, 
1791.00, 
1792.00, 
1793.00, 
1794.00, 
1795.00, 
1796.00, 
1797.00, 
1798.00, 
1799.00, 
1800.00, 
1801.00, 
1802.00, 
1803.00, 
1804.00, 
1805.00, 
1806.00, 
1807.00, 
1808.00, 
1809.00, 
1810.00, 
1811.00, 
1812.00, 
1813.00, 
1814.00, 
1815.00, 
1816.00, 
1817.00, 
1818.00, 
1819.00, 
1820.00, 
1821.00, 
1822.00, 
1823.00, 
1824.00, 
1825.00, 
1826.00, 
1827.00, 
1828.00, 
1829.00, 
1830.00, 
1831.00, 
1832.00, 
1833.00, 
1834.00, 
1835.00, 
1836.00, 
1837.00, 
1838.00, 
1839.00, 
1840.00, 
1841.00, 
1842.00, 
1843.00, 
1844.00, 
1845.00, 
1846.00, 
1847.00, 
1848.00, 
1849.00, 
1850.00, 
1851.00, 
1852.00, 
1853.00, 
1854.00, 
1855.00, 
1856.00, 
1857.00, 
1858.00, 
1859.00, 
1860.00, 
1861.00, 
1862.00, 
1863.00, 
1864.00, 
1865.00, 
1866.00, 
1867.00, 
1868.00, 
1869.00, 
1870.00, 
1871.00, 
1872.00, 
1873.00, 
1874.00, 
1875.00, 
1876.00, 
1877.00, 
1878.00, 
1879.00, 
1880.00, 
1881.00, 
1882.00, 
1883.00, 
1884.00, 
1885.00, 
1886.00, 
1887.00, 
1888.00, 
1889.00, 
1890.00, 
1891.00, 
1892.00, 
1893.00, 
1894.00, 
1895.00, 
1896.00, 
1897.00, 
1898.00, 
1899.00, 
1900.00, 
1901.00, 
1902.00, 
1903.00, 
1904.00, 
1905.00, 
1906.00, 
1907.00, 
1908.00, 
1909.00, 
1910.00, 
1911.00, 
1912.00, 
1913.00, 
1914.00, 
1915.00, 
1916.00, 
1917.00, 
1918.00, 
1919.00, 
1920.00, 
1921.00, 
1922.00, 
1923.00, 
1924.00, 
1925.00, 
1926.00, 
1927.00, 
1928.00, 
1929.00, 
1930.00, 
1931.00, 
1932.00, 
1933.00, 
1934.00, 
1935.00, 
1936.00, 
1937.00, 
1938.00, 
1939.00, 
1940.00, 
1941.00, 
1942.00, 
1943.00, 
1944.00, 
1945.00, 
1946.00, 
1947.00, 
1948.00, 
1949.00, 
1950.00, 
1951.00, 
1952.00, 
1953.00, 
1954.00, 
1955.00, 
1956.00, 
1957.00, 
1958.00, 
1959.00, 
1960.00, 
1961.00, 
1962.00, 
1963.00, 
1964.00, 
1965.00, 
1966.00, 
1967.00, 
1968.00, 
1969.00, 
1970.00, 
1971.00, 
1972.00, 
1973.00, 
1974.00, 
1975.00, 
1976.00, 
1977.00, 
1978.00, 
1979.00, 
1980.00, 
1981.00, 
1982.00, 
1983.00, 
1984.00, 
1985.00, 
1986.00, 
1987.00, 
1988.00, 
1989.00, 
1990.00, 
1991.00, 
1992.00, 
1993.00, 
1994.00, 
1995.00, 
1996.00, 
1997.00, 
1998.00, 
1999.00, 
2000.00, 
2001.00, 
2002.00, 
2003.00, 
2004.00, 
2005.00, 
2006.00, 
2007.00, 
2008.00, 
2009.00, 
2010.00, 
2011.00, 
2012.00, 
2013.00, 
2014.00, 
2015.00, 
2016.00, 
2017.00, 
2018.00, 
2019.00, 
2020.00, 
2021.00, 
2022.00, 
2023.00, 
2024.00, 
2025.00, 
2026.00, 
2027.00, 
2028.00, 
2029.00, 
2030.00, 
2031.00, 
2032.00, 
2033.00, 
2034.00, 
2035.00, 
2036.00, 
2037.00, 
2038.00, 
2039.00, 
2040.00, 
2041.00, 
2042.00, 
2043.00, 
2044.00, 
2045.00, 
2046.00, 
2047.00, 
2048.00, 
2049.00, 
2050.00, 
2051.00, 
2052.00, 
2053.00, 
2054.00, 
2055.00, 
2056.00, 
2057.00, 
2058.00, 
2059.00, 
2060.00, 
2061.00, 
2062.00, 
2063.00, 
2064.00, 
2065.00, 
2066.00, 
2067.00, 
2068.00, 
2069.00, 
2070.00, 
2071.00, 
2072.00, 
2073.00, 
2074.00, 
2075.00, 
2076.00, 
2077.00, 
2078.00, 
2079.00, 
2080.00, 
2081.00, 
2082.00, 
2083.00, 
2084.00, 
2085.00, 
2086.00, 
2087.00, 
2088.00, 
2089.00, 
2090.00, 
2091.00, 
2092.00, 
2093.00, 
2094.00, 
2095.00, 
2096.00, 
2097.00, 
2098.00, 
2099.00, 
2100.00, 
2101.00, 
2102.00, 
2103.00, 
2104.00, 
2105.00, 
2106.00, 
2107.00, 
2108.00, 
2109.00, 
2110.00, 
2111.00, 
2112.00, 
2113.00, 
2114.00, 
2115.00, 
2116.00, 
2117.00, 
2118.00, 
2119.00, 
2120.00, 
2121.00, 
2122.00, 
2123.00, 
2124.00, 
2125.00, 
2126.00, 
2127.00, 
2128.00, 
2129.00, 
2130.00, 
2131.00, 
2132.00, 
2133.00, 
2134.00, 
2135.00, 
2136.00, 
2137.00, 
2138.00, 
2139.00, 
2140.00, 
2141.00, 
2142.00, 
2143.00, 
2144.00, 
2145.00, 
2146.00, 
2147.00, 
2148.00, 
2149.00, 
2150.00, 
2151.00, 
2152.00, 
2153.00, 
2154.00, 
2155.00, 
2156.00, 
2157.00, 
2158.00, 
2159.00, 
2160.00, 
2161.00, 
2162.00, 
2163.00, 
2164.00, 
2165.00, 
2166.00, 
2167.00, 
2168.00, 
2169.00, 
2170.00, 
2171.00, 
2172.00, 
2173.00, 
2174.00, 
2175.00, 
2176.00, 
2177.00, 
2178.00, 
2179.00, 
2180.00, 
2181.00, 
2182.00, 
2183.00, 
2184.00, 
2185.00, 
2186.00, 
2187.00, 
2188.00, 
2189.00, 
2190.00, 
2191.00, 
2192.00, 
2193.00, 
2194.00, 
2195.00, 
2196.00, 
2197.00, 
2198.00, 
2199.00, 
2200.00, 
2201.00, 
2202.00, 
2203.00, 
2204.00, 
2205.00, 
2206.00, 
2207.00, 
2208.00, 
2209.00, 
2210.00, 
2211.00, 
2212.00, 
2213.00, 
2214.00, 
2215.00, 
2216.00, 
2217.00, 
2218.00, 
2219.00, 
2220.00, 
2221.00, 
2222.00, 
2223.00, 
2224.00, 
2225.00, 
2226.00, 
2227.00, 
2228.00, 
2229.00, 
2230.00, 
2231.00, 
2232.00, 
2233.00, 
2234.00, 
2235.00, 
2236.00, 
2237.00, 
2238.00, 
2239.00, 
2240.00, 
2241.00, 
2242.00, 
2243.00, 
2244.00, 
2245.00, 
2246.00, 
2247.00, 
2248.00, 
2249.00, 
2250.00, 
2251.00, 
2252.00, 
2253.00, 
2254.00, 
2255.00, 
2256.00, 
2257.00, 
2258.00, 
2259.00, 
2260.00, 
2261.00, 
2262.00, 
2263.00, 
2264.00, 
2265.00, 
2266.00, 
2267.00, 
2268.00, 
2269.00, 
2270.00, 
2271.00, 
2272.00, 
2273.00, 
2274.00, 
2275.00, 
2276.00, 
2277.00, 
2278.00, 
2279.00, 
2280.00, 
2281.00, 
2282.00, 
2283.00, 
2284.00, 
2285.00, 
2286.00, 
2287.00, 
2288.00, 
2289.00, 
2290.00, 
2291.00, 
2292.00, 
2293.00, 
2294.00, 
2295.00, 
2296.00, 
2297.00, 
2298.00, 
2299.00, 
2300.00, 
2301.00, 
2302.00, 
2303.00, 
2304.00, 
2305.00, 
2306.00, 
2307.00, 
2308.00, 
2309.00, 
2310.00, 
2311.00, 
2312.00, 
2313.00, 
2314.00, 
2315.00, 
2316.00, 
2317.00, 
2318.00, 
2319.00, 
2320.00, 
2321.00, 
2322.00, 
2323.00, 
2324.00, 
2325.00, 
2326.00, 
2327.00, 
2328.00, 
2329.00, 
2330.00, 
2331.00, 
2332.00, 
2333.00, 
2334.00, 
2335.00, 
2336.00, 
2337.00, 
2338.00, 
2339.00, 
2340.00, 
2341.00, 
2342.00, 
2343.00, 
2344.00, 
2345.00, 
2346.00, 
2347.00, 
2348.00, 
2349.00, 
2350.00, 
2351.00, 
2352.00, 
2353.00, 
2354.00, 
2355.00, 
2356.00, 
2357.00, 
2358.00, 
2359.00, 
2360.00, 
2361.00, 
2362.00, 
2363.00, 
2364.00, 
2365.00, 
2366.00, 
2367.00, 
2368.00, 
2369.00, 
2370.00, 
2371.00, 
2372.00, 
2373.00, 
2374.00, 
2375.00, 
2376.00, 
2377.00, 
2378.00, 
2379.00, 
2380.00, 
2381.00, 
2382.00, 
2383.00, 
2384.00, 
2385.00, 
2386.00, 
2387.00, 
2388.00, 
2389.00, 
2390.00, 
2391.00, 
2392.00, 
2393.00, 
2394.00, 
2395.00, 
2396.00, 
2397.00, 
2398.00, 
2399.00, 
2400.00, 
2401.00, 
2402.00, 
2403.00, 
2404.00, 
2405.00, 
2406.00, 
2407.00, 
2408.00, 
2409.00, 
2410.00, 
2411.00, 
2412.00, 
2413.00, 
2414.00, 
2415.00, 
2416.00, 
2417.00, 
2418.00, 
2419.00, 
2420.00, 
2421.00, 
2422.00, 
2423.00, 
2424.00, 
2425.00, 
2426.00, 
2427.00, 
2428.00, 
2429.00, 
2430.00, 
2431.00, 
2432.00, 
2433.00, 
2434.00, 
2435.00, 
2436.00, 
2437.00, 
2438.00, 
2439.00, 
2440.00, 
2441.00, 
2442.00, 
2443.00, 
2444.00, 
2445.00, 
2446.00, 
2447.00, 
2448.00, 
2449.00, 
2450.00, 
2451.00, 
2452.00, 
2453.00, 
2454.00, 
2455.00, 
2456.00, 
2457.00, 
2458.00, 
2459.00, 
2460.00, 
2461.00, 
2462.00, 
2463.00, 
2464.00, 
2465.00, 
2466.00, 
2467.00, 
2468.00, 
2469.00, 
2470.00, 
2471.00, 
2472.00, 
2473.00, 
2474.00, 
2475.00, 
2476.00, 
2477.00, 
2478.00, 
2479.00, 
2480.00, 
2481.00, 
2482.00, 
2483.00, 
2484.00, 
2485.00, 
2486.00, 
2487.00, 
2488.00, 
2489.00, 
2490.00, 
2491.00, 
2492.00, 
2493.00, 
2494.00, 
2495.00, 
2496.00, 
2497.00, 
2498.00, 
2499.00, 
2500.00, 
2501.00, 
2502.00, 
2503.00, 
2504.00, 
2505.00, 
2506.00, 
2507.00, 
2508.00, 
2509.00, 
2510.00, 
2511.00, 
2512.00, 
2513.00, 
2514.00, 
2515.00, 
2516.00, 
2517.00, 
2518.00, 
2519.00, 
2520.00, 
2521.00, 
2522.00, 
2523.00, 
2524.00, 
2525.00, 
2526.00, 
2527.00, 
2528.00, 
2529.00, 
2530.00, 
2531.00, 
2532.00, 
2533.00, 
2534.00, 
2535.00, 
2536.00, 
2537.00, 
2538.00, 
2539.00, 
2540.00, 
2541.00, 
2542.00, 
2543.00, 
2544.00, 
2545.00, 
2546.00, 
2547.00, 
2548.00, 
2549.00, 
2550.00, 
2551.00, 
2552.00, 
2553.00, 
2554.00, 
2555.00, 
2556.00, 
2557.00, 
2558.00, 
2559.00, 
2560.00, 
2561.00, 
2562.00, 
2563.00, 
2564.00, 
2565.00, 
2566.00, 
2567.00, 
2568.00, 
2569.00, 
2570.00, 
2571.00, 
2572.00, 
2573.00, 
2574.00, 
2575.00, 
2576.00, 
2577.00, 
2578.00, 
2579.00, 
2580.00, 
2581.00, 
2582.00, 
2583.00, 
2584.00, 
2585.00, 
2586.00, 
2587.00, 
2588.00, 
2589.00, 
2590.00, 
2591.00, 
2592.00, 
2593.00, 
2594.00, 
2595.00, 
2596.00, 
2597.00, 
2598.00, 
2599.00, 
2600.00, 
