"1cP3 - RawData"
"Wavelength nm.","T%"
200.00,0.002
201.00,0.001
202.00,0.005
203.00,0.003
204.00,0.001
205.00,-0.001
206.00,-0.002
207.00,0.000
208.00,0.000
209.00,0.003
210.00,-0.002
211.00,-0.000
212.00,0.001
213.00,-0.002
214.00,0.002
215.00,0.001
216.00,0.003
217.00,-0.001
218.00,-0.000
219.00,0.000
220.00,-0.001
221.00,0.002
222.00,0.000
223.00,0.000
224.00,0.000
225.00,0.001
226.00,0.001
227.00,0.003
228.00,0.003
229.00,-0.001
230.00,-0.002
231.00,-0.001
232.00,0.002
233.00,0.001
234.00,0.002
235.00,-0.001
236.00,-0.002
237.00,0.001
238.00,0.001
239.00,-0.001
240.00,-0.000
241.00,0.000
242.00,-0.000
243.00,-0.002
244.00,-0.000
245.00,0.002
246.00,-0.003
247.00,0.002
248.00,-0.001
249.00,0.001
250.00,-0.000
251.00,-0.001
252.00,0.000
253.00,0.003
254.00,0.001
255.00,0.002
256.00,-0.001
257.00,-0.000
258.00,0.002
259.00,0.002
260.00,0.001
261.00,-0.000
262.00,0.001
263.00,-0.001
264.00,-0.000
265.00,0.001
266.00,-0.000
267.00,0.001
268.00,0.000
269.00,0.000
270.00,-0.001
271.00,0.001
272.00,-0.000
273.00,-0.000
274.00,-0.000
275.00,0.002
276.00,-0.000
277.00,-0.000
278.00,0.000
279.00,0.001
280.00,-0.001
281.00,0.001
282.00,-0.000
283.00,0.000
284.00,0.002
285.00,0.002
286.00,-0.000
287.00,-0.000
288.00,-0.002
289.00,-0.000
290.00,0.000
291.00,-0.001
292.00,0.002
293.00,-0.000
294.00,-0.001
295.00,-0.000
296.00,-0.000
297.00,0.001
298.00,0.002
299.00,0.001
300.00,0.000
301.00,0.000
302.00,0.000
303.00,0.000
304.00,0.001
305.00,0.002
306.00,0.003
307.00,0.002
308.00,0.007
309.00,0.009
310.00,0.013
311.00,0.019
312.00,0.028
313.00,0.050
314.00,0.075
315.00,0.112
316.00,0.156
317.00,0.215
318.00,0.294
319.00,0.394
320.00,0.529
321.00,0.688
322.00,0.878
323.00,1.093
324.00,1.364
325.00,1.629
326.00,1.924
327.00,2.285
328.00,2.674
329.00,3.074
330.00,3.528
331.00,3.976
332.00,4.448
333.00,4.996
334.00,5.494
335.00,6.055
336.00,6.591
337.00,7.158
338.00,7.701
339.00,8.201
340.00,8.748
341.00,9.232
342.00,9.730
343.00,10.170
344.00,10.752
345.00,11.177
346.00,11.556
347.00,11.967
348.00,12.347
349.00,12.688
350.00,13.049
351.00,13.351
352.00,13.610
353.00,13.873
354.00,14.180
355.00,14.427
356.00,14.622
357.00,14.813
358.00,15.020
359.00,15.226
360.00,15.408
361.00,15.449
362.00,15.556
363.00,15.750
364.00,15.783
365.00,15.853
366.00,15.926
367.00,15.986
368.00,15.974
369.00,16.048
370.00,16.092
371.00,16.103
372.00,16.052
373.00,16.057
374.00,16.025
375.00,15.946
376.00,15.887
377.00,15.828
378.00,15.723
379.00,15.637
380.00,15.633
381.00,15.578
382.00,15.572
383.00,15.570
384.00,15.563
385.00,15.619
386.00,15.594
387.00,15.664
388.00,15.684
389.00,15.691
390.00,15.731
391.00,15.714
392.00,15.743
393.00,15.741
394.00,15.768
395.00,15.772
396.00,15.730
397.00,15.745
398.00,15.721
399.00,15.734
400.00,15.712
401.00,15.665
402.00,15.703
403.00,15.710
404.00,15.670
405.00,15.652
406.00,15.670
407.00,15.582
408.00,15.573
409.00,15.510
410.00,15.474
411.00,15.482
412.00,15.412
413.00,15.447
414.00,15.420
415.00,15.411
416.00,15.422
417.00,15.398
418.00,15.420
419.00,15.488
420.00,15.510
421.00,15.454
422.00,15.483
423.00,15.501
424.00,15.532
425.00,15.552
426.00,15.560
427.00,15.608
428.00,15.630
429.00,15.666
430.00,15.712
431.00,15.753
432.00,15.736
433.00,15.826
434.00,15.850
435.00,15.921
436.00,15.950
437.00,16.041
438.00,16.097
439.00,16.143
440.00,16.192
441.00,16.261
442.00,16.322
443.00,16.392
444.00,16.480
445.00,16.543
446.00,16.637
447.00,16.704
448.00,16.815
449.00,16.882
450.00,17.010
451.00,17.087
452.00,17.178
453.00,17.276
454.00,17.368
455.00,17.459
456.00,17.571
457.00,17.701
458.00,17.782
459.00,17.888
460.00,18.006
461.00,18.111
462.00,18.225
463.00,18.358
464.00,18.485
465.00,18.586
466.00,18.732
467.00,18.850
468.00,18.929
469.00,19.054
470.00,19.155
471.00,19.258
472.00,19.376
473.00,19.465
474.00,19.603
475.00,19.718
476.00,19.814
477.00,19.971
478.00,20.096
479.00,20.259
480.00,20.386
481.00,20.515
482.00,20.667
483.00,20.811
484.00,20.953
485.00,21.123
486.00,21.247
487.00,21.405
488.00,21.568
489.00,21.711
490.00,21.856
491.00,22.009
492.00,22.149
493.00,22.340
494.00,22.500
495.00,22.462
496.00,22.664
497.00,22.786
498.00,22.936
499.00,23.051
500.00,23.199
501.00,23.347
502.00,23.478
503.00,23.605
504.00,23.701
505.00,23.843
506.00,23.974
507.00,24.068
508.00,24.216
509.00,24.409
510.00,24.525
511.00,24.602
512.00,24.772
513.00,24.916
514.00,25.066
515.00,25.185
516.00,25.299
517.00,25.396
518.00,25.557
519.00,25.651
520.00,25.728
521.00,25.871
522.00,25.990
523.00,26.042
524.00,26.196
525.00,26.260
526.00,26.435
527.00,26.520
528.00,26.638
529.00,26.816
530.00,26.969
531.00,27.004
532.00,27.083
533.00,27.216
534.00,27.314
535.00,27.409
536.00,27.516
537.00,27.564
538.00,27.625
539.00,27.764
540.00,27.848
541.00,27.858
542.00,27.931
543.00,28.014
544.00,28.130
545.00,28.217
546.00,28.334
547.00,28.452
548.00,28.551
549.00,28.612
550.00,28.711
551.00,28.818
552.00,28.935
553.00,28.972
554.00,29.039
555.00,29.087
556.00,29.194
557.00,29.272
558.00,29.334
559.00,29.403
560.00,29.471
561.00,29.587
562.00,29.677
563.00,29.689
564.00,29.761
565.00,29.805
566.00,29.852
567.00,29.915
568.00,29.924
569.00,30.004
570.00,30.061
571.00,30.107
572.00,30.142
573.00,30.144
574.00,30.192
575.00,30.193
576.00,30.317
577.00,30.359
578.00,30.491
579.00,30.541
580.00,30.608
581.00,30.748
582.00,30.800
583.00,30.809
584.00,30.946
585.00,31.004
586.00,31.050
587.00,31.168
588.00,31.161
589.00,31.098
590.00,31.231
591.00,31.256
592.00,31.195
593.00,31.319
594.00,31.452
595.00,31.436
596.00,31.448
597.00,31.568
598.00,31.589
599.00,31.543
600.00,31.758
601.00,31.855
602.00,31.918
603.00,32.034
604.00,32.019
605.00,32.078
606.00,32.140
607.00,32.231
608.00,32.291
609.00,32.231
610.00,32.343
611.00,32.562
612.00,32.413
613.00,32.458
614.00,32.554
615.00,32.628
616.00,32.747
617.00,32.704
618.00,32.777
619.00,32.867
620.00,32.888
621.00,32.990
622.00,33.069
623.00,33.152
624.00,33.252
625.00,33.321
626.00,33.409
627.00,33.433
628.00,33.494
629.00,33.532
630.00,33.605
631.00,33.702
632.00,33.785
633.00,33.946
634.00,34.045
635.00,34.127
636.00,34.210
637.00,34.245
638.00,34.334
639.00,34.438
640.00,34.540
641.00,34.507
642.00,34.657
643.00,34.783
644.00,34.841
645.00,34.948
646.00,35.120
647.00,35.194
648.00,35.269
649.00,35.277
650.00,35.352
651.00,35.554
652.00,35.622
653.00,35.685
654.00,35.787
655.00,35.911
656.00,36.257
657.00,36.109
658.00,36.285
659.00,36.423
660.00,36.466
661.00,36.596
662.00,36.663
663.00,36.817
664.00,37.071
665.00,37.262
666.00,37.159
667.00,37.335
668.00,37.452
669.00,37.612
670.00,37.878
671.00,37.699
672.00,37.886
673.00,38.080
674.00,38.168
675.00,38.339
676.00,38.492
677.00,38.680
678.00,38.472
679.00,38.656
680.00,38.798
681.00,39.021
682.00,39.037
683.00,39.076
684.00,39.390
685.00,39.424
686.00,39.283
687.00,39.484
688.00,39.652
689.00,39.801
690.00,40.093
691.00,40.336
692.00,39.990
693.00,40.053
694.00,40.270
695.00,40.533
696.00,40.636
697.00,40.679
698.00,40.796
699.00,41.021
700.00,41.021
701.00,41.108
702.00,41.372
703.00,41.531
704.00,41.610
705.00,41.721
706.00,41.736
707.00,41.898
708.00,41.774
709.00,42.229
710.00,42.631
711.00,42.116
712.00,42.284
713.00,42.393
714.00,42.625
715.00,42.675
716.00,42.638
717.00,42.873
718.00,43.021
719.00,42.977
720.00,43.071
721.00,47.617
722.00,47.627
723.00,47.651
724.00,47.748
725.00,47.815
726.00,47.857
727.00,47.900
728.00,47.976
729.00,48.024
730.00,48.067
731.00,48.107
732.00,48.180
733.00,48.344
734.00,48.335
735.00,48.430
736.00,48.429
737.00,48.491
738.00,48.610
739.00,48.694
740.00,48.719
741.00,48.821
742.00,48.802
743.00,48.835
744.00,48.930
745.00,48.942
746.00,48.982
747.00,48.991
748.00,49.036
749.00,49.117
750.00,49.116
751.00,49.059
752.00,49.150
753.00,49.147
754.00,49.257
755.00,49.243
756.00,49.295
757.00,49.318
758.00,49.400
759.00,49.412
760.00,49.414
761.00,49.453
762.00,49.501
763.00,49.589
764.00,49.582
765.00,49.498
766.00,49.614
767.00,49.660
768.00,49.670
769.00,49.668
770.00,49.767
771.00,49.726
772.00,49.796
773.00,49.833
774.00,49.852
775.00,49.906
776.00,49.783
777.00,50.008
778.00,49.990
779.00,49.971
780.00,49.979
781.00,50.002
782.00,50.088
783.00,50.016
784.00,50.019
785.00,49.942
786.00,50.090
787.00,50.085
788.00,50.115
789.00,50.087
790.00,50.028
791.00,50.138
792.00,50.043
793.00,50.139
794.00,50.109
795.00,50.112
796.00,50.164
797.00,50.053
798.00,50.143
799.00,50.034
800.00,50.082
801.00,50.177
802.00,50.060
803.00,50.055
804.00,50.044
805.00,50.114
806.00,50.082
807.00,50.116
808.00,50.035
809.00,50.039
810.00,50.077
811.00,50.050
812.00,50.068
813.00,50.069
814.00,50.031
815.00,50.096
816.00,49.961
817.00,50.053
818.00,50.015
819.00,50.004
820.00,50.001
821.00,49.967
822.00,49.997
823.00,49.893
824.00,50.092
825.00,49.997
826.00,49.957
827.00,50.007
828.00,50.029
829.00,50.057
830.00,50.022
831.00,52.408
832.00,52.390
833.00,52.374
834.00,52.379
835.00,52.369
836.00,52.371
837.00,52.351
838.00,52.335
839.00,52.326
840.00,52.289
841.00,52.319
842.00,52.308
843.00,52.327
844.00,52.308
845.00,52.268
846.00,52.267
847.00,52.222
848.00,52.227
849.00,52.171
850.00,52.150
851.00,52.063
852.00,52.111
853.00,52.050
854.00,52.028
855.00,52.023
856.00,52.011
857.00,52.020
858.00,51.986
859.00,51.936
860.00,51.980
861.00,51.980
862.00,51.930
863.00,51.922
864.00,51.909
865.00,51.936
866.00,51.914
867.00,51.897
868.00,51.879
869.00,51.887
870.00,51.887
871.00,51.849
872.00,51.888
873.00,51.820
874.00,51.864
875.00,51.823
876.00,51.842
877.00,51.824
878.00,51.829
879.00,51.837
880.00,51.845
881.00,51.782
882.00,51.816
883.00,51.779
884.00,51.731
885.00,51.725
886.00,51.761
887.00,51.686
888.00,51.658
889.00,51.747
890.00,51.610
891.00,51.657
892.00,51.604
893.00,51.609
894.00,51.672
895.00,51.472
896.00,51.530
897.00,51.515
898.00,51.508
899.00,51.497
900.00,51.504
901.00,51.496
902.00,51.489
903.00,51.451
904.00,51.434
905.00,51.443
906.00,51.429
907.00,51.404
908.00,51.385
909.00,51.367
910.00,51.350
911.00,51.341
912.00,51.327
913.00,51.279
914.00,51.239
915.00,51.339
916.00,51.220
917.00,51.235
918.00,51.231
919.00,51.192
920.00,51.163
921.00,51.166
922.00,51.164
923.00,51.129
924.00,51.077
925.00,51.097
926.00,51.089
927.00,51.067
928.00,51.039
929.00,51.024
930.00,50.988
931.00,50.964
932.00,50.958
933.00,50.968
934.00,50.946
935.00,50.908
936.00,50.884
937.00,50.915
938.00,50.843
939.00,50.880
940.00,50.838
941.00,50.835
942.00,50.807
943.00,50.774
944.00,50.720
945.00,50.758
946.00,50.743
947.00,50.701
948.00,50.694
949.00,50.683
950.00,50.668
951.00,50.642
952.00,50.623
953.00,50.589
954.00,50.568
955.00,50.533
956.00,50.517
957.00,50.492
958.00,50.498
959.00,50.445
960.00,50.435
961.00,50.437
962.00,50.430
963.00,50.380
964.00,50.392
965.00,50.390
966.00,50.380
967.00,50.369
968.00,50.350
969.00,50.376
970.00,50.352
971.00,50.363
972.00,50.328
973.00,50.366
974.00,50.385
975.00,50.346
976.00,50.364
977.00,50.362
978.00,50.384
979.00,50.349
980.00,50.359
981.00,50.366
982.00,50.336
983.00,50.350
984.00,50.323
985.00,50.385
986.00,50.304
987.00,50.332
988.00,50.314
989.00,50.301
990.00,50.278
991.00,50.343
992.00,50.306
993.00,50.258
994.00,50.247
995.00,50.239
996.00,50.248
997.00,50.225
998.00,50.197
999.00,50.209
1000.00,50.161
1001.00,50.159
1002.00,50.167
1003.00,50.148
1004.00,50.117
1005.00,50.088
1006.00,50.165
1007.00,50.100
1008.00,50.084
1009.00,50.067
1010.00,50.071
1011.00,50.063
1012.00,50.033
1013.00,50.029
1014.00,49.986
1015.00,49.997
1016.00,49.969
1017.00,49.957
1018.00,49.944
1019.00,49.915
1020.00,49.915
1021.00,49.911
1022.00,49.891
1023.00,49.855
1024.00,49.860
1025.00,49.831
1026.00,49.812
1027.00,49.798
1028.00,49.784
1029.00,49.775
1030.00,49.735
1031.00,49.744
1032.00,49.712
1033.00,49.710
1034.00,49.697
1035.00,49.657
1036.00,49.631
1037.00,49.622
1038.00,49.615
1039.00,49.575
1040.00,49.578
1041.00,49.553
1042.00,49.549
1043.00,49.534
1044.00,49.565
1045.00,49.540
1046.00,49.530
1047.00,49.556
1048.00,49.555
1049.00,49.570
1050.00,49.570
1051.00,49.610
1052.00,49.594
1053.00,49.616
1054.00,49.598
1055.00,49.627
1056.00,49.630
1057.00,49.631
1058.00,49.616
1059.00,49.624
1060.00,49.634
1061.00,49.607
1062.00,49.583
1063.00,49.605
1064.00,49.604
1065.00,49.598
1066.00,49.597
1067.00,49.622
1068.00,49.612
1069.00,49.571
1070.00,49.557
1071.00,49.553
1072.00,49.563
1073.00,49.526
1074.00,49.532
1075.00,49.516
1076.00,49.525
1077.00,49.495
1078.00,49.481
1079.00,49.487
1080.00,49.491
1081.00,49.491
1082.00,49.491
1083.00,49.464
1084.00,49.466
1085.00,49.463
1086.00,49.444
1087.00,49.447
1088.00,49.435
1089.00,49.410
1090.00,49.403
1091.00,49.410
1092.00,49.396
1093.00,49.386
1094.00,49.374
1095.00,49.378
1096.00,49.360
1097.00,49.356
1098.00,49.354
1099.00,49.344
1100.00,49.325
1101.00,49.321
1102.00,49.308
1103.00,49.319
1104.00,49.303
1105.00,49.288
1106.00,49.281
1107.00,49.279
1108.00,49.259
1109.00,49.272
1110.00,49.257
1111.00,49.240
1112.00,49.237
1113.00,49.221
1114.00,49.211
1115.00,49.225
1116.00,49.210
1117.00,49.201
1118.00,49.196
1119.00,49.198
1120.00,49.186
1121.00,49.190
1122.00,49.171
1123.00,49.158
1124.00,49.153
1125.00,49.155
1126.00,49.148
1127.00,49.153
1128.00,49.129
1129.00,49.104
1130.00,49.092
1131.00,49.089
1132.00,49.087
1133.00,49.107
1134.00,49.088
1135.00,49.069
1136.00,49.068
1137.00,49.086
1138.00,49.062
1139.00,49.074
1140.00,49.083
1141.00,49.053
1142.00,49.071
1143.00,49.073
1144.00,49.027
1145.00,49.037
1146.00,49.034
1147.00,49.037
1148.00,49.026
1149.00,49.033
1150.00,49.040
1151.00,49.047
1152.00,49.036
1153.00,49.030
1154.00,49.014
1155.00,49.025
1156.00,49.016
1157.00,49.018
1158.00,49.007
1159.00,49.016
1160.00,49.003
1161.00,49.017
1162.00,49.009
1163.00,49.003
1164.00,49.006
1165.00,49.002
1166.00,49.012
1167.00,49.008
1168.00,49.029
1169.00,49.006
1170.00,49.005
1171.00,48.988
1172.00,48.982
1173.00,48.989
1174.00,48.989
1175.00,48.984
1176.00,48.989
1177.00,48.977
1178.00,48.982
1179.00,48.984
1180.00,48.974
1181.00,49.003
1182.00,48.973
1183.00,48.978
1184.00,48.976
1185.00,48.981
1186.00,48.973
1187.00,48.968
1188.00,48.962
1189.00,48.961
1190.00,48.954
1191.00,48.954
1192.00,48.993
1193.00,48.978
1194.00,48.984
1195.00,48.955
1196.00,48.995
1197.00,48.988
1198.00,48.967
1199.00,48.996
1200.00,48.981
1201.00,48.992
1202.00,48.958
1203.00,48.967
1204.00,48.956
1205.00,48.975
1206.00,48.960
1207.00,48.967
1208.00,48.959
1209.00,48.963
1210.00,48.976
1211.00,48.967
1212.00,48.983
1213.00,48.948
1214.00,48.988
1215.00,48.962
1216.00,48.971
1217.00,48.987
1218.00,48.973
1219.00,49.004
1220.00,48.979
1221.00,48.983
1222.00,48.965
1223.00,48.982
1224.00,49.007
1225.00,49.002
1226.00,48.997
1227.00,48.978
1228.00,49.007
1229.00,48.998
1230.00,49.026
1231.00,49.018
1232.00,49.049
1233.00,49.044
1234.00,49.047
1235.00,49.070
1236.00,49.062
1237.00,49.055
1238.00,49.053
1239.00,49.063
1240.00,49.049
1241.00,49.067
1242.00,49.070
1243.00,49.080
1244.00,49.053
1245.00,49.078
1246.00,49.089
1247.00,49.079
1248.00,49.069
1249.00,49.087
1250.00,49.096
1251.00,49.080
1252.00,49.103
1253.00,49.085
1254.00,49.119
1255.00,49.107
1256.00,49.094
1257.00,49.086
1258.00,49.132
1259.00,49.120
1260.00,49.149
1261.00,49.148
1262.00,49.140
1263.00,49.135
1264.00,49.144
1265.00,49.151
1266.00,49.148
1267.00,49.145
1268.00,49.163
1269.00,49.166
1270.00,49.187
1271.00,49.186
1272.00,49.174
1273.00,49.190
1274.00,49.187
1275.00,49.206
1276.00,49.208
1277.00,49.205
1278.00,49.228
1279.00,49.229
1280.00,49.250
1281.00,49.254
1282.00,49.232
1283.00,49.296
1284.00,49.261
1285.00,49.253
1286.00,49.273
1287.00,49.258
1288.00,49.273
1289.00,49.262
1290.00,49.298
1291.00,49.291
1292.00,49.272
1293.00,49.298
1294.00,49.308
1295.00,49.327
1296.00,49.348
1297.00,49.345
1298.00,49.374
1299.00,49.346
1300.00,49.366
1301.00,49.356
1302.00,49.381
1303.00,49.382
1304.00,49.363
1305.00,49.396
1306.00,49.392
1307.00,49.409
1308.00,49.423
1309.00,49.444
1310.00,49.434
1311.00,49.413
1312.00,49.424
1313.00,49.455
1314.00,49.460
1315.00,49.467
1316.00,49.474
1317.00,49.496
1318.00,49.499
1319.00,49.513
1320.00,49.500
1321.00,49.665
1322.00,49.654
1323.00,49.644
1324.00,49.651
1325.00,49.626
1326.00,49.651
1327.00,49.639
1328.00,49.635
1329.00,49.638
1330.00,49.661
1331.00,49.645
1332.00,49.671
1333.00,49.678
1334.00,49.701
1335.00,49.729
1336.00,49.748
1337.00,49.794
1338.00,49.840
1339.00,49.879
1340.00,49.941
1341.00,50.007
1342.00,50.057
1343.00,50.101
1344.00,50.148
1345.00,50.211
1346.00,50.251
1347.00,50.252
1348.00,50.289
1349.00,50.317
1350.00,50.322
1351.00,50.343
1352.00,50.386
1353.00,50.356
1354.00,50.355
1355.00,50.342
1356.00,50.409
1357.00,50.386
1358.00,50.418
1359.00,50.437
1360.00,50.485
1361.00,50.445
1362.00,50.413
1363.00,50.622
1364.00,50.427
1365.00,50.438
1366.00,50.692
1367.00,50.443
1368.00,50.369
1369.00,50.438
1370.00,50.391
1371.00,50.375
1372.00,50.392
1373.00,50.427
1374.00,50.472
1375.00,50.419
1376.00,50.423
1377.00,50.461
1378.00,50.532
1379.00,50.427
1380.00,50.452
1381.00,50.505
1382.00,50.391
1383.00,50.438
1384.00,50.384
1385.00,50.418
1386.00,50.449
1387.00,50.363
1388.00,50.363
1389.00,50.411
1390.00,50.395
1391.00,50.403
1392.00,50.397
1393.00,50.502
1394.00,50.438
1395.00,50.332
1396.00,50.354
1397.00,50.446
1398.00,50.427
1399.00,50.435
1400.00,50.368
1401.00,50.409
1402.00,50.572
1403.00,50.424
1404.00,50.462
1405.00,50.483
1406.00,50.510
1407.00,50.517
1408.00,50.439
1409.00,50.501
1410.00,50.537
1411.00,50.500
1412.00,50.595
1413.00,50.520
1414.00,50.477
1415.00,50.565
1416.00,50.657
1417.00,50.624
1418.00,50.574
1419.00,50.567
1420.00,50.610
1421.00,50.675
1422.00,50.649
1423.00,50.666
1424.00,50.683
1425.00,50.696
1426.00,50.700
1427.00,50.721
1428.00,50.724
1429.00,50.767
1430.00,50.759
1431.00,50.774
1432.00,50.805
1433.00,50.815
1434.00,50.819
1435.00,50.894
1436.00,50.869
1437.00,50.872
1438.00,50.881
1439.00,50.921
1440.00,50.937
1441.00,50.931
1442.00,50.955
1443.00,50.981
1444.00,51.042
1445.00,50.977
1446.00,51.025
1447.00,51.061
1448.00,51.114
1449.00,51.101
1450.00,51.105
1451.00,51.133
1452.00,51.143
1453.00,51.130
1454.00,51.166
1455.00,51.183
1456.00,51.223
1457.00,51.193
1458.00,51.246
1459.00,51.263
1460.00,51.283
1461.00,51.277
1462.00,51.320
1463.00,51.318
1464.00,51.343
1465.00,51.366
1466.00,51.364
1467.00,51.406
1468.00,51.440
1469.00,51.409
1470.00,51.449
1471.00,51.460
1472.00,51.476
1473.00,51.508
1474.00,51.519
1475.00,51.530
1476.00,51.545
1477.00,51.540
1478.00,51.572
1479.00,51.578
1480.00,51.577
1481.00,51.594
1482.00,51.626
1483.00,51.625
1484.00,51.642
1485.00,51.647
1486.00,51.669
1487.00,51.712
1488.00,51.730
1489.00,51.720
1490.00,51.742
1491.00,51.760
1492.00,51.779
1493.00,51.776
1494.00,51.809
1495.00,51.795
1496.00,51.817
1497.00,51.805
1498.00,51.831
1499.00,51.834
1500.00,51.855
1501.00, 
1502.00, 
1503.00, 
1504.00, 
1505.00, 
1506.00, 
1507.00, 
1508.00, 
1509.00, 
1510.00, 
1511.00, 
1512.00, 
1513.00, 
1514.00, 
1515.00, 
1516.00, 
1517.00, 
1518.00, 
1519.00, 
1520.00, 
1521.00, 
1522.00, 
1523.00, 
1524.00, 
1525.00, 
1526.00, 
1527.00, 
1528.00, 
1529.00, 
1530.00, 
1531.00, 
1532.00, 
1533.00, 
1534.00, 
1535.00, 
1536.00, 
1537.00, 
1538.00, 
1539.00, 
1540.00, 
1541.00, 
1542.00, 
1543.00, 
1544.00, 
1545.00, 
1546.00, 
1547.00, 
1548.00, 
1549.00, 
1550.00, 
1551.00, 
1552.00, 
1553.00, 
1554.00, 
1555.00, 
1556.00, 
1557.00, 
1558.00, 
1559.00, 
1560.00, 
1561.00, 
1562.00, 
1563.00, 
1564.00, 
1565.00, 
1566.00, 
1567.00, 
1568.00, 
1569.00, 
1570.00, 
1571.00, 
1572.00, 
1573.00, 
1574.00, 
1575.00, 
1576.00, 
1577.00, 
1578.00, 
1579.00, 
1580.00, 
1581.00, 
1582.00, 
1583.00, 
1584.00, 
1585.00, 
1586.00, 
1587.00, 
1588.00, 
1589.00, 
1590.00, 
1591.00, 
1592.00, 
1593.00, 
1594.00, 
1595.00, 
1596.00, 
1597.00, 
1598.00, 
1599.00, 
1600.00, 
1601.00, 
1602.00, 
1603.00, 
1604.00, 
1605.00, 
1606.00, 
1607.00, 
1608.00, 
1609.00, 
1610.00, 
1611.00, 
1612.00, 
1613.00, 
1614.00, 
1615.00, 
1616.00, 
1617.00, 
1618.00, 
1619.00, 
1620.00, 
1621.00, 
1622.00, 
1623.00, 
1624.00, 
1625.00, 
1626.00, 
1627.00, 
1628.00, 
1629.00, 
1630.00, 
1631.00, 
1632.00, 
1633.00, 
1634.00, 
1635.00, 
1636.00, 
1637.00, 
1638.00, 
1639.00, 
1640.00, 
1641.00, 
1642.00, 
1643.00, 
1644.00, 
1645.00, 
1646.00, 
1647.00, 
1648.00, 
1649.00, 
1650.00, 
1651.00, 
1652.00, 
1653.00, 
1654.00, 
1655.00, 
1656.00, 
1657.00, 
1658.00, 
1659.00, 
1660.00, 
1661.00, 
1662.00, 
1663.00, 
1664.00, 
1665.00, 
1666.00, 
1667.00, 
1668.00, 
1669.00, 
1670.00, 
1671.00, 
1672.00, 
1673.00, 
1674.00, 
1675.00, 
1676.00, 
1677.00, 
1678.00, 
1679.00, 
1680.00, 
1681.00, 
1682.00, 
1683.00, 
1684.00, 
1685.00, 
1686.00, 
1687.00, 
1688.00, 
1689.00, 
1690.00, 
1691.00, 
1692.00, 
1693.00, 
1694.00, 
1695.00, 
1696.00, 
1697.00, 
1698.00, 
1699.00, 
1700.00, 
1701.00, 
1702.00, 
1703.00, 
1704.00, 
1705.00, 
1706.00, 
1707.00, 
1708.00, 
1709.00, 
1710.00, 
1711.00, 
1712.00, 
1713.00, 
1714.00, 
1715.00, 
1716.00, 
1717.00, 
1718.00, 
1719.00, 
1720.00, 
1721.00, 
1722.00, 
1723.00, 
1724.00, 
1725.00, 
1726.00, 
1727.00, 
1728.00, 
1729.00, 
1730.00, 
1731.00, 
1732.00, 
1733.00, 
1734.00, 
1735.00, 
1736.00, 
1737.00, 
1738.00, 
1739.00, 
1740.00, 
1741.00, 
1742.00, 
1743.00, 
1744.00, 
1745.00, 
1746.00, 
1747.00, 
1748.00, 
1749.00, 
1750.00, 
1751.00, 
1752.00, 
1753.00, 
1754.00, 
1755.00, 
1756.00, 
1757.00, 
1758.00, 
1759.00, 
1760.00, 
1761.00, 
1762.00, 
1763.00, 
1764.00, 
1765.00, 
1766.00, 
1767.00, 
1768.00, 
1769.00, 
1770.00, 
1771.00, 
1772.00, 
1773.00, 
1774.00, 
1775.00, 
1776.00, 
1777.00, 
1778.00, 
1779.00, 
1780.00, 
1781.00, 
1782.00, 
1783.00, 
1784.00, 
1785.00, 
1786.00, 
1787.00, 
1788.00, 
1789.00, 
1790.00, 
1791.00, 
1792.00, 
1793.00, 
1794.00, 
1795.00, 
1796.00, 
1797.00, 
1798.00, 
1799.00, 
1800.00, 
1801.00, 
1802.00, 
1803.00, 
1804.00, 
1805.00, 
1806.00, 
1807.00, 
1808.00, 
1809.00, 
1810.00, 
1811.00, 
1812.00, 
1813.00, 
1814.00, 
1815.00, 
1816.00, 
1817.00, 
1818.00, 
1819.00, 
1820.00, 
1821.00, 
1822.00, 
1823.00, 
1824.00, 
1825.00, 
1826.00, 
1827.00, 
1828.00, 
1829.00, 
1830.00, 
1831.00, 
1832.00, 
1833.00, 
1834.00, 
1835.00, 
1836.00, 
1837.00, 
1838.00, 
1839.00, 
1840.00, 
1841.00, 
1842.00, 
1843.00, 
1844.00, 
1845.00, 
1846.00, 
1847.00, 
1848.00, 
1849.00, 
1850.00, 
1851.00, 
1852.00, 
1853.00, 
1854.00, 
1855.00, 
1856.00, 
1857.00, 
1858.00, 
1859.00, 
1860.00, 
1861.00, 
1862.00, 
1863.00, 
1864.00, 
1865.00, 
1866.00, 
1867.00, 
1868.00, 
1869.00, 
1870.00, 
1871.00, 
1872.00, 
1873.00, 
1874.00, 
1875.00, 
1876.00, 
1877.00, 
1878.00, 
1879.00, 
1880.00, 
1881.00, 
1882.00, 
1883.00, 
1884.00, 
1885.00, 
1886.00, 
1887.00, 
1888.00, 
1889.00, 
1890.00, 
1891.00, 
1892.00, 
1893.00, 
1894.00, 
1895.00, 
1896.00, 
1897.00, 
1898.00, 
1899.00, 
1900.00, 
1901.00, 
1902.00, 
1903.00, 
1904.00, 
1905.00, 
1906.00, 
1907.00, 
1908.00, 
1909.00, 
1910.00, 
1911.00, 
1912.00, 
1913.00, 
1914.00, 
1915.00, 
1916.00, 
1917.00, 
1918.00, 
1919.00, 
1920.00, 
1921.00, 
1922.00, 
1923.00, 
1924.00, 
1925.00, 
1926.00, 
1927.00, 
1928.00, 
1929.00, 
1930.00, 
1931.00, 
1932.00, 
1933.00, 
1934.00, 
1935.00, 
1936.00, 
1937.00, 
1938.00, 
1939.00, 
1940.00, 
1941.00, 
1942.00, 
1943.00, 
1944.00, 
1945.00, 
1946.00, 
1947.00, 
1948.00, 
1949.00, 
1950.00, 
1951.00, 
1952.00, 
1953.00, 
1954.00, 
1955.00, 
1956.00, 
1957.00, 
1958.00, 
1959.00, 
1960.00, 
1961.00, 
1962.00, 
1963.00, 
1964.00, 
1965.00, 
1966.00, 
1967.00, 
1968.00, 
1969.00, 
1970.00, 
1971.00, 
1972.00, 
1973.00, 
1974.00, 
1975.00, 
1976.00, 
1977.00, 
1978.00, 
1979.00, 
1980.00, 
1981.00, 
1982.00, 
1983.00, 
1984.00, 
1985.00, 
1986.00, 
1987.00, 
1988.00, 
1989.00, 
1990.00, 
1991.00, 
1992.00, 
1993.00, 
1994.00, 
1995.00, 
1996.00, 
1997.00, 
1998.00, 
1999.00, 
2000.00, 
2001.00, 
2002.00, 
2003.00, 
2004.00, 
2005.00, 
2006.00, 
2007.00, 
2008.00, 
2009.00, 
2010.00, 
2011.00, 
2012.00, 
2013.00, 
2014.00, 
2015.00, 
2016.00, 
2017.00, 
2018.00, 
2019.00, 
2020.00, 
2021.00, 
2022.00, 
2023.00, 
2024.00, 
2025.00, 
2026.00, 
2027.00, 
2028.00, 
2029.00, 
2030.00, 
2031.00, 
2032.00, 
2033.00, 
2034.00, 
2035.00, 
2036.00, 
2037.00, 
2038.00, 
2039.00, 
2040.00, 
2041.00, 
2042.00, 
2043.00, 
2044.00, 
2045.00, 
2046.00, 
2047.00, 
2048.00, 
2049.00, 
2050.00, 
2051.00, 
2052.00, 
2053.00, 
2054.00, 
2055.00, 
2056.00, 
2057.00, 
2058.00, 
2059.00, 
2060.00, 
2061.00, 
2062.00, 
2063.00, 
2064.00, 
2065.00, 
2066.00, 
2067.00, 
2068.00, 
2069.00, 
2070.00, 
2071.00, 
2072.00, 
2073.00, 
2074.00, 
2075.00, 
2076.00, 
2077.00, 
2078.00, 
2079.00, 
2080.00, 
2081.00, 
2082.00, 
2083.00, 
2084.00, 
2085.00, 
2086.00, 
2087.00, 
2088.00, 
2089.00, 
2090.00, 
2091.00, 
2092.00, 
2093.00, 
2094.00, 
2095.00, 
2096.00, 
2097.00, 
2098.00, 
2099.00, 
2100.00, 
2101.00, 
2102.00, 
2103.00, 
2104.00, 
2105.00, 
2106.00, 
2107.00, 
2108.00, 
2109.00, 
2110.00, 
2111.00, 
2112.00, 
2113.00, 
2114.00, 
2115.00, 
2116.00, 
2117.00, 
2118.00, 
2119.00, 
2120.00, 
2121.00, 
2122.00, 
2123.00, 
2124.00, 
2125.00, 
2126.00, 
2127.00, 
2128.00, 
2129.00, 
2130.00, 
2131.00, 
2132.00, 
2133.00, 
2134.00, 
2135.00, 
2136.00, 
2137.00, 
2138.00, 
2139.00, 
2140.00, 
2141.00, 
2142.00, 
2143.00, 
2144.00, 
2145.00, 
2146.00, 
2147.00, 
2148.00, 
2149.00, 
2150.00, 
2151.00, 
2152.00, 
2153.00, 
2154.00, 
2155.00, 
2156.00, 
2157.00, 
2158.00, 
2159.00, 
2160.00, 
2161.00, 
2162.00, 
2163.00, 
2164.00, 
2165.00, 
2166.00, 
2167.00, 
2168.00, 
2169.00, 
2170.00, 
2171.00, 
2172.00, 
2173.00, 
2174.00, 
2175.00, 
2176.00, 
2177.00, 
2178.00, 
2179.00, 
2180.00, 
2181.00, 
2182.00, 
2183.00, 
2184.00, 
2185.00, 
2186.00, 
2187.00, 
2188.00, 
2189.00, 
2190.00, 
2191.00, 
2192.00, 
2193.00, 
2194.00, 
2195.00, 
2196.00, 
2197.00, 
2198.00, 
2199.00, 
2200.00, 
2201.00, 
2202.00, 
2203.00, 
2204.00, 
2205.00, 
2206.00, 
2207.00, 
2208.00, 
2209.00, 
2210.00, 
2211.00, 
2212.00, 
2213.00, 
2214.00, 
2215.00, 
2216.00, 
2217.00, 
2218.00, 
2219.00, 
2220.00, 
2221.00, 
2222.00, 
2223.00, 
2224.00, 
2225.00, 
2226.00, 
2227.00, 
2228.00, 
2229.00, 
2230.00, 
2231.00, 
2232.00, 
2233.00, 
2234.00, 
2235.00, 
2236.00, 
2237.00, 
2238.00, 
2239.00, 
2240.00, 
2241.00, 
2242.00, 
2243.00, 
2244.00, 
2245.00, 
2246.00, 
2247.00, 
2248.00, 
2249.00, 
2250.00, 
2251.00, 
2252.00, 
2253.00, 
2254.00, 
2255.00, 
2256.00, 
2257.00, 
2258.00, 
2259.00, 
2260.00, 
2261.00, 
2262.00, 
2263.00, 
2264.00, 
2265.00, 
2266.00, 
2267.00, 
2268.00, 
2269.00, 
2270.00, 
2271.00, 
2272.00, 
2273.00, 
2274.00, 
2275.00, 
2276.00, 
2277.00, 
2278.00, 
2279.00, 
2280.00, 
2281.00, 
2282.00, 
2283.00, 
2284.00, 
2285.00, 
2286.00, 
2287.00, 
2288.00, 
2289.00, 
2290.00, 
2291.00, 
2292.00, 
2293.00, 
2294.00, 
2295.00, 
2296.00, 
2297.00, 
2298.00, 
2299.00, 
2300.00, 
2301.00, 
2302.00, 
2303.00, 
2304.00, 
2305.00, 
2306.00, 
2307.00, 
2308.00, 
2309.00, 
2310.00, 
2311.00, 
2312.00, 
2313.00, 
2314.00, 
2315.00, 
2316.00, 
2317.00, 
2318.00, 
2319.00, 
2320.00, 
2321.00, 
2322.00, 
2323.00, 
2324.00, 
2325.00, 
2326.00, 
2327.00, 
2328.00, 
2329.00, 
2330.00, 
2331.00, 
2332.00, 
2333.00, 
2334.00, 
2335.00, 
2336.00, 
2337.00, 
2338.00, 
2339.00, 
2340.00, 
2341.00, 
2342.00, 
2343.00, 
2344.00, 
2345.00, 
2346.00, 
2347.00, 
2348.00, 
2349.00, 
2350.00, 
2351.00, 
2352.00, 
2353.00, 
2354.00, 
2355.00, 
2356.00, 
2357.00, 
2358.00, 
2359.00, 
2360.00, 
2361.00, 
2362.00, 
2363.00, 
2364.00, 
2365.00, 
2366.00, 
2367.00, 
2368.00, 
2369.00, 
2370.00, 
2371.00, 
2372.00, 
2373.00, 
2374.00, 
2375.00, 
2376.00, 
2377.00, 
2378.00, 
2379.00, 
2380.00, 
2381.00, 
2382.00, 
2383.00, 
2384.00, 
2385.00, 
2386.00, 
2387.00, 
2388.00, 
2389.00, 
2390.00, 
2391.00, 
2392.00, 
2393.00, 
2394.00, 
2395.00, 
2396.00, 
2397.00, 
2398.00, 
2399.00, 
2400.00, 
2401.00, 
2402.00, 
2403.00, 
2404.00, 
2405.00, 
2406.00, 
2407.00, 
2408.00, 
2409.00, 
2410.00, 
2411.00, 
2412.00, 
2413.00, 
2414.00, 
2415.00, 
2416.00, 
2417.00, 
2418.00, 
2419.00, 
2420.00, 
2421.00, 
2422.00, 
2423.00, 
2424.00, 
2425.00, 
2426.00, 
2427.00, 
2428.00, 
2429.00, 
2430.00, 
2431.00, 
2432.00, 
2433.00, 
2434.00, 
2435.00, 
2436.00, 
2437.00, 
2438.00, 
2439.00, 
2440.00, 
2441.00, 
2442.00, 
2443.00, 
2444.00, 
2445.00, 
2446.00, 
2447.00, 
2448.00, 
2449.00, 
2450.00, 
2451.00, 
2452.00, 
2453.00, 
2454.00, 
2455.00, 
2456.00, 
2457.00, 
2458.00, 
2459.00, 
2460.00, 
2461.00, 
2462.00, 
2463.00, 
2464.00, 
2465.00, 
2466.00, 
2467.00, 
2468.00, 
2469.00, 
2470.00, 
2471.00, 
2472.00, 
2473.00, 
2474.00, 
2475.00, 
2476.00, 
2477.00, 
2478.00, 
2479.00, 
2480.00, 
2481.00, 
2482.00, 
2483.00, 
2484.00, 
2485.00, 
2486.00, 
2487.00, 
2488.00, 
2489.00, 
2490.00, 
2491.00, 
2492.00, 
2493.00, 
2494.00, 
2495.00, 
2496.00, 
2497.00, 
2498.00, 
2499.00, 
2500.00, 
2501.00, 
2502.00, 
2503.00, 
2504.00, 
2505.00, 
2506.00, 
2507.00, 
2508.00, 
2509.00, 
2510.00, 
2511.00, 
2512.00, 
2513.00, 
2514.00, 
2515.00, 
2516.00, 
2517.00, 
2518.00, 
2519.00, 
2520.00, 
2521.00, 
2522.00, 
2523.00, 
2524.00, 
2525.00, 
2526.00, 
2527.00, 
2528.00, 
2529.00, 
2530.00, 
2531.00, 
2532.00, 
2533.00, 
2534.00, 
2535.00, 
2536.00, 
2537.00, 
2538.00, 
2539.00, 
2540.00, 
2541.00, 
2542.00, 
2543.00, 
2544.00, 
2545.00, 
2546.00, 
2547.00, 
2548.00, 
2549.00, 
2550.00, 
2551.00, 
2552.00, 
2553.00, 
2554.00, 
2555.00, 
2556.00, 
2557.00, 
2558.00, 
2559.00, 
2560.00, 
2561.00, 
2562.00, 
2563.00, 
2564.00, 
2565.00, 
2566.00, 
2567.00, 
2568.00, 
2569.00, 
2570.00, 
2571.00, 
2572.00, 
2573.00, 
2574.00, 
2575.00, 
2576.00, 
2577.00, 
2578.00, 
2579.00, 
2580.00, 
2581.00, 
2582.00, 
2583.00, 
2584.00, 
2585.00, 
2586.00, 
2587.00, 
2588.00, 
2589.00, 
2590.00, 
2591.00, 
2592.00, 
2593.00, 
2594.00, 
2595.00, 
2596.00, 
2597.00, 
2598.00, 
2599.00, 
2600.00, 
