"1cP4 - RawData"
"Wavelength nm.","T%"
200.00,0.000
201.00,0.002
202.00,0.002
203.00,-0.001
204.00,0.002
205.00,0.002
206.00,-0.000
207.00,0.005
208.00,-0.004
209.00,-0.000
210.00,0.001
211.00,0.001
212.00,-0.000
213.00,-0.001
214.00,0.000
215.00,0.001
216.00,0.003
217.00,0.001
218.00,0.000
219.00,0.001
220.00,-0.001
221.00,0.004
222.00,0.001
223.00,0.001
224.00,0.002
225.00,0.001
226.00,-0.001
227.00,0.001
228.00,-0.001
229.00,-0.000
230.00,-0.000
231.00,0.000
232.00,0.001
233.00,0.002
234.00,0.000
235.00,0.002
236.00,-0.000
237.00,0.002
238.00,-0.001
239.00,-0.001
240.00,-0.002
241.00,0.001
242.00,0.002
243.00,-0.002
244.00,0.003
245.00,0.000
246.00,0.001
247.00,0.000
248.00,-0.000
249.00,0.002
250.00,0.000
251.00,0.000
252.00,-0.000
253.00,0.000
254.00,0.001
255.00,0.001
256.00,0.001
257.00,0.000
258.00,-0.000
259.00,0.001
260.00,0.001
261.00,0.002
262.00,0.002
263.00,-0.001
264.00,0.000
265.00,0.001
266.00,0.000
267.00,0.000
268.00,0.001
269.00,0.000
270.00,0.000
271.00,0.000
272.00,0.000
273.00,0.001
274.00,0.001
275.00,0.001
276.00,-0.000
277.00,0.000
278.00,0.000
279.00,-0.001
280.00,-0.001
281.00,-0.000
282.00,-0.000
283.00,0.001
284.00,-0.000
285.00,-0.001
286.00,-0.001
287.00,-0.001
288.00,-0.001
289.00,0.001
290.00,0.001
291.00,0.001
292.00,0.001
293.00,0.000
294.00,0.001
295.00,0.001
296.00,-0.000
297.00,-0.000
298.00,-0.000
299.00,-0.002
300.00,0.002
301.00,-0.000
302.00,-0.000
303.00,0.002
304.00,0.002
305.00,0.000
306.00,0.002
307.00,0.004
308.00,0.005
309.00,0.007
310.00,0.013
311.00,0.016
312.00,0.028
313.00,0.045
314.00,0.069
315.00,0.102
316.00,0.144
317.00,0.199
318.00,0.272
319.00,0.368
320.00,0.492
321.00,0.638
322.00,0.810
323.00,1.016
324.00,1.256
325.00,1.501
326.00,1.778
327.00,2.105
328.00,2.453
329.00,2.821
330.00,3.245
331.00,3.659
332.00,4.099
333.00,4.526
334.00,5.022
335.00,5.548
336.00,6.023
337.00,6.543
338.00,7.012
339.00,7.496
340.00,7.968
341.00,8.433
342.00,8.899
343.00,9.346
344.00,9.750
345.00,10.166
346.00,10.494
347.00,10.831
348.00,11.198
349.00,11.511
350.00,11.805
351.00,12.090
352.00,12.319
353.00,12.579
354.00,12.810
355.00,12.977
356.00,13.200
357.00,13.342
358.00,13.528
359.00,13.707
360.00,13.866
361.00,13.913
362.00,14.038
363.00,14.148
364.00,14.187
365.00,14.241
366.00,14.299
367.00,14.326
368.00,14.367
369.00,14.355
370.00,14.382
371.00,14.377
372.00,14.346
373.00,14.350
374.00,14.279
375.00,14.207
376.00,14.144
377.00,14.088
378.00,14.000
379.00,13.917
380.00,13.899
381.00,13.834
382.00,13.828
383.00,13.806
384.00,13.792
385.00,13.832
386.00,13.831
387.00,13.875
388.00,13.893
389.00,13.888
390.00,13.899
391.00,13.893
392.00,13.902
393.00,13.898
394.00,13.870
395.00,13.890
396.00,13.862
397.00,13.877
398.00,13.857
399.00,13.855
400.00,13.829
401.00,13.809
402.00,13.818
403.00,13.846
404.00,13.816
405.00,13.768
406.00,13.817
407.00,13.730
408.00,13.727
409.00,13.674
410.00,13.635
411.00,13.648
412.00,13.582
413.00,13.613
414.00,13.581
415.00,13.576
416.00,13.586
417.00,13.570
418.00,13.605
419.00,13.653
420.00,13.688
421.00,13.640
422.00,13.649
423.00,13.684
424.00,13.682
425.00,13.718
426.00,13.711
427.00,13.784
428.00,13.827
429.00,13.841
430.00,13.892
431.00,13.936
432.00,13.967
433.00,14.038
434.00,14.083
435.00,14.117
436.00,14.189
437.00,14.248
438.00,14.291
439.00,14.333
440.00,14.404
441.00,14.472
442.00,14.568
443.00,14.619
444.00,14.710
445.00,14.774
446.00,14.865
447.00,14.955
448.00,15.025
449.00,15.129
450.00,15.253
451.00,15.357
452.00,15.415
453.00,15.545
454.00,15.600
455.00,15.696
456.00,15.834
457.00,15.914
458.00,16.050
459.00,16.150
460.00,16.284
461.00,16.395
462.00,16.484
463.00,16.678
464.00,16.676
465.00,16.904
466.00,17.031
467.00,17.168
468.00,17.255
469.00,17.350
470.00,17.482
471.00,17.630
472.00,17.676
473.00,17.813
474.00,17.943
475.00,18.085
476.00,18.176
477.00,18.346
478.00,18.458
479.00,18.643
480.00,18.759
481.00,18.883
482.00,19.071
483.00,19.207
484.00,19.363
485.00,19.524
486.00,19.663
487.00,19.811
488.00,19.933
489.00,20.113
490.00,20.268
491.00,20.428
492.00,20.581
493.00,20.788
494.00,20.956
495.00,20.993
496.00,21.117
497.00,21.242
498.00,21.374
499.00,21.534
500.00,21.692
501.00,21.810
502.00,21.952
503.00,22.108
504.00,22.168
505.00,22.331
506.00,22.467
507.00,22.583
508.00,22.719
509.00,22.892
510.00,23.008
511.00,23.108
512.00,23.282
513.00,23.443
514.00,23.574
515.00,23.706
516.00,23.830
517.00,23.921
518.00,24.086
519.00,24.149
520.00,24.235
521.00,24.354
522.00,24.500
523.00,24.569
524.00,24.666
525.00,24.811
526.00,24.917
527.00,24.990
528.00,25.080
529.00,25.260
530.00,25.432
531.00,25.502
532.00,25.611
533.00,25.737
534.00,25.848
535.00,25.906
536.00,25.998
537.00,26.111
538.00,26.192
539.00,26.252
540.00,26.362
541.00,26.432
542.00,26.493
543.00,26.578
544.00,26.668
545.00,26.755
546.00,26.793
547.00,26.956
548.00,27.012
549.00,27.074
550.00,27.149
551.00,27.277
552.00,27.348
553.00,27.389
554.00,27.468
555.00,27.499
556.00,27.587
557.00,27.670
558.00,27.742
559.00,27.804
560.00,27.876
561.00,27.967
562.00,28.038
563.00,28.089
564.00,28.148
565.00,28.201
566.00,28.209
567.00,28.284
568.00,28.312
569.00,28.386
570.00,28.441
571.00,28.473
572.00,28.525
573.00,28.509
574.00,28.581
575.00,28.601
576.00,28.633
577.00,28.695
578.00,28.794
579.00,28.845
580.00,28.893
581.00,28.997
582.00,29.070
583.00,29.094
584.00,29.190
585.00,29.175
586.00,29.203
587.00,29.342
588.00,29.411
589.00,29.394
590.00,29.523
591.00,29.592
592.00,29.553
593.00,29.605
594.00,29.727
595.00,29.764
596.00,29.811
597.00,29.890
598.00,30.009
599.00,30.003
600.00,30.051
601.00,30.146
602.00,30.116
603.00,30.211
604.00,30.225
605.00,30.328
606.00,30.394
607.00,30.453
608.00,30.522
609.00,30.499
610.00,30.625
611.00,30.793
612.00,30.656
613.00,30.713
614.00,30.798
615.00,30.898
616.00,31.001
617.00,30.994
618.00,31.049
619.00,31.115
620.00,31.162
621.00,31.269
622.00,31.352
623.00,31.423
624.00,31.513
625.00,31.624
626.00,31.648
627.00,31.705
628.00,31.809
629.00,31.859
630.00,31.907
631.00,32.039
632.00,32.113
633.00,32.235
634.00,32.316
635.00,32.435
636.00,32.530
637.00,32.541
638.00,32.673
639.00,32.789
640.00,32.856
641.00,32.898
642.00,33.056
643.00,33.135
644.00,33.213
645.00,33.342
646.00,33.505
647.00,33.583
648.00,33.672
649.00,33.670
650.00,33.780
651.00,33.988
652.00,34.097
653.00,34.124
654.00,34.230
655.00,34.436
656.00,34.709
657.00,34.607
658.00,34.815
659.00,34.909
660.00,34.949
661.00,35.148
662.00,35.167
663.00,35.335
664.00,35.539
665.00,35.777
666.00,35.756
667.00,35.927
668.00,35.953
669.00,36.189
670.00,36.519
671.00,36.402
672.00,36.570
673.00,36.744
674.00,36.825
675.00,36.934
676.00,37.160
677.00,37.330
678.00,37.182
679.00,37.469
680.00,37.627
681.00,37.806
682.00,37.898
683.00,37.885
684.00,38.180
685.00,38.287
686.00,38.264
687.00,38.469
688.00,38.650
689.00,38.696
690.00,38.942
691.00,39.262
692.00,39.030
693.00,39.057
694.00,39.388
695.00,39.542
696.00,39.667
697.00,39.743
698.00,39.819
699.00,39.932
700.00,40.215
701.00,40.289
702.00,40.506
703.00,40.636
704.00,40.725
705.00,40.834
706.00,40.927
707.00,41.098
708.00,40.962
709.00,41.431
710.00,41.890
711.00,41.400
712.00,41.589
713.00,41.735
714.00,41.947
715.00,42.011
716.00,41.957
717.00,42.248
718.00,42.448
719.00,42.458
720.00,42.593
721.00,46.752
722.00,46.791
723.00,46.899
724.00,46.943
725.00,47.022
726.00,47.105
727.00,47.172
728.00,47.267
729.00,47.317
730.00,47.402
731.00,47.463
732.00,47.565
733.00,47.632
734.00,47.652
735.00,47.784
736.00,47.834
737.00,47.916
738.00,48.111
739.00,48.104
740.00,48.126
741.00,48.267
742.00,48.233
743.00,48.294
744.00,48.370
745.00,48.440
746.00,48.444
747.00,48.518
748.00,48.554
749.00,48.620
750.00,48.641
751.00,48.647
752.00,48.692
753.00,48.749
754.00,48.802
755.00,48.861
756.00,48.961
757.00,48.872
758.00,49.015
759.00,49.062
760.00,49.083
761.00,49.148
762.00,49.195
763.00,49.263
764.00,49.231
765.00,49.274
766.00,49.323
767.00,49.365
768.00,49.348
769.00,49.426
770.00,49.457
771.00,49.527
772.00,49.543
773.00,49.592
774.00,49.662
775.00,49.694
776.00,49.653
777.00,49.833
778.00,49.756
779.00,49.791
780.00,49.798
781.00,49.756
782.00,49.899
783.00,49.839
784.00,49.779
785.00,49.880
786.00,49.881
787.00,49.917
788.00,49.929
789.00,49.989
790.00,49.901
791.00,50.019
792.00,49.951
793.00,50.002
794.00,49.967
795.00,50.045
796.00,50.059
797.00,49.979
798.00,50.094
799.00,50.009
800.00,50.001
801.00,50.063
802.00,49.954
803.00,49.987
804.00,50.019
805.00,50.081
806.00,50.044
807.00,50.144
808.00,50.016
809.00,50.041
810.00,50.032
811.00,50.050
812.00,50.080
813.00,50.017
814.00,50.072
815.00,50.084
816.00,50.020
817.00,50.035
818.00,50.000
819.00,50.034
820.00,50.001
821.00,50.036
822.00,50.042
823.00,50.031
824.00,50.126
825.00,49.845
826.00,49.928
827.00,50.046
828.00,50.073
829.00,50.042
830.00,50.030
831.00,52.481
832.00,52.466
833.00,52.438
834.00,52.441
835.00,52.402
836.00,52.408
837.00,52.412
838.00,52.389
839.00,52.352
840.00,52.327
841.00,52.341
842.00,52.295
843.00,52.336
844.00,52.332
845.00,52.323
846.00,52.333
847.00,52.267
848.00,52.313
849.00,52.151
850.00,52.268
851.00,52.136
852.00,52.272
853.00,52.128
854.00,52.107
855.00,52.078
856.00,52.096
857.00,52.089
858.00,52.071
859.00,52.060
860.00,52.071
861.00,52.088
862.00,52.023
863.00,52.062
864.00,52.007
865.00,52.053
866.00,52.038
867.00,52.024
868.00,52.023
869.00,52.029
870.00,52.022
871.00,52.020
872.00,52.046
873.00,51.992
874.00,52.055
875.00,51.956
876.00,51.995
877.00,51.956
878.00,52.015
879.00,51.955
880.00,51.974
881.00,51.932
882.00,51.984
883.00,51.923
884.00,51.866
885.00,51.880
886.00,51.892
887.00,51.837
888.00,51.800
889.00,51.874
890.00,51.750
891.00,51.784
892.00,51.752
893.00,51.744
894.00,51.787
895.00,51.616
896.00,51.711
897.00,51.699
898.00,51.667
899.00,51.656
900.00,51.642
901.00,51.751
902.00,51.667
903.00,51.630
904.00,51.602
905.00,51.629
906.00,51.615
907.00,51.584
908.00,51.551
909.00,51.558
910.00,51.525
911.00,51.509
912.00,51.480
913.00,51.456
914.00,51.485
915.00,51.447
916.00,51.427
917.00,51.423
918.00,51.406
919.00,51.365
920.00,51.335
921.00,51.360
922.00,51.336
923.00,51.306
924.00,51.266
925.00,51.304
926.00,51.270
927.00,51.260
928.00,51.214
929.00,51.228
930.00,51.185
931.00,51.180
932.00,51.133
933.00,51.173
934.00,51.146
935.00,51.104
936.00,51.096
937.00,51.074
938.00,51.014
939.00,51.076
940.00,51.029
941.00,51.021
942.00,51.002
943.00,51.011
944.00,50.994
945.00,50.978
946.00,50.971
947.00,50.921
948.00,50.885
949.00,50.887
950.00,50.872
951.00,50.825
952.00,50.866
953.00,50.867
954.00,50.783
955.00,50.753
956.00,50.735
957.00,50.715
958.00,50.715
959.00,50.657
960.00,50.653
961.00,50.669
962.00,50.658
963.00,50.622
964.00,50.616
965.00,50.599
966.00,50.606
967.00,50.586
968.00,50.569
969.00,50.598
970.00,50.552
971.00,50.555
972.00,50.518
973.00,50.566
974.00,50.581
975.00,50.547
976.00,50.566
977.00,50.573
978.00,50.591
979.00,50.561
980.00,50.601
981.00,50.588
982.00,50.560
983.00,50.584
984.00,50.541
985.00,50.580
986.00,50.513
987.00,50.554
988.00,50.517
989.00,50.503
990.00,50.492
991.00,50.503
992.00,50.498
993.00,50.454
994.00,50.466
995.00,50.429
996.00,50.436
997.00,50.426
998.00,50.394
999.00,50.414
1000.00,50.356
1001.00,50.375
1002.00,50.361
1003.00,50.318
1004.00,50.310
1005.00,50.290
1006.00,50.326
1007.00,50.316
1008.00,50.293
1009.00,50.257
1010.00,50.293
1011.00,50.286
1012.00,50.247
1013.00,50.269
1014.00,50.257
1015.00,50.220
1016.00,50.182
1017.00,50.166
1018.00,50.159
1019.00,50.112
1020.00,50.127
1021.00,50.109
1022.00,50.113
1023.00,50.083
1024.00,50.094
1025.00,50.057
1026.00,50.043
1027.00,50.041
1028.00,50.020
1029.00,50.035
1030.00,49.979
1031.00,49.994
1032.00,49.962
1033.00,49.943
1034.00,49.938
1035.00,49.903
1036.00,49.867
1037.00,49.862
1038.00,49.852
1039.00,49.818
1040.00,49.810
1041.00,49.778
1042.00,49.773
1043.00,49.757
1044.00,49.776
1045.00,49.748
1046.00,49.759
1047.00,49.765
1048.00,49.767
1049.00,49.803
1050.00,49.814
1051.00,49.848
1052.00,49.831
1053.00,49.859
1054.00,49.856
1055.00,49.877
1056.00,49.887
1057.00,49.898
1058.00,49.863
1059.00,49.863
1060.00,49.887
1061.00,49.850
1062.00,49.856
1063.00,49.859
1064.00,49.861
1065.00,49.850
1066.00,49.834
1067.00,49.842
1068.00,49.865
1069.00,49.807
1070.00,49.801
1071.00,49.805
1072.00,49.801
1073.00,49.789
1074.00,49.786
1075.00,49.759
1076.00,49.774
1077.00,49.748
1078.00,49.724
1079.00,49.715
1080.00,49.744
1081.00,49.751
1082.00,49.681
1083.00,49.679
1084.00,49.709
1085.00,49.788
1086.00,49.727
1087.00,49.694
1088.00,49.673
1089.00,49.660
1090.00,49.678
1091.00,49.662
1092.00,49.651
1093.00,49.652
1094.00,49.620
1095.00,49.627
1096.00,49.600
1097.00,49.607
1098.00,49.607
1099.00,49.591
1100.00,49.581
1101.00,49.579
1102.00,49.540
1103.00,49.549
1104.00,49.549
1105.00,49.523
1106.00,49.516
1107.00,49.516
1108.00,49.500
1109.00,49.510
1110.00,49.484
1111.00,49.476
1112.00,49.480
1113.00,49.462
1114.00,49.456
1115.00,49.468
1116.00,49.436
1117.00,49.422
1118.00,49.421
1119.00,49.425
1120.00,49.425
1121.00,49.437
1122.00,49.417
1123.00,49.400
1124.00,49.389
1125.00,49.398
1126.00,49.393
1127.00,49.383
1128.00,49.379
1129.00,49.399
1130.00,49.336
1131.00,49.347
1132.00,49.334
1133.00,49.334
1134.00,49.326
1135.00,49.300
1136.00,49.291
1137.00,49.313
1138.00,49.292
1139.00,49.314
1140.00,49.307
1141.00,49.296
1142.00,49.302
1143.00,49.298
1144.00,49.275
1145.00,49.282
1146.00,49.258
1147.00,49.261
1148.00,49.261
1149.00,49.274
1150.00,49.277
1151.00,49.286
1152.00,49.275
1153.00,49.275
1154.00,49.257
1155.00,49.275
1156.00,49.274
1157.00,49.259
1158.00,49.264
1159.00,49.264
1160.00,49.249
1161.00,49.273
1162.00,49.256
1163.00,49.251
1164.00,49.266
1165.00,49.260
1166.00,49.271
1167.00,49.266
1168.00,49.267
1169.00,49.256
1170.00,49.254
1171.00,49.226
1172.00,49.245
1173.00,49.236
1174.00,49.240
1175.00,49.244
1176.00,49.234
1177.00,49.238
1178.00,49.254
1179.00,49.258
1180.00,49.240
1181.00,49.261
1182.00,49.250
1183.00,49.227
1184.00,49.231
1185.00,49.262
1186.00,49.243
1187.00,49.240
1188.00,49.235
1189.00,49.241
1190.00,49.212
1191.00,49.203
1192.00,49.239
1193.00,49.215
1194.00,49.216
1195.00,49.191
1196.00,49.241
1197.00,49.237
1198.00,49.211
1199.00,49.227
1200.00,49.243
1201.00,49.252
1202.00,49.222
1203.00,49.231
1204.00,49.202
1205.00,49.229
1206.00,49.214
1207.00,49.221
1208.00,49.223
1209.00,49.241
1210.00,49.253
1211.00,49.245
1212.00,49.245
1213.00,49.208
1214.00,49.254
1215.00,49.215
1216.00,49.229
1217.00,49.232
1218.00,49.213
1219.00,49.251
1220.00,49.219
1221.00,49.243
1222.00,49.238
1223.00,49.241
1224.00,49.265
1225.00,49.254
1226.00,49.244
1227.00,49.246
1228.00,49.252
1229.00,49.268
1230.00,49.285
1231.00,49.279
1232.00,49.321
1233.00,49.321
1234.00,49.307
1235.00,49.299
1236.00,49.302
1237.00,49.299
1238.00,49.318
1239.00,49.322
1240.00,49.310
1241.00,49.331
1242.00,49.309
1243.00,49.330
1244.00,49.320
1245.00,49.344
1246.00,49.348
1247.00,49.338
1248.00,49.330
1249.00,49.355
1250.00,49.358
1251.00,49.344
1252.00,49.372
1253.00,49.341
1254.00,49.380
1255.00,49.369
1256.00,49.332
1257.00,49.333
1258.00,49.388
1259.00,49.379
1260.00,49.414
1261.00,49.395
1262.00,49.396
1263.00,49.399
1264.00,49.401
1265.00,49.416
1266.00,49.416
1267.00,49.418
1268.00,49.430
1269.00,49.436
1270.00,49.440
1271.00,49.466
1272.00,49.460
1273.00,49.462
1274.00,49.457
1275.00,49.457
1276.00,49.466
1277.00,49.492
1278.00,49.500
1279.00,49.488
1280.00,49.490
1281.00,49.492
1282.00,49.500
1283.00,49.559
1284.00,49.513
1285.00,49.511
1286.00,49.511
1287.00,49.513
1288.00,49.533
1289.00,49.498
1290.00,49.551
1291.00,49.566
1292.00,49.572
1293.00,49.571
1294.00,49.578
1295.00,49.590
1296.00,49.603
1297.00,49.599
1298.00,49.628
1299.00,49.606
1300.00,49.609
1301.00,49.620
1302.00,49.664
1303.00,49.638
1304.00,49.636
1305.00,49.662
1306.00,49.667
1307.00,49.682
1308.00,49.661
1309.00,49.689
1310.00,49.694
1311.00,49.667
1312.00,49.681
1313.00,49.718
1314.00,49.708
1315.00,49.721
1316.00,49.736
1317.00,49.768
1318.00,49.787
1319.00,49.763
1320.00,49.773
1321.00,49.952
1322.00,49.904
1323.00,49.910
1324.00,49.924
1325.00,49.893
1326.00,49.919
1327.00,49.893
1328.00,49.892
1329.00,49.915
1330.00,49.957
1331.00,49.885
1332.00,49.949
1333.00,49.920
1334.00,49.939
1335.00,50.000
1336.00,50.039
1337.00,49.987
1338.00,50.115
1339.00,50.139
1340.00,50.206
1341.00,50.270
1342.00,50.327
1343.00,50.370
1344.00,50.416
1345.00,50.476
1346.00,50.512
1347.00,50.541
1348.00,50.578
1349.00,50.621
1350.00,50.635
1351.00,50.618
1352.00,50.667
1353.00,50.634
1354.00,50.659
1355.00,50.642
1356.00,50.707
1357.00,50.687
1358.00,50.689
1359.00,50.702
1360.00,50.713
1361.00,50.714
1362.00,50.610
1363.00,50.798
1364.00,50.739
1365.00,50.688
1366.00,50.802
1367.00,50.712
1368.00,50.658
1369.00,50.726
1370.00,50.698
1371.00,50.630
1372.00,50.666
1373.00,50.706
1374.00,50.730
1375.00,50.682
1376.00,50.702
1377.00,50.716
1378.00,50.785
1379.00,50.729
1380.00,50.732
1381.00,50.802
1382.00,50.716
1383.00,50.729
1384.00,50.670
1385.00,50.696
1386.00,50.715
1387.00,50.680
1388.00,50.655
1389.00,50.684
1390.00,50.712
1391.00,50.687
1392.00,50.667
1393.00,50.750
1394.00,50.704
1395.00,50.611
1396.00,50.614
1397.00,50.709
1398.00,50.749
1399.00,50.675
1400.00,50.688
1401.00,50.680
1402.00,50.764
1403.00,50.718
1404.00,50.722
1405.00,50.750
1406.00,50.765
1407.00,50.781
1408.00,50.748
1409.00,50.775
1410.00,50.822
1411.00,50.789
1412.00,50.932
1413.00,50.830
1414.00,50.796
1415.00,50.850
1416.00,50.856
1417.00,50.890
1418.00,50.850
1419.00,50.863
1420.00,50.894
1421.00,50.942
1422.00,50.916
1423.00,50.946
1424.00,50.939
1425.00,50.963
1426.00,50.983
1427.00,51.001
1428.00,50.998
1429.00,51.024
1430.00,51.027
1431.00,51.048
1432.00,51.066
1433.00,51.097
1434.00,51.101
1435.00,51.153
1436.00,51.162
1437.00,51.175
1438.00,51.188
1439.00,51.219
1440.00,51.219
1441.00,51.246
1442.00,51.266
1443.00,51.332
1444.00,51.376
1445.00,51.294
1446.00,51.327
1447.00,51.361
1448.00,51.401
1449.00,51.372
1450.00,51.391
1451.00,51.410
1452.00,51.435
1453.00,51.448
1454.00,51.458
1455.00,51.485
1456.00,51.512
1457.00,51.496
1458.00,51.534
1459.00,51.546
1460.00,51.560
1461.00,51.577
1462.00,51.620
1463.00,51.615
1464.00,51.642
1465.00,51.651
1466.00,51.660
1467.00,51.702
1468.00,51.749
1469.00,51.704
1470.00,51.730
1471.00,51.738
1472.00,51.763
1473.00,51.784
1474.00,51.800
1475.00,51.828
1476.00,51.821
1477.00,51.798
1478.00,51.854
1479.00,51.843
1480.00,51.856
1481.00,51.883
1482.00,51.915
1483.00,51.930
1484.00,51.936
1485.00,51.935
1486.00,51.959
1487.00,51.976
1488.00,52.003
1489.00,52.006
1490.00,52.017
1491.00,52.034
1492.00,52.070
1493.00,52.046
1494.00,52.100
1495.00,52.083
1496.00,52.113
1497.00,52.109
1498.00,52.124
1499.00,52.138
1500.00,52.167
1501.00, 
1502.00, 
1503.00, 
1504.00, 
1505.00, 
1506.00, 
1507.00, 
1508.00, 
1509.00, 
1510.00, 
1511.00, 
1512.00, 
1513.00, 
1514.00, 
1515.00, 
1516.00, 
1517.00, 
1518.00, 
1519.00, 
1520.00, 
1521.00, 
1522.00, 
1523.00, 
1524.00, 
1525.00, 
1526.00, 
1527.00, 
1528.00, 
1529.00, 
1530.00, 
1531.00, 
1532.00, 
1533.00, 
1534.00, 
1535.00, 
1536.00, 
1537.00, 
1538.00, 
1539.00, 
1540.00, 
1541.00, 
1542.00, 
1543.00, 
1544.00, 
1545.00, 
1546.00, 
1547.00, 
1548.00, 
1549.00, 
1550.00, 
1551.00, 
1552.00, 
1553.00, 
1554.00, 
1555.00, 
1556.00, 
1557.00, 
1558.00, 
1559.00, 
1560.00, 
1561.00, 
1562.00, 
1563.00, 
1564.00, 
1565.00, 
1566.00, 
1567.00, 
1568.00, 
1569.00, 
1570.00, 
1571.00, 
1572.00, 
1573.00, 
1574.00, 
1575.00, 
1576.00, 
1577.00, 
1578.00, 
1579.00, 
1580.00, 
1581.00, 
1582.00, 
1583.00, 
1584.00, 
1585.00, 
1586.00, 
1587.00, 
1588.00, 
1589.00, 
1590.00, 
1591.00, 
1592.00, 
1593.00, 
1594.00, 
1595.00, 
1596.00, 
1597.00, 
1598.00, 
1599.00, 
1600.00, 
1601.00, 
1602.00, 
1603.00, 
1604.00, 
1605.00, 
1606.00, 
1607.00, 
1608.00, 
1609.00, 
1610.00, 
1611.00, 
1612.00, 
1613.00, 
1614.00, 
1615.00, 
1616.00, 
1617.00, 
1618.00, 
1619.00, 
1620.00, 
1621.00, 
1622.00, 
1623.00, 
1624.00, 
1625.00, 
1626.00, 
1627.00, 
1628.00, 
1629.00, 
1630.00, 
1631.00, 
1632.00, 
1633.00, 
1634.00, 
1635.00, 
1636.00, 
1637.00, 
1638.00, 
1639.00, 
1640.00, 
1641.00, 
1642.00, 
1643.00, 
1644.00, 
1645.00, 
1646.00, 
1647.00, 
1648.00, 
1649.00, 
1650.00, 
1651.00, 
1652.00, 
1653.00, 
1654.00, 
1655.00, 
1656.00, 
1657.00, 
1658.00, 
1659.00, 
1660.00, 
1661.00, 
1662.00, 
1663.00, 
1664.00, 
1665.00, 
1666.00, 
1667.00, 
1668.00, 
1669.00, 
1670.00, 
1671.00, 
1672.00, 
1673.00, 
1674.00, 
1675.00, 
1676.00, 
1677.00, 
1678.00, 
1679.00, 
1680.00, 
1681.00, 
1682.00, 
1683.00, 
1684.00, 
1685.00, 
1686.00, 
1687.00, 
1688.00, 
1689.00, 
1690.00, 
1691.00, 
1692.00, 
1693.00, 
1694.00, 
1695.00, 
1696.00, 
1697.00, 
1698.00, 
1699.00, 
1700.00, 
1701.00, 
1702.00, 
1703.00, 
1704.00, 
1705.00, 
1706.00, 
1707.00, 
1708.00, 
1709.00, 
1710.00, 
1711.00, 
1712.00, 
1713.00, 
1714.00, 
1715.00, 
1716.00, 
1717.00, 
1718.00, 
1719.00, 
1720.00, 
1721.00, 
1722.00, 
1723.00, 
1724.00, 
1725.00, 
1726.00, 
1727.00, 
1728.00, 
1729.00, 
1730.00, 
1731.00, 
1732.00, 
1733.00, 
1734.00, 
1735.00, 
1736.00, 
1737.00, 
1738.00, 
1739.00, 
1740.00, 
1741.00, 
1742.00, 
1743.00, 
1744.00, 
1745.00, 
1746.00, 
1747.00, 
1748.00, 
1749.00, 
1750.00, 
1751.00, 
1752.00, 
1753.00, 
1754.00, 
1755.00, 
1756.00, 
1757.00, 
1758.00, 
1759.00, 
1760.00, 
1761.00, 
1762.00, 
1763.00, 
1764.00, 
1765.00, 
1766.00, 
1767.00, 
1768.00, 
1769.00, 
1770.00, 
1771.00, 
1772.00, 
1773.00, 
1774.00, 
1775.00, 
1776.00, 
1777.00, 
1778.00, 
1779.00, 
1780.00, 
1781.00, 
1782.00, 
1783.00, 
1784.00, 
1785.00, 
1786.00, 
1787.00, 
1788.00, 
1789.00, 
1790.00, 
1791.00, 
1792.00, 
1793.00, 
1794.00, 
1795.00, 
1796.00, 
1797.00, 
1798.00, 
1799.00, 
1800.00, 
1801.00, 
1802.00, 
1803.00, 
1804.00, 
1805.00, 
1806.00, 
1807.00, 
1808.00, 
1809.00, 
1810.00, 
1811.00, 
1812.00, 
1813.00, 
1814.00, 
1815.00, 
1816.00, 
1817.00, 
1818.00, 
1819.00, 
1820.00, 
1821.00, 
1822.00, 
1823.00, 
1824.00, 
1825.00, 
1826.00, 
1827.00, 
1828.00, 
1829.00, 
1830.00, 
1831.00, 
1832.00, 
1833.00, 
1834.00, 
1835.00, 
1836.00, 
1837.00, 
1838.00, 
1839.00, 
1840.00, 
1841.00, 
1842.00, 
1843.00, 
1844.00, 
1845.00, 
1846.00, 
1847.00, 
1848.00, 
1849.00, 
1850.00, 
1851.00, 
1852.00, 
1853.00, 
1854.00, 
1855.00, 
1856.00, 
1857.00, 
1858.00, 
1859.00, 
1860.00, 
1861.00, 
1862.00, 
1863.00, 
1864.00, 
1865.00, 
1866.00, 
1867.00, 
1868.00, 
1869.00, 
1870.00, 
1871.00, 
1872.00, 
1873.00, 
1874.00, 
1875.00, 
1876.00, 
1877.00, 
1878.00, 
1879.00, 
1880.00, 
1881.00, 
1882.00, 
1883.00, 
1884.00, 
1885.00, 
1886.00, 
1887.00, 
1888.00, 
1889.00, 
1890.00, 
1891.00, 
1892.00, 
1893.00, 
1894.00, 
1895.00, 
1896.00, 
1897.00, 
1898.00, 
1899.00, 
1900.00, 
1901.00, 
1902.00, 
1903.00, 
1904.00, 
1905.00, 
1906.00, 
1907.00, 
1908.00, 
1909.00, 
1910.00, 
1911.00, 
1912.00, 
1913.00, 
1914.00, 
1915.00, 
1916.00, 
1917.00, 
1918.00, 
1919.00, 
1920.00, 
1921.00, 
1922.00, 
1923.00, 
1924.00, 
1925.00, 
1926.00, 
1927.00, 
1928.00, 
1929.00, 
1930.00, 
1931.00, 
1932.00, 
1933.00, 
1934.00, 
1935.00, 
1936.00, 
1937.00, 
1938.00, 
1939.00, 
1940.00, 
1941.00, 
1942.00, 
1943.00, 
1944.00, 
1945.00, 
1946.00, 
1947.00, 
1948.00, 
1949.00, 
1950.00, 
1951.00, 
1952.00, 
1953.00, 
1954.00, 
1955.00, 
1956.00, 
1957.00, 
1958.00, 
1959.00, 
1960.00, 
1961.00, 
1962.00, 
1963.00, 
1964.00, 
1965.00, 
1966.00, 
1967.00, 
1968.00, 
1969.00, 
1970.00, 
1971.00, 
1972.00, 
1973.00, 
1974.00, 
1975.00, 
1976.00, 
1977.00, 
1978.00, 
1979.00, 
1980.00, 
1981.00, 
1982.00, 
1983.00, 
1984.00, 
1985.00, 
1986.00, 
1987.00, 
1988.00, 
1989.00, 
1990.00, 
1991.00, 
1992.00, 
1993.00, 
1994.00, 
1995.00, 
1996.00, 
1997.00, 
1998.00, 
1999.00, 
2000.00, 
2001.00, 
2002.00, 
2003.00, 
2004.00, 
2005.00, 
2006.00, 
2007.00, 
2008.00, 
2009.00, 
2010.00, 
2011.00, 
2012.00, 
2013.00, 
2014.00, 
2015.00, 
2016.00, 
2017.00, 
2018.00, 
2019.00, 
2020.00, 
2021.00, 
2022.00, 
2023.00, 
2024.00, 
2025.00, 
2026.00, 
2027.00, 
2028.00, 
2029.00, 
2030.00, 
2031.00, 
2032.00, 
2033.00, 
2034.00, 
2035.00, 
2036.00, 
2037.00, 
2038.00, 
2039.00, 
2040.00, 
2041.00, 
2042.00, 
2043.00, 
2044.00, 
2045.00, 
2046.00, 
2047.00, 
2048.00, 
2049.00, 
2050.00, 
2051.00, 
2052.00, 
2053.00, 
2054.00, 
2055.00, 
2056.00, 
2057.00, 
2058.00, 
2059.00, 
2060.00, 
2061.00, 
2062.00, 
2063.00, 
2064.00, 
2065.00, 
2066.00, 
2067.00, 
2068.00, 
2069.00, 
2070.00, 
2071.00, 
2072.00, 
2073.00, 
2074.00, 
2075.00, 
2076.00, 
2077.00, 
2078.00, 
2079.00, 
2080.00, 
2081.00, 
2082.00, 
2083.00, 
2084.00, 
2085.00, 
2086.00, 
2087.00, 
2088.00, 
2089.00, 
2090.00, 
2091.00, 
2092.00, 
2093.00, 
2094.00, 
2095.00, 
2096.00, 
2097.00, 
2098.00, 
2099.00, 
2100.00, 
2101.00, 
2102.00, 
2103.00, 
2104.00, 
2105.00, 
2106.00, 
2107.00, 
2108.00, 
2109.00, 
2110.00, 
2111.00, 
2112.00, 
2113.00, 
2114.00, 
2115.00, 
2116.00, 
2117.00, 
2118.00, 
2119.00, 
2120.00, 
2121.00, 
2122.00, 
2123.00, 
2124.00, 
2125.00, 
2126.00, 
2127.00, 
2128.00, 
2129.00, 
2130.00, 
2131.00, 
2132.00, 
2133.00, 
2134.00, 
2135.00, 
2136.00, 
2137.00, 
2138.00, 
2139.00, 
2140.00, 
2141.00, 
2142.00, 
2143.00, 
2144.00, 
2145.00, 
2146.00, 
2147.00, 
2148.00, 
2149.00, 
2150.00, 
2151.00, 
2152.00, 
2153.00, 
2154.00, 
2155.00, 
2156.00, 
2157.00, 
2158.00, 
2159.00, 
2160.00, 
2161.00, 
2162.00, 
2163.00, 
2164.00, 
2165.00, 
2166.00, 
2167.00, 
2168.00, 
2169.00, 
2170.00, 
2171.00, 
2172.00, 
2173.00, 
2174.00, 
2175.00, 
2176.00, 
2177.00, 
2178.00, 
2179.00, 
2180.00, 
2181.00, 
2182.00, 
2183.00, 
2184.00, 
2185.00, 
2186.00, 
2187.00, 
2188.00, 
2189.00, 
2190.00, 
2191.00, 
2192.00, 
2193.00, 
2194.00, 
2195.00, 
2196.00, 
2197.00, 
2198.00, 
2199.00, 
2200.00, 
2201.00, 
2202.00, 
2203.00, 
2204.00, 
2205.00, 
2206.00, 
2207.00, 
2208.00, 
2209.00, 
2210.00, 
2211.00, 
2212.00, 
2213.00, 
2214.00, 
2215.00, 
2216.00, 
2217.00, 
2218.00, 
2219.00, 
2220.00, 
2221.00, 
2222.00, 
2223.00, 
2224.00, 
2225.00, 
2226.00, 
2227.00, 
2228.00, 
2229.00, 
2230.00, 
2231.00, 
2232.00, 
2233.00, 
2234.00, 
2235.00, 
2236.00, 
2237.00, 
2238.00, 
2239.00, 
2240.00, 
2241.00, 
2242.00, 
2243.00, 
2244.00, 
2245.00, 
2246.00, 
2247.00, 
2248.00, 
2249.00, 
2250.00, 
2251.00, 
2252.00, 
2253.00, 
2254.00, 
2255.00, 
2256.00, 
2257.00, 
2258.00, 
2259.00, 
2260.00, 
2261.00, 
2262.00, 
2263.00, 
2264.00, 
2265.00, 
2266.00, 
2267.00, 
2268.00, 
2269.00, 
2270.00, 
2271.00, 
2272.00, 
2273.00, 
2274.00, 
2275.00, 
2276.00, 
2277.00, 
2278.00, 
2279.00, 
2280.00, 
2281.00, 
2282.00, 
2283.00, 
2284.00, 
2285.00, 
2286.00, 
2287.00, 
2288.00, 
2289.00, 
2290.00, 
2291.00, 
2292.00, 
2293.00, 
2294.00, 
2295.00, 
2296.00, 
2297.00, 
2298.00, 
2299.00, 
2300.00, 
2301.00, 
2302.00, 
2303.00, 
2304.00, 
2305.00, 
2306.00, 
2307.00, 
2308.00, 
2309.00, 
2310.00, 
2311.00, 
2312.00, 
2313.00, 
2314.00, 
2315.00, 
2316.00, 
2317.00, 
2318.00, 
2319.00, 
2320.00, 
2321.00, 
2322.00, 
2323.00, 
2324.00, 
2325.00, 
2326.00, 
2327.00, 
2328.00, 
2329.00, 
2330.00, 
2331.00, 
2332.00, 
2333.00, 
2334.00, 
2335.00, 
2336.00, 
2337.00, 
2338.00, 
2339.00, 
2340.00, 
2341.00, 
2342.00, 
2343.00, 
2344.00, 
2345.00, 
2346.00, 
2347.00, 
2348.00, 
2349.00, 
2350.00, 
2351.00, 
2352.00, 
2353.00, 
2354.00, 
2355.00, 
2356.00, 
2357.00, 
2358.00, 
2359.00, 
2360.00, 
2361.00, 
2362.00, 
2363.00, 
2364.00, 
2365.00, 
2366.00, 
2367.00, 
2368.00, 
2369.00, 
2370.00, 
2371.00, 
2372.00, 
2373.00, 
2374.00, 
2375.00, 
2376.00, 
2377.00, 
2378.00, 
2379.00, 
2380.00, 
2381.00, 
2382.00, 
2383.00, 
2384.00, 
2385.00, 
2386.00, 
2387.00, 
2388.00, 
2389.00, 
2390.00, 
2391.00, 
2392.00, 
2393.00, 
2394.00, 
2395.00, 
2396.00, 
2397.00, 
2398.00, 
2399.00, 
2400.00, 
2401.00, 
2402.00, 
2403.00, 
2404.00, 
2405.00, 
2406.00, 
2407.00, 
2408.00, 
2409.00, 
2410.00, 
2411.00, 
2412.00, 
2413.00, 
2414.00, 
2415.00, 
2416.00, 
2417.00, 
2418.00, 
2419.00, 
2420.00, 
2421.00, 
2422.00, 
2423.00, 
2424.00, 
2425.00, 
2426.00, 
2427.00, 
2428.00, 
2429.00, 
2430.00, 
2431.00, 
2432.00, 
2433.00, 
2434.00, 
2435.00, 
2436.00, 
2437.00, 
2438.00, 
2439.00, 
2440.00, 
2441.00, 
2442.00, 
2443.00, 
2444.00, 
2445.00, 
2446.00, 
2447.00, 
2448.00, 
2449.00, 
2450.00, 
2451.00, 
2452.00, 
2453.00, 
2454.00, 
2455.00, 
2456.00, 
2457.00, 
2458.00, 
2459.00, 
2460.00, 
2461.00, 
2462.00, 
2463.00, 
2464.00, 
2465.00, 
2466.00, 
2467.00, 
2468.00, 
2469.00, 
2470.00, 
2471.00, 
2472.00, 
2473.00, 
2474.00, 
2475.00, 
2476.00, 
2477.00, 
2478.00, 
2479.00, 
2480.00, 
2481.00, 
2482.00, 
2483.00, 
2484.00, 
2485.00, 
2486.00, 
2487.00, 
2488.00, 
2489.00, 
2490.00, 
2491.00, 
2492.00, 
2493.00, 
2494.00, 
2495.00, 
2496.00, 
2497.00, 
2498.00, 
2499.00, 
2500.00, 
2501.00, 
2502.00, 
2503.00, 
2504.00, 
2505.00, 
2506.00, 
2507.00, 
2508.00, 
2509.00, 
2510.00, 
2511.00, 
2512.00, 
2513.00, 
2514.00, 
2515.00, 
2516.00, 
2517.00, 
2518.00, 
2519.00, 
2520.00, 
2521.00, 
2522.00, 
2523.00, 
2524.00, 
2525.00, 
2526.00, 
2527.00, 
2528.00, 
2529.00, 
2530.00, 
2531.00, 
2532.00, 
2533.00, 
2534.00, 
2535.00, 
2536.00, 
2537.00, 
2538.00, 
2539.00, 
2540.00, 
2541.00, 
2542.00, 
2543.00, 
2544.00, 
2545.00, 
2546.00, 
2547.00, 
2548.00, 
2549.00, 
2550.00, 
2551.00, 
2552.00, 
2553.00, 
2554.00, 
2555.00, 
2556.00, 
2557.00, 
2558.00, 
2559.00, 
2560.00, 
2561.00, 
2562.00, 
2563.00, 
2564.00, 
2565.00, 
2566.00, 
2567.00, 
2568.00, 
2569.00, 
2570.00, 
2571.00, 
2572.00, 
2573.00, 
2574.00, 
2575.00, 
2576.00, 
2577.00, 
2578.00, 
2579.00, 
2580.00, 
2581.00, 
2582.00, 
2583.00, 
2584.00, 
2585.00, 
2586.00, 
2587.00, 
2588.00, 
2589.00, 
2590.00, 
2591.00, 
2592.00, 
2593.00, 
2594.00, 
2595.00, 
2596.00, 
2597.00, 
2598.00, 
2599.00, 
2600.00, 
