"1cP5 - RawData"
"Wavelength nm.","T%"
200.00,0.003
201.00,0.000
202.00,0.001
203.00,0.004
204.00,0.002
205.00,0.000
206.00,-0.002
207.00,-0.004
208.00,-0.000
209.00,0.001
210.00,0.001
211.00,0.002
212.00,-0.001
213.00,-0.001
214.00,-0.000
215.00,0.000
216.00,0.001
217.00,-0.002
218.00,0.001
219.00,0.002
220.00,0.003
221.00,-0.000
222.00,-0.002
223.00,-0.001
224.00,0.000
225.00,-0.000
226.00,0.001
227.00,0.002
228.00,0.000
229.00,0.001
230.00,-0.002
231.00,0.001
232.00,0.001
233.00,0.001
234.00,0.001
235.00,0.001
236.00,0.001
237.00,0.001
238.00,0.001
239.00,0.001
240.00,-0.001
241.00,0.001
242.00,0.000
243.00,0.002
244.00,0.001
245.00,0.000
246.00,0.002
247.00,0.001
248.00,-0.001
249.00,-0.002
250.00,0.000
251.00,0.001
252.00,-0.000
253.00,0.000
254.00,-0.000
255.00,-0.001
256.00,-0.001
257.00,0.000
258.00,-0.001
259.00,0.001
260.00,0.001
261.00,0.001
262.00,-0.001
263.00,-0.001
264.00,-0.002
265.00,-0.002
266.00,0.000
267.00,-0.001
268.00,0.001
269.00,-0.001
270.00,0.002
271.00,0.001
272.00,-0.000
273.00,-0.001
274.00,-0.000
275.00,0.000
276.00,0.001
277.00,-0.001
278.00,-0.001
279.00,-0.000
280.00,0.001
281.00,-0.000
282.00,0.000
283.00,-0.001
284.00,0.001
285.00,0.001
286.00,0.000
287.00,-0.001
288.00,-0.001
289.00,0.003
290.00,0.001
291.00,0.001
292.00,0.000
293.00,0.001
294.00,-0.001
295.00,0.000
296.00,0.001
297.00,0.002
298.00,0.001
299.00,-0.000
300.00,0.001
301.00,0.000
302.00,0.001
303.00,0.001
304.00,-0.000
305.00,0.002
306.00,0.001
307.00,0.002
308.00,0.005
309.00,0.009
310.00,0.012
311.00,0.019
312.00,0.031
313.00,0.046
314.00,0.066
315.00,0.101
316.00,0.140
317.00,0.194
318.00,0.259
319.00,0.339
320.00,0.473
321.00,0.616
322.00,0.787
323.00,0.979
324.00,1.215
325.00,1.461
326.00,1.732
327.00,2.046
328.00,2.401
329.00,2.752
330.00,3.150
331.00,3.554
332.00,3.996
333.00,4.459
334.00,4.910
335.00,5.392
336.00,5.859
337.00,6.362
338.00,6.820
339.00,7.284
340.00,7.755
341.00,8.216
342.00,8.651
343.00,9.054
344.00,9.474
345.00,9.866
346.00,10.214
347.00,10.562
348.00,10.908
349.00,11.167
350.00,11.491
351.00,11.753
352.00,11.973
353.00,12.214
354.00,12.449
355.00,12.631
356.00,12.824
357.00,12.970
358.00,13.148
359.00,13.298
360.00,13.470
361.00,13.529
362.00,13.648
363.00,13.733
364.00,13.771
365.00,13.838
366.00,13.887
367.00,13.921
368.00,13.932
369.00,13.946
370.00,13.970
371.00,13.955
372.00,13.903
373.00,13.910
374.00,13.871
375.00,13.793
376.00,13.742
377.00,13.644
378.00,13.558
379.00,13.492
380.00,13.461
381.00,13.424
382.00,13.384
383.00,13.384
384.00,13.384
385.00,13.414
386.00,13.382
387.00,13.421
388.00,13.460
389.00,13.430
390.00,13.467
391.00,13.481
392.00,13.468
393.00,13.458
394.00,13.469
395.00,13.442
396.00,13.421
397.00,13.423
398.00,13.415
399.00,13.397
400.00,13.387
401.00,13.356
402.00,13.393
403.00,13.369
404.00,13.336
405.00,13.319
406.00,13.321
407.00,13.247
408.00,13.221
409.00,13.187
410.00,13.147
411.00,13.180
412.00,13.128
413.00,13.105
414.00,13.104
415.00,13.098
416.00,13.135
417.00,13.118
418.00,13.138
419.00,13.205
420.00,13.235
421.00,13.172
422.00,13.187
423.00,13.233
424.00,13.250
425.00,13.266
426.00,13.280
427.00,13.332
428.00,13.348
429.00,13.372
430.00,13.420
431.00,13.483
432.00,13.503
433.00,13.557
434.00,13.598
435.00,13.647
436.00,13.711
437.00,13.780
438.00,13.814
439.00,13.859
440.00,13.936
441.00,14.000
442.00,14.085
443.00,14.155
444.00,14.233
445.00,14.311
446.00,14.391
447.00,14.465
448.00,14.553
449.00,14.656
450.00,14.772
451.00,14.856
452.00,14.924
453.00,15.043
454.00,15.102
455.00,15.238
456.00,15.352
457.00,15.473
458.00,15.541
459.00,15.654
460.00,15.774
461.00,15.922
462.00,16.024
463.00,16.175
464.00,16.286
465.00,16.418
466.00,16.549
467.00,16.674
468.00,16.763
469.00,16.885
470.00,16.990
471.00,17.111
472.00,17.226
473.00,17.313
474.00,17.449
475.00,17.592
476.00,17.676
477.00,17.847
478.00,17.956
479.00,18.144
480.00,18.267
481.00,18.384
482.00,18.534
483.00,18.704
484.00,18.856
485.00,19.018
486.00,19.141
487.00,19.295
488.00,19.452
489.00,19.623
490.00,19.764
491.00,19.916
492.00,20.068
493.00,20.275
494.00,20.429
495.00,20.453
496.00,20.586
497.00,20.722
498.00,20.875
499.00,21.008
500.00,21.149
501.00,21.297
502.00,21.353
503.00,21.577
504.00,21.665
505.00,21.797
506.00,21.924
507.00,22.066
508.00,22.185
509.00,22.372
510.00,22.490
511.00,22.593
512.00,22.809
513.00,22.902
514.00,23.022
515.00,23.205
516.00,23.298
517.00,23.406
518.00,23.582
519.00,23.657
520.00,23.749
521.00,23.850
522.00,24.000
523.00,24.065
524.00,24.179
525.00,24.341
526.00,24.424
527.00,24.508
528.00,24.611
529.00,24.801
530.00,24.957
531.00,25.022
532.00,25.129
533.00,25.233
534.00,25.360
535.00,25.417
536.00,25.522
537.00,25.623
538.00,25.709
539.00,25.752
540.00,25.876
541.00,25.962
542.00,25.993
543.00,26.084
544.00,26.179
545.00,26.274
546.00,26.332
547.00,26.448
548.00,26.517
549.00,26.576
550.00,26.675
551.00,26.775
552.00,26.884
553.00,26.931
554.00,27.009
555.00,27.047
556.00,27.145
557.00,27.199
558.00,27.237
559.00,27.338
560.00,27.401
561.00,27.445
562.00,27.557
563.00,27.590
564.00,27.625
565.00,27.673
566.00,27.769
567.00,27.734
568.00,27.844
569.00,27.939
570.00,27.979
571.00,27.990
572.00,28.035
573.00,28.061
574.00,28.111
575.00,28.121
576.00,28.166
577.00,28.220
578.00,28.340
579.00,28.402
580.00,28.433
581.00,28.565
582.00,28.619
583.00,28.651
584.00,28.774
585.00,28.824
586.00,28.876
587.00,28.945
588.00,28.935
589.00,28.922
590.00,29.028
591.00,29.072
592.00,29.087
593.00,29.149
594.00,29.237
595.00,29.261
596.00,29.343
597.00,29.395
598.00,29.533
599.00,29.533
600.00,29.571
601.00,29.666
602.00,29.665
603.00,29.720
604.00,29.796
605.00,29.831
606.00,29.932
607.00,29.991
608.00,30.045
609.00,30.039
610.00,30.161
611.00,30.353
612.00,30.219
613.00,30.245
614.00,30.305
615.00,30.373
616.00,30.525
617.00,30.495
618.00,30.482
619.00,30.566
620.00,30.619
621.00,30.804
622.00,30.902
623.00,30.955
624.00,31.024
625.00,31.121
626.00,31.195
627.00,31.200
628.00,31.332
629.00,31.379
630.00,31.384
631.00,31.460
632.00,31.620
633.00,31.696
634.00,31.825
635.00,31.907
636.00,31.920
637.00,31.961
638.00,32.196
639.00,32.365
640.00,32.412
641.00,32.407
642.00,32.574
643.00,32.631
644.00,32.720
645.00,32.828
646.00,33.036
647.00,33.101
648.00,33.191
649.00,33.211
650.00,33.279
651.00,33.511
652.00,33.597
653.00,33.647
654.00,33.768
655.00,33.953
656.00,34.240
657.00,34.174
658.00,34.265
659.00,34.385
660.00,34.507
661.00,34.633
662.00,34.711
663.00,34.878
664.00,35.084
665.00,35.311
666.00,35.257
667.00,35.493
668.00,35.509
669.00,35.654
670.00,36.032
671.00,35.910
672.00,36.114
673.00,36.267
674.00,36.318
675.00,36.507
676.00,36.701
677.00,36.890
678.00,36.710
679.00,36.962
680.00,37.156
681.00,37.391
682.00,37.474
683.00,37.487
684.00,37.727
685.00,37.890
686.00,37.821
687.00,37.975
688.00,38.161
689.00,38.179
690.00,38.503
691.00,38.755
692.00,38.662
693.00,38.678
694.00,38.943
695.00,39.109
696.00,39.248
697.00,39.327
698.00,39.440
699.00,39.685
700.00,39.838
701.00,39.876
702.00,40.086
703.00,40.288
704.00,40.321
705.00,40.415
706.00,40.501
707.00,40.683
708.00,40.518
709.00,40.980
710.00,41.479
711.00,40.983
712.00,41.156
713.00,41.349
714.00,41.529
715.00,41.651
716.00,41.592
717.00,41.844
718.00,42.047
719.00,42.070
720.00,42.154
721.00,46.379
722.00,46.360
723.00,46.506
724.00,46.575
725.00,46.649
726.00,46.737
727.00,46.810
728.00,46.859
729.00,46.916
730.00,47.044
731.00,47.099
732.00,47.200
733.00,47.345
734.00,47.325
735.00,47.485
736.00,47.497
737.00,47.554
738.00,47.718
739.00,47.803
740.00,47.827
741.00,47.951
742.00,47.945
743.00,47.979
744.00,48.081
745.00,48.122
746.00,48.168
747.00,48.203
748.00,48.271
749.00,48.337
750.00,48.373
751.00,48.374
752.00,48.510
753.00,48.493
754.00,48.517
755.00,48.521
756.00,48.630
757.00,48.680
758.00,48.722
759.00,48.773
760.00,48.764
761.00,48.827
762.00,48.938
763.00,49.017
764.00,48.989
765.00,48.992
766.00,49.100
767.00,49.090
768.00,49.126
769.00,49.080
770.00,49.273
771.00,49.255
772.00,49.291
773.00,49.351
774.00,49.406
775.00,49.438
776.00,49.392
777.00,49.577
778.00,49.500
779.00,49.568
780.00,49.526
781.00,49.589
782.00,49.666
783.00,49.556
784.00,49.649
785.00,49.604
786.00,49.711
787.00,49.679
788.00,49.741
789.00,49.787
790.00,49.745
791.00,49.858
792.00,49.724
793.00,49.816
794.00,49.776
795.00,49.770
796.00,49.838
797.00,49.778
798.00,49.840
799.00,49.818
800.00,49.825
801.00,49.924
802.00,49.748
803.00,49.832
804.00,49.818
805.00,49.900
806.00,49.788
807.00,49.901
808.00,49.886
809.00,49.819
810.00,49.876
811.00,49.861
812.00,49.836
813.00,49.867
814.00,49.936
815.00,49.938
816.00,49.812
817.00,49.817
818.00,49.851
819.00,49.839
820.00,49.790
821.00,49.799
822.00,49.824
823.00,49.819
824.00,49.858
825.00,49.862
826.00,49.796
827.00,49.835
828.00,49.848
829.00,49.860
830.00,49.966
831.00,52.313
832.00,52.331
833.00,52.259
834.00,52.312
835.00,52.264
836.00,52.262
837.00,52.252
838.00,52.248
839.00,52.224
840.00,52.188
841.00,52.212
842.00,52.209
843.00,52.224
844.00,52.237
845.00,52.191
846.00,52.223
847.00,52.152
848.00,52.155
849.00,52.095
850.00,52.088
851.00,52.027
852.00,52.095
853.00,52.017
854.00,51.986
855.00,51.980
856.00,51.971
857.00,51.979
858.00,51.947
859.00,51.935
860.00,51.973
861.00,51.950
862.00,51.915
863.00,51.905
864.00,51.890
865.00,51.898
866.00,51.894
867.00,51.887
868.00,51.874
869.00,51.891
870.00,51.873
871.00,51.855
872.00,51.871
873.00,51.812
874.00,51.878
875.00,51.827
876.00,51.856
877.00,51.855
878.00,51.848
879.00,51.818
880.00,51.817
881.00,51.776
882.00,51.839
883.00,51.785
884.00,51.734
885.00,51.739
886.00,51.782
887.00,51.712
888.00,51.687
889.00,51.754
890.00,51.643
891.00,51.660
892.00,51.625
893.00,51.613
894.00,51.670
895.00,51.497
896.00,51.577
897.00,51.557
898.00,51.495
899.00,51.654
900.00,51.513
901.00,51.528
902.00,51.551
903.00,51.502
904.00,51.491
905.00,51.489
906.00,51.487
907.00,51.446
908.00,51.399
909.00,51.420
910.00,51.407
911.00,51.387
912.00,51.376
913.00,51.322
914.00,51.352
915.00,51.320
916.00,51.291
917.00,51.286
918.00,51.289
919.00,51.248
920.00,51.243
921.00,51.231
922.00,51.244
923.00,51.226
924.00,51.157
925.00,51.174
926.00,51.162
927.00,51.146
928.00,51.021
929.00,51.142
930.00,51.055
931.00,51.054
932.00,51.006
933.00,51.019
934.00,51.033
935.00,50.995
936.00,50.884
937.00,51.008
938.00,50.915
939.00,50.960
940.00,50.921
941.00,50.911
942.00,50.870
943.00,50.873
944.00,50.851
945.00,50.854
946.00,50.835
947.00,50.786
948.00,50.771
949.00,50.766
950.00,50.746
951.00,50.709
952.00,50.702
953.00,50.673
954.00,50.645
955.00,50.603
956.00,50.594
957.00,50.573
958.00,50.583
959.00,50.523
960.00,50.529
961.00,50.533
962.00,50.530
963.00,50.488
964.00,50.494
965.00,50.475
966.00,50.488
967.00,50.471
968.00,50.455
969.00,50.472
970.00,50.431
971.00,50.473
972.00,50.423
973.00,50.465
974.00,50.470
975.00,50.434
976.00,50.453
977.00,50.454
978.00,50.479
979.00,50.430
980.00,50.464
981.00,50.459
982.00,50.422
983.00,50.453
984.00,50.422
985.00,50.441
986.00,50.375
987.00,50.455
988.00,50.383
989.00,50.375
990.00,50.371
991.00,50.382
992.00,50.389
993.00,50.336
994.00,50.345
995.00,50.329
996.00,50.331
997.00,50.314
998.00,50.276
999.00,50.302
1000.00,50.255
1001.00,50.270
1002.00,50.263
1003.00,50.233
1004.00,50.224
1005.00,50.207
1006.00,50.234
1007.00,50.201
1008.00,50.185
1009.00,50.161
1010.00,50.170
1011.00,50.153
1012.00,50.122
1013.00,50.134
1014.00,50.088
1015.00,50.102
1016.00,50.073
1017.00,50.062
1018.00,50.062
1019.00,50.019
1020.00,50.027
1021.00,49.992
1022.00,49.992
1023.00,49.951
1024.00,49.957
1025.00,49.919
1026.00,49.905
1027.00,49.902
1028.00,49.883
1029.00,49.882
1030.00,49.884
1031.00,49.866
1032.00,49.839
1033.00,49.839
1034.00,49.812
1035.00,49.781
1036.00,49.757
1037.00,49.743
1038.00,49.740
1039.00,49.706
1040.00,49.693
1041.00,49.669
1042.00,49.653
1043.00,49.645
1044.00,49.675
1045.00,49.644
1046.00,49.654
1047.00,49.656
1048.00,49.673
1049.00,49.701
1050.00,49.691
1051.00,49.735
1052.00,49.714
1053.00,49.718
1054.00,49.706
1055.00,49.740
1056.00,49.748
1057.00,49.762
1058.00,49.737
1059.00,49.739
1060.00,49.763
1061.00,49.734
1062.00,49.729
1063.00,49.748
1064.00,49.736
1065.00,49.727
1066.00,49.712
1067.00,49.712
1068.00,49.726
1069.00,49.681
1070.00,49.664
1071.00,49.666
1072.00,49.681
1073.00,49.656
1074.00,49.656
1075.00,49.626
1076.00,49.647
1077.00,49.621
1078.00,49.591
1079.00,49.605
1080.00,49.599
1081.00,49.600
1082.00,49.606
1083.00,49.577
1084.00,49.590
1085.00,49.590
1086.00,49.566
1087.00,49.579
1088.00,49.565
1089.00,49.548
1090.00,49.557
1091.00,49.555
1092.00,49.527
1093.00,49.522
1094.00,49.492
1095.00,49.508
1096.00,49.488
1097.00,49.477
1098.00,49.475
1099.00,49.454
1100.00,49.440
1101.00,49.431
1102.00,49.413
1103.00,49.425
1104.00,49.417
1105.00,49.420
1106.00,49.414
1107.00,49.394
1108.00,49.372
1109.00,49.384
1110.00,49.377
1111.00,49.351
1112.00,49.347
1113.00,49.338
1114.00,49.348
1115.00,49.367
1116.00,49.344
1117.00,49.340
1118.00,49.336
1119.00,49.330
1120.00,49.316
1121.00,49.323
1122.00,49.287
1123.00,49.281
1124.00,49.279
1125.00,49.278
1126.00,49.268
1127.00,49.266
1128.00,49.261
1129.00,49.237
1130.00,49.212
1131.00,49.228
1132.00,49.218
1133.00,49.228
1134.00,49.223
1135.00,49.192
1136.00,49.192
1137.00,49.215
1138.00,49.199
1139.00,49.207
1140.00,49.216
1141.00,49.198
1142.00,49.188
1143.00,49.208
1144.00,49.180
1145.00,49.186
1146.00,49.173
1147.00,49.186
1148.00,49.169
1149.00,49.180
1150.00,49.182
1151.00,49.185
1152.00,49.167
1153.00,49.164
1154.00,49.161
1155.00,49.147
1156.00,49.142
1157.00,49.151
1158.00,49.145
1159.00,49.142
1160.00,49.125
1161.00,49.162
1162.00,49.146
1163.00,49.156
1164.00,49.172
1165.00,49.156
1166.00,49.141
1167.00,49.131
1168.00,49.140
1169.00,49.122
1170.00,49.122
1171.00,49.104
1172.00,49.117
1173.00,49.111
1174.00,49.113
1175.00,49.122
1176.00,49.120
1177.00,49.102
1178.00,49.105
1179.00,49.117
1180.00,49.117
1181.00,49.142
1182.00,49.122
1183.00,49.114
1184.00,49.106
1185.00,49.122
1186.00,49.120
1187.00,49.127
1188.00,49.115
1189.00,49.133
1190.00,49.114
1191.00,49.098
1192.00,49.134
1193.00,49.114
1194.00,49.116
1195.00,49.092
1196.00,49.146
1197.00,49.143
1198.00,49.098
1199.00,49.112
1200.00,49.127
1201.00,49.135
1202.00,49.095
1203.00,49.108
1204.00,49.080
1205.00,49.114
1206.00,49.117
1207.00,49.120
1208.00,49.118
1209.00,49.128
1210.00,49.123
1211.00,49.126
1212.00,49.127
1213.00,49.100
1214.00,49.136
1215.00,49.092
1216.00,49.132
1217.00,49.105
1218.00,49.090
1219.00,49.143
1220.00,49.106
1221.00,49.131
1222.00,49.133
1223.00,49.134
1224.00,49.139
1225.00,49.123
1226.00,49.112
1227.00,49.110
1228.00,49.136
1229.00,49.128
1230.00,49.167
1231.00,49.149
1232.00,49.174
1233.00,49.195
1234.00,49.186
1235.00,49.192
1236.00,49.195
1237.00,49.180
1238.00,49.186
1239.00,49.194
1240.00,49.171
1241.00,49.204
1242.00,49.192
1243.00,49.213
1244.00,49.193
1245.00,49.214
1246.00,49.221
1247.00,49.214
1248.00,49.200
1249.00,49.216
1250.00,49.228
1251.00,49.215
1252.00,49.236
1253.00,49.217
1254.00,49.252
1255.00,49.237
1256.00,49.213
1257.00,49.214
1258.00,49.274
1259.00,49.264
1260.00,49.291
1261.00,49.277
1262.00,49.274
1263.00,49.273
1264.00,49.277
1265.00,49.287
1266.00,49.288
1267.00,49.302
1268.00,49.303
1269.00,49.310
1270.00,49.327
1271.00,49.330
1272.00,49.353
1273.00,49.373
1274.00,49.361
1275.00,49.357
1276.00,49.342
1277.00,49.342
1278.00,49.356
1279.00,49.360
1280.00,49.359
1281.00,49.368
1282.00,49.371
1283.00,49.440
1284.00,49.411
1285.00,49.400
1286.00,49.404
1287.00,49.393
1288.00,49.405
1289.00,49.388
1290.00,49.433
1291.00,49.436
1292.00,49.427
1293.00,49.437
1294.00,49.456
1295.00,49.468
1296.00,49.467
1297.00,49.472
1298.00,49.499
1299.00,49.482
1300.00,49.496
1301.00,49.492
1302.00,49.526
1303.00,49.514
1304.00,49.513
1305.00,49.531
1306.00,49.541
1307.00,49.545
1308.00,49.547
1309.00,49.555
1310.00,49.574
1311.00,49.556
1312.00,49.562
1313.00,49.583
1314.00,49.585
1315.00,49.604
1316.00,49.608
1317.00,49.620
1318.00,49.627
1319.00,49.633
1320.00,49.630
1321.00,49.798
1322.00,49.786
1323.00,49.780
1324.00,49.787
1325.00,49.786
1326.00,49.790
1327.00,49.785
1328.00,49.763
1329.00,49.768
1330.00,49.787
1331.00,49.764
1332.00,49.786
1333.00,49.779
1334.00,49.806
1335.00,49.835
1336.00,49.859
1337.00,49.900
1338.00,49.975
1339.00,50.009
1340.00,50.067
1341.00,50.132
1342.00,50.185
1343.00,50.241
1344.00,50.290
1345.00,50.355
1346.00,50.378
1347.00,50.385
1348.00,50.409
1349.00,50.441
1350.00,50.457
1351.00,50.479
1352.00,50.513
1353.00,50.517
1354.00,50.506
1355.00,50.472
1356.00,50.559
1357.00,50.537
1358.00,50.544
1359.00,50.549
1360.00,50.575
1361.00,50.590
1362.00,50.491
1363.00,50.631
1364.00,50.635
1365.00,50.561
1366.00,50.667
1367.00,50.595
1368.00,50.558
1369.00,50.602
1370.00,50.537
1371.00,50.641
1372.00,50.521
1373.00,50.550
1374.00,50.576
1375.00,50.542
1376.00,50.558
1377.00,50.613
1378.00,50.642
1379.00,50.596
1380.00,50.608
1381.00,50.658
1382.00,50.552
1383.00,50.570
1384.00,50.508
1385.00,50.529
1386.00,50.556
1387.00,50.589
1388.00,50.512
1389.00,50.522
1390.00,50.501
1391.00,50.527
1392.00,50.533
1393.00,50.574
1394.00,50.557
1395.00,50.472
1396.00,50.469
1397.00,50.528
1398.00,50.567
1399.00,50.561
1400.00,50.549
1401.00,50.552
1402.00,50.613
1403.00,50.571
1404.00,50.600
1405.00,50.611
1406.00,50.640
1407.00,50.644
1408.00,50.613
1409.00,50.632
1410.00,50.656
1411.00,50.636
1412.00,50.720
1413.00,50.616
1414.00,50.644
1415.00,50.682
1416.00,50.709
1417.00,50.742
1418.00,50.715
1419.00,50.714
1420.00,50.754
1421.00,50.811
1422.00,50.773
1423.00,50.808
1424.00,50.801
1425.00,50.840
1426.00,50.849
1427.00,50.860
1428.00,50.872
1429.00,50.905
1430.00,50.888
1431.00,50.906
1432.00,50.933
1433.00,50.951
1434.00,50.951
1435.00,51.018
1436.00,51.002
1437.00,51.016
1438.00,51.033
1439.00,51.065
1440.00,51.067
1441.00,51.074
1442.00,51.101
1443.00,51.121
1444.00,51.150
1445.00,51.124
1446.00,51.169
1447.00,51.210
1448.00,51.281
1449.00,51.239
1450.00,51.251
1451.00,51.283
1452.00,51.300
1453.00,51.294
1454.00,51.324
1455.00,51.347
1456.00,51.361
1457.00,51.336
1458.00,51.390
1459.00,51.396
1460.00,51.411
1461.00,51.415
1462.00,51.468
1463.00,51.454
1464.00,51.460
1465.00,51.496
1466.00,51.479
1467.00,51.520
1468.00,51.587
1469.00,51.551
1470.00,51.597
1471.00,51.592
1472.00,51.605
1473.00,51.632
1474.00,51.632
1475.00,51.668
1476.00,51.662
1477.00,51.652
1478.00,51.712
1479.00,51.700
1480.00,51.700
1481.00,51.731
1482.00,51.756
1483.00,51.778
1484.00,51.790
1485.00,51.786
1486.00,51.803
1487.00,51.829
1488.00,51.847
1489.00,51.844
1490.00,51.863
1491.00,51.887
1492.00,51.921
1493.00,51.892
1494.00,51.949
1495.00,51.938
1496.00,51.964
1497.00,51.954
1498.00,51.983
1499.00,52.002
1500.00,52.008
1501.00, 
1502.00, 
1503.00, 
1504.00, 
1505.00, 
1506.00, 
1507.00, 
1508.00, 
1509.00, 
1510.00, 
1511.00, 
1512.00, 
1513.00, 
1514.00, 
1515.00, 
1516.00, 
1517.00, 
1518.00, 
1519.00, 
1520.00, 
1521.00, 
1522.00, 
1523.00, 
1524.00, 
1525.00, 
1526.00, 
1527.00, 
1528.00, 
1529.00, 
1530.00, 
1531.00, 
1532.00, 
1533.00, 
1534.00, 
1535.00, 
1536.00, 
1537.00, 
1538.00, 
1539.00, 
1540.00, 
1541.00, 
1542.00, 
1543.00, 
1544.00, 
1545.00, 
1546.00, 
1547.00, 
1548.00, 
1549.00, 
1550.00, 
1551.00, 
1552.00, 
1553.00, 
1554.00, 
1555.00, 
1556.00, 
1557.00, 
1558.00, 
1559.00, 
1560.00, 
1561.00, 
1562.00, 
1563.00, 
1564.00, 
1565.00, 
1566.00, 
1567.00, 
1568.00, 
1569.00, 
1570.00, 
1571.00, 
1572.00, 
1573.00, 
1574.00, 
1575.00, 
1576.00, 
1577.00, 
1578.00, 
1579.00, 
1580.00, 
1581.00, 
1582.00, 
1583.00, 
1584.00, 
1585.00, 
1586.00, 
1587.00, 
1588.00, 
1589.00, 
1590.00, 
1591.00, 
1592.00, 
1593.00, 
1594.00, 
1595.00, 
1596.00, 
1597.00, 
1598.00, 
1599.00, 
1600.00, 
1601.00, 
1602.00, 
1603.00, 
1604.00, 
1605.00, 
1606.00, 
1607.00, 
1608.00, 
1609.00, 
1610.00, 
1611.00, 
1612.00, 
1613.00, 
1614.00, 
1615.00, 
1616.00, 
1617.00, 
1618.00, 
1619.00, 
1620.00, 
1621.00, 
1622.00, 
1623.00, 
1624.00, 
1625.00, 
1626.00, 
1627.00, 
1628.00, 
1629.00, 
1630.00, 
1631.00, 
1632.00, 
1633.00, 
1634.00, 
1635.00, 
1636.00, 
1637.00, 
1638.00, 
1639.00, 
1640.00, 
1641.00, 
1642.00, 
1643.00, 
1644.00, 
1645.00, 
1646.00, 
1647.00, 
1648.00, 
1649.00, 
1650.00, 
1651.00, 
1652.00, 
1653.00, 
1654.00, 
1655.00, 
1656.00, 
1657.00, 
1658.00, 
1659.00, 
1660.00, 
1661.00, 
1662.00, 
1663.00, 
1664.00, 
1665.00, 
1666.00, 
1667.00, 
1668.00, 
1669.00, 
1670.00, 
1671.00, 
1672.00, 
1673.00, 
1674.00, 
1675.00, 
1676.00, 
1677.00, 
1678.00, 
1679.00, 
1680.00, 
1681.00, 
1682.00, 
1683.00, 
1684.00, 
1685.00, 
1686.00, 
1687.00, 
1688.00, 
1689.00, 
1690.00, 
1691.00, 
1692.00, 
1693.00, 
1694.00, 
1695.00, 
1696.00, 
1697.00, 
1698.00, 
1699.00, 
1700.00, 
1701.00, 
1702.00, 
1703.00, 
1704.00, 
1705.00, 
1706.00, 
1707.00, 
1708.00, 
1709.00, 
1710.00, 
1711.00, 
1712.00, 
1713.00, 
1714.00, 
1715.00, 
1716.00, 
1717.00, 
1718.00, 
1719.00, 
1720.00, 
1721.00, 
1722.00, 
1723.00, 
1724.00, 
1725.00, 
1726.00, 
1727.00, 
1728.00, 
1729.00, 
1730.00, 
1731.00, 
1732.00, 
1733.00, 
1734.00, 
1735.00, 
1736.00, 
1737.00, 
1738.00, 
1739.00, 
1740.00, 
1741.00, 
1742.00, 
1743.00, 
1744.00, 
1745.00, 
1746.00, 
1747.00, 
1748.00, 
1749.00, 
1750.00, 
1751.00, 
1752.00, 
1753.00, 
1754.00, 
1755.00, 
1756.00, 
1757.00, 
1758.00, 
1759.00, 
1760.00, 
1761.00, 
1762.00, 
1763.00, 
1764.00, 
1765.00, 
1766.00, 
1767.00, 
1768.00, 
1769.00, 
1770.00, 
1771.00, 
1772.00, 
1773.00, 
1774.00, 
1775.00, 
1776.00, 
1777.00, 
1778.00, 
1779.00, 
1780.00, 
1781.00, 
1782.00, 
1783.00, 
1784.00, 
1785.00, 
1786.00, 
1787.00, 
1788.00, 
1789.00, 
1790.00, 
1791.00, 
1792.00, 
1793.00, 
1794.00, 
1795.00, 
1796.00, 
1797.00, 
1798.00, 
1799.00, 
1800.00, 
1801.00, 
1802.00, 
1803.00, 
1804.00, 
1805.00, 
1806.00, 
1807.00, 
1808.00, 
1809.00, 
1810.00, 
1811.00, 
1812.00, 
1813.00, 
1814.00, 
1815.00, 
1816.00, 
1817.00, 
1818.00, 
1819.00, 
1820.00, 
1821.00, 
1822.00, 
1823.00, 
1824.00, 
1825.00, 
1826.00, 
1827.00, 
1828.00, 
1829.00, 
1830.00, 
1831.00, 
1832.00, 
1833.00, 
1834.00, 
1835.00, 
1836.00, 
1837.00, 
1838.00, 
1839.00, 
1840.00, 
1841.00, 
1842.00, 
1843.00, 
1844.00, 
1845.00, 
1846.00, 
1847.00, 
1848.00, 
1849.00, 
1850.00, 
1851.00, 
1852.00, 
1853.00, 
1854.00, 
1855.00, 
1856.00, 
1857.00, 
1858.00, 
1859.00, 
1860.00, 
1861.00, 
1862.00, 
1863.00, 
1864.00, 
1865.00, 
1866.00, 
1867.00, 
1868.00, 
1869.00, 
1870.00, 
1871.00, 
1872.00, 
1873.00, 
1874.00, 
1875.00, 
1876.00, 
1877.00, 
1878.00, 
1879.00, 
1880.00, 
1881.00, 
1882.00, 
1883.00, 
1884.00, 
1885.00, 
1886.00, 
1887.00, 
1888.00, 
1889.00, 
1890.00, 
1891.00, 
1892.00, 
1893.00, 
1894.00, 
1895.00, 
1896.00, 
1897.00, 
1898.00, 
1899.00, 
1900.00, 
1901.00, 
1902.00, 
1903.00, 
1904.00, 
1905.00, 
1906.00, 
1907.00, 
1908.00, 
1909.00, 
1910.00, 
1911.00, 
1912.00, 
1913.00, 
1914.00, 
1915.00, 
1916.00, 
1917.00, 
1918.00, 
1919.00, 
1920.00, 
1921.00, 
1922.00, 
1923.00, 
1924.00, 
1925.00, 
1926.00, 
1927.00, 
1928.00, 
1929.00, 
1930.00, 
1931.00, 
1932.00, 
1933.00, 
1934.00, 
1935.00, 
1936.00, 
1937.00, 
1938.00, 
1939.00, 
1940.00, 
1941.00, 
1942.00, 
1943.00, 
1944.00, 
1945.00, 
1946.00, 
1947.00, 
1948.00, 
1949.00, 
1950.00, 
1951.00, 
1952.00, 
1953.00, 
1954.00, 
1955.00, 
1956.00, 
1957.00, 
1958.00, 
1959.00, 
1960.00, 
1961.00, 
1962.00, 
1963.00, 
1964.00, 
1965.00, 
1966.00, 
1967.00, 
1968.00, 
1969.00, 
1970.00, 
1971.00, 
1972.00, 
1973.00, 
1974.00, 
1975.00, 
1976.00, 
1977.00, 
1978.00, 
1979.00, 
1980.00, 
1981.00, 
1982.00, 
1983.00, 
1984.00, 
1985.00, 
1986.00, 
1987.00, 
1988.00, 
1989.00, 
1990.00, 
1991.00, 
1992.00, 
1993.00, 
1994.00, 
1995.00, 
1996.00, 
1997.00, 
1998.00, 
1999.00, 
2000.00, 
2001.00, 
2002.00, 
2003.00, 
2004.00, 
2005.00, 
2006.00, 
2007.00, 
2008.00, 
2009.00, 
2010.00, 
2011.00, 
2012.00, 
2013.00, 
2014.00, 
2015.00, 
2016.00, 
2017.00, 
2018.00, 
2019.00, 
2020.00, 
2021.00, 
2022.00, 
2023.00, 
2024.00, 
2025.00, 
2026.00, 
2027.00, 
2028.00, 
2029.00, 
2030.00, 
2031.00, 
2032.00, 
2033.00, 
2034.00, 
2035.00, 
2036.00, 
2037.00, 
2038.00, 
2039.00, 
2040.00, 
2041.00, 
2042.00, 
2043.00, 
2044.00, 
2045.00, 
2046.00, 
2047.00, 
2048.00, 
2049.00, 
2050.00, 
2051.00, 
2052.00, 
2053.00, 
2054.00, 
2055.00, 
2056.00, 
2057.00, 
2058.00, 
2059.00, 
2060.00, 
2061.00, 
2062.00, 
2063.00, 
2064.00, 
2065.00, 
2066.00, 
2067.00, 
2068.00, 
2069.00, 
2070.00, 
2071.00, 
2072.00, 
2073.00, 
2074.00, 
2075.00, 
2076.00, 
2077.00, 
2078.00, 
2079.00, 
2080.00, 
2081.00, 
2082.00, 
2083.00, 
2084.00, 
2085.00, 
2086.00, 
2087.00, 
2088.00, 
2089.00, 
2090.00, 
2091.00, 
2092.00, 
2093.00, 
2094.00, 
2095.00, 
2096.00, 
2097.00, 
2098.00, 
2099.00, 
2100.00, 
2101.00, 
2102.00, 
2103.00, 
2104.00, 
2105.00, 
2106.00, 
2107.00, 
2108.00, 
2109.00, 
2110.00, 
2111.00, 
2112.00, 
2113.00, 
2114.00, 
2115.00, 
2116.00, 
2117.00, 
2118.00, 
2119.00, 
2120.00, 
2121.00, 
2122.00, 
2123.00, 
2124.00, 
2125.00, 
2126.00, 
2127.00, 
2128.00, 
2129.00, 
2130.00, 
2131.00, 
2132.00, 
2133.00, 
2134.00, 
2135.00, 
2136.00, 
2137.00, 
2138.00, 
2139.00, 
2140.00, 
2141.00, 
2142.00, 
2143.00, 
2144.00, 
2145.00, 
2146.00, 
2147.00, 
2148.00, 
2149.00, 
2150.00, 
2151.00, 
2152.00, 
2153.00, 
2154.00, 
2155.00, 
2156.00, 
2157.00, 
2158.00, 
2159.00, 
2160.00, 
2161.00, 
2162.00, 
2163.00, 
2164.00, 
2165.00, 
2166.00, 
2167.00, 
2168.00, 
2169.00, 
2170.00, 
2171.00, 
2172.00, 
2173.00, 
2174.00, 
2175.00, 
2176.00, 
2177.00, 
2178.00, 
2179.00, 
2180.00, 
2181.00, 
2182.00, 
2183.00, 
2184.00, 
2185.00, 
2186.00, 
2187.00, 
2188.00, 
2189.00, 
2190.00, 
2191.00, 
2192.00, 
2193.00, 
2194.00, 
2195.00, 
2196.00, 
2197.00, 
2198.00, 
2199.00, 
2200.00, 
2201.00, 
2202.00, 
2203.00, 
2204.00, 
2205.00, 
2206.00, 
2207.00, 
2208.00, 
2209.00, 
2210.00, 
2211.00, 
2212.00, 
2213.00, 
2214.00, 
2215.00, 
2216.00, 
2217.00, 
2218.00, 
2219.00, 
2220.00, 
2221.00, 
2222.00, 
2223.00, 
2224.00, 
2225.00, 
2226.00, 
2227.00, 
2228.00, 
2229.00, 
2230.00, 
2231.00, 
2232.00, 
2233.00, 
2234.00, 
2235.00, 
2236.00, 
2237.00, 
2238.00, 
2239.00, 
2240.00, 
2241.00, 
2242.00, 
2243.00, 
2244.00, 
2245.00, 
2246.00, 
2247.00, 
2248.00, 
2249.00, 
2250.00, 
2251.00, 
2252.00, 
2253.00, 
2254.00, 
2255.00, 
2256.00, 
2257.00, 
2258.00, 
2259.00, 
2260.00, 
2261.00, 
2262.00, 
2263.00, 
2264.00, 
2265.00, 
2266.00, 
2267.00, 
2268.00, 
2269.00, 
2270.00, 
2271.00, 
2272.00, 
2273.00, 
2274.00, 
2275.00, 
2276.00, 
2277.00, 
2278.00, 
2279.00, 
2280.00, 
2281.00, 
2282.00, 
2283.00, 
2284.00, 
2285.00, 
2286.00, 
2287.00, 
2288.00, 
2289.00, 
2290.00, 
2291.00, 
2292.00, 
2293.00, 
2294.00, 
2295.00, 
2296.00, 
2297.00, 
2298.00, 
2299.00, 
2300.00, 
2301.00, 
2302.00, 
2303.00, 
2304.00, 
2305.00, 
2306.00, 
2307.00, 
2308.00, 
2309.00, 
2310.00, 
2311.00, 
2312.00, 
2313.00, 
2314.00, 
2315.00, 
2316.00, 
2317.00, 
2318.00, 
2319.00, 
2320.00, 
2321.00, 
2322.00, 
2323.00, 
2324.00, 
2325.00, 
2326.00, 
2327.00, 
2328.00, 
2329.00, 
2330.00, 
2331.00, 
2332.00, 
2333.00, 
2334.00, 
2335.00, 
2336.00, 
2337.00, 
2338.00, 
2339.00, 
2340.00, 
2341.00, 
2342.00, 
2343.00, 
2344.00, 
2345.00, 
2346.00, 
2347.00, 
2348.00, 
2349.00, 
2350.00, 
2351.00, 
2352.00, 
2353.00, 
2354.00, 
2355.00, 
2356.00, 
2357.00, 
2358.00, 
2359.00, 
2360.00, 
2361.00, 
2362.00, 
2363.00, 
2364.00, 
2365.00, 
2366.00, 
2367.00, 
2368.00, 
2369.00, 
2370.00, 
2371.00, 
2372.00, 
2373.00, 
2374.00, 
2375.00, 
2376.00, 
2377.00, 
2378.00, 
2379.00, 
2380.00, 
2381.00, 
2382.00, 
2383.00, 
2384.00, 
2385.00, 
2386.00, 
2387.00, 
2388.00, 
2389.00, 
2390.00, 
2391.00, 
2392.00, 
2393.00, 
2394.00, 
2395.00, 
2396.00, 
2397.00, 
2398.00, 
2399.00, 
2400.00, 
2401.00, 
2402.00, 
2403.00, 
2404.00, 
2405.00, 
2406.00, 
2407.00, 
2408.00, 
2409.00, 
2410.00, 
2411.00, 
2412.00, 
2413.00, 
2414.00, 
2415.00, 
2416.00, 
2417.00, 
2418.00, 
2419.00, 
2420.00, 
2421.00, 
2422.00, 
2423.00, 
2424.00, 
2425.00, 
2426.00, 
2427.00, 
2428.00, 
2429.00, 
2430.00, 
2431.00, 
2432.00, 
2433.00, 
2434.00, 
2435.00, 
2436.00, 
2437.00, 
2438.00, 
2439.00, 
2440.00, 
2441.00, 
2442.00, 
2443.00, 
2444.00, 
2445.00, 
2446.00, 
2447.00, 
2448.00, 
2449.00, 
2450.00, 
2451.00, 
2452.00, 
2453.00, 
2454.00, 
2455.00, 
2456.00, 
2457.00, 
2458.00, 
2459.00, 
2460.00, 
2461.00, 
2462.00, 
2463.00, 
2464.00, 
2465.00, 
2466.00, 
2467.00, 
2468.00, 
2469.00, 
2470.00, 
2471.00, 
2472.00, 
2473.00, 
2474.00, 
2475.00, 
2476.00, 
2477.00, 
2478.00, 
2479.00, 
2480.00, 
2481.00, 
2482.00, 
2483.00, 
2484.00, 
2485.00, 
2486.00, 
2487.00, 
2488.00, 
2489.00, 
2490.00, 
2491.00, 
2492.00, 
2493.00, 
2494.00, 
2495.00, 
2496.00, 
2497.00, 
2498.00, 
2499.00, 
2500.00, 
2501.00, 
2502.00, 
2503.00, 
2504.00, 
2505.00, 
2506.00, 
2507.00, 
2508.00, 
2509.00, 
2510.00, 
2511.00, 
2512.00, 
2513.00, 
2514.00, 
2515.00, 
2516.00, 
2517.00, 
2518.00, 
2519.00, 
2520.00, 
2521.00, 
2522.00, 
2523.00, 
2524.00, 
2525.00, 
2526.00, 
2527.00, 
2528.00, 
2529.00, 
2530.00, 
2531.00, 
2532.00, 
2533.00, 
2534.00, 
2535.00, 
2536.00, 
2537.00, 
2538.00, 
2539.00, 
2540.00, 
2541.00, 
2542.00, 
2543.00, 
2544.00, 
2545.00, 
2546.00, 
2547.00, 
2548.00, 
2549.00, 
2550.00, 
2551.00, 
2552.00, 
2553.00, 
2554.00, 
2555.00, 
2556.00, 
2557.00, 
2558.00, 
2559.00, 
2560.00, 
2561.00, 
2562.00, 
2563.00, 
2564.00, 
2565.00, 
2566.00, 
2567.00, 
2568.00, 
2569.00, 
2570.00, 
2571.00, 
2572.00, 
2573.00, 
2574.00, 
2575.00, 
2576.00, 
2577.00, 
2578.00, 
2579.00, 
2580.00, 
2581.00, 
2582.00, 
2583.00, 
2584.00, 
2585.00, 
2586.00, 
2587.00, 
2588.00, 
2589.00, 
2590.00, 
2591.00, 
2592.00, 
2593.00, 
2594.00, 
2595.00, 
2596.00, 
2597.00, 
2598.00, 
2599.00, 
2600.00, 
