"2bP2 - RawData"
"Wavelength nm.","T%"
200.00,-0.000
201.00,0.002
202.00,-0.001
203.00,0.004
204.00,0.001
205.00,0.001
206.00,0.003
207.00,0.003
208.00,0.003
209.00,-0.002
210.00,-0.001
211.00,0.000
212.00,0.003
213.00,0.000
214.00,0.002
215.00,0.002
216.00,0.002
217.00,0.004
218.00,-0.000
219.00,0.001
220.00,-0.000
221.00,-0.001
222.00,-0.001
223.00,0.001
224.00,-0.001
225.00,-0.000
226.00,-0.001
227.00,0.002
228.00,0.002
229.00,-0.002
230.00,0.001
231.00,0.001
232.00,-0.000
233.00,0.001
234.00,0.000
235.00,0.000
236.00,0.000
237.00,0.000
238.00,0.001
239.00,-0.001
240.00,-0.001
241.00,-0.002
242.00,0.000
243.00,0.002
244.00,0.000
245.00,-0.000
246.00,0.002
247.00,-0.001
248.00,0.001
249.00,0.002
250.00,0.001
251.00,-0.000
252.00,-0.001
253.00,0.002
254.00,0.001
255.00,0.001
256.00,-0.001
257.00,-0.001
258.00,0.002
259.00,0.002
260.00,0.000
261.00,-0.001
262.00,0.000
263.00,0.002
264.00,-0.000
265.00,0.001
266.00,0.000
267.00,0.001
268.00,0.001
269.00,0.001
270.00,0.001
271.00,0.000
272.00,-0.001
273.00,-0.000
274.00,-0.000
275.00,-0.000
276.00,0.000
277.00,-0.000
278.00,0.000
279.00,0.000
280.00,-0.001
281.00,-0.000
282.00,-0.000
283.00,-0.000
284.00,-0.000
285.00,-0.001
286.00,0.002
287.00,0.001
288.00,0.001
289.00,-0.000
290.00,0.001
291.00,-0.001
292.00,0.001
293.00,0.000
294.00,-0.001
295.00,-0.001
296.00,0.001
297.00,0.001
298.00,-0.001
299.00,0.001
300.00,0.001
301.00,0.002
302.00,0.004
303.00,0.006
304.00,0.010
305.00,0.016
306.00,0.022
307.00,0.035
308.00,0.052
309.00,0.079
310.00,0.108
311.00,0.145
312.00,0.193
313.00,0.261
314.00,0.342
315.00,0.442
316.00,0.554
317.00,0.691
318.00,0.843
319.00,1.030
320.00,1.240
321.00,1.471
322.00,1.727
323.00,2.035
324.00,2.345
325.00,2.650
326.00,2.976
327.00,3.297
328.00,3.720
329.00,4.082
330.00,4.472
331.00,4.877
332.00,5.274
333.00,5.717
334.00,6.082
335.00,6.531
336.00,6.920
337.00,7.352
338.00,7.707
339.00,8.070
340.00,8.413
341.00,8.775
342.00,9.116
343.00,9.437
344.00,9.779
345.00,10.051
346.00,10.306
347.00,10.541
348.00,10.801
349.00,10.996
350.00,11.208
351.00,11.384
352.00,11.570
353.00,11.701
354.00,11.890
355.00,12.007
356.00,12.144
357.00,12.268
358.00,12.329
359.00,12.494
360.00,12.598
361.00,12.652
362.00,12.753
363.00,12.780
364.00,12.774
365.00,12.829
366.00,12.879
367.00,12.874
368.00,12.883
369.00,12.880
370.00,12.888
371.00,12.903
372.00,12.860
373.00,12.852
374.00,12.826
375.00,12.767
376.00,12.746
377.00,12.690
378.00,12.616
379.00,12.573
380.00,12.524
381.00,12.466
382.00,12.472
383.00,12.398
384.00,12.434
385.00,12.374
386.00,12.374
387.00,12.397
388.00,12.391
389.00,12.376
390.00,12.375
391.00,12.357
392.00,12.346
393.00,12.326
394.00,12.304
395.00,12.303
396.00,12.273
397.00,12.273
398.00,12.262
399.00,12.257
400.00,12.232
401.00,12.187
402.00,12.210
403.00,12.226
404.00,12.176
405.00,12.170
406.00,12.185
407.00,12.127
408.00,12.121
409.00,12.094
410.00,12.063
411.00,12.055
412.00,12.038
413.00,12.052
414.00,12.029
415.00,12.020
416.00,12.031
417.00,12.031
418.00,12.046
419.00,12.093
420.00,12.118
421.00,12.088
422.00,12.107
423.00,12.149
424.00,12.158
425.00,12.188
426.00,12.207
427.00,12.246
428.00,12.274
429.00,12.299
430.00,12.349
431.00,12.395
432.00,12.454
433.00,12.489
434.00,12.521
435.00,12.586
436.00,12.627
437.00,12.709
438.00,12.745
439.00,12.797
440.00,12.862
441.00,12.937
442.00,13.013
443.00,13.071
444.00,13.164
445.00,13.236
446.00,13.340
447.00,13.404
448.00,13.494
449.00,13.583
450.00,13.687
451.00,13.786
452.00,13.851
453.00,13.963
454.00,14.032
455.00,14.148
456.00,14.268
457.00,14.359
458.00,14.470
459.00,14.571
460.00,14.709
461.00,14.809
462.00,14.936
463.00,15.038
464.00,15.162
465.00,15.279
466.00,15.415
467.00,15.549
468.00,15.649
469.00,15.767
470.00,15.880
471.00,15.983
472.00,16.115
473.00,16.220
474.00,16.340
475.00,16.467
476.00,16.578
477.00,16.713
478.00,16.839
479.00,17.002
480.00,17.129
481.00,17.258
482.00,17.409
483.00,17.553
484.00,17.700
485.00,17.866
486.00,18.024
487.00,18.166
488.00,18.320
489.00,18.468
490.00,18.631
491.00,18.793
492.00,18.937
493.00,19.138
494.00,19.289
495.00,19.336
496.00,19.470
497.00,19.598
498.00,19.780
499.00,19.893
500.00,20.059
501.00,20.185
502.00,20.335
503.00,20.487
504.00,20.590
505.00,20.725
506.00,20.828
507.00,20.986
508.00,21.117
509.00,21.288
510.00,21.398
511.00,21.512
512.00,21.683
513.00,21.807
514.00,21.972
515.00,22.090
516.00,22.226
517.00,22.325
518.00,22.496
519.00,22.568
520.00,22.677
521.00,22.783
522.00,22.904
523.00,22.953
524.00,23.118
525.00,23.224
526.00,23.341
527.00,23.423
528.00,23.540
529.00,23.679
530.00,23.840
531.00,23.897
532.00,24.053
533.00,24.121
534.00,24.252
535.00,24.349
536.00,24.463
537.00,24.504
538.00,24.589
539.00,24.740
540.00,24.789
541.00,24.886
542.00,24.951
543.00,25.049
544.00,25.144
545.00,25.233
546.00,25.292
547.00,25.395
548.00,25.510
549.00,25.587
550.00,25.665
551.00,25.803
552.00,25.886
553.00,25.942
554.00,25.987
555.00,26.035
556.00,26.119
557.00,26.201
558.00,26.299
559.00,26.315
560.00,26.374
561.00,26.513
562.00,26.592
563.00,26.586
564.00,26.663
565.00,26.757
566.00,26.786
567.00,26.811
568.00,26.874
569.00,26.964
570.00,26.986
571.00,27.036
572.00,27.106
573.00,27.103
574.00,27.197
575.00,27.198
576.00,27.249
577.00,27.321
578.00,27.402
579.00,27.465
580.00,27.515
581.00,27.657
582.00,27.716
583.00,27.770
584.00,27.857
585.00,27.922
586.00,28.002
587.00,28.065
588.00,28.089
589.00,28.053
590.00,28.169
591.00,28.225
592.00,28.236
593.00,28.313
594.00,28.404
595.00,28.435
596.00,28.543
597.00,28.591
598.00,28.674
599.00,28.682
600.00,28.762
601.00,28.870
602.00,28.896
603.00,28.944
604.00,28.985
605.00,29.031
606.00,29.134
607.00,29.221
608.00,29.274
609.00,29.268
610.00,29.390
611.00,29.564
612.00,29.466
613.00,29.508
614.00,29.602
615.00,29.663
616.00,29.795
617.00,29.810
618.00,29.845
619.00,29.957
620.00,29.974
621.00,30.078
622.00,30.152
623.00,30.265
624.00,30.363
625.00,30.449
626.00,30.541
627.00,30.581
628.00,30.682
629.00,30.710
630.00,30.764
631.00,30.899
632.00,30.987
633.00,31.148
634.00,31.242
635.00,31.361
636.00,31.459
637.00,31.513
638.00,31.567
639.00,31.705
640.00,31.785
641.00,31.814
642.00,31.987
643.00,32.084
644.00,32.207
645.00,32.310
646.00,32.447
647.00,32.542
648.00,32.652
649.00,32.644
650.00,32.820
651.00,33.046
652.00,33.126
653.00,33.219
654.00,33.329
655.00,33.531
656.00,33.844
657.00,33.729
658.00,33.904
659.00,34.069
660.00,34.150
661.00,34.276
662.00,34.325
663.00,34.521
664.00,34.746
665.00,34.965
666.00,34.951
667.00,35.179
668.00,35.247
669.00,35.407
670.00,35.716
671.00,35.634
672.00,35.786
673.00,35.963
674.00,36.074
675.00,36.287
676.00,36.498
677.00,36.628
678.00,36.529
679.00,36.776
680.00,36.989
681.00,37.144
682.00,37.238
683.00,37.347
684.00,37.616
685.00,37.608
686.00,37.528
687.00,37.916
688.00,38.013
689.00,38.163
690.00,38.480
691.00,38.693
692.00,38.468
693.00,38.605
694.00,38.805
695.00,39.077
696.00,39.169
697.00,39.215
698.00,39.298
699.00,39.851
700.00,40.151
701.00,39.852
702.00,40.141
703.00,40.349
704.00,40.365
705.00,40.568
706.00,40.659
707.00,40.763
708.00,40.741
709.00,41.200
710.00,41.604
711.00,41.225
712.00,41.387
713.00,41.579
714.00,41.759
715.00,41.828
716.00,41.817
717.00,42.111
718.00,42.278
719.00,42.372
720.00,42.486
721.00,46.744
722.00,46.728
723.00,46.826
724.00,46.933
725.00,47.030
726.00,47.097
727.00,47.175
728.00,47.282
729.00,47.375
730.00,47.454
731.00,47.558
732.00,47.646
733.00,47.769
734.00,47.823
735.00,47.955
736.00,47.961
737.00,48.117
738.00,48.229
739.00,48.317
740.00,48.388
741.00,48.491
742.00,48.567
743.00,48.597
744.00,48.635
745.00,48.754
746.00,48.801
747.00,48.864
748.00,48.918
749.00,48.951
750.00,49.060
751.00,49.021
752.00,49.131
753.00,49.195
754.00,49.235
755.00,49.247
756.00,49.391
757.00,49.409
758.00,49.509
759.00,49.467
760.00,49.536
761.00,49.626
762.00,49.661
763.00,49.791
764.00,49.773
765.00,49.790
766.00,49.900
767.00,49.953
768.00,50.013
769.00,50.025
770.00,50.079
771.00,50.180
772.00,50.215
773.00,50.236
774.00,50.307
775.00,50.332
776.00,50.334
777.00,50.452
778.00,50.514
779.00,50.547
780.00,50.557
781.00,50.542
782.00,50.635
783.00,50.593
784.00,50.635
785.00,50.643
786.00,50.707
787.00,50.727
788.00,50.811
789.00,50.824
790.00,50.736
791.00,50.828
792.00,50.738
793.00,50.852
794.00,50.912
795.00,50.894
796.00,50.968
797.00,50.867
798.00,50.942
799.00,50.925
800.00,50.927
801.00,50.958
802.00,50.982
803.00,50.994
804.00,51.002
805.00,51.036
806.00,50.994
807.00,51.051
808.00,51.001
809.00,51.019
810.00,51.091
811.00,50.997
812.00,51.099
813.00,51.062
814.00,51.081
815.00,51.155
816.00,51.040
817.00,51.145
818.00,51.099
819.00,51.146
820.00,51.025
821.00,51.065
822.00,51.133
823.00,51.057
824.00,51.227
825.00,51.153
826.00,51.112
827.00,51.107
828.00,51.132
829.00,51.103
830.00,51.155
831.00,53.585
832.00,53.520
833.00,53.554
834.00,53.557
835.00,53.549
836.00,53.573
837.00,53.566
838.00,53.551
839.00,53.529
840.00,53.514
841.00,53.511
842.00,53.501
843.00,53.537
844.00,53.529
845.00,53.502
846.00,53.564
847.00,53.495
848.00,53.489
849.00,53.450
850.00,53.454
851.00,53.370
852.00,53.424
853.00,53.376
854.00,53.351
855.00,53.330
856.00,53.322
857.00,53.331
858.00,53.301
859.00,53.247
860.00,53.302
861.00,53.299
862.00,53.256
863.00,53.286
864.00,53.242
865.00,53.289
866.00,53.251
867.00,53.261
868.00,53.248
869.00,53.252
870.00,53.237
871.00,53.230
872.00,53.255
873.00,53.210
874.00,53.248
875.00,53.211
876.00,53.230
877.00,53.221
878.00,53.223
879.00,53.213
880.00,53.234
881.00,53.186
882.00,53.217
883.00,53.164
884.00,53.129
885.00,53.140
886.00,53.159
887.00,53.112
888.00,53.071
889.00,53.182
890.00,53.011
891.00,53.049
892.00,53.017
893.00,53.049
894.00,53.105
895.00,52.921
896.00,53.010
897.00,52.996
898.00,52.995
899.00,52.986
900.00,52.959
901.00,52.947
902.00,52.973
903.00,52.915
904.00,52.936
905.00,52.930
906.00,52.927
907.00,52.907
908.00,52.875
909.00,52.882
910.00,52.864
911.00,52.858
912.00,52.848
913.00,52.787
914.00,52.821
915.00,52.783
916.00,52.743
917.00,52.733
918.00,52.733
919.00,52.713
920.00,52.688
921.00,52.697
922.00,52.683
923.00,52.660
924.00,52.622
925.00,52.673
926.00,52.636
927.00,52.628
928.00,52.564
929.00,52.615
930.00,52.553
931.00,52.533
932.00,52.494
933.00,52.529
934.00,52.481
935.00,52.454
936.00,52.425
937.00,52.454
938.00,52.368
939.00,52.436
940.00,52.389
941.00,52.403
942.00,52.381
943.00,52.362
944.00,52.313
945.00,52.347
946.00,52.322
947.00,52.281
948.00,52.267
949.00,52.261
950.00,52.247
951.00,52.218
952.00,52.212
953.00,52.156
954.00,52.154
955.00,52.114
956.00,52.100
957.00,52.056
958.00,52.079
959.00,52.032
960.00,52.022
961.00,52.028
962.00,52.019
963.00,51.977
964.00,51.969
965.00,51.964
966.00,51.970
967.00,51.950
968.00,51.923
969.00,51.973
970.00,51.945
971.00,51.959
972.00,51.933
973.00,51.970
974.00,51.978
975.00,51.941
976.00,51.965
977.00,51.964
978.00,51.979
979.00,51.936
980.00,51.979
981.00,51.962
982.00,51.934
983.00,51.956
984.00,51.923
985.00,51.958
986.00,51.906
987.00,51.943
988.00,51.895
989.00,51.872
990.00,51.901
991.00,51.893
992.00,51.899
993.00,51.855
994.00,51.856
995.00,51.827
996.00,51.834
997.00,51.827
998.00,51.806
999.00,51.818
1000.00,51.764
1001.00,51.769
1002.00,51.767
1003.00,51.748
1004.00,51.724
1005.00,51.699
1006.00,51.785
1007.00,51.697
1008.00,51.689
1009.00,51.669
1010.00,51.678
1011.00,51.651
1012.00,51.630
1013.00,51.637
1014.00,51.596
1015.00,51.618
1016.00,51.591
1017.00,51.591
1018.00,51.576
1019.00,51.533
1020.00,51.576
1021.00,51.520
1022.00,51.515
1023.00,51.486
1024.00,51.498
1025.00,51.470
1026.00,51.454
1027.00,51.439
1028.00,51.415
1029.00,51.408
1030.00,51.360
1031.00,51.382
1032.00,51.343
1033.00,51.338
1034.00,51.310
1035.00,51.284
1036.00,51.274
1037.00,51.256
1038.00,51.238
1039.00,51.194
1040.00,51.191
1041.00,51.153
1042.00,51.138
1043.00,51.124
1044.00,51.153
1045.00,51.125
1046.00,51.122
1047.00,51.141
1048.00,51.148
1049.00,51.172
1050.00,51.171
1051.00,51.213
1052.00,51.184
1053.00,51.205
1054.00,51.198
1055.00,51.222
1056.00,51.224
1057.00,51.233
1058.00,51.208
1059.00,51.203
1060.00,51.228
1061.00,51.199
1062.00,51.185
1063.00,51.206
1064.00,51.196
1065.00,51.180
1066.00,51.179
1067.00,51.193
1068.00,51.189
1069.00,51.152
1070.00,51.144
1071.00,51.142
1072.00,51.141
1073.00,51.110
1074.00,51.116
1075.00,51.097
1076.00,51.110
1077.00,51.080
1078.00,51.057
1079.00,51.074
1080.00,51.061
1081.00,51.048
1082.00,51.060
1083.00,51.040
1084.00,51.041
1085.00,51.040
1086.00,51.014
1087.00,51.023
1088.00,50.990
1089.00,50.979
1090.00,50.990
1091.00,50.981
1092.00,50.969
1093.00,50.962
1094.00,50.937
1095.00,50.934
1096.00,50.918
1097.00,50.936
1098.00,50.933
1099.00,50.915
1100.00,50.906
1101.00,50.917
1102.00,50.882
1103.00,50.882
1104.00,50.888
1105.00,50.845
1106.00,50.837
1107.00,50.851
1108.00,50.807
1109.00,50.815
1110.00,50.784
1111.00,50.786
1112.00,50.785
1113.00,50.757
1114.00,50.762
1115.00,50.777
1116.00,50.752
1117.00,50.742
1118.00,50.733
1119.00,50.736
1120.00,50.737
1121.00,50.740
1122.00,50.715
1123.00,50.715
1124.00,50.702
1125.00,50.699
1126.00,50.695
1127.00,50.710
1128.00,50.709
1129.00,50.655
1130.00,50.640
1131.00,50.652
1132.00,50.638
1133.00,50.647
1134.00,50.634
1135.00,50.616
1136.00,50.611
1137.00,50.635
1138.00,50.615
1139.00,50.614
1140.00,50.609
1141.00,50.587
1142.00,50.586
1143.00,50.584
1144.00,50.558
1145.00,50.576
1146.00,50.568
1147.00,50.573
1148.00,50.564
1149.00,50.573
1150.00,50.567
1151.00,50.567
1152.00,50.552
1153.00,50.559
1154.00,50.533
1155.00,50.535
1156.00,50.528
1157.00,50.531
1158.00,50.524
1159.00,50.529
1160.00,50.521
1161.00,50.535
1162.00,50.523
1163.00,50.515
1164.00,50.517
1165.00,50.521
1166.00,50.510
1167.00,50.530
1168.00,50.540
1169.00,50.510
1170.00,50.517
1171.00,50.485
1172.00,50.506
1173.00,50.490
1174.00,50.490
1175.00,50.490
1176.00,50.480
1177.00,50.472
1178.00,50.486
1179.00,50.494
1180.00,50.479
1181.00,50.508
1182.00,50.471
1183.00,50.449
1184.00,50.445
1185.00,50.454
1186.00,50.453
1187.00,50.441
1188.00,50.444
1189.00,50.465
1190.00,50.437
1191.00,50.428
1192.00,50.452
1193.00,50.425
1194.00,50.424
1195.00,50.399
1196.00,50.458
1197.00,50.473
1198.00,50.440
1199.00,50.452
1200.00,50.459
1201.00,50.456
1202.00,50.438
1203.00,50.451
1204.00,50.435
1205.00,50.457
1206.00,50.445
1207.00,50.454
1208.00,50.446
1209.00,50.438
1210.00,50.462
1211.00,50.462
1212.00,50.466
1213.00,50.428
1214.00,50.463
1215.00,50.420
1216.00,50.421
1217.00,50.433
1218.00,50.430
1219.00,50.458
1220.00,50.435
1221.00,50.447
1222.00,50.438
1223.00,50.434
1224.00,50.437
1225.00,50.446
1226.00,50.415
1227.00,50.416
1228.00,50.458
1229.00,50.428
1230.00,50.458
1231.00,50.447
1232.00,50.465
1233.00,50.471
1234.00,50.459
1235.00,50.454
1236.00,50.462
1237.00,50.446
1238.00,50.434
1239.00,50.447
1240.00,50.436
1241.00,50.458
1242.00,50.451
1243.00,50.467
1244.00,50.453
1245.00,50.473
1246.00,50.485
1247.00,50.479
1248.00,50.463
1249.00,50.474
1250.00,50.487
1251.00,50.476
1252.00,50.504
1253.00,50.478
1254.00,50.507
1255.00,50.492
1256.00,50.468
1257.00,50.469
1258.00,50.528
1259.00,50.496
1260.00,50.522
1261.00,50.510
1262.00,50.504
1263.00,50.518
1264.00,50.514
1265.00,50.514
1266.00,50.525
1267.00,50.518
1268.00,50.529
1269.00,50.533
1270.00,50.545
1271.00,50.549
1272.00,50.537
1273.00,50.560
1274.00,50.572
1275.00,50.581
1276.00,50.575
1277.00,50.589
1278.00,50.593
1279.00,50.591
1280.00,50.589
1281.00,50.587
1282.00,50.583
1283.00,50.630
1284.00,50.592
1285.00,50.600
1286.00,50.605
1287.00,50.595
1288.00,50.604
1289.00,50.583
1290.00,50.623
1291.00,50.623
1292.00,50.621
1293.00,50.621
1294.00,50.642
1295.00,50.642
1296.00,50.647
1297.00,50.633
1298.00,50.666
1299.00,50.645
1300.00,50.641
1301.00,50.664
1302.00,50.698
1303.00,50.695
1304.00,50.683
1305.00,50.700
1306.00,50.711
1307.00,50.715
1308.00,50.718
1309.00,50.731
1310.00,50.729
1311.00,50.699
1312.00,50.703
1313.00,50.731
1314.00,50.721
1315.00,50.735
1316.00,50.733
1317.00,50.762
1318.00,50.749
1319.00,50.747
1320.00,50.751
1321.00,50.934
1322.00,50.924
1323.00,50.918
1324.00,50.918
1325.00,50.901
1326.00,50.917
1327.00,50.916
1328.00,50.891
1329.00,50.898
1330.00,50.903
1331.00,50.874
1332.00,50.900
1333.00,50.896
1334.00,50.918
1335.00,50.948
1336.00,50.960
1337.00,50.997
1338.00,51.080
1339.00,51.102
1340.00,51.155
1341.00,51.235
1342.00,51.283
1343.00,51.333
1344.00,51.364
1345.00,51.426
1346.00,51.481
1347.00,51.470
1348.00,51.518
1349.00,51.540
1350.00,51.539
1351.00,51.560
1352.00,51.568
1353.00,51.663
1354.00,51.583
1355.00,51.534
1356.00,51.620
1357.00,51.541
1358.00,51.638
1359.00,51.636
1360.00,51.648
1361.00,51.619
1362.00,51.596
1363.00,51.680
1364.00,51.689
1365.00,51.621
1366.00,51.693
1367.00,51.614
1368.00,51.592
1369.00,51.650
1370.00,51.624
1371.00,51.567
1372.00,51.593
1373.00,51.616
1374.00,51.625
1375.00,51.586
1376.00,51.600
1377.00,51.624
1378.00,51.680
1379.00,51.619
1380.00,51.595
1381.00,51.634
1382.00,51.544
1383.00,51.581
1384.00,51.524
1385.00,51.555
1386.00,51.563
1387.00,51.549
1388.00,51.509
1389.00,51.529
1390.00,51.572
1391.00,51.568
1392.00,51.541
1393.00,51.572
1394.00,51.559
1395.00,51.512
1396.00,51.483
1397.00,51.547
1398.00,51.619
1399.00,51.537
1400.00,51.522
1401.00,51.544
1402.00,51.625
1403.00,51.558
1404.00,51.591
1405.00,51.609
1406.00,51.607
1407.00,51.648
1408.00,51.615
1409.00,51.571
1410.00,51.627
1411.00,51.617
1412.00,51.709
1413.00,51.560
1414.00,51.576
1415.00,51.664
1416.00,51.671
1417.00,51.707
1418.00,51.667
1419.00,51.674
1420.00,51.717
1421.00,51.756
1422.00,51.743
1423.00,51.769
1424.00,51.765
1425.00,51.794
1426.00,51.801
1427.00,51.802
1428.00,51.798
1429.00,51.825
1430.00,51.843
1431.00,51.860
1432.00,51.860
1433.00,51.879
1434.00,51.874
1435.00,51.931
1436.00,51.923
1437.00,51.932
1438.00,51.933
1439.00,51.957
1440.00,51.962
1441.00,51.963
1442.00,52.003
1443.00,52.002
1444.00,52.054
1445.00,52.016
1446.00,52.042
1447.00,52.075
1448.00,52.109
1449.00,52.088
1450.00,52.091
1451.00,52.127
1452.00,52.143
1453.00,52.148
1454.00,52.175
1455.00,52.196
1456.00,52.229
1457.00,52.204
1458.00,52.251
1459.00,52.264
1460.00,52.264
1461.00,52.259
1462.00,52.294
1463.00,52.286
1464.00,52.298
1465.00,52.300
1466.00,52.310
1467.00,52.354
1468.00,52.443
1469.00,52.383
1470.00,52.399
1471.00,52.404
1472.00,52.415
1473.00,52.433
1474.00,52.448
1475.00,52.478
1476.00,52.474
1477.00,52.457
1478.00,52.503
1479.00,52.501
1480.00,52.492
1481.00,52.513
1482.00,52.554
1483.00,52.549
1484.00,52.568
1485.00,52.580
1486.00,52.593
1487.00,52.605
1488.00,52.615
1489.00,52.622
1490.00,52.626
1491.00,52.631
1492.00,52.648
1493.00,52.625
1494.00,52.670
1495.00,52.666
1496.00,52.690
1497.00,52.686
1498.00,52.696
1499.00,52.713
1500.00,52.737
1501.00, 
1502.00, 
1503.00, 
1504.00, 
1505.00, 
1506.00, 
1507.00, 
1508.00, 
1509.00, 
1510.00, 
1511.00, 
1512.00, 
1513.00, 
1514.00, 
1515.00, 
1516.00, 
1517.00, 
1518.00, 
1519.00, 
1520.00, 
1521.00, 
1522.00, 
1523.00, 
1524.00, 
1525.00, 
1526.00, 
1527.00, 
1528.00, 
1529.00, 
1530.00, 
1531.00, 
1532.00, 
1533.00, 
1534.00, 
1535.00, 
1536.00, 
1537.00, 
1538.00, 
1539.00, 
1540.00, 
1541.00, 
1542.00, 
1543.00, 
1544.00, 
1545.00, 
1546.00, 
1547.00, 
1548.00, 
1549.00, 
1550.00, 
1551.00, 
1552.00, 
1553.00, 
1554.00, 
1555.00, 
1556.00, 
1557.00, 
1558.00, 
1559.00, 
1560.00, 
1561.00, 
1562.00, 
1563.00, 
1564.00, 
1565.00, 
1566.00, 
1567.00, 
1568.00, 
1569.00, 
1570.00, 
1571.00, 
1572.00, 
1573.00, 
1574.00, 
1575.00, 
1576.00, 
1577.00, 
1578.00, 
1579.00, 
1580.00, 
1581.00, 
1582.00, 
1583.00, 
1584.00, 
1585.00, 
1586.00, 
1587.00, 
1588.00, 
1589.00, 
1590.00, 
1591.00, 
1592.00, 
1593.00, 
1594.00, 
1595.00, 
1596.00, 
1597.00, 
1598.00, 
1599.00, 
1600.00, 
1601.00, 
1602.00, 
1603.00, 
1604.00, 
1605.00, 
1606.00, 
1607.00, 
1608.00, 
1609.00, 
1610.00, 
1611.00, 
1612.00, 
1613.00, 
1614.00, 
1615.00, 
1616.00, 
1617.00, 
1618.00, 
1619.00, 
1620.00, 
1621.00, 
1622.00, 
1623.00, 
1624.00, 
1625.00, 
1626.00, 
1627.00, 
1628.00, 
1629.00, 
1630.00, 
1631.00, 
1632.00, 
1633.00, 
1634.00, 
1635.00, 
1636.00, 
1637.00, 
1638.00, 
1639.00, 
1640.00, 
1641.00, 
1642.00, 
1643.00, 
1644.00, 
1645.00, 
1646.00, 
1647.00, 
1648.00, 
1649.00, 
1650.00, 
1651.00, 
1652.00, 
1653.00, 
1654.00, 
1655.00, 
1656.00, 
1657.00, 
1658.00, 
1659.00, 
1660.00, 
1661.00, 
1662.00, 
1663.00, 
1664.00, 
1665.00, 
1666.00, 
1667.00, 
1668.00, 
1669.00, 
1670.00, 
1671.00, 
1672.00, 
1673.00, 
1674.00, 
1675.00, 
1676.00, 
1677.00, 
1678.00, 
1679.00, 
1680.00, 
1681.00, 
1682.00, 
1683.00, 
1684.00, 
1685.00, 
1686.00, 
1687.00, 
1688.00, 
1689.00, 
1690.00, 
1691.00, 
1692.00, 
1693.00, 
1694.00, 
1695.00, 
1696.00, 
1697.00, 
1698.00, 
1699.00, 
1700.00, 
1701.00, 
1702.00, 
1703.00, 
1704.00, 
1705.00, 
1706.00, 
1707.00, 
1708.00, 
1709.00, 
1710.00, 
1711.00, 
1712.00, 
1713.00, 
1714.00, 
1715.00, 
1716.00, 
1717.00, 
1718.00, 
1719.00, 
1720.00, 
1721.00, 
1722.00, 
1723.00, 
1724.00, 
1725.00, 
1726.00, 
1727.00, 
1728.00, 
1729.00, 
1730.00, 
1731.00, 
1732.00, 
1733.00, 
1734.00, 
1735.00, 
1736.00, 
1737.00, 
1738.00, 
1739.00, 
1740.00, 
1741.00, 
1742.00, 
1743.00, 
1744.00, 
1745.00, 
1746.00, 
1747.00, 
1748.00, 
1749.00, 
1750.00, 
1751.00, 
1752.00, 
1753.00, 
1754.00, 
1755.00, 
1756.00, 
1757.00, 
1758.00, 
1759.00, 
1760.00, 
1761.00, 
1762.00, 
1763.00, 
1764.00, 
1765.00, 
1766.00, 
1767.00, 
1768.00, 
1769.00, 
1770.00, 
1771.00, 
1772.00, 
1773.00, 
1774.00, 
1775.00, 
1776.00, 
1777.00, 
1778.00, 
1779.00, 
1780.00, 
1781.00, 
1782.00, 
1783.00, 
1784.00, 
1785.00, 
1786.00, 
1787.00, 
1788.00, 
1789.00, 
1790.00, 
1791.00, 
1792.00, 
1793.00, 
1794.00, 
1795.00, 
1796.00, 
1797.00, 
1798.00, 
1799.00, 
1800.00, 
1801.00, 
1802.00, 
1803.00, 
1804.00, 
1805.00, 
1806.00, 
1807.00, 
1808.00, 
1809.00, 
1810.00, 
1811.00, 
1812.00, 
1813.00, 
1814.00, 
1815.00, 
1816.00, 
1817.00, 
1818.00, 
1819.00, 
1820.00, 
1821.00, 
1822.00, 
1823.00, 
1824.00, 
1825.00, 
1826.00, 
1827.00, 
1828.00, 
1829.00, 
1830.00, 
1831.00, 
1832.00, 
1833.00, 
1834.00, 
1835.00, 
1836.00, 
1837.00, 
1838.00, 
1839.00, 
1840.00, 
1841.00, 
1842.00, 
1843.00, 
1844.00, 
1845.00, 
1846.00, 
1847.00, 
1848.00, 
1849.00, 
1850.00, 
1851.00, 
1852.00, 
1853.00, 
1854.00, 
1855.00, 
1856.00, 
1857.00, 
1858.00, 
1859.00, 
1860.00, 
1861.00, 
1862.00, 
1863.00, 
1864.00, 
1865.00, 
1866.00, 
1867.00, 
1868.00, 
1869.00, 
1870.00, 
1871.00, 
1872.00, 
1873.00, 
1874.00, 
1875.00, 
1876.00, 
1877.00, 
1878.00, 
1879.00, 
1880.00, 
1881.00, 
1882.00, 
1883.00, 
1884.00, 
1885.00, 
1886.00, 
1887.00, 
1888.00, 
1889.00, 
1890.00, 
1891.00, 
1892.00, 
1893.00, 
1894.00, 
1895.00, 
1896.00, 
1897.00, 
1898.00, 
1899.00, 
1900.00, 
1901.00, 
1902.00, 
1903.00, 
1904.00, 
1905.00, 
1906.00, 
1907.00, 
1908.00, 
1909.00, 
1910.00, 
1911.00, 
1912.00, 
1913.00, 
1914.00, 
1915.00, 
1916.00, 
1917.00, 
1918.00, 
1919.00, 
1920.00, 
1921.00, 
1922.00, 
1923.00, 
1924.00, 
1925.00, 
1926.00, 
1927.00, 
1928.00, 
1929.00, 
1930.00, 
1931.00, 
1932.00, 
1933.00, 
1934.00, 
1935.00, 
1936.00, 
1937.00, 
1938.00, 
1939.00, 
1940.00, 
1941.00, 
1942.00, 
1943.00, 
1944.00, 
1945.00, 
1946.00, 
1947.00, 
1948.00, 
1949.00, 
1950.00, 
1951.00, 
1952.00, 
1953.00, 
1954.00, 
1955.00, 
1956.00, 
1957.00, 
1958.00, 
1959.00, 
1960.00, 
1961.00, 
1962.00, 
1963.00, 
1964.00, 
1965.00, 
1966.00, 
1967.00, 
1968.00, 
1969.00, 
1970.00, 
1971.00, 
1972.00, 
1973.00, 
1974.00, 
1975.00, 
1976.00, 
1977.00, 
1978.00, 
1979.00, 
1980.00, 
1981.00, 
1982.00, 
1983.00, 
1984.00, 
1985.00, 
1986.00, 
1987.00, 
1988.00, 
1989.00, 
1990.00, 
1991.00, 
1992.00, 
1993.00, 
1994.00, 
1995.00, 
1996.00, 
1997.00, 
1998.00, 
1999.00, 
2000.00, 
2001.00, 
2002.00, 
2003.00, 
2004.00, 
2005.00, 
2006.00, 
2007.00, 
2008.00, 
2009.00, 
2010.00, 
2011.00, 
2012.00, 
2013.00, 
2014.00, 
2015.00, 
2016.00, 
2017.00, 
2018.00, 
2019.00, 
2020.00, 
2021.00, 
2022.00, 
2023.00, 
2024.00, 
2025.00, 
2026.00, 
2027.00, 
2028.00, 
2029.00, 
2030.00, 
2031.00, 
2032.00, 
2033.00, 
2034.00, 
2035.00, 
2036.00, 
2037.00, 
2038.00, 
2039.00, 
2040.00, 
2041.00, 
2042.00, 
2043.00, 
2044.00, 
2045.00, 
2046.00, 
2047.00, 
2048.00, 
2049.00, 
2050.00, 
2051.00, 
2052.00, 
2053.00, 
2054.00, 
2055.00, 
2056.00, 
2057.00, 
2058.00, 
2059.00, 
2060.00, 
2061.00, 
2062.00, 
2063.00, 
2064.00, 
2065.00, 
2066.00, 
2067.00, 
2068.00, 
2069.00, 
2070.00, 
2071.00, 
2072.00, 
2073.00, 
2074.00, 
2075.00, 
2076.00, 
2077.00, 
2078.00, 
2079.00, 
2080.00, 
2081.00, 
2082.00, 
2083.00, 
2084.00, 
2085.00, 
2086.00, 
2087.00, 
2088.00, 
2089.00, 
2090.00, 
2091.00, 
2092.00, 
2093.00, 
2094.00, 
2095.00, 
2096.00, 
2097.00, 
2098.00, 
2099.00, 
2100.00, 
2101.00, 
2102.00, 
2103.00, 
2104.00, 
2105.00, 
2106.00, 
2107.00, 
2108.00, 
2109.00, 
2110.00, 
2111.00, 
2112.00, 
2113.00, 
2114.00, 
2115.00, 
2116.00, 
2117.00, 
2118.00, 
2119.00, 
2120.00, 
2121.00, 
2122.00, 
2123.00, 
2124.00, 
2125.00, 
2126.00, 
2127.00, 
2128.00, 
2129.00, 
2130.00, 
2131.00, 
2132.00, 
2133.00, 
2134.00, 
2135.00, 
2136.00, 
2137.00, 
2138.00, 
2139.00, 
2140.00, 
2141.00, 
2142.00, 
2143.00, 
2144.00, 
2145.00, 
2146.00, 
2147.00, 
2148.00, 
2149.00, 
2150.00, 
2151.00, 
2152.00, 
2153.00, 
2154.00, 
2155.00, 
2156.00, 
2157.00, 
2158.00, 
2159.00, 
2160.00, 
2161.00, 
2162.00, 
2163.00, 
2164.00, 
2165.00, 
2166.00, 
2167.00, 
2168.00, 
2169.00, 
2170.00, 
2171.00, 
2172.00, 
2173.00, 
2174.00, 
2175.00, 
2176.00, 
2177.00, 
2178.00, 
2179.00, 
2180.00, 
2181.00, 
2182.00, 
2183.00, 
2184.00, 
2185.00, 
2186.00, 
2187.00, 
2188.00, 
2189.00, 
2190.00, 
2191.00, 
2192.00, 
2193.00, 
2194.00, 
2195.00, 
2196.00, 
2197.00, 
2198.00, 
2199.00, 
2200.00, 
2201.00, 
2202.00, 
2203.00, 
2204.00, 
2205.00, 
2206.00, 
2207.00, 
2208.00, 
2209.00, 
2210.00, 
2211.00, 
2212.00, 
2213.00, 
2214.00, 
2215.00, 
2216.00, 
2217.00, 
2218.00, 
2219.00, 
2220.00, 
2221.00, 
2222.00, 
2223.00, 
2224.00, 
2225.00, 
2226.00, 
2227.00, 
2228.00, 
2229.00, 
2230.00, 
2231.00, 
2232.00, 
2233.00, 
2234.00, 
2235.00, 
2236.00, 
2237.00, 
2238.00, 
2239.00, 
2240.00, 
2241.00, 
2242.00, 
2243.00, 
2244.00, 
2245.00, 
2246.00, 
2247.00, 
2248.00, 
2249.00, 
2250.00, 
2251.00, 
2252.00, 
2253.00, 
2254.00, 
2255.00, 
2256.00, 
2257.00, 
2258.00, 
2259.00, 
2260.00, 
2261.00, 
2262.00, 
2263.00, 
2264.00, 
2265.00, 
2266.00, 
2267.00, 
2268.00, 
2269.00, 
2270.00, 
2271.00, 
2272.00, 
2273.00, 
2274.00, 
2275.00, 
2276.00, 
2277.00, 
2278.00, 
2279.00, 
2280.00, 
2281.00, 
2282.00, 
2283.00, 
2284.00, 
2285.00, 
2286.00, 
2287.00, 
2288.00, 
2289.00, 
2290.00, 
2291.00, 
2292.00, 
2293.00, 
2294.00, 
2295.00, 
2296.00, 
2297.00, 
2298.00, 
2299.00, 
2300.00, 
2301.00, 
2302.00, 
2303.00, 
2304.00, 
2305.00, 
2306.00, 
2307.00, 
2308.00, 
2309.00, 
2310.00, 
2311.00, 
2312.00, 
2313.00, 
2314.00, 
2315.00, 
2316.00, 
2317.00, 
2318.00, 
2319.00, 
2320.00, 
2321.00, 
2322.00, 
2323.00, 
2324.00, 
2325.00, 
2326.00, 
2327.00, 
2328.00, 
2329.00, 
2330.00, 
2331.00, 
2332.00, 
2333.00, 
2334.00, 
2335.00, 
2336.00, 
2337.00, 
2338.00, 
2339.00, 
2340.00, 
2341.00, 
2342.00, 
2343.00, 
2344.00, 
2345.00, 
2346.00, 
2347.00, 
2348.00, 
2349.00, 
2350.00, 
2351.00, 
2352.00, 
2353.00, 
2354.00, 
2355.00, 
2356.00, 
2357.00, 
2358.00, 
2359.00, 
2360.00, 
2361.00, 
2362.00, 
2363.00, 
2364.00, 
2365.00, 
2366.00, 
2367.00, 
2368.00, 
2369.00, 
2370.00, 
2371.00, 
2372.00, 
2373.00, 
2374.00, 
2375.00, 
2376.00, 
2377.00, 
2378.00, 
2379.00, 
2380.00, 
2381.00, 
2382.00, 
2383.00, 
2384.00, 
2385.00, 
2386.00, 
2387.00, 
2388.00, 
2389.00, 
2390.00, 
2391.00, 
2392.00, 
2393.00, 
2394.00, 
2395.00, 
2396.00, 
2397.00, 
2398.00, 
2399.00, 
2400.00, 
2401.00, 
2402.00, 
2403.00, 
2404.00, 
2405.00, 
2406.00, 
2407.00, 
2408.00, 
2409.00, 
2410.00, 
2411.00, 
2412.00, 
2413.00, 
2414.00, 
2415.00, 
2416.00, 
2417.00, 
2418.00, 
2419.00, 
2420.00, 
2421.00, 
2422.00, 
2423.00, 
2424.00, 
2425.00, 
2426.00, 
2427.00, 
2428.00, 
2429.00, 
2430.00, 
2431.00, 
2432.00, 
2433.00, 
2434.00, 
2435.00, 
2436.00, 
2437.00, 
2438.00, 
2439.00, 
2440.00, 
2441.00, 
2442.00, 
2443.00, 
2444.00, 
2445.00, 
2446.00, 
2447.00, 
2448.00, 
2449.00, 
2450.00, 
2451.00, 
2452.00, 
2453.00, 
2454.00, 
2455.00, 
2456.00, 
2457.00, 
2458.00, 
2459.00, 
2460.00, 
2461.00, 
2462.00, 
2463.00, 
2464.00, 
2465.00, 
2466.00, 
2467.00, 
2468.00, 
2469.00, 
2470.00, 
2471.00, 
2472.00, 
2473.00, 
2474.00, 
2475.00, 
2476.00, 
2477.00, 
2478.00, 
2479.00, 
2480.00, 
2481.00, 
2482.00, 
2483.00, 
2484.00, 
2485.00, 
2486.00, 
2487.00, 
2488.00, 
2489.00, 
2490.00, 
2491.00, 
2492.00, 
2493.00, 
2494.00, 
2495.00, 
2496.00, 
2497.00, 
2498.00, 
2499.00, 
2500.00, 
2501.00, 
2502.00, 
2503.00, 
2504.00, 
2505.00, 
2506.00, 
2507.00, 
2508.00, 
2509.00, 
2510.00, 
2511.00, 
2512.00, 
2513.00, 
2514.00, 
2515.00, 
2516.00, 
2517.00, 
2518.00, 
2519.00, 
2520.00, 
2521.00, 
2522.00, 
2523.00, 
2524.00, 
2525.00, 
2526.00, 
2527.00, 
2528.00, 
2529.00, 
2530.00, 
2531.00, 
2532.00, 
2533.00, 
2534.00, 
2535.00, 
2536.00, 
2537.00, 
2538.00, 
2539.00, 
2540.00, 
2541.00, 
2542.00, 
2543.00, 
2544.00, 
2545.00, 
2546.00, 
2547.00, 
2548.00, 
2549.00, 
2550.00, 
2551.00, 
2552.00, 
2553.00, 
2554.00, 
2555.00, 
2556.00, 
2557.00, 
2558.00, 
2559.00, 
2560.00, 
2561.00, 
2562.00, 
2563.00, 
2564.00, 
2565.00, 
2566.00, 
2567.00, 
2568.00, 
2569.00, 
2570.00, 
2571.00, 
2572.00, 
2573.00, 
2574.00, 
2575.00, 
2576.00, 
2577.00, 
2578.00, 
2579.00, 
2580.00, 
2581.00, 
2582.00, 
2583.00, 
2584.00, 
2585.00, 
2586.00, 
2587.00, 
2588.00, 
2589.00, 
2590.00, 
2591.00, 
2592.00, 
2593.00, 
2594.00, 
2595.00, 
2596.00, 
2597.00, 
2598.00, 
2599.00, 
2600.00, 
