"2cP1 - RawData"
"Wavelength nm.","T%"
200.00,0.001
201.00,0.002
202.00,-0.002
203.00,0.000
204.00,0.003
205.00,0.001
206.00,0.002
207.00,0.001
208.00,0.000
209.00,0.000
210.00,-0.000
211.00,0.003
212.00,0.002
213.00,-0.000
214.00,0.001
215.00,0.000
216.00,0.001
217.00,0.001
218.00,0.000
219.00,0.001
220.00,0.005
221.00,0.000
222.00,0.002
223.00,0.006
224.00,0.001
225.00,0.001
226.00,-0.002
227.00,0.003
228.00,0.002
229.00,0.000
230.00,-0.000
231.00,-0.001
232.00,0.002
233.00,0.001
234.00,0.001
235.00,-0.000
236.00,0.000
237.00,0.002
238.00,0.002
239.00,-0.001
240.00,0.001
241.00,-0.001
242.00,0.002
243.00,-0.001
244.00,0.000
245.00,0.000
246.00,-0.000
247.00,0.000
248.00,-0.001
249.00,-0.001
250.00,0.000
251.00,0.002
252.00,-0.001
253.00,0.000
254.00,0.002
255.00,0.000
256.00,0.001
257.00,0.001
258.00,0.001
259.00,0.000
260.00,0.001
261.00,-0.002
262.00,-0.001
263.00,0.001
264.00,0.002
265.00,-0.000
266.00,-0.000
267.00,-0.001
268.00,-0.000
269.00,-0.001
270.00,-0.001
271.00,-0.001
272.00,0.001
273.00,0.001
274.00,0.000
275.00,-0.000
276.00,-0.000
277.00,0.001
278.00,0.001
279.00,0.001
280.00,0.001
281.00,0.001
282.00,-0.001
283.00,-0.001
284.00,-0.001
285.00,0.000
286.00,0.002
287.00,0.001
288.00,0.001
289.00,0.001
290.00,-0.000
291.00,-0.000
292.00,-0.000
293.00,-0.001
294.00,0.001
295.00,0.001
296.00,0.000
297.00,-0.000
298.00,0.001
299.00,0.001
300.00,0.002
301.00,0.003
302.00,0.003
303.00,0.004
304.00,0.006
305.00,0.011
306.00,0.018
307.00,0.027
308.00,0.041
309.00,0.063
310.00,0.090
311.00,0.119
312.00,0.162
313.00,0.221
314.00,0.290
315.00,0.375
316.00,0.476
317.00,0.595
318.00,0.737
319.00,0.907
320.00,1.102
321.00,1.313
322.00,1.561
323.00,1.833
324.00,2.121
325.00,2.399
326.00,2.705
327.00,3.055
328.00,3.430
329.00,3.758
330.00,4.158
331.00,4.547
332.00,4.925
333.00,5.338
334.00,5.710
335.00,6.130
336.00,6.510
337.00,6.928
338.00,7.287
339.00,7.635
340.00,8.003
341.00,8.356
342.00,8.708
343.00,9.012
344.00,9.312
345.00,9.602
346.00,9.854
347.00,10.137
348.00,10.368
349.00,10.578
350.00,10.780
351.00,11.000
352.00,11.163
353.00,11.339
354.00,11.501
355.00,11.631
356.00,11.757
357.00,11.882
358.00,11.975
359.00,12.085
360.00,12.175
361.00,12.240
362.00,12.330
363.00,12.403
364.00,12.451
365.00,12.439
366.00,12.525
367.00,12.559
368.00,12.556
369.00,12.580
370.00,12.572
371.00,12.565
372.00,12.558
373.00,12.508
374.00,12.491
375.00,12.470
376.00,12.396
377.00,12.393
378.00,12.326
379.00,12.284
380.00,12.236
381.00,12.194
382.00,12.192
383.00,12.170
384.00,12.137
385.00,12.144
386.00,12.135
387.00,12.147
388.00,12.135
389.00,12.126
390.00,12.131
391.00,12.096
392.00,12.106
393.00,12.094
394.00,12.099
395.00,12.077
396.00,12.065
397.00,12.048
398.00,12.041
399.00,12.032
400.00,12.011
401.00,11.967
402.00,11.976
403.00,11.973
404.00,11.984
405.00,11.973
406.00,11.998
407.00,11.925
408.00,11.921
409.00,11.892
410.00,11.884
411.00,11.855
412.00,11.828
413.00,11.844
414.00,11.843
415.00,11.832
416.00,11.828
417.00,11.836
418.00,11.846
419.00,11.861
420.00,11.870
421.00,11.901
422.00,11.914
423.00,11.926
424.00,11.942
425.00,11.971
426.00,11.980
427.00,12.016
428.00,12.062
429.00,12.084
430.00,12.122
431.00,12.162
432.00,12.210
433.00,12.269
434.00,12.283
435.00,12.349
436.00,12.373
437.00,12.471
438.00,12.498
439.00,12.559
440.00,12.620
441.00,12.689
442.00,12.775
443.00,12.826
444.00,12.890
445.00,12.986
446.00,13.049
447.00,13.134
448.00,13.215
449.00,13.316
450.00,13.409
451.00,13.519
452.00,13.600
453.00,13.658
454.00,13.769
455.00,13.885
456.00,13.964
457.00,14.066
458.00,14.169
459.00,14.263
460.00,14.383
461.00,14.466
462.00,14.599
463.00,14.719
464.00,14.836
465.00,14.946
466.00,15.060
467.00,15.162
468.00,15.297
469.00,15.413
470.00,15.535
471.00,15.640
472.00,15.742
473.00,15.859
474.00,15.963
475.00,16.097
476.00,16.214
477.00,16.331
478.00,16.473
479.00,16.602
480.00,16.747
481.00,16.878
482.00,17.020
483.00,17.148
484.00,17.317
485.00,17.456
486.00,17.594
487.00,17.739
488.00,17.885
489.00,18.053
490.00,18.146
491.00,18.328
492.00,18.413
493.00,18.646
494.00,18.770
495.00,18.883
496.00,18.993
497.00,19.139
498.00,19.312
499.00,19.425
500.00,19.553
501.00,19.681
502.00,19.816
503.00,19.908
504.00,20.113
505.00,20.258
506.00,20.370
507.00,20.514
508.00,20.667
509.00,20.798
510.00,20.901
511.00,21.063
512.00,21.203
513.00,21.307
514.00,21.492
515.00,21.581
516.00,21.688
517.00,21.843
518.00,21.969
519.00,22.061
520.00,22.179
521.00,22.265
522.00,22.376
523.00,22.485
524.00,22.567
525.00,22.705
526.00,22.795
527.00,22.881
528.00,22.946
529.00,23.119
530.00,23.262
531.00,23.414
532.00,23.518
533.00,23.583
534.00,23.729
535.00,23.808
536.00,23.938
537.00,24.005
538.00,24.101
539.00,24.191
540.00,24.301
541.00,24.375
542.00,24.444
543.00,24.548
544.00,24.651
545.00,24.742
546.00,24.805
547.00,24.909
548.00,24.966
549.00,25.050
550.00,25.166
551.00,25.231
552.00,25.339
553.00,25.420
554.00,25.483
555.00,25.544
556.00,25.620
557.00,25.705
558.00,25.779
559.00,25.819
560.00,25.895
561.00,25.994
562.00,26.046
563.00,26.071
564.00,26.170
565.00,26.263
566.00,26.236
567.00,26.330
568.00,26.362
569.00,26.419
570.00,26.482
571.00,26.519
572.00,26.618
573.00,26.620
574.00,26.707
575.00,26.743
576.00,26.776
577.00,26.873
578.00,26.936
579.00,27.003
580.00,27.095
581.00,27.166
582.00,27.243
583.00,27.314
584.00,27.394
585.00,27.460
586.00,27.524
587.00,27.621
588.00,27.637
589.00,27.706
590.00,27.768
591.00,27.825
592.00,27.844
593.00,27.906
594.00,27.978
595.00,28.015
596.00,28.074
597.00,28.175
598.00,28.256
599.00,28.275
600.00,28.354
601.00,28.485
602.00,28.477
603.00,28.538
604.00,28.613
605.00,28.649
606.00,28.723
607.00,28.778
608.00,28.897
609.00,28.912
610.00,28.927
611.00,29.027
612.00,29.075
613.00,29.115
614.00,29.215
615.00,29.256
616.00,29.344
617.00,29.392
618.00,29.494
619.00,29.563
620.00,29.610
621.00,29.719
622.00,29.762
623.00,29.888
624.00,29.911
625.00,30.037
626.00,30.100
627.00,30.132
628.00,30.245
629.00,30.336
630.00,30.394
631.00,30.499
632.00,30.584
633.00,30.667
634.00,30.730
635.00,30.940
636.00,31.010
637.00,31.122
638.00,31.214
639.00,31.324
640.00,31.398
641.00,31.491
642.00,31.602
643.00,31.704
644.00,31.796
645.00,31.913
646.00,32.052
647.00,32.102
648.00,32.258
649.00,32.346
650.00,32.430
651.00,32.576
652.00,32.696
653.00,32.824
654.00,32.928
655.00,33.011
656.00,33.166
657.00,33.323
658.00,33.449
659.00,33.597
660.00,33.571
661.00,33.771
662.00,33.956
663.00,34.065
664.00,34.196
665.00,34.322
666.00,34.408
667.00,34.668
668.00,34.849
669.00,34.907
670.00,35.000
671.00,35.094
672.00,35.165
673.00,35.427
674.00,35.579
675.00,35.717
676.00,35.881
677.00,35.951
678.00,36.068
679.00,36.182
680.00,36.372
681.00,36.540
682.00,36.687
683.00,36.778
684.00,37.012
685.00,37.135
686.00,37.147
687.00,37.369
688.00,37.489
689.00,37.468
690.00,37.737
691.00,37.903
692.00,38.102
693.00,38.153
694.00,38.318
695.00,38.539
696.00,38.614
697.00,38.859
698.00,38.990
699.00,39.039
700.00,39.232
701.00,39.306
702.00,39.572
703.00,39.646
704.00,39.744
705.00,39.967
706.00,40.064
707.00,40.243
708.00,40.236
709.00,40.456
710.00,40.666
711.00,40.678
712.00,40.825
713.00,40.915
714.00,41.063
715.00,41.190
716.00,41.290
717.00,41.421
718.00,41.565
719.00,41.745
720.00,41.766
721.00,45.593
722.00,45.665
723.00,45.755
724.00,45.878
725.00,45.929
726.00,45.975
727.00,46.080
728.00,46.132
729.00,46.223
730.00,46.338
731.00,46.424
732.00,46.522
733.00,46.621
734.00,46.680
735.00,46.785
736.00,46.836
737.00,46.968
738.00,47.076
739.00,47.141
740.00,47.170
741.00,47.297
742.00,47.303
743.00,47.393
744.00,47.427
745.00,47.534
746.00,47.545
747.00,47.631
748.00,47.671
749.00,47.689
750.00,47.800
751.00,47.783
752.00,47.880
753.00,47.917
754.00,47.945
755.00,48.056
756.00,48.054
757.00,48.124
758.00,48.253
759.00,48.286
760.00,48.248
761.00,48.328
762.00,48.415
763.00,48.484
764.00,48.511
765.00,48.521
766.00,48.633
767.00,48.709
768.00,48.699
769.00,48.729
770.00,48.772
771.00,48.836
772.00,48.879
773.00,48.938
774.00,48.972
775.00,49.018
776.00,49.039
777.00,49.146
778.00,49.153
779.00,49.134
780.00,49.198
781.00,49.156
782.00,49.257
783.00,49.223
784.00,49.256
785.00,49.386
786.00,49.336
787.00,49.340
788.00,49.480
789.00,49.444
790.00,49.455
791.00,49.482
792.00,49.426
793.00,49.488
794.00,49.497
795.00,49.498
796.00,49.549
797.00,49.489
798.00,49.543
799.00,49.562
800.00,49.549
801.00,49.577
802.00,49.524
803.00,49.599
804.00,49.586
805.00,49.588
806.00,49.578
807.00,49.634
808.00,49.553
809.00,49.569
810.00,49.681
811.00,49.568
812.00,49.531
813.00,49.697
814.00,49.664
815.00,49.719
816.00,49.650
817.00,49.691
818.00,49.644
819.00,49.653
820.00,49.602
821.00,49.629
822.00,49.612
823.00,49.611
824.00,49.683
825.00,49.626
826.00,49.668
827.00,49.667
828.00,49.849
829.00,49.664
830.00,49.748
831.00,52.170
832.00,52.170
833.00,52.169
834.00,52.161
835.00,52.140
836.00,52.122
837.00,52.130
838.00,52.089
839.00,52.107
840.00,52.087
841.00,52.076
842.00,52.108
843.00,52.125
844.00,52.111
845.00,52.076
846.00,52.109
847.00,52.084
848.00,52.034
849.00,52.008
850.00,52.025
851.00,51.898
852.00,52.003
853.00,51.928
854.00,51.887
855.00,51.902
856.00,51.898
857.00,51.866
858.00,51.887
859.00,51.825
860.00,51.849
861.00,51.829
862.00,51.786
863.00,51.832
864.00,51.816
865.00,51.813
866.00,51.794
867.00,51.787
868.00,51.774
869.00,51.788
870.00,51.769
871.00,51.786
872.00,51.789
873.00,51.731
874.00,51.804
875.00,51.767
876.00,51.788
877.00,51.744
878.00,51.755
879.00,51.732
880.00,51.743
881.00,51.699
882.00,51.754
883.00,51.696
884.00,51.641
885.00,51.667
886.00,51.695
887.00,51.634
888.00,51.600
889.00,51.650
890.00,51.521
891.00,51.548
892.00,51.524
893.00,51.521
894.00,51.560
895.00,51.389
896.00,51.470
897.00,51.482
898.00,51.457
899.00,51.437
900.00,51.459
901.00,51.450
902.00,51.442
903.00,51.399
904.00,51.431
905.00,51.382
906.00,51.424
907.00,51.377
908.00,51.350
909.00,51.342
910.00,51.335
911.00,51.310
912.00,51.317
913.00,51.249
914.00,51.265
915.00,51.245
916.00,51.221
917.00,51.211
918.00,51.203
919.00,51.193
920.00,51.144
921.00,51.154
922.00,51.137
923.00,51.112
924.00,51.092
925.00,51.086
926.00,51.083
927.00,51.078
928.00,51.050
929.00,51.023
930.00,51.010
931.00,50.995
932.00,50.975
933.00,50.978
934.00,50.953
935.00,50.930
936.00,50.902
937.00,50.922
938.00,50.814
939.00,50.879
940.00,50.847
941.00,50.862
942.00,50.805
943.00,50.825
944.00,50.809
945.00,50.788
946.00,50.756
947.00,50.742
948.00,50.700
949.00,50.680
950.00,50.677
951.00,50.657
952.00,50.626
953.00,50.609
954.00,50.595
955.00,50.563
956.00,50.551
957.00,50.517
958.00,50.530
959.00,50.465
960.00,50.456
961.00,50.457
962.00,50.460
963.00,50.422
964.00,50.426
965.00,50.397
966.00,50.406
967.00,50.396
968.00,50.364
969.00,50.395
970.00,50.373
971.00,50.383
972.00,50.365
973.00,50.390
974.00,50.411
975.00,50.379
976.00,50.401
977.00,50.384
978.00,50.418
979.00,50.371
980.00,50.409
981.00,50.399
982.00,50.385
983.00,50.399
984.00,50.381
985.00,50.405
986.00,50.351
987.00,50.375
988.00,50.354
989.00,50.332
990.00,50.329
991.00,50.320
992.00,50.328
993.00,50.283
994.00,50.283
995.00,50.273
996.00,50.275
997.00,50.277
998.00,50.232
999.00,50.243
1000.00,50.191
1001.00,50.209
1002.00,50.207
1003.00,50.172
1004.00,50.173
1005.00,50.159
1006.00,50.177
1007.00,50.143
1008.00,50.138
1009.00,50.125
1010.00,50.107
1011.00,50.094
1012.00,50.084
1013.00,50.068
1014.00,50.019
1015.00,50.042
1016.00,50.013
1017.00,50.012
1018.00,50.059
1019.00,49.963
1020.00,49.963
1021.00,49.940
1022.00,49.927
1023.00,49.892
1024.00,49.904
1025.00,49.874
1026.00,49.868
1027.00,49.859
1028.00,49.841
1029.00,49.831
1030.00,49.816
1031.00,49.809
1032.00,49.762
1033.00,49.765
1034.00,49.753
1035.00,49.722
1036.00,49.701
1037.00,49.689
1038.00,49.687
1039.00,49.642
1040.00,49.646
1041.00,49.610
1042.00,49.592
1043.00,49.568
1044.00,49.585
1045.00,49.562
1046.00,49.567
1047.00,49.578
1048.00,49.583
1049.00,49.611
1050.00,49.612
1051.00,49.639
1052.00,49.637
1053.00,49.658
1054.00,49.641
1055.00,49.668
1056.00,49.669
1057.00,49.679
1058.00,49.657
1059.00,49.651
1060.00,49.659
1061.00,49.647
1062.00,49.634
1063.00,49.653
1064.00,49.630
1065.00,49.623
1066.00,49.604
1067.00,49.595
1068.00,49.608
1069.00,49.573
1070.00,49.555
1071.00,49.560
1072.00,49.565
1073.00,49.551
1074.00,49.545
1075.00,49.521
1076.00,49.521
1077.00,49.500
1078.00,49.493
1079.00,49.490
1080.00,49.472
1081.00,49.475
1082.00,49.474
1083.00,49.446
1084.00,49.448
1085.00,49.441
1086.00,49.430
1087.00,49.425
1088.00,49.410
1089.00,49.392
1090.00,49.403
1091.00,49.378
1092.00,49.377
1093.00,49.385
1094.00,49.374
1095.00,49.349
1096.00,49.341
1097.00,49.323
1098.00,49.329
1099.00,49.309
1100.00,49.298
1101.00,49.282
1102.00,49.270
1103.00,49.270
1104.00,49.265
1105.00,49.239
1106.00,49.236
1107.00,49.238
1108.00,49.221
1109.00,49.216
1110.00,49.205
1111.00,49.206
1112.00,49.196
1113.00,49.171
1114.00,49.177
1115.00,49.178
1116.00,49.169
1117.00,49.161
1118.00,49.154
1119.00,49.148
1120.00,49.148
1121.00,49.129
1122.00,49.126
1123.00,49.118
1124.00,49.117
1125.00,49.132
1126.00,49.091
1127.00,49.090
1128.00,49.089
1129.00,49.063
1130.00,49.052
1131.00,49.049
1132.00,49.051
1133.00,49.046
1134.00,49.043
1135.00,49.029
1136.00,49.020
1137.00,49.024
1138.00,49.007
1139.00,49.021
1140.00,49.021
1141.00,48.985
1142.00,48.990
1143.00,48.984
1144.00,48.967
1145.00,48.970
1146.00,48.970
1147.00,48.966
1148.00,48.959
1149.00,48.959
1150.00,48.957
1151.00,48.966
1152.00,48.940
1153.00,48.934
1154.00,48.916
1155.00,48.930
1156.00,48.915
1157.00,48.912
1158.00,48.923
1159.00,48.909
1160.00,48.901
1161.00,48.911
1162.00,48.897
1163.00,48.897
1164.00,48.896
1165.00,48.893
1166.00,48.885
1167.00,48.900
1168.00,48.888
1169.00,48.879
1170.00,48.884
1171.00,48.851
1172.00,48.868
1173.00,48.879
1174.00,48.871
1175.00,48.869
1176.00,48.864
1177.00,48.864
1178.00,48.866
1179.00,48.871
1180.00,48.861
1181.00,48.881
1182.00,48.863
1183.00,48.845
1184.00,48.843
1185.00,48.849
1186.00,48.836
1187.00,48.844
1188.00,48.823
1189.00,48.828
1190.00,48.825
1191.00,48.820
1192.00,48.838
1193.00,48.823
1194.00,48.835
1195.00,48.807
1196.00,48.830
1197.00,48.829
1198.00,48.797
1199.00,48.816
1200.00,48.826
1201.00,48.819
1202.00,48.800
1203.00,48.818
1204.00,48.801
1205.00,48.808
1206.00,48.808
1207.00,48.814
1208.00,48.792
1209.00,48.784
1210.00,48.797
1211.00,48.784
1212.00,48.786
1213.00,48.762
1214.00,48.796
1215.00,48.768
1216.00,48.775
1217.00,48.799
1218.00,48.782
1219.00,48.797
1220.00,48.778
1221.00,48.781
1222.00,48.773
1223.00,48.768
1224.00,48.790
1225.00,48.774
1226.00,48.771
1227.00,48.774
1228.00,48.776
1229.00,48.809
1230.00,48.826
1231.00,48.822
1232.00,48.831
1233.00,48.830
1234.00,48.821
1235.00,48.815
1236.00,48.829
1237.00,48.805
1238.00,48.815
1239.00,48.822
1240.00,48.816
1241.00,48.816
1242.00,48.807
1243.00,48.832
1244.00,48.813
1245.00,48.823
1246.00,48.845
1247.00,48.848
1248.00,48.830
1249.00,48.834
1250.00,48.846
1251.00,48.835
1252.00,48.860
1253.00,48.838
1254.00,48.864
1255.00,48.866
1256.00,48.829
1257.00,48.819
1258.00,48.860
1259.00,48.857
1260.00,48.883
1261.00,48.879
1262.00,48.882
1263.00,48.885
1264.00,48.878
1265.00,48.886
1266.00,48.885
1267.00,48.865
1268.00,48.904
1269.00,48.889
1270.00,48.893
1271.00,48.901
1272.00,48.913
1273.00,48.914
1274.00,48.906
1275.00,48.916
1276.00,48.923
1277.00,48.915
1278.00,48.935
1279.00,48.936
1280.00,48.949
1281.00,48.938
1282.00,48.941
1283.00,49.001
1284.00,48.945
1285.00,48.936
1286.00,48.940
1287.00,48.934
1288.00,48.956
1289.00,48.943
1290.00,48.971
1291.00,48.969
1292.00,48.979
1293.00,48.972
1294.00,48.995
1295.00,48.996
1296.00,48.988
1297.00,48.989
1298.00,48.997
1299.00,48.994
1300.00,48.996
1301.00,49.010
1302.00,49.011
1303.00,49.035
1304.00,49.011
1305.00,49.028
1306.00,49.030
1307.00,49.043
1308.00,49.046
1309.00,49.041
1310.00,49.058
1311.00,49.045
1312.00,49.049
1313.00,49.056
1314.00,49.055
1315.00,49.059
1316.00,49.070
1317.00,49.082
1318.00,49.075
1319.00,49.078
1320.00,49.107
1321.00,49.277
1322.00,49.293
1323.00,49.286
1324.00,49.300
1325.00,49.270
1326.00,49.300
1327.00,49.296
1328.00,49.269
1329.00,49.279
1330.00,49.297
1331.00,49.276
1332.00,49.285
1333.00,49.285
1334.00,49.325
1335.00,49.335
1336.00,49.349
1337.00,49.383
1338.00,49.461
1339.00,49.493
1340.00,49.552
1341.00,49.609
1342.00,49.673
1343.00,49.723
1344.00,49.761
1345.00,49.820
1346.00,49.865
1347.00,49.869
1348.00,49.888
1349.00,49.949
1350.00,49.933
1351.00,49.972
1352.00,49.956
1353.00,49.990
1354.00,49.971
1355.00,49.945
1356.00,49.978
1357.00,49.981
1358.00,49.982
1359.00,50.004
1360.00,50.016
1361.00,49.950
1362.00,49.953
1363.00,50.074
1364.00,49.956
1365.00,49.987
1366.00,50.056
1367.00,49.967
1368.00,49.958
1369.00,49.973
1370.00,49.979
1371.00,49.920
1372.00,49.946
1373.00,49.965
1374.00,49.980
1375.00,49.946
1376.00,49.941
1377.00,49.978
1378.00,50.019
1379.00,49.980
1380.00,49.959
1381.00,50.017
1382.00,49.890
1383.00,49.936
1384.00,49.904
1385.00,49.937
1386.00,49.942
1387.00,49.930
1388.00,49.889
1389.00,49.907
1390.00,49.999
1391.00,49.922
1392.00,49.944
1393.00,49.949
1394.00,49.907
1395.00,49.865
1396.00,49.840
1397.00,49.941
1398.00,49.979
1399.00,49.928
1400.00,49.910
1401.00,49.949
1402.00,49.970
1403.00,49.902
1404.00,49.949
1405.00,49.970
1406.00,49.947
1407.00,50.017
1408.00,49.944
1409.00,49.968
1410.00,49.981
1411.00,50.019
1412.00,50.133
1413.00,50.324
1414.00,49.981
1415.00,50.028
1416.00,50.050
1417.00,50.064
1418.00,50.056
1419.00,50.030
1420.00,50.072
1421.00,50.109
1422.00,50.097
1423.00,50.111
1424.00,50.119
1425.00,50.131
1426.00,50.158
1427.00,50.154
1428.00,50.167
1429.00,50.201
1430.00,50.210
1431.00,50.200
1432.00,50.219
1433.00,50.246
1434.00,50.237
1435.00,50.288
1436.00,50.281
1437.00,50.294
1438.00,50.301
1439.00,50.335
1440.00,50.355
1441.00,50.346
1442.00,50.360
1443.00,50.398
1444.00,50.416
1445.00,50.392
1446.00,50.399
1447.00,50.443
1448.00,50.475
1449.00,50.471
1450.00,50.466
1451.00,50.500
1452.00,50.499
1453.00,50.523
1454.00,50.525
1455.00,50.546
1456.00,50.568
1457.00,50.561
1458.00,50.588
1459.00,50.608
1460.00,50.612
1461.00,50.631
1462.00,50.660
1463.00,50.665
1464.00,50.662
1465.00,50.688
1466.00,50.689
1467.00,50.721
1468.00,50.747
1469.00,50.732
1470.00,50.748
1471.00,50.759
1472.00,50.774
1473.00,50.791
1474.00,50.806
1475.00,50.815
1476.00,50.814
1477.00,50.821
1478.00,50.846
1479.00,50.851
1480.00,50.863
1481.00,50.875
1482.00,50.909
1483.00,50.917
1484.00,50.925
1485.00,50.950
1486.00,50.947
1487.00,50.948
1488.00,50.956
1489.00,50.974
1490.00,50.970
1491.00,50.985
1492.00,51.009
1493.00,51.016
1494.00,51.038
1495.00,51.065
1496.00,51.056
1497.00,51.061
1498.00,51.062
1499.00,51.088
1500.00,51.112
1501.00, 
1502.00, 
1503.00, 
1504.00, 
1505.00, 
1506.00, 
1507.00, 
1508.00, 
1509.00, 
1510.00, 
1511.00, 
1512.00, 
1513.00, 
1514.00, 
1515.00, 
1516.00, 
1517.00, 
1518.00, 
1519.00, 
1520.00, 
1521.00, 
1522.00, 
1523.00, 
1524.00, 
1525.00, 
1526.00, 
1527.00, 
1528.00, 
1529.00, 
1530.00, 
1531.00, 
1532.00, 
1533.00, 
1534.00, 
1535.00, 
1536.00, 
1537.00, 
1538.00, 
1539.00, 
1540.00, 
1541.00, 
1542.00, 
1543.00, 
1544.00, 
1545.00, 
1546.00, 
1547.00, 
1548.00, 
1549.00, 
1550.00, 
1551.00, 
1552.00, 
1553.00, 
1554.00, 
1555.00, 
1556.00, 
1557.00, 
1558.00, 
1559.00, 
1560.00, 
1561.00, 
1562.00, 
1563.00, 
1564.00, 
1565.00, 
1566.00, 
1567.00, 
1568.00, 
1569.00, 
1570.00, 
1571.00, 
1572.00, 
1573.00, 
1574.00, 
1575.00, 
1576.00, 
1577.00, 
1578.00, 
1579.00, 
1580.00, 
1581.00, 
1582.00, 
1583.00, 
1584.00, 
1585.00, 
1586.00, 
1587.00, 
1588.00, 
1589.00, 
1590.00, 
1591.00, 
1592.00, 
1593.00, 
1594.00, 
1595.00, 
1596.00, 
1597.00, 
1598.00, 
1599.00, 
1600.00, 
1601.00, 
1602.00, 
1603.00, 
1604.00, 
1605.00, 
1606.00, 
1607.00, 
1608.00, 
1609.00, 
1610.00, 
1611.00, 
1612.00, 
1613.00, 
1614.00, 
1615.00, 
1616.00, 
1617.00, 
1618.00, 
1619.00, 
1620.00, 
1621.00, 
1622.00, 
1623.00, 
1624.00, 
1625.00, 
1626.00, 
1627.00, 
1628.00, 
1629.00, 
1630.00, 
1631.00, 
1632.00, 
1633.00, 
1634.00, 
1635.00, 
1636.00, 
1637.00, 
1638.00, 
1639.00, 
1640.00, 
1641.00, 
1642.00, 
1643.00, 
1644.00, 
1645.00, 
1646.00, 
1647.00, 
1648.00, 
1649.00, 
1650.00, 
1651.00, 
1652.00, 
1653.00, 
1654.00, 
1655.00, 
1656.00, 
1657.00, 
1658.00, 
1659.00, 
1660.00, 
1661.00, 
1662.00, 
1663.00, 
1664.00, 
1665.00, 
1666.00, 
1667.00, 
1668.00, 
1669.00, 
1670.00, 
1671.00, 
1672.00, 
1673.00, 
1674.00, 
1675.00, 
1676.00, 
1677.00, 
1678.00, 
1679.00, 
1680.00, 
1681.00, 
1682.00, 
1683.00, 
1684.00, 
1685.00, 
1686.00, 
1687.00, 
1688.00, 
1689.00, 
1690.00, 
1691.00, 
1692.00, 
1693.00, 
1694.00, 
1695.00, 
1696.00, 
1697.00, 
1698.00, 
1699.00, 
1700.00, 
1701.00, 
1702.00, 
1703.00, 
1704.00, 
1705.00, 
1706.00, 
1707.00, 
1708.00, 
1709.00, 
1710.00, 
1711.00, 
1712.00, 
1713.00, 
1714.00, 
1715.00, 
1716.00, 
1717.00, 
1718.00, 
1719.00, 
1720.00, 
1721.00, 
1722.00, 
1723.00, 
1724.00, 
1725.00, 
1726.00, 
1727.00, 
1728.00, 
1729.00, 
1730.00, 
1731.00, 
1732.00, 
1733.00, 
1734.00, 
1735.00, 
1736.00, 
1737.00, 
1738.00, 
1739.00, 
1740.00, 
1741.00, 
1742.00, 
1743.00, 
1744.00, 
1745.00, 
1746.00, 
1747.00, 
1748.00, 
1749.00, 
1750.00, 
1751.00, 
1752.00, 
1753.00, 
1754.00, 
1755.00, 
1756.00, 
1757.00, 
1758.00, 
1759.00, 
1760.00, 
1761.00, 
1762.00, 
1763.00, 
1764.00, 
1765.00, 
1766.00, 
1767.00, 
1768.00, 
1769.00, 
1770.00, 
1771.00, 
1772.00, 
1773.00, 
1774.00, 
1775.00, 
1776.00, 
1777.00, 
1778.00, 
1779.00, 
1780.00, 
1781.00, 
1782.00, 
1783.00, 
1784.00, 
1785.00, 
1786.00, 
1787.00, 
1788.00, 
1789.00, 
1790.00, 
1791.00, 
1792.00, 
1793.00, 
1794.00, 
1795.00, 
1796.00, 
1797.00, 
1798.00, 
1799.00, 
1800.00, 
1801.00, 
1802.00, 
1803.00, 
1804.00, 
1805.00, 
1806.00, 
1807.00, 
1808.00, 
1809.00, 
1810.00, 
1811.00, 
1812.00, 
1813.00, 
1814.00, 
1815.00, 
1816.00, 
1817.00, 
1818.00, 
1819.00, 
1820.00, 
1821.00, 
1822.00, 
1823.00, 
1824.00, 
1825.00, 
1826.00, 
1827.00, 
1828.00, 
1829.00, 
1830.00, 
1831.00, 
1832.00, 
1833.00, 
1834.00, 
1835.00, 
1836.00, 
1837.00, 
1838.00, 
1839.00, 
1840.00, 
1841.00, 
1842.00, 
1843.00, 
1844.00, 
1845.00, 
1846.00, 
1847.00, 
1848.00, 
1849.00, 
1850.00, 
1851.00, 
1852.00, 
1853.00, 
1854.00, 
1855.00, 
1856.00, 
1857.00, 
1858.00, 
1859.00, 
1860.00, 
1861.00, 
1862.00, 
1863.00, 
1864.00, 
1865.00, 
1866.00, 
1867.00, 
1868.00, 
1869.00, 
1870.00, 
1871.00, 
1872.00, 
1873.00, 
1874.00, 
1875.00, 
1876.00, 
1877.00, 
1878.00, 
1879.00, 
1880.00, 
1881.00, 
1882.00, 
1883.00, 
1884.00, 
1885.00, 
1886.00, 
1887.00, 
1888.00, 
1889.00, 
1890.00, 
1891.00, 
1892.00, 
1893.00, 
1894.00, 
1895.00, 
1896.00, 
1897.00, 
1898.00, 
1899.00, 
1900.00, 
1901.00, 
1902.00, 
1903.00, 
1904.00, 
1905.00, 
1906.00, 
1907.00, 
1908.00, 
1909.00, 
1910.00, 
1911.00, 
1912.00, 
1913.00, 
1914.00, 
1915.00, 
1916.00, 
1917.00, 
1918.00, 
1919.00, 
1920.00, 
1921.00, 
1922.00, 
1923.00, 
1924.00, 
1925.00, 
1926.00, 
1927.00, 
1928.00, 
1929.00, 
1930.00, 
1931.00, 
1932.00, 
1933.00, 
1934.00, 
1935.00, 
1936.00, 
1937.00, 
1938.00, 
1939.00, 
1940.00, 
1941.00, 
1942.00, 
1943.00, 
1944.00, 
1945.00, 
1946.00, 
1947.00, 
1948.00, 
1949.00, 
1950.00, 
1951.00, 
1952.00, 
1953.00, 
1954.00, 
1955.00, 
1956.00, 
1957.00, 
1958.00, 
1959.00, 
1960.00, 
1961.00, 
1962.00, 
1963.00, 
1964.00, 
1965.00, 
1966.00, 
1967.00, 
1968.00, 
1969.00, 
1970.00, 
1971.00, 
1972.00, 
1973.00, 
1974.00, 
1975.00, 
1976.00, 
1977.00, 
1978.00, 
1979.00, 
1980.00, 
1981.00, 
1982.00, 
1983.00, 
1984.00, 
1985.00, 
1986.00, 
1987.00, 
1988.00, 
1989.00, 
1990.00, 
1991.00, 
1992.00, 
1993.00, 
1994.00, 
1995.00, 
1996.00, 
1997.00, 
1998.00, 
1999.00, 
2000.00, 
2001.00, 
2002.00, 
2003.00, 
2004.00, 
2005.00, 
2006.00, 
2007.00, 
2008.00, 
2009.00, 
2010.00, 
2011.00, 
2012.00, 
2013.00, 
2014.00, 
2015.00, 
2016.00, 
2017.00, 
2018.00, 
2019.00, 
2020.00, 
2021.00, 
2022.00, 
2023.00, 
2024.00, 
2025.00, 
2026.00, 
2027.00, 
2028.00, 
2029.00, 
2030.00, 
2031.00, 
2032.00, 
2033.00, 
2034.00, 
2035.00, 
2036.00, 
2037.00, 
2038.00, 
2039.00, 
2040.00, 
2041.00, 
2042.00, 
2043.00, 
2044.00, 
2045.00, 
2046.00, 
2047.00, 
2048.00, 
2049.00, 
2050.00, 
2051.00, 
2052.00, 
2053.00, 
2054.00, 
2055.00, 
2056.00, 
2057.00, 
2058.00, 
2059.00, 
2060.00, 
2061.00, 
2062.00, 
2063.00, 
2064.00, 
2065.00, 
2066.00, 
2067.00, 
2068.00, 
2069.00, 
2070.00, 
2071.00, 
2072.00, 
2073.00, 
2074.00, 
2075.00, 
2076.00, 
2077.00, 
2078.00, 
2079.00, 
2080.00, 
2081.00, 
2082.00, 
2083.00, 
2084.00, 
2085.00, 
2086.00, 
2087.00, 
2088.00, 
2089.00, 
2090.00, 
2091.00, 
2092.00, 
2093.00, 
2094.00, 
2095.00, 
2096.00, 
2097.00, 
2098.00, 
2099.00, 
2100.00, 
2101.00, 
2102.00, 
2103.00, 
2104.00, 
2105.00, 
2106.00, 
2107.00, 
2108.00, 
2109.00, 
2110.00, 
2111.00, 
2112.00, 
2113.00, 
2114.00, 
2115.00, 
2116.00, 
2117.00, 
2118.00, 
2119.00, 
2120.00, 
2121.00, 
2122.00, 
2123.00, 
2124.00, 
2125.00, 
2126.00, 
2127.00, 
2128.00, 
2129.00, 
2130.00, 
2131.00, 
2132.00, 
2133.00, 
2134.00, 
2135.00, 
2136.00, 
2137.00, 
2138.00, 
2139.00, 
2140.00, 
2141.00, 
2142.00, 
2143.00, 
2144.00, 
2145.00, 
2146.00, 
2147.00, 
2148.00, 
2149.00, 
2150.00, 
2151.00, 
2152.00, 
2153.00, 
2154.00, 
2155.00, 
2156.00, 
2157.00, 
2158.00, 
2159.00, 
2160.00, 
2161.00, 
2162.00, 
2163.00, 
2164.00, 
2165.00, 
2166.00, 
2167.00, 
2168.00, 
2169.00, 
2170.00, 
2171.00, 
2172.00, 
2173.00, 
2174.00, 
2175.00, 
2176.00, 
2177.00, 
2178.00, 
2179.00, 
2180.00, 
2181.00, 
2182.00, 
2183.00, 
2184.00, 
2185.00, 
2186.00, 
2187.00, 
2188.00, 
2189.00, 
2190.00, 
2191.00, 
2192.00, 
2193.00, 
2194.00, 
2195.00, 
2196.00, 
2197.00, 
2198.00, 
2199.00, 
2200.00, 
2201.00, 
2202.00, 
2203.00, 
2204.00, 
2205.00, 
2206.00, 
2207.00, 
2208.00, 
2209.00, 
2210.00, 
2211.00, 
2212.00, 
2213.00, 
2214.00, 
2215.00, 
2216.00, 
2217.00, 
2218.00, 
2219.00, 
2220.00, 
2221.00, 
2222.00, 
2223.00, 
2224.00, 
2225.00, 
2226.00, 
2227.00, 
2228.00, 
2229.00, 
2230.00, 
2231.00, 
2232.00, 
2233.00, 
2234.00, 
2235.00, 
2236.00, 
2237.00, 
2238.00, 
2239.00, 
2240.00, 
2241.00, 
2242.00, 
2243.00, 
2244.00, 
2245.00, 
2246.00, 
2247.00, 
2248.00, 
2249.00, 
2250.00, 
2251.00, 
2252.00, 
2253.00, 
2254.00, 
2255.00, 
2256.00, 
2257.00, 
2258.00, 
2259.00, 
2260.00, 
2261.00, 
2262.00, 
2263.00, 
2264.00, 
2265.00, 
2266.00, 
2267.00, 
2268.00, 
2269.00, 
2270.00, 
2271.00, 
2272.00, 
2273.00, 
2274.00, 
2275.00, 
2276.00, 
2277.00, 
2278.00, 
2279.00, 
2280.00, 
2281.00, 
2282.00, 
2283.00, 
2284.00, 
2285.00, 
2286.00, 
2287.00, 
2288.00, 
2289.00, 
2290.00, 
2291.00, 
2292.00, 
2293.00, 
2294.00, 
2295.00, 
2296.00, 
2297.00, 
2298.00, 
2299.00, 
2300.00, 
2301.00, 
2302.00, 
2303.00, 
2304.00, 
2305.00, 
2306.00, 
2307.00, 
2308.00, 
2309.00, 
2310.00, 
2311.00, 
2312.00, 
2313.00, 
2314.00, 
2315.00, 
2316.00, 
2317.00, 
2318.00, 
2319.00, 
2320.00, 
2321.00, 
2322.00, 
2323.00, 
2324.00, 
2325.00, 
2326.00, 
2327.00, 
2328.00, 
2329.00, 
2330.00, 
2331.00, 
2332.00, 
2333.00, 
2334.00, 
2335.00, 
2336.00, 
2337.00, 
2338.00, 
2339.00, 
2340.00, 
2341.00, 
2342.00, 
2343.00, 
2344.00, 
2345.00, 
2346.00, 
2347.00, 
2348.00, 
2349.00, 
2350.00, 
2351.00, 
2352.00, 
2353.00, 
2354.00, 
2355.00, 
2356.00, 
2357.00, 
2358.00, 
2359.00, 
2360.00, 
2361.00, 
2362.00, 
2363.00, 
2364.00, 
2365.00, 
2366.00, 
2367.00, 
2368.00, 
2369.00, 
2370.00, 
2371.00, 
2372.00, 
2373.00, 
2374.00, 
2375.00, 
2376.00, 
2377.00, 
2378.00, 
2379.00, 
2380.00, 
2381.00, 
2382.00, 
2383.00, 
2384.00, 
2385.00, 
2386.00, 
2387.00, 
2388.00, 
2389.00, 
2390.00, 
2391.00, 
2392.00, 
2393.00, 
2394.00, 
2395.00, 
2396.00, 
2397.00, 
2398.00, 
2399.00, 
2400.00, 
2401.00, 
2402.00, 
2403.00, 
2404.00, 
2405.00, 
2406.00, 
2407.00, 
2408.00, 
2409.00, 
2410.00, 
2411.00, 
2412.00, 
2413.00, 
2414.00, 
2415.00, 
2416.00, 
2417.00, 
2418.00, 
2419.00, 
2420.00, 
2421.00, 
2422.00, 
2423.00, 
2424.00, 
2425.00, 
2426.00, 
2427.00, 
2428.00, 
2429.00, 
2430.00, 
2431.00, 
2432.00, 
2433.00, 
2434.00, 
2435.00, 
2436.00, 
2437.00, 
2438.00, 
2439.00, 
2440.00, 
2441.00, 
2442.00, 
2443.00, 
2444.00, 
2445.00, 
2446.00, 
2447.00, 
2448.00, 
2449.00, 
2450.00, 
2451.00, 
2452.00, 
2453.00, 
2454.00, 
2455.00, 
2456.00, 
2457.00, 
2458.00, 
2459.00, 
2460.00, 
2461.00, 
2462.00, 
2463.00, 
2464.00, 
2465.00, 
2466.00, 
2467.00, 
2468.00, 
2469.00, 
2470.00, 
2471.00, 
2472.00, 
2473.00, 
2474.00, 
2475.00, 
2476.00, 
2477.00, 
2478.00, 
2479.00, 
2480.00, 
2481.00, 
2482.00, 
2483.00, 
2484.00, 
2485.00, 
2486.00, 
2487.00, 
2488.00, 
2489.00, 
2490.00, 
2491.00, 
2492.00, 
2493.00, 
2494.00, 
2495.00, 
2496.00, 
2497.00, 
2498.00, 
2499.00, 
2500.00, 
2501.00, 
2502.00, 
2503.00, 
2504.00, 
2505.00, 
2506.00, 
2507.00, 
2508.00, 
2509.00, 
2510.00, 
2511.00, 
2512.00, 
2513.00, 
2514.00, 
2515.00, 
2516.00, 
2517.00, 
2518.00, 
2519.00, 
2520.00, 
2521.00, 
2522.00, 
2523.00, 
2524.00, 
2525.00, 
2526.00, 
2527.00, 
2528.00, 
2529.00, 
2530.00, 
2531.00, 
2532.00, 
2533.00, 
2534.00, 
2535.00, 
2536.00, 
2537.00, 
2538.00, 
2539.00, 
2540.00, 
2541.00, 
2542.00, 
2543.00, 
2544.00, 
2545.00, 
2546.00, 
2547.00, 
2548.00, 
2549.00, 
2550.00, 
2551.00, 
2552.00, 
2553.00, 
2554.00, 
2555.00, 
2556.00, 
2557.00, 
2558.00, 
2559.00, 
2560.00, 
2561.00, 
2562.00, 
2563.00, 
2564.00, 
2565.00, 
2566.00, 
2567.00, 
2568.00, 
2569.00, 
2570.00, 
2571.00, 
2572.00, 
2573.00, 
2574.00, 
2575.00, 
2576.00, 
2577.00, 
2578.00, 
2579.00, 
2580.00, 
2581.00, 
2582.00, 
2583.00, 
2584.00, 
2585.00, 
2586.00, 
2587.00, 
2588.00, 
2589.00, 
2590.00, 
2591.00, 
2592.00, 
2593.00, 
2594.00, 
2595.00, 
2596.00, 
2597.00, 
2598.00, 
2599.00, 
2600.00, 
