"2cP4 - RawData"
"Wavelength nm.","T%"
200.00,-0.000
201.00,0.002
202.00,0.002
203.00,0.001
204.00,-0.000
205.00,-0.000
206.00,0.002
207.00,0.001
208.00,0.003
209.00,-0.003
210.00,0.001
211.00,-0.000
212.00,0.001
213.00,0.000
214.00,0.001
215.00,0.003
216.00,0.001
217.00,0.002
218.00,0.002
219.00,-0.001
220.00,-0.001
221.00,0.004
222.00,0.002
223.00,0.003
224.00,0.001
225.00,0.003
226.00,-0.001
227.00,0.001
228.00,-0.002
229.00,-0.001
230.00,0.001
231.00,0.001
232.00,-0.002
233.00,0.001
234.00,-0.001
235.00,0.002
236.00,0.001
237.00,0.000
238.00,-0.001
239.00,-0.000
240.00,-0.001
241.00,-0.000
242.00,-0.001
243.00,0.000
244.00,0.001
245.00,0.002
246.00,0.001
247.00,0.002
248.00,-0.001
249.00,0.001
250.00,0.002
251.00,0.002
252.00,0.001
253.00,0.001
254.00,-0.001
255.00,0.001
256.00,-0.001
257.00,0.000
258.00,0.001
259.00,0.001
260.00,0.000
261.00,-0.001
262.00,-0.001
263.00,0.000
264.00,0.000
265.00,0.002
266.00,0.001
267.00,-0.001
268.00,0.000
269.00,0.001
270.00,0.001
271.00,0.000
272.00,0.001
273.00,0.002
274.00,0.000
275.00,-0.000
276.00,0.000
277.00,0.000
278.00,0.001
279.00,0.002
280.00,0.000
281.00,-0.001
282.00,0.000
283.00,-0.000
284.00,0.000
285.00,-0.001
286.00,0.001
287.00,-0.000
288.00,-0.000
289.00,0.003
290.00,0.001
291.00,0.001
292.00,-0.000
293.00,-0.000
294.00,-0.002
295.00,-0.000
296.00,-0.000
297.00,0.000
298.00,0.001
299.00,0.001
300.00,0.000
301.00,0.002
302.00,0.003
303.00,0.003
304.00,0.005
305.00,0.012
306.00,0.016
307.00,0.024
308.00,0.039
309.00,0.059
310.00,0.083
311.00,0.114
312.00,0.150
313.00,0.207
314.00,0.271
315.00,0.351
316.00,0.453
317.00,0.562
318.00,0.690
319.00,0.844
320.00,1.026
321.00,1.229
322.00,1.442
323.00,1.714
324.00,1.970
325.00,2.243
326.00,2.523
327.00,2.858
328.00,3.186
329.00,3.501
330.00,3.855
331.00,4.205
332.00,4.557
333.00,4.936
334.00,5.293
335.00,5.689
336.00,6.023
337.00,6.406
338.00,6.755
339.00,7.067
340.00,7.403
341.00,7.734
342.00,8.041
343.00,8.308
344.00,8.611
345.00,8.876
346.00,9.106
347.00,9.348
348.00,9.541
349.00,9.735
350.00,9.942
351.00,10.101
352.00,10.244
353.00,10.420
354.00,10.551
355.00,10.697
356.00,10.805
357.00,10.903
358.00,10.983
359.00,11.111
360.00,11.201
361.00,11.272
362.00,11.318
363.00,11.400
364.00,11.382
365.00,11.415
366.00,11.460
367.00,11.476
368.00,11.485
369.00,11.487
370.00,11.499
371.00,11.472
372.00,11.479
373.00,11.451
374.00,11.431
375.00,11.363
376.00,11.347
377.00,11.279
378.00,11.241
379.00,11.175
380.00,11.161
381.00,11.113
382.00,11.099
383.00,11.075
384.00,11.066
385.00,11.064
386.00,11.023
387.00,11.038
388.00,11.046
389.00,11.022
390.00,11.039
391.00,11.015
392.00,10.990
393.00,10.982
394.00,10.985
395.00,10.949
396.00,10.949
397.00,10.935
398.00,10.912
399.00,10.921
400.00,10.900
401.00,10.875
402.00,10.885
403.00,10.902
404.00,10.874
405.00,10.865
406.00,10.877
407.00,10.817
408.00,10.819
409.00,10.792
410.00,10.763
411.00,10.759
412.00,10.734
413.00,10.740
414.00,10.734
415.00,10.746
416.00,10.761
417.00,10.759
418.00,10.750
419.00,10.821
420.00,10.832
421.00,10.804
422.00,10.821
423.00,10.849
424.00,10.888
425.00,10.904
426.00,10.926
427.00,10.958
428.00,11.001
429.00,11.024
430.00,11.059
431.00,11.122
432.00,11.138
433.00,11.215
434.00,11.261
435.00,11.287
436.00,11.350
437.00,11.415
438.00,11.463
439.00,11.514
440.00,11.582
441.00,11.652
442.00,11.723
443.00,11.795
444.00,11.866
445.00,11.927
446.00,12.009
447.00,12.111
448.00,12.156
449.00,12.282
450.00,12.388
451.00,12.467
452.00,12.532
453.00,12.639
454.00,12.717
455.00,12.830
456.00,12.939
457.00,13.057
458.00,13.142
459.00,13.246
460.00,13.373
461.00,13.488
462.00,13.588
463.00,13.723
464.00,13.848
465.00,13.946
466.00,14.088
467.00,14.193
468.00,14.298
469.00,14.403
470.00,14.509
471.00,14.620
472.00,14.746
473.00,14.851
474.00,14.966
475.00,15.087
476.00,15.198
477.00,15.332
478.00,15.465
479.00,15.626
480.00,15.760
481.00,15.883
482.00,16.041
483.00,16.183
484.00,16.318
485.00,16.477
486.00,16.609
487.00,16.755
488.00,16.908
489.00,17.062
490.00,17.221
491.00,17.383
492.00,17.531
493.00,17.687
494.00,17.849
495.00,17.897
496.00,18.023
497.00,18.152
498.00,18.339
499.00,18.455
500.00,18.551
501.00,18.707
502.00,18.831
503.00,19.032
504.00,19.068
505.00,19.266
506.00,19.425
507.00,19.536
508.00,19.680
509.00,19.815
510.00,19.936
511.00,20.063
512.00,20.247
513.00,20.364
514.00,20.501
515.00,20.634
516.00,20.772
517.00,20.867
518.00,21.008
519.00,21.107
520.00,21.206
521.00,21.309
522.00,21.446
523.00,21.516
524.00,21.627
525.00,21.745
526.00,21.874
527.00,21.947
528.00,22.043
529.00,22.209
530.00,22.366
531.00,22.478
532.00,22.558
533.00,22.671
534.00,22.773
535.00,22.867
536.00,22.967
537.00,23.077
538.00,23.160
539.00,23.228
540.00,23.317
541.00,23.394
542.00,23.480
543.00,23.553
544.00,23.646
545.00,23.748
546.00,23.795
547.00,23.916
548.00,24.001
549.00,24.051
550.00,24.150
551.00,24.233
552.00,24.347
553.00,24.408
554.00,24.447
555.00,24.511
556.00,24.629
557.00,24.670
558.00,24.681
559.00,24.827
560.00,24.893
561.00,24.971
562.00,25.069
563.00,25.144
564.00,25.222
565.00,25.234
566.00,25.264
567.00,25.316
568.00,25.388
569.00,25.431
570.00,25.510
571.00,25.556
572.00,25.601
573.00,25.625
574.00,25.701
575.00,25.721
576.00,25.762
577.00,25.837
578.00,25.938
579.00,25.988
580.00,26.060
581.00,26.185
582.00,26.243
583.00,26.276
584.00,26.410
585.00,26.447
586.00,26.511
587.00,26.617
588.00,26.602
589.00,26.611
590.00,26.719
591.00,26.787
592.00,26.787
593.00,26.838
594.00,26.954
595.00,26.992
596.00,27.061
597.00,27.131
598.00,27.235
599.00,27.231
600.00,27.306
601.00,27.391
602.00,27.392
603.00,27.455
604.00,27.475
605.00,27.561
606.00,27.648
607.00,27.709
608.00,27.776
609.00,27.712
610.00,27.854
611.00,28.030
612.00,28.070
613.00,28.063
614.00,28.137
615.00,28.227
616.00,28.333
617.00,28.347
618.00,28.404
619.00,28.492
620.00,28.553
621.00,28.628
622.00,28.710
623.00,28.831
624.00,28.864
625.00,28.985
626.00,29.078
627.00,29.111
628.00,29.227
629.00,29.295
630.00,29.355
631.00,29.502
632.00,29.597
633.00,29.725
634.00,29.803
635.00,29.962
636.00,30.059
637.00,30.114
638.00,30.208
639.00,30.351
640.00,30.421
641.00,30.487
642.00,30.625
643.00,30.738
644.00,30.840
645.00,30.951
646.00,31.126
647.00,31.193
648.00,31.324
649.00,31.374
650.00,31.474
651.00,31.671
652.00,31.817
653.00,31.896
654.00,31.999
655.00,32.200
656.00,32.459
657.00,32.430
658.00,32.582
659.00,32.751
660.00,32.816
661.00,32.901
662.00,33.039
663.00,33.200
664.00,33.423
665.00,33.636
666.00,33.537
667.00,33.866
668.00,34.041
669.00,34.070
670.00,34.394
671.00,34.564
672.00,34.505
673.00,34.705
674.00,34.795
675.00,35.042
676.00,35.243
677.00,35.391
678.00,35.292
679.00,35.555
680.00,35.689
681.00,35.975
682.00,36.067
683.00,36.081
684.00,36.370
685.00,36.494
686.00,36.485
687.00,36.741
688.00,36.854
689.00,36.951
690.00,37.306
691.00,37.487
692.00,37.418
693.00,37.483
694.00,37.752
695.00,38.002
696.00,38.098
697.00,38.251
698.00,38.393
699.00,38.542
700.00,38.709
701.00,38.798
702.00,39.047
703.00,39.222
704.00,39.277
705.00,39.489
706.00,39.615
707.00,39.729
708.00,39.672
709.00,40.141
710.00,40.485
711.00,40.179
712.00,40.316
713.00,40.436
714.00,40.715
715.00,40.832
716.00,40.815
717.00,41.069
718.00,41.288
719.00,41.365
720.00,41.529
721.00,45.700
722.00,45.777
723.00,45.909
724.00,45.963
725.00,46.109
726.00,46.200
727.00,46.257
728.00,46.341
729.00,46.420
730.00,46.554
731.00,46.656
732.00,46.761
733.00,46.863
734.00,46.997
735.00,47.091
736.00,47.113
737.00,47.212
738.00,47.374
739.00,47.486
740.00,47.543
741.00,47.607
742.00,47.682
743.00,47.711
744.00,47.849
745.00,47.873
746.00,47.936
747.00,47.966
748.00,48.043
749.00,48.137
750.00,48.245
751.00,48.261
752.00,48.361
753.00,48.354
754.00,48.460
755.00,48.532
756.00,48.597
757.00,48.607
758.00,48.712
759.00,48.752
760.00,48.824
761.00,48.871
762.00,48.990
763.00,49.013
764.00,49.099
765.00,49.094
766.00,49.186
767.00,49.216
768.00,49.306
769.00,49.344
770.00,49.413
771.00,49.540
772.00,49.500
773.00,49.515
774.00,49.635
775.00,49.651
776.00,49.678
777.00,49.777
778.00,49.808
779.00,49.861
780.00,49.841
781.00,49.878
782.00,49.970
783.00,49.956
784.00,49.946
785.00,50.018
786.00,50.104
787.00,50.110
788.00,50.119
789.00,50.117
790.00,50.139
791.00,50.169
792.00,50.178
793.00,50.238
794.00,50.200
795.00,50.235
796.00,50.272
797.00,50.269
798.00,50.288
799.00,50.253
800.00,50.329
801.00,50.343
802.00,50.344
803.00,50.373
804.00,50.378
805.00,50.441
806.00,50.386
807.00,50.416
808.00,50.418
809.00,50.363
810.00,50.438
811.00,50.388
812.00,50.435
813.00,50.442
814.00,50.454
815.00,50.541
816.00,50.448
817.00,50.536
818.00,50.451
819.00,50.496
820.00,50.463
821.00,50.512
822.00,50.503
823.00,50.434
824.00,50.524
825.00,50.579
826.00,50.493
827.00,50.597
828.00,50.626
829.00,50.631
830.00,50.602
831.00,52.744
832.00,52.718
833.00,52.732
834.00,52.731
835.00,52.715
836.00,52.705
837.00,52.704
838.00,52.677
839.00,52.698
840.00,52.647
841.00,52.665
842.00,52.693
843.00,52.727
844.00,52.700
845.00,52.641
846.00,52.687
847.00,52.665
848.00,52.649
849.00,52.607
850.00,52.635
851.00,52.541
852.00,52.573
853.00,52.552
854.00,52.514
855.00,52.511
856.00,52.486
857.00,52.482
858.00,52.491
859.00,52.419
860.00,52.461
861.00,52.475
862.00,52.412
863.00,52.429
864.00,52.403
865.00,52.442
866.00,52.421
867.00,52.437
868.00,52.439
869.00,52.437
870.00,52.397
871.00,52.422
872.00,52.455
873.00,52.385
874.00,52.396
875.00,52.519
876.00,52.397
877.00,52.400
878.00,52.407
879.00,52.396
880.00,52.404
881.00,52.368
882.00,52.403
883.00,52.389
884.00,52.321
885.00,52.339
886.00,52.351
887.00,52.313
888.00,52.274
889.00,52.326
890.00,52.204
891.00,52.270
892.00,52.223
893.00,52.220
894.00,52.289
895.00,52.090
896.00,52.171
897.00,52.172
898.00,52.140
899.00,52.135
900.00,52.127
901.00,52.132
902.00,52.139
903.00,52.106
904.00,52.109
905.00,52.116
906.00,52.103
907.00,52.090
908.00,52.052
909.00,52.054
910.00,52.014
911.00,51.995
912.00,51.990
913.00,51.950
914.00,51.954
915.00,52.023
916.00,51.925
917.00,51.899
918.00,51.894
919.00,51.872
920.00,51.843
921.00,51.836
922.00,51.829
923.00,51.798
924.00,51.803
925.00,51.787
926.00,51.718
927.00,51.814
928.00,51.737
929.00,51.722
930.00,51.695
931.00,51.675
932.00,51.670
933.00,51.683
934.00,51.670
935.00,51.617
936.00,51.599
937.00,51.612
938.00,51.537
939.00,51.577
940.00,51.546
941.00,51.540
942.00,51.517
943.00,51.517
944.00,51.495
945.00,51.497
946.00,51.481
947.00,51.455
948.00,51.439
949.00,51.421
950.00,51.407
951.00,51.387
952.00,51.356
953.00,51.325
954.00,51.309
955.00,51.288
956.00,51.268
957.00,51.274
958.00,51.263
959.00,51.209
960.00,51.180
961.00,51.186
962.00,51.183
963.00,51.142
964.00,51.138
965.00,51.112
966.00,51.132
967.00,51.115
968.00,51.094
969.00,51.116
970.00,51.100
971.00,51.114
972.00,51.086
973.00,51.108
974.00,51.119
975.00,51.099
976.00,51.130
977.00,51.128
978.00,51.153
979.00,51.117
980.00,51.142
981.00,51.138
982.00,51.106
983.00,51.099
984.00,51.080
985.00,51.117
986.00,51.072
987.00,51.089
988.00,51.064
989.00,51.047
990.00,51.046
991.00,51.052
992.00,51.077
993.00,51.017
994.00,51.019
995.00,51.007
996.00,51.006
997.00,50.989
998.00,50.957
999.00,50.978
1000.00,50.959
1001.00,50.931
1002.00,50.922
1003.00,50.909
1004.00,50.902
1005.00,50.867
1006.00,50.944
1007.00,50.865
1008.00,50.858
1009.00,50.851
1010.00,50.841
1011.00,50.827
1012.00,50.793
1013.00,50.796
1014.00,50.761
1015.00,50.765
1016.00,50.734
1017.00,50.729
1018.00,50.728
1019.00,50.678
1020.00,50.697
1021.00,50.707
1022.00,50.678
1023.00,50.637
1024.00,50.641
1025.00,50.628
1026.00,50.608
1027.00,50.586
1028.00,50.566
1029.00,50.559
1030.00,50.528
1031.00,50.527
1032.00,50.496
1033.00,50.492
1034.00,50.473
1035.00,50.438
1036.00,50.432
1037.00,50.408
1038.00,50.396
1039.00,50.363
1040.00,50.353
1041.00,50.301
1042.00,50.298
1043.00,50.283
1044.00,50.314
1045.00,50.296
1046.00,50.297
1047.00,50.312
1048.00,50.328
1049.00,50.339
1050.00,50.346
1051.00,50.369
1052.00,50.356
1053.00,50.383
1054.00,50.372
1055.00,50.395
1056.00,50.405
1057.00,50.413
1058.00,50.403
1059.00,50.387
1060.00,50.389
1061.00,50.373
1062.00,50.370
1063.00,50.384
1064.00,50.367
1065.00,50.356
1066.00,50.352
1067.00,50.370
1068.00,50.349
1069.00,50.317
1070.00,50.304
1071.00,50.299
1072.00,50.297
1073.00,50.261
1074.00,50.278
1075.00,50.271
1076.00,50.263
1077.00,50.246
1078.00,50.217
1079.00,50.215
1080.00,50.221
1081.00,50.207
1082.00,50.229
1083.00,50.223
1084.00,50.189
1085.00,50.176
1086.00,50.167
1087.00,50.157
1088.00,50.142
1089.00,50.121
1090.00,50.124
1091.00,50.124
1092.00,50.112
1093.00,50.095
1094.00,50.072
1095.00,50.080
1096.00,50.077
1097.00,50.051
1098.00,50.060
1099.00,50.050
1100.00,50.039
1101.00,50.024
1102.00,50.025
1103.00,50.019
1104.00,50.016
1105.00,49.993
1106.00,49.989
1107.00,49.981
1108.00,49.966
1109.00,49.972
1110.00,49.962
1111.00,49.952
1112.00,49.940
1113.00,49.918
1114.00,49.935
1115.00,49.925
1116.00,49.909
1117.00,49.891
1118.00,49.888
1119.00,49.887
1120.00,49.883
1121.00,49.878
1122.00,49.860
1123.00,49.846
1124.00,49.847
1125.00,49.833
1126.00,49.827
1127.00,49.839
1128.00,49.850
1129.00,49.798
1130.00,49.798
1131.00,49.796
1132.00,49.786
1133.00,49.802
1134.00,49.791
1135.00,49.776
1136.00,49.774
1137.00,49.785
1138.00,49.778
1139.00,49.769
1140.00,49.766
1141.00,49.739
1142.00,49.745
1143.00,49.755
1144.00,49.717
1145.00,49.713
1146.00,49.718
1147.00,49.716
1148.00,49.701
1149.00,49.703
1150.00,49.714
1151.00,49.707
1152.00,49.690
1153.00,49.683
1154.00,49.670
1155.00,49.686
1156.00,49.682
1157.00,49.664
1158.00,49.665
1159.00,49.655
1160.00,49.647
1161.00,49.659
1162.00,49.647
1163.00,49.657
1164.00,49.651
1165.00,49.647
1166.00,49.645
1167.00,49.641
1168.00,49.643
1169.00,49.629
1170.00,49.623
1171.00,49.601
1172.00,49.614
1173.00,49.608
1174.00,49.616
1175.00,49.628
1176.00,49.628
1177.00,49.616
1178.00,49.616
1179.00,49.621
1180.00,49.616
1181.00,49.624
1182.00,49.607
1183.00,49.591
1184.00,49.582
1185.00,49.594
1186.00,49.592
1187.00,49.589
1188.00,49.591
1189.00,49.610
1190.00,49.581
1191.00,49.581
1192.00,49.590
1193.00,49.577
1194.00,49.577
1195.00,49.556
1196.00,49.593
1197.00,49.583
1198.00,49.562
1199.00,49.581
1200.00,49.581
1201.00,49.588
1202.00,49.563
1203.00,49.581
1204.00,49.568
1205.00,49.573
1206.00,49.569
1207.00,49.562
1208.00,49.555
1209.00,49.551
1210.00,49.565
1211.00,49.551
1212.00,49.564
1213.00,49.526
1214.00,49.550
1215.00,49.534
1216.00,49.528
1217.00,49.542
1218.00,49.544
1219.00,49.563
1220.00,49.549
1221.00,49.553
1222.00,49.541
1223.00,49.548
1224.00,49.559
1225.00,49.536
1226.00,49.540
1227.00,49.523
1228.00,49.543
1229.00,49.542
1230.00,49.578
1231.00,49.570
1232.00,49.587
1233.00,49.602
1234.00,49.599
1235.00,49.596
1236.00,49.603
1237.00,49.581
1238.00,49.589
1239.00,49.597
1240.00,49.582
1241.00,49.590
1242.00,49.622
1243.00,49.615
1244.00,49.606
1245.00,49.631
1246.00,49.621
1247.00,49.616
1248.00,49.605
1249.00,49.623
1250.00,49.635
1251.00,49.606
1252.00,49.625
1253.00,49.609
1254.00,49.629
1255.00,49.619
1256.00,49.595
1257.00,49.583
1258.00,49.623
1259.00,49.614
1260.00,49.631
1261.00,49.632
1262.00,49.630
1263.00,49.632
1264.00,49.639
1265.00,49.649
1266.00,49.639
1267.00,49.637
1268.00,49.666
1269.00,49.656
1270.00,49.667
1271.00,49.674
1272.00,49.675
1273.00,49.694
1274.00,49.684
1275.00,49.692
1276.00,49.701
1277.00,49.685
1278.00,49.705
1279.00,49.714
1280.00,49.727
1281.00,49.731
1282.00,49.723
1283.00,49.769
1284.00,49.722
1285.00,49.726
1286.00,49.732
1287.00,49.722
1288.00,49.733
1289.00,49.732
1290.00,49.757
1291.00,49.753
1292.00,49.746
1293.00,49.747
1294.00,49.736
1295.00,49.765
1296.00,49.775
1297.00,49.775
1298.00,49.787
1299.00,49.776
1300.00,49.793
1301.00,49.805
1302.00,49.808
1303.00,49.819
1304.00,49.806
1305.00,49.816
1306.00,49.822
1307.00,49.823
1308.00,49.831
1309.00,49.842
1310.00,49.843
1311.00,49.827
1312.00,49.839
1313.00,49.848
1314.00,49.860
1315.00,49.871
1316.00,49.873
1317.00,49.888
1318.00,49.885
1319.00,49.886
1320.00,49.906
1321.00,50.029
1322.00,50.043
1323.00,50.035
1324.00,50.035
1325.00,50.008
1326.00,50.036
1327.00,50.030
1328.00,50.009
1329.00,50.008
1330.00,50.018
1331.00,50.017
1332.00,50.024
1333.00,50.030
1334.00,50.048
1335.00,50.084
1336.00,50.097
1337.00,50.140
1338.00,50.181
1339.00,50.231
1340.00,50.291
1341.00,50.344
1342.00,50.416
1343.00,50.470
1344.00,50.495
1345.00,50.556
1346.00,50.596
1347.00,50.618
1348.00,50.646
1349.00,50.664
1350.00,50.685
1351.00,50.702
1352.00,50.708
1353.00,50.709
1354.00,50.727
1355.00,50.860
1356.00,50.733
1357.00,50.731
1358.00,50.749
1359.00,50.748
1360.00,50.758
1361.00,50.780
1362.00,50.722
1363.00,50.797
1364.00,50.753
1365.00,50.752
1366.00,50.807
1367.00,50.775
1368.00,50.746
1369.00,50.789
1370.00,50.704
1371.00,50.706
1372.00,50.721
1373.00,50.713
1374.00,50.736
1375.00,50.710
1376.00,50.705
1377.00,50.730
1378.00,50.775
1379.00,50.738
1380.00,50.741
1381.00,50.791
1382.00,50.697
1383.00,50.709
1384.00,50.693
1385.00,50.661
1386.00,50.718
1387.00,50.679
1388.00,50.669
1389.00,50.676
1390.00,50.676
1391.00,50.694
1392.00,50.690
1393.00,50.720
1394.00,50.687
1395.00,50.648
1396.00,50.626
1397.00,50.689
1398.00,50.700
1399.00,50.713
1400.00,50.717
1401.00,50.680
1402.00,50.734
1403.00,50.713
1404.00,50.715
1405.00,50.754
1406.00,50.738
1407.00,50.771
1408.00,50.744
1409.00,50.764
1410.00,50.800
1411.00,50.783
1412.00,50.834
1413.00,50.787
1414.00,50.783
1415.00,50.807
1416.00,50.829
1417.00,50.859
1418.00,50.830
1419.00,50.807
1420.00,50.849
1421.00,50.890
1422.00,50.869
1423.00,50.880
1424.00,50.908
1425.00,50.920
1426.00,50.935
1427.00,50.937
1428.00,50.938
1429.00,50.958
1430.00,50.982
1431.00,50.989
1432.00,50.993
1433.00,51.011
1434.00,51.002
1435.00,51.065
1436.00,51.066
1437.00,51.066
1438.00,51.085
1439.00,51.107
1440.00,51.119
1441.00,51.127
1442.00,51.141
1443.00,51.173
1444.00,51.205
1445.00,51.160
1446.00,51.184
1447.00,51.229
1448.00,51.257
1449.00,51.260
1450.00,51.253
1451.00,51.285
1452.00,51.289
1453.00,51.302
1454.00,51.303
1455.00,51.334
1456.00,51.352
1457.00,51.349
1458.00,51.373
1459.00,51.392
1460.00,51.397
1461.00,51.415
1462.00,51.448
1463.00,51.452
1464.00,51.448
1465.00,51.470
1466.00,51.474
1467.00,51.509
1468.00,51.545
1469.00,51.521
1470.00,51.529
1471.00,51.555
1472.00,51.563
1473.00,51.594
1474.00,51.600
1475.00,51.615
1476.00,51.648
1477.00,51.626
1478.00,51.640
1479.00,51.656
1480.00,51.656
1481.00,51.656
1482.00,51.685
1483.00,51.677
1484.00,51.684
1485.00,51.716
1486.00,51.713
1487.00,51.739
1488.00,51.745
1489.00,51.761
1490.00,51.812
1491.00,51.814
1492.00,51.809
1493.00,51.815
1494.00,51.844
1495.00,51.853
1496.00,51.850
1497.00,51.857
1498.00,51.858
1499.00,51.879
1500.00,51.891
1501.00, 
1502.00, 
1503.00, 
1504.00, 
1505.00, 
1506.00, 
1507.00, 
1508.00, 
1509.00, 
1510.00, 
1511.00, 
1512.00, 
1513.00, 
1514.00, 
1515.00, 
1516.00, 
1517.00, 
1518.00, 
1519.00, 
1520.00, 
1521.00, 
1522.00, 
1523.00, 
1524.00, 
1525.00, 
1526.00, 
1527.00, 
1528.00, 
1529.00, 
1530.00, 
1531.00, 
1532.00, 
1533.00, 
1534.00, 
1535.00, 
1536.00, 
1537.00, 
1538.00, 
1539.00, 
1540.00, 
1541.00, 
1542.00, 
1543.00, 
1544.00, 
1545.00, 
1546.00, 
1547.00, 
1548.00, 
1549.00, 
1550.00, 
1551.00, 
1552.00, 
1553.00, 
1554.00, 
1555.00, 
1556.00, 
1557.00, 
1558.00, 
1559.00, 
1560.00, 
1561.00, 
1562.00, 
1563.00, 
1564.00, 
1565.00, 
1566.00, 
1567.00, 
1568.00, 
1569.00, 
1570.00, 
1571.00, 
1572.00, 
1573.00, 
1574.00, 
1575.00, 
1576.00, 
1577.00, 
1578.00, 
1579.00, 
1580.00, 
1581.00, 
1582.00, 
1583.00, 
1584.00, 
1585.00, 
1586.00, 
1587.00, 
1588.00, 
1589.00, 
1590.00, 
1591.00, 
1592.00, 
1593.00, 
1594.00, 
1595.00, 
1596.00, 
1597.00, 
1598.00, 
1599.00, 
1600.00, 
1601.00, 
1602.00, 
1603.00, 
1604.00, 
1605.00, 
1606.00, 
1607.00, 
1608.00, 
1609.00, 
1610.00, 
1611.00, 
1612.00, 
1613.00, 
1614.00, 
1615.00, 
1616.00, 
1617.00, 
1618.00, 
1619.00, 
1620.00, 
1621.00, 
1622.00, 
1623.00, 
1624.00, 
1625.00, 
1626.00, 
1627.00, 
1628.00, 
1629.00, 
1630.00, 
1631.00, 
1632.00, 
1633.00, 
1634.00, 
1635.00, 
1636.00, 
1637.00, 
1638.00, 
1639.00, 
1640.00, 
1641.00, 
1642.00, 
1643.00, 
1644.00, 
1645.00, 
1646.00, 
1647.00, 
1648.00, 
1649.00, 
1650.00, 
1651.00, 
1652.00, 
1653.00, 
1654.00, 
1655.00, 
1656.00, 
1657.00, 
1658.00, 
1659.00, 
1660.00, 
1661.00, 
1662.00, 
1663.00, 
1664.00, 
1665.00, 
1666.00, 
1667.00, 
1668.00, 
1669.00, 
1670.00, 
1671.00, 
1672.00, 
1673.00, 
1674.00, 
1675.00, 
1676.00, 
1677.00, 
1678.00, 
1679.00, 
1680.00, 
1681.00, 
1682.00, 
1683.00, 
1684.00, 
1685.00, 
1686.00, 
1687.00, 
1688.00, 
1689.00, 
1690.00, 
1691.00, 
1692.00, 
1693.00, 
1694.00, 
1695.00, 
1696.00, 
1697.00, 
1698.00, 
1699.00, 
1700.00, 
1701.00, 
1702.00, 
1703.00, 
1704.00, 
1705.00, 
1706.00, 
1707.00, 
1708.00, 
1709.00, 
1710.00, 
1711.00, 
1712.00, 
1713.00, 
1714.00, 
1715.00, 
1716.00, 
1717.00, 
1718.00, 
1719.00, 
1720.00, 
1721.00, 
1722.00, 
1723.00, 
1724.00, 
1725.00, 
1726.00, 
1727.00, 
1728.00, 
1729.00, 
1730.00, 
1731.00, 
1732.00, 
1733.00, 
1734.00, 
1735.00, 
1736.00, 
1737.00, 
1738.00, 
1739.00, 
1740.00, 
1741.00, 
1742.00, 
1743.00, 
1744.00, 
1745.00, 
1746.00, 
1747.00, 
1748.00, 
1749.00, 
1750.00, 
1751.00, 
1752.00, 
1753.00, 
1754.00, 
1755.00, 
1756.00, 
1757.00, 
1758.00, 
1759.00, 
1760.00, 
1761.00, 
1762.00, 
1763.00, 
1764.00, 
1765.00, 
1766.00, 
1767.00, 
1768.00, 
1769.00, 
1770.00, 
1771.00, 
1772.00, 
1773.00, 
1774.00, 
1775.00, 
1776.00, 
1777.00, 
1778.00, 
1779.00, 
1780.00, 
1781.00, 
1782.00, 
1783.00, 
1784.00, 
1785.00, 
1786.00, 
1787.00, 
1788.00, 
1789.00, 
1790.00, 
1791.00, 
1792.00, 
1793.00, 
1794.00, 
1795.00, 
1796.00, 
1797.00, 
1798.00, 
1799.00, 
1800.00, 
1801.00, 
1802.00, 
1803.00, 
1804.00, 
1805.00, 
1806.00, 
1807.00, 
1808.00, 
1809.00, 
1810.00, 
1811.00, 
1812.00, 
1813.00, 
1814.00, 
1815.00, 
1816.00, 
1817.00, 
1818.00, 
1819.00, 
1820.00, 
1821.00, 
1822.00, 
1823.00, 
1824.00, 
1825.00, 
1826.00, 
1827.00, 
1828.00, 
1829.00, 
1830.00, 
1831.00, 
1832.00, 
1833.00, 
1834.00, 
1835.00, 
1836.00, 
1837.00, 
1838.00, 
1839.00, 
1840.00, 
1841.00, 
1842.00, 
1843.00, 
1844.00, 
1845.00, 
1846.00, 
1847.00, 
1848.00, 
1849.00, 
1850.00, 
1851.00, 
1852.00, 
1853.00, 
1854.00, 
1855.00, 
1856.00, 
1857.00, 
1858.00, 
1859.00, 
1860.00, 
1861.00, 
1862.00, 
1863.00, 
1864.00, 
1865.00, 
1866.00, 
1867.00, 
1868.00, 
1869.00, 
1870.00, 
1871.00, 
1872.00, 
1873.00, 
1874.00, 
1875.00, 
1876.00, 
1877.00, 
1878.00, 
1879.00, 
1880.00, 
1881.00, 
1882.00, 
1883.00, 
1884.00, 
1885.00, 
1886.00, 
1887.00, 
1888.00, 
1889.00, 
1890.00, 
1891.00, 
1892.00, 
1893.00, 
1894.00, 
1895.00, 
1896.00, 
1897.00, 
1898.00, 
1899.00, 
1900.00, 
1901.00, 
1902.00, 
1903.00, 
1904.00, 
1905.00, 
1906.00, 
1907.00, 
1908.00, 
1909.00, 
1910.00, 
1911.00, 
1912.00, 
1913.00, 
1914.00, 
1915.00, 
1916.00, 
1917.00, 
1918.00, 
1919.00, 
1920.00, 
1921.00, 
1922.00, 
1923.00, 
1924.00, 
1925.00, 
1926.00, 
1927.00, 
1928.00, 
1929.00, 
1930.00, 
1931.00, 
1932.00, 
1933.00, 
1934.00, 
1935.00, 
1936.00, 
1937.00, 
1938.00, 
1939.00, 
1940.00, 
1941.00, 
1942.00, 
1943.00, 
1944.00, 
1945.00, 
1946.00, 
1947.00, 
1948.00, 
1949.00, 
1950.00, 
1951.00, 
1952.00, 
1953.00, 
1954.00, 
1955.00, 
1956.00, 
1957.00, 
1958.00, 
1959.00, 
1960.00, 
1961.00, 
1962.00, 
1963.00, 
1964.00, 
1965.00, 
1966.00, 
1967.00, 
1968.00, 
1969.00, 
1970.00, 
1971.00, 
1972.00, 
1973.00, 
1974.00, 
1975.00, 
1976.00, 
1977.00, 
1978.00, 
1979.00, 
1980.00, 
1981.00, 
1982.00, 
1983.00, 
1984.00, 
1985.00, 
1986.00, 
1987.00, 
1988.00, 
1989.00, 
1990.00, 
1991.00, 
1992.00, 
1993.00, 
1994.00, 
1995.00, 
1996.00, 
1997.00, 
1998.00, 
1999.00, 
2000.00, 
2001.00, 
2002.00, 
2003.00, 
2004.00, 
2005.00, 
2006.00, 
2007.00, 
2008.00, 
2009.00, 
2010.00, 
2011.00, 
2012.00, 
2013.00, 
2014.00, 
2015.00, 
2016.00, 
2017.00, 
2018.00, 
2019.00, 
2020.00, 
2021.00, 
2022.00, 
2023.00, 
2024.00, 
2025.00, 
2026.00, 
2027.00, 
2028.00, 
2029.00, 
2030.00, 
2031.00, 
2032.00, 
2033.00, 
2034.00, 
2035.00, 
2036.00, 
2037.00, 
2038.00, 
2039.00, 
2040.00, 
2041.00, 
2042.00, 
2043.00, 
2044.00, 
2045.00, 
2046.00, 
2047.00, 
2048.00, 
2049.00, 
2050.00, 
2051.00, 
2052.00, 
2053.00, 
2054.00, 
2055.00, 
2056.00, 
2057.00, 
2058.00, 
2059.00, 
2060.00, 
2061.00, 
2062.00, 
2063.00, 
2064.00, 
2065.00, 
2066.00, 
2067.00, 
2068.00, 
2069.00, 
2070.00, 
2071.00, 
2072.00, 
2073.00, 
2074.00, 
2075.00, 
2076.00, 
2077.00, 
2078.00, 
2079.00, 
2080.00, 
2081.00, 
2082.00, 
2083.00, 
2084.00, 
2085.00, 
2086.00, 
2087.00, 
2088.00, 
2089.00, 
2090.00, 
2091.00, 
2092.00, 
2093.00, 
2094.00, 
2095.00, 
2096.00, 
2097.00, 
2098.00, 
2099.00, 
2100.00, 
2101.00, 
2102.00, 
2103.00, 
2104.00, 
2105.00, 
2106.00, 
2107.00, 
2108.00, 
2109.00, 
2110.00, 
2111.00, 
2112.00, 
2113.00, 
2114.00, 
2115.00, 
2116.00, 
2117.00, 
2118.00, 
2119.00, 
2120.00, 
2121.00, 
2122.00, 
2123.00, 
2124.00, 
2125.00, 
2126.00, 
2127.00, 
2128.00, 
2129.00, 
2130.00, 
2131.00, 
2132.00, 
2133.00, 
2134.00, 
2135.00, 
2136.00, 
2137.00, 
2138.00, 
2139.00, 
2140.00, 
2141.00, 
2142.00, 
2143.00, 
2144.00, 
2145.00, 
2146.00, 
2147.00, 
2148.00, 
2149.00, 
2150.00, 
2151.00, 
2152.00, 
2153.00, 
2154.00, 
2155.00, 
2156.00, 
2157.00, 
2158.00, 
2159.00, 
2160.00, 
2161.00, 
2162.00, 
2163.00, 
2164.00, 
2165.00, 
2166.00, 
2167.00, 
2168.00, 
2169.00, 
2170.00, 
2171.00, 
2172.00, 
2173.00, 
2174.00, 
2175.00, 
2176.00, 
2177.00, 
2178.00, 
2179.00, 
2180.00, 
2181.00, 
2182.00, 
2183.00, 
2184.00, 
2185.00, 
2186.00, 
2187.00, 
2188.00, 
2189.00, 
2190.00, 
2191.00, 
2192.00, 
2193.00, 
2194.00, 
2195.00, 
2196.00, 
2197.00, 
2198.00, 
2199.00, 
2200.00, 
2201.00, 
2202.00, 
2203.00, 
2204.00, 
2205.00, 
2206.00, 
2207.00, 
2208.00, 
2209.00, 
2210.00, 
2211.00, 
2212.00, 
2213.00, 
2214.00, 
2215.00, 
2216.00, 
2217.00, 
2218.00, 
2219.00, 
2220.00, 
2221.00, 
2222.00, 
2223.00, 
2224.00, 
2225.00, 
2226.00, 
2227.00, 
2228.00, 
2229.00, 
2230.00, 
2231.00, 
2232.00, 
2233.00, 
2234.00, 
2235.00, 
2236.00, 
2237.00, 
2238.00, 
2239.00, 
2240.00, 
2241.00, 
2242.00, 
2243.00, 
2244.00, 
2245.00, 
2246.00, 
2247.00, 
2248.00, 
2249.00, 
2250.00, 
2251.00, 
2252.00, 
2253.00, 
2254.00, 
2255.00, 
2256.00, 
2257.00, 
2258.00, 
2259.00, 
2260.00, 
2261.00, 
2262.00, 
2263.00, 
2264.00, 
2265.00, 
2266.00, 
2267.00, 
2268.00, 
2269.00, 
2270.00, 
2271.00, 
2272.00, 
2273.00, 
2274.00, 
2275.00, 
2276.00, 
2277.00, 
2278.00, 
2279.00, 
2280.00, 
2281.00, 
2282.00, 
2283.00, 
2284.00, 
2285.00, 
2286.00, 
2287.00, 
2288.00, 
2289.00, 
2290.00, 
2291.00, 
2292.00, 
2293.00, 
2294.00, 
2295.00, 
2296.00, 
2297.00, 
2298.00, 
2299.00, 
2300.00, 
2301.00, 
2302.00, 
2303.00, 
2304.00, 
2305.00, 
2306.00, 
2307.00, 
2308.00, 
2309.00, 
2310.00, 
2311.00, 
2312.00, 
2313.00, 
2314.00, 
2315.00, 
2316.00, 
2317.00, 
2318.00, 
2319.00, 
2320.00, 
2321.00, 
2322.00, 
2323.00, 
2324.00, 
2325.00, 
2326.00, 
2327.00, 
2328.00, 
2329.00, 
2330.00, 
2331.00, 
2332.00, 
2333.00, 
2334.00, 
2335.00, 
2336.00, 
2337.00, 
2338.00, 
2339.00, 
2340.00, 
2341.00, 
2342.00, 
2343.00, 
2344.00, 
2345.00, 
2346.00, 
2347.00, 
2348.00, 
2349.00, 
2350.00, 
2351.00, 
2352.00, 
2353.00, 
2354.00, 
2355.00, 
2356.00, 
2357.00, 
2358.00, 
2359.00, 
2360.00, 
2361.00, 
2362.00, 
2363.00, 
2364.00, 
2365.00, 
2366.00, 
2367.00, 
2368.00, 
2369.00, 
2370.00, 
2371.00, 
2372.00, 
2373.00, 
2374.00, 
2375.00, 
2376.00, 
2377.00, 
2378.00, 
2379.00, 
2380.00, 
2381.00, 
2382.00, 
2383.00, 
2384.00, 
2385.00, 
2386.00, 
2387.00, 
2388.00, 
2389.00, 
2390.00, 
2391.00, 
2392.00, 
2393.00, 
2394.00, 
2395.00, 
2396.00, 
2397.00, 
2398.00, 
2399.00, 
2400.00, 
2401.00, 
2402.00, 
2403.00, 
2404.00, 
2405.00, 
2406.00, 
2407.00, 
2408.00, 
2409.00, 
2410.00, 
2411.00, 
2412.00, 
2413.00, 
2414.00, 
2415.00, 
2416.00, 
2417.00, 
2418.00, 
2419.00, 
2420.00, 
2421.00, 
2422.00, 
2423.00, 
2424.00, 
2425.00, 
2426.00, 
2427.00, 
2428.00, 
2429.00, 
2430.00, 
2431.00, 
2432.00, 
2433.00, 
2434.00, 
2435.00, 
2436.00, 
2437.00, 
2438.00, 
2439.00, 
2440.00, 
2441.00, 
2442.00, 
2443.00, 
2444.00, 
2445.00, 
2446.00, 
2447.00, 
2448.00, 
2449.00, 
2450.00, 
2451.00, 
2452.00, 
2453.00, 
2454.00, 
2455.00, 
2456.00, 
2457.00, 
2458.00, 
2459.00, 
2460.00, 
2461.00, 
2462.00, 
2463.00, 
2464.00, 
2465.00, 
2466.00, 
2467.00, 
2468.00, 
2469.00, 
2470.00, 
2471.00, 
2472.00, 
2473.00, 
2474.00, 
2475.00, 
2476.00, 
2477.00, 
2478.00, 
2479.00, 
2480.00, 
2481.00, 
2482.00, 
2483.00, 
2484.00, 
2485.00, 
2486.00, 
2487.00, 
2488.00, 
2489.00, 
2490.00, 
2491.00, 
2492.00, 
2493.00, 
2494.00, 
2495.00, 
2496.00, 
2497.00, 
2498.00, 
2499.00, 
2500.00, 
2501.00, 
2502.00, 
2503.00, 
2504.00, 
2505.00, 
2506.00, 
2507.00, 
2508.00, 
2509.00, 
2510.00, 
2511.00, 
2512.00, 
2513.00, 
2514.00, 
2515.00, 
2516.00, 
2517.00, 
2518.00, 
2519.00, 
2520.00, 
2521.00, 
2522.00, 
2523.00, 
2524.00, 
2525.00, 
2526.00, 
2527.00, 
2528.00, 
2529.00, 
2530.00, 
2531.00, 
2532.00, 
2533.00, 
2534.00, 
2535.00, 
2536.00, 
2537.00, 
2538.00, 
2539.00, 
2540.00, 
2541.00, 
2542.00, 
2543.00, 
2544.00, 
2545.00, 
2546.00, 
2547.00, 
2548.00, 
2549.00, 
2550.00, 
2551.00, 
2552.00, 
2553.00, 
2554.00, 
2555.00, 
2556.00, 
2557.00, 
2558.00, 
2559.00, 
2560.00, 
2561.00, 
2562.00, 
2563.00, 
2564.00, 
2565.00, 
2566.00, 
2567.00, 
2568.00, 
2569.00, 
2570.00, 
2571.00, 
2572.00, 
2573.00, 
2574.00, 
2575.00, 
2576.00, 
2577.00, 
2578.00, 
2579.00, 
2580.00, 
2581.00, 
2582.00, 
2583.00, 
2584.00, 
2585.00, 
2586.00, 
2587.00, 
2588.00, 
2589.00, 
2590.00, 
2591.00, 
2592.00, 
2593.00, 
2594.00, 
2595.00, 
2596.00, 
2597.00, 
2598.00, 
2599.00, 
2600.00, 
