"2cP5 - RawData"
"Wavelength nm.","T%"
200.00,0.003
201.00,0.001
202.00,0.000
203.00,0.000
204.00,0.005
205.00,0.001
206.00,0.001
207.00,0.000
208.00,0.001
209.00,0.002
210.00,0.000
211.00,0.003
212.00,0.001
213.00,0.001
214.00,0.001
215.00,0.000
216.00,0.001
217.00,0.002
218.00,0.002
219.00,0.001
220.00,0.002
221.00,-0.001
222.00,-0.001
223.00,0.000
224.00,0.002
225.00,-0.000
226.00,0.001
227.00,0.000
228.00,0.002
229.00,0.003
230.00,0.001
231.00,0.001
232.00,0.000
233.00,0.001
234.00,-0.003
235.00,0.000
236.00,-0.001
237.00,0.001
238.00,0.001
239.00,-0.000
240.00,0.001
241.00,0.001
242.00,0.000
243.00,0.001
244.00,0.001
245.00,0.002
246.00,-0.001
247.00,-0.002
248.00,0.001
249.00,0.002
250.00,0.001
251.00,-0.000
252.00,-0.002
253.00,0.000
254.00,0.000
255.00,0.000
256.00,0.001
257.00,0.000
258.00,-0.000
259.00,-0.001
260.00,-0.000
261.00,0.001
262.00,-0.000
263.00,0.001
264.00,-0.001
265.00,0.000
266.00,0.001
267.00,0.002
268.00,0.001
269.00,0.000
270.00,0.000
271.00,0.001
272.00,-0.000
273.00,0.001
274.00,-0.000
275.00,0.000
276.00,-0.001
277.00,0.001
278.00,-0.001
279.00,0.001
280.00,0.001
281.00,-0.000
282.00,-0.001
283.00,0.000
284.00,0.002
285.00,0.002
286.00,0.001
287.00,-0.001
288.00,0.001
289.00,0.002
290.00,0.001
291.00,0.000
292.00,0.000
293.00,-0.000
294.00,0.001
295.00,-0.001
296.00,-0.000
297.00,0.000
298.00,0.003
299.00,0.002
300.00,0.003
301.00,0.003
302.00,0.002
303.00,0.004
304.00,0.007
305.00,0.011
306.00,0.018
307.00,0.025
308.00,0.036
309.00,0.060
310.00,0.083
311.00,0.108
312.00,0.151
313.00,0.201
314.00,0.262
315.00,0.343
316.00,0.438
317.00,0.551
318.00,0.677
319.00,0.825
320.00,1.004
321.00,1.197
322.00,1.433
323.00,1.674
324.00,1.944
325.00,2.200
326.00,2.483
327.00,2.800
328.00,3.127
329.00,3.434
330.00,3.779
331.00,4.121
332.00,4.481
333.00,4.867
334.00,5.198
335.00,5.564
336.00,5.914
337.00,6.285
338.00,6.618
339.00,6.939
340.00,7.282
341.00,7.578
342.00,7.901
343.00,8.171
344.00,8.449
345.00,8.726
346.00,8.946
347.00,9.175
348.00,9.398
349.00,9.573
350.00,9.781
351.00,9.922
352.00,10.088
353.00,10.225
354.00,10.370
355.00,10.479
356.00,10.609
357.00,10.696
358.00,10.760
359.00,10.884
360.00,10.974
361.00,10.989
362.00,11.072
363.00,11.143
364.00,11.160
365.00,11.194
366.00,11.215
367.00,11.234
368.00,11.246
369.00,11.241
370.00,11.248
371.00,11.242
372.00,11.195
373.00,11.204
374.00,11.191
375.00,11.126
376.00,11.114
377.00,11.040
378.00,10.990
379.00,10.930
380.00,10.914
381.00,10.876
382.00,10.850
383.00,10.830
384.00,10.825
385.00,10.826
386.00,10.781
387.00,10.781
388.00,10.788
389.00,10.777
390.00,10.762
391.00,10.764
392.00,10.740
393.00,10.709
394.00,10.708
395.00,10.698
396.00,10.678
397.00,10.674
398.00,10.635
399.00,10.648
400.00,10.646
401.00,10.595
402.00,10.620
403.00,10.613
404.00,10.609
405.00,10.590
406.00,10.588
407.00,10.547
408.00,10.540
409.00,10.509
410.00,10.487
411.00,10.489
412.00,10.452
413.00,10.449
414.00,10.458
415.00,10.463
416.00,10.479
417.00,10.468
418.00,10.477
419.00,10.532
420.00,10.540
421.00,10.542
422.00,10.551
423.00,10.581
424.00,10.609
425.00,10.617
426.00,10.647
427.00,10.685
428.00,10.731
429.00,10.746
430.00,10.794
431.00,10.842
432.00,10.874
433.00,10.927
434.00,10.977
435.00,11.012
436.00,11.067
437.00,11.131
438.00,11.179
439.00,11.195
440.00,11.295
441.00,11.362
442.00,11.448
443.00,11.496
444.00,11.588
445.00,11.642
446.00,11.732
447.00,11.810
448.00,11.888
449.00,11.969
450.00,12.083
451.00,12.184
452.00,12.256
453.00,12.349
454.00,12.428
455.00,12.529
456.00,12.641
457.00,12.746
458.00,12.843
459.00,12.934
460.00,13.067
461.00,13.177
462.00,13.292
463.00,13.423
464.00,13.525
465.00,13.635
466.00,13.765
467.00,13.889
468.00,13.985
469.00,14.093
470.00,14.219
471.00,14.338
472.00,14.444
473.00,14.535
474.00,14.662
475.00,14.802
476.00,14.907
477.00,15.050
478.00,15.171
479.00,15.325
480.00,15.457
481.00,15.583
482.00,15.728
483.00,15.882
484.00,16.038
485.00,16.168
486.00,16.316
487.00,16.466
488.00,16.607
489.00,16.771
490.00,16.923
491.00,17.073
492.00,17.244
493.00,17.413
494.00,17.569
495.00,17.627
496.00,17.714
497.00,17.902
498.00,18.054
499.00,18.199
500.00,18.347
501.00,18.471
502.00,18.617
503.00,18.784
504.00,18.855
505.00,19.010
506.00,19.155
507.00,19.252
508.00,19.416
509.00,19.565
510.00,19.686
511.00,19.799
512.00,19.970
513.00,20.126
514.00,20.248
515.00,20.374
516.00,20.522
517.00,20.629
518.00,20.785
519.00,20.858
520.00,20.962
521.00,21.082
522.00,21.206
523.00,21.285
524.00,21.420
525.00,21.530
526.00,21.651
527.00,21.709
528.00,21.837
529.00,21.992
530.00,22.135
531.00,22.269
532.00,22.346
533.00,22.448
534.00,22.563
535.00,22.659
536.00,22.752
537.00,22.871
538.00,22.942
539.00,23.024
540.00,23.136
541.00,23.203
542.00,23.278
543.00,23.349
544.00,23.423
545.00,23.548
546.00,23.595
547.00,23.728
548.00,23.804
549.00,23.850
550.00,23.973
551.00,24.122
552.00,24.133
553.00,24.216
554.00,24.307
555.00,24.342
556.00,24.458
557.00,24.519
558.00,24.597
559.00,24.648
560.00,24.705
561.00,24.804
562.00,24.849
563.00,24.960
564.00,25.030
565.00,25.048
566.00,25.034
567.00,25.158
568.00,25.134
569.00,25.288
570.00,25.334
571.00,25.388
572.00,25.468
573.00,25.476
574.00,25.524
575.00,25.561
576.00,25.608
577.00,25.649
578.00,25.754
579.00,25.826
580.00,25.872
581.00,26.026
582.00,26.100
583.00,26.058
584.00,26.164
585.00,26.269
586.00,26.356
587.00,26.450
588.00,26.448
589.00,26.426
590.00,26.513
591.00,26.603
592.00,26.580
593.00,26.652
594.00,26.772
595.00,26.828
596.00,26.902
597.00,26.984
598.00,26.992
599.00,26.963
600.00,27.137
601.00,27.273
602.00,27.280
603.00,27.323
604.00,27.354
605.00,27.412
606.00,27.526
607.00,27.593
608.00,27.647
609.00,27.641
610.00,27.748
611.00,27.911
612.00,27.854
613.00,27.892
614.00,27.970
615.00,28.080
616.00,28.174
617.00,28.190
618.00,28.261
619.00,28.346
620.00,28.401
621.00,28.465
622.00,28.537
623.00,28.622
624.00,28.715
625.00,28.843
626.00,28.921
627.00,29.007
628.00,29.072
629.00,29.121
630.00,29.170
631.00,29.322
632.00,29.433
633.00,29.559
634.00,29.660
635.00,29.809
636.00,29.872
637.00,29.958
638.00,30.011
639.00,30.156
640.00,30.253
641.00,30.293
642.00,30.480
643.00,30.548
644.00,30.634
645.00,30.803
646.00,30.984
647.00,31.057
648.00,31.213
649.00,31.230
650.00,31.319
651.00,31.557
652.00,31.642
653.00,31.690
654.00,31.822
655.00,32.019
656.00,32.322
657.00,32.227
658.00,32.421
659.00,32.602
660.00,32.696
661.00,32.824
662.00,32.888
663.00,33.065
664.00,33.287
665.00,33.525
666.00,33.504
667.00,33.728
668.00,33.790
669.00,33.928
670.00,34.302
671.00,34.196
672.00,34.320
673.00,34.533
674.00,34.691
675.00,34.862
676.00,35.090
677.00,35.271
678.00,35.134
679.00,35.331
680.00,35.511
681.00,35.755
682.00,35.863
683.00,35.973
684.00,36.183
685.00,36.266
686.00,36.089
687.00,36.660
688.00,36.899
689.00,36.840
690.00,37.169
691.00,37.398
692.00,37.320
693.00,37.332
694.00,37.684
695.00,37.916
696.00,38.012
697.00,38.121
698.00,38.292
699.00,38.574
700.00,38.586
701.00,38.643
702.00,38.928
703.00,39.127
704.00,39.265
705.00,39.274
706.00,39.389
707.00,39.612
708.00,39.503
709.00,39.958
710.00,40.367
711.00,40.110
712.00,40.263
713.00,40.421
714.00,40.689
715.00,40.712
716.00,40.712
717.00,41.021
718.00,41.222
719.00,41.302
720.00,41.448
721.00,45.678
722.00,45.749
723.00,45.803
724.00,45.927
725.00,46.057
726.00,46.140
727.00,46.250
728.00,46.305
729.00,46.425
730.00,46.510
731.00,46.632
732.00,46.734
733.00,46.832
734.00,46.923
735.00,47.083
736.00,47.150
737.00,47.198
738.00,47.390
739.00,47.464
740.00,47.529
741.00,47.636
742.00,47.763
743.00,47.846
744.00,47.841
745.00,47.935
746.00,48.047
747.00,48.038
748.00,48.167
749.00,48.180
750.00,48.310
751.00,48.288
752.00,48.415
753.00,48.432
754.00,48.556
755.00,48.527
756.00,48.640
757.00,48.738
758.00,48.823
759.00,48.832
760.00,48.883
761.00,48.943
762.00,49.075
763.00,49.132
764.00,49.119
765.00,49.181
766.00,49.269
767.00,49.315
768.00,49.350
769.00,49.388
770.00,49.422
771.00,49.549
772.00,49.579
773.00,49.610
774.00,49.724
775.00,49.765
776.00,49.776
777.00,49.938
778.00,49.890
779.00,49.960
780.00,49.947
781.00,49.976
782.00,50.122
783.00,50.048
784.00,50.155
785.00,50.086
786.00,50.202
787.00,50.224
788.00,50.272
789.00,50.291
790.00,50.328
791.00,50.335
792.00,50.281
793.00,50.341
794.00,50.351
795.00,50.389
796.00,50.425
797.00,50.413
798.00,50.435
799.00,50.465
800.00,50.440
801.00,50.485
802.00,50.508
803.00,50.444
804.00,50.491
805.00,50.636
806.00,50.557
807.00,50.661
808.00,50.586
809.00,50.498
810.00,50.566
811.00,50.567
812.00,50.582
813.00,50.611
814.00,50.681
815.00,50.657
816.00,50.583
817.00,50.658
818.00,50.601
819.00,50.706
820.00,50.601
821.00,50.651
822.00,50.736
823.00,50.648
824.00,50.723
825.00,50.714
826.00,50.665
827.00,50.700
828.00,50.783
829.00,50.762
830.00,50.793
831.00,52.875
832.00,52.881
833.00,52.873
834.00,52.898
835.00,52.863
836.00,52.887
837.00,52.855
838.00,52.873
839.00,52.868
840.00,52.840
841.00,52.895
842.00,52.881
843.00,52.905
844.00,52.868
845.00,52.847
846.00,52.877
847.00,52.832
848.00,52.884
849.00,52.775
850.00,52.808
851.00,52.736
852.00,52.786
853.00,52.746
854.00,52.701
855.00,52.692
856.00,52.667
857.00,52.684
858.00,52.637
859.00,52.614
860.00,52.673
861.00,52.662
862.00,52.579
863.00,52.645
864.00,52.630
865.00,52.651
866.00,52.626
867.00,52.647
868.00,52.628
869.00,52.649
870.00,52.626
871.00,52.614
872.00,52.614
873.00,52.567
874.00,52.633
875.00,52.572
876.00,52.599
877.00,52.594
878.00,52.610
879.00,52.653
880.00,52.600
881.00,52.587
882.00,52.629
883.00,52.548
884.00,52.517
885.00,52.542
886.00,52.554
887.00,52.504
888.00,52.486
889.00,52.532
890.00,52.411
891.00,52.457
892.00,52.421
893.00,52.424
894.00,52.475
895.00,52.279
896.00,52.365
897.00,52.368
898.00,52.352
899.00,52.359
900.00,52.344
901.00,52.347
902.00,52.366
903.00,52.298
904.00,52.304
905.00,52.308
906.00,52.307
907.00,52.286
908.00,52.233
909.00,52.247
910.00,52.234
911.00,52.221
912.00,52.209
913.00,52.166
914.00,52.185
915.00,52.150
916.00,52.128
917.00,52.122
918.00,52.108
919.00,52.082
920.00,52.062
921.00,52.049
922.00,52.036
923.00,52.026
924.00,51.995
925.00,51.999
926.00,51.992
927.00,51.972
928.00,51.948
929.00,51.973
930.00,51.923
931.00,51.905
932.00,51.939
933.00,51.920
934.00,51.859
935.00,51.844
936.00,51.805
937.00,51.821
938.00,51.737
939.00,51.790
940.00,51.763
941.00,51.762
942.00,51.743
943.00,51.745
944.00,51.717
945.00,51.721
946.00,51.695
947.00,51.645
948.00,51.620
949.00,51.604
950.00,51.603
951.00,51.575
952.00,51.569
953.00,51.537
954.00,51.520
955.00,51.490
956.00,51.480
957.00,51.451
958.00,51.453
959.00,51.402
960.00,51.382
961.00,51.385
962.00,51.378
963.00,51.345
964.00,51.351
965.00,51.330
966.00,51.377
967.00,51.329
968.00,51.304
969.00,51.339
970.00,51.306
971.00,51.325
972.00,51.294
973.00,51.328
974.00,51.341
975.00,51.297
976.00,51.323
977.00,51.310
978.00,51.345
979.00,51.307
980.00,51.344
981.00,51.330
982.00,51.295
983.00,51.320
984.00,51.295
985.00,51.327
986.00,51.260
987.00,51.289
988.00,51.258
989.00,51.239
990.00,51.227
991.00,51.263
992.00,51.257
993.00,51.212
994.00,51.223
995.00,51.218
996.00,51.220
997.00,51.208
998.00,51.162
999.00,51.186
1000.00,51.125
1001.00,51.140
1002.00,51.132
1003.00,51.100
1004.00,51.093
1005.00,51.068
1006.00,51.108
1007.00,51.063
1008.00,51.054
1009.00,51.044
1010.00,51.038
1011.00,51.029
1012.00,50.998
1013.00,51.008
1014.00,50.940
1015.00,50.962
1016.00,50.924
1017.00,50.926
1018.00,50.930
1019.00,50.888
1020.00,50.902
1021.00,50.865
1022.00,50.848
1023.00,50.819
1024.00,50.836
1025.00,50.847
1026.00,50.780
1027.00,50.779
1028.00,50.762
1029.00,50.755
1030.00,50.718
1031.00,50.727
1032.00,50.682
1033.00,50.682
1034.00,50.682
1035.00,50.648
1036.00,50.622
1037.00,50.612
1038.00,50.612
1039.00,50.569
1040.00,50.571
1041.00,50.536
1042.00,50.514
1043.00,50.482
1044.00,50.502
1045.00,50.480
1046.00,50.475
1047.00,50.510
1048.00,50.524
1049.00,50.559
1050.00,50.562
1051.00,50.583
1052.00,50.561
1053.00,50.578
1054.00,50.565
1055.00,50.592
1056.00,50.601
1057.00,50.604
1058.00,50.586
1059.00,50.580
1060.00,50.596
1061.00,50.569
1062.00,50.567
1063.00,50.576
1064.00,50.567
1065.00,50.549
1066.00,50.536
1067.00,50.536
1068.00,50.559
1069.00,50.506
1070.00,50.493
1071.00,50.493
1072.00,50.513
1073.00,50.479
1074.00,50.491
1075.00,50.458
1076.00,50.473
1077.00,50.448
1078.00,50.420
1079.00,50.435
1080.00,50.413
1081.00,50.408
1082.00,50.403
1083.00,50.384
1084.00,50.389
1085.00,50.376
1086.00,50.361
1087.00,50.357
1088.00,50.340
1089.00,50.325
1090.00,50.330
1091.00,50.323
1092.00,50.306
1093.00,50.308
1094.00,50.279
1095.00,50.285
1096.00,50.265
1097.00,50.257
1098.00,50.250
1099.00,50.237
1100.00,50.244
1101.00,50.236
1102.00,50.216
1103.00,50.229
1104.00,50.226
1105.00,50.206
1106.00,50.193
1107.00,50.198
1108.00,50.171
1109.00,50.171
1110.00,50.153
1111.00,50.141
1112.00,50.128
1113.00,50.102
1114.00,50.111
1115.00,50.130
1116.00,50.110
1117.00,50.102
1118.00,50.092
1119.00,50.081
1120.00,50.069
1121.00,50.067
1122.00,50.041
1123.00,50.045
1124.00,50.042
1125.00,50.048
1126.00,50.040
1127.00,50.035
1128.00,50.027
1129.00,50.016
1130.00,50.001
1131.00,50.006
1132.00,49.999
1133.00,50.009
1134.00,49.990
1135.00,49.974
1136.00,49.963
1137.00,49.986
1138.00,49.963
1139.00,49.968
1140.00,49.959
1141.00,49.940
1142.00,49.931
1143.00,49.947
1144.00,49.915
1145.00,49.919
1146.00,49.896
1147.00,49.904
1148.00,49.899
1149.00,49.915
1150.00,49.912
1151.00,49.911
1152.00,49.891
1153.00,49.879
1154.00,49.855
1155.00,49.854
1156.00,49.848
1157.00,49.852
1158.00,49.844
1159.00,49.865
1160.00,49.853
1161.00,49.854
1162.00,49.851
1163.00,49.839
1164.00,49.837
1165.00,49.828
1166.00,49.837
1167.00,49.832
1168.00,49.843
1169.00,49.831
1170.00,49.838
1171.00,49.811
1172.00,49.814
1173.00,49.814
1174.00,49.813
1175.00,49.812
1176.00,49.802
1177.00,49.796
1178.00,49.793
1179.00,49.796
1180.00,49.786
1181.00,49.815
1182.00,49.800
1183.00,49.790
1184.00,49.795
1185.00,49.803
1186.00,49.798
1187.00,49.792
1188.00,49.779
1189.00,49.791
1190.00,49.773
1191.00,49.762
1192.00,49.794
1193.00,49.769
1194.00,49.783
1195.00,49.744
1196.00,49.788
1197.00,49.786
1198.00,49.752
1199.00,49.769
1200.00,49.773
1201.00,49.789
1202.00,49.768
1203.00,49.781
1204.00,49.764
1205.00,49.781
1206.00,49.776
1207.00,49.772
1208.00,49.758
1209.00,49.756
1210.00,49.767
1211.00,49.746
1212.00,49.749
1213.00,49.706
1214.00,49.752
1215.00,49.728
1216.00,49.738
1217.00,49.761
1218.00,49.732
1219.00,49.769
1220.00,49.745
1221.00,49.738
1222.00,49.725
1223.00,49.723
1224.00,49.741
1225.00,49.733
1226.00,49.728
1227.00,49.721
1228.00,49.747
1229.00,49.749
1230.00,49.783
1231.00,49.768
1232.00,49.787
1233.00,49.795
1234.00,49.780
1235.00,49.776
1236.00,49.789
1237.00,49.781
1238.00,49.786
1239.00,49.796
1240.00,49.770
1241.00,49.785
1242.00,49.774
1243.00,49.805
1244.00,49.785
1245.00,49.808
1246.00,49.820
1247.00,49.806
1248.00,49.801
1249.00,49.812
1250.00,49.825
1251.00,49.815
1252.00,49.830
1253.00,49.797
1254.00,49.824
1255.00,49.832
1256.00,49.797
1257.00,49.784
1258.00,49.836
1259.00,49.824
1260.00,49.851
1261.00,49.844
1262.00,49.839
1263.00,49.845
1264.00,49.834
1265.00,49.853
1266.00,49.857
1267.00,49.845
1268.00,49.863
1269.00,49.873
1270.00,49.885
1271.00,49.893
1272.00,49.879
1273.00,49.891
1274.00,49.877
1275.00,49.875
1276.00,49.888
1277.00,49.894
1278.00,49.902
1279.00,49.898
1280.00,49.890
1281.00,49.901
1282.00,49.911
1283.00,49.978
1284.00,49.928
1285.00,49.914
1286.00,49.926
1287.00,49.917
1288.00,49.939
1289.00,49.914
1290.00,49.958
1291.00,49.956
1292.00,49.951
1293.00,49.947
1294.00,49.959
1295.00,49.972
1296.00,49.967
1297.00,49.975
1298.00,49.997
1299.00,49.992
1300.00,49.986
1301.00,49.999
1302.00,50.037
1303.00,50.009
1304.00,49.990
1305.00,50.018
1306.00,50.026
1307.00,50.034
1308.00,50.019
1309.00,50.039
1310.00,50.040
1311.00,50.020
1312.00,50.030
1313.00,50.060
1314.00,50.055
1315.00,50.064
1316.00,50.060
1317.00,50.084
1318.00,50.083
1319.00,50.087
1320.00,50.100
1321.00,50.236
1322.00,50.220
1323.00,50.226
1324.00,50.222
1325.00,50.206
1326.00,50.217
1327.00,50.236
1328.00,50.287
1329.00,50.183
1330.00,50.246
1331.00,50.218
1332.00,50.232
1333.00,50.236
1334.00,50.259
1335.00,50.286
1336.00,50.299
1337.00,50.337
1338.00,50.407
1339.00,50.430
1340.00,50.491
1341.00,50.565
1342.00,50.616
1343.00,50.668
1344.00,50.711
1345.00,50.770
1346.00,50.815
1347.00,50.815
1348.00,50.847
1349.00,50.883
1350.00,50.876
1351.00,50.894
1352.00,50.917
1353.00,50.937
1354.00,50.895
1355.00,50.766
1356.00,50.967
1357.00,50.910
1358.00,50.915
1359.00,50.995
1360.00,51.099
1361.00,51.487
1362.00,50.939
1363.00,51.026
1364.00,50.966
1365.00,50.929
1366.00,50.960
1367.00,50.940
1368.00,50.925
1369.00,50.927
1370.00,50.942
1371.00,50.880
1372.00,50.895
1373.00,50.940
1374.00,50.930
1375.00,50.922
1376.00,50.937
1377.00,50.931
1378.00,50.949
1379.00,50.904
1380.00,50.897
1381.00,50.982
1382.00,50.864
1383.00,50.902
1384.00,50.867
1385.00,50.893
1386.00,50.920
1387.00,50.866
1388.00,50.831
1389.00,50.852
1390.00,50.915
1391.00,50.854
1392.00,50.863
1393.00,50.902
1394.00,50.895
1395.00,50.833
1396.00,50.829
1397.00,50.852
1398.00,50.925
1399.00,50.914
1400.00,50.880
1401.00,50.877
1402.00,50.965
1403.00,50.896
1404.00,50.914
1405.00,50.960
1406.00,50.946
1407.00,50.959
1408.00,50.945
1409.00,50.914
1410.00,50.975
1411.00,50.970
1412.00,51.059
1413.00,50.959
1414.00,50.951
1415.00,51.021
1416.00,51.027
1417.00,51.055
1418.00,51.026
1419.00,51.030
1420.00,51.053
1421.00,51.093
1422.00,51.088
1423.00,51.110
1424.00,51.097
1425.00,51.110
1426.00,51.130
1427.00,51.145
1428.00,51.130
1429.00,51.180
1430.00,51.183
1431.00,51.196
1432.00,51.206
1433.00,51.223
1434.00,51.236
1435.00,51.271
1436.00,51.270
1437.00,51.274
1438.00,51.287
1439.00,51.316
1440.00,51.328
1441.00,51.322
1442.00,51.343
1443.00,51.364
1444.00,51.396
1445.00,51.350
1446.00,51.382
1447.00,51.415
1448.00,51.461
1449.00,51.442
1450.00,51.442
1451.00,51.469
1452.00,51.475
1453.00,51.473
1454.00,51.495
1455.00,51.532
1456.00,51.564
1457.00,51.543
1458.00,51.578
1459.00,51.599
1460.00,51.619
1461.00,51.632
1462.00,51.674
1463.00,51.657
1464.00,51.664
1465.00,51.682
1466.00,51.685
1467.00,51.723
1468.00,51.758
1469.00,51.724
1470.00,51.751
1471.00,51.746
1472.00,51.757
1473.00,51.790
1474.00,51.805
1475.00,51.824
1476.00,51.826
1477.00,51.812
1478.00,51.850
1479.00,51.844
1480.00,51.843
1481.00,51.861
1482.00,51.912
1483.00,51.913
1484.00,51.923
1485.00,51.929
1486.00,51.935
1487.00,51.955
1488.00,51.990
1489.00,51.986
1490.00,51.998
1491.00,52.000
1492.00,52.020
1493.00,52.001
1494.00,52.050
1495.00,52.067
1496.00,52.061
1497.00,52.063
1498.00,52.083
1499.00,52.097
1500.00,52.117
1501.00, 
1502.00, 
1503.00, 
1504.00, 
1505.00, 
1506.00, 
1507.00, 
1508.00, 
1509.00, 
1510.00, 
1511.00, 
1512.00, 
1513.00, 
1514.00, 
1515.00, 
1516.00, 
1517.00, 
1518.00, 
1519.00, 
1520.00, 
1521.00, 
1522.00, 
1523.00, 
1524.00, 
1525.00, 
1526.00, 
1527.00, 
1528.00, 
1529.00, 
1530.00, 
1531.00, 
1532.00, 
1533.00, 
1534.00, 
1535.00, 
1536.00, 
1537.00, 
1538.00, 
1539.00, 
1540.00, 
1541.00, 
1542.00, 
1543.00, 
1544.00, 
1545.00, 
1546.00, 
1547.00, 
1548.00, 
1549.00, 
1550.00, 
1551.00, 
1552.00, 
1553.00, 
1554.00, 
1555.00, 
1556.00, 
1557.00, 
1558.00, 
1559.00, 
1560.00, 
1561.00, 
1562.00, 
1563.00, 
1564.00, 
1565.00, 
1566.00, 
1567.00, 
1568.00, 
1569.00, 
1570.00, 
1571.00, 
1572.00, 
1573.00, 
1574.00, 
1575.00, 
1576.00, 
1577.00, 
1578.00, 
1579.00, 
1580.00, 
1581.00, 
1582.00, 
1583.00, 
1584.00, 
1585.00, 
1586.00, 
1587.00, 
1588.00, 
1589.00, 
1590.00, 
1591.00, 
1592.00, 
1593.00, 
1594.00, 
1595.00, 
1596.00, 
1597.00, 
1598.00, 
1599.00, 
1600.00, 
1601.00, 
1602.00, 
1603.00, 
1604.00, 
1605.00, 
1606.00, 
1607.00, 
1608.00, 
1609.00, 
1610.00, 
1611.00, 
1612.00, 
1613.00, 
1614.00, 
1615.00, 
1616.00, 
1617.00, 
1618.00, 
1619.00, 
1620.00, 
1621.00, 
1622.00, 
1623.00, 
1624.00, 
1625.00, 
1626.00, 
1627.00, 
1628.00, 
1629.00, 
1630.00, 
1631.00, 
1632.00, 
1633.00, 
1634.00, 
1635.00, 
1636.00, 
1637.00, 
1638.00, 
1639.00, 
1640.00, 
1641.00, 
1642.00, 
1643.00, 
1644.00, 
1645.00, 
1646.00, 
1647.00, 
1648.00, 
1649.00, 
1650.00, 
1651.00, 
1652.00, 
1653.00, 
1654.00, 
1655.00, 
1656.00, 
1657.00, 
1658.00, 
1659.00, 
1660.00, 
1661.00, 
1662.00, 
1663.00, 
1664.00, 
1665.00, 
1666.00, 
1667.00, 
1668.00, 
1669.00, 
1670.00, 
1671.00, 
1672.00, 
1673.00, 
1674.00, 
1675.00, 
1676.00, 
1677.00, 
1678.00, 
1679.00, 
1680.00, 
1681.00, 
1682.00, 
1683.00, 
1684.00, 
1685.00, 
1686.00, 
1687.00, 
1688.00, 
1689.00, 
1690.00, 
1691.00, 
1692.00, 
1693.00, 
1694.00, 
1695.00, 
1696.00, 
1697.00, 
1698.00, 
1699.00, 
1700.00, 
1701.00, 
1702.00, 
1703.00, 
1704.00, 
1705.00, 
1706.00, 
1707.00, 
1708.00, 
1709.00, 
1710.00, 
1711.00, 
1712.00, 
1713.00, 
1714.00, 
1715.00, 
1716.00, 
1717.00, 
1718.00, 
1719.00, 
1720.00, 
1721.00, 
1722.00, 
1723.00, 
1724.00, 
1725.00, 
1726.00, 
1727.00, 
1728.00, 
1729.00, 
1730.00, 
1731.00, 
1732.00, 
1733.00, 
1734.00, 
1735.00, 
1736.00, 
1737.00, 
1738.00, 
1739.00, 
1740.00, 
1741.00, 
1742.00, 
1743.00, 
1744.00, 
1745.00, 
1746.00, 
1747.00, 
1748.00, 
1749.00, 
1750.00, 
1751.00, 
1752.00, 
1753.00, 
1754.00, 
1755.00, 
1756.00, 
1757.00, 
1758.00, 
1759.00, 
1760.00, 
1761.00, 
1762.00, 
1763.00, 
1764.00, 
1765.00, 
1766.00, 
1767.00, 
1768.00, 
1769.00, 
1770.00, 
1771.00, 
1772.00, 
1773.00, 
1774.00, 
1775.00, 
1776.00, 
1777.00, 
1778.00, 
1779.00, 
1780.00, 
1781.00, 
1782.00, 
1783.00, 
1784.00, 
1785.00, 
1786.00, 
1787.00, 
1788.00, 
1789.00, 
1790.00, 
1791.00, 
1792.00, 
1793.00, 
1794.00, 
1795.00, 
1796.00, 
1797.00, 
1798.00, 
1799.00, 
1800.00, 
1801.00, 
1802.00, 
1803.00, 
1804.00, 
1805.00, 
1806.00, 
1807.00, 
1808.00, 
1809.00, 
1810.00, 
1811.00, 
1812.00, 
1813.00, 
1814.00, 
1815.00, 
1816.00, 
1817.00, 
1818.00, 
1819.00, 
1820.00, 
1821.00, 
1822.00, 
1823.00, 
1824.00, 
1825.00, 
1826.00, 
1827.00, 
1828.00, 
1829.00, 
1830.00, 
1831.00, 
1832.00, 
1833.00, 
1834.00, 
1835.00, 
1836.00, 
1837.00, 
1838.00, 
1839.00, 
1840.00, 
1841.00, 
1842.00, 
1843.00, 
1844.00, 
1845.00, 
1846.00, 
1847.00, 
1848.00, 
1849.00, 
1850.00, 
1851.00, 
1852.00, 
1853.00, 
1854.00, 
1855.00, 
1856.00, 
1857.00, 
1858.00, 
1859.00, 
1860.00, 
1861.00, 
1862.00, 
1863.00, 
1864.00, 
1865.00, 
1866.00, 
1867.00, 
1868.00, 
1869.00, 
1870.00, 
1871.00, 
1872.00, 
1873.00, 
1874.00, 
1875.00, 
1876.00, 
1877.00, 
1878.00, 
1879.00, 
1880.00, 
1881.00, 
1882.00, 
1883.00, 
1884.00, 
1885.00, 
1886.00, 
1887.00, 
1888.00, 
1889.00, 
1890.00, 
1891.00, 
1892.00, 
1893.00, 
1894.00, 
1895.00, 
1896.00, 
1897.00, 
1898.00, 
1899.00, 
1900.00, 
1901.00, 
1902.00, 
1903.00, 
1904.00, 
1905.00, 
1906.00, 
1907.00, 
1908.00, 
1909.00, 
1910.00, 
1911.00, 
1912.00, 
1913.00, 
1914.00, 
1915.00, 
1916.00, 
1917.00, 
1918.00, 
1919.00, 
1920.00, 
1921.00, 
1922.00, 
1923.00, 
1924.00, 
1925.00, 
1926.00, 
1927.00, 
1928.00, 
1929.00, 
1930.00, 
1931.00, 
1932.00, 
1933.00, 
1934.00, 
1935.00, 
1936.00, 
1937.00, 
1938.00, 
1939.00, 
1940.00, 
1941.00, 
1942.00, 
1943.00, 
1944.00, 
1945.00, 
1946.00, 
1947.00, 
1948.00, 
1949.00, 
1950.00, 
1951.00, 
1952.00, 
1953.00, 
1954.00, 
1955.00, 
1956.00, 
1957.00, 
1958.00, 
1959.00, 
1960.00, 
1961.00, 
1962.00, 
1963.00, 
1964.00, 
1965.00, 
1966.00, 
1967.00, 
1968.00, 
1969.00, 
1970.00, 
1971.00, 
1972.00, 
1973.00, 
1974.00, 
1975.00, 
1976.00, 
1977.00, 
1978.00, 
1979.00, 
1980.00, 
1981.00, 
1982.00, 
1983.00, 
1984.00, 
1985.00, 
1986.00, 
1987.00, 
1988.00, 
1989.00, 
1990.00, 
1991.00, 
1992.00, 
1993.00, 
1994.00, 
1995.00, 
1996.00, 
1997.00, 
1998.00, 
1999.00, 
2000.00, 
2001.00, 
2002.00, 
2003.00, 
2004.00, 
2005.00, 
2006.00, 
2007.00, 
2008.00, 
2009.00, 
2010.00, 
2011.00, 
2012.00, 
2013.00, 
2014.00, 
2015.00, 
2016.00, 
2017.00, 
2018.00, 
2019.00, 
2020.00, 
2021.00, 
2022.00, 
2023.00, 
2024.00, 
2025.00, 
2026.00, 
2027.00, 
2028.00, 
2029.00, 
2030.00, 
2031.00, 
2032.00, 
2033.00, 
2034.00, 
2035.00, 
2036.00, 
2037.00, 
2038.00, 
2039.00, 
2040.00, 
2041.00, 
2042.00, 
2043.00, 
2044.00, 
2045.00, 
2046.00, 
2047.00, 
2048.00, 
2049.00, 
2050.00, 
2051.00, 
2052.00, 
2053.00, 
2054.00, 
2055.00, 
2056.00, 
2057.00, 
2058.00, 
2059.00, 
2060.00, 
2061.00, 
2062.00, 
2063.00, 
2064.00, 
2065.00, 
2066.00, 
2067.00, 
2068.00, 
2069.00, 
2070.00, 
2071.00, 
2072.00, 
2073.00, 
2074.00, 
2075.00, 
2076.00, 
2077.00, 
2078.00, 
2079.00, 
2080.00, 
2081.00, 
2082.00, 
2083.00, 
2084.00, 
2085.00, 
2086.00, 
2087.00, 
2088.00, 
2089.00, 
2090.00, 
2091.00, 
2092.00, 
2093.00, 
2094.00, 
2095.00, 
2096.00, 
2097.00, 
2098.00, 
2099.00, 
2100.00, 
2101.00, 
2102.00, 
2103.00, 
2104.00, 
2105.00, 
2106.00, 
2107.00, 
2108.00, 
2109.00, 
2110.00, 
2111.00, 
2112.00, 
2113.00, 
2114.00, 
2115.00, 
2116.00, 
2117.00, 
2118.00, 
2119.00, 
2120.00, 
2121.00, 
2122.00, 
2123.00, 
2124.00, 
2125.00, 
2126.00, 
2127.00, 
2128.00, 
2129.00, 
2130.00, 
2131.00, 
2132.00, 
2133.00, 
2134.00, 
2135.00, 
2136.00, 
2137.00, 
2138.00, 
2139.00, 
2140.00, 
2141.00, 
2142.00, 
2143.00, 
2144.00, 
2145.00, 
2146.00, 
2147.00, 
2148.00, 
2149.00, 
2150.00, 
2151.00, 
2152.00, 
2153.00, 
2154.00, 
2155.00, 
2156.00, 
2157.00, 
2158.00, 
2159.00, 
2160.00, 
2161.00, 
2162.00, 
2163.00, 
2164.00, 
2165.00, 
2166.00, 
2167.00, 
2168.00, 
2169.00, 
2170.00, 
2171.00, 
2172.00, 
2173.00, 
2174.00, 
2175.00, 
2176.00, 
2177.00, 
2178.00, 
2179.00, 
2180.00, 
2181.00, 
2182.00, 
2183.00, 
2184.00, 
2185.00, 
2186.00, 
2187.00, 
2188.00, 
2189.00, 
2190.00, 
2191.00, 
2192.00, 
2193.00, 
2194.00, 
2195.00, 
2196.00, 
2197.00, 
2198.00, 
2199.00, 
2200.00, 
2201.00, 
2202.00, 
2203.00, 
2204.00, 
2205.00, 
2206.00, 
2207.00, 
2208.00, 
2209.00, 
2210.00, 
2211.00, 
2212.00, 
2213.00, 
2214.00, 
2215.00, 
2216.00, 
2217.00, 
2218.00, 
2219.00, 
2220.00, 
2221.00, 
2222.00, 
2223.00, 
2224.00, 
2225.00, 
2226.00, 
2227.00, 
2228.00, 
2229.00, 
2230.00, 
2231.00, 
2232.00, 
2233.00, 
2234.00, 
2235.00, 
2236.00, 
2237.00, 
2238.00, 
2239.00, 
2240.00, 
2241.00, 
2242.00, 
2243.00, 
2244.00, 
2245.00, 
2246.00, 
2247.00, 
2248.00, 
2249.00, 
2250.00, 
2251.00, 
2252.00, 
2253.00, 
2254.00, 
2255.00, 
2256.00, 
2257.00, 
2258.00, 
2259.00, 
2260.00, 
2261.00, 
2262.00, 
2263.00, 
2264.00, 
2265.00, 
2266.00, 
2267.00, 
2268.00, 
2269.00, 
2270.00, 
2271.00, 
2272.00, 
2273.00, 
2274.00, 
2275.00, 
2276.00, 
2277.00, 
2278.00, 
2279.00, 
2280.00, 
2281.00, 
2282.00, 
2283.00, 
2284.00, 
2285.00, 
2286.00, 
2287.00, 
2288.00, 
2289.00, 
2290.00, 
2291.00, 
2292.00, 
2293.00, 
2294.00, 
2295.00, 
2296.00, 
2297.00, 
2298.00, 
2299.00, 
2300.00, 
2301.00, 
2302.00, 
2303.00, 
2304.00, 
2305.00, 
2306.00, 
2307.00, 
2308.00, 
2309.00, 
2310.00, 
2311.00, 
2312.00, 
2313.00, 
2314.00, 
2315.00, 
2316.00, 
2317.00, 
2318.00, 
2319.00, 
2320.00, 
2321.00, 
2322.00, 
2323.00, 
2324.00, 
2325.00, 
2326.00, 
2327.00, 
2328.00, 
2329.00, 
2330.00, 
2331.00, 
2332.00, 
2333.00, 
2334.00, 
2335.00, 
2336.00, 
2337.00, 
2338.00, 
2339.00, 
2340.00, 
2341.00, 
2342.00, 
2343.00, 
2344.00, 
2345.00, 
2346.00, 
2347.00, 
2348.00, 
2349.00, 
2350.00, 
2351.00, 
2352.00, 
2353.00, 
2354.00, 
2355.00, 
2356.00, 
2357.00, 
2358.00, 
2359.00, 
2360.00, 
2361.00, 
2362.00, 
2363.00, 
2364.00, 
2365.00, 
2366.00, 
2367.00, 
2368.00, 
2369.00, 
2370.00, 
2371.00, 
2372.00, 
2373.00, 
2374.00, 
2375.00, 
2376.00, 
2377.00, 
2378.00, 
2379.00, 
2380.00, 
2381.00, 
2382.00, 
2383.00, 
2384.00, 
2385.00, 
2386.00, 
2387.00, 
2388.00, 
2389.00, 
2390.00, 
2391.00, 
2392.00, 
2393.00, 
2394.00, 
2395.00, 
2396.00, 
2397.00, 
2398.00, 
2399.00, 
2400.00, 
2401.00, 
2402.00, 
2403.00, 
2404.00, 
2405.00, 
2406.00, 
2407.00, 
2408.00, 
2409.00, 
2410.00, 
2411.00, 
2412.00, 
2413.00, 
2414.00, 
2415.00, 
2416.00, 
2417.00, 
2418.00, 
2419.00, 
2420.00, 
2421.00, 
2422.00, 
2423.00, 
2424.00, 
2425.00, 
2426.00, 
2427.00, 
2428.00, 
2429.00, 
2430.00, 
2431.00, 
2432.00, 
2433.00, 
2434.00, 
2435.00, 
2436.00, 
2437.00, 
2438.00, 
2439.00, 
2440.00, 
2441.00, 
2442.00, 
2443.00, 
2444.00, 
2445.00, 
2446.00, 
2447.00, 
2448.00, 
2449.00, 
2450.00, 
2451.00, 
2452.00, 
2453.00, 
2454.00, 
2455.00, 
2456.00, 
2457.00, 
2458.00, 
2459.00, 
2460.00, 
2461.00, 
2462.00, 
2463.00, 
2464.00, 
2465.00, 
2466.00, 
2467.00, 
2468.00, 
2469.00, 
2470.00, 
2471.00, 
2472.00, 
2473.00, 
2474.00, 
2475.00, 
2476.00, 
2477.00, 
2478.00, 
2479.00, 
2480.00, 
2481.00, 
2482.00, 
2483.00, 
2484.00, 
2485.00, 
2486.00, 
2487.00, 
2488.00, 
2489.00, 
2490.00, 
2491.00, 
2492.00, 
2493.00, 
2494.00, 
2495.00, 
2496.00, 
2497.00, 
2498.00, 
2499.00, 
2500.00, 
2501.00, 
2502.00, 
2503.00, 
2504.00, 
2505.00, 
2506.00, 
2507.00, 
2508.00, 
2509.00, 
2510.00, 
2511.00, 
2512.00, 
2513.00, 
2514.00, 
2515.00, 
2516.00, 
2517.00, 
2518.00, 
2519.00, 
2520.00, 
2521.00, 
2522.00, 
2523.00, 
2524.00, 
2525.00, 
2526.00, 
2527.00, 
2528.00, 
2529.00, 
2530.00, 
2531.00, 
2532.00, 
2533.00, 
2534.00, 
2535.00, 
2536.00, 
2537.00, 
2538.00, 
2539.00, 
2540.00, 
2541.00, 
2542.00, 
2543.00, 
2544.00, 
2545.00, 
2546.00, 
2547.00, 
2548.00, 
2549.00, 
2550.00, 
2551.00, 
2552.00, 
2553.00, 
2554.00, 
2555.00, 
2556.00, 
2557.00, 
2558.00, 
2559.00, 
2560.00, 
2561.00, 
2562.00, 
2563.00, 
2564.00, 
2565.00, 
2566.00, 
2567.00, 
2568.00, 
2569.00, 
2570.00, 
2571.00, 
2572.00, 
2573.00, 
2574.00, 
2575.00, 
2576.00, 
2577.00, 
2578.00, 
2579.00, 
2580.00, 
2581.00, 
2582.00, 
2583.00, 
2584.00, 
2585.00, 
2586.00, 
2587.00, 
2588.00, 
2589.00, 
2590.00, 
2591.00, 
2592.00, 
2593.00, 
2594.00, 
2595.00, 
2596.00, 
2597.00, 
2598.00, 
2599.00, 
2600.00, 
