"1cP4 - RawData"
"Wavelength nm.","T%"
200.00,-0.000
201.00,0.003
202.00,0.003
203.00,0.006
204.00,0.003
205.00,0.002
206.00,0.004
207.00,-0.000
208.00,0.002
209.00,-0.001
210.00,0.001
211.00,-0.001
212.00,-0.002
213.00,0.001
214.00,0.000
215.00,-0.000
216.00,-0.002
217.00,0.005
218.00,-0.000
219.00,0.000
220.00,0.002
221.00,0.001
222.00,-0.001
223.00,-0.000
224.00,0.002
225.00,0.001
226.00,-0.000
227.00,-0.001
228.00,0.001
229.00,0.000
230.00,-0.001
231.00,-0.000
232.00,0.002
233.00,-0.000
234.00,0.001
235.00,0.002
236.00,0.001
237.00,0.002
238.00,0.003
239.00,0.000
240.00,0.000
241.00,0.000
242.00,-0.001
243.00,0.001
244.00,-0.000
245.00,0.001
246.00,-0.002
247.00,0.002
248.00,-0.000
249.00,-0.001
250.00,-0.000
251.00,0.001
252.00,0.001
253.00,-0.000
254.00,0.001
255.00,-0.001
256.00,0.000
257.00,0.000
258.00,0.001
259.00,-0.003
260.00,-0.000
261.00,0.003
262.00,0.000
263.00,-0.001
264.00,-0.001
265.00,-0.000
266.00,0.000
267.00,0.001
268.00,0.001
269.00,0.000
270.00,0.001
271.00,0.001
272.00,-0.001
273.00,-0.000
274.00,0.002
275.00,0.001
276.00,0.001
277.00,-0.000
278.00,-0.001
279.00,0.000
280.00,0.000
281.00,0.002
282.00,-0.000
283.00,0.001
284.00,0.000
285.00,-0.001
286.00,-0.000
287.00,0.001
288.00,0.001
289.00,-0.000
290.00,-0.001
291.00,0.001
292.00,0.001
293.00,0.002
294.00,-0.001
295.00,-0.001
296.00,-0.000
297.00,0.001
298.00,0.000
299.00,-0.000
300.00,-0.001
301.00,0.001
302.00,-0.000
303.00,0.001
304.00,0.002
305.00,0.002
306.00,-0.000
307.00,0.005
308.00,0.006
309.00,0.011
310.00,0.016
311.00,0.025
312.00,0.038
313.00,0.055
314.00,0.081
315.00,0.128
316.00,0.179
317.00,0.256
318.00,0.348
319.00,0.477
320.00,0.623
321.00,0.807
322.00,1.032
323.00,1.308
324.00,1.618
325.00,1.932
326.00,2.305
327.00,2.750
328.00,3.210
329.00,3.689
330.00,4.159
331.00,4.759
332.00,5.347
333.00,5.983
334.00,6.585
335.00,7.253
336.00,7.912
337.00,8.603
338.00,9.252
339.00,9.859
340.00,10.516
341.00,11.150
342.00,11.715
343.00,12.361
344.00,12.942
345.00,13.479
346.00,13.964
347.00,14.452
348.00,14.925
349.00,15.328
350.00,15.776
351.00,16.140
352.00,16.482
353.00,16.809
354.00,17.155
355.00,17.486
356.00,17.733
357.00,17.966
358.00,18.237
359.00,18.505
360.00,18.725
361.00,18.839
362.00,19.012
363.00,19.179
364.00,19.247
365.00,19.360
366.00,19.414
367.00,19.527
368.00,19.568
369.00,19.620
370.00,19.675
371.00,19.660
372.00,19.636
373.00,19.666
374.00,19.640
375.00,19.635
376.00,19.506
377.00,19.403
378.00,19.327
379.00,19.222
380.00,19.228
381.00,19.186
382.00,19.163
383.00,19.186
384.00,19.234
385.00,19.300
386.00,19.292
387.00,19.401
388.00,19.429
389.00,19.447
390.00,19.487
391.00,19.531
392.00,19.556
393.00,19.564
394.00,19.586
395.00,19.555
396.00,19.556
397.00,19.556
398.00,19.583
399.00,19.612
400.00,19.571
401.00,19.617
402.00,19.572
403.00,19.565
404.00,19.540
405.00,19.548
406.00,19.515
407.00,19.457
408.00,19.482
409.00,19.407
410.00,19.368
411.00,19.383
412.00,19.349
413.00,19.370
414.00,19.343
415.00,19.353
416.00,19.374
417.00,19.350
418.00,19.372
419.00,19.453
420.00,19.504
421.00,19.493
422.00,19.511
423.00,19.549
424.00,19.581
425.00,19.604
426.00,19.610
427.00,19.694
428.00,19.720
429.00,19.782
430.00,19.838
431.00,19.844
432.00,19.881
433.00,19.946
434.00,20.010
435.00,20.085
436.00,20.145
437.00,20.204
438.00,20.250
439.00,20.323
440.00,20.389
441.00,20.483
442.00,20.554
443.00,20.613
444.00,20.746
445.00,20.806
446.00,20.920
447.00,21.003
448.00,21.112
449.00,21.222
450.00,21.315
451.00,21.426
452.00,21.487
453.00,21.640
454.00,21.761
455.00,21.854
456.00,21.972
457.00,22.087
458.00,22.178
459.00,22.330
460.00,22.488
461.00,22.609
462.00,22.701
463.00,22.849
464.00,22.961
465.00,23.088
466.00,23.245
467.00,23.395
468.00,23.453
469.00,23.587
470.00,23.680
471.00,23.785
472.00,23.955
473.00,24.033
474.00,24.154
475.00,24.268
476.00,24.383
477.00,24.515
478.00,24.623
479.00,24.853
480.00,24.961
481.00,25.085
482.00,25.247
483.00,25.416
484.00,25.586
485.00,25.697
486.00,25.868
487.00,26.032
488.00,26.171
489.00,26.354
490.00,26.466
491.00,26.651
492.00,26.868
493.00,27.042
494.00,27.007
495.00,27.139
496.00,27.192
497.00,27.399
498.00,27.477
499.00,27.693
500.00,27.876
501.00,27.953
502.00,28.085
503.00,28.260
504.00,28.303
505.00,28.445
506.00,28.624
507.00,28.647
508.00,28.834
509.00,28.996
510.00,29.117
511.00,29.176
512.00,29.377
513.00,29.535
514.00,29.647
515.00,29.773
516.00,29.890
517.00,29.953
518.00,30.122
519.00,30.174
520.00,30.219
521.00,30.369
522.00,30.458
523.00,30.471
524.00,30.611
525.00,30.748
526.00,30.870
527.00,30.931
528.00,30.970
529.00,31.225
530.00,31.339
531.00,31.435
532.00,31.491
533.00,31.638
534.00,31.763
535.00,31.776
536.00,31.870
537.00,31.960
538.00,31.992
539.00,32.096
540.00,32.161
541.00,32.241
542.00,32.272
543.00,32.348
544.00,32.455
545.00,32.481
546.00,32.594
547.00,32.701
548.00,32.732
549.00,32.779
550.00,32.962
551.00,33.012
552.00,33.151
553.00,33.226
554.00,33.203
555.00,33.219
556.00,33.338
557.00,33.398
558.00,33.453
559.00,33.506
560.00,33.601
561.00,33.666
562.00,33.754
563.00,33.801
564.00,33.830
565.00,33.880
566.00,33.886
567.00,33.939
568.00,33.930
569.00,34.030
570.00,34.038
571.00,34.082
572.00,34.088
573.00,34.097
574.00,34.182
575.00,34.175
576.00,34.193
577.00,34.277
578.00,34.324
579.00,34.432
580.00,34.445
581.00,34.521
582.00,34.591
583.00,34.630
584.00,34.760
585.00,34.825
586.00,34.867
587.00,34.935
588.00,34.964
589.00,34.937
590.00,35.050
591.00,35.118
592.00,34.995
593.00,35.050
594.00,35.206
595.00,35.247
596.00,35.283
597.00,35.437
598.00,35.483
599.00,35.483
600.00,35.494
601.00,35.526
602.00,35.563
603.00,35.623
604.00,35.737
605.00,35.778
606.00,35.769
607.00,35.821
608.00,36.005
609.00,36.038
610.00,35.910
611.00,36.034
612.00,36.047
613.00,36.103
614.00,36.151
615.00,36.230
616.00,36.278
617.00,36.326
618.00,36.340
619.00,36.389
620.00,36.514
621.00,36.567
622.00,36.633
623.00,36.659
624.00,36.745
625.00,36.817
626.00,36.873
627.00,36.938
628.00,37.008
629.00,37.045
630.00,37.107
631.00,37.170
632.00,37.236
633.00,37.411
634.00,37.455
635.00,37.538
636.00,37.603
637.00,37.685
638.00,37.770
639.00,37.877
640.00,37.907
641.00,37.920
642.00,38.057
643.00,38.114
644.00,38.183
645.00,38.291
646.00,38.422
647.00,38.499
648.00,38.545
649.00,38.632
650.00,38.606
651.00,38.807
652.00,38.853
653.00,38.889
654.00,38.974
655.00,39.180
656.00,39.465
657.00,39.320
658.00,39.392
659.00,39.417
660.00,39.645
661.00,39.681
662.00,39.708
663.00,39.892
664.00,40.170
665.00,40.348
666.00,40.279
667.00,40.320
668.00,40.400
669.00,40.854
670.00,40.940
671.00,40.883
672.00,41.030
673.00,41.031
674.00,41.077
675.00,41.246
676.00,41.438
677.00,41.601
678.00,41.428
679.00,41.684
680.00,41.650
681.00,41.881
682.00,41.871
683.00,41.790
684.00,42.115
685.00,42.416
686.00,42.455
687.00,42.267
688.00,42.447
689.00,42.410
690.00,42.646
691.00,43.033
692.00,42.993
693.00,42.903
694.00,43.074
695.00,43.176
696.00,43.201
697.00,43.203
698.00,43.365
699.00,43.738
700.00,43.797
701.00,43.755
702.00,43.824
703.00,44.031
704.00,44.211
705.00,44.103
706.00,44.159
707.00,44.272
708.00,44.153
709.00,44.618
710.00,44.983
711.00,44.668
712.00,44.671
713.00,44.852
714.00,44.993
715.00,44.901
716.00,44.964
717.00,45.142
718.00,45.298
719.00,45.367
720.00,45.389
721.00,49.754
722.00,49.696
723.00,49.850
724.00,49.830
725.00,49.893
726.00,49.894
727.00,49.906
728.00,50.004
729.00,49.966
730.00,49.995
731.00,50.147
732.00,50.044
733.00,50.202
734.00,50.242
735.00,50.258
736.00,50.288
737.00,50.368
738.00,50.444
739.00,50.456
740.00,50.471
741.00,50.501
742.00,50.634
743.00,50.525
744.00,50.592
745.00,50.674
746.00,50.623
747.00,50.601
748.00,50.658
749.00,50.671
750.00,50.672
751.00,50.703
752.00,50.767
753.00,50.824
754.00,50.760
755.00,50.767
756.00,50.751
757.00,50.856
758.00,50.832
759.00,50.839
760.00,50.905
761.00,50.959
762.00,50.873
763.00,51.019
764.00,50.925
765.00,50.969
766.00,50.952
767.00,51.027
768.00,51.044
769.00,50.999
770.00,51.090
771.00,51.096
772.00,51.104
773.00,51.011
774.00,51.175
775.00,51.181
776.00,51.165
777.00,51.210
778.00,51.083
779.00,51.276
780.00,51.160
781.00,51.226
782.00,51.192
783.00,51.195
784.00,51.203
785.00,51.188
786.00,51.292
787.00,51.159
788.00,51.241
789.00,51.102
790.00,51.158
791.00,51.276
792.00,51.172
793.00,51.170
794.00,51.128
795.00,51.123
796.00,51.183
797.00,51.085
798.00,51.144
799.00,51.103
800.00,51.043
801.00,51.057
802.00,51.160
803.00,51.124
804.00,51.024
805.00,51.069
806.00,51.075
807.00,51.054
808.00,51.056
809.00,51.018
810.00,50.974
811.00,51.024
812.00,51.031
813.00,50.925
814.00,50.964
815.00,50.907
816.00,50.946
817.00,50.927
818.00,50.821
819.00,50.921
820.00,50.858
821.00,50.882
822.00,50.892
823.00,50.861
824.00,50.896
825.00,50.787
826.00,50.813
827.00,50.890
828.00,50.769
829.00,50.828
830.00,50.766
831.00,53.165
832.00,53.112
833.00,53.076
834.00,53.114
835.00,53.080
836.00,53.052
837.00,53.023
838.00,53.000
839.00,52.985
840.00,52.923
841.00,52.966
842.00,52.947
843.00,52.952
844.00,52.954
845.00,52.898
846.00,52.947
847.00,52.907
848.00,52.855
849.00,52.771
850.00,52.810
851.00,52.772
852.00,52.777
853.00,52.685
854.00,52.713
855.00,52.643
856.00,52.670
857.00,52.632
858.00,52.550
859.00,52.600
860.00,52.593
861.00,52.622
862.00,52.517
863.00,52.542
864.00,52.513
865.00,52.527
866.00,52.495
867.00,52.468
868.00,52.493
869.00,52.446
870.00,52.505
871.00,52.457
872.00,52.449
873.00,52.442
874.00,52.460
875.00,52.408
876.00,52.447
877.00,52.372
878.00,52.427
879.00,52.378
880.00,52.352
881.00,52.336
882.00,52.338
883.00,52.299
884.00,52.277
885.00,52.259
886.00,52.259
887.00,52.245
888.00,52.191
889.00,52.215
890.00,52.232
891.00,52.192
892.00,52.165
893.00,52.140
894.00,52.146
895.00,52.111
896.00,52.059
897.00,52.080
898.00,52.036
899.00,52.046
900.00,52.018
901.00,52.001
902.00,52.031
903.00,51.994
904.00,51.964
905.00,51.985
906.00,51.977
907.00,51.929
908.00,51.789
909.00,51.939
910.00,51.820
911.00,51.855
912.00,51.830
913.00,51.797
914.00,51.793
915.00,51.748
916.00,51.735
917.00,51.766
918.00,51.749
919.00,51.644
920.00,51.693
921.00,51.655
922.00,51.649
923.00,51.618
924.00,51.555
925.00,51.599
926.00,51.592
927.00,51.549
928.00,51.515
929.00,51.556
930.00,51.481
931.00,51.498
932.00,51.447
933.00,51.483
934.00,51.460
935.00,51.400
936.00,51.358
937.00,51.366
938.00,51.366
939.00,51.332
940.00,51.303
941.00,51.288
942.00,51.271
943.00,51.245
944.00,51.216
945.00,51.218
946.00,51.204
947.00,51.172
948.00,51.158
949.00,51.129
950.00,51.130
951.00,51.101
952.00,51.096
953.00,51.036
954.00,51.034
955.00,50.996
956.00,50.984
957.00,50.958
958.00,50.951
959.00,50.875
960.00,50.900
961.00,50.884
962.00,50.900
963.00,50.862
964.00,50.843
965.00,50.850
966.00,50.870
967.00,50.820
968.00,50.787
969.00,50.812
970.00,50.784
971.00,50.799
972.00,50.771
973.00,50.811
974.00,50.818
975.00,50.773
976.00,50.785
977.00,50.793
978.00,50.872
979.00,50.837
980.00,50.788
981.00,50.814
982.00,50.746
983.00,50.803
984.00,50.774
985.00,50.791
986.00,50.759
987.00,50.784
988.00,50.738
989.00,50.720
990.00,50.719
991.00,50.709
992.00,50.722
993.00,50.686
994.00,50.680
995.00,50.661
996.00,50.664
997.00,50.637
998.00,50.630
999.00,50.649
1000.00,50.588
1001.00,50.579
1002.00,50.573
1003.00,50.570
1004.00,50.535
1005.00,50.502
1006.00,50.548
1007.00,50.497
1008.00,50.485
1009.00,50.491
1010.00,50.486
1011.00,50.460
1012.00,50.463
1013.00,50.448
1014.00,50.416
1015.00,50.423
1016.00,50.388
1017.00,50.387
1018.00,50.374
1019.00,50.332
1020.00,50.350
1021.00,50.316
1022.00,50.317
1023.00,50.272
1024.00,50.293
1025.00,50.262
1026.00,50.238
1027.00,50.230
1028.00,50.225
1029.00,50.205
1030.00,50.174
1031.00,50.198
1032.00,50.156
1033.00,50.162
1034.00,50.127
1035.00,50.093
1036.00,50.074
1037.00,50.044
1038.00,50.043
1039.00,50.006
1040.00,49.982
1041.00,49.972
1042.00,49.968
1043.00,49.942
1044.00,49.976
1045.00,49.957
1046.00,49.940
1047.00,49.972
1048.00,49.980
1049.00,49.998
1050.00,50.001
1051.00,50.032
1052.00,50.017
1053.00,50.025
1054.00,50.035
1055.00,50.057
1056.00,50.060
1057.00,50.082
1058.00,50.064
1059.00,50.050
1060.00,50.075
1061.00,50.044
1062.00,50.029
1063.00,50.033
1064.00,50.057
1065.00,50.041
1066.00,50.034
1067.00,50.026
1068.00,50.053
1069.00,50.008
1070.00,49.971
1071.00,49.971
1072.00,49.994
1073.00,49.962
1074.00,49.953
1075.00,49.939
1076.00,49.936
1077.00,49.915
1078.00,49.900
1079.00,49.906
1080.00,49.911
1081.00,49.901
1082.00,49.894
1083.00,49.890
1084.00,49.877
1085.00,49.877
1086.00,49.868
1087.00,49.873
1088.00,49.844
1089.00,49.838
1090.00,49.842
1091.00,49.849
1092.00,49.831
1093.00,49.828
1094.00,49.798
1095.00,49.801
1096.00,49.762
1097.00,49.779
1098.00,49.765
1099.00,49.761
1100.00,49.758
1101.00,49.752
1102.00,49.739
1103.00,49.761
1104.00,49.724
1105.00,49.720
1106.00,49.693
1107.00,49.702
1108.00,49.690
1109.00,49.689
1110.00,49.673
1111.00,49.656
1112.00,49.642
1113.00,49.641
1114.00,49.628
1115.00,49.635
1116.00,49.630
1117.00,49.623
1118.00,49.610
1119.00,49.611
1120.00,49.616
1121.00,49.600
1122.00,49.586
1123.00,49.603
1124.00,49.588
1125.00,49.577
1126.00,49.558
1127.00,49.569
1128.00,49.542
1129.00,49.521
1130.00,49.502
1131.00,49.510
1132.00,49.514
1133.00,49.506
1134.00,49.522
1135.00,49.513
1136.00,49.502
1137.00,49.499
1138.00,49.488
1139.00,49.489
1140.00,49.473
1141.00,49.476
1142.00,49.465
1143.00,49.484
1144.00,49.460
1145.00,49.484
1146.00,49.495
1147.00,49.483
1148.00,49.471
1149.00,49.495
1150.00,49.483
1151.00,49.477
1152.00,49.461
1153.00,49.457
1154.00,49.438
1155.00,49.445
1156.00,49.442
1157.00,49.456
1158.00,49.442
1159.00,49.438
1160.00,49.443
1161.00,49.454
1162.00,49.453
1163.00,49.443
1164.00,49.459
1165.00,49.446
1166.00,49.443
1167.00,49.439
1168.00,49.467
1169.00,49.439
1170.00,49.435
1171.00,49.425
1172.00,49.441
1173.00,49.429
1174.00,49.423
1175.00,49.421
1176.00,49.430
1177.00,49.400
1178.00,49.424
1179.00,49.463
1180.00,49.416
1181.00,49.440
1182.00,49.423
1183.00,49.425
1184.00,49.407
1185.00,49.422
1186.00,49.410
1187.00,49.410
1188.00,49.402
1189.00,49.398
1190.00,49.409
1191.00,49.408
1192.00,49.446
1193.00,49.448
1194.00,49.454
1195.00,49.421
1196.00,49.437
1197.00,49.443
1198.00,49.415
1199.00,49.414
1200.00,49.441
1201.00,49.457
1202.00,49.412
1203.00,49.424
1204.00,49.418
1205.00,49.435
1206.00,49.407
1207.00,49.409
1208.00,49.403
1209.00,49.412
1210.00,49.406
1211.00,49.412
1212.00,49.436
1213.00,49.392
1214.00,49.431
1215.00,49.407
1216.00,49.421
1217.00,49.432
1218.00,49.421
1219.00,49.436
1220.00,49.417
1221.00,49.444
1222.00,49.432
1223.00,49.462
1224.00,49.447
1225.00,49.438
1226.00,49.447
1227.00,49.433
1228.00,49.459
1229.00,49.456
1230.00,49.489
1231.00,49.475
1232.00,49.525
1233.00,49.510
1234.00,49.511
1235.00,49.502
1236.00,49.499
1237.00,49.505
1238.00,49.492
1239.00,49.497
1240.00,49.477
1241.00,49.497
1242.00,49.491
1243.00,49.501
1244.00,49.488
1245.00,49.539
1246.00,49.521
1247.00,49.508
1248.00,49.518
1249.00,49.528
1250.00,49.532
1251.00,49.514
1252.00,49.541
1253.00,49.528
1254.00,49.555
1255.00,49.530
1256.00,49.538
1257.00,49.542
1258.00,49.586
1259.00,49.576
1260.00,49.590
1261.00,49.592
1262.00,49.585
1263.00,49.573
1264.00,49.593
1265.00,49.603
1266.00,49.605
1267.00,49.627
1268.00,49.618
1269.00,49.634
1270.00,49.655
1271.00,49.652
1272.00,49.646
1273.00,49.673
1274.00,49.681
1275.00,49.670
1276.00,49.680
1277.00,49.702
1278.00,49.686
1279.00,49.684
1280.00,49.672
1281.00,49.697
1282.00,49.700
1283.00,49.674
1284.00,49.702
1285.00,49.698
1286.00,49.716
1287.00,49.713
1288.00,49.720
1289.00,49.720
1290.00,49.758
1291.00,49.748
1292.00,49.765
1293.00,49.759
1294.00,49.789
1295.00,49.786
1296.00,49.790
1297.00,49.805
1298.00,49.833
1299.00,49.802
1300.00,49.831
1301.00,49.803
1302.00,49.841
1303.00,49.828
1304.00,49.845
1305.00,49.867
1306.00,49.857
1307.00,49.896
1308.00,49.862
1309.00,49.872
1310.00,49.858
1311.00,49.858
1312.00,49.845
1313.00,49.888
1314.00,49.899
1315.00,49.908
1316.00,49.914
1317.00,49.944
1318.00,49.915
1319.00,49.937
1320.00,49.945
1321.00,50.136
1322.00,50.115
1323.00,50.102
1324.00,50.094
1325.00,50.092
1326.00,50.111
1327.00,50.079
1328.00,50.098
1329.00,50.095
1330.00,50.123
1331.00,50.115
1332.00,50.090
1333.00,50.184
1334.00,50.136
1335.00,50.160
1336.00,50.192
1337.00,50.224
1338.00,50.287
1339.00,50.349
1340.00,50.383
1341.00,50.451
1342.00,50.517
1343.00,50.561
1344.00,50.603
1345.00,50.646
1346.00,50.695
1347.00,50.735
1348.00,50.748
1349.00,50.778
1350.00,50.807
1351.00,50.815
1352.00,50.835
1353.00,50.849
1354.00,50.846
1355.00,50.784
1356.00,50.864
1357.00,50.837
1358.00,50.862
1359.00,50.864
1360.00,50.905
1361.00,50.999
1362.00,50.815
1363.00,50.934
1364.00,50.942
1365.00,50.871
1366.00,50.950
1367.00,50.924
1368.00,50.867
1369.00,50.904
1370.00,50.878
1371.00,50.902
1372.00,50.882
1373.00,50.918
1374.00,50.923
1375.00,50.893
1376.00,50.902
1377.00,50.867
1378.00,50.908
1379.00,50.886
1380.00,50.925
1381.00,50.927
1382.00,50.824
1383.00,50.911
1384.00,50.852
1385.00,50.877
1386.00,50.961
1387.00,50.891
1388.00,50.834
1389.00,50.860
1390.00,50.866
1391.00,50.879
1392.00,50.846
1393.00,50.872
1394.00,50.920
1395.00,50.866
1396.00,50.836
1397.00,50.873
1398.00,50.861
1399.00,50.903
1400.00,50.832
1401.00,50.855
1402.00,50.855
1403.00,50.956
1404.00,50.885
1405.00,50.881
1406.00,50.970
1407.00,50.938
1408.00,50.964
1409.00,50.939
1410.00,50.993
1411.00,50.953
1412.00,50.990
1413.00,50.967
1414.00,50.981
1415.00,51.007
1416.00,51.046
1417.00,51.038
1418.00,51.021
1419.00,51.057
1420.00,51.083
1421.00,51.134
1422.00,51.116
1423.00,51.147
1424.00,51.143
1425.00,51.172
1426.00,51.156
1427.00,51.190
1428.00,51.201
1429.00,51.211
1430.00,51.224
1431.00,51.237
1432.00,51.269
1433.00,51.274
1434.00,51.275
1435.00,51.374
1436.00,51.341
1437.00,51.317
1438.00,51.366
1439.00,51.394
1440.00,51.398
1441.00,51.406
1442.00,51.435
1443.00,51.454
1444.00,51.464
1445.00,51.477
1446.00,51.520
1447.00,51.546
1448.00,51.599
1449.00,51.590
1450.00,51.589
1451.00,51.596
1452.00,51.639
1453.00,51.639
1454.00,51.655
1455.00,51.685
1456.00,51.693
1457.00,51.688
1458.00,51.717
1459.00,51.726
1460.00,51.764
1461.00,51.743
1462.00,51.796
1463.00,51.814
1464.00,51.812
1465.00,51.823
1466.00,51.828
1467.00,51.853
1468.00,51.917
1469.00,51.898
1470.00,51.918
1471.00,51.937
1472.00,51.939
1473.00,51.963
1474.00,51.991
1475.00,51.987
1476.00,52.017
1477.00,52.001
1478.00,52.027
1479.00,52.051
1480.00,52.045
1481.00,52.048
1482.00,52.102
1483.00,52.126
1484.00,52.127
1485.00,52.141
1486.00,52.144
1487.00,52.179
1488.00,52.192
1489.00,52.182
1490.00,52.219
1491.00,52.216
1492.00,52.243
1493.00,52.231
1494.00,52.272
1495.00,52.244
1496.00,52.301
1497.00,52.288
1498.00,52.291
1499.00,52.318
1500.00,52.328
1501.00, 
1502.00, 
1503.00, 
1504.00, 
1505.00, 
1506.00, 
1507.00, 
1508.00, 
1509.00, 
1510.00, 
1511.00, 
1512.00, 
1513.00, 
1514.00, 
1515.00, 
1516.00, 
1517.00, 
1518.00, 
1519.00, 
1520.00, 
1521.00, 
1522.00, 
1523.00, 
1524.00, 
1525.00, 
1526.00, 
1527.00, 
1528.00, 
1529.00, 
1530.00, 
1531.00, 
1532.00, 
1533.00, 
1534.00, 
1535.00, 
1536.00, 
1537.00, 
1538.00, 
1539.00, 
1540.00, 
1541.00, 
1542.00, 
1543.00, 
1544.00, 
1545.00, 
1546.00, 
1547.00, 
1548.00, 
1549.00, 
1550.00, 
1551.00, 
1552.00, 
1553.00, 
1554.00, 
1555.00, 
1556.00, 
1557.00, 
1558.00, 
1559.00, 
1560.00, 
1561.00, 
1562.00, 
1563.00, 
1564.00, 
1565.00, 
1566.00, 
1567.00, 
1568.00, 
1569.00, 
1570.00, 
1571.00, 
1572.00, 
1573.00, 
1574.00, 
1575.00, 
1576.00, 
1577.00, 
1578.00, 
1579.00, 
1580.00, 
1581.00, 
1582.00, 
1583.00, 
1584.00, 
1585.00, 
1586.00, 
1587.00, 
1588.00, 
1589.00, 
1590.00, 
1591.00, 
1592.00, 
1593.00, 
1594.00, 
1595.00, 
1596.00, 
1597.00, 
1598.00, 
1599.00, 
1600.00, 
1601.00, 
1602.00, 
1603.00, 
1604.00, 
1605.00, 
1606.00, 
1607.00, 
1608.00, 
1609.00, 
1610.00, 
1611.00, 
1612.00, 
1613.00, 
1614.00, 
1615.00, 
1616.00, 
1617.00, 
1618.00, 
1619.00, 
1620.00, 
1621.00, 
1622.00, 
1623.00, 
1624.00, 
1625.00, 
1626.00, 
1627.00, 
1628.00, 
1629.00, 
1630.00, 
1631.00, 
1632.00, 
1633.00, 
1634.00, 
1635.00, 
1636.00, 
1637.00, 
1638.00, 
1639.00, 
1640.00, 
1641.00, 
1642.00, 
1643.00, 
1644.00, 
1645.00, 
1646.00, 
1647.00, 
1648.00, 
1649.00, 
1650.00, 
1651.00, 
1652.00, 
1653.00, 
1654.00, 
1655.00, 
1656.00, 
1657.00, 
1658.00, 
1659.00, 
1660.00, 
1661.00, 
1662.00, 
1663.00, 
1664.00, 
1665.00, 
1666.00, 
1667.00, 
1668.00, 
1669.00, 
1670.00, 
1671.00, 
1672.00, 
1673.00, 
1674.00, 
1675.00, 
1676.00, 
1677.00, 
1678.00, 
1679.00, 
1680.00, 
1681.00, 
1682.00, 
1683.00, 
1684.00, 
1685.00, 
1686.00, 
1687.00, 
1688.00, 
1689.00, 
1690.00, 
1691.00, 
1692.00, 
1693.00, 
1694.00, 
1695.00, 
1696.00, 
1697.00, 
1698.00, 
1699.00, 
1700.00, 
1701.00, 
1702.00, 
1703.00, 
1704.00, 
1705.00, 
1706.00, 
1707.00, 
1708.00, 
1709.00, 
1710.00, 
1711.00, 
1712.00, 
1713.00, 
1714.00, 
1715.00, 
1716.00, 
1717.00, 
1718.00, 
1719.00, 
1720.00, 
1721.00, 
1722.00, 
1723.00, 
1724.00, 
1725.00, 
1726.00, 
1727.00, 
1728.00, 
1729.00, 
1730.00, 
1731.00, 
1732.00, 
1733.00, 
1734.00, 
1735.00, 
1736.00, 
1737.00, 
1738.00, 
1739.00, 
1740.00, 
1741.00, 
1742.00, 
1743.00, 
1744.00, 
1745.00, 
1746.00, 
1747.00, 
1748.00, 
1749.00, 
1750.00, 
1751.00, 
1752.00, 
1753.00, 
1754.00, 
1755.00, 
1756.00, 
1757.00, 
1758.00, 
1759.00, 
1760.00, 
1761.00, 
1762.00, 
1763.00, 
1764.00, 
1765.00, 
1766.00, 
1767.00, 
1768.00, 
1769.00, 
1770.00, 
1771.00, 
1772.00, 
1773.00, 
1774.00, 
1775.00, 
1776.00, 
1777.00, 
1778.00, 
1779.00, 
1780.00, 
1781.00, 
1782.00, 
1783.00, 
1784.00, 
1785.00, 
1786.00, 
1787.00, 
1788.00, 
1789.00, 
1790.00, 
1791.00, 
1792.00, 
1793.00, 
1794.00, 
1795.00, 
1796.00, 
1797.00, 
1798.00, 
1799.00, 
1800.00, 
1801.00, 
1802.00, 
1803.00, 
1804.00, 
1805.00, 
1806.00, 
1807.00, 
1808.00, 
1809.00, 
1810.00, 
1811.00, 
1812.00, 
1813.00, 
1814.00, 
1815.00, 
1816.00, 
1817.00, 
1818.00, 
1819.00, 
1820.00, 
1821.00, 
1822.00, 
1823.00, 
1824.00, 
1825.00, 
1826.00, 
1827.00, 
1828.00, 
1829.00, 
1830.00, 
1831.00, 
1832.00, 
1833.00, 
1834.00, 
1835.00, 
1836.00, 
1837.00, 
1838.00, 
1839.00, 
1840.00, 
1841.00, 
1842.00, 
1843.00, 
1844.00, 
1845.00, 
1846.00, 
1847.00, 
1848.00, 
1849.00, 
1850.00, 
1851.00, 
1852.00, 
1853.00, 
1854.00, 
1855.00, 
1856.00, 
1857.00, 
1858.00, 
1859.00, 
1860.00, 
1861.00, 
1862.00, 
1863.00, 
1864.00, 
1865.00, 
1866.00, 
1867.00, 
1868.00, 
1869.00, 
1870.00, 
1871.00, 
1872.00, 
1873.00, 
1874.00, 
1875.00, 
1876.00, 
1877.00, 
1878.00, 
1879.00, 
1880.00, 
1881.00, 
1882.00, 
1883.00, 
1884.00, 
1885.00, 
1886.00, 
1887.00, 
1888.00, 
1889.00, 
1890.00, 
1891.00, 
1892.00, 
1893.00, 
1894.00, 
1895.00, 
1896.00, 
1897.00, 
1898.00, 
1899.00, 
1900.00, 
1901.00, 
1902.00, 
1903.00, 
1904.00, 
1905.00, 
1906.00, 
1907.00, 
1908.00, 
1909.00, 
1910.00, 
1911.00, 
1912.00, 
1913.00, 
1914.00, 
1915.00, 
1916.00, 
1917.00, 
1918.00, 
1919.00, 
1920.00, 
1921.00, 
1922.00, 
1923.00, 
1924.00, 
1925.00, 
1926.00, 
1927.00, 
1928.00, 
1929.00, 
1930.00, 
1931.00, 
1932.00, 
1933.00, 
1934.00, 
1935.00, 
1936.00, 
1937.00, 
1938.00, 
1939.00, 
1940.00, 
1941.00, 
1942.00, 
1943.00, 
1944.00, 
1945.00, 
1946.00, 
1947.00, 
1948.00, 
1949.00, 
1950.00, 
1951.00, 
1952.00, 
1953.00, 
1954.00, 
1955.00, 
1956.00, 
1957.00, 
1958.00, 
1959.00, 
1960.00, 
1961.00, 
1962.00, 
1963.00, 
1964.00, 
1965.00, 
1966.00, 
1967.00, 
1968.00, 
1969.00, 
1970.00, 
1971.00, 
1972.00, 
1973.00, 
1974.00, 
1975.00, 
1976.00, 
1977.00, 
1978.00, 
1979.00, 
1980.00, 
1981.00, 
1982.00, 
1983.00, 
1984.00, 
1985.00, 
1986.00, 
1987.00, 
1988.00, 
1989.00, 
1990.00, 
1991.00, 
1992.00, 
1993.00, 
1994.00, 
1995.00, 
1996.00, 
1997.00, 
1998.00, 
1999.00, 
2000.00, 
2001.00, 
2002.00, 
2003.00, 
2004.00, 
2005.00, 
2006.00, 
2007.00, 
2008.00, 
2009.00, 
2010.00, 
2011.00, 
2012.00, 
2013.00, 
2014.00, 
2015.00, 
2016.00, 
2017.00, 
2018.00, 
2019.00, 
2020.00, 
2021.00, 
2022.00, 
2023.00, 
2024.00, 
2025.00, 
2026.00, 
2027.00, 
2028.00, 
2029.00, 
2030.00, 
2031.00, 
2032.00, 
2033.00, 
2034.00, 
2035.00, 
2036.00, 
2037.00, 
2038.00, 
2039.00, 
2040.00, 
2041.00, 
2042.00, 
2043.00, 
2044.00, 
2045.00, 
2046.00, 
2047.00, 
2048.00, 
2049.00, 
2050.00, 
2051.00, 
2052.00, 
2053.00, 
2054.00, 
2055.00, 
2056.00, 
2057.00, 
2058.00, 
2059.00, 
2060.00, 
2061.00, 
2062.00, 
2063.00, 
2064.00, 
2065.00, 
2066.00, 
2067.00, 
2068.00, 
2069.00, 
2070.00, 
2071.00, 
2072.00, 
2073.00, 
2074.00, 
2075.00, 
2076.00, 
2077.00, 
2078.00, 
2079.00, 
2080.00, 
2081.00, 
2082.00, 
2083.00, 
2084.00, 
2085.00, 
2086.00, 
2087.00, 
2088.00, 
2089.00, 
2090.00, 
2091.00, 
2092.00, 
2093.00, 
2094.00, 
2095.00, 
2096.00, 
2097.00, 
2098.00, 
2099.00, 
2100.00, 
2101.00, 
2102.00, 
2103.00, 
2104.00, 
2105.00, 
2106.00, 
2107.00, 
2108.00, 
2109.00, 
2110.00, 
2111.00, 
2112.00, 
2113.00, 
2114.00, 
2115.00, 
2116.00, 
2117.00, 
2118.00, 
2119.00, 
2120.00, 
2121.00, 
2122.00, 
2123.00, 
2124.00, 
2125.00, 
2126.00, 
2127.00, 
2128.00, 
2129.00, 
2130.00, 
2131.00, 
2132.00, 
2133.00, 
2134.00, 
2135.00, 
2136.00, 
2137.00, 
2138.00, 
2139.00, 
2140.00, 
2141.00, 
2142.00, 
2143.00, 
2144.00, 
2145.00, 
2146.00, 
2147.00, 
2148.00, 
2149.00, 
2150.00, 
2151.00, 
2152.00, 
2153.00, 
2154.00, 
2155.00, 
2156.00, 
2157.00, 
2158.00, 
2159.00, 
2160.00, 
2161.00, 
2162.00, 
2163.00, 
2164.00, 
2165.00, 
2166.00, 
2167.00, 
2168.00, 
2169.00, 
2170.00, 
2171.00, 
2172.00, 
2173.00, 
2174.00, 
2175.00, 
2176.00, 
2177.00, 
2178.00, 
2179.00, 
2180.00, 
2181.00, 
2182.00, 
2183.00, 
2184.00, 
2185.00, 
2186.00, 
2187.00, 
2188.00, 
2189.00, 
2190.00, 
2191.00, 
2192.00, 
2193.00, 
2194.00, 
2195.00, 
2196.00, 
2197.00, 
2198.00, 
2199.00, 
2200.00, 
2201.00, 
2202.00, 
2203.00, 
2204.00, 
2205.00, 
2206.00, 
2207.00, 
2208.00, 
2209.00, 
2210.00, 
2211.00, 
2212.00, 
2213.00, 
2214.00, 
2215.00, 
2216.00, 
2217.00, 
2218.00, 
2219.00, 
2220.00, 
2221.00, 
2222.00, 
2223.00, 
2224.00, 
2225.00, 
2226.00, 
2227.00, 
2228.00, 
2229.00, 
2230.00, 
2231.00, 
2232.00, 
2233.00, 
2234.00, 
2235.00, 
2236.00, 
2237.00, 
2238.00, 
2239.00, 
2240.00, 
2241.00, 
2242.00, 
2243.00, 
2244.00, 
2245.00, 
2246.00, 
2247.00, 
2248.00, 
2249.00, 
2250.00, 
2251.00, 
2252.00, 
2253.00, 
2254.00, 
2255.00, 
2256.00, 
2257.00, 
2258.00, 
2259.00, 
2260.00, 
2261.00, 
2262.00, 
2263.00, 
2264.00, 
2265.00, 
2266.00, 
2267.00, 
2268.00, 
2269.00, 
2270.00, 
2271.00, 
2272.00, 
2273.00, 
2274.00, 
2275.00, 
2276.00, 
2277.00, 
2278.00, 
2279.00, 
2280.00, 
2281.00, 
2282.00, 
2283.00, 
2284.00, 
2285.00, 
2286.00, 
2287.00, 
2288.00, 
2289.00, 
2290.00, 
2291.00, 
2292.00, 
2293.00, 
2294.00, 
2295.00, 
2296.00, 
2297.00, 
2298.00, 
2299.00, 
2300.00, 
2301.00, 
2302.00, 
2303.00, 
2304.00, 
2305.00, 
2306.00, 
2307.00, 
2308.00, 
2309.00, 
2310.00, 
2311.00, 
2312.00, 
2313.00, 
2314.00, 
2315.00, 
2316.00, 
2317.00, 
2318.00, 
2319.00, 
2320.00, 
2321.00, 
2322.00, 
2323.00, 
2324.00, 
2325.00, 
2326.00, 
2327.00, 
2328.00, 
2329.00, 
2330.00, 
2331.00, 
2332.00, 
2333.00, 
2334.00, 
2335.00, 
2336.00, 
2337.00, 
2338.00, 
2339.00, 
2340.00, 
2341.00, 
2342.00, 
2343.00, 
2344.00, 
2345.00, 
2346.00, 
2347.00, 
2348.00, 
2349.00, 
2350.00, 
2351.00, 
2352.00, 
2353.00, 
2354.00, 
2355.00, 
2356.00, 
2357.00, 
2358.00, 
2359.00, 
2360.00, 
2361.00, 
2362.00, 
2363.00, 
2364.00, 
2365.00, 
2366.00, 
2367.00, 
2368.00, 
2369.00, 
2370.00, 
2371.00, 
2372.00, 
2373.00, 
2374.00, 
2375.00, 
2376.00, 
2377.00, 
2378.00, 
2379.00, 
2380.00, 
2381.00, 
2382.00, 
2383.00, 
2384.00, 
2385.00, 
2386.00, 
2387.00, 
2388.00, 
2389.00, 
2390.00, 
2391.00, 
2392.00, 
2393.00, 
2394.00, 
2395.00, 
2396.00, 
2397.00, 
2398.00, 
2399.00, 
2400.00, 
2401.00, 
2402.00, 
2403.00, 
2404.00, 
2405.00, 
2406.00, 
2407.00, 
2408.00, 
2409.00, 
2410.00, 
2411.00, 
2412.00, 
2413.00, 
2414.00, 
2415.00, 
2416.00, 
2417.00, 
2418.00, 
2419.00, 
2420.00, 
2421.00, 
2422.00, 
2423.00, 
2424.00, 
2425.00, 
2426.00, 
2427.00, 
2428.00, 
2429.00, 
2430.00, 
2431.00, 
2432.00, 
2433.00, 
2434.00, 
2435.00, 
2436.00, 
2437.00, 
2438.00, 
2439.00, 
2440.00, 
2441.00, 
2442.00, 
2443.00, 
2444.00, 
2445.00, 
2446.00, 
2447.00, 
2448.00, 
2449.00, 
2450.00, 
2451.00, 
2452.00, 
2453.00, 
2454.00, 
2455.00, 
2456.00, 
2457.00, 
2458.00, 
2459.00, 
2460.00, 
2461.00, 
2462.00, 
2463.00, 
2464.00, 
2465.00, 
2466.00, 
2467.00, 
2468.00, 
2469.00, 
2470.00, 
2471.00, 
2472.00, 
2473.00, 
2474.00, 
2475.00, 
2476.00, 
2477.00, 
2478.00, 
2479.00, 
2480.00, 
2481.00, 
2482.00, 
2483.00, 
2484.00, 
2485.00, 
2486.00, 
2487.00, 
2488.00, 
2489.00, 
2490.00, 
2491.00, 
2492.00, 
2493.00, 
2494.00, 
2495.00, 
2496.00, 
2497.00, 
2498.00, 
2499.00, 
2500.00, 
2501.00, 
2502.00, 
2503.00, 
2504.00, 
2505.00, 
2506.00, 
2507.00, 
2508.00, 
2509.00, 
2510.00, 
2511.00, 
2512.00, 
2513.00, 
2514.00, 
2515.00, 
2516.00, 
2517.00, 
2518.00, 
2519.00, 
2520.00, 
2521.00, 
2522.00, 
2523.00, 
2524.00, 
2525.00, 
2526.00, 
2527.00, 
2528.00, 
2529.00, 
2530.00, 
2531.00, 
2532.00, 
2533.00, 
2534.00, 
2535.00, 
2536.00, 
2537.00, 
2538.00, 
2539.00, 
2540.00, 
2541.00, 
2542.00, 
2543.00, 
2544.00, 
2545.00, 
2546.00, 
2547.00, 
2548.00, 
2549.00, 
2550.00, 
2551.00, 
2552.00, 
2553.00, 
2554.00, 
2555.00, 
2556.00, 
2557.00, 
2558.00, 
2559.00, 
2560.00, 
2561.00, 
2562.00, 
2563.00, 
2564.00, 
2565.00, 
2566.00, 
2567.00, 
2568.00, 
2569.00, 
2570.00, 
2571.00, 
2572.00, 
2573.00, 
2574.00, 
2575.00, 
2576.00, 
2577.00, 
2578.00, 
2579.00, 
2580.00, 
2581.00, 
2582.00, 
2583.00, 
2584.00, 
2585.00, 
2586.00, 
2587.00, 
2588.00, 
2589.00, 
2590.00, 
2591.00, 
2592.00, 
2593.00, 
2594.00, 
2595.00, 
2596.00, 
2597.00, 
2598.00, 
2599.00, 
2600.00, 
