"1cP5 - RawData"
"Wavelength nm.","T%"
200.00,-0.003
201.00,-0.001
202.00,0.002
203.00,0.003
204.00,-0.000
205.00,0.001
206.00,0.000
207.00,0.001
208.00,0.003
209.00,-0.002
210.00,0.001
211.00,0.002
212.00,0.001
213.00,-0.001
214.00,-0.000
215.00,0.000
216.00,0.001
217.00,-0.001
218.00,-0.003
219.00,-0.000
220.00,0.002
221.00,0.001
222.00,0.003
223.00,-0.001
224.00,-0.001
225.00,-0.001
226.00,0.002
227.00,0.001
228.00,0.001
229.00,0.001
230.00,0.002
231.00,-0.000
232.00,0.000
233.00,-0.000
234.00,0.001
235.00,0.000
236.00,-0.000
237.00,0.001
238.00,0.001
239.00,-0.000
240.00,-0.000
241.00,0.001
242.00,-0.000
243.00,-0.000
244.00,0.001
245.00,0.000
246.00,0.001
247.00,0.001
248.00,0.000
249.00,-0.001
250.00,0.001
251.00,0.000
252.00,0.002
253.00,0.001
254.00,0.001
255.00,-0.000
256.00,0.000
257.00,-0.001
258.00,0.001
259.00,-0.000
260.00,0.001
261.00,-0.000
262.00,-0.002
263.00,0.001
264.00,-0.000
265.00,-0.002
266.00,0.002
267.00,0.001
268.00,0.000
269.00,0.001
270.00,0.001
271.00,-0.001
272.00,-0.001
273.00,0.000
274.00,-0.000
275.00,0.002
276.00,0.000
277.00,-0.001
278.00,-0.000
279.00,0.001
280.00,-0.000
281.00,0.001
282.00,0.002
283.00,0.000
284.00,0.001
285.00,-0.001
286.00,-0.000
287.00,-0.001
288.00,-0.000
289.00,0.000
290.00,0.001
291.00,-0.001
292.00,-0.001
293.00,0.000
294.00,0.000
295.00,-0.001
296.00,0.000
297.00,-0.001
298.00,0.000
299.00,0.001
300.00,-0.000
301.00,-0.001
302.00,0.001
303.00,-0.002
304.00,0.001
305.00,0.001
306.00,-0.000
307.00,0.003
308.00,0.004
309.00,0.011
310.00,0.015
311.00,0.022
312.00,0.038
313.00,0.055
314.00,0.083
315.00,0.118
316.00,0.174
317.00,0.250
318.00,0.336
319.00,0.446
320.00,0.591
321.00,0.764
322.00,0.988
323.00,1.246
324.00,1.528
325.00,1.855
326.00,2.200
327.00,2.624
328.00,3.058
329.00,3.526
330.00,4.044
331.00,4.561
332.00,5.110
333.00,5.711
334.00,6.327
335.00,6.959
336.00,7.581
337.00,8.228
338.00,8.855
339.00,9.424
340.00,10.047
341.00,10.652
342.00,11.204
343.00,11.785
344.00,12.361
345.00,12.867
346.00,13.353
347.00,13.772
348.00,14.237
349.00,14.669
350.00,15.055
351.00,15.418
352.00,15.722
353.00,16.079
354.00,16.291
355.00,16.658
356.00,16.907
357.00,17.139
358.00,17.394
359.00,17.612
360.00,17.840
361.00,17.931
362.00,18.076
363.00,18.273
364.00,18.347
365.00,18.426
366.00,18.503
367.00,18.625
368.00,18.567
369.00,18.663
370.00,18.710
371.00,18.749
372.00,18.671
373.00,18.686
374.00,18.668
375.00,18.627
376.00,18.540
377.00,18.429
378.00,18.339
379.00,18.282
380.00,18.234
381.00,18.238
382.00,18.202
383.00,18.164
384.00,18.216
385.00,18.222
386.00,18.284
387.00,18.384
388.00,18.426
389.00,18.412
390.00,18.481
391.00,18.519
392.00,18.526
393.00,18.491
394.00,18.543
395.00,18.560
396.00,18.541
397.00,18.562
398.00,18.538
399.00,18.552
400.00,18.538
401.00,18.548
402.00,18.502
403.00,18.470
404.00,18.471
405.00,18.475
406.00,18.424
407.00,18.406
408.00,18.362
409.00,18.342
410.00,18.274
411.00,18.298
412.00,18.282
413.00,18.286
414.00,18.249
415.00,18.259
416.00,18.300
417.00,18.279
418.00,18.290
419.00,18.368
420.00,18.418
421.00,18.404
422.00,18.406
423.00,18.449
424.00,18.524
425.00,18.507
426.00,18.520
427.00,18.600
428.00,18.605
429.00,18.660
430.00,18.732
431.00,18.773
432.00,18.773
433.00,18.856
434.00,18.904
435.00,18.991
436.00,19.016
437.00,19.086
438.00,19.156
439.00,19.218
440.00,19.303
441.00,19.346
442.00,19.418
443.00,19.496
444.00,19.567
445.00,19.672
446.00,19.795
447.00,19.875
448.00,19.999
449.00,20.100
450.00,20.181
451.00,20.287
452.00,20.360
453.00,20.497
454.00,20.618
455.00,20.702
456.00,20.828
457.00,20.919
458.00,21.055
459.00,21.170
460.00,21.346
461.00,21.485
462.00,21.562
463.00,21.714
464.00,21.837
465.00,21.992
466.00,22.109
467.00,22.232
468.00,22.317
469.00,22.453
470.00,22.549
471.00,22.631
472.00,22.832
473.00,22.917
474.00,23.043
475.00,23.167
476.00,23.273
477.00,23.386
478.00,23.530
479.00,23.745
480.00,23.854
481.00,23.979
482.00,24.142
483.00,24.330
484.00,24.464
485.00,24.567
486.00,24.782
487.00,24.885
488.00,25.059
489.00,25.230
490.00,25.377
491.00,25.533
492.00,25.803
493.00,25.956
494.00,25.893
495.00,26.064
496.00,26.202
497.00,26.341
498.00,26.493
499.00,26.635
500.00,26.782
501.00,26.891
502.00,27.025
503.00,27.176
504.00,27.242
505.00,27.417
506.00,27.586
507.00,27.642
508.00,27.791
509.00,27.910
510.00,28.053
511.00,28.146
512.00,28.368
513.00,28.495
514.00,28.581
515.00,28.726
516.00,28.867
517.00,28.951
518.00,29.100
519.00,29.179
520.00,29.235
521.00,29.353
522.00,29.457
523.00,29.496
524.00,29.624
525.00,29.743
526.00,29.866
527.00,29.927
528.00,30.004
529.00,30.231
530.00,30.370
531.00,30.455
532.00,30.528
533.00,30.641
534.00,30.740
535.00,30.851
536.00,30.923
537.00,31.026
538.00,31.068
539.00,31.168
540.00,31.249
541.00,31.314
542.00,31.380
543.00,31.413
544.00,31.500
545.00,31.579
546.00,31.645
547.00,31.765
548.00,31.834
549.00,31.852
550.00,31.972
551.00,32.005
552.00,32.117
553.00,32.250
554.00,32.176
555.00,32.219
556.00,32.231
557.00,32.333
558.00,32.441
559.00,32.605
560.00,32.687
561.00,32.708
562.00,32.781
563.00,32.848
564.00,32.889
565.00,32.953
566.00,32.917
567.00,33.007
568.00,33.016
569.00,33.077
570.00,33.162
571.00,33.200
572.00,33.154
573.00,33.155
574.00,33.268
575.00,33.233
576.00,33.264
577.00,33.359
578.00,33.460
579.00,33.533
580.00,33.508
581.00,33.683
582.00,33.797
583.00,33.755
584.00,33.852
585.00,33.985
586.00,33.997
587.00,33.952
588.00,33.995
589.00,33.991
590.00,34.090
591.00,34.188
592.00,34.135
593.00,34.183
594.00,34.297
595.00,34.372
596.00,34.451
597.00,34.501
598.00,34.562
599.00,34.561
600.00,34.547
601.00,34.594
602.00,34.651
603.00,34.709
604.00,34.797
605.00,34.847
606.00,34.857
607.00,34.856
608.00,35.040
609.00,35.131
610.00,34.966
611.00,35.071
612.00,35.126
613.00,35.169
614.00,35.245
615.00,35.310
616.00,35.388
617.00,35.451
618.00,35.412
619.00,35.524
620.00,35.546
621.00,35.638
622.00,35.707
623.00,35.723
624.00,35.840
625.00,35.978
626.00,35.979
627.00,36.031
628.00,36.115
629.00,36.109
630.00,36.180
631.00,36.228
632.00,36.323
633.00,36.394
634.00,36.504
635.00,36.596
636.00,36.588
637.00,36.746
638.00,36.826
639.00,36.883
640.00,36.799
641.00,36.936
642.00,37.129
643.00,37.156
644.00,37.238
645.00,37.310
646.00,37.500
647.00,37.586
648.00,37.712
649.00,37.695
650.00,37.728
651.00,37.917
652.00,37.985
653.00,38.067
654.00,38.083
655.00,38.250
656.00,38.466
657.00,38.298
658.00,38.631
659.00,37.804
660.00,38.759
661.00,38.792
662.00,38.834
663.00,39.008
664.00,39.357
665.00,39.491
666.00,39.327
667.00,39.454
668.00,39.551
669.00,39.915
670.00,40.049
671.00,39.993
672.00,40.003
673.00,39.997
674.00,40.255
675.00,40.418
676.00,40.619
677.00,40.759
678.00,40.654
679.00,40.750
680.00,40.939
681.00,41.173
682.00,41.188
683.00,41.220
684.00,41.524
685.00,41.568
686.00,41.410
687.00,41.510
688.00,41.651
689.00,41.724
690.00,41.989
691.00,42.309
692.00,42.121
693.00,42.126
694.00,42.333
695.00,42.431
696.00,42.508
697.00,42.535
698.00,42.641
699.00,43.016
700.00,43.130
701.00,43.036
702.00,43.172
703.00,43.356
704.00,43.550
705.00,43.427
706.00,43.518
707.00,43.575
708.00,43.536
709.00,43.940
710.00,44.288
711.00,44.085
712.00,44.125
713.00,44.171
714.00,44.371
715.00,44.307
716.00,44.394
717.00,44.577
718.00,44.634
719.00,44.754
720.00,44.905
721.00,49.053
722.00,49.100
723.00,49.175
724.00,49.171
725.00,49.240
726.00,49.292
727.00,49.265
728.00,49.462
729.00,49.407
730.00,49.425
731.00,49.525
732.00,49.495
733.00,49.619
734.00,49.610
735.00,49.620
736.00,49.669
737.00,49.816
738.00,49.878
739.00,49.898
740.00,49.929
741.00,49.950
742.00,50.041
743.00,50.030
744.00,50.029
745.00,50.133
746.00,50.092
747.00,50.097
748.00,50.120
749.00,50.198
750.00,50.218
751.00,50.199
752.00,50.228
753.00,50.295
754.00,50.273
755.00,50.285
756.00,50.283
757.00,50.346
758.00,50.388
759.00,50.364
760.00,50.489
761.00,50.474
762.00,50.430
763.00,50.497
764.00,50.543
765.00,50.550
766.00,50.606
767.00,50.723
768.00,50.602
769.00,50.658
770.00,50.722
771.00,50.719
772.00,50.797
773.00,50.715
774.00,50.810
775.00,50.778
776.00,50.770
777.00,50.809
778.00,50.695
779.00,50.842
780.00,50.755
781.00,50.817
782.00,50.892
783.00,50.850
784.00,50.864
785.00,50.794
786.00,50.887
787.00,50.803
788.00,50.887
789.00,50.836
790.00,50.790
791.00,50.974
792.00,50.868
793.00,50.825
794.00,50.824
795.00,50.820
796.00,50.828
797.00,50.742
798.00,50.839
799.00,50.756
800.00,50.797
801.00,50.760
802.00,50.797
803.00,50.797
804.00,50.707
805.00,50.751
806.00,50.744
807.00,50.747
808.00,50.763
809.00,50.697
810.00,50.640
811.00,50.735
812.00,50.721
813.00,50.659
814.00,50.635
815.00,50.624
816.00,50.642
817.00,50.640
818.00,50.606
819.00,50.649
820.00,50.538
821.00,50.665
822.00,50.541
823.00,50.623
824.00,50.597
825.00,50.485
826.00,50.564
827.00,50.568
828.00,50.532
829.00,50.556
830.00,50.551
831.00,52.916
832.00,52.884
833.00,52.856
834.00,52.872
835.00,52.873
836.00,52.828
837.00,52.832
838.00,52.814
839.00,52.805
840.00,52.726
841.00,52.785
842.00,52.760
843.00,52.761
844.00,52.713
845.00,52.676
846.00,52.693
847.00,52.642
848.00,52.706
849.00,52.559
850.00,52.607
851.00,52.534
852.00,52.570
853.00,52.459
854.00,52.500
855.00,52.444
856.00,52.422
857.00,52.421
858.00,52.362
859.00,52.386
860.00,52.364
861.00,52.400
862.00,52.421
863.00,52.353
864.00,52.315
865.00,52.336
866.00,52.311
867.00,52.314
868.00,52.314
869.00,52.259
870.00,52.355
871.00,52.273
872.00,52.274
873.00,52.235
874.00,52.300
875.00,52.225
876.00,52.242
877.00,52.399
878.00,52.265
879.00,52.211
880.00,52.197
881.00,52.164
882.00,52.177
883.00,52.159
884.00,52.079
885.00,52.102
886.00,52.107
887.00,52.069
888.00,52.037
889.00,52.045
890.00,52.027
891.00,51.984
892.00,51.985
893.00,51.957
894.00,51.971
895.00,51.917
896.00,51.904
897.00,51.907
898.00,51.867
899.00,51.886
900.00,51.852
901.00,51.844
902.00,51.878
903.00,51.830
904.00,51.778
905.00,51.895
906.00,51.808
907.00,51.771
908.00,51.715
909.00,51.714
910.00,51.664
911.00,51.693
912.00,51.669
913.00,51.637
914.00,51.646
915.00,51.623
916.00,51.492
917.00,51.650
918.00,51.574
919.00,51.517
920.00,51.459
921.00,51.475
922.00,51.486
923.00,51.442
924.00,51.379
925.00,51.442
926.00,51.446
927.00,51.383
928.00,51.348
929.00,51.381
930.00,51.419
931.00,51.333
932.00,51.273
933.00,51.296
934.00,51.272
935.00,51.218
936.00,51.214
937.00,51.212
938.00,51.199
939.00,51.196
940.00,51.153
941.00,51.141
942.00,51.120
943.00,51.108
944.00,51.070
945.00,51.071
946.00,51.070
947.00,51.004
948.00,50.997
949.00,50.978
950.00,50.957
951.00,50.912
952.00,50.910
953.00,50.878
954.00,50.867
955.00,50.829
956.00,50.828
957.00,50.791
958.00,50.795
959.00,50.765
960.00,50.731
961.00,50.713
962.00,50.755
963.00,50.694
964.00,50.706
965.00,50.704
966.00,50.673
967.00,50.671
968.00,50.652
969.00,50.687
970.00,50.659
971.00,50.646
972.00,50.618
973.00,50.682
974.00,50.690
975.00,50.648
976.00,50.686
977.00,50.693
978.00,50.695
979.00,50.659
980.00,50.657
981.00,50.687
982.00,50.580
983.00,50.653
984.00,50.618
985.00,50.624
986.00,50.600
987.00,50.630
988.00,50.580
989.00,50.565
990.00,50.583
991.00,50.572
992.00,50.592
993.00,50.539
994.00,50.540
995.00,50.529
996.00,50.507
997.00,50.494
998.00,50.476
999.00,50.485
1000.00,50.440
1001.00,50.447
1002.00,50.447
1003.00,50.444
1004.00,50.400
1005.00,50.376
1006.00,50.425
1007.00,50.366
1008.00,50.360
1009.00,50.339
1010.00,50.344
1011.00,50.324
1012.00,50.287
1013.00,50.305
1014.00,50.282
1015.00,50.266
1016.00,50.238
1017.00,50.226
1018.00,50.219
1019.00,50.199
1020.00,50.214
1021.00,50.174
1022.00,50.180
1023.00,50.161
1024.00,50.151
1025.00,50.145
1026.00,50.101
1027.00,50.090
1028.00,50.096
1029.00,50.070
1030.00,50.033
1031.00,50.051
1032.00,50.011
1033.00,50.014
1034.00,49.972
1035.00,49.948
1036.00,49.938
1037.00,49.900
1038.00,49.922
1039.00,49.896
1040.00,49.839
1041.00,49.835
1042.00,49.828
1043.00,49.796
1044.00,49.841
1045.00,49.819
1046.00,49.818
1047.00,49.845
1048.00,49.834
1049.00,49.862
1050.00,49.857
1051.00,49.884
1052.00,49.874
1053.00,49.879
1054.00,49.875
1055.00,49.903
1056.00,49.920
1057.00,49.919
1058.00,49.915
1059.00,49.887
1060.00,49.925
1061.00,49.903
1062.00,49.884
1063.00,49.888
1064.00,49.894
1065.00,49.871
1066.00,49.861
1067.00,49.857
1068.00,49.900
1069.00,49.874
1070.00,49.816
1071.00,49.829
1072.00,49.857
1073.00,49.808
1074.00,49.813
1075.00,49.799
1076.00,49.793
1077.00,49.774
1078.00,49.757
1079.00,49.775
1080.00,49.777
1081.00,49.761
1082.00,49.761
1083.00,49.760
1084.00,49.736
1085.00,49.749
1086.00,49.730
1087.00,49.724
1088.00,49.700
1089.00,49.695
1090.00,49.688
1091.00,49.703
1092.00,49.670
1093.00,49.675
1094.00,49.652
1095.00,49.640
1096.00,49.627
1097.00,49.632
1098.00,49.617
1099.00,49.617
1100.00,49.594
1101.00,49.603
1102.00,49.582
1103.00,49.571
1104.00,49.579
1105.00,49.584
1106.00,49.549
1107.00,49.564
1108.00,49.539
1109.00,49.537
1110.00,49.517
1111.00,49.497
1112.00,49.505
1113.00,49.496
1114.00,49.485
1115.00,49.526
1116.00,49.496
1117.00,49.462
1118.00,49.465
1119.00,49.472
1120.00,49.465
1121.00,49.460
1122.00,49.443
1123.00,49.451
1124.00,49.452
1125.00,49.442
1126.00,49.437
1127.00,49.440
1128.00,49.412
1129.00,49.407
1130.00,49.380
1131.00,49.387
1132.00,49.373
1133.00,49.369
1134.00,49.376
1135.00,49.377
1136.00,49.361
1137.00,49.379
1138.00,49.382
1139.00,49.381
1140.00,49.385
1141.00,49.373
1142.00,49.353
1143.00,49.385
1144.00,49.345
1145.00,49.352
1146.00,49.349
1147.00,49.315
1148.00,49.320
1149.00,49.352
1150.00,49.332
1151.00,49.337
1152.00,49.324
1153.00,49.316
1154.00,49.302
1155.00,49.316
1156.00,49.308
1157.00,49.322
1158.00,49.285
1159.00,49.305
1160.00,49.320
1161.00,49.313
1162.00,49.305
1163.00,49.300
1164.00,49.306
1165.00,49.288
1166.00,49.292
1167.00,49.286
1168.00,49.321
1169.00,49.277
1170.00,49.285
1171.00,49.272
1172.00,49.267
1173.00,49.282
1174.00,49.280
1175.00,49.282
1176.00,49.299
1177.00,49.271
1178.00,49.282
1179.00,49.298
1180.00,49.262
1181.00,49.311
1182.00,49.297
1183.00,49.279
1184.00,49.280
1185.00,49.290
1186.00,49.265
1187.00,49.278
1188.00,49.276
1189.00,49.277
1190.00,49.287
1191.00,49.272
1192.00,49.308
1193.00,49.290
1194.00,49.285
1195.00,49.270
1196.00,49.303
1197.00,49.298
1198.00,49.274
1199.00,49.280
1200.00,49.291
1201.00,49.312
1202.00,49.262
1203.00,49.284
1204.00,49.282
1205.00,49.297
1206.00,49.288
1207.00,49.283
1208.00,49.270
1209.00,49.292
1210.00,49.273
1211.00,49.273
1212.00,49.297
1213.00,49.247
1214.00,49.299
1215.00,49.281
1216.00,49.276
1217.00,49.294
1218.00,49.291
1219.00,49.312
1220.00,49.290
1221.00,49.317
1222.00,49.306
1223.00,49.322
1224.00,49.291
1225.00,49.304
1226.00,49.308
1227.00,49.283
1228.00,49.322
1229.00,49.315
1230.00,49.348
1231.00,49.332
1232.00,49.372
1233.00,49.356
1234.00,49.379
1235.00,49.357
1236.00,49.373
1237.00,49.394
1238.00,49.352
1239.00,49.364
1240.00,49.339
1241.00,49.351
1242.00,49.351
1243.00,49.365
1244.00,49.355
1245.00,49.401
1246.00,49.385
1247.00,49.376
1248.00,49.388
1249.00,49.386
1250.00,49.402
1251.00,49.392
1252.00,49.411
1253.00,49.416
1254.00,49.443
1255.00,49.415
1256.00,49.409
1257.00,49.398
1258.00,49.441
1259.00,49.443
1260.00,49.456
1261.00,49.463
1262.00,49.453
1263.00,49.441
1264.00,49.458
1265.00,49.459
1266.00,49.453
1267.00,49.491
1268.00,49.472
1269.00,49.485
1270.00,49.504
1271.00,49.493
1272.00,49.506
1273.00,49.514
1274.00,49.507
1275.00,49.528
1276.00,49.508
1277.00,49.523
1278.00,49.546
1279.00,49.538
1280.00,49.535
1281.00,49.579
1282.00,49.592
1283.00,49.548
1284.00,49.585
1285.00,49.575
1286.00,49.586
1287.00,49.570
1288.00,49.586
1289.00,49.601
1290.00,49.623
1291.00,49.625
1292.00,49.624
1293.00,49.617
1294.00,49.637
1295.00,49.650
1296.00,49.643
1297.00,49.648
1298.00,49.689
1299.00,49.657
1300.00,49.692
1301.00,49.665
1302.00,49.719
1303.00,49.706
1304.00,49.675
1305.00,49.721
1306.00,49.717
1307.00,49.729
1308.00,49.722
1309.00,49.752
1310.00,49.731
1311.00,49.737
1312.00,49.724
1313.00,49.762
1314.00,49.780
1315.00,49.772
1316.00,49.781
1317.00,49.805
1318.00,49.772
1319.00,49.808
1320.00,49.811
1321.00,49.996
1322.00,49.990
1323.00,49.976
1324.00,49.965
1325.00,49.964
1326.00,49.973
1327.00,49.968
1328.00,49.973
1329.00,49.954
1330.00,49.997
1331.00,49.987
1332.00,49.951
1333.00,50.048
1334.00,50.009
1335.00,50.039
1336.00,50.065
1337.00,50.086
1338.00,50.139
1339.00,50.191
1340.00,50.204
1341.00,50.282
1342.00,50.345
1343.00,50.390
1344.00,50.447
1345.00,50.506
1346.00,50.540
1347.00,50.564
1348.00,50.580
1349.00,50.618
1350.00,50.632
1351.00,50.649
1352.00,50.680
1353.00,50.783
1354.00,50.702
1355.00,50.631
1356.00,50.717
1357.00,50.689
1358.00,50.710
1359.00,50.704
1360.00,50.775
1361.00,50.843
1362.00,50.652
1363.00,50.769
1364.00,50.856
1365.00,50.719
1366.00,50.826
1367.00,50.790
1368.00,50.714
1369.00,50.760
1370.00,50.729
1371.00,50.716
1372.00,50.721
1373.00,50.732
1374.00,50.767
1375.00,50.731
1376.00,50.725
1377.00,50.716
1378.00,50.783
1379.00,50.761
1380.00,50.804
1381.00,50.803
1382.00,50.772
1383.00,50.780
1384.00,50.694
1385.00,50.729
1386.00,50.777
1387.00,50.731
1388.00,50.696
1389.00,50.704
1390.00,50.729
1391.00,50.741
1392.00,50.691
1393.00,50.740
1394.00,50.774
1395.00,50.657
1396.00,50.705
1397.00,50.684
1398.00,50.697
1399.00,50.760
1400.00,50.716
1401.00,50.721
1402.00,50.775
1403.00,50.790
1404.00,50.758
1405.00,50.825
1406.00,50.803
1407.00,50.672
1408.00,50.827
1409.00,50.797
1410.00,50.850
1411.00,50.795
1412.00,50.864
1413.00,50.841
1414.00,50.847
1415.00,50.880
1416.00,50.915
1417.00,50.906
1418.00,50.901
1419.00,50.950
1420.00,50.953
1421.00,50.996
1422.00,50.987
1423.00,51.015
1424.00,51.016
1425.00,51.019
1426.00,51.025
1427.00,51.054
1428.00,51.039
1429.00,51.061
1430.00,51.069
1431.00,51.078
1432.00,51.113
1433.00,51.132
1434.00,51.130
1435.00,51.208
1436.00,51.199
1437.00,51.187
1438.00,51.211
1439.00,51.225
1440.00,51.259
1441.00,51.272
1442.00,51.292
1443.00,51.314
1444.00,51.335
1445.00,51.327
1446.00,51.387
1447.00,51.392
1448.00,51.429
1449.00,51.442
1450.00,51.433
1451.00,51.442
1452.00,51.480
1453.00,51.467
1454.00,51.486
1455.00,51.508
1456.00,51.519
1457.00,51.543
1458.00,51.576
1459.00,51.586
1460.00,51.619
1461.00,51.593
1462.00,51.658
1463.00,51.633
1464.00,51.645
1465.00,51.683
1466.00,51.686
1467.00,51.712
1468.00,51.773
1469.00,51.736
1470.00,51.763
1471.00,51.792
1472.00,51.790
1473.00,51.812
1474.00,51.855
1475.00,51.847
1476.00,51.869
1477.00,51.851
1478.00,51.890
1479.00,51.915
1480.00,51.896
1481.00,51.912
1482.00,51.952
1483.00,51.955
1484.00,51.957
1485.00,51.966
1486.00,51.979
1487.00,52.012
1488.00,52.023
1489.00,52.014
1490.00,52.043
1491.00,52.056
1492.00,52.116
1493.00,52.093
1494.00,52.117
1495.00,52.099
1496.00,52.148
1497.00,52.119
1498.00,52.136
1499.00,52.158
1500.00,52.172
1501.00, 
1502.00, 
1503.00, 
1504.00, 
1505.00, 
1506.00, 
1507.00, 
1508.00, 
1509.00, 
1510.00, 
1511.00, 
1512.00, 
1513.00, 
1514.00, 
1515.00, 
1516.00, 
1517.00, 
1518.00, 
1519.00, 
1520.00, 
1521.00, 
1522.00, 
1523.00, 
1524.00, 
1525.00, 
1526.00, 
1527.00, 
1528.00, 
1529.00, 
1530.00, 
1531.00, 
1532.00, 
1533.00, 
1534.00, 
1535.00, 
1536.00, 
1537.00, 
1538.00, 
1539.00, 
1540.00, 
1541.00, 
1542.00, 
1543.00, 
1544.00, 
1545.00, 
1546.00, 
1547.00, 
1548.00, 
1549.00, 
1550.00, 
1551.00, 
1552.00, 
1553.00, 
1554.00, 
1555.00, 
1556.00, 
1557.00, 
1558.00, 
1559.00, 
1560.00, 
1561.00, 
1562.00, 
1563.00, 
1564.00, 
1565.00, 
1566.00, 
1567.00, 
1568.00, 
1569.00, 
1570.00, 
1571.00, 
1572.00, 
1573.00, 
1574.00, 
1575.00, 
1576.00, 
1577.00, 
1578.00, 
1579.00, 
1580.00, 
1581.00, 
1582.00, 
1583.00, 
1584.00, 
1585.00, 
1586.00, 
1587.00, 
1588.00, 
1589.00, 
1590.00, 
1591.00, 
1592.00, 
1593.00, 
1594.00, 
1595.00, 
1596.00, 
1597.00, 
1598.00, 
1599.00, 
1600.00, 
1601.00, 
1602.00, 
1603.00, 
1604.00, 
1605.00, 
1606.00, 
1607.00, 
1608.00, 
1609.00, 
1610.00, 
1611.00, 
1612.00, 
1613.00, 
1614.00, 
1615.00, 
1616.00, 
1617.00, 
1618.00, 
1619.00, 
1620.00, 
1621.00, 
1622.00, 
1623.00, 
1624.00, 
1625.00, 
1626.00, 
1627.00, 
1628.00, 
1629.00, 
1630.00, 
1631.00, 
1632.00, 
1633.00, 
1634.00, 
1635.00, 
1636.00, 
1637.00, 
1638.00, 
1639.00, 
1640.00, 
1641.00, 
1642.00, 
1643.00, 
1644.00, 
1645.00, 
1646.00, 
1647.00, 
1648.00, 
1649.00, 
1650.00, 
1651.00, 
1652.00, 
1653.00, 
1654.00, 
1655.00, 
1656.00, 
1657.00, 
1658.00, 
1659.00, 
1660.00, 
1661.00, 
1662.00, 
1663.00, 
1664.00, 
1665.00, 
1666.00, 
1667.00, 
1668.00, 
1669.00, 
1670.00, 
1671.00, 
1672.00, 
1673.00, 
1674.00, 
1675.00, 
1676.00, 
1677.00, 
1678.00, 
1679.00, 
1680.00, 
1681.00, 
1682.00, 
1683.00, 
1684.00, 
1685.00, 
1686.00, 
1687.00, 
1688.00, 
1689.00, 
1690.00, 
1691.00, 
1692.00, 
1693.00, 
1694.00, 
1695.00, 
1696.00, 
1697.00, 
1698.00, 
1699.00, 
1700.00, 
1701.00, 
1702.00, 
1703.00, 
1704.00, 
1705.00, 
1706.00, 
1707.00, 
1708.00, 
1709.00, 
1710.00, 
1711.00, 
1712.00, 
1713.00, 
1714.00, 
1715.00, 
1716.00, 
1717.00, 
1718.00, 
1719.00, 
1720.00, 
1721.00, 
1722.00, 
1723.00, 
1724.00, 
1725.00, 
1726.00, 
1727.00, 
1728.00, 
1729.00, 
1730.00, 
1731.00, 
1732.00, 
1733.00, 
1734.00, 
1735.00, 
1736.00, 
1737.00, 
1738.00, 
1739.00, 
1740.00, 
1741.00, 
1742.00, 
1743.00, 
1744.00, 
1745.00, 
1746.00, 
1747.00, 
1748.00, 
1749.00, 
1750.00, 
1751.00, 
1752.00, 
1753.00, 
1754.00, 
1755.00, 
1756.00, 
1757.00, 
1758.00, 
1759.00, 
1760.00, 
1761.00, 
1762.00, 
1763.00, 
1764.00, 
1765.00, 
1766.00, 
1767.00, 
1768.00, 
1769.00, 
1770.00, 
1771.00, 
1772.00, 
1773.00, 
1774.00, 
1775.00, 
1776.00, 
1777.00, 
1778.00, 
1779.00, 
1780.00, 
1781.00, 
1782.00, 
1783.00, 
1784.00, 
1785.00, 
1786.00, 
1787.00, 
1788.00, 
1789.00, 
1790.00, 
1791.00, 
1792.00, 
1793.00, 
1794.00, 
1795.00, 
1796.00, 
1797.00, 
1798.00, 
1799.00, 
1800.00, 
1801.00, 
1802.00, 
1803.00, 
1804.00, 
1805.00, 
1806.00, 
1807.00, 
1808.00, 
1809.00, 
1810.00, 
1811.00, 
1812.00, 
1813.00, 
1814.00, 
1815.00, 
1816.00, 
1817.00, 
1818.00, 
1819.00, 
1820.00, 
1821.00, 
1822.00, 
1823.00, 
1824.00, 
1825.00, 
1826.00, 
1827.00, 
1828.00, 
1829.00, 
1830.00, 
1831.00, 
1832.00, 
1833.00, 
1834.00, 
1835.00, 
1836.00, 
1837.00, 
1838.00, 
1839.00, 
1840.00, 
1841.00, 
1842.00, 
1843.00, 
1844.00, 
1845.00, 
1846.00, 
1847.00, 
1848.00, 
1849.00, 
1850.00, 
1851.00, 
1852.00, 
1853.00, 
1854.00, 
1855.00, 
1856.00, 
1857.00, 
1858.00, 
1859.00, 
1860.00, 
1861.00, 
1862.00, 
1863.00, 
1864.00, 
1865.00, 
1866.00, 
1867.00, 
1868.00, 
1869.00, 
1870.00, 
1871.00, 
1872.00, 
1873.00, 
1874.00, 
1875.00, 
1876.00, 
1877.00, 
1878.00, 
1879.00, 
1880.00, 
1881.00, 
1882.00, 
1883.00, 
1884.00, 
1885.00, 
1886.00, 
1887.00, 
1888.00, 
1889.00, 
1890.00, 
1891.00, 
1892.00, 
1893.00, 
1894.00, 
1895.00, 
1896.00, 
1897.00, 
1898.00, 
1899.00, 
1900.00, 
1901.00, 
1902.00, 
1903.00, 
1904.00, 
1905.00, 
1906.00, 
1907.00, 
1908.00, 
1909.00, 
1910.00, 
1911.00, 
1912.00, 
1913.00, 
1914.00, 
1915.00, 
1916.00, 
1917.00, 
1918.00, 
1919.00, 
1920.00, 
1921.00, 
1922.00, 
1923.00, 
1924.00, 
1925.00, 
1926.00, 
1927.00, 
1928.00, 
1929.00, 
1930.00, 
1931.00, 
1932.00, 
1933.00, 
1934.00, 
1935.00, 
1936.00, 
1937.00, 
1938.00, 
1939.00, 
1940.00, 
1941.00, 
1942.00, 
1943.00, 
1944.00, 
1945.00, 
1946.00, 
1947.00, 
1948.00, 
1949.00, 
1950.00, 
1951.00, 
1952.00, 
1953.00, 
1954.00, 
1955.00, 
1956.00, 
1957.00, 
1958.00, 
1959.00, 
1960.00, 
1961.00, 
1962.00, 
1963.00, 
1964.00, 
1965.00, 
1966.00, 
1967.00, 
1968.00, 
1969.00, 
1970.00, 
1971.00, 
1972.00, 
1973.00, 
1974.00, 
1975.00, 
1976.00, 
1977.00, 
1978.00, 
1979.00, 
1980.00, 
1981.00, 
1982.00, 
1983.00, 
1984.00, 
1985.00, 
1986.00, 
1987.00, 
1988.00, 
1989.00, 
1990.00, 
1991.00, 
1992.00, 
1993.00, 
1994.00, 
1995.00, 
1996.00, 
1997.00, 
1998.00, 
1999.00, 
2000.00, 
2001.00, 
2002.00, 
2003.00, 
2004.00, 
2005.00, 
2006.00, 
2007.00, 
2008.00, 
2009.00, 
2010.00, 
2011.00, 
2012.00, 
2013.00, 
2014.00, 
2015.00, 
2016.00, 
2017.00, 
2018.00, 
2019.00, 
2020.00, 
2021.00, 
2022.00, 
2023.00, 
2024.00, 
2025.00, 
2026.00, 
2027.00, 
2028.00, 
2029.00, 
2030.00, 
2031.00, 
2032.00, 
2033.00, 
2034.00, 
2035.00, 
2036.00, 
2037.00, 
2038.00, 
2039.00, 
2040.00, 
2041.00, 
2042.00, 
2043.00, 
2044.00, 
2045.00, 
2046.00, 
2047.00, 
2048.00, 
2049.00, 
2050.00, 
2051.00, 
2052.00, 
2053.00, 
2054.00, 
2055.00, 
2056.00, 
2057.00, 
2058.00, 
2059.00, 
2060.00, 
2061.00, 
2062.00, 
2063.00, 
2064.00, 
2065.00, 
2066.00, 
2067.00, 
2068.00, 
2069.00, 
2070.00, 
2071.00, 
2072.00, 
2073.00, 
2074.00, 
2075.00, 
2076.00, 
2077.00, 
2078.00, 
2079.00, 
2080.00, 
2081.00, 
2082.00, 
2083.00, 
2084.00, 
2085.00, 
2086.00, 
2087.00, 
2088.00, 
2089.00, 
2090.00, 
2091.00, 
2092.00, 
2093.00, 
2094.00, 
2095.00, 
2096.00, 
2097.00, 
2098.00, 
2099.00, 
2100.00, 
2101.00, 
2102.00, 
2103.00, 
2104.00, 
2105.00, 
2106.00, 
2107.00, 
2108.00, 
2109.00, 
2110.00, 
2111.00, 
2112.00, 
2113.00, 
2114.00, 
2115.00, 
2116.00, 
2117.00, 
2118.00, 
2119.00, 
2120.00, 
2121.00, 
2122.00, 
2123.00, 
2124.00, 
2125.00, 
2126.00, 
2127.00, 
2128.00, 
2129.00, 
2130.00, 
2131.00, 
2132.00, 
2133.00, 
2134.00, 
2135.00, 
2136.00, 
2137.00, 
2138.00, 
2139.00, 
2140.00, 
2141.00, 
2142.00, 
2143.00, 
2144.00, 
2145.00, 
2146.00, 
2147.00, 
2148.00, 
2149.00, 
2150.00, 
2151.00, 
2152.00, 
2153.00, 
2154.00, 
2155.00, 
2156.00, 
2157.00, 
2158.00, 
2159.00, 
2160.00, 
2161.00, 
2162.00, 
2163.00, 
2164.00, 
2165.00, 
2166.00, 
2167.00, 
2168.00, 
2169.00, 
2170.00, 
2171.00, 
2172.00, 
2173.00, 
2174.00, 
2175.00, 
2176.00, 
2177.00, 
2178.00, 
2179.00, 
2180.00, 
2181.00, 
2182.00, 
2183.00, 
2184.00, 
2185.00, 
2186.00, 
2187.00, 
2188.00, 
2189.00, 
2190.00, 
2191.00, 
2192.00, 
2193.00, 
2194.00, 
2195.00, 
2196.00, 
2197.00, 
2198.00, 
2199.00, 
2200.00, 
2201.00, 
2202.00, 
2203.00, 
2204.00, 
2205.00, 
2206.00, 
2207.00, 
2208.00, 
2209.00, 
2210.00, 
2211.00, 
2212.00, 
2213.00, 
2214.00, 
2215.00, 
2216.00, 
2217.00, 
2218.00, 
2219.00, 
2220.00, 
2221.00, 
2222.00, 
2223.00, 
2224.00, 
2225.00, 
2226.00, 
2227.00, 
2228.00, 
2229.00, 
2230.00, 
2231.00, 
2232.00, 
2233.00, 
2234.00, 
2235.00, 
2236.00, 
2237.00, 
2238.00, 
2239.00, 
2240.00, 
2241.00, 
2242.00, 
2243.00, 
2244.00, 
2245.00, 
2246.00, 
2247.00, 
2248.00, 
2249.00, 
2250.00, 
2251.00, 
2252.00, 
2253.00, 
2254.00, 
2255.00, 
2256.00, 
2257.00, 
2258.00, 
2259.00, 
2260.00, 
2261.00, 
2262.00, 
2263.00, 
2264.00, 
2265.00, 
2266.00, 
2267.00, 
2268.00, 
2269.00, 
2270.00, 
2271.00, 
2272.00, 
2273.00, 
2274.00, 
2275.00, 
2276.00, 
2277.00, 
2278.00, 
2279.00, 
2280.00, 
2281.00, 
2282.00, 
2283.00, 
2284.00, 
2285.00, 
2286.00, 
2287.00, 
2288.00, 
2289.00, 
2290.00, 
2291.00, 
2292.00, 
2293.00, 
2294.00, 
2295.00, 
2296.00, 
2297.00, 
2298.00, 
2299.00, 
2300.00, 
2301.00, 
2302.00, 
2303.00, 
2304.00, 
2305.00, 
2306.00, 
2307.00, 
2308.00, 
2309.00, 
2310.00, 
2311.00, 
2312.00, 
2313.00, 
2314.00, 
2315.00, 
2316.00, 
2317.00, 
2318.00, 
2319.00, 
2320.00, 
2321.00, 
2322.00, 
2323.00, 
2324.00, 
2325.00, 
2326.00, 
2327.00, 
2328.00, 
2329.00, 
2330.00, 
2331.00, 
2332.00, 
2333.00, 
2334.00, 
2335.00, 
2336.00, 
2337.00, 
2338.00, 
2339.00, 
2340.00, 
2341.00, 
2342.00, 
2343.00, 
2344.00, 
2345.00, 
2346.00, 
2347.00, 
2348.00, 
2349.00, 
2350.00, 
2351.00, 
2352.00, 
2353.00, 
2354.00, 
2355.00, 
2356.00, 
2357.00, 
2358.00, 
2359.00, 
2360.00, 
2361.00, 
2362.00, 
2363.00, 
2364.00, 
2365.00, 
2366.00, 
2367.00, 
2368.00, 
2369.00, 
2370.00, 
2371.00, 
2372.00, 
2373.00, 
2374.00, 
2375.00, 
2376.00, 
2377.00, 
2378.00, 
2379.00, 
2380.00, 
2381.00, 
2382.00, 
2383.00, 
2384.00, 
2385.00, 
2386.00, 
2387.00, 
2388.00, 
2389.00, 
2390.00, 
2391.00, 
2392.00, 
2393.00, 
2394.00, 
2395.00, 
2396.00, 
2397.00, 
2398.00, 
2399.00, 
2400.00, 
2401.00, 
2402.00, 
2403.00, 
2404.00, 
2405.00, 
2406.00, 
2407.00, 
2408.00, 
2409.00, 
2410.00, 
2411.00, 
2412.00, 
2413.00, 
2414.00, 
2415.00, 
2416.00, 
2417.00, 
2418.00, 
2419.00, 
2420.00, 
2421.00, 
2422.00, 
2423.00, 
2424.00, 
2425.00, 
2426.00, 
2427.00, 
2428.00, 
2429.00, 
2430.00, 
2431.00, 
2432.00, 
2433.00, 
2434.00, 
2435.00, 
2436.00, 
2437.00, 
2438.00, 
2439.00, 
2440.00, 
2441.00, 
2442.00, 
2443.00, 
2444.00, 
2445.00, 
2446.00, 
2447.00, 
2448.00, 
2449.00, 
2450.00, 
2451.00, 
2452.00, 
2453.00, 
2454.00, 
2455.00, 
2456.00, 
2457.00, 
2458.00, 
2459.00, 
2460.00, 
2461.00, 
2462.00, 
2463.00, 
2464.00, 
2465.00, 
2466.00, 
2467.00, 
2468.00, 
2469.00, 
2470.00, 
2471.00, 
2472.00, 
2473.00, 
2474.00, 
2475.00, 
2476.00, 
2477.00, 
2478.00, 
2479.00, 
2480.00, 
2481.00, 
2482.00, 
2483.00, 
2484.00, 
2485.00, 
2486.00, 
2487.00, 
2488.00, 
2489.00, 
2490.00, 
2491.00, 
2492.00, 
2493.00, 
2494.00, 
2495.00, 
2496.00, 
2497.00, 
2498.00, 
2499.00, 
2500.00, 
2501.00, 
2502.00, 
2503.00, 
2504.00, 
2505.00, 
2506.00, 
2507.00, 
2508.00, 
2509.00, 
2510.00, 
2511.00, 
2512.00, 
2513.00, 
2514.00, 
2515.00, 
2516.00, 
2517.00, 
2518.00, 
2519.00, 
2520.00, 
2521.00, 
2522.00, 
2523.00, 
2524.00, 
2525.00, 
2526.00, 
2527.00, 
2528.00, 
2529.00, 
2530.00, 
2531.00, 
2532.00, 
2533.00, 
2534.00, 
2535.00, 
2536.00, 
2537.00, 
2538.00, 
2539.00, 
2540.00, 
2541.00, 
2542.00, 
2543.00, 
2544.00, 
2545.00, 
2546.00, 
2547.00, 
2548.00, 
2549.00, 
2550.00, 
2551.00, 
2552.00, 
2553.00, 
2554.00, 
2555.00, 
2556.00, 
2557.00, 
2558.00, 
2559.00, 
2560.00, 
2561.00, 
2562.00, 
2563.00, 
2564.00, 
2565.00, 
2566.00, 
2567.00, 
2568.00, 
2569.00, 
2570.00, 
2571.00, 
2572.00, 
2573.00, 
2574.00, 
2575.00, 
2576.00, 
2577.00, 
2578.00, 
2579.00, 
2580.00, 
2581.00, 
2582.00, 
2583.00, 
2584.00, 
2585.00, 
2586.00, 
2587.00, 
2588.00, 
2589.00, 
2590.00, 
2591.00, 
2592.00, 
2593.00, 
2594.00, 
2595.00, 
2596.00, 
2597.00, 
2598.00, 
2599.00, 
2600.00, 
