"2aP2 - RawData"
"Wavelength nm.","T%"
200.00,-0.001
201.00,0.000
202.00,0.001
203.00,0.003
204.00,-0.001
205.00,0.002
206.00,0.001
207.00,0.004
208.00,0.003
209.00,-0.001
210.00,0.000
211.00,-0.000
212.00,-0.002
213.00,0.001
214.00,0.001
215.00,0.002
216.00,0.002
217.00,0.003
218.00,0.003
219.00,-0.003
220.00,-0.001
221.00,0.001
222.00,0.002
223.00,0.000
224.00,0.000
225.00,0.004
226.00,0.004
227.00,0.001
228.00,0.000
229.00,0.001
230.00,0.004
231.00,-0.000
232.00,0.001
233.00,0.002
234.00,0.002
235.00,0.002
236.00,0.000
237.00,0.003
238.00,0.001
239.00,0.002
240.00,0.000
241.00,-0.001
242.00,0.003
243.00,-0.000
244.00,0.001
245.00,-0.002
246.00,0.002
247.00,0.002
248.00,0.002
249.00,0.003
250.00,0.001
251.00,-0.001
252.00,0.002
253.00,0.001
254.00,-0.001
255.00,0.002
256.00,0.001
257.00,0.001
258.00,0.000
259.00,0.002
260.00,0.001
261.00,-0.002
262.00,-0.000
263.00,0.001
264.00,0.001
265.00,-0.000
266.00,-0.000
267.00,-0.000
268.00,0.001
269.00,0.001
270.00,0.002
271.00,0.001
272.00,0.001
273.00,0.002
274.00,0.001
275.00,0.001
276.00,-0.000
277.00,-0.001
278.00,0.000
279.00,0.001
280.00,-0.000
281.00,0.001
282.00,-0.001
283.00,0.001
284.00,0.000
285.00,0.001
286.00,0.002
287.00,0.001
288.00,0.002
289.00,0.001
290.00,-0.000
291.00,0.001
292.00,0.002
293.00,-0.001
294.00,-0.000
295.00,0.001
296.00,0.001
297.00,0.000
298.00,-0.000
299.00,0.001
300.00,0.002
301.00,0.003
302.00,0.007
303.00,0.006
304.00,0.010
305.00,0.013
306.00,0.022
307.00,0.032
308.00,0.049
309.00,0.080
310.00,0.110
311.00,0.148
312.00,0.205
313.00,0.267
314.00,0.349
315.00,0.457
316.00,0.585
317.00,0.746
318.00,0.919
319.00,1.127
320.00,1.363
321.00,1.623
322.00,1.918
323.00,2.246
324.00,2.615
325.00,2.991
326.00,3.347
327.00,3.775
328.00,4.207
329.00,4.670
330.00,5.130
331.00,5.603
332.00,6.079
333.00,6.583
334.00,7.073
335.00,7.588
336.00,8.071
337.00,8.574
338.00,9.062
339.00,9.484
340.00,9.937
341.00,10.393
342.00,10.802
343.00,11.215
344.00,11.627
345.00,11.981
346.00,12.287
347.00,12.597
348.00,12.918
349.00,13.192
350.00,13.492
351.00,13.692
352.00,13.918
353.00,14.150
354.00,14.371
355.00,14.575
356.00,14.677
357.00,14.855
358.00,15.001
359.00,15.189
360.00,15.309
361.00,15.318
362.00,15.431
363.00,15.616
364.00,15.651
365.00,15.710
366.00,15.753
367.00,15.802
368.00,15.795
369.00,15.868
370.00,15.841
371.00,15.894
372.00,15.852
373.00,15.847
374.00,15.844
375.00,15.867
376.00,15.798
377.00,15.711
378.00,15.639
379.00,15.601
380.00,15.597
381.00,15.564
382.00,15.542
383.00,15.515
384.00,15.515
385.00,15.534
386.00,15.518
387.00,15.577
388.00,15.571
389.00,15.552
390.00,15.568
391.00,15.583
392.00,15.573
393.00,15.548
394.00,15.565
395.00,15.595
396.00,15.559
397.00,15.520
398.00,15.540
399.00,15.557
400.00,15.528
401.00,15.534
402.00,15.506
403.00,15.487
404.00,15.472
405.00,15.479
406.00,15.459
407.00,15.439
408.00,15.422
409.00,15.383
410.00,15.358
411.00,15.352
412.00,15.343
413.00,15.352
414.00,15.323
415.00,15.352
416.00,15.396
417.00,15.368
418.00,15.375
419.00,15.442
420.00,15.506
421.00,15.508
422.00,15.502
423.00,15.563
424.00,15.613
425.00,15.602
426.00,15.656
427.00,15.705
428.00,15.737
429.00,15.791
430.00,15.851
431.00,15.878
432.00,15.896
433.00,15.997
434.00,16.008
435.00,16.121
436.00,16.159
437.00,16.243
438.00,16.311
439.00,16.367
440.00,16.436
441.00,16.524
442.00,16.609
443.00,16.666
444.00,16.761
445.00,16.831
446.00,16.957
447.00,17.025
448.00,17.146
449.00,17.249
450.00,17.339
451.00,17.431
452.00,17.517
453.00,17.643
454.00,17.754
455.00,17.859
456.00,17.980
457.00,18.086
458.00,18.218
459.00,18.318
460.00,18.483
461.00,18.587
462.00,18.710
463.00,18.851
464.00,18.983
465.00,19.110
466.00,19.235
467.00,19.380
468.00,19.475
469.00,19.602
470.00,19.704
471.00,19.804
472.00,19.960
473.00,20.073
474.00,20.196
475.00,20.321
476.00,20.447
477.00,20.577
478.00,20.663
479.00,20.881
480.00,21.002
481.00,21.144
482.00,21.304
483.00,21.486
484.00,21.644
485.00,21.768
486.00,21.956
487.00,22.114
488.00,22.252
489.00,22.453
490.00,22.583
491.00,22.701
492.00,22.945
493.00,23.105
494.00,23.129
495.00,23.278
496.00,23.420
497.00,23.573
498.00,23.680
499.00,23.824
500.00,24.002
501.00,24.075
502.00,24.271
503.00,24.440
504.00,24.499
505.00,24.610
506.00,24.820
507.00,24.857
508.00,25.051
509.00,25.242
510.00,25.372
511.00,25.459
512.00,25.650
513.00,25.781
514.00,25.890
515.00,26.052
516.00,26.164
517.00,26.231
518.00,26.428
519.00,26.500
520.00,26.561
521.00,26.697
522.00,26.780
523.00,26.836
524.00,26.979
525.00,27.121
526.00,27.239
527.00,27.325
528.00,27.385
529.00,27.581
530.00,27.735
531.00,27.835
532.00,27.867
533.00,27.998
534.00,28.168
535.00,28.187
536.00,28.326
537.00,28.417
538.00,28.482
539.00,28.533
540.00,28.623
541.00,28.716
542.00,28.772
543.00,28.829
544.00,28.943
545.00,29.026
546.00,29.106
547.00,29.203
548.00,29.272
549.00,29.349
550.00,29.453
551.00,29.538
552.00,29.686
553.00,29.798
554.00,29.729
555.00,29.800
556.00,29.900
557.00,29.945
558.00,30.047
559.00,30.114
560.00,30.164
561.00,30.288
562.00,30.298
563.00,30.377
564.00,30.427
565.00,30.469
566.00,30.501
567.00,30.556
568.00,30.606
569.00,30.657
570.00,30.674
571.00,30.722
572.00,30.788
573.00,30.791
574.00,30.861
575.00,30.899
576.00,30.890
577.00,31.016
578.00,31.090
579.00,31.091
580.00,31.177
581.00,31.304
582.00,31.449
583.00,31.410
584.00,31.522
585.00,31.595
586.00,31.659
587.00,31.715
588.00,31.803
589.00,31.752
590.00,31.838
591.00,31.883
592.00,31.872
593.00,31.937
594.00,32.053
595.00,32.104
596.00,32.177
597.00,32.209
598.00,32.312
599.00,32.334
600.00,32.372
601.00,32.494
602.00,32.468
603.00,32.534
604.00,32.638
605.00,32.653
606.00,32.679
607.00,32.704
608.00,32.923
609.00,33.011
610.00,32.831
611.00,32.965
612.00,33.022
613.00,33.090
614.00,33.126
615.00,33.210
616.00,33.334
617.00,33.402
618.00,33.386
619.00,33.461
620.00,33.567
621.00,33.610
622.00,33.655
623.00,33.734
624.00,33.858
625.00,33.932
626.00,33.986
627.00,34.075
628.00,34.152
629.00,34.182
630.00,34.288
631.00,34.347
632.00,34.449
633.00,34.604
634.00,34.685
635.00,34.811
636.00,34.837
637.00,34.987
638.00,35.033
639.00,35.167
640.00,35.192
641.00,35.232
642.00,35.396
643.00,35.462
644.00,35.609
645.00,35.665
646.00,35.797
647.00,35.987
648.00,36.048
649.00,36.086
650.00,36.113
651.00,36.344
652.00,36.435
653.00,36.469
654.00,36.609
655.00,36.721
656.00,37.058
657.00,36.944
658.00,37.054
659.00,37.207
660.00,37.278
661.00,37.388
662.00,37.444
663.00,37.652
664.00,37.965
665.00,38.139
666.00,38.058
667.00,38.140
668.00,38.228
669.00,38.652
670.00,38.774
671.00,38.625
672.00,38.793
673.00,39.033
674.00,39.030
675.00,39.210
676.00,39.409
677.00,39.636
678.00,39.459
679.00,39.713
680.00,39.901
681.00,40.036
682.00,40.031
683.00,40.128
684.00,40.508
685.00,40.588
686.00,40.421
687.00,40.567
688.00,40.832
689.00,40.927
690.00,41.045
691.00,41.399
692.00,41.207
693.00,41.031
694.00,41.659
695.00,42.035
696.00,41.849
697.00,41.851
698.00,42.017
699.00,42.371
700.00,42.425
701.00,42.393
702.00,42.611
703.00,42.792
704.00,42.956
705.00,42.860
706.00,43.054
707.00,43.141
708.00,43.100
709.00,43.486
710.00,43.892
711.00,43.638
712.00,43.669
713.00,43.826
714.00,44.122
715.00,44.026
716.00,44.073
717.00,44.285
718.00,44.460
719.00,44.653
720.00,44.654
721.00,48.813
722.00,48.945
723.00,49.039
724.00,49.051
725.00,49.159
726.00,49.222
727.00,49.235
728.00,49.352
729.00,49.388
730.00,49.458
731.00,49.531
732.00,49.601
733.00,49.707
734.00,49.797
735.00,49.749
736.00,49.902
737.00,49.987
738.00,50.120
739.00,50.132
740.00,50.157
741.00,50.199
742.00,50.292
743.00,50.276
744.00,50.400
745.00,50.447
746.00,50.483
747.00,50.488
748.00,50.560
749.00,50.588
750.00,50.663
751.00,50.630
752.00,50.702
753.00,50.798
754.00,50.765
755.00,50.866
756.00,50.879
757.00,50.950
758.00,50.959
759.00,50.944
760.00,51.043
761.00,51.102
762.00,51.124
763.00,51.207
764.00,51.140
765.00,51.315
766.00,51.281
767.00,51.409
768.00,51.351
769.00,51.373
770.00,51.534
771.00,51.397
772.00,51.550
773.00,51.497
774.00,51.590
775.00,51.622
776.00,51.616
777.00,51.670
778.00,51.655
779.00,51.757
780.00,51.720
781.00,51.708
782.00,51.802
783.00,51.771
784.00,51.787
785.00,51.770
786.00,51.914
787.00,51.794
788.00,51.860
789.00,51.802
790.00,51.880
791.00,51.976
792.00,51.864
793.00,51.849
794.00,51.905
795.00,51.943
796.00,51.974
797.00,51.899
798.00,51.922
799.00,51.871
800.00,51.928
801.00,51.903
802.00,51.990
803.00,51.942
804.00,51.908
805.00,51.944
806.00,51.943
807.00,51.905
808.00,51.944
809.00,51.944
810.00,51.857
811.00,51.978
812.00,51.959
813.00,51.893
814.00,51.965
815.00,51.880
816.00,51.919
817.00,51.920
818.00,51.812
819.00,51.904
820.00,51.878
821.00,51.887
822.00,51.889
823.00,51.847
824.00,51.926
825.00,51.864
826.00,51.884
827.00,51.999
828.00,51.926
829.00,51.851
830.00,51.873
831.00,54.020
832.00,54.027
833.00,54.024
834.00,54.072
835.00,54.006
836.00,54.021
837.00,53.996
838.00,54.008
839.00,53.981
840.00,53.934
841.00,53.973
842.00,53.925
843.00,53.944
844.00,53.908
845.00,53.868
846.00,53.880
847.00,53.903
848.00,53.933
849.00,53.833
850.00,53.836
851.00,53.785
852.00,53.809
853.00,53.731
854.00,53.745
855.00,53.672
856.00,53.693
857.00,53.679
858.00,53.607
859.00,53.638
860.00,53.659
861.00,53.664
862.00,53.579
863.00,53.622
864.00,53.581
865.00,53.610
866.00,53.606
867.00,53.580
868.00,53.605
869.00,53.539
870.00,53.591
871.00,53.571
872.00,53.550
873.00,53.534
874.00,53.582
875.00,53.520
876.00,53.565
877.00,53.514
878.00,53.571
879.00,53.509
880.00,53.513
881.00,53.453
882.00,53.539
883.00,53.515
884.00,53.432
885.00,53.427
886.00,53.434
887.00,53.416
888.00,53.366
889.00,53.350
890.00,53.342
891.00,53.310
892.00,53.312
893.00,53.284
894.00,53.290
895.00,53.287
896.00,53.246
897.00,53.244
898.00,53.246
899.00,53.246
900.00,53.208
901.00,53.185
902.00,53.208
903.00,53.156
904.00,53.144
905.00,53.155
906.00,53.149
907.00,53.135
908.00,53.062
909.00,53.088
910.00,53.048
911.00,53.064
912.00,53.046
913.00,53.003
914.00,53.041
915.00,52.995
916.00,52.956
917.00,52.935
918.00,52.959
919.00,52.909
920.00,52.864
921.00,52.880
922.00,52.893
923.00,52.841
924.00,52.677
925.00,52.891
926.00,52.783
927.00,52.761
928.00,52.717
929.00,52.763
930.00,52.700
931.00,52.706
932.00,52.654
933.00,52.682
934.00,52.635
935.00,52.593
936.00,52.601
937.00,52.595
938.00,52.601
939.00,52.591
940.00,52.541
941.00,52.541
942.00,52.523
943.00,52.501
944.00,52.469
945.00,52.452
946.00,52.450
947.00,52.426
948.00,52.406
949.00,52.387
950.00,52.351
951.00,52.344
952.00,52.336
953.00,52.278
954.00,52.239
955.00,52.299
956.00,52.226
957.00,52.187
958.00,52.216
959.00,52.167
960.00,52.164
961.00,52.148
962.00,52.153
963.00,52.103
964.00,52.113
965.00,52.096
966.00,52.069
967.00,52.079
968.00,52.048
969.00,52.085
970.00,52.044
971.00,52.063
972.00,52.035
973.00,52.089
974.00,52.107
975.00,52.053
976.00,52.070
977.00,52.049
978.00,52.099
979.00,52.058
980.00,52.068
981.00,52.092
982.00,52.014
983.00,52.073
984.00,52.042
985.00,52.059
986.00,52.030
987.00,52.048
988.00,52.017
989.00,51.993
990.00,51.996
991.00,51.983
992.00,51.992
993.00,51.955
994.00,51.938
995.00,51.936
996.00,51.915
997.00,51.912
998.00,51.890
999.00,51.918
1000.00,51.874
1001.00,51.859
1002.00,51.857
1003.00,51.836
1004.00,51.811
1005.00,51.783
1006.00,51.819
1007.00,51.773
1008.00,51.753
1009.00,51.741
1010.00,51.746
1011.00,51.730
1012.00,51.696
1013.00,51.714
1014.00,51.688
1015.00,51.692
1016.00,51.708
1017.00,51.651
1018.00,51.634
1019.00,51.591
1020.00,51.591
1021.00,51.576
1022.00,51.577
1023.00,51.526
1024.00,51.553
1025.00,51.527
1026.00,51.510
1027.00,51.490
1028.00,51.480
1029.00,51.456
1030.00,51.427
1031.00,51.438
1032.00,51.404
1033.00,51.410
1034.00,51.367
1035.00,51.333
1036.00,51.319
1037.00,51.298
1038.00,51.305
1039.00,51.262
1040.00,51.243
1041.00,51.223
1042.00,51.219
1043.00,51.191
1044.00,51.227
1045.00,51.204
1046.00,51.195
1047.00,51.224
1048.00,51.226
1049.00,51.256
1050.00,51.247
1051.00,51.277
1052.00,51.264
1053.00,51.261
1054.00,51.261
1055.00,51.274
1056.00,51.297
1057.00,51.296
1058.00,51.285
1059.00,51.290
1060.00,51.291
1061.00,51.266
1062.00,51.266
1063.00,51.263
1064.00,51.263
1065.00,51.240
1066.00,51.235
1067.00,51.231
1068.00,51.258
1069.00,51.205
1070.00,51.188
1071.00,51.187
1072.00,51.192
1073.00,51.165
1074.00,51.165
1075.00,51.163
1076.00,51.175
1077.00,51.156
1078.00,51.108
1079.00,51.120
1080.00,51.114
1081.00,51.104
1082.00,51.102
1083.00,51.096
1084.00,51.069
1085.00,51.085
1086.00,51.068
1087.00,51.077
1088.00,51.063
1089.00,51.084
1090.00,51.064
1091.00,51.044
1092.00,51.029
1093.00,51.024
1094.00,50.996
1095.00,50.994
1096.00,50.979
1097.00,50.985
1098.00,50.976
1099.00,50.960
1100.00,50.941
1101.00,50.950
1102.00,50.923
1103.00,50.923
1104.00,50.919
1105.00,50.914
1106.00,50.883
1107.00,50.890
1108.00,50.876
1109.00,50.879
1110.00,50.869
1111.00,50.849
1112.00,50.851
1113.00,50.839
1114.00,50.809
1115.00,50.833
1116.00,50.801
1117.00,50.786
1118.00,50.782
1119.00,50.776
1120.00,50.780
1121.00,50.767
1122.00,50.754
1123.00,50.783
1124.00,50.748
1125.00,50.747
1126.00,50.734
1127.00,50.736
1128.00,50.718
1129.00,50.726
1130.00,50.685
1131.00,50.693
1132.00,50.674
1133.00,50.672
1134.00,50.663
1135.00,50.659
1136.00,50.659
1137.00,50.665
1138.00,50.669
1139.00,50.668
1140.00,50.655
1141.00,50.643
1142.00,50.632
1143.00,50.663
1144.00,50.621
1145.00,50.629
1146.00,50.630
1147.00,50.598
1148.00,50.603
1149.00,50.628
1150.00,50.617
1151.00,50.610
1152.00,50.599
1153.00,50.607
1154.00,50.590
1155.00,50.594
1156.00,50.590
1157.00,50.604
1158.00,50.576
1159.00,50.581
1160.00,50.579
1161.00,50.576
1162.00,50.581
1163.00,50.556
1164.00,50.574
1165.00,50.551
1166.00,50.560
1167.00,50.561
1168.00,50.594
1169.00,50.585
1170.00,50.565
1171.00,50.549
1172.00,50.549
1173.00,50.544
1174.00,50.544
1175.00,50.541
1176.00,50.549
1177.00,50.522
1178.00,50.531
1179.00,50.543
1180.00,50.516
1181.00,50.558
1182.00,50.530
1183.00,50.543
1184.00,50.531
1185.00,50.521
1186.00,50.512
1187.00,50.516
1188.00,50.510
1189.00,50.510
1190.00,50.505
1191.00,50.494
1192.00,50.514
1193.00,50.488
1194.00,50.481
1195.00,50.459
1196.00,50.482
1197.00,50.480
1198.00,50.468
1199.00,50.482
1200.00,50.493
1201.00,50.510
1202.00,50.477
1203.00,50.476
1204.00,50.478
1205.00,50.492
1206.00,50.478
1207.00,50.466
1208.00,50.459
1209.00,50.474
1210.00,50.457
1211.00,50.460
1212.00,50.488
1213.00,50.450
1214.00,50.483
1215.00,50.460
1216.00,50.454
1217.00,50.457
1218.00,50.441
1219.00,50.460
1220.00,50.446
1221.00,50.464
1222.00,50.464
1223.00,50.492
1224.00,50.478
1225.00,50.472
1226.00,50.475
1227.00,50.444
1228.00,50.480
1229.00,50.469
1230.00,50.491
1231.00,50.473
1232.00,50.523
1233.00,50.511
1234.00,50.498
1235.00,50.506
1236.00,50.501
1237.00,50.506
1238.00,50.491
1239.00,50.513
1240.00,50.480
1241.00,50.497
1242.00,50.517
1243.00,50.510
1244.00,50.504
1245.00,50.543
1246.00,50.520
1247.00,50.521
1248.00,50.519
1249.00,50.530
1250.00,50.541
1251.00,50.520
1252.00,50.547
1253.00,50.529
1254.00,50.559
1255.00,50.535
1256.00,50.527
1257.00,50.523
1258.00,50.574
1259.00,50.549
1260.00,50.560
1261.00,50.566
1262.00,50.548
1263.00,50.552
1264.00,50.566
1265.00,50.567
1266.00,50.563
1267.00,50.582
1268.00,50.585
1269.00,50.594
1270.00,50.607
1271.00,50.591
1272.00,50.602
1273.00,50.611
1274.00,50.609
1275.00,50.623
1276.00,50.603
1277.00,50.624
1278.00,50.630
1279.00,50.632
1280.00,50.631
1281.00,50.653
1282.00,50.655
1283.00,50.637
1284.00,50.645
1285.00,50.645
1286.00,50.669
1287.00,50.665
1288.00,50.673
1289.00,50.658
1290.00,50.677
1291.00,50.677
1292.00,50.662
1293.00,50.655
1294.00,50.674
1295.00,50.674
1296.00,50.695
1297.00,50.710
1298.00,50.743
1299.00,50.710
1300.00,50.736
1301.00,50.719
1302.00,50.743
1303.00,50.726
1304.00,50.716
1305.00,50.775
1306.00,50.742
1307.00,50.771
1308.00,50.768
1309.00,50.764
1310.00,50.755
1311.00,50.749
1312.00,50.741
1313.00,50.777
1314.00,50.783
1315.00,50.792
1316.00,50.796
1317.00,50.820
1318.00,50.793
1319.00,50.830
1320.00,50.830
1321.00,50.985
1322.00,50.979
1323.00,50.976
1324.00,50.972
1325.00,50.957
1326.00,50.983
1327.00,50.968
1328.00,50.955
1329.00,50.944
1330.00,50.970
1331.00,50.952
1332.00,50.915
1333.00,51.020
1334.00,51.010
1335.00,50.961
1336.00,51.016
1337.00,51.054
1338.00,51.113
1339.00,51.152
1340.00,51.189
1341.00,51.272
1342.00,51.332
1343.00,51.383
1344.00,51.417
1345.00,51.473
1346.00,51.516
1347.00,51.538
1348.00,51.570
1349.00,51.581
1350.00,51.596
1351.00,51.593
1352.00,51.632
1353.00,51.651
1354.00,51.635
1355.00,51.584
1356.00,51.651
1357.00,51.648
1358.00,51.667
1359.00,51.653
1360.00,51.734
1361.00,51.731
1362.00,51.592
1363.00,51.714
1364.00,51.684
1365.00,51.643
1366.00,51.737
1367.00,51.695
1368.00,51.612
1369.00,51.654
1370.00,51.644
1371.00,51.610
1372.00,51.635
1373.00,51.638
1374.00,51.655
1375.00,51.630
1376.00,51.620
1377.00,51.590
1378.00,51.579
1379.00,51.685
1380.00,51.702
1381.00,51.620
1382.00,51.605
1383.00,51.649
1384.00,51.586
1385.00,51.623
1386.00,51.670
1387.00,51.603
1388.00,51.571
1389.00,51.606
1390.00,51.614
1391.00,51.603
1392.00,51.592
1393.00,51.543
1394.00,51.634
1395.00,51.515
1396.00,51.731
1397.00,51.633
1398.00,51.656
1399.00,51.660
1400.00,51.588
1401.00,51.602
1402.00,51.653
1403.00,51.693
1404.00,51.616
1405.00,51.662
1406.00,51.691
1407.00,51.712
1408.00,51.812
1409.00,51.928
1410.00,51.714
1411.00,51.678
1412.00,51.757
1413.00,51.722
1414.00,51.696
1415.00,51.741
1416.00,51.779
1417.00,51.783
1418.00,51.750
1419.00,51.765
1420.00,51.775
1421.00,51.818
1422.00,51.791
1423.00,51.826
1424.00,51.820
1425.00,51.857
1426.00,51.853
1427.00,51.873
1428.00,51.875
1429.00,51.902
1430.00,51.916
1431.00,51.919
1432.00,51.932
1433.00,51.934
1434.00,51.933
1435.00,51.986
1436.00,51.974
1437.00,51.971
1438.00,52.001
1439.00,52.022
1440.00,52.038
1441.00,52.028
1442.00,52.058
1443.00,52.082
1444.00,52.164
1445.00,52.143
1446.00,52.124
1447.00,52.162
1448.00,52.206
1449.00,52.196
1450.00,52.199
1451.00,52.216
1452.00,52.236
1453.00,52.222
1454.00,52.250
1455.00,52.273
1456.00,52.288
1457.00,52.291
1458.00,52.314
1459.00,52.333
1460.00,52.381
1461.00,52.336
1462.00,52.378
1463.00,52.381
1464.00,52.387
1465.00,52.403
1466.00,52.394
1467.00,52.435
1468.00,52.480
1469.00,52.454
1470.00,52.480
1471.00,52.495
1472.00,52.491
1473.00,52.513
1474.00,52.551
1475.00,52.553
1476.00,52.585
1477.00,52.561
1478.00,52.595
1479.00,52.610
1480.00,52.604
1481.00,52.619
1482.00,52.659
1483.00,52.657
1484.00,52.670
1485.00,52.659
1486.00,52.674
1487.00,52.702
1488.00,52.727
1489.00,52.735
1490.00,52.754
1491.00,52.768
1492.00,52.791
1493.00,52.768
1494.00,52.792
1495.00,52.775
1496.00,52.813
1497.00,52.785
1498.00,52.804
1499.00,52.832
1500.00,52.846
1501.00, 
1502.00, 
1503.00, 
1504.00, 
1505.00, 
1506.00, 
1507.00, 
1508.00, 
1509.00, 
1510.00, 
1511.00, 
1512.00, 
1513.00, 
1514.00, 
1515.00, 
1516.00, 
1517.00, 
1518.00, 
1519.00, 
1520.00, 
1521.00, 
1522.00, 
1523.00, 
1524.00, 
1525.00, 
1526.00, 
1527.00, 
1528.00, 
1529.00, 
1530.00, 
1531.00, 
1532.00, 
1533.00, 
1534.00, 
1535.00, 
1536.00, 
1537.00, 
1538.00, 
1539.00, 
1540.00, 
1541.00, 
1542.00, 
1543.00, 
1544.00, 
1545.00, 
1546.00, 
1547.00, 
1548.00, 
1549.00, 
1550.00, 
1551.00, 
1552.00, 
1553.00, 
1554.00, 
1555.00, 
1556.00, 
1557.00, 
1558.00, 
1559.00, 
1560.00, 
1561.00, 
1562.00, 
1563.00, 
1564.00, 
1565.00, 
1566.00, 
1567.00, 
1568.00, 
1569.00, 
1570.00, 
1571.00, 
1572.00, 
1573.00, 
1574.00, 
1575.00, 
1576.00, 
1577.00, 
1578.00, 
1579.00, 
1580.00, 
1581.00, 
1582.00, 
1583.00, 
1584.00, 
1585.00, 
1586.00, 
1587.00, 
1588.00, 
1589.00, 
1590.00, 
1591.00, 
1592.00, 
1593.00, 
1594.00, 
1595.00, 
1596.00, 
1597.00, 
1598.00, 
1599.00, 
1600.00, 
1601.00, 
1602.00, 
1603.00, 
1604.00, 
1605.00, 
1606.00, 
1607.00, 
1608.00, 
1609.00, 
1610.00, 
1611.00, 
1612.00, 
1613.00, 
1614.00, 
1615.00, 
1616.00, 
1617.00, 
1618.00, 
1619.00, 
1620.00, 
1621.00, 
1622.00, 
1623.00, 
1624.00, 
1625.00, 
1626.00, 
1627.00, 
1628.00, 
1629.00, 
1630.00, 
1631.00, 
1632.00, 
1633.00, 
1634.00, 
1635.00, 
1636.00, 
1637.00, 
1638.00, 
1639.00, 
1640.00, 
1641.00, 
1642.00, 
1643.00, 
1644.00, 
1645.00, 
1646.00, 
1647.00, 
1648.00, 
1649.00, 
1650.00, 
1651.00, 
1652.00, 
1653.00, 
1654.00, 
1655.00, 
1656.00, 
1657.00, 
1658.00, 
1659.00, 
1660.00, 
1661.00, 
1662.00, 
1663.00, 
1664.00, 
1665.00, 
1666.00, 
1667.00, 
1668.00, 
1669.00, 
1670.00, 
1671.00, 
1672.00, 
1673.00, 
1674.00, 
1675.00, 
1676.00, 
1677.00, 
1678.00, 
1679.00, 
1680.00, 
1681.00, 
1682.00, 
1683.00, 
1684.00, 
1685.00, 
1686.00, 
1687.00, 
1688.00, 
1689.00, 
1690.00, 
1691.00, 
1692.00, 
1693.00, 
1694.00, 
1695.00, 
1696.00, 
1697.00, 
1698.00, 
1699.00, 
1700.00, 
1701.00, 
1702.00, 
1703.00, 
1704.00, 
1705.00, 
1706.00, 
1707.00, 
1708.00, 
1709.00, 
1710.00, 
1711.00, 
1712.00, 
1713.00, 
1714.00, 
1715.00, 
1716.00, 
1717.00, 
1718.00, 
1719.00, 
1720.00, 
1721.00, 
1722.00, 
1723.00, 
1724.00, 
1725.00, 
1726.00, 
1727.00, 
1728.00, 
1729.00, 
1730.00, 
1731.00, 
1732.00, 
1733.00, 
1734.00, 
1735.00, 
1736.00, 
1737.00, 
1738.00, 
1739.00, 
1740.00, 
1741.00, 
1742.00, 
1743.00, 
1744.00, 
1745.00, 
1746.00, 
1747.00, 
1748.00, 
1749.00, 
1750.00, 
1751.00, 
1752.00, 
1753.00, 
1754.00, 
1755.00, 
1756.00, 
1757.00, 
1758.00, 
1759.00, 
1760.00, 
1761.00, 
1762.00, 
1763.00, 
1764.00, 
1765.00, 
1766.00, 
1767.00, 
1768.00, 
1769.00, 
1770.00, 
1771.00, 
1772.00, 
1773.00, 
1774.00, 
1775.00, 
1776.00, 
1777.00, 
1778.00, 
1779.00, 
1780.00, 
1781.00, 
1782.00, 
1783.00, 
1784.00, 
1785.00, 
1786.00, 
1787.00, 
1788.00, 
1789.00, 
1790.00, 
1791.00, 
1792.00, 
1793.00, 
1794.00, 
1795.00, 
1796.00, 
1797.00, 
1798.00, 
1799.00, 
1800.00, 
1801.00, 
1802.00, 
1803.00, 
1804.00, 
1805.00, 
1806.00, 
1807.00, 
1808.00, 
1809.00, 
1810.00, 
1811.00, 
1812.00, 
1813.00, 
1814.00, 
1815.00, 
1816.00, 
1817.00, 
1818.00, 
1819.00, 
1820.00, 
1821.00, 
1822.00, 
1823.00, 
1824.00, 
1825.00, 
1826.00, 
1827.00, 
1828.00, 
1829.00, 
1830.00, 
1831.00, 
1832.00, 
1833.00, 
1834.00, 
1835.00, 
1836.00, 
1837.00, 
1838.00, 
1839.00, 
1840.00, 
1841.00, 
1842.00, 
1843.00, 
1844.00, 
1845.00, 
1846.00, 
1847.00, 
1848.00, 
1849.00, 
1850.00, 
1851.00, 
1852.00, 
1853.00, 
1854.00, 
1855.00, 
1856.00, 
1857.00, 
1858.00, 
1859.00, 
1860.00, 
1861.00, 
1862.00, 
1863.00, 
1864.00, 
1865.00, 
1866.00, 
1867.00, 
1868.00, 
1869.00, 
1870.00, 
1871.00, 
1872.00, 
1873.00, 
1874.00, 
1875.00, 
1876.00, 
1877.00, 
1878.00, 
1879.00, 
1880.00, 
1881.00, 
1882.00, 
1883.00, 
1884.00, 
1885.00, 
1886.00, 
1887.00, 
1888.00, 
1889.00, 
1890.00, 
1891.00, 
1892.00, 
1893.00, 
1894.00, 
1895.00, 
1896.00, 
1897.00, 
1898.00, 
1899.00, 
1900.00, 
1901.00, 
1902.00, 
1903.00, 
1904.00, 
1905.00, 
1906.00, 
1907.00, 
1908.00, 
1909.00, 
1910.00, 
1911.00, 
1912.00, 
1913.00, 
1914.00, 
1915.00, 
1916.00, 
1917.00, 
1918.00, 
1919.00, 
1920.00, 
1921.00, 
1922.00, 
1923.00, 
1924.00, 
1925.00, 
1926.00, 
1927.00, 
1928.00, 
1929.00, 
1930.00, 
1931.00, 
1932.00, 
1933.00, 
1934.00, 
1935.00, 
1936.00, 
1937.00, 
1938.00, 
1939.00, 
1940.00, 
1941.00, 
1942.00, 
1943.00, 
1944.00, 
1945.00, 
1946.00, 
1947.00, 
1948.00, 
1949.00, 
1950.00, 
1951.00, 
1952.00, 
1953.00, 
1954.00, 
1955.00, 
1956.00, 
1957.00, 
1958.00, 
1959.00, 
1960.00, 
1961.00, 
1962.00, 
1963.00, 
1964.00, 
1965.00, 
1966.00, 
1967.00, 
1968.00, 
1969.00, 
1970.00, 
1971.00, 
1972.00, 
1973.00, 
1974.00, 
1975.00, 
1976.00, 
1977.00, 
1978.00, 
1979.00, 
1980.00, 
1981.00, 
1982.00, 
1983.00, 
1984.00, 
1985.00, 
1986.00, 
1987.00, 
1988.00, 
1989.00, 
1990.00, 
1991.00, 
1992.00, 
1993.00, 
1994.00, 
1995.00, 
1996.00, 
1997.00, 
1998.00, 
1999.00, 
2000.00, 
2001.00, 
2002.00, 
2003.00, 
2004.00, 
2005.00, 
2006.00, 
2007.00, 
2008.00, 
2009.00, 
2010.00, 
2011.00, 
2012.00, 
2013.00, 
2014.00, 
2015.00, 
2016.00, 
2017.00, 
2018.00, 
2019.00, 
2020.00, 
2021.00, 
2022.00, 
2023.00, 
2024.00, 
2025.00, 
2026.00, 
2027.00, 
2028.00, 
2029.00, 
2030.00, 
2031.00, 
2032.00, 
2033.00, 
2034.00, 
2035.00, 
2036.00, 
2037.00, 
2038.00, 
2039.00, 
2040.00, 
2041.00, 
2042.00, 
2043.00, 
2044.00, 
2045.00, 
2046.00, 
2047.00, 
2048.00, 
2049.00, 
2050.00, 
2051.00, 
2052.00, 
2053.00, 
2054.00, 
2055.00, 
2056.00, 
2057.00, 
2058.00, 
2059.00, 
2060.00, 
2061.00, 
2062.00, 
2063.00, 
2064.00, 
2065.00, 
2066.00, 
2067.00, 
2068.00, 
2069.00, 
2070.00, 
2071.00, 
2072.00, 
2073.00, 
2074.00, 
2075.00, 
2076.00, 
2077.00, 
2078.00, 
2079.00, 
2080.00, 
2081.00, 
2082.00, 
2083.00, 
2084.00, 
2085.00, 
2086.00, 
2087.00, 
2088.00, 
2089.00, 
2090.00, 
2091.00, 
2092.00, 
2093.00, 
2094.00, 
2095.00, 
2096.00, 
2097.00, 
2098.00, 
2099.00, 
2100.00, 
2101.00, 
2102.00, 
2103.00, 
2104.00, 
2105.00, 
2106.00, 
2107.00, 
2108.00, 
2109.00, 
2110.00, 
2111.00, 
2112.00, 
2113.00, 
2114.00, 
2115.00, 
2116.00, 
2117.00, 
2118.00, 
2119.00, 
2120.00, 
2121.00, 
2122.00, 
2123.00, 
2124.00, 
2125.00, 
2126.00, 
2127.00, 
2128.00, 
2129.00, 
2130.00, 
2131.00, 
2132.00, 
2133.00, 
2134.00, 
2135.00, 
2136.00, 
2137.00, 
2138.00, 
2139.00, 
2140.00, 
2141.00, 
2142.00, 
2143.00, 
2144.00, 
2145.00, 
2146.00, 
2147.00, 
2148.00, 
2149.00, 
2150.00, 
2151.00, 
2152.00, 
2153.00, 
2154.00, 
2155.00, 
2156.00, 
2157.00, 
2158.00, 
2159.00, 
2160.00, 
2161.00, 
2162.00, 
2163.00, 
2164.00, 
2165.00, 
2166.00, 
2167.00, 
2168.00, 
2169.00, 
2170.00, 
2171.00, 
2172.00, 
2173.00, 
2174.00, 
2175.00, 
2176.00, 
2177.00, 
2178.00, 
2179.00, 
2180.00, 
2181.00, 
2182.00, 
2183.00, 
2184.00, 
2185.00, 
2186.00, 
2187.00, 
2188.00, 
2189.00, 
2190.00, 
2191.00, 
2192.00, 
2193.00, 
2194.00, 
2195.00, 
2196.00, 
2197.00, 
2198.00, 
2199.00, 
2200.00, 
2201.00, 
2202.00, 
2203.00, 
2204.00, 
2205.00, 
2206.00, 
2207.00, 
2208.00, 
2209.00, 
2210.00, 
2211.00, 
2212.00, 
2213.00, 
2214.00, 
2215.00, 
2216.00, 
2217.00, 
2218.00, 
2219.00, 
2220.00, 
2221.00, 
2222.00, 
2223.00, 
2224.00, 
2225.00, 
2226.00, 
2227.00, 
2228.00, 
2229.00, 
2230.00, 
2231.00, 
2232.00, 
2233.00, 
2234.00, 
2235.00, 
2236.00, 
2237.00, 
2238.00, 
2239.00, 
2240.00, 
2241.00, 
2242.00, 
2243.00, 
2244.00, 
2245.00, 
2246.00, 
2247.00, 
2248.00, 
2249.00, 
2250.00, 
2251.00, 
2252.00, 
2253.00, 
2254.00, 
2255.00, 
2256.00, 
2257.00, 
2258.00, 
2259.00, 
2260.00, 
2261.00, 
2262.00, 
2263.00, 
2264.00, 
2265.00, 
2266.00, 
2267.00, 
2268.00, 
2269.00, 
2270.00, 
2271.00, 
2272.00, 
2273.00, 
2274.00, 
2275.00, 
2276.00, 
2277.00, 
2278.00, 
2279.00, 
2280.00, 
2281.00, 
2282.00, 
2283.00, 
2284.00, 
2285.00, 
2286.00, 
2287.00, 
2288.00, 
2289.00, 
2290.00, 
2291.00, 
2292.00, 
2293.00, 
2294.00, 
2295.00, 
2296.00, 
2297.00, 
2298.00, 
2299.00, 
2300.00, 
2301.00, 
2302.00, 
2303.00, 
2304.00, 
2305.00, 
2306.00, 
2307.00, 
2308.00, 
2309.00, 
2310.00, 
2311.00, 
2312.00, 
2313.00, 
2314.00, 
2315.00, 
2316.00, 
2317.00, 
2318.00, 
2319.00, 
2320.00, 
2321.00, 
2322.00, 
2323.00, 
2324.00, 
2325.00, 
2326.00, 
2327.00, 
2328.00, 
2329.00, 
2330.00, 
2331.00, 
2332.00, 
2333.00, 
2334.00, 
2335.00, 
2336.00, 
2337.00, 
2338.00, 
2339.00, 
2340.00, 
2341.00, 
2342.00, 
2343.00, 
2344.00, 
2345.00, 
2346.00, 
2347.00, 
2348.00, 
2349.00, 
2350.00, 
2351.00, 
2352.00, 
2353.00, 
2354.00, 
2355.00, 
2356.00, 
2357.00, 
2358.00, 
2359.00, 
2360.00, 
2361.00, 
2362.00, 
2363.00, 
2364.00, 
2365.00, 
2366.00, 
2367.00, 
2368.00, 
2369.00, 
2370.00, 
2371.00, 
2372.00, 
2373.00, 
2374.00, 
2375.00, 
2376.00, 
2377.00, 
2378.00, 
2379.00, 
2380.00, 
2381.00, 
2382.00, 
2383.00, 
2384.00, 
2385.00, 
2386.00, 
2387.00, 
2388.00, 
2389.00, 
2390.00, 
2391.00, 
2392.00, 
2393.00, 
2394.00, 
2395.00, 
2396.00, 
2397.00, 
2398.00, 
2399.00, 
2400.00, 
2401.00, 
2402.00, 
2403.00, 
2404.00, 
2405.00, 
2406.00, 
2407.00, 
2408.00, 
2409.00, 
2410.00, 
2411.00, 
2412.00, 
2413.00, 
2414.00, 
2415.00, 
2416.00, 
2417.00, 
2418.00, 
2419.00, 
2420.00, 
2421.00, 
2422.00, 
2423.00, 
2424.00, 
2425.00, 
2426.00, 
2427.00, 
2428.00, 
2429.00, 
2430.00, 
2431.00, 
2432.00, 
2433.00, 
2434.00, 
2435.00, 
2436.00, 
2437.00, 
2438.00, 
2439.00, 
2440.00, 
2441.00, 
2442.00, 
2443.00, 
2444.00, 
2445.00, 
2446.00, 
2447.00, 
2448.00, 
2449.00, 
2450.00, 
2451.00, 
2452.00, 
2453.00, 
2454.00, 
2455.00, 
2456.00, 
2457.00, 
2458.00, 
2459.00, 
2460.00, 
2461.00, 
2462.00, 
2463.00, 
2464.00, 
2465.00, 
2466.00, 
2467.00, 
2468.00, 
2469.00, 
2470.00, 
2471.00, 
2472.00, 
2473.00, 
2474.00, 
2475.00, 
2476.00, 
2477.00, 
2478.00, 
2479.00, 
2480.00, 
2481.00, 
2482.00, 
2483.00, 
2484.00, 
2485.00, 
2486.00, 
2487.00, 
2488.00, 
2489.00, 
2490.00, 
2491.00, 
2492.00, 
2493.00, 
2494.00, 
2495.00, 
2496.00, 
2497.00, 
2498.00, 
2499.00, 
2500.00, 
2501.00, 
2502.00, 
2503.00, 
2504.00, 
2505.00, 
2506.00, 
2507.00, 
2508.00, 
2509.00, 
2510.00, 
2511.00, 
2512.00, 
2513.00, 
2514.00, 
2515.00, 
2516.00, 
2517.00, 
2518.00, 
2519.00, 
2520.00, 
2521.00, 
2522.00, 
2523.00, 
2524.00, 
2525.00, 
2526.00, 
2527.00, 
2528.00, 
2529.00, 
2530.00, 
2531.00, 
2532.00, 
2533.00, 
2534.00, 
2535.00, 
2536.00, 
2537.00, 
2538.00, 
2539.00, 
2540.00, 
2541.00, 
2542.00, 
2543.00, 
2544.00, 
2545.00, 
2546.00, 
2547.00, 
2548.00, 
2549.00, 
2550.00, 
2551.00, 
2552.00, 
2553.00, 
2554.00, 
2555.00, 
2556.00, 
2557.00, 
2558.00, 
2559.00, 
2560.00, 
2561.00, 
2562.00, 
2563.00, 
2564.00, 
2565.00, 
2566.00, 
2567.00, 
2568.00, 
2569.00, 
2570.00, 
2571.00, 
2572.00, 
2573.00, 
2574.00, 
2575.00, 
2576.00, 
2577.00, 
2578.00, 
2579.00, 
2580.00, 
2581.00, 
2582.00, 
2583.00, 
2584.00, 
2585.00, 
2586.00, 
2587.00, 
2588.00, 
2589.00, 
2590.00, 
2591.00, 
2592.00, 
2593.00, 
2594.00, 
2595.00, 
2596.00, 
2597.00, 
2598.00, 
2599.00, 
2600.00, 
