"2cP2 - RawData"
"Wavelength nm.","T%"
200.00,0.003
201.00,0.003
202.00,0.003
203.00,0.002
204.00,-0.001
205.00,0.005
206.00,0.001
207.00,-0.000
208.00,0.004
209.00,0.004
210.00,0.004
211.00,0.002
212.00,0.001
213.00,0.001
214.00,0.001
215.00,0.001
216.00,0.003
217.00,-0.001
218.00,0.003
219.00,-0.001
220.00,0.003
221.00,0.000
222.00,0.002
223.00,0.000
224.00,0.002
225.00,0.001
226.00,0.000
227.00,-0.003
228.00,-0.002
229.00,0.002
230.00,-0.000
231.00,0.001
232.00,0.001
233.00,0.001
234.00,0.002
235.00,0.001
236.00,0.001
237.00,-0.001
238.00,0.001
239.00,0.001
240.00,0.001
241.00,0.001
242.00,0.000
243.00,-0.001
244.00,0.001
245.00,-0.001
246.00,0.001
247.00,-0.001
248.00,0.001
249.00,0.001
250.00,-0.001
251.00,-0.000
252.00,-0.000
253.00,-0.000
254.00,-0.001
255.00,0.001
256.00,0.002
257.00,0.001
258.00,-0.000
259.00,-0.001
260.00,-0.001
261.00,0.001
262.00,0.002
263.00,0.001
264.00,0.002
265.00,0.002
266.00,0.000
267.00,-0.000
268.00,0.001
269.00,-0.000
270.00,-0.000
271.00,0.001
272.00,0.001
273.00,0.002
274.00,-0.001
275.00,0.002
276.00,0.000
277.00,0.001
278.00,0.001
279.00,0.001
280.00,-0.002
281.00,-0.000
282.00,0.001
283.00,-0.001
284.00,0.001
285.00,0.001
286.00,-0.000
287.00,0.002
288.00,0.000
289.00,-0.000
290.00,0.001
291.00,-0.000
292.00,0.002
293.00,-0.001
294.00,-0.000
295.00,0.002
296.00,-0.001
297.00,-0.001
298.00,0.001
299.00,0.002
300.00,0.004
301.00,0.006
302.00,0.007
303.00,0.012
304.00,0.016
305.00,0.027
306.00,0.042
307.00,0.063
308.00,0.092
309.00,0.143
310.00,0.208
311.00,0.283
312.00,0.397
313.00,0.531
314.00,0.703
315.00,0.912
316.00,1.165
317.00,1.469
318.00,1.807
319.00,2.230
320.00,2.734
321.00,3.255
322.00,3.881
323.00,4.549
324.00,5.294
325.00,6.052
326.00,6.813
327.00,7.680
328.00,8.622
329.00,9.539
330.00,10.524
331.00,11.504
332.00,12.525
333.00,13.634
334.00,14.598
335.00,15.685
336.00,16.718
337.00,17.786
338.00,18.838
339.00,19.813
340.00,20.769
341.00,21.758
342.00,22.648
343.00,23.509
344.00,24.448
345.00,25.169
346.00,25.982
347.00,26.692
348.00,27.474
349.00,28.082
350.00,28.577
351.00,29.318
352.00,29.860
353.00,30.383
354.00,30.901
355.00,31.346
356.00,31.814
357.00,32.327
358.00,32.628
359.00,33.013
360.00,33.362
361.00,33.682
362.00,33.952
363.00,34.314
364.00,34.554
365.00,34.805
366.00,34.982
367.00,35.173
368.00,35.321
369.00,35.454
370.00,35.539
371.00,35.684
372.00,35.755
373.00,35.865
374.00,35.863
375.00,35.857
376.00,35.832
377.00,35.794
378.00,35.765
379.00,35.735
380.00,35.775
381.00,35.744
382.00,35.776
383.00,35.843
384.00,35.937
385.00,36.047
386.00,36.107
387.00,36.245
388.00,36.318
389.00,36.393
390.00,36.473
391.00,36.581
392.00,36.604
393.00,36.634
394.00,36.759
395.00,36.793
396.00,36.838
397.00,36.856
398.00,36.924
399.00,36.905
400.00,36.902
401.00,37.015
402.00,36.999
403.00,37.007
404.00,36.984
405.00,37.024
406.00,36.970
407.00,36.942
408.00,36.963
409.00,36.889
410.00,36.912
411.00,36.830
412.00,36.813
413.00,36.791
414.00,36.755
415.00,36.805
416.00,36.816
417.00,36.836
418.00,36.818
419.00,36.808
420.00,36.868
421.00,36.968
422.00,36.962
423.00,37.002
424.00,37.027
425.00,37.040
426.00,37.055
427.00,37.080
428.00,37.101
429.00,37.137
430.00,37.163
431.00,37.155
432.00,37.180
433.00,37.144
434.00,37.292
435.00,37.327
436.00,37.339
437.00,37.418
438.00,37.454
439.00,37.506
440.00,37.516
441.00,37.626
442.00,37.635
443.00,37.685
444.00,37.750
445.00,37.798
446.00,37.890
447.00,37.944
448.00,38.010
449.00,38.018
450.00,38.206
451.00,38.240
452.00,38.323
453.00,38.416
454.00,38.490
455.00,38.514
456.00,38.633
457.00,38.735
458.00,38.806
459.00,38.854
460.00,39.005
461.00,39.027
462.00,39.093
463.00,39.194
464.00,39.308
465.00,39.364
466.00,39.402
467.00,39.526
468.00,39.570
469.00,39.639
470.00,39.651
471.00,39.713
472.00,39.789
473.00,39.826
474.00,39.907
475.00,39.979
476.00,40.013
477.00,40.100
478.00,40.174
479.00,40.302
480.00,40.398
481.00,40.480
482.00,40.585
483.00,40.722
484.00,40.792
485.00,40.906
486.00,41.031
487.00,41.133
488.00,41.214
489.00,41.375
490.00,41.436
491.00,41.533
492.00,41.692
493.00,41.732
494.00,41.718
495.00,41.847
496.00,41.852
497.00,41.959
498.00,42.076
499.00,42.135
500.00,42.247
501.00,42.334
502.00,42.440
503.00,42.500
504.00,42.529
505.00,42.642
506.00,42.799
507.00,42.764
508.00,42.843
509.00,42.979
510.00,43.034
511.00,43.116
512.00,43.220
513.00,43.254
514.00,43.355
515.00,43.458
516.00,43.526
517.00,43.559
518.00,43.684
519.00,43.746
520.00,43.751
521.00,43.725
522.00,43.837
523.00,43.853
524.00,43.934
525.00,44.021
526.00,44.099
527.00,44.186
528.00,44.163
529.00,44.247
530.00,44.293
531.00,44.417
532.00,44.453
533.00,44.547
534.00,44.537
535.00,44.674
536.00,44.773
537.00,44.799
538.00,44.882
539.00,44.924
540.00,44.936
541.00,45.009
542.00,45.009
543.00,45.083
544.00,45.115
545.00,45.169
546.00,45.204
547.00,45.293
548.00,45.313
549.00,45.276
550.00,45.390
551.00,45.525
552.00,45.686
553.00,45.722
554.00,45.634
555.00,45.742
556.00,45.724
557.00,45.744
558.00,45.755
559.00,45.845
560.00,45.940
561.00,45.974
562.00,46.018
563.00,46.080
564.00,46.080
565.00,46.097
566.00,46.112
567.00,46.180
568.00,46.077
569.00,46.120
570.00,46.096
571.00,46.167
572.00,46.209
573.00,46.206
574.00,46.226
575.00,46.257
576.00,46.281
577.00,46.364
578.00,46.372
579.00,46.335
580.00,46.387
581.00,46.595
582.00,46.694
583.00,46.719
584.00,46.818
585.00,46.847
586.00,46.901
587.00,46.932
588.00,46.972
589.00,46.980
590.00,47.002
591.00,47.100
592.00,47.019
593.00,47.050
594.00,47.099
595.00,47.074
596.00,47.162
597.00,47.212
598.00,47.355
599.00,47.355
600.00,47.367
601.00,47.383
602.00,47.358
603.00,47.353
604.00,47.509
605.00,47.474
606.00,47.521
607.00,47.474
608.00,47.569
609.00,47.557
610.00,47.515
611.00,47.557
612.00,47.623
613.00,47.602
614.00,47.617
615.00,47.638
616.00,47.712
617.00,47.733
618.00,47.763
619.00,47.753
620.00,47.772
621.00,47.817
622.00,47.829
623.00,47.875
624.00,47.895
625.00,47.961
626.00,47.919
627.00,47.868
628.00,48.013
629.00,48.041
630.00,48.067
631.00,48.060
632.00,48.049
633.00,48.151
634.00,48.147
635.00,48.215
636.00,48.219
637.00,48.318
638.00,48.322
639.00,48.333
640.00,48.282
641.00,48.242
642.00,48.393
643.00,48.304
644.00,48.363
645.00,48.428
646.00,48.400
647.00,48.472
648.00,48.616
649.00,48.607
650.00,48.526
651.00,48.687
652.00,48.644
653.00,48.663
654.00,48.810
655.00,48.776
656.00,48.840
657.00,48.860
658.00,48.801
659.00,48.828
660.00,48.710
661.00,48.832
662.00,48.948
663.00,48.915
664.00,49.395
665.00,49.099
666.00,49.180
667.00,49.183
668.00,49.176
669.00,49.406
670.00,49.345
671.00,49.311
672.00,49.403
673.00,49.445
674.00,49.367
675.00,49.363
676.00,49.479
677.00,49.446
678.00,49.517
679.00,49.624
680.00,49.525
681.00,49.615
682.00,49.585
683.00,49.356
684.00,49.875
685.00,49.844
686.00,49.658
687.00,49.713
688.00,49.803
689.00,49.753
690.00,49.686
691.00,49.830
692.00,49.764
693.00,49.939
694.00,49.959
695.00,49.967
696.00,49.945
697.00,49.931
698.00,50.053
699.00,50.254
700.00,50.255
701.00,50.159
702.00,50.216
703.00,50.170
704.00,50.308
705.00,50.201
706.00,50.186
707.00,50.284
708.00,50.119
709.00,50.240
710.00,50.363
711.00,50.447
712.00,50.254
713.00,50.294
714.00,50.389
715.00,50.296
716.00,50.405
717.00,50.328
718.00,50.410
719.00,50.574
720.00,50.436
721.00,54.580
722.00,54.538
723.00,54.537
724.00,54.517
725.00,54.465
726.00,54.423
727.00,54.283
728.00,54.394
729.00,54.295
730.00,54.264
731.00,54.299
732.00,54.165
733.00,54.183
734.00,54.174
735.00,54.116
736.00,54.197
737.00,54.179
738.00,54.203
739.00,54.121
740.00,54.144
741.00,54.010
742.00,54.105
743.00,53.966
744.00,54.041
745.00,53.940
746.00,53.877
747.00,53.760
748.00,53.750
749.00,53.767
750.00,53.682
751.00,53.671
752.00,53.600
753.00,53.694
754.00,53.595
755.00,53.527
756.00,53.479
757.00,53.524
758.00,53.457
759.00,53.434
760.00,53.479
761.00,53.411
762.00,53.377
763.00,53.397
764.00,53.357
765.00,53.328
766.00,53.288
767.00,53.309
768.00,53.286
769.00,53.194
770.00,53.267
771.00,53.262
772.00,53.215
773.00,53.236
774.00,53.192
775.00,53.142
776.00,53.134
777.00,53.170
778.00,53.005
779.00,52.988
780.00,52.998
781.00,53.003
782.00,52.982
783.00,52.924
784.00,52.893
785.00,52.935
786.00,52.930
787.00,52.871
788.00,52.846
789.00,52.730
790.00,52.705
791.00,52.807
792.00,52.689
793.00,52.601
794.00,52.557
795.00,52.561
796.00,52.637
797.00,52.530
798.00,52.505
799.00,52.409
800.00,52.466
801.00,52.348
802.00,52.404
803.00,52.364
804.00,52.251
805.00,52.245
806.00,52.244
807.00,52.195
808.00,52.146
809.00,52.092
810.00,52.112
811.00,52.105
812.00,52.114
813.00,51.990
814.00,52.066
815.00,52.032
816.00,52.018
817.00,51.928
818.00,51.859
819.00,51.920
820.00,51.826
821.00,51.782
822.00,51.780
823.00,51.732
824.00,51.848
825.00,51.675
826.00,51.741
827.00,51.751
828.00,51.655
829.00,51.630
830.00,51.636
831.00,54.219
832.00,54.140
833.00,54.144
834.00,54.196
835.00,54.109
836.00,54.095
837.00,54.017
838.00,53.999
839.00,53.992
840.00,53.909
841.00,53.922
842.00,53.887
843.00,53.889
844.00,53.838
845.00,53.797
846.00,53.797
847.00,53.813
848.00,53.756
849.00,53.681
850.00,53.668
851.00,53.618
852.00,53.613
853.00,53.504
854.00,53.524
855.00,53.446
856.00,53.450
857.00,53.404
858.00,53.348
859.00,53.350
860.00,53.327
861.00,53.330
862.00,53.259
863.00,53.277
864.00,53.128
865.00,53.236
866.00,53.206
867.00,53.183
868.00,53.187
869.00,53.133
870.00,53.136
871.00,53.118
872.00,53.092
873.00,53.050
874.00,53.074
875.00,53.056
876.00,53.034
877.00,53.038
878.00,53.008
879.00,52.990
880.00,52.967
881.00,52.928
882.00,52.930
883.00,52.912
884.00,52.856
885.00,52.843
886.00,52.831
887.00,52.803
888.00,52.763
889.00,52.738
890.00,52.748
891.00,52.697
892.00,52.701
893.00,52.657
894.00,52.657
895.00,52.623
896.00,52.579
897.00,52.556
898.00,52.521
899.00,52.526
900.00,52.512
901.00,52.483
902.00,52.501
903.00,52.443
904.00,52.441
905.00,52.414
906.00,52.389
907.00,52.377
908.00,52.328
909.00,52.323
910.00,52.269
911.00,52.287
912.00,52.300
913.00,52.231
914.00,52.223
915.00,52.196
916.00,52.180
917.00,52.158
918.00,52.156
919.00,52.108
920.00,52.083
921.00,52.067
922.00,52.072
923.00,52.040
924.00,51.978
925.00,51.990
926.00,51.967
927.00,51.932
928.00,51.908
929.00,51.932
930.00,51.863
931.00,51.887
932.00,51.831
933.00,51.840
934.00,51.821
935.00,51.763
936.00,51.760
937.00,51.758
938.00,51.719
939.00,51.726
940.00,51.665
941.00,51.649
942.00,51.619
943.00,51.611
944.00,51.579
945.00,51.579
946.00,51.571
947.00,51.544
948.00,51.513
949.00,51.477
950.00,51.481
951.00,51.458
952.00,51.429
953.00,51.393
954.00,51.357
955.00,51.328
956.00,51.331
957.00,51.265
958.00,51.300
959.00,51.244
960.00,51.217
961.00,51.206
962.00,51.231
963.00,51.157
964.00,51.159
965.00,51.141
966.00,51.127
967.00,51.133
968.00,51.097
969.00,51.130
970.00,51.100
971.00,51.095
972.00,51.088
973.00,51.106
974.00,51.132
975.00,51.082
976.00,51.107
977.00,51.095
978.00,51.127
979.00,51.082
980.00,51.096
981.00,51.189
982.00,51.040
983.00,51.090
984.00,51.062
985.00,51.071
986.00,51.026
987.00,51.052
988.00,51.031
989.00,51.010
990.00,51.006
991.00,50.983
992.00,50.998
993.00,50.960
994.00,50.950
995.00,50.940
996.00,50.927
997.00,50.919
998.00,50.891
999.00,50.902
1000.00,50.854
1001.00,50.853
1002.00,50.852
1003.00,50.835
1004.00,50.822
1005.00,50.799
1006.00,50.816
1007.00,50.781
1008.00,50.780
1009.00,50.761
1010.00,50.737
1011.00,50.729
1012.00,50.689
1013.00,50.710
1014.00,50.666
1015.00,50.666
1016.00,50.647
1017.00,50.631
1018.00,50.617
1019.00,50.592
1020.00,50.578
1021.00,50.560
1022.00,50.562
1023.00,50.508
1024.00,50.515
1025.00,50.500
1026.00,50.471
1027.00,50.459
1028.00,50.449
1029.00,50.439
1030.00,50.409
1031.00,50.408
1032.00,50.381
1033.00,50.380
1034.00,50.334
1035.00,50.309
1036.00,50.289
1037.00,50.260
1038.00,50.264
1039.00,50.229
1040.00,50.210
1041.00,50.193
1042.00,50.176
1043.00,50.147
1044.00,50.182
1045.00,50.163
1046.00,50.151
1047.00,50.163
1048.00,50.164
1049.00,50.194
1050.00,50.192
1051.00,50.215
1052.00,50.233
1053.00,50.226
1054.00,50.227
1055.00,50.243
1056.00,50.254
1057.00,50.262
1058.00,50.258
1059.00,50.236
1060.00,50.262
1061.00,50.251
1062.00,50.226
1063.00,50.228
1064.00,50.205
1065.00,50.193
1066.00,50.193
1067.00,50.169
1068.00,50.188
1069.00,50.164
1070.00,50.122
1071.00,50.128
1072.00,50.170
1073.00,50.157
1074.00,50.115
1075.00,50.101
1076.00,50.093
1077.00,50.077
1078.00,50.063
1079.00,50.063
1080.00,50.058
1081.00,50.025
1082.00,50.037
1083.00,50.028
1084.00,50.007
1085.00,50.012
1086.00,50.004
1087.00,50.009
1088.00,49.984
1089.00,49.978
1090.00,49.984
1091.00,49.979
1092.00,49.968
1093.00,49.964
1094.00,49.941
1095.00,49.922
1096.00,49.917
1097.00,49.893
1098.00,49.898
1099.00,49.886
1100.00,49.861
1101.00,49.862
1102.00,49.855
1103.00,49.844
1104.00,49.846
1105.00,49.834
1106.00,49.816
1107.00,49.818
1108.00,49.808
1109.00,49.794
1110.00,49.795
1111.00,49.768
1112.00,49.766
1113.00,49.755
1114.00,49.746
1115.00,49.757
1116.00,49.741
1117.00,49.736
1118.00,49.736
1119.00,49.714
1120.00,49.717
1121.00,49.706
1122.00,49.695
1123.00,49.695
1124.00,49.689
1125.00,49.665
1126.00,49.670
1127.00,49.656
1128.00,49.632
1129.00,49.623
1130.00,49.601
1131.00,49.608
1132.00,49.600
1133.00,49.582
1134.00,49.604
1135.00,49.594
1136.00,49.579
1137.00,49.587
1138.00,49.584
1139.00,49.585
1140.00,49.579
1141.00,49.565
1142.00,49.564
1143.00,49.577
1144.00,49.526
1145.00,49.543
1146.00,49.552
1147.00,49.524
1148.00,49.530
1149.00,49.540
1150.00,49.528
1151.00,49.536
1152.00,49.519
1153.00,49.526
1154.00,49.505
1155.00,49.508
1156.00,49.505
1157.00,49.515
1158.00,49.496
1159.00,49.496
1160.00,49.492
1161.00,49.489
1162.00,49.492
1163.00,49.473
1164.00,49.486
1165.00,49.464
1166.00,49.463
1167.00,49.470
1168.00,49.479
1169.00,49.468
1170.00,49.474
1171.00,49.455
1172.00,49.459
1173.00,49.448
1174.00,49.446
1175.00,49.441
1176.00,49.457
1177.00,49.431
1178.00,49.440
1179.00,49.455
1180.00,49.414
1181.00,49.458
1182.00,49.438
1183.00,49.424
1184.00,49.412
1185.00,49.429
1186.00,49.424
1187.00,49.430
1188.00,49.414
1189.00,49.421
1190.00,49.415
1191.00,49.397
1192.00,49.422
1193.00,49.413
1194.00,49.410
1195.00,49.404
1196.00,49.409
1197.00,49.417
1198.00,49.402
1199.00,49.401
1200.00,49.406
1201.00,49.419
1202.00,49.395
1203.00,49.414
1204.00,49.397
1205.00,49.407
1206.00,49.405
1207.00,49.402
1208.00,49.389
1209.00,49.393
1210.00,49.379
1211.00,49.376
1212.00,49.383
1213.00,49.338
1214.00,49.385
1215.00,49.369
1216.00,49.359
1217.00,49.381
1218.00,49.368
1219.00,49.373
1220.00,49.371
1221.00,49.374
1222.00,49.359
1223.00,49.385
1224.00,49.371
1225.00,49.371
1226.00,49.369
1227.00,49.347
1228.00,49.381
1229.00,49.368
1230.00,49.415
1231.00,49.396
1232.00,49.426
1233.00,49.420
1234.00,49.424
1235.00,49.410
1236.00,49.416
1237.00,49.406
1238.00,49.406
1239.00,49.420
1240.00,49.411
1241.00,49.425
1242.00,49.429
1243.00,49.429
1244.00,49.414
1245.00,49.435
1246.00,49.425
1247.00,49.449
1248.00,49.448
1249.00,49.447
1250.00,49.472
1251.00,49.443
1252.00,49.460
1253.00,49.451
1254.00,49.468
1255.00,49.455
1256.00,49.443
1257.00,49.417
1258.00,49.472
1259.00,49.456
1260.00,49.469
1261.00,49.483
1262.00,49.455
1263.00,49.459
1264.00,49.481
1265.00,49.484
1266.00,49.482
1267.00,49.482
1268.00,49.496
1269.00,49.498
1270.00,49.502
1271.00,49.499
1272.00,49.506
1273.00,49.499
1274.00,49.511
1275.00,49.529
1276.00,49.525
1277.00,49.528
1278.00,49.532
1279.00,49.528
1280.00,49.545
1281.00,49.563
1282.00,49.560
1283.00,49.551
1284.00,49.554
1285.00,49.539
1286.00,49.561
1287.00,49.547
1288.00,49.565
1289.00,49.550
1290.00,49.555
1291.00,49.577
1292.00,49.578
1293.00,49.564
1294.00,49.586
1295.00,49.582
1296.00,49.582
1297.00,49.597
1298.00,49.611
1299.00,49.596
1300.00,49.615
1301.00,49.617
1302.00,49.633
1303.00,49.649
1304.00,49.610
1305.00,49.645
1306.00,49.621
1307.00,49.643
1308.00,49.639
1309.00,49.639
1310.00,49.655
1311.00,49.632
1312.00,49.621
1313.00,49.685
1314.00,49.669
1315.00,49.672
1316.00,49.672
1317.00,49.671
1318.00,49.662
1319.00,49.699
1320.00,49.719
1321.00,49.871
1322.00,49.889
1323.00,49.866
1324.00,49.869
1325.00,49.851
1326.00,49.870
1327.00,49.873
1328.00,49.855
1329.00,49.842
1330.00,49.872
1331.00,49.862
1332.00,49.832
1333.00,49.915
1334.00,49.881
1335.00,49.905
1336.00,49.931
1337.00,49.958
1338.00,50.028
1339.00,50.070
1340.00,50.120
1341.00,50.192
1342.00,50.252
1343.00,50.313
1344.00,50.348
1345.00,50.426
1346.00,50.452
1347.00,50.468
1348.00,50.478
1349.00,50.516
1350.00,50.532
1351.00,50.535
1352.00,50.539
1353.00,50.580
1354.00,50.568
1355.00,50.533
1356.00,50.581
1357.00,50.576
1358.00,50.584
1359.00,50.601
1360.00,50.642
1361.00,50.623
1362.00,50.558
1363.00,50.644
1364.00,50.590
1365.00,50.569
1366.00,50.656
1367.00,50.610
1368.00,50.552
1369.00,50.564
1370.00,50.549
1371.00,50.528
1372.00,50.549
1373.00,50.543
1374.00,50.577
1375.00,50.545
1376.00,50.543
1377.00,50.517
1378.00,50.563
1379.00,50.588
1380.00,50.568
1381.00,50.596
1382.00,50.503
1383.00,50.529
1384.00,50.490
1385.00,50.494
1386.00,50.592
1387.00,50.501
1388.00,50.504
1389.00,50.491
1390.00,50.704
1391.00,50.576
1392.00,50.499
1393.00,50.516
1394.00,50.539
1395.00,50.488
1396.00,50.471
1397.00,50.531
1398.00,50.542
1399.00,50.527
1400.00,50.464
1401.00,50.500
1402.00,50.540
1403.00,50.566
1404.00,50.526
1405.00,50.568
1406.00,50.550
1407.00,50.584
1408.00,50.602
1409.00,50.554
1410.00,50.591
1411.00,50.571
1412.00,50.633
1413.00,50.603
1414.00,50.568
1415.00,50.618
1416.00,50.657
1417.00,50.657
1418.00,50.655
1419.00,50.653
1420.00,50.675
1421.00,50.720
1422.00,50.718
1423.00,50.717
1424.00,50.725
1425.00,50.720
1426.00,50.745
1427.00,50.768
1428.00,50.762
1429.00,50.800
1430.00,50.797
1431.00,50.792
1432.00,50.817
1433.00,50.827
1434.00,50.840
1435.00,50.882
1436.00,50.899
1437.00,50.872
1438.00,50.904
1439.00,50.919
1440.00,50.936
1441.00,50.935
1442.00,50.953
1443.00,51.001
1444.00,50.999
1445.00,50.990
1446.00,50.996
1447.00,51.029
1448.00,51.062
1449.00,51.079
1450.00,51.073
1451.00,51.092
1452.00,51.099
1453.00,51.126
1454.00,51.133
1455.00,51.140
1456.00,51.165
1457.00,51.162
1458.00,51.194
1459.00,51.223
1460.00,51.235
1461.00,51.228
1462.00,51.255
1463.00,51.277
1464.00,51.279
1465.00,51.293
1466.00,51.282
1467.00,51.312
1468.00,51.344
1469.00,51.342
1470.00,51.348
1471.00,51.360
1472.00,51.372
1473.00,51.383
1474.00,51.412
1475.00,51.409
1476.00,51.437
1477.00,51.423
1478.00,51.444
1479.00,51.467
1480.00,51.460
1481.00,51.470
1482.00,51.507
1483.00,51.526
1484.00,51.535
1485.00,51.551
1486.00,51.550
1487.00,51.573
1488.00,51.566
1489.00,51.583
1490.00,51.604
1491.00,51.600
1492.00,51.632
1493.00,51.621
1494.00,51.630
1495.00,51.649
1496.00,51.659
1497.00,51.658
1498.00,51.643
1499.00,51.666
1500.00,51.697
1501.00, 
1502.00, 
1503.00, 
1504.00, 
1505.00, 
1506.00, 
1507.00, 
1508.00, 
1509.00, 
1510.00, 
1511.00, 
1512.00, 
1513.00, 
1514.00, 
1515.00, 
1516.00, 
1517.00, 
1518.00, 
1519.00, 
1520.00, 
1521.00, 
1522.00, 
1523.00, 
1524.00, 
1525.00, 
1526.00, 
1527.00, 
1528.00, 
1529.00, 
1530.00, 
1531.00, 
1532.00, 
1533.00, 
1534.00, 
1535.00, 
1536.00, 
1537.00, 
1538.00, 
1539.00, 
1540.00, 
1541.00, 
1542.00, 
1543.00, 
1544.00, 
1545.00, 
1546.00, 
1547.00, 
1548.00, 
1549.00, 
1550.00, 
1551.00, 
1552.00, 
1553.00, 
1554.00, 
1555.00, 
1556.00, 
1557.00, 
1558.00, 
1559.00, 
1560.00, 
1561.00, 
1562.00, 
1563.00, 
1564.00, 
1565.00, 
1566.00, 
1567.00, 
1568.00, 
1569.00, 
1570.00, 
1571.00, 
1572.00, 
1573.00, 
1574.00, 
1575.00, 
1576.00, 
1577.00, 
1578.00, 
1579.00, 
1580.00, 
1581.00, 
1582.00, 
1583.00, 
1584.00, 
1585.00, 
1586.00, 
1587.00, 
1588.00, 
1589.00, 
1590.00, 
1591.00, 
1592.00, 
1593.00, 
1594.00, 
1595.00, 
1596.00, 
1597.00, 
1598.00, 
1599.00, 
1600.00, 
1601.00, 
1602.00, 
1603.00, 
1604.00, 
1605.00, 
1606.00, 
1607.00, 
1608.00, 
1609.00, 
1610.00, 
1611.00, 
1612.00, 
1613.00, 
1614.00, 
1615.00, 
1616.00, 
1617.00, 
1618.00, 
1619.00, 
1620.00, 
1621.00, 
1622.00, 
1623.00, 
1624.00, 
1625.00, 
1626.00, 
1627.00, 
1628.00, 
1629.00, 
1630.00, 
1631.00, 
1632.00, 
1633.00, 
1634.00, 
1635.00, 
1636.00, 
1637.00, 
1638.00, 
1639.00, 
1640.00, 
1641.00, 
1642.00, 
1643.00, 
1644.00, 
1645.00, 
1646.00, 
1647.00, 
1648.00, 
1649.00, 
1650.00, 
1651.00, 
1652.00, 
1653.00, 
1654.00, 
1655.00, 
1656.00, 
1657.00, 
1658.00, 
1659.00, 
1660.00, 
1661.00, 
1662.00, 
1663.00, 
1664.00, 
1665.00, 
1666.00, 
1667.00, 
1668.00, 
1669.00, 
1670.00, 
1671.00, 
1672.00, 
1673.00, 
1674.00, 
1675.00, 
1676.00, 
1677.00, 
1678.00, 
1679.00, 
1680.00, 
1681.00, 
1682.00, 
1683.00, 
1684.00, 
1685.00, 
1686.00, 
1687.00, 
1688.00, 
1689.00, 
1690.00, 
1691.00, 
1692.00, 
1693.00, 
1694.00, 
1695.00, 
1696.00, 
1697.00, 
1698.00, 
1699.00, 
1700.00, 
1701.00, 
1702.00, 
1703.00, 
1704.00, 
1705.00, 
1706.00, 
1707.00, 
1708.00, 
1709.00, 
1710.00, 
1711.00, 
1712.00, 
1713.00, 
1714.00, 
1715.00, 
1716.00, 
1717.00, 
1718.00, 
1719.00, 
1720.00, 
1721.00, 
1722.00, 
1723.00, 
1724.00, 
1725.00, 
1726.00, 
1727.00, 
1728.00, 
1729.00, 
1730.00, 
1731.00, 
1732.00, 
1733.00, 
1734.00, 
1735.00, 
1736.00, 
1737.00, 
1738.00, 
1739.00, 
1740.00, 
1741.00, 
1742.00, 
1743.00, 
1744.00, 
1745.00, 
1746.00, 
1747.00, 
1748.00, 
1749.00, 
1750.00, 
1751.00, 
1752.00, 
1753.00, 
1754.00, 
1755.00, 
1756.00, 
1757.00, 
1758.00, 
1759.00, 
1760.00, 
1761.00, 
1762.00, 
1763.00, 
1764.00, 
1765.00, 
1766.00, 
1767.00, 
1768.00, 
1769.00, 
1770.00, 
1771.00, 
1772.00, 
1773.00, 
1774.00, 
1775.00, 
1776.00, 
1777.00, 
1778.00, 
1779.00, 
1780.00, 
1781.00, 
1782.00, 
1783.00, 
1784.00, 
1785.00, 
1786.00, 
1787.00, 
1788.00, 
1789.00, 
1790.00, 
1791.00, 
1792.00, 
1793.00, 
1794.00, 
1795.00, 
1796.00, 
1797.00, 
1798.00, 
1799.00, 
1800.00, 
1801.00, 
1802.00, 
1803.00, 
1804.00, 
1805.00, 
1806.00, 
1807.00, 
1808.00, 
1809.00, 
1810.00, 
1811.00, 
1812.00, 
1813.00, 
1814.00, 
1815.00, 
1816.00, 
1817.00, 
1818.00, 
1819.00, 
1820.00, 
1821.00, 
1822.00, 
1823.00, 
1824.00, 
1825.00, 
1826.00, 
1827.00, 
1828.00, 
1829.00, 
1830.00, 
1831.00, 
1832.00, 
1833.00, 
1834.00, 
1835.00, 
1836.00, 
1837.00, 
1838.00, 
1839.00, 
1840.00, 
1841.00, 
1842.00, 
1843.00, 
1844.00, 
1845.00, 
1846.00, 
1847.00, 
1848.00, 
1849.00, 
1850.00, 
1851.00, 
1852.00, 
1853.00, 
1854.00, 
1855.00, 
1856.00, 
1857.00, 
1858.00, 
1859.00, 
1860.00, 
1861.00, 
1862.00, 
1863.00, 
1864.00, 
1865.00, 
1866.00, 
1867.00, 
1868.00, 
1869.00, 
1870.00, 
1871.00, 
1872.00, 
1873.00, 
1874.00, 
1875.00, 
1876.00, 
1877.00, 
1878.00, 
1879.00, 
1880.00, 
1881.00, 
1882.00, 
1883.00, 
1884.00, 
1885.00, 
1886.00, 
1887.00, 
1888.00, 
1889.00, 
1890.00, 
1891.00, 
1892.00, 
1893.00, 
1894.00, 
1895.00, 
1896.00, 
1897.00, 
1898.00, 
1899.00, 
1900.00, 
1901.00, 
1902.00, 
1903.00, 
1904.00, 
1905.00, 
1906.00, 
1907.00, 
1908.00, 
1909.00, 
1910.00, 
1911.00, 
1912.00, 
1913.00, 
1914.00, 
1915.00, 
1916.00, 
1917.00, 
1918.00, 
1919.00, 
1920.00, 
1921.00, 
1922.00, 
1923.00, 
1924.00, 
1925.00, 
1926.00, 
1927.00, 
1928.00, 
1929.00, 
1930.00, 
1931.00, 
1932.00, 
1933.00, 
1934.00, 
1935.00, 
1936.00, 
1937.00, 
1938.00, 
1939.00, 
1940.00, 
1941.00, 
1942.00, 
1943.00, 
1944.00, 
1945.00, 
1946.00, 
1947.00, 
1948.00, 
1949.00, 
1950.00, 
1951.00, 
1952.00, 
1953.00, 
1954.00, 
1955.00, 
1956.00, 
1957.00, 
1958.00, 
1959.00, 
1960.00, 
1961.00, 
1962.00, 
1963.00, 
1964.00, 
1965.00, 
1966.00, 
1967.00, 
1968.00, 
1969.00, 
1970.00, 
1971.00, 
1972.00, 
1973.00, 
1974.00, 
1975.00, 
1976.00, 
1977.00, 
1978.00, 
1979.00, 
1980.00, 
1981.00, 
1982.00, 
1983.00, 
1984.00, 
1985.00, 
1986.00, 
1987.00, 
1988.00, 
1989.00, 
1990.00, 
1991.00, 
1992.00, 
1993.00, 
1994.00, 
1995.00, 
1996.00, 
1997.00, 
1998.00, 
1999.00, 
2000.00, 
2001.00, 
2002.00, 
2003.00, 
2004.00, 
2005.00, 
2006.00, 
2007.00, 
2008.00, 
2009.00, 
2010.00, 
2011.00, 
2012.00, 
2013.00, 
2014.00, 
2015.00, 
2016.00, 
2017.00, 
2018.00, 
2019.00, 
2020.00, 
2021.00, 
2022.00, 
2023.00, 
2024.00, 
2025.00, 
2026.00, 
2027.00, 
2028.00, 
2029.00, 
2030.00, 
2031.00, 
2032.00, 
2033.00, 
2034.00, 
2035.00, 
2036.00, 
2037.00, 
2038.00, 
2039.00, 
2040.00, 
2041.00, 
2042.00, 
2043.00, 
2044.00, 
2045.00, 
2046.00, 
2047.00, 
2048.00, 
2049.00, 
2050.00, 
2051.00, 
2052.00, 
2053.00, 
2054.00, 
2055.00, 
2056.00, 
2057.00, 
2058.00, 
2059.00, 
2060.00, 
2061.00, 
2062.00, 
2063.00, 
2064.00, 
2065.00, 
2066.00, 
2067.00, 
2068.00, 
2069.00, 
2070.00, 
2071.00, 
2072.00, 
2073.00, 
2074.00, 
2075.00, 
2076.00, 
2077.00, 
2078.00, 
2079.00, 
2080.00, 
2081.00, 
2082.00, 
2083.00, 
2084.00, 
2085.00, 
2086.00, 
2087.00, 
2088.00, 
2089.00, 
2090.00, 
2091.00, 
2092.00, 
2093.00, 
2094.00, 
2095.00, 
2096.00, 
2097.00, 
2098.00, 
2099.00, 
2100.00, 
2101.00, 
2102.00, 
2103.00, 
2104.00, 
2105.00, 
2106.00, 
2107.00, 
2108.00, 
2109.00, 
2110.00, 
2111.00, 
2112.00, 
2113.00, 
2114.00, 
2115.00, 
2116.00, 
2117.00, 
2118.00, 
2119.00, 
2120.00, 
2121.00, 
2122.00, 
2123.00, 
2124.00, 
2125.00, 
2126.00, 
2127.00, 
2128.00, 
2129.00, 
2130.00, 
2131.00, 
2132.00, 
2133.00, 
2134.00, 
2135.00, 
2136.00, 
2137.00, 
2138.00, 
2139.00, 
2140.00, 
2141.00, 
2142.00, 
2143.00, 
2144.00, 
2145.00, 
2146.00, 
2147.00, 
2148.00, 
2149.00, 
2150.00, 
2151.00, 
2152.00, 
2153.00, 
2154.00, 
2155.00, 
2156.00, 
2157.00, 
2158.00, 
2159.00, 
2160.00, 
2161.00, 
2162.00, 
2163.00, 
2164.00, 
2165.00, 
2166.00, 
2167.00, 
2168.00, 
2169.00, 
2170.00, 
2171.00, 
2172.00, 
2173.00, 
2174.00, 
2175.00, 
2176.00, 
2177.00, 
2178.00, 
2179.00, 
2180.00, 
2181.00, 
2182.00, 
2183.00, 
2184.00, 
2185.00, 
2186.00, 
2187.00, 
2188.00, 
2189.00, 
2190.00, 
2191.00, 
2192.00, 
2193.00, 
2194.00, 
2195.00, 
2196.00, 
2197.00, 
2198.00, 
2199.00, 
2200.00, 
2201.00, 
2202.00, 
2203.00, 
2204.00, 
2205.00, 
2206.00, 
2207.00, 
2208.00, 
2209.00, 
2210.00, 
2211.00, 
2212.00, 
2213.00, 
2214.00, 
2215.00, 
2216.00, 
2217.00, 
2218.00, 
2219.00, 
2220.00, 
2221.00, 
2222.00, 
2223.00, 
2224.00, 
2225.00, 
2226.00, 
2227.00, 
2228.00, 
2229.00, 
2230.00, 
2231.00, 
2232.00, 
2233.00, 
2234.00, 
2235.00, 
2236.00, 
2237.00, 
2238.00, 
2239.00, 
2240.00, 
2241.00, 
2242.00, 
2243.00, 
2244.00, 
2245.00, 
2246.00, 
2247.00, 
2248.00, 
2249.00, 
2250.00, 
2251.00, 
2252.00, 
2253.00, 
2254.00, 
2255.00, 
2256.00, 
2257.00, 
2258.00, 
2259.00, 
2260.00, 
2261.00, 
2262.00, 
2263.00, 
2264.00, 
2265.00, 
2266.00, 
2267.00, 
2268.00, 
2269.00, 
2270.00, 
2271.00, 
2272.00, 
2273.00, 
2274.00, 
2275.00, 
2276.00, 
2277.00, 
2278.00, 
2279.00, 
2280.00, 
2281.00, 
2282.00, 
2283.00, 
2284.00, 
2285.00, 
2286.00, 
2287.00, 
2288.00, 
2289.00, 
2290.00, 
2291.00, 
2292.00, 
2293.00, 
2294.00, 
2295.00, 
2296.00, 
2297.00, 
2298.00, 
2299.00, 
2300.00, 
2301.00, 
2302.00, 
2303.00, 
2304.00, 
2305.00, 
2306.00, 
2307.00, 
2308.00, 
2309.00, 
2310.00, 
2311.00, 
2312.00, 
2313.00, 
2314.00, 
2315.00, 
2316.00, 
2317.00, 
2318.00, 
2319.00, 
2320.00, 
2321.00, 
2322.00, 
2323.00, 
2324.00, 
2325.00, 
2326.00, 
2327.00, 
2328.00, 
2329.00, 
2330.00, 
2331.00, 
2332.00, 
2333.00, 
2334.00, 
2335.00, 
2336.00, 
2337.00, 
2338.00, 
2339.00, 
2340.00, 
2341.00, 
2342.00, 
2343.00, 
2344.00, 
2345.00, 
2346.00, 
2347.00, 
2348.00, 
2349.00, 
2350.00, 
2351.00, 
2352.00, 
2353.00, 
2354.00, 
2355.00, 
2356.00, 
2357.00, 
2358.00, 
2359.00, 
2360.00, 
2361.00, 
2362.00, 
2363.00, 
2364.00, 
2365.00, 
2366.00, 
2367.00, 
2368.00, 
2369.00, 
2370.00, 
2371.00, 
2372.00, 
2373.00, 
2374.00, 
2375.00, 
2376.00, 
2377.00, 
2378.00, 
2379.00, 
2380.00, 
2381.00, 
2382.00, 
2383.00, 
2384.00, 
2385.00, 
2386.00, 
2387.00, 
2388.00, 
2389.00, 
2390.00, 
2391.00, 
2392.00, 
2393.00, 
2394.00, 
2395.00, 
2396.00, 
2397.00, 
2398.00, 
2399.00, 
2400.00, 
2401.00, 
2402.00, 
2403.00, 
2404.00, 
2405.00, 
2406.00, 
2407.00, 
2408.00, 
2409.00, 
2410.00, 
2411.00, 
2412.00, 
2413.00, 
2414.00, 
2415.00, 
2416.00, 
2417.00, 
2418.00, 
2419.00, 
2420.00, 
2421.00, 
2422.00, 
2423.00, 
2424.00, 
2425.00, 
2426.00, 
2427.00, 
2428.00, 
2429.00, 
2430.00, 
2431.00, 
2432.00, 
2433.00, 
2434.00, 
2435.00, 
2436.00, 
2437.00, 
2438.00, 
2439.00, 
2440.00, 
2441.00, 
2442.00, 
2443.00, 
2444.00, 
2445.00, 
2446.00, 
2447.00, 
2448.00, 
2449.00, 
2450.00, 
2451.00, 
2452.00, 
2453.00, 
2454.00, 
2455.00, 
2456.00, 
2457.00, 
2458.00, 
2459.00, 
2460.00, 
2461.00, 
2462.00, 
2463.00, 
2464.00, 
2465.00, 
2466.00, 
2467.00, 
2468.00, 
2469.00, 
2470.00, 
2471.00, 
2472.00, 
2473.00, 
2474.00, 
2475.00, 
2476.00, 
2477.00, 
2478.00, 
2479.00, 
2480.00, 
2481.00, 
2482.00, 
2483.00, 
2484.00, 
2485.00, 
2486.00, 
2487.00, 
2488.00, 
2489.00, 
2490.00, 
2491.00, 
2492.00, 
2493.00, 
2494.00, 
2495.00, 
2496.00, 
2497.00, 
2498.00, 
2499.00, 
2500.00, 
2501.00, 
2502.00, 
2503.00, 
2504.00, 
2505.00, 
2506.00, 
2507.00, 
2508.00, 
2509.00, 
2510.00, 
2511.00, 
2512.00, 
2513.00, 
2514.00, 
2515.00, 
2516.00, 
2517.00, 
2518.00, 
2519.00, 
2520.00, 
2521.00, 
2522.00, 
2523.00, 
2524.00, 
2525.00, 
2526.00, 
2527.00, 
2528.00, 
2529.00, 
2530.00, 
2531.00, 
2532.00, 
2533.00, 
2534.00, 
2535.00, 
2536.00, 
2537.00, 
2538.00, 
2539.00, 
2540.00, 
2541.00, 
2542.00, 
2543.00, 
2544.00, 
2545.00, 
2546.00, 
2547.00, 
2548.00, 
2549.00, 
2550.00, 
2551.00, 
2552.00, 
2553.00, 
2554.00, 
2555.00, 
2556.00, 
2557.00, 
2558.00, 
2559.00, 
2560.00, 
2561.00, 
2562.00, 
2563.00, 
2564.00, 
2565.00, 
2566.00, 
2567.00, 
2568.00, 
2569.00, 
2570.00, 
2571.00, 
2572.00, 
2573.00, 
2574.00, 
2575.00, 
2576.00, 
2577.00, 
2578.00, 
2579.00, 
2580.00, 
2581.00, 
2582.00, 
2583.00, 
2584.00, 
2585.00, 
2586.00, 
2587.00, 
2588.00, 
2589.00, 
2590.00, 
2591.00, 
2592.00, 
2593.00, 
2594.00, 
2595.00, 
2596.00, 
2597.00, 
2598.00, 
2599.00, 
2600.00, 
