"2cP4 - RawData"
"Wavelength nm.","T%"
200.00,-0.000
201.00,0.003
202.00,0.002
203.00,0.003
204.00,-0.000
205.00,0.002
206.00,-0.000
207.00,0.003
208.00,0.001
209.00,0.003
210.00,0.002
211.00,0.003
212.00,0.001
213.00,0.002
214.00,-0.001
215.00,0.001
216.00,0.001
217.00,-0.002
218.00,0.001
219.00,0.003
220.00,-0.001
221.00,-0.001
222.00,0.000
223.00,-0.000
224.00,0.001
225.00,-0.000
226.00,0.001
227.00,0.002
228.00,-0.000
229.00,-0.001
230.00,-0.000
231.00,0.002
232.00,0.003
233.00,-0.002
234.00,-0.001
235.00,-0.000
236.00,-0.000
237.00,-0.001
238.00,0.000
239.00,0.000
240.00,-0.001
241.00,-0.001
242.00,0.000
243.00,0.002
244.00,-0.000
245.00,0.002
246.00,0.000
247.00,0.001
248.00,-0.001
249.00,-0.001
250.00,0.000
251.00,0.001
252.00,0.001
253.00,-0.000
254.00,-0.001
255.00,-0.001
256.00,0.002
257.00,0.001
258.00,0.001
259.00,0.001
260.00,0.000
261.00,-0.001
262.00,0.000
263.00,0.002
264.00,-0.002
265.00,-0.000
266.00,0.002
267.00,0.000
268.00,0.001
269.00,-0.000
270.00,-0.001
271.00,-0.001
272.00,-0.001
273.00,0.000
274.00,0.001
275.00,0.002
276.00,-0.000
277.00,0.001
278.00,0.000
279.00,0.001
280.00,-0.001
281.00,-0.001
282.00,0.002
283.00,-0.000
284.00,0.000
285.00,-0.000
286.00,0.000
287.00,-0.001
288.00,-0.000
289.00,0.002
290.00,-0.001
291.00,-0.002
292.00,0.000
293.00,-0.000
294.00,-0.001
295.00,0.001
296.00,0.002
297.00,-0.000
298.00,-0.001
299.00,-0.001
300.00,0.004
301.00,0.002
302.00,0.004
303.00,0.008
304.00,0.011
305.00,0.014
306.00,0.021
307.00,0.032
308.00,0.054
309.00,0.084
310.00,0.115
311.00,0.159
312.00,0.217
313.00,0.286
314.00,0.376
315.00,0.498
316.00,0.628
317.00,0.801
318.00,0.989
319.00,1.220
320.00,1.469
321.00,1.747
322.00,2.081
323.00,2.433
324.00,2.833
325.00,3.225
326.00,3.636
327.00,4.104
328.00,4.585
329.00,5.050
330.00,5.584
331.00,6.096
332.00,6.605
333.00,7.147
334.00,7.587
335.00,8.239
336.00,8.777
337.00,9.314
338.00,9.829
339.00,10.304
340.00,10.804
341.00,11.273
342.00,11.718
343.00,12.201
344.00,12.667
345.00,13.045
346.00,13.399
347.00,13.734
348.00,14.088
349.00,14.401
350.00,14.713
351.00,14.942
352.00,15.186
353.00,15.461
354.00,15.695
355.00,15.908
356.00,16.114
357.00,16.317
358.00,16.464
359.00,16.603
360.00,16.745
361.00,16.816
362.00,16.932
363.00,17.100
364.00,17.199
365.00,17.302
366.00,17.273
367.00,17.354
368.00,17.409
369.00,17.421
370.00,17.447
371.00,17.491
372.00,17.476
373.00,17.459
374.00,17.447
375.00,17.429
376.00,17.388
377.00,17.326
378.00,17.278
379.00,17.230
380.00,17.212
381.00,17.175
382.00,17.164
383.00,17.143
384.00,17.162
385.00,17.206
386.00,17.194
387.00,17.215
388.00,17.245
389.00,17.242
390.00,17.258
391.00,17.275
392.00,17.280
393.00,17.268
394.00,17.263
395.00,17.273
396.00,17.252
397.00,17.259
398.00,17.267
399.00,17.250
400.00,17.253
401.00,17.274
402.00,17.249
403.00,17.225
404.00,17.211
405.00,17.207
406.00,17.211
407.00,17.192
408.00,17.203
409.00,17.151
410.00,17.128
411.00,17.090
412.00,17.112
413.00,17.099
414.00,17.086
415.00,17.112
416.00,17.125
417.00,17.162
418.00,17.171
419.00,17.204
420.00,17.267
421.00,17.306
422.00,17.306
423.00,17.339
424.00,17.406
425.00,17.417
426.00,17.451
427.00,17.498
428.00,17.541
429.00,17.574
430.00,17.653
431.00,17.665
432.00,17.728
433.00,17.795
434.00,17.855
435.00,17.926
436.00,17.989
437.00,18.034
438.00,18.113
439.00,18.179
440.00,18.251
441.00,18.345
442.00,18.418
443.00,18.506
444.00,18.595
445.00,18.656
446.00,18.762
447.00,18.879
448.00,18.953
449.00,19.087
450.00,19.170
451.00,19.259
452.00,19.364
453.00,19.505
454.00,19.588
455.00,19.701
456.00,19.837
457.00,19.925
458.00,20.048
459.00,20.175
460.00,20.291
461.00,20.428
462.00,20.567
463.00,20.655
464.00,20.818
465.00,20.933
466.00,21.054
467.00,21.202
468.00,21.315
469.00,21.458
470.00,21.561
471.00,21.662
472.00,21.806
473.00,21.885
474.00,22.052
475.00,22.162
476.00,22.268
477.00,22.392
478.00,22.487
479.00,22.706
480.00,22.844
481.00,22.979
482.00,23.147
483.00,23.283
484.00,23.427
485.00,23.596
486.00,23.772
487.00,23.933
488.00,24.063
489.00,24.270
490.00,24.415
491.00,24.537
492.00,24.772
493.00,24.900
494.00,24.917
495.00,25.070
496.00,25.216
497.00,25.341
498.00,25.506
499.00,25.662
500.00,25.772
501.00,25.924
502.00,26.072
503.00,26.194
504.00,26.291
505.00,26.415
506.00,26.600
507.00,26.661
508.00,26.822
509.00,26.960
510.00,27.090
511.00,27.216
512.00,27.392
513.00,27.492
514.00,27.620
515.00,27.777
516.00,27.901
517.00,28.010
518.00,28.132
519.00,28.248
520.00,28.344
521.00,28.384
522.00,28.487
523.00,28.563
524.00,28.676
525.00,28.791
526.00,28.919
527.00,28.974
528.00,29.068
529.00,29.240
530.00,29.339
531.00,29.502
532.00,29.580
533.00,29.695
534.00,29.818
535.00,29.861
536.00,30.011
537.00,30.027
538.00,30.141
539.00,30.195
540.00,30.253
541.00,30.352
542.00,30.393
543.00,30.470
544.00,30.597
545.00,30.646
546.00,30.737
547.00,30.809
548.00,30.904
549.00,30.950
550.00,31.108
551.00,31.157
552.00,31.321
553.00,31.416
554.00,31.372
555.00,31.468
556.00,31.507
557.00,31.548
558.00,31.615
559.00,31.653
560.00,31.766
561.00,31.815
562.00,31.904
563.00,31.955
564.00,32.010
565.00,32.043
566.00,32.076
567.00,32.127
568.00,32.143
569.00,32.226
570.00,32.190
571.00,32.271
572.00,32.351
573.00,32.345
574.00,32.417
575.00,32.489
576.00,32.502
577.00,32.564
578.00,32.630
579.00,32.641
580.00,32.739
581.00,32.842
582.00,32.929
583.00,32.997
584.00,33.094
585.00,33.144
586.00,33.200
587.00,33.256
588.00,33.314
589.00,33.342
590.00,33.382
591.00,33.451
592.00,33.412
593.00,33.460
594.00,33.559
595.00,33.600
596.00,33.713
597.00,33.758
598.00,33.866
599.00,33.901
600.00,33.940
601.00,33.994
602.00,34.017
603.00,34.068
604.00,34.127
605.00,34.199
606.00,34.280
607.00,34.289
608.00,34.412
609.00,34.450
610.00,34.428
611.00,34.450
612.00,34.518
613.00,34.575
614.00,34.633
615.00,34.724
616.00,34.772
617.00,34.884
618.00,34.899
619.00,34.938
620.00,35.042
621.00,35.126
622.00,35.174
623.00,35.249
624.00,35.361
625.00,35.417
626.00,35.464
627.00,35.529
628.00,35.630
629.00,35.675
630.00,35.739
631.00,35.802
632.00,35.851
633.00,36.010
634.00,36.065
635.00,36.198
636.00,36.273
637.00,36.413
638.00,36.463
639.00,36.590
640.00,36.563
641.00,36.585
642.00,36.773
643.00,36.802
644.00,36.906
645.00,37.075
646.00,37.122
647.00,37.204
648.00,37.268
649.00,37.307
650.00,37.448
651.00,37.661
652.00,37.742
653.00,37.869
654.00,38.016
655.00,38.048
656.00,38.224
657.00,38.250
658.00,38.414
659.00,38.552
660.00,38.646
661.00,38.692
662.00,38.828
663.00,38.912
664.00,39.148
665.00,39.242
666.00,39.239
667.00,39.413
668.00,39.542
669.00,39.830
670.00,39.842
671.00,39.888
672.00,40.018
673.00,40.070
674.00,40.217
675.00,40.328
676.00,40.458
677.00,40.666
678.00,40.592
679.00,40.722
680.00,40.840
681.00,41.015
682.00,41.177
683.00,41.250
684.00,41.578
685.00,41.619
686.00,41.567
687.00,41.598
688.00,41.810
689.00,41.912
690.00,42.136
691.00,42.238
692.00,42.255
693.00,42.369
694.00,42.446
695.00,42.580
696.00,42.660
697.00,42.730
698.00,42.964
699.00,43.291
700.00,43.319
701.00,43.306
702.00,43.446
703.00,43.610
704.00,43.764
705.00,43.757
706.00,43.880
707.00,44.027
708.00,43.986
709.00,44.246
710.00,44.437
711.00,44.575
712.00,44.470
713.00,44.579
714.00,44.737
715.00,44.707
716.00,44.860
717.00,44.895
718.00,44.909
719.00,45.258
720.00,45.248
721.00,49.390
722.00,49.396
723.00,49.503
724.00,49.583
725.00,49.570
726.00,49.638
727.00,49.617
728.00,49.784
729.00,49.751
730.00,49.852
731.00,49.886
732.00,49.945
733.00,50.016
734.00,50.025
735.00,50.129
736.00,50.168
737.00,50.287
738.00,50.364
739.00,50.410
740.00,50.450
741.00,50.427
742.00,50.549
743.00,50.511
744.00,50.576
745.00,50.634
746.00,50.637
747.00,50.573
748.00,50.588
749.00,50.651
750.00,50.745
751.00,50.730
752.00,50.792
753.00,50.876
754.00,50.919
755.00,50.919
756.00,50.923
757.00,51.032
758.00,50.970
759.00,51.042
760.00,51.056
761.00,51.112
762.00,51.104
763.00,51.205
764.00,51.205
765.00,51.228
766.00,51.253
767.00,51.325
768.00,51.370
769.00,51.279
770.00,51.429
771.00,51.389
772.00,51.458
773.00,51.435
774.00,51.484
775.00,51.489
776.00,51.485
777.00,51.525
778.00,51.445
779.00,51.541
780.00,51.542
781.00,51.603
782.00,51.580
783.00,51.591
784.00,51.607
785.00,51.611
786.00,51.666
787.00,51.627
788.00,51.692
789.00,51.617
790.00,51.583
791.00,51.779
792.00,51.615
793.00,51.624
794.00,51.616
795.00,51.670
796.00,51.751
797.00,51.649
798.00,51.701
799.00,51.593
800.00,51.661
801.00,51.621
802.00,51.643
803.00,51.667
804.00,51.580
805.00,51.575
806.00,51.627
807.00,51.615
808.00,51.635
809.00,51.591
810.00,51.563
811.00,51.606
812.00,51.605
813.00,51.556
814.00,51.669
815.00,51.587
816.00,51.557
817.00,51.610
818.00,51.474
819.00,51.560
820.00,51.513
821.00,51.509
822.00,51.506
823.00,51.494
824.00,51.541
825.00,51.400
826.00,51.505
827.00,51.555
828.00,51.480
829.00,51.394
830.00,51.459
831.00,53.676
832.00,53.631
833.00,53.595
834.00,53.649
835.00,53.589
836.00,53.600
837.00,53.575
838.00,53.545
839.00,53.555
840.00,53.513
841.00,53.558
842.00,53.490
843.00,53.512
844.00,53.487
845.00,53.466
846.00,53.508
847.00,53.482
848.00,53.466
849.00,53.342
850.00,53.373
851.00,53.377
852.00,53.370
853.00,53.276
854.00,53.287
855.00,53.245
856.00,53.244
857.00,53.223
858.00,53.160
859.00,53.164
860.00,53.137
861.00,53.247
862.00,53.101
863.00,53.128
864.00,53.103
865.00,53.110
866.00,53.115
867.00,53.085
868.00,53.138
869.00,53.055
870.00,53.106
871.00,53.100
872.00,53.074
873.00,53.054
874.00,53.068
875.00,53.040
876.00,53.039
877.00,53.022
878.00,53.022
879.00,52.991
880.00,52.961
881.00,52.947
882.00,52.986
883.00,52.961
884.00,52.908
885.00,52.910
886.00,52.898
887.00,52.866
888.00,52.844
889.00,52.850
890.00,52.832
891.00,52.789
892.00,52.762
893.00,52.746
894.00,52.744
895.00,52.733
896.00,52.694
897.00,52.672
898.00,52.674
899.00,52.670
900.00,52.666
901.00,52.642
902.00,52.641
903.00,52.602
904.00,52.604
905.00,52.617
906.00,52.587
907.00,52.564
908.00,52.506
909.00,52.519
910.00,52.480
911.00,52.513
912.00,52.506
913.00,52.453
914.00,52.464
915.00,52.446
916.00,52.414
917.00,52.412
918.00,52.382
919.00,52.331
920.00,52.304
921.00,52.302
922.00,52.312
923.00,52.260
924.00,52.215
925.00,52.233
926.00,52.234
927.00,52.185
928.00,52.190
929.00,52.194
930.00,52.138
931.00,52.136
932.00,52.089
933.00,52.127
934.00,52.122
935.00,52.044
936.00,52.049
937.00,52.053
938.00,52.033
939.00,52.025
940.00,51.992
941.00,51.981
942.00,51.953
943.00,51.928
944.00,51.937
945.00,51.910
946.00,51.892
947.00,51.854
948.00,51.852
949.00,51.822
950.00,51.810
951.00,51.791
952.00,51.746
953.00,51.726
954.00,51.699
955.00,51.676
956.00,51.675
957.00,51.633
958.00,51.655
959.00,51.613
960.00,51.596
961.00,51.575
962.00,51.598
963.00,51.525
964.00,51.526
965.00,51.519
966.00,51.501
967.00,51.503
968.00,51.463
969.00,51.508
970.00,51.477
971.00,51.472
972.00,51.459
973.00,51.493
974.00,51.516
975.00,51.475
976.00,51.511
977.00,51.485
978.00,51.516
979.00,51.469
980.00,51.494
981.00,51.506
982.00,51.428
983.00,51.481
984.00,51.449
985.00,51.457
986.00,51.412
987.00,51.434
988.00,51.409
989.00,51.401
990.00,51.405
991.00,51.382
992.00,51.398
993.00,51.381
994.00,51.360
995.00,51.358
996.00,51.343
997.00,51.333
998.00,51.314
999.00,51.328
1000.00,51.276
1001.00,51.278
1002.00,51.271
1003.00,51.265
1004.00,51.246
1005.00,51.215
1006.00,51.238
1007.00,51.178
1008.00,51.186
1009.00,51.179
1010.00,51.176
1011.00,51.147
1012.00,51.101
1013.00,51.133
1014.00,51.092
1015.00,51.094
1016.00,51.060
1017.00,51.056
1018.00,51.047
1019.00,51.034
1020.00,51.035
1021.00,51.000
1022.00,51.006
1023.00,50.937
1024.00,50.953
1025.00,50.941
1026.00,50.918
1027.00,50.902
1028.00,50.898
1029.00,50.885
1030.00,50.841
1031.00,50.848
1032.00,50.824
1033.00,50.835
1034.00,50.787
1035.00,50.771
1036.00,50.766
1037.00,50.731
1038.00,50.731
1039.00,50.678
1040.00,50.670
1041.00,50.653
1042.00,50.638
1043.00,50.605
1044.00,50.640
1045.00,50.615
1046.00,50.604
1047.00,50.624
1048.00,50.622
1049.00,50.658
1050.00,50.664
1051.00,50.681
1052.00,50.679
1053.00,50.681
1054.00,50.710
1055.00,50.704
1056.00,50.722
1057.00,50.722
1058.00,50.715
1059.00,50.692
1060.00,50.708
1061.00,50.690
1062.00,50.680
1063.00,50.695
1064.00,50.681
1065.00,50.663
1066.00,50.655
1067.00,50.641
1068.00,50.684
1069.00,50.653
1070.00,50.602
1071.00,50.612
1072.00,50.621
1073.00,50.583
1074.00,50.593
1075.00,50.579
1076.00,50.569
1077.00,50.555
1078.00,50.541
1079.00,50.549
1080.00,50.550
1081.00,50.516
1082.00,50.535
1083.00,50.527
1084.00,50.503
1085.00,50.510
1086.00,50.484
1087.00,50.487
1088.00,50.468
1089.00,50.455
1090.00,50.454
1091.00,50.444
1092.00,50.429
1093.00,50.423
1094.00,50.404
1095.00,50.393
1096.00,50.377
1097.00,50.375
1098.00,50.375
1099.00,50.374
1100.00,50.344
1101.00,50.342
1102.00,50.338
1103.00,50.322
1104.00,50.321
1105.00,50.303
1106.00,50.282
1107.00,50.284
1108.00,50.270
1109.00,50.268
1110.00,50.276
1111.00,50.257
1112.00,50.250
1113.00,50.249
1114.00,50.227
1115.00,50.243
1116.00,50.214
1117.00,50.192
1118.00,50.185
1119.00,50.175
1120.00,50.181
1121.00,50.171
1122.00,50.150
1123.00,50.154
1124.00,50.149
1125.00,50.134
1126.00,50.139
1127.00,50.141
1128.00,50.121
1129.00,50.128
1130.00,50.117
1131.00,50.114
1132.00,50.096
1133.00,50.078
1134.00,50.093
1135.00,50.080
1136.00,50.060
1137.00,50.070
1138.00,50.068
1139.00,50.066
1140.00,50.056
1141.00,50.048
1142.00,50.041
1143.00,50.060
1144.00,50.019
1145.00,50.026
1146.00,50.029
1147.00,50.005
1148.00,50.006
1149.00,50.016
1150.00,49.998
1151.00,49.999
1152.00,49.998
1153.00,50.009
1154.00,49.983
1155.00,49.984
1156.00,49.972
1157.00,49.986
1158.00,49.960
1159.00,49.968
1160.00,49.959
1161.00,49.959
1162.00,49.964
1163.00,49.949
1164.00,49.958
1165.00,49.948
1166.00,49.945
1167.00,49.955
1168.00,49.977
1169.00,49.957
1170.00,49.962
1171.00,49.933
1172.00,49.939
1173.00,49.933
1174.00,49.941
1175.00,49.929
1176.00,49.935
1177.00,49.907
1178.00,49.919
1179.00,49.941
1180.00,49.904
1181.00,49.946
1182.00,49.929
1183.00,49.927
1184.00,49.920
1185.00,49.926
1186.00,49.911
1187.00,49.917
1188.00,49.896
1189.00,49.892
1190.00,49.907
1191.00,49.890
1192.00,49.923
1193.00,49.901
1194.00,49.896
1195.00,49.869
1196.00,49.897
1197.00,49.893
1198.00,49.876
1199.00,49.881
1200.00,49.894
1201.00,49.905
1202.00,49.860
1203.00,49.881
1204.00,49.868
1205.00,49.883
1206.00,49.868
1207.00,49.867
1208.00,49.858
1209.00,49.852
1210.00,49.848
1211.00,49.858
1212.00,49.873
1213.00,49.818
1214.00,49.882
1215.00,49.872
1216.00,49.850
1217.00,49.863
1218.00,49.846
1219.00,49.859
1220.00,49.853
1221.00,49.867
1222.00,49.855
1223.00,49.882
1224.00,49.849
1225.00,49.852
1226.00,49.864
1227.00,49.834
1228.00,49.867
1229.00,49.845
1230.00,49.884
1231.00,49.876
1232.00,49.914
1233.00,49.904
1234.00,49.904
1235.00,49.891
1236.00,49.906
1237.00,49.903
1238.00,49.889
1239.00,49.894
1240.00,49.884
1241.00,49.905
1242.00,49.911
1243.00,49.920
1244.00,49.907
1245.00,49.928
1246.00,49.916
1247.00,49.920
1248.00,49.920
1249.00,49.905
1250.00,49.912
1251.00,49.904
1252.00,49.931
1253.00,49.936
1254.00,49.947
1255.00,49.929
1256.00,49.937
1257.00,49.915
1258.00,49.949
1259.00,49.948
1260.00,49.958
1261.00,49.973
1262.00,49.949
1263.00,49.953
1264.00,49.966
1265.00,49.961
1266.00,49.958
1267.00,49.971
1268.00,49.976
1269.00,49.983
1270.00,49.986
1271.00,49.984
1272.00,49.999
1273.00,50.002
1274.00,49.997
1275.00,50.015
1276.00,49.997
1277.00,50.012
1278.00,50.023
1279.00,50.014
1280.00,50.020
1281.00,50.037
1282.00,50.036
1283.00,50.021
1284.00,50.026
1285.00,50.022
1286.00,50.032
1287.00,50.030
1288.00,50.035
1289.00,50.053
1290.00,50.045
1291.00,50.068
1292.00,50.066
1293.00,50.056
1294.00,50.081
1295.00,50.070
1296.00,50.086
1297.00,50.085
1298.00,50.108
1299.00,50.091
1300.00,50.116
1301.00,50.092
1302.00,50.115
1303.00,50.121
1304.00,50.092
1305.00,50.130
1306.00,50.116
1307.00,50.139
1308.00,50.131
1309.00,50.129
1310.00,50.132
1311.00,50.139
1312.00,50.108
1313.00,50.138
1314.00,50.153
1315.00,50.157
1316.00,50.172
1317.00,50.181
1318.00,50.156
1319.00,50.194
1320.00,50.203
1321.00,50.357
1322.00,50.363
1323.00,50.346
1324.00,50.342
1325.00,50.340
1326.00,50.351
1327.00,50.351
1328.00,50.348
1329.00,50.325
1330.00,50.368
1331.00,50.358
1332.00,50.318
1333.00,50.414
1334.00,50.368
1335.00,50.390
1336.00,50.416
1337.00,50.439
1338.00,50.504
1339.00,50.539
1340.00,50.579
1341.00,50.657
1342.00,50.724
1343.00,50.780
1344.00,50.824
1345.00,50.880
1346.00,50.927
1347.00,50.949
1348.00,50.967
1349.00,50.992
1350.00,51.009
1351.00,51.004
1352.00,51.031
1353.00,51.038
1354.00,51.023
1355.00,50.988
1356.00,51.028
1357.00,51.034
1358.00,51.063
1359.00,51.111
1360.00,51.350
1361.00,51.147
1362.00,51.010
1363.00,51.109
1364.00,51.082
1365.00,51.028
1366.00,51.122
1367.00,51.076
1368.00,51.010
1369.00,51.026
1370.00,51.018
1371.00,51.008
1372.00,51.020
1373.00,51.018
1374.00,51.044
1375.00,51.001
1376.00,51.014
1377.00,50.976
1378.00,51.003
1379.00,51.038
1380.00,51.054
1381.00,51.070
1382.00,50.993
1383.00,51.000
1384.00,50.959
1385.00,50.973
1386.00,51.026
1387.00,50.997
1388.00,50.959
1389.00,50.977
1390.00,51.020
1391.00,50.992
1392.00,50.958
1393.00,50.936
1394.00,51.005
1395.00,50.921
1396.00,50.949
1397.00,50.916
1398.00,50.991
1399.00,51.038
1400.00,50.981
1401.00,50.976
1402.00,51.007
1403.00,51.067
1404.00,51.002
1405.00,51.052
1406.00,51.031
1407.00,51.048
1408.00,51.079
1409.00,51.038
1410.00,51.088
1411.00,51.008
1412.00,51.120
1413.00,51.104
1414.00,51.071
1415.00,51.102
1416.00,51.152
1417.00,51.149
1418.00,51.138
1419.00,51.141
1420.00,51.152
1421.00,51.206
1422.00,51.187
1423.00,51.196
1424.00,51.213
1425.00,51.209
1426.00,51.225
1427.00,51.239
1428.00,51.235
1429.00,51.263
1430.00,51.270
1431.00,51.274
1432.00,51.288
1433.00,51.316
1434.00,51.314
1435.00,51.368
1436.00,51.358
1437.00,51.367
1438.00,51.393
1439.00,51.408
1440.00,51.427
1441.00,51.422
1442.00,51.433
1443.00,51.472
1444.00,51.490
1445.00,51.474
1446.00,51.481
1447.00,51.508
1448.00,51.541
1449.00,51.559
1450.00,51.541
1451.00,51.567
1452.00,51.576
1453.00,51.596
1454.00,51.605
1455.00,51.631
1456.00,51.658
1457.00,51.655
1458.00,51.665
1459.00,51.693
1460.00,51.710
1461.00,51.692
1462.00,51.736
1463.00,51.749
1464.00,51.746
1465.00,51.774
1466.00,51.767
1467.00,51.796
1468.00,51.833
1469.00,51.824
1470.00,51.837
1471.00,51.856
1472.00,51.858
1473.00,51.882
1474.00,51.912
1475.00,51.906
1476.00,51.931
1477.00,51.912
1478.00,51.927
1479.00,51.946
1480.00,51.943
1481.00,51.961
1482.00,51.990
1483.00,51.995
1484.00,52.013
1485.00,52.029
1486.00,52.038
1487.00,52.069
1488.00,52.060
1489.00,52.072
1490.00,52.086
1491.00,52.082
1492.00,52.113
1493.00,52.100
1494.00,52.115
1495.00,52.115
1496.00,52.131
1497.00,52.130
1498.00,52.133
1499.00,52.152
1500.00,52.169
1501.00, 
1502.00, 
1503.00, 
1504.00, 
1505.00, 
1506.00, 
1507.00, 
1508.00, 
1509.00, 
1510.00, 
1511.00, 
1512.00, 
1513.00, 
1514.00, 
1515.00, 
1516.00, 
1517.00, 
1518.00, 
1519.00, 
1520.00, 
1521.00, 
1522.00, 
1523.00, 
1524.00, 
1525.00, 
1526.00, 
1527.00, 
1528.00, 
1529.00, 
1530.00, 
1531.00, 
1532.00, 
1533.00, 
1534.00, 
1535.00, 
1536.00, 
1537.00, 
1538.00, 
1539.00, 
1540.00, 
1541.00, 
1542.00, 
1543.00, 
1544.00, 
1545.00, 
1546.00, 
1547.00, 
1548.00, 
1549.00, 
1550.00, 
1551.00, 
1552.00, 
1553.00, 
1554.00, 
1555.00, 
1556.00, 
1557.00, 
1558.00, 
1559.00, 
1560.00, 
1561.00, 
1562.00, 
1563.00, 
1564.00, 
1565.00, 
1566.00, 
1567.00, 
1568.00, 
1569.00, 
1570.00, 
1571.00, 
1572.00, 
1573.00, 
1574.00, 
1575.00, 
1576.00, 
1577.00, 
1578.00, 
1579.00, 
1580.00, 
1581.00, 
1582.00, 
1583.00, 
1584.00, 
1585.00, 
1586.00, 
1587.00, 
1588.00, 
1589.00, 
1590.00, 
1591.00, 
1592.00, 
1593.00, 
1594.00, 
1595.00, 
1596.00, 
1597.00, 
1598.00, 
1599.00, 
1600.00, 
1601.00, 
1602.00, 
1603.00, 
1604.00, 
1605.00, 
1606.00, 
1607.00, 
1608.00, 
1609.00, 
1610.00, 
1611.00, 
1612.00, 
1613.00, 
1614.00, 
1615.00, 
1616.00, 
1617.00, 
1618.00, 
1619.00, 
1620.00, 
1621.00, 
1622.00, 
1623.00, 
1624.00, 
1625.00, 
1626.00, 
1627.00, 
1628.00, 
1629.00, 
1630.00, 
1631.00, 
1632.00, 
1633.00, 
1634.00, 
1635.00, 
1636.00, 
1637.00, 
1638.00, 
1639.00, 
1640.00, 
1641.00, 
1642.00, 
1643.00, 
1644.00, 
1645.00, 
1646.00, 
1647.00, 
1648.00, 
1649.00, 
1650.00, 
1651.00, 
1652.00, 
1653.00, 
1654.00, 
1655.00, 
1656.00, 
1657.00, 
1658.00, 
1659.00, 
1660.00, 
1661.00, 
1662.00, 
1663.00, 
1664.00, 
1665.00, 
1666.00, 
1667.00, 
1668.00, 
1669.00, 
1670.00, 
1671.00, 
1672.00, 
1673.00, 
1674.00, 
1675.00, 
1676.00, 
1677.00, 
1678.00, 
1679.00, 
1680.00, 
1681.00, 
1682.00, 
1683.00, 
1684.00, 
1685.00, 
1686.00, 
1687.00, 
1688.00, 
1689.00, 
1690.00, 
1691.00, 
1692.00, 
1693.00, 
1694.00, 
1695.00, 
1696.00, 
1697.00, 
1698.00, 
1699.00, 
1700.00, 
1701.00, 
1702.00, 
1703.00, 
1704.00, 
1705.00, 
1706.00, 
1707.00, 
1708.00, 
1709.00, 
1710.00, 
1711.00, 
1712.00, 
1713.00, 
1714.00, 
1715.00, 
1716.00, 
1717.00, 
1718.00, 
1719.00, 
1720.00, 
1721.00, 
1722.00, 
1723.00, 
1724.00, 
1725.00, 
1726.00, 
1727.00, 
1728.00, 
1729.00, 
1730.00, 
1731.00, 
1732.00, 
1733.00, 
1734.00, 
1735.00, 
1736.00, 
1737.00, 
1738.00, 
1739.00, 
1740.00, 
1741.00, 
1742.00, 
1743.00, 
1744.00, 
1745.00, 
1746.00, 
1747.00, 
1748.00, 
1749.00, 
1750.00, 
1751.00, 
1752.00, 
1753.00, 
1754.00, 
1755.00, 
1756.00, 
1757.00, 
1758.00, 
1759.00, 
1760.00, 
1761.00, 
1762.00, 
1763.00, 
1764.00, 
1765.00, 
1766.00, 
1767.00, 
1768.00, 
1769.00, 
1770.00, 
1771.00, 
1772.00, 
1773.00, 
1774.00, 
1775.00, 
1776.00, 
1777.00, 
1778.00, 
1779.00, 
1780.00, 
1781.00, 
1782.00, 
1783.00, 
1784.00, 
1785.00, 
1786.00, 
1787.00, 
1788.00, 
1789.00, 
1790.00, 
1791.00, 
1792.00, 
1793.00, 
1794.00, 
1795.00, 
1796.00, 
1797.00, 
1798.00, 
1799.00, 
1800.00, 
1801.00, 
1802.00, 
1803.00, 
1804.00, 
1805.00, 
1806.00, 
1807.00, 
1808.00, 
1809.00, 
1810.00, 
1811.00, 
1812.00, 
1813.00, 
1814.00, 
1815.00, 
1816.00, 
1817.00, 
1818.00, 
1819.00, 
1820.00, 
1821.00, 
1822.00, 
1823.00, 
1824.00, 
1825.00, 
1826.00, 
1827.00, 
1828.00, 
1829.00, 
1830.00, 
1831.00, 
1832.00, 
1833.00, 
1834.00, 
1835.00, 
1836.00, 
1837.00, 
1838.00, 
1839.00, 
1840.00, 
1841.00, 
1842.00, 
1843.00, 
1844.00, 
1845.00, 
1846.00, 
1847.00, 
1848.00, 
1849.00, 
1850.00, 
1851.00, 
1852.00, 
1853.00, 
1854.00, 
1855.00, 
1856.00, 
1857.00, 
1858.00, 
1859.00, 
1860.00, 
1861.00, 
1862.00, 
1863.00, 
1864.00, 
1865.00, 
1866.00, 
1867.00, 
1868.00, 
1869.00, 
1870.00, 
1871.00, 
1872.00, 
1873.00, 
1874.00, 
1875.00, 
1876.00, 
1877.00, 
1878.00, 
1879.00, 
1880.00, 
1881.00, 
1882.00, 
1883.00, 
1884.00, 
1885.00, 
1886.00, 
1887.00, 
1888.00, 
1889.00, 
1890.00, 
1891.00, 
1892.00, 
1893.00, 
1894.00, 
1895.00, 
1896.00, 
1897.00, 
1898.00, 
1899.00, 
1900.00, 
1901.00, 
1902.00, 
1903.00, 
1904.00, 
1905.00, 
1906.00, 
1907.00, 
1908.00, 
1909.00, 
1910.00, 
1911.00, 
1912.00, 
1913.00, 
1914.00, 
1915.00, 
1916.00, 
1917.00, 
1918.00, 
1919.00, 
1920.00, 
1921.00, 
1922.00, 
1923.00, 
1924.00, 
1925.00, 
1926.00, 
1927.00, 
1928.00, 
1929.00, 
1930.00, 
1931.00, 
1932.00, 
1933.00, 
1934.00, 
1935.00, 
1936.00, 
1937.00, 
1938.00, 
1939.00, 
1940.00, 
1941.00, 
1942.00, 
1943.00, 
1944.00, 
1945.00, 
1946.00, 
1947.00, 
1948.00, 
1949.00, 
1950.00, 
1951.00, 
1952.00, 
1953.00, 
1954.00, 
1955.00, 
1956.00, 
1957.00, 
1958.00, 
1959.00, 
1960.00, 
1961.00, 
1962.00, 
1963.00, 
1964.00, 
1965.00, 
1966.00, 
1967.00, 
1968.00, 
1969.00, 
1970.00, 
1971.00, 
1972.00, 
1973.00, 
1974.00, 
1975.00, 
1976.00, 
1977.00, 
1978.00, 
1979.00, 
1980.00, 
1981.00, 
1982.00, 
1983.00, 
1984.00, 
1985.00, 
1986.00, 
1987.00, 
1988.00, 
1989.00, 
1990.00, 
1991.00, 
1992.00, 
1993.00, 
1994.00, 
1995.00, 
1996.00, 
1997.00, 
1998.00, 
1999.00, 
2000.00, 
2001.00, 
2002.00, 
2003.00, 
2004.00, 
2005.00, 
2006.00, 
2007.00, 
2008.00, 
2009.00, 
2010.00, 
2011.00, 
2012.00, 
2013.00, 
2014.00, 
2015.00, 
2016.00, 
2017.00, 
2018.00, 
2019.00, 
2020.00, 
2021.00, 
2022.00, 
2023.00, 
2024.00, 
2025.00, 
2026.00, 
2027.00, 
2028.00, 
2029.00, 
2030.00, 
2031.00, 
2032.00, 
2033.00, 
2034.00, 
2035.00, 
2036.00, 
2037.00, 
2038.00, 
2039.00, 
2040.00, 
2041.00, 
2042.00, 
2043.00, 
2044.00, 
2045.00, 
2046.00, 
2047.00, 
2048.00, 
2049.00, 
2050.00, 
2051.00, 
2052.00, 
2053.00, 
2054.00, 
2055.00, 
2056.00, 
2057.00, 
2058.00, 
2059.00, 
2060.00, 
2061.00, 
2062.00, 
2063.00, 
2064.00, 
2065.00, 
2066.00, 
2067.00, 
2068.00, 
2069.00, 
2070.00, 
2071.00, 
2072.00, 
2073.00, 
2074.00, 
2075.00, 
2076.00, 
2077.00, 
2078.00, 
2079.00, 
2080.00, 
2081.00, 
2082.00, 
2083.00, 
2084.00, 
2085.00, 
2086.00, 
2087.00, 
2088.00, 
2089.00, 
2090.00, 
2091.00, 
2092.00, 
2093.00, 
2094.00, 
2095.00, 
2096.00, 
2097.00, 
2098.00, 
2099.00, 
2100.00, 
2101.00, 
2102.00, 
2103.00, 
2104.00, 
2105.00, 
2106.00, 
2107.00, 
2108.00, 
2109.00, 
2110.00, 
2111.00, 
2112.00, 
2113.00, 
2114.00, 
2115.00, 
2116.00, 
2117.00, 
2118.00, 
2119.00, 
2120.00, 
2121.00, 
2122.00, 
2123.00, 
2124.00, 
2125.00, 
2126.00, 
2127.00, 
2128.00, 
2129.00, 
2130.00, 
2131.00, 
2132.00, 
2133.00, 
2134.00, 
2135.00, 
2136.00, 
2137.00, 
2138.00, 
2139.00, 
2140.00, 
2141.00, 
2142.00, 
2143.00, 
2144.00, 
2145.00, 
2146.00, 
2147.00, 
2148.00, 
2149.00, 
2150.00, 
2151.00, 
2152.00, 
2153.00, 
2154.00, 
2155.00, 
2156.00, 
2157.00, 
2158.00, 
2159.00, 
2160.00, 
2161.00, 
2162.00, 
2163.00, 
2164.00, 
2165.00, 
2166.00, 
2167.00, 
2168.00, 
2169.00, 
2170.00, 
2171.00, 
2172.00, 
2173.00, 
2174.00, 
2175.00, 
2176.00, 
2177.00, 
2178.00, 
2179.00, 
2180.00, 
2181.00, 
2182.00, 
2183.00, 
2184.00, 
2185.00, 
2186.00, 
2187.00, 
2188.00, 
2189.00, 
2190.00, 
2191.00, 
2192.00, 
2193.00, 
2194.00, 
2195.00, 
2196.00, 
2197.00, 
2198.00, 
2199.00, 
2200.00, 
2201.00, 
2202.00, 
2203.00, 
2204.00, 
2205.00, 
2206.00, 
2207.00, 
2208.00, 
2209.00, 
2210.00, 
2211.00, 
2212.00, 
2213.00, 
2214.00, 
2215.00, 
2216.00, 
2217.00, 
2218.00, 
2219.00, 
2220.00, 
2221.00, 
2222.00, 
2223.00, 
2224.00, 
2225.00, 
2226.00, 
2227.00, 
2228.00, 
2229.00, 
2230.00, 
2231.00, 
2232.00, 
2233.00, 
2234.00, 
2235.00, 
2236.00, 
2237.00, 
2238.00, 
2239.00, 
2240.00, 
2241.00, 
2242.00, 
2243.00, 
2244.00, 
2245.00, 
2246.00, 
2247.00, 
2248.00, 
2249.00, 
2250.00, 
2251.00, 
2252.00, 
2253.00, 
2254.00, 
2255.00, 
2256.00, 
2257.00, 
2258.00, 
2259.00, 
2260.00, 
2261.00, 
2262.00, 
2263.00, 
2264.00, 
2265.00, 
2266.00, 
2267.00, 
2268.00, 
2269.00, 
2270.00, 
2271.00, 
2272.00, 
2273.00, 
2274.00, 
2275.00, 
2276.00, 
2277.00, 
2278.00, 
2279.00, 
2280.00, 
2281.00, 
2282.00, 
2283.00, 
2284.00, 
2285.00, 
2286.00, 
2287.00, 
2288.00, 
2289.00, 
2290.00, 
2291.00, 
2292.00, 
2293.00, 
2294.00, 
2295.00, 
2296.00, 
2297.00, 
2298.00, 
2299.00, 
2300.00, 
2301.00, 
2302.00, 
2303.00, 
2304.00, 
2305.00, 
2306.00, 
2307.00, 
2308.00, 
2309.00, 
2310.00, 
2311.00, 
2312.00, 
2313.00, 
2314.00, 
2315.00, 
2316.00, 
2317.00, 
2318.00, 
2319.00, 
2320.00, 
2321.00, 
2322.00, 
2323.00, 
2324.00, 
2325.00, 
2326.00, 
2327.00, 
2328.00, 
2329.00, 
2330.00, 
2331.00, 
2332.00, 
2333.00, 
2334.00, 
2335.00, 
2336.00, 
2337.00, 
2338.00, 
2339.00, 
2340.00, 
2341.00, 
2342.00, 
2343.00, 
2344.00, 
2345.00, 
2346.00, 
2347.00, 
2348.00, 
2349.00, 
2350.00, 
2351.00, 
2352.00, 
2353.00, 
2354.00, 
2355.00, 
2356.00, 
2357.00, 
2358.00, 
2359.00, 
2360.00, 
2361.00, 
2362.00, 
2363.00, 
2364.00, 
2365.00, 
2366.00, 
2367.00, 
2368.00, 
2369.00, 
2370.00, 
2371.00, 
2372.00, 
2373.00, 
2374.00, 
2375.00, 
2376.00, 
2377.00, 
2378.00, 
2379.00, 
2380.00, 
2381.00, 
2382.00, 
2383.00, 
2384.00, 
2385.00, 
2386.00, 
2387.00, 
2388.00, 
2389.00, 
2390.00, 
2391.00, 
2392.00, 
2393.00, 
2394.00, 
2395.00, 
2396.00, 
2397.00, 
2398.00, 
2399.00, 
2400.00, 
2401.00, 
2402.00, 
2403.00, 
2404.00, 
2405.00, 
2406.00, 
2407.00, 
2408.00, 
2409.00, 
2410.00, 
2411.00, 
2412.00, 
2413.00, 
2414.00, 
2415.00, 
2416.00, 
2417.00, 
2418.00, 
2419.00, 
2420.00, 
2421.00, 
2422.00, 
2423.00, 
2424.00, 
2425.00, 
2426.00, 
2427.00, 
2428.00, 
2429.00, 
2430.00, 
2431.00, 
2432.00, 
2433.00, 
2434.00, 
2435.00, 
2436.00, 
2437.00, 
2438.00, 
2439.00, 
2440.00, 
2441.00, 
2442.00, 
2443.00, 
2444.00, 
2445.00, 
2446.00, 
2447.00, 
2448.00, 
2449.00, 
2450.00, 
2451.00, 
2452.00, 
2453.00, 
2454.00, 
2455.00, 
2456.00, 
2457.00, 
2458.00, 
2459.00, 
2460.00, 
2461.00, 
2462.00, 
2463.00, 
2464.00, 
2465.00, 
2466.00, 
2467.00, 
2468.00, 
2469.00, 
2470.00, 
2471.00, 
2472.00, 
2473.00, 
2474.00, 
2475.00, 
2476.00, 
2477.00, 
2478.00, 
2479.00, 
2480.00, 
2481.00, 
2482.00, 
2483.00, 
2484.00, 
2485.00, 
2486.00, 
2487.00, 
2488.00, 
2489.00, 
2490.00, 
2491.00, 
2492.00, 
2493.00, 
2494.00, 
2495.00, 
2496.00, 
2497.00, 
2498.00, 
2499.00, 
2500.00, 
2501.00, 
2502.00, 
2503.00, 
2504.00, 
2505.00, 
2506.00, 
2507.00, 
2508.00, 
2509.00, 
2510.00, 
2511.00, 
2512.00, 
2513.00, 
2514.00, 
2515.00, 
2516.00, 
2517.00, 
2518.00, 
2519.00, 
2520.00, 
2521.00, 
2522.00, 
2523.00, 
2524.00, 
2525.00, 
2526.00, 
2527.00, 
2528.00, 
2529.00, 
2530.00, 
2531.00, 
2532.00, 
2533.00, 
2534.00, 
2535.00, 
2536.00, 
2537.00, 
2538.00, 
2539.00, 
2540.00, 
2541.00, 
2542.00, 
2543.00, 
2544.00, 
2545.00, 
2546.00, 
2547.00, 
2548.00, 
2549.00, 
2550.00, 
2551.00, 
2552.00, 
2553.00, 
2554.00, 
2555.00, 
2556.00, 
2557.00, 
2558.00, 
2559.00, 
2560.00, 
2561.00, 
2562.00, 
2563.00, 
2564.00, 
2565.00, 
2566.00, 
2567.00, 
2568.00, 
2569.00, 
2570.00, 
2571.00, 
2572.00, 
2573.00, 
2574.00, 
2575.00, 
2576.00, 
2577.00, 
2578.00, 
2579.00, 
2580.00, 
2581.00, 
2582.00, 
2583.00, 
2584.00, 
2585.00, 
2586.00, 
2587.00, 
2588.00, 
2589.00, 
2590.00, 
2591.00, 
2592.00, 
2593.00, 
2594.00, 
2595.00, 
2596.00, 
2597.00, 
2598.00, 
2599.00, 
2600.00, 
