"1aP2 - RawData"
"Wavelength nm.","T%"
200.00,0.002
201.00,-0.001
202.00,0.001
203.00,0.001
204.00,0.002
205.00,0.002
206.00,0.001
207.00,0.004
208.00,0.004
209.00,0.000
210.00,0.001
211.00,0.000
212.00,-0.002
213.00,0.002
214.00,-0.001
215.00,-0.000
216.00,0.005
217.00,0.003
218.00,0.007
219.00,0.002
220.00,0.001
221.00,0.002
222.00,0.003
223.00,0.000
224.00,0.001
225.00,0.002
226.00,-0.001
227.00,0.001
228.00,0.004
229.00,0.001
230.00,0.001
231.00,-0.001
232.00,0.001
233.00,0.002
234.00,0.002
235.00,0.003
236.00,0.002
237.00,0.001
238.00,-0.001
239.00,0.001
240.00,-0.000
241.00,0.001
242.00,0.001
243.00,-0.000
244.00,0.000
245.00,0.001
246.00,0.001
247.00,0.001
248.00,0.002
249.00,0.001
250.00,0.000
251.00,-0.001
252.00,-0.001
253.00,-0.000
254.00,-0.000
255.00,0.002
256.00,-0.002
257.00,0.000
258.00,0.000
259.00,0.002
260.00,0.002
261.00,-0.000
262.00,0.001
263.00,0.001
264.00,0.001
265.00,0.002
266.00,0.001
267.00,-0.001
268.00,-0.000
269.00,-0.000
270.00,0.002
271.00,0.001
272.00,0.001
273.00,0.001
274.00,0.001
275.00,-0.001
276.00,0.002
277.00,0.001
278.00,0.001
279.00,0.000
280.00,-0.001
281.00,-0.001
282.00,0.001
283.00,-0.000
284.00,0.001
285.00,0.001
286.00,-0.000
287.00,0.001
288.00,-0.001
289.00,0.000
290.00,0.001
291.00,0.000
292.00,0.002
293.00,-0.001
294.00,0.000
295.00,0.000
296.00,0.001
297.00,0.001
298.00,0.001
299.00,0.004
300.00,0.006
301.00,0.006
302.00,0.008
303.00,0.014
304.00,0.023
305.00,0.034
306.00,0.054
307.00,0.076
308.00,0.127
309.00,0.191
310.00,0.262
311.00,0.354
312.00,0.475
313.00,0.653
314.00,0.847
315.00,1.087
316.00,1.387
317.00,1.734
318.00,2.104
319.00,2.581
320.00,3.080
321.00,3.703
322.00,4.365
323.00,5.105
324.00,5.855
325.00,6.622
326.00,7.401
327.00,8.291
328.00,9.218
329.00,10.154
330.00,11.124
331.00,12.052
332.00,13.023
333.00,13.996
334.00,14.943
335.00,15.979
336.00,16.919
337.00,17.892
338.00,18.799
339.00,19.648
340.00,20.525
341.00,21.338
342.00,22.109
343.00,22.857
344.00,23.654
345.00,24.258
346.00,24.840
347.00,25.558
348.00,26.206
349.00,26.713
350.00,27.246
351.00,27.649
352.00,28.137
353.00,28.544
354.00,28.863
355.00,29.312
356.00,29.641
357.00,29.932
358.00,30.214
359.00,30.472
360.00,30.739
361.00,30.977
362.00,31.208
363.00,31.458
364.00,31.621
365.00,31.730
366.00,31.845
367.00,31.919
368.00,32.020
369.00,32.126
370.00,32.220
371.00,32.191
372.00,32.226
373.00,32.292
374.00,32.215
375.00,32.224
376.00,32.183
377.00,32.131
378.00,32.118
379.00,31.978
380.00,32.056
381.00,32.017
382.00,32.022
383.00,32.084
384.00,32.126
385.00,32.167
386.00,32.222
387.00,32.289
388.00,32.413
389.00,32.447
390.00,32.524
391.00,32.620
392.00,32.599
393.00,32.638
394.00,32.651
395.00,32.713
396.00,32.699
397.00,32.747
398.00,32.798
399.00,32.759
400.00,32.818
401.00,32.844
402.00,32.844
403.00,32.822
404.00,32.819
405.00,32.843
406.00,32.863
407.00,32.826
408.00,32.820
409.00,32.780
410.00,32.700
411.00,32.714
412.00,32.714
413.00,32.727
414.00,32.655
415.00,32.695
416.00,32.745
417.00,32.689
418.00,32.731
419.00,32.790
420.00,32.775
421.00,32.887
422.00,32.925
423.00,32.948
424.00,32.969
425.00,33.031
426.00,33.058
427.00,33.149
428.00,33.152
429.00,33.204
430.00,33.244
431.00,33.301
432.00,33.348
433.00,33.422
434.00,33.452
435.00,33.521
436.00,33.562
437.00,33.654
438.00,33.742
439.00,33.747
440.00,33.857
441.00,33.891
442.00,34.032
443.00,34.056
444.00,34.168
445.00,34.255
446.00,34.372
447.00,34.420
448.00,34.510
449.00,34.651
450.00,34.695
451.00,34.786
452.00,34.918
453.00,34.978
454.00,35.116
455.00,35.191
456.00,35.322
457.00,35.417
458.00,35.535
459.00,35.620
460.00,35.730
461.00,35.800
462.00,35.998
463.00,36.070
464.00,36.229
465.00,36.294
466.00,36.417
467.00,36.534
468.00,36.596
469.00,36.724
470.00,36.799
471.00,36.947
472.00,37.030
473.00,37.057
474.00,37.176
475.00,37.305
476.00,37.348
477.00,37.489
478.00,37.608
479.00,37.756
480.00,37.865
481.00,37.980
482.00,38.095
483.00,38.204
484.00,38.328
485.00,38.504
486.00,38.647
487.00,38.742
488.00,38.932
489.00,39.028
490.00,39.113
491.00,39.244
492.00,39.244
493.00,39.502
494.00,39.554
495.00,39.648
496.00,39.774
497.00,39.854
498.00,39.997
499.00,40.162
500.00,40.176
501.00,40.315
502.00,40.350
503.00,40.352
504.00,40.612
505.00,40.649
506.00,40.827
507.00,40.912
508.00,40.938
509.00,41.182
510.00,41.261
511.00,41.329
512.00,41.412
513.00,41.498
514.00,41.625
515.00,41.767
516.00,41.799
517.00,41.843
518.00,41.970
519.00,42.024
520.00,42.077
521.00,42.167
522.00,42.259
523.00,42.333
524.00,42.377
525.00,42.402
526.00,42.536
527.00,42.566
528.00,42.590
529.00,42.662
530.00,42.719
531.00,42.935
532.00,43.011
533.00,43.104
534.00,43.132
535.00,43.187
536.00,43.214
537.00,43.296
538.00,43.367
539.00,43.417
540.00,43.455
541.00,43.508
542.00,43.524
543.00,43.603
544.00,43.656
545.00,43.609
546.00,43.688
547.00,43.746
548.00,43.819
549.00,43.847
550.00,43.924
551.00,44.017
552.00,44.040
553.00,44.081
554.00,44.157
555.00,44.150
556.00,44.212
557.00,44.259
558.00,44.256
559.00,44.331
560.00,44.331
561.00,44.318
562.00,44.512
563.00,44.509
564.00,44.556
565.00,44.546
566.00,44.630
567.00,44.570
568.00,44.600
569.00,44.714
570.00,44.532
571.00,44.683
572.00,44.715
573.00,44.628
574.00,44.735
575.00,44.696
576.00,44.638
577.00,44.781
578.00,44.874
579.00,44.874
580.00,44.860
581.00,45.063
582.00,45.092
583.00,45.039
584.00,45.241
585.00,45.270
586.00,45.183
587.00,45.304
588.00,45.288
589.00,45.245
590.00,45.440
591.00,45.395
592.00,45.367
593.00,45.434
594.00,45.500
595.00,45.516
596.00,45.526
597.00,45.631
598.00,45.661
599.00,45.686
600.00,45.759
601.00,45.772
602.00,45.768
603.00,45.795
604.00,45.808
605.00,45.845
606.00,45.827
607.00,45.888
608.00,45.823
609.00,45.829
610.00,45.946
611.00,45.817
612.00,45.739
613.00,46.021
614.00,46.031
615.00,45.942
616.00,46.125
617.00,46.104
618.00,46.116
619.00,46.172
620.00,46.281
621.00,46.267
622.00,46.274
623.00,46.300
624.00,46.373
625.00,46.405
626.00,46.443
627.00,46.438
628.00,46.536
629.00,46.555
630.00,46.600
631.00,46.575
632.00,46.572
633.00,46.663
634.00,46.802
635.00,46.833
636.00,46.946
637.00,46.998
638.00,47.067
639.00,47.092
640.00,47.060
641.00,47.155
642.00,47.173
643.00,47.263
644.00,47.286
645.00,47.289
646.00,47.400
647.00,47.389
648.00,47.480
649.00,47.506
650.00,47.519
651.00,47.548
652.00,47.692
653.00,47.675
654.00,47.712
655.00,47.682
656.00,47.770
657.00,47.998
658.00,48.063
659.00,48.116
660.00,48.220
661.00,48.080
662.00,48.140
663.00,48.182
664.00,48.274
665.00,48.335
666.00,48.348
667.00,48.542
668.00,48.510
669.00,48.639
670.00,48.727
671.00,48.686
672.00,48.728
673.00,48.924
674.00,48.733
675.00,48.850
676.00,49.091
677.00,48.863
678.00,48.947
679.00,49.331
680.00,49.234
681.00,49.331
682.00,49.340
683.00,49.325
684.00,49.652
685.00,49.608
686.00,49.368
687.00,49.477
688.00,49.566
689.00,49.616
690.00,49.688
691.00,49.756
692.00,49.868
693.00,49.681
694.00,49.823
695.00,49.953
696.00,49.872
697.00,49.968
698.00,50.157
699.00,49.965
700.00,49.902
701.00,50.204
702.00,50.217
703.00,50.301
704.00,50.371
705.00,50.326
706.00,50.403
707.00,50.626
708.00,50.364
709.00,50.480
710.00,50.718
711.00,50.749
712.00,50.633
713.00,50.699
714.00,50.773
715.00,50.838
716.00,50.751
717.00,50.844
718.00,50.942
719.00,50.885
720.00,50.935
721.00,55.351
722.00,55.244
723.00,55.253
724.00,55.181
725.00,55.225
726.00,55.179
727.00,55.170
728.00,55.241
729.00,55.125
730.00,55.170
731.00,55.220
732.00,55.200
733.00,55.284
734.00,55.198
735.00,55.248
736.00,55.229
737.00,55.267
738.00,55.218
739.00,55.234
740.00,55.229
741.00,55.267
742.00,55.304
743.00,55.205
744.00,55.214
745.00,55.229
746.00,55.224
747.00,55.129
748.00,54.991
749.00,55.096
750.00,55.110
751.00,55.019
752.00,55.079
753.00,55.021
754.00,54.990
755.00,55.018
756.00,55.001
757.00,54.874
758.00,55.051
759.00,54.906
760.00,54.933
761.00,54.943
762.00,54.962
763.00,54.962
764.00,54.917
765.00,54.847
766.00,54.923
767.00,54.890
768.00,54.957
769.00,54.892
770.00,54.962
771.00,54.763
772.00,54.924
773.00,54.765
774.00,54.816
775.00,54.928
776.00,54.811
777.00,54.944
778.00,54.766
779.00,54.855
780.00,54.759
781.00,54.792
782.00,54.784
783.00,54.745
784.00,54.746
785.00,54.672
786.00,54.717
787.00,54.689
788.00,54.570
789.00,54.686
790.00,54.551
791.00,54.667
792.00,54.497
793.00,54.572
794.00,54.553
795.00,54.475
796.00,54.515
797.00,54.401
798.00,54.497
799.00,54.396
800.00,54.419
801.00,54.426
802.00,54.401
803.00,54.281
804.00,54.306
805.00,54.343
806.00,54.308
807.00,54.227
808.00,54.242
809.00,54.252
810.00,54.294
811.00,54.188
812.00,54.213
813.00,54.105
814.00,54.173
815.00,54.125
816.00,54.097
817.00,54.119
818.00,53.969
819.00,53.951
820.00,53.967
821.00,53.938
822.00,53.973
823.00,53.820
824.00,53.919
825.00,53.912
826.00,53.824
827.00,53.963
828.00,53.821
829.00,53.910
830.00,53.823
831.00,56.319
832.00,56.280
833.00,56.266
834.00,56.275
835.00,56.193
836.00,56.238
837.00,56.171
838.00,56.188
839.00,56.144
840.00,56.064
841.00,56.144
842.00,56.068
843.00,56.040
844.00,56.065
845.00,56.001
846.00,56.006
847.00,55.972
848.00,55.960
849.00,55.900
850.00,55.874
851.00,55.837
852.00,55.824
853.00,55.790
854.00,55.772
855.00,55.729
856.00,55.738
857.00,55.710
858.00,55.656
859.00,55.652
860.00,55.655
861.00,55.635
862.00,55.590
863.00,55.558
864.00,55.514
865.00,55.564
866.00,55.512
867.00,55.532
868.00,55.520
869.00,55.476
870.00,55.516
871.00,55.463
872.00,55.482
873.00,55.451
874.00,55.441
875.00,55.387
876.00,55.410
877.00,55.415
878.00,55.391
879.00,55.392
880.00,55.345
881.00,55.351
882.00,55.359
883.00,55.320
884.00,55.281
885.00,55.260
886.00,55.259
887.00,55.235
888.00,55.217
889.00,55.205
890.00,55.175
891.00,55.145
892.00,55.137
893.00,55.099
894.00,55.135
895.00,55.081
896.00,55.081
897.00,55.028
898.00,55.026
899.00,55.064
900.00,54.990
901.00,54.988
902.00,54.993
903.00,54.957
904.00,54.944
905.00,54.936
906.00,54.926
907.00,54.913
908.00,54.856
909.00,54.839
910.00,54.848
911.00,54.826
912.00,54.809
913.00,54.762
914.00,54.735
915.00,54.715
916.00,54.724
917.00,54.702
918.00,54.681
919.00,54.608
920.00,54.628
921.00,54.634
922.00,54.617
923.00,54.576
924.00,54.561
925.00,54.569
926.00,54.547
927.00,54.531
928.00,54.496
929.00,54.498
930.00,54.480
931.00,54.483
932.00,54.417
933.00,54.418
934.00,54.554
935.00,54.378
936.00,54.366
937.00,54.364
938.00,54.344
939.00,54.358
940.00,54.309
941.00,54.291
942.00,54.267
943.00,54.276
944.00,54.220
945.00,54.225
946.00,54.215
947.00,54.168
948.00,54.143
949.00,54.148
950.00,54.138
951.00,54.107
952.00,54.068
953.00,54.054
954.00,54.046
955.00,53.986
956.00,53.988
957.00,53.961
958.00,53.956
959.00,53.878
960.00,53.880
961.00,53.890
962.00,53.889
963.00,53.818
964.00,53.872
965.00,53.915
966.00,53.818
967.00,53.827
968.00,53.809
969.00,53.822
970.00,53.772
971.00,53.821
972.00,53.766
973.00,53.801
974.00,53.814
975.00,53.802
976.00,53.815
977.00,53.772
978.00,53.846
979.00,53.780
980.00,53.789
981.00,53.804
982.00,53.776
983.00,53.789
984.00,53.783
985.00,53.802
986.00,53.761
987.00,53.791
988.00,53.761
989.00,53.748
990.00,53.736
991.00,53.702
992.00,53.720
993.00,53.676
994.00,53.660
995.00,53.681
996.00,53.629
997.00,53.638
998.00,53.594
999.00,53.649
1000.00,53.596
1001.00,53.591
1002.00,53.588
1003.00,53.599
1004.00,53.569
1005.00,53.562
1006.00,53.592
1007.00,53.558
1008.00,53.556
1009.00,53.530
1010.00,53.538
1011.00,53.515
1012.00,53.476
1013.00,53.493
1014.00,53.433
1015.00,53.453
1016.00,53.421
1017.00,53.427
1018.00,53.398
1019.00,53.400
1020.00,53.392
1021.00,53.370
1022.00,53.377
1023.00,53.328
1024.00,53.330
1025.00,53.303
1026.00,53.307
1027.00,53.281
1028.00,53.264
1029.00,53.249
1030.00,53.256
1031.00,53.257
1032.00,53.205
1033.00,53.232
1034.00,53.195
1035.00,53.170
1036.00,53.132
1037.00,53.134
1038.00,53.103
1039.00,53.067
1040.00,53.075
1041.00,53.032
1042.00,53.026
1043.00,52.984
1044.00,53.054
1045.00,53.010
1046.00,53.011
1047.00,53.028
1048.00,53.027
1049.00,53.045
1050.00,53.051
1051.00,53.074
1052.00,53.081
1053.00,53.094
1054.00,53.089
1055.00,53.117
1056.00,53.145
1057.00,53.108
1058.00,53.101
1059.00,53.089
1060.00,53.121
1061.00,53.096
1062.00,53.075
1063.00,53.103
1064.00,53.095
1065.00,53.089
1066.00,53.082
1067.00,53.090
1068.00,53.093
1069.00,53.053
1070.00,53.060
1071.00,53.067
1072.00,53.054
1073.00,53.017
1074.00,53.033
1075.00,53.008
1076.00,53.012
1077.00,52.996
1078.00,52.972
1079.00,52.979
1080.00,52.976
1081.00,52.956
1082.00,52.966
1083.00,52.951
1084.00,52.941
1085.00,52.946
1086.00,52.941
1087.00,52.916
1088.00,52.920
1089.00,52.904
1090.00,52.910
1091.00,52.912
1092.00,52.899
1093.00,52.882
1094.00,52.877
1095.00,52.870
1096.00,52.875
1097.00,52.861
1098.00,52.857
1099.00,52.834
1100.00,52.824
1101.00,52.840
1102.00,52.833
1103.00,52.819
1104.00,52.812
1105.00,52.783
1106.00,52.753
1107.00,52.791
1108.00,52.767
1109.00,52.743
1110.00,52.757
1111.00,52.735
1112.00,52.715
1113.00,52.708
1114.00,52.719
1115.00,52.733
1116.00,52.733
1117.00,52.723
1118.00,52.711
1119.00,52.694
1120.00,52.667
1121.00,52.699
1122.00,52.672
1123.00,52.659
1124.00,52.657
1125.00,52.661
1126.00,52.659
1127.00,52.646
1128.00,52.645
1129.00,52.653
1130.00,52.642
1131.00,52.636
1132.00,52.625
1133.00,52.583
1134.00,52.592
1135.00,52.586
1136.00,52.579
1137.00,52.585
1138.00,52.599
1139.00,52.585
1140.00,52.587
1141.00,52.557
1142.00,52.535
1143.00,52.581
1144.00,52.541
1145.00,52.540
1146.00,52.552
1147.00,52.544
1148.00,52.536
1149.00,52.551
1150.00,52.552
1151.00,52.555
1152.00,52.531
1153.00,52.528
1154.00,52.520
1155.00,52.511
1156.00,52.507
1157.00,52.532
1158.00,52.503
1159.00,52.526
1160.00,52.517
1161.00,52.514
1162.00,52.536
1163.00,52.556
1164.00,52.533
1165.00,52.530
1166.00,52.515
1167.00,52.512
1168.00,52.521
1169.00,52.499
1170.00,52.512
1171.00,52.491
1172.00,52.472
1173.00,52.493
1174.00,52.511
1175.00,52.497
1176.00,52.510
1177.00,52.505
1178.00,52.510
1179.00,52.512
1180.00,52.504
1181.00,52.522
1182.00,52.500
1183.00,52.504
1184.00,52.488
1185.00,52.509
1186.00,52.475
1187.00,52.514
1188.00,52.495
1189.00,52.506
1190.00,52.494
1191.00,52.497
1192.00,52.527
1193.00,52.502
1194.00,52.506
1195.00,52.493
1196.00,52.510
1197.00,52.493
1198.00,52.502
1199.00,52.479
1200.00,52.491
1201.00,52.520
1202.00,52.500
1203.00,52.509
1204.00,52.497
1205.00,52.511
1206.00,52.505
1207.00,52.511
1208.00,52.491
1209.00,52.516
1210.00,52.503
1211.00,52.498
1212.00,52.532
1213.00,52.471
1214.00,52.520
1215.00,52.503
1216.00,52.511
1217.00,52.512
1218.00,52.512
1219.00,52.506
1220.00,52.490
1221.00,52.508
1222.00,52.492
1223.00,52.533
1224.00,52.522
1225.00,52.502
1226.00,52.500
1227.00,52.482
1228.00,52.516
1229.00,52.518
1230.00,52.543
1231.00,52.523
1232.00,52.547
1233.00,52.539
1234.00,52.540
1235.00,52.527
1236.00,52.551
1237.00,52.531
1238.00,52.523
1239.00,52.576
1240.00,52.563
1241.00,52.550
1242.00,52.553
1243.00,52.592
1244.00,52.556
1245.00,52.577
1246.00,52.575
1247.00,52.584
1248.00,52.564
1249.00,52.576
1250.00,52.607
1251.00,52.594
1252.00,52.592
1253.00,52.607
1254.00,52.620
1255.00,52.607
1256.00,52.583
1257.00,52.583
1258.00,52.654
1259.00,52.619
1260.00,52.639
1261.00,52.658
1262.00,52.655
1263.00,52.627
1264.00,52.657
1265.00,52.657
1266.00,52.634
1267.00,52.660
1268.00,52.671
1269.00,52.674
1270.00,52.701
1271.00,52.685
1272.00,52.710
1273.00,52.708
1274.00,52.699
1275.00,52.712
1276.00,52.704
1277.00,52.710
1278.00,52.725
1279.00,52.723
1280.00,52.709
1281.00,52.732
1282.00,52.735
1283.00,52.729
1284.00,52.767
1285.00,52.745
1286.00,52.768
1287.00,52.745
1288.00,52.761
1289.00,52.754
1290.00,52.763
1291.00,52.787
1292.00,52.774
1293.00,52.784
1294.00,52.793
1295.00,52.806
1296.00,52.808
1297.00,52.832
1298.00,52.844
1299.00,52.812
1300.00,52.844
1301.00,52.831
1302.00,52.863
1303.00,52.862
1304.00,52.832
1305.00,52.873
1306.00,52.861
1307.00,52.860
1308.00,52.872
1309.00,52.864
1310.00,52.861
1311.00,52.846
1312.00,52.873
1313.00,52.891
1314.00,52.901
1315.00,52.922
1316.00,52.958
1317.00,52.950
1318.00,52.940
1319.00,52.953
1320.00,52.942
1321.00,53.093
1322.00,53.102
1323.00,53.082
1324.00,53.078
1325.00,53.065
1326.00,53.090
1327.00,53.095
1328.00,53.068
1329.00,53.097
1330.00,53.131
1331.00,53.106
1332.00,53.101
1333.00,53.101
1334.00,53.096
1335.00,53.146
1336.00,53.160
1337.00,53.177
1338.00,53.267
1339.00,53.293
1340.00,53.342
1341.00,53.433
1342.00,53.478
1343.00,53.523
1344.00,53.569
1345.00,53.611
1346.00,53.654
1347.00,53.664
1348.00,53.692
1349.00,53.720
1350.00,53.709
1351.00,53.735
1352.00,53.744
1353.00,53.760
1354.00,53.745
1355.00,53.682
1356.00,53.799
1357.00,53.774
1358.00,53.732
1359.00,53.839
1360.00,53.925
1361.00,54.325
1362.00,53.731
1363.00,53.890
1364.00,53.973
1365.00,53.828
1366.00,53.884
1367.00,53.840
1368.00,53.784
1369.00,53.850
1370.00,53.800
1371.00,53.826
1372.00,53.808
1373.00,53.793
1374.00,53.804
1375.00,53.804
1376.00,53.822
1377.00,53.791
1378.00,53.786
1379.00,53.811
1380.00,53.839
1381.00,53.800
1382.00,53.869
1383.00,53.828
1384.00,53.783
1385.00,53.725
1386.00,53.791
1387.00,53.786
1388.00,53.753
1389.00,53.693
1390.00,53.811
1391.00,53.794
1392.00,53.796
1393.00,53.755
1394.00,53.810
1395.00,53.823
1396.00,53.749
1397.00,53.656
1398.00,53.722
1399.00,53.766
1400.00,53.771
1401.00,53.765
1402.00,53.762
1403.00,53.775
1404.00,53.810
1405.00,53.828
1406.00,53.838
1407.00,53.845
1408.00,53.899
1409.00,53.850
1410.00,53.884
1411.00,53.838
1412.00,53.925
1413.00,53.845
1414.00,53.847
1415.00,53.889
1416.00,53.895
1417.00,53.889
1418.00,53.906
1419.00,53.925
1420.00,53.958
1421.00,53.940
1422.00,53.958
1423.00,54.034
1424.00,53.972
1425.00,53.992
1426.00,54.024
1427.00,54.052
1428.00,54.033
1429.00,54.059
1430.00,54.048
1431.00,54.070
1432.00,54.074
1433.00,54.082
1434.00,54.087
1435.00,54.118
1436.00,54.127
1437.00,54.159
1438.00,54.170
1439.00,54.190
1440.00,54.196
1441.00,54.229
1442.00,54.227
1443.00,54.243
1444.00,54.239
1445.00,54.261
1446.00,54.274
1447.00,54.283
1448.00,54.316
1449.00,54.326
1450.00,54.332
1451.00,54.369
1452.00,54.392
1453.00,54.368
1454.00,54.388
1455.00,54.411
1456.00,54.426
1457.00,54.410
1458.00,54.445
1459.00,54.477
1460.00,54.483
1461.00,54.483
1462.00,54.537
1463.00,54.514
1464.00,54.530
1465.00,54.564
1466.00,54.551
1467.00,54.581
1468.00,54.608
1469.00,54.591
1470.00,54.630
1471.00,54.626
1472.00,54.640
1473.00,54.662
1474.00,54.674
1475.00,54.686
1476.00,54.718
1477.00,54.687
1478.00,54.720
1479.00,54.719
1480.00,54.712
1481.00,54.758
1482.00,54.742
1483.00,54.787
1484.00,54.810
1485.00,54.791
1486.00,54.800
1487.00,54.827
1488.00,54.829
1489.00,54.834
1490.00,54.830
1491.00,54.836
1492.00,54.864
1493.00,54.841
1494.00,54.868
1495.00,54.872
1496.00,54.873
1497.00,54.887
1498.00,54.901
1499.00,54.900
1500.00,54.926
1501.00, 
1502.00, 
1503.00, 
1504.00, 
1505.00, 
1506.00, 
1507.00, 
1508.00, 
1509.00, 
1510.00, 
1511.00, 
1512.00, 
1513.00, 
1514.00, 
1515.00, 
1516.00, 
1517.00, 
1518.00, 
1519.00, 
1520.00, 
1521.00, 
1522.00, 
1523.00, 
1524.00, 
1525.00, 
1526.00, 
1527.00, 
1528.00, 
1529.00, 
1530.00, 
1531.00, 
1532.00, 
1533.00, 
1534.00, 
1535.00, 
1536.00, 
1537.00, 
1538.00, 
1539.00, 
1540.00, 
1541.00, 
1542.00, 
1543.00, 
1544.00, 
1545.00, 
1546.00, 
1547.00, 
1548.00, 
1549.00, 
1550.00, 
1551.00, 
1552.00, 
1553.00, 
1554.00, 
1555.00, 
1556.00, 
1557.00, 
1558.00, 
1559.00, 
1560.00, 
1561.00, 
1562.00, 
1563.00, 
1564.00, 
1565.00, 
1566.00, 
1567.00, 
1568.00, 
1569.00, 
1570.00, 
1571.00, 
1572.00, 
1573.00, 
1574.00, 
1575.00, 
1576.00, 
1577.00, 
1578.00, 
1579.00, 
1580.00, 
1581.00, 
1582.00, 
1583.00, 
1584.00, 
1585.00, 
1586.00, 
1587.00, 
1588.00, 
1589.00, 
1590.00, 
1591.00, 
1592.00, 
1593.00, 
1594.00, 
1595.00, 
1596.00, 
1597.00, 
1598.00, 
1599.00, 
1600.00, 
1601.00, 
1602.00, 
1603.00, 
1604.00, 
1605.00, 
1606.00, 
1607.00, 
1608.00, 
1609.00, 
1610.00, 
1611.00, 
1612.00, 
1613.00, 
1614.00, 
1615.00, 
1616.00, 
1617.00, 
1618.00, 
1619.00, 
1620.00, 
1621.00, 
1622.00, 
1623.00, 
1624.00, 
1625.00, 
1626.00, 
1627.00, 
1628.00, 
1629.00, 
1630.00, 
1631.00, 
1632.00, 
1633.00, 
1634.00, 
1635.00, 
1636.00, 
1637.00, 
1638.00, 
1639.00, 
1640.00, 
1641.00, 
1642.00, 
1643.00, 
1644.00, 
1645.00, 
1646.00, 
1647.00, 
1648.00, 
1649.00, 
1650.00, 
1651.00, 
1652.00, 
1653.00, 
1654.00, 
1655.00, 
1656.00, 
1657.00, 
1658.00, 
1659.00, 
1660.00, 
1661.00, 
1662.00, 
1663.00, 
1664.00, 
1665.00, 
1666.00, 
1667.00, 
1668.00, 
1669.00, 
1670.00, 
1671.00, 
1672.00, 
1673.00, 
1674.00, 
1675.00, 
1676.00, 
1677.00, 
1678.00, 
1679.00, 
1680.00, 
1681.00, 
1682.00, 
1683.00, 
1684.00, 
1685.00, 
1686.00, 
1687.00, 
1688.00, 
1689.00, 
1690.00, 
1691.00, 
1692.00, 
1693.00, 
1694.00, 
1695.00, 
1696.00, 
1697.00, 
1698.00, 
1699.00, 
1700.00, 
1701.00, 
1702.00, 
1703.00, 
1704.00, 
1705.00, 
1706.00, 
1707.00, 
1708.00, 
1709.00, 
1710.00, 
1711.00, 
1712.00, 
1713.00, 
1714.00, 
1715.00, 
1716.00, 
1717.00, 
1718.00, 
1719.00, 
1720.00, 
1721.00, 
1722.00, 
1723.00, 
1724.00, 
1725.00, 
1726.00, 
1727.00, 
1728.00, 
1729.00, 
1730.00, 
1731.00, 
1732.00, 
1733.00, 
1734.00, 
1735.00, 
1736.00, 
1737.00, 
1738.00, 
1739.00, 
1740.00, 
1741.00, 
1742.00, 
1743.00, 
1744.00, 
1745.00, 
1746.00, 
1747.00, 
1748.00, 
1749.00, 
1750.00, 
1751.00, 
1752.00, 
1753.00, 
1754.00, 
1755.00, 
1756.00, 
1757.00, 
1758.00, 
1759.00, 
1760.00, 
1761.00, 
1762.00, 
1763.00, 
1764.00, 
1765.00, 
1766.00, 
1767.00, 
1768.00, 
1769.00, 
1770.00, 
1771.00, 
1772.00, 
1773.00, 
1774.00, 
1775.00, 
1776.00, 
1777.00, 
1778.00, 
1779.00, 
1780.00, 
1781.00, 
1782.00, 
1783.00, 
1784.00, 
1785.00, 
1786.00, 
1787.00, 
1788.00, 
1789.00, 
1790.00, 
1791.00, 
1792.00, 
1793.00, 
1794.00, 
1795.00, 
1796.00, 
1797.00, 
1798.00, 
1799.00, 
1800.00, 
1801.00, 
1802.00, 
1803.00, 
1804.00, 
1805.00, 
1806.00, 
1807.00, 
1808.00, 
1809.00, 
1810.00, 
1811.00, 
1812.00, 
1813.00, 
1814.00, 
1815.00, 
1816.00, 
1817.00, 
1818.00, 
1819.00, 
1820.00, 
1821.00, 
1822.00, 
1823.00, 
1824.00, 
1825.00, 
1826.00, 
1827.00, 
1828.00, 
1829.00, 
1830.00, 
1831.00, 
1832.00, 
1833.00, 
1834.00, 
1835.00, 
1836.00, 
1837.00, 
1838.00, 
1839.00, 
1840.00, 
1841.00, 
1842.00, 
1843.00, 
1844.00, 
1845.00, 
1846.00, 
1847.00, 
1848.00, 
1849.00, 
1850.00, 
1851.00, 
1852.00, 
1853.00, 
1854.00, 
1855.00, 
1856.00, 
1857.00, 
1858.00, 
1859.00, 
1860.00, 
1861.00, 
1862.00, 
1863.00, 
1864.00, 
1865.00, 
1866.00, 
1867.00, 
1868.00, 
1869.00, 
1870.00, 
1871.00, 
1872.00, 
1873.00, 
1874.00, 
1875.00, 
1876.00, 
1877.00, 
1878.00, 
1879.00, 
1880.00, 
1881.00, 
1882.00, 
1883.00, 
1884.00, 
1885.00, 
1886.00, 
1887.00, 
1888.00, 
1889.00, 
1890.00, 
1891.00, 
1892.00, 
1893.00, 
1894.00, 
1895.00, 
1896.00, 
1897.00, 
1898.00, 
1899.00, 
1900.00, 
1901.00, 
1902.00, 
1903.00, 
1904.00, 
1905.00, 
1906.00, 
1907.00, 
1908.00, 
1909.00, 
1910.00, 
1911.00, 
1912.00, 
1913.00, 
1914.00, 
1915.00, 
1916.00, 
1917.00, 
1918.00, 
1919.00, 
1920.00, 
1921.00, 
1922.00, 
1923.00, 
1924.00, 
1925.00, 
1926.00, 
1927.00, 
1928.00, 
1929.00, 
1930.00, 
1931.00, 
1932.00, 
1933.00, 
1934.00, 
1935.00, 
1936.00, 
1937.00, 
1938.00, 
1939.00, 
1940.00, 
1941.00, 
1942.00, 
1943.00, 
1944.00, 
1945.00, 
1946.00, 
1947.00, 
1948.00, 
1949.00, 
1950.00, 
1951.00, 
1952.00, 
1953.00, 
1954.00, 
1955.00, 
1956.00, 
1957.00, 
1958.00, 
1959.00, 
1960.00, 
1961.00, 
1962.00, 
1963.00, 
1964.00, 
1965.00, 
1966.00, 
1967.00, 
1968.00, 
1969.00, 
1970.00, 
1971.00, 
1972.00, 
1973.00, 
1974.00, 
1975.00, 
1976.00, 
1977.00, 
1978.00, 
1979.00, 
1980.00, 
1981.00, 
1982.00, 
1983.00, 
1984.00, 
1985.00, 
1986.00, 
1987.00, 
1988.00, 
1989.00, 
1990.00, 
1991.00, 
1992.00, 
1993.00, 
1994.00, 
1995.00, 
1996.00, 
1997.00, 
1998.00, 
1999.00, 
2000.00, 
2001.00, 
2002.00, 
2003.00, 
2004.00, 
2005.00, 
2006.00, 
2007.00, 
2008.00, 
2009.00, 
2010.00, 
2011.00, 
2012.00, 
2013.00, 
2014.00, 
2015.00, 
2016.00, 
2017.00, 
2018.00, 
2019.00, 
2020.00, 
2021.00, 
2022.00, 
2023.00, 
2024.00, 
2025.00, 
2026.00, 
2027.00, 
2028.00, 
2029.00, 
2030.00, 
2031.00, 
2032.00, 
2033.00, 
2034.00, 
2035.00, 
2036.00, 
2037.00, 
2038.00, 
2039.00, 
2040.00, 
2041.00, 
2042.00, 
2043.00, 
2044.00, 
2045.00, 
2046.00, 
2047.00, 
2048.00, 
2049.00, 
2050.00, 
2051.00, 
2052.00, 
2053.00, 
2054.00, 
2055.00, 
2056.00, 
2057.00, 
2058.00, 
2059.00, 
2060.00, 
2061.00, 
2062.00, 
2063.00, 
2064.00, 
2065.00, 
2066.00, 
2067.00, 
2068.00, 
2069.00, 
2070.00, 
2071.00, 
2072.00, 
2073.00, 
2074.00, 
2075.00, 
2076.00, 
2077.00, 
2078.00, 
2079.00, 
2080.00, 
2081.00, 
2082.00, 
2083.00, 
2084.00, 
2085.00, 
2086.00, 
2087.00, 
2088.00, 
2089.00, 
2090.00, 
2091.00, 
2092.00, 
2093.00, 
2094.00, 
2095.00, 
2096.00, 
2097.00, 
2098.00, 
2099.00, 
2100.00, 
2101.00, 
2102.00, 
2103.00, 
2104.00, 
2105.00, 
2106.00, 
2107.00, 
2108.00, 
2109.00, 
2110.00, 
2111.00, 
2112.00, 
2113.00, 
2114.00, 
2115.00, 
2116.00, 
2117.00, 
2118.00, 
2119.00, 
2120.00, 
2121.00, 
2122.00, 
2123.00, 
2124.00, 
2125.00, 
2126.00, 
2127.00, 
2128.00, 
2129.00, 
2130.00, 
2131.00, 
2132.00, 
2133.00, 
2134.00, 
2135.00, 
2136.00, 
2137.00, 
2138.00, 
2139.00, 
2140.00, 
2141.00, 
2142.00, 
2143.00, 
2144.00, 
2145.00, 
2146.00, 
2147.00, 
2148.00, 
2149.00, 
2150.00, 
2151.00, 
2152.00, 
2153.00, 
2154.00, 
2155.00, 
2156.00, 
2157.00, 
2158.00, 
2159.00, 
2160.00, 
2161.00, 
2162.00, 
2163.00, 
2164.00, 
2165.00, 
2166.00, 
2167.00, 
2168.00, 
2169.00, 
2170.00, 
2171.00, 
2172.00, 
2173.00, 
2174.00, 
2175.00, 
2176.00, 
2177.00, 
2178.00, 
2179.00, 
2180.00, 
2181.00, 
2182.00, 
2183.00, 
2184.00, 
2185.00, 
2186.00, 
2187.00, 
2188.00, 
2189.00, 
2190.00, 
2191.00, 
2192.00, 
2193.00, 
2194.00, 
2195.00, 
2196.00, 
2197.00, 
2198.00, 
2199.00, 
2200.00, 
2201.00, 
2202.00, 
2203.00, 
2204.00, 
2205.00, 
2206.00, 
2207.00, 
2208.00, 
2209.00, 
2210.00, 
2211.00, 
2212.00, 
2213.00, 
2214.00, 
2215.00, 
2216.00, 
2217.00, 
2218.00, 
2219.00, 
2220.00, 
2221.00, 
2222.00, 
2223.00, 
2224.00, 
2225.00, 
2226.00, 
2227.00, 
2228.00, 
2229.00, 
2230.00, 
2231.00, 
2232.00, 
2233.00, 
2234.00, 
2235.00, 
2236.00, 
2237.00, 
2238.00, 
2239.00, 
2240.00, 
2241.00, 
2242.00, 
2243.00, 
2244.00, 
2245.00, 
2246.00, 
2247.00, 
2248.00, 
2249.00, 
2250.00, 
2251.00, 
2252.00, 
2253.00, 
2254.00, 
2255.00, 
2256.00, 
2257.00, 
2258.00, 
2259.00, 
2260.00, 
2261.00, 
2262.00, 
2263.00, 
2264.00, 
2265.00, 
2266.00, 
2267.00, 
2268.00, 
2269.00, 
2270.00, 
2271.00, 
2272.00, 
2273.00, 
2274.00, 
2275.00, 
2276.00, 
2277.00, 
2278.00, 
2279.00, 
2280.00, 
2281.00, 
2282.00, 
2283.00, 
2284.00, 
2285.00, 
2286.00, 
2287.00, 
2288.00, 
2289.00, 
2290.00, 
2291.00, 
2292.00, 
2293.00, 
2294.00, 
2295.00, 
2296.00, 
2297.00, 
2298.00, 
2299.00, 
2300.00, 
2301.00, 
2302.00, 
2303.00, 
2304.00, 
2305.00, 
2306.00, 
2307.00, 
2308.00, 
2309.00, 
2310.00, 
2311.00, 
2312.00, 
2313.00, 
2314.00, 
2315.00, 
2316.00, 
2317.00, 
2318.00, 
2319.00, 
2320.00, 
2321.00, 
2322.00, 
2323.00, 
2324.00, 
2325.00, 
2326.00, 
2327.00, 
2328.00, 
2329.00, 
2330.00, 
2331.00, 
2332.00, 
2333.00, 
2334.00, 
2335.00, 
2336.00, 
2337.00, 
2338.00, 
2339.00, 
2340.00, 
2341.00, 
2342.00, 
2343.00, 
2344.00, 
2345.00, 
2346.00, 
2347.00, 
2348.00, 
2349.00, 
2350.00, 
2351.00, 
2352.00, 
2353.00, 
2354.00, 
2355.00, 
2356.00, 
2357.00, 
2358.00, 
2359.00, 
2360.00, 
2361.00, 
2362.00, 
2363.00, 
2364.00, 
2365.00, 
2366.00, 
2367.00, 
2368.00, 
2369.00, 
2370.00, 
2371.00, 
2372.00, 
2373.00, 
2374.00, 
2375.00, 
2376.00, 
2377.00, 
2378.00, 
2379.00, 
2380.00, 
2381.00, 
2382.00, 
2383.00, 
2384.00, 
2385.00, 
2386.00, 
2387.00, 
2388.00, 
2389.00, 
2390.00, 
2391.00, 
2392.00, 
2393.00, 
2394.00, 
2395.00, 
2396.00, 
2397.00, 
2398.00, 
2399.00, 
2400.00, 
2401.00, 
2402.00, 
2403.00, 
2404.00, 
2405.00, 
2406.00, 
2407.00, 
2408.00, 
2409.00, 
2410.00, 
2411.00, 
2412.00, 
2413.00, 
2414.00, 
2415.00, 
2416.00, 
2417.00, 
2418.00, 
2419.00, 
2420.00, 
2421.00, 
2422.00, 
2423.00, 
2424.00, 
2425.00, 
2426.00, 
2427.00, 
2428.00, 
2429.00, 
2430.00, 
2431.00, 
2432.00, 
2433.00, 
2434.00, 
2435.00, 
2436.00, 
2437.00, 
2438.00, 
2439.00, 
2440.00, 
2441.00, 
2442.00, 
2443.00, 
2444.00, 
2445.00, 
2446.00, 
2447.00, 
2448.00, 
2449.00, 
2450.00, 
2451.00, 
2452.00, 
2453.00, 
2454.00, 
2455.00, 
2456.00, 
2457.00, 
2458.00, 
2459.00, 
2460.00, 
2461.00, 
2462.00, 
2463.00, 
2464.00, 
2465.00, 
2466.00, 
2467.00, 
2468.00, 
2469.00, 
2470.00, 
2471.00, 
2472.00, 
2473.00, 
2474.00, 
2475.00, 
2476.00, 
2477.00, 
2478.00, 
2479.00, 
2480.00, 
2481.00, 
2482.00, 
2483.00, 
2484.00, 
2485.00, 
2486.00, 
2487.00, 
2488.00, 
2489.00, 
2490.00, 
2491.00, 
2492.00, 
2493.00, 
2494.00, 
2495.00, 
2496.00, 
2497.00, 
2498.00, 
2499.00, 
2500.00, 
2501.00, 
2502.00, 
2503.00, 
2504.00, 
2505.00, 
2506.00, 
2507.00, 
2508.00, 
2509.00, 
2510.00, 
2511.00, 
2512.00, 
2513.00, 
2514.00, 
2515.00, 
2516.00, 
2517.00, 
2518.00, 
2519.00, 
2520.00, 
2521.00, 
2522.00, 
2523.00, 
2524.00, 
2525.00, 
2526.00, 
2527.00, 
2528.00, 
2529.00, 
2530.00, 
2531.00, 
2532.00, 
2533.00, 
2534.00, 
2535.00, 
2536.00, 
2537.00, 
2538.00, 
2539.00, 
2540.00, 
2541.00, 
2542.00, 
2543.00, 
2544.00, 
2545.00, 
2546.00, 
2547.00, 
2548.00, 
2549.00, 
2550.00, 
2551.00, 
2552.00, 
2553.00, 
2554.00, 
2555.00, 
2556.00, 
2557.00, 
2558.00, 
2559.00, 
2560.00, 
2561.00, 
2562.00, 
2563.00, 
2564.00, 
2565.00, 
2566.00, 
2567.00, 
2568.00, 
2569.00, 
2570.00, 
2571.00, 
2572.00, 
2573.00, 
2574.00, 
2575.00, 
2576.00, 
2577.00, 
2578.00, 
2579.00, 
2580.00, 
2581.00, 
2582.00, 
2583.00, 
2584.00, 
2585.00, 
2586.00, 
2587.00, 
2588.00, 
2589.00, 
2590.00, 
2591.00, 
2592.00, 
2593.00, 
2594.00, 
2595.00, 
2596.00, 
2597.00, 
2598.00, 
2599.00, 
2600.00, 
