"1cP3 - RawData"
"Wavelength nm.","T%"
200.00,0.003
201.00,0.000
202.00,0.004
203.00,0.002
204.00,0.002
205.00,-0.000
206.00,0.001
207.00,-0.001
208.00,0.000
209.00,0.004
210.00,0.004
211.00,-0.000
212.00,0.001
213.00,0.002
214.00,0.000
215.00,0.003
216.00,-0.000
217.00,0.000
218.00,-0.001
219.00,0.005
220.00,0.000
221.00,-0.001
222.00,0.000
223.00,0.001
224.00,0.001
225.00,0.001
226.00,-0.002
227.00,0.000
228.00,0.001
229.00,0.001
230.00,-0.000
231.00,-0.000
232.00,0.001
233.00,0.002
234.00,0.001
235.00,0.003
236.00,0.002
237.00,0.001
238.00,0.002
239.00,0.002
240.00,-0.001
241.00,0.002
242.00,0.002
243.00,0.002
244.00,0.000
245.00,0.000
246.00,0.001
247.00,0.001
248.00,-0.000
249.00,0.000
250.00,0.001
251.00,0.001
252.00,0.001
253.00,-0.000
254.00,0.000
255.00,0.001
256.00,-0.000
257.00,0.001
258.00,0.001
259.00,0.000
260.00,-0.001
261.00,0.001
262.00,0.001
263.00,0.001
264.00,0.001
265.00,0.002
266.00,-0.001
267.00,-0.001
268.00,-0.001
269.00,0.002
270.00,0.001
271.00,0.001
272.00,0.002
273.00,0.001
274.00,0.001
275.00,0.001
276.00,0.000
277.00,-0.001
278.00,0.001
279.00,-0.001
280.00,0.001
281.00,0.000
282.00,0.001
283.00,0.001
284.00,-0.001
285.00,0.001
286.00,0.001
287.00,0.001
288.00,0.001
289.00,0.002
290.00,0.000
291.00,-0.000
292.00,-0.000
293.00,-0.000
294.00,-0.001
295.00,0.000
296.00,0.000
297.00,0.000
298.00,0.000
299.00,0.002
300.00,0.001
301.00,0.001
302.00,-0.001
303.00,0.001
304.00,0.002
305.00,0.003
306.00,0.004
307.00,0.002
308.00,0.008
309.00,0.018
310.00,0.024
311.00,0.041
312.00,0.062
313.00,0.093
314.00,0.136
315.00,0.202
316.00,0.285
317.00,0.402
318.00,0.553
319.00,0.754
320.00,1.001
321.00,1.310
322.00,1.640
323.00,2.067
324.00,2.560
325.00,3.153
326.00,3.741
327.00,4.470
328.00,5.215
329.00,6.031
330.00,6.917
331.00,7.844
332.00,8.855
333.00,9.905
334.00,10.877
335.00,11.974
336.00,13.095
337.00,14.285
338.00,15.396
339.00,16.480
340.00,17.554
341.00,18.674
342.00,19.693
343.00,20.731
344.00,21.718
345.00,22.674
346.00,23.607
347.00,24.470
348.00,25.317
349.00,26.109
350.00,26.918
351.00,27.572
352.00,28.273
353.00,28.887
354.00,29.481
355.00,30.097
356.00,30.631
357.00,31.154
358.00,31.577
359.00,32.128
360.00,32.588
361.00,32.932
362.00,33.265
363.00,33.660
364.00,33.892
365.00,34.098
366.00,34.324
367.00,34.580
368.00,34.743
369.00,34.931
370.00,35.123
371.00,35.162
372.00,35.208
373.00,35.361
374.00,35.353
375.00,35.279
376.00,35.254
377.00,35.207
378.00,35.118
379.00,34.987
380.00,35.055
381.00,35.064
382.00,35.188
383.00,35.250
384.00,35.415
385.00,35.557
386.00,35.707
387.00,35.901
388.00,36.134
389.00,36.185
390.00,36.346
391.00,36.534
392.00,36.629
393.00,36.673
394.00,36.788
395.00,36.878
396.00,36.904
397.00,36.960
398.00,37.048
399.00,37.083
400.00,37.165
401.00,37.210
402.00,37.232
403.00,37.225
404.00,37.269
405.00,37.210
406.00,37.217
407.00,37.204
408.00,37.284
409.00,37.164
410.00,37.074
411.00,37.044
412.00,37.074
413.00,37.090
414.00,37.067
415.00,37.088
416.00,37.112
417.00,37.024
418.00,37.071
419.00,37.159
420.00,37.177
421.00,37.220
422.00,37.268
423.00,37.263
424.00,37.281
425.00,37.306
426.00,37.323
427.00,37.402
428.00,37.398
429.00,37.464
430.00,37.489
431.00,37.535
432.00,37.532
433.00,37.514
434.00,37.601
435.00,37.647
436.00,37.694
437.00,37.736
438.00,37.813
439.00,37.852
440.00,37.931
441.00,37.959
442.00,38.006
443.00,38.059
444.00,38.174
445.00,38.193
446.00,38.293
447.00,38.337
448.00,38.375
449.00,38.484
450.00,38.548
451.00,38.574
452.00,38.767
453.00,38.877
454.00,38.950
455.00,39.019
456.00,39.131
457.00,39.212
458.00,39.246
459.00,39.362
460.00,39.517
461.00,39.532
462.00,39.582
463.00,39.706
464.00,39.720
465.00,39.890
466.00,40.027
467.00,40.120
468.00,40.092
469.00,40.139
470.00,40.245
471.00,40.335
472.00,40.386
473.00,40.459
474.00,40.561
475.00,40.597
476.00,40.697
477.00,40.805
478.00,40.848
479.00,41.066
480.00,41.116
481.00,41.221
482.00,41.307
483.00,41.419
484.00,41.510
485.00,41.656
486.00,41.774
487.00,41.894
488.00,42.025
489.00,42.104
490.00,42.235
491.00,42.266
492.00,42.349
493.00,42.503
494.00,42.619
495.00,42.558
496.00,42.647
497.00,42.743
498.00,42.838
499.00,42.903
500.00,43.029
501.00,43.054
502.00,43.147
503.00,43.257
504.00,43.267
505.00,43.342
506.00,43.444
507.00,43.549
508.00,43.628
509.00,43.786
510.00,43.912
511.00,43.916
512.00,44.027
513.00,44.143
514.00,44.245
515.00,44.341
516.00,44.309
517.00,44.347
518.00,44.549
519.00,44.508
520.00,44.472
521.00,44.654
522.00,44.752
523.00,44.757
524.00,44.886
525.00,44.951
526.00,45.079
527.00,45.096
528.00,45.095
529.00,45.242
530.00,45.347
531.00,45.427
532.00,45.464
533.00,45.568
534.00,45.580
535.00,45.712
536.00,45.667
537.00,45.751
538.00,45.852
539.00,45.856
540.00,45.935
541.00,45.985
542.00,45.989
543.00,46.069
544.00,46.144
545.00,46.144
546.00,46.131
547.00,46.294
548.00,46.340
549.00,46.364
550.00,46.441
551.00,46.523
552.00,46.561
553.00,46.545
554.00,46.651
555.00,46.611
556.00,46.708
557.00,46.811
558.00,46.748
559.00,46.878
560.00,46.964
561.00,46.892
562.00,46.943
563.00,47.103
564.00,47.075
565.00,47.078
566.00,47.100
567.00,47.098
568.00,47.140
569.00,47.260
570.00,47.190
571.00,47.238
572.00,47.247
573.00,47.144
574.00,47.241
575.00,47.261
576.00,47.258
577.00,47.293
578.00,47.405
579.00,47.448
580.00,47.443
581.00,47.614
582.00,47.698
583.00,47.651
584.00,47.705
585.00,47.817
586.00,47.810
587.00,47.844
588.00,47.825
589.00,47.827
590.00,48.005
591.00,48.026
592.00,47.958
593.00,47.920
594.00,48.089
595.00,48.163
596.00,48.093
597.00,48.188
598.00,48.266
599.00,48.214
600.00,48.196
601.00,48.233
602.00,48.260
603.00,48.327
604.00,48.332
605.00,48.440
606.00,48.408
607.00,48.394
608.00,48.403
609.00,48.464
610.00,48.634
611.00,48.437
612.00,48.444
613.00,48.509
614.00,48.507
615.00,48.528
616.00,48.674
617.00,48.592
618.00,48.538
619.00,48.576
620.00,48.627
621.00,48.702
622.00,48.689
623.00,48.750
624.00,48.802
625.00,48.815
626.00,48.829
627.00,48.856
628.00,48.846
629.00,48.884
630.00,48.870
631.00,48.877
632.00,48.965
633.00,48.982
634.00,49.117
635.00,49.147
636.00,49.001
637.00,49.039
638.00,49.204
639.00,49.346
640.00,49.229
641.00,49.230
642.00,49.224
643.00,49.279
644.00,49.292
645.00,49.302
646.00,49.444
647.00,49.503
648.00,49.464
649.00,49.419
650.00,49.418
651.00,49.571
652.00,49.661
653.00,49.559
654.00,49.533
655.00,49.705
656.00,49.889
657.00,49.703
658.00,49.744
659.00,49.885
660.00,49.720
661.00,49.712
662.00,49.824
663.00,49.962
664.00,50.320
665.00,50.158
666.00,50.066
667.00,50.180
668.00,49.981
669.00,50.194
670.00,50.437
671.00,49.967
672.00,50.370
673.00,50.569
674.00,50.238
675.00,50.253
676.00,50.465
677.00,50.497
678.00,50.330
679.00,50.407
680.00,50.562
681.00,50.676
682.00,50.440
683.00,50.370
684.00,50.617
685.00,50.606
686.00,50.487
687.00,50.545
688.00,50.524
689.00,50.583
690.00,50.817
691.00,50.907
692.00,50.683
693.00,50.587
694.00,50.715
695.00,50.930
696.00,50.774
697.00,50.671
698.00,50.783
699.00,50.698
700.00,50.534
701.00,50.799
702.00,50.820
703.00,51.018
704.00,51.025
705.00,50.847
706.00,50.912
707.00,50.986
708.00,50.822
709.00,51.068
710.00,51.396
711.00,50.910
712.00,50.915
713.00,50.868
714.00,50.949
715.00,51.093
716.00,50.890
717.00,51.065
718.00,51.250
719.00,50.900
720.00,50.841
721.00,55.924
722.00,55.833
723.00,55.766
724.00,55.700
725.00,55.761
726.00,55.622
727.00,55.643
728.00,55.664
729.00,55.552
730.00,55.616
731.00,55.550
732.00,55.557
733.00,55.571
734.00,55.493
735.00,55.476
736.00,55.465
737.00,55.442
738.00,55.383
739.00,55.413
740.00,55.330
741.00,55.350
742.00,55.423
743.00,55.264
744.00,55.278
745.00,55.203
746.00,55.253
747.00,55.035
748.00,55.064
749.00,55.058
750.00,55.027
751.00,54.981
752.00,54.923
753.00,54.888
754.00,54.811
755.00,54.869
756.00,54.766
757.00,54.773
758.00,54.798
759.00,54.695
760.00,54.670
761.00,54.678
762.00,54.661
763.00,54.650
764.00,54.569
765.00,54.586
766.00,54.596
767.00,54.530
768.00,54.569
769.00,54.486
770.00,54.539
771.00,54.394
772.00,54.459
773.00,54.380
774.00,54.431
775.00,54.440
776.00,54.338
777.00,54.437
778.00,54.307
779.00,54.412
780.00,54.231
781.00,54.237
782.00,54.204
783.00,54.275
784.00,54.094
785.00,54.110
786.00,54.141
787.00,54.114
788.00,54.037
789.00,54.055
790.00,53.908
791.00,53.980
792.00,53.868
793.00,53.868
794.00,53.833
795.00,53.794
796.00,53.749
797.00,53.688
798.00,53.764
799.00,53.620
800.00,53.631
801.00,53.623
802.00,53.603
803.00,53.479
804.00,53.429
805.00,53.515
806.00,53.433
807.00,53.434
808.00,53.416
809.00,53.293
810.00,53.429
811.00,53.326
812.00,53.316
813.00,53.236
814.00,53.347
815.00,53.175
816.00,53.191
817.00,53.147
818.00,53.032
819.00,53.034
820.00,53.019
821.00,53.027
822.00,53.041
823.00,52.956
824.00,52.982
825.00,52.880
826.00,52.812
827.00,52.970
828.00,52.895
829.00,52.843
830.00,52.783
831.00,55.164
832.00,55.156
833.00,55.112
834.00,55.124
835.00,55.035
836.00,55.067
837.00,55.002
838.00,54.994
839.00,54.951
840.00,54.845
841.00,54.917
842.00,54.871
843.00,54.835
844.00,54.810
845.00,54.791
846.00,54.743
847.00,54.710
848.00,54.673
849.00,54.634
850.00,54.602
851.00,54.542
852.00,54.527
853.00,54.463
854.00,54.431
855.00,54.374
856.00,54.409
857.00,54.342
858.00,54.294
859.00,54.288
860.00,54.260
861.00,54.280
862.00,54.240
863.00,54.216
864.00,54.183
865.00,54.198
866.00,54.164
867.00,54.166
868.00,54.124
869.00,54.069
870.00,54.080
871.00,54.096
872.00,54.046
873.00,54.039
874.00,54.024
875.00,53.985
876.00,53.973
877.00,53.955
878.00,53.920
879.00,53.904
880.00,53.875
881.00,53.877
882.00,53.877
883.00,53.846
884.00,53.820
885.00,53.732
886.00,53.766
887.00,53.746
888.00,53.730
889.00,53.699
890.00,53.678
891.00,53.645
892.00,53.622
893.00,53.581
894.00,53.585
895.00,53.560
896.00,53.529
897.00,53.493
898.00,53.468
899.00,53.513
900.00,53.459
901.00,53.429
902.00,53.437
903.00,53.395
904.00,53.357
905.00,53.344
906.00,53.344
907.00,53.299
908.00,53.264
909.00,53.245
910.00,53.221
911.00,53.208
912.00,53.215
913.00,53.120
914.00,53.115
915.00,53.110
916.00,53.085
917.00,53.075
918.00,53.051
919.00,53.010
920.00,52.986
921.00,52.993
922.00,52.975
923.00,52.960
924.00,52.934
925.00,52.927
926.00,52.895
927.00,52.935
928.00,52.825
929.00,52.809
930.00,52.788
931.00,52.775
932.00,52.735
933.00,52.738
934.00,52.717
935.00,52.683
936.00,52.663
937.00,52.648
938.00,52.667
939.00,52.637
940.00,52.659
941.00,52.625
942.00,52.556
943.00,52.552
944.00,52.481
945.00,52.522
946.00,52.499
947.00,52.446
948.00,52.423
949.00,52.415
950.00,52.389
951.00,52.362
952.00,52.350
953.00,52.310
954.00,52.284
955.00,52.231
956.00,52.246
957.00,52.197
958.00,52.192
959.00,52.147
960.00,52.145
961.00,52.134
962.00,52.136
963.00,52.074
964.00,52.093
965.00,52.074
966.00,52.052
967.00,52.055
968.00,52.008
969.00,52.033
970.00,52.005
971.00,52.034
972.00,52.017
973.00,52.027
974.00,52.026
975.00,52.008
976.00,52.024
977.00,51.985
978.00,52.040
979.00,51.980
980.00,51.995
981.00,52.000
982.00,51.975
983.00,51.975
984.00,51.952
985.00,51.967
986.00,51.934
987.00,51.982
988.00,51.914
989.00,51.926
990.00,51.908
991.00,51.881
992.00,51.911
993.00,51.869
994.00,51.847
995.00,51.822
996.00,51.816
997.00,51.829
998.00,51.777
999.00,51.794
1000.00,51.758
1001.00,51.746
1002.00,51.729
1003.00,51.740
1004.00,51.729
1005.00,51.696
1006.00,51.725
1007.00,51.687
1008.00,51.684
1009.00,51.641
1010.00,51.622
1011.00,51.643
1012.00,51.590
1013.00,51.608
1014.00,51.547
1015.00,51.585
1016.00,51.541
1017.00,51.526
1018.00,51.511
1019.00,51.505
1020.00,51.494
1021.00,51.481
1022.00,51.479
1023.00,51.422
1024.00,51.428
1025.00,51.408
1026.00,51.396
1027.00,51.368
1028.00,51.361
1029.00,51.347
1030.00,51.323
1031.00,51.329
1032.00,51.271
1033.00,51.293
1034.00,51.264
1035.00,51.230
1036.00,51.205
1037.00,51.196
1038.00,51.185
1039.00,51.140
1040.00,51.141
1041.00,51.114
1042.00,51.093
1043.00,51.064
1044.00,51.115
1045.00,51.091
1046.00,51.081
1047.00,51.104
1048.00,51.137
1049.00,51.142
1050.00,51.132
1051.00,51.199
1052.00,51.166
1053.00,51.160
1054.00,51.134
1055.00,51.176
1056.00,51.185
1057.00,51.186
1058.00,51.183
1059.00,51.183
1060.00,51.188
1061.00,51.158
1062.00,51.164
1063.00,51.189
1064.00,51.169
1065.00,51.150
1066.00,51.144
1067.00,51.133
1068.00,51.137
1069.00,51.105
1070.00,51.095
1071.00,51.065
1072.00,51.096
1073.00,51.078
1074.00,51.091
1075.00,51.060
1076.00,51.059
1077.00,51.054
1078.00,51.015
1079.00,51.021
1080.00,51.023
1081.00,51.023
1082.00,51.026
1083.00,50.994
1084.00,50.992
1085.00,50.997
1086.00,50.994
1087.00,50.967
1088.00,50.969
1089.00,50.950
1090.00,50.947
1091.00,50.952
1092.00,50.945
1093.00,50.928
1094.00,50.911
1095.00,50.903
1096.00,50.912
1097.00,50.918
1098.00,50.903
1099.00,50.884
1100.00,50.865
1101.00,50.845
1102.00,50.845
1103.00,50.857
1104.00,50.833
1105.00,50.813
1106.00,50.792
1107.00,50.819
1108.00,50.789
1109.00,50.769
1110.00,50.784
1111.00,50.761
1112.00,50.741
1113.00,50.738
1114.00,50.745
1115.00,50.744
1116.00,50.737
1117.00,50.728
1118.00,50.730
1119.00,50.719
1120.00,50.685
1121.00,50.715
1122.00,50.687
1123.00,50.685
1124.00,50.680
1125.00,50.670
1126.00,50.666
1127.00,50.658
1128.00,50.645
1129.00,50.648
1130.00,50.641
1131.00,50.621
1132.00,50.616
1133.00,50.602
1134.00,50.609
1135.00,50.605
1136.00,50.593
1137.00,50.599
1138.00,50.593
1139.00,50.591
1140.00,50.626
1141.00,50.602
1142.00,50.578
1143.00,50.618
1144.00,50.578
1145.00,50.574
1146.00,50.577
1147.00,50.564
1148.00,50.557
1149.00,50.570
1150.00,50.555
1151.00,50.584
1152.00,50.568
1153.00,50.549
1154.00,50.549
1155.00,50.538
1156.00,50.550
1157.00,50.550
1158.00,50.546
1159.00,50.565
1160.00,50.524
1161.00,50.540
1162.00,50.549
1163.00,50.552
1164.00,50.524
1165.00,50.532
1166.00,50.526
1167.00,50.511
1168.00,50.533
1169.00,50.520
1170.00,50.527
1171.00,50.489
1172.00,50.491
1173.00,50.515
1174.00,50.515
1175.00,50.494
1176.00,50.515
1177.00,50.492
1178.00,50.485
1179.00,50.499
1180.00,50.505
1181.00,50.509
1182.00,50.482
1183.00,50.492
1184.00,50.488
1185.00,50.500
1186.00,50.468
1187.00,50.506
1188.00,50.495
1189.00,50.506
1190.00,50.470
1191.00,50.476
1192.00,50.504
1193.00,50.474
1194.00,50.488
1195.00,50.460
1196.00,50.477
1197.00,50.475
1198.00,50.480
1199.00,50.479
1200.00,50.487
1201.00,50.492
1202.00,50.484
1203.00,50.497
1204.00,50.500
1205.00,50.530
1206.00,50.495
1207.00,50.508
1208.00,50.472
1209.00,50.492
1210.00,50.506
1211.00,50.500
1212.00,50.503
1213.00,50.461
1214.00,50.494
1215.00,50.473
1216.00,50.469
1217.00,50.500
1218.00,50.493
1219.00,50.469
1220.00,50.474
1221.00,50.503
1222.00,50.481
1223.00,50.505
1224.00,50.511
1225.00,50.514
1226.00,50.491
1227.00,50.482
1228.00,50.531
1229.00,50.528
1230.00,50.525
1231.00,50.533
1232.00,50.568
1233.00,50.540
1234.00,50.569
1235.00,50.597
1236.00,50.568
1237.00,50.553
1238.00,50.572
1239.00,50.593
1240.00,50.565
1241.00,50.561
1242.00,50.579
1243.00,50.608
1244.00,50.578
1245.00,50.612
1246.00,50.612
1247.00,50.603
1248.00,50.606
1249.00,50.630
1250.00,50.655
1251.00,50.618
1252.00,50.622
1253.00,50.625
1254.00,50.649
1255.00,50.652
1256.00,50.620
1257.00,50.606
1258.00,50.665
1259.00,50.644
1260.00,50.668
1261.00,50.670
1262.00,50.663
1263.00,50.645
1264.00,50.677
1265.00,50.684
1266.00,50.678
1267.00,50.696
1268.00,50.704
1269.00,50.707
1270.00,50.725
1271.00,50.722
1272.00,50.735
1273.00,50.737
1274.00,50.732
1275.00,50.743
1276.00,50.739
1277.00,50.751
1278.00,50.772
1279.00,50.771
1280.00,50.772
1281.00,50.783
1282.00,50.790
1283.00,50.814
1284.00,50.819
1285.00,50.789
1286.00,50.829
1287.00,50.805
1288.00,50.827
1289.00,50.802
1290.00,50.824
1291.00,50.857
1292.00,50.819
1293.00,50.840
1294.00,50.860
1295.00,50.882
1296.00,50.884
1297.00,50.899
1298.00,50.925
1299.00,50.891
1300.00,50.911
1301.00,50.903
1302.00,50.941
1303.00,50.915
1304.00,50.910
1305.00,50.960
1306.00,50.949
1307.00,50.951
1308.00,50.971
1309.00,50.975
1310.00,50.977
1311.00,50.968
1312.00,50.980
1313.00,50.999
1314.00,51.011
1315.00,51.032
1316.00,51.060
1317.00,51.051
1318.00,51.044
1319.00,51.056
1320.00,51.065
1321.00,51.223
1322.00,51.207
1323.00,51.178
1324.00,51.188
1325.00,51.169
1326.00,51.184
1327.00,51.198
1328.00,51.206
1329.00,51.197
1330.00,51.205
1331.00,51.197
1332.00,51.228
1333.00,51.246
1334.00,51.223
1335.00,51.288
1336.00,51.295
1337.00,51.351
1338.00,51.400
1339.00,51.428
1340.00,51.496
1341.00,51.554
1342.00,51.612
1343.00,51.655
1344.00,51.706
1345.00,51.749
1346.00,51.803
1347.00,51.833
1348.00,51.856
1349.00,51.876
1350.00,51.871
1351.00,51.892
1352.00,51.898
1353.00,51.914
1354.00,51.935
1355.00,52.061
1356.00,51.957
1357.00,51.954
1358.00,51.965
1359.00,52.005
1360.00,52.018
1361.00,52.044
1362.00,51.946
1363.00,52.071
1364.00,52.168
1365.00,52.012
1366.00,52.063
1367.00,52.005
1368.00,51.951
1369.00,52.001
1370.00,51.962
1371.00,51.969
1372.00,51.977
1373.00,52.018
1374.00,52.040
1375.00,51.997
1376.00,52.003
1377.00,51.991
1378.00,52.005
1379.00,52.002
1380.00,52.032
1381.00,51.999
1382.00,52.054
1383.00,52.011
1384.00,52.043
1385.00,51.987
1386.00,51.938
1387.00,51.980
1388.00,51.995
1389.00,51.931
1390.00,52.056
1391.00,52.030
1392.00,52.019
1393.00,52.020
1394.00,52.030
1395.00,52.015
1396.00,51.975
1397.00,51.927
1398.00,52.037
1399.00,51.997
1400.00,51.919
1401.00,52.002
1402.00,52.041
1403.00,52.006
1404.00,52.056
1405.00,52.062
1406.00,52.111
1407.00,52.120
1408.00,52.136
1409.00,52.082
1410.00,52.141
1411.00,52.141
1412.00,52.174
1413.00,52.130
1414.00,52.157
1415.00,52.193
1416.00,52.245
1417.00,52.208
1418.00,52.208
1419.00,52.222
1420.00,52.236
1421.00,52.260
1422.00,52.247
1423.00,52.277
1424.00,52.294
1425.00,52.323
1426.00,52.335
1427.00,52.346
1428.00,52.353
1429.00,52.402
1430.00,52.364
1431.00,52.411
1432.00,52.438
1433.00,52.442
1434.00,52.444
1435.00,52.506
1436.00,52.512
1437.00,52.495
1438.00,52.513
1439.00,52.564
1440.00,52.575
1441.00,52.581
1442.00,52.608
1443.00,52.654
1444.00,52.656
1445.00,52.659
1446.00,52.686
1447.00,52.706
1448.00,52.748
1449.00,52.723
1450.00,52.752
1451.00,52.763
1452.00,52.772
1453.00,52.777
1454.00,52.804
1455.00,52.818
1456.00,52.850
1457.00,52.866
1458.00,52.897
1459.00,52.918
1460.00,52.926
1461.00,52.926
1462.00,52.965
1463.00,52.950
1464.00,52.968
1465.00,52.994
1466.00,52.993
1467.00,53.031
1468.00,53.080
1469.00,53.069
1470.00,53.112
1471.00,53.117
1472.00,53.129
1473.00,53.158
1474.00,53.151
1475.00,53.183
1476.00,53.214
1477.00,53.180
1478.00,53.234
1479.00,53.241
1480.00,53.248
1481.00,53.268
1482.00,53.278
1483.00,53.316
1484.00,53.344
1485.00,53.337
1486.00,53.340
1487.00,53.371
1488.00,53.368
1489.00,53.374
1490.00,53.394
1491.00,53.410
1492.00,53.443
1493.00,53.415
1494.00,53.458
1495.00,53.484
1496.00,53.474
1497.00,53.474
1498.00,53.503
1499.00,53.489
1500.00,53.528
1501.00, 
1502.00, 
1503.00, 
1504.00, 
1505.00, 
1506.00, 
1507.00, 
1508.00, 
1509.00, 
1510.00, 
1511.00, 
1512.00, 
1513.00, 
1514.00, 
1515.00, 
1516.00, 
1517.00, 
1518.00, 
1519.00, 
1520.00, 
1521.00, 
1522.00, 
1523.00, 
1524.00, 
1525.00, 
1526.00, 
1527.00, 
1528.00, 
1529.00, 
1530.00, 
1531.00, 
1532.00, 
1533.00, 
1534.00, 
1535.00, 
1536.00, 
1537.00, 
1538.00, 
1539.00, 
1540.00, 
1541.00, 
1542.00, 
1543.00, 
1544.00, 
1545.00, 
1546.00, 
1547.00, 
1548.00, 
1549.00, 
1550.00, 
1551.00, 
1552.00, 
1553.00, 
1554.00, 
1555.00, 
1556.00, 
1557.00, 
1558.00, 
1559.00, 
1560.00, 
1561.00, 
1562.00, 
1563.00, 
1564.00, 
1565.00, 
1566.00, 
1567.00, 
1568.00, 
1569.00, 
1570.00, 
1571.00, 
1572.00, 
1573.00, 
1574.00, 
1575.00, 
1576.00, 
1577.00, 
1578.00, 
1579.00, 
1580.00, 
1581.00, 
1582.00, 
1583.00, 
1584.00, 
1585.00, 
1586.00, 
1587.00, 
1588.00, 
1589.00, 
1590.00, 
1591.00, 
1592.00, 
1593.00, 
1594.00, 
1595.00, 
1596.00, 
1597.00, 
1598.00, 
1599.00, 
1600.00, 
1601.00, 
1602.00, 
1603.00, 
1604.00, 
1605.00, 
1606.00, 
1607.00, 
1608.00, 
1609.00, 
1610.00, 
1611.00, 
1612.00, 
1613.00, 
1614.00, 
1615.00, 
1616.00, 
1617.00, 
1618.00, 
1619.00, 
1620.00, 
1621.00, 
1622.00, 
1623.00, 
1624.00, 
1625.00, 
1626.00, 
1627.00, 
1628.00, 
1629.00, 
1630.00, 
1631.00, 
1632.00, 
1633.00, 
1634.00, 
1635.00, 
1636.00, 
1637.00, 
1638.00, 
1639.00, 
1640.00, 
1641.00, 
1642.00, 
1643.00, 
1644.00, 
1645.00, 
1646.00, 
1647.00, 
1648.00, 
1649.00, 
1650.00, 
1651.00, 
1652.00, 
1653.00, 
1654.00, 
1655.00, 
1656.00, 
1657.00, 
1658.00, 
1659.00, 
1660.00, 
1661.00, 
1662.00, 
1663.00, 
1664.00, 
1665.00, 
1666.00, 
1667.00, 
1668.00, 
1669.00, 
1670.00, 
1671.00, 
1672.00, 
1673.00, 
1674.00, 
1675.00, 
1676.00, 
1677.00, 
1678.00, 
1679.00, 
1680.00, 
1681.00, 
1682.00, 
1683.00, 
1684.00, 
1685.00, 
1686.00, 
1687.00, 
1688.00, 
1689.00, 
1690.00, 
1691.00, 
1692.00, 
1693.00, 
1694.00, 
1695.00, 
1696.00, 
1697.00, 
1698.00, 
1699.00, 
1700.00, 
1701.00, 
1702.00, 
1703.00, 
1704.00, 
1705.00, 
1706.00, 
1707.00, 
1708.00, 
1709.00, 
1710.00, 
1711.00, 
1712.00, 
1713.00, 
1714.00, 
1715.00, 
1716.00, 
1717.00, 
1718.00, 
1719.00, 
1720.00, 
1721.00, 
1722.00, 
1723.00, 
1724.00, 
1725.00, 
1726.00, 
1727.00, 
1728.00, 
1729.00, 
1730.00, 
1731.00, 
1732.00, 
1733.00, 
1734.00, 
1735.00, 
1736.00, 
1737.00, 
1738.00, 
1739.00, 
1740.00, 
1741.00, 
1742.00, 
1743.00, 
1744.00, 
1745.00, 
1746.00, 
1747.00, 
1748.00, 
1749.00, 
1750.00, 
1751.00, 
1752.00, 
1753.00, 
1754.00, 
1755.00, 
1756.00, 
1757.00, 
1758.00, 
1759.00, 
1760.00, 
1761.00, 
1762.00, 
1763.00, 
1764.00, 
1765.00, 
1766.00, 
1767.00, 
1768.00, 
1769.00, 
1770.00, 
1771.00, 
1772.00, 
1773.00, 
1774.00, 
1775.00, 
1776.00, 
1777.00, 
1778.00, 
1779.00, 
1780.00, 
1781.00, 
1782.00, 
1783.00, 
1784.00, 
1785.00, 
1786.00, 
1787.00, 
1788.00, 
1789.00, 
1790.00, 
1791.00, 
1792.00, 
1793.00, 
1794.00, 
1795.00, 
1796.00, 
1797.00, 
1798.00, 
1799.00, 
1800.00, 
1801.00, 
1802.00, 
1803.00, 
1804.00, 
1805.00, 
1806.00, 
1807.00, 
1808.00, 
1809.00, 
1810.00, 
1811.00, 
1812.00, 
1813.00, 
1814.00, 
1815.00, 
1816.00, 
1817.00, 
1818.00, 
1819.00, 
1820.00, 
1821.00, 
1822.00, 
1823.00, 
1824.00, 
1825.00, 
1826.00, 
1827.00, 
1828.00, 
1829.00, 
1830.00, 
1831.00, 
1832.00, 
1833.00, 
1834.00, 
1835.00, 
1836.00, 
1837.00, 
1838.00, 
1839.00, 
1840.00, 
1841.00, 
1842.00, 
1843.00, 
1844.00, 
1845.00, 
1846.00, 
1847.00, 
1848.00, 
1849.00, 
1850.00, 
1851.00, 
1852.00, 
1853.00, 
1854.00, 
1855.00, 
1856.00, 
1857.00, 
1858.00, 
1859.00, 
1860.00, 
1861.00, 
1862.00, 
1863.00, 
1864.00, 
1865.00, 
1866.00, 
1867.00, 
1868.00, 
1869.00, 
1870.00, 
1871.00, 
1872.00, 
1873.00, 
1874.00, 
1875.00, 
1876.00, 
1877.00, 
1878.00, 
1879.00, 
1880.00, 
1881.00, 
1882.00, 
1883.00, 
1884.00, 
1885.00, 
1886.00, 
1887.00, 
1888.00, 
1889.00, 
1890.00, 
1891.00, 
1892.00, 
1893.00, 
1894.00, 
1895.00, 
1896.00, 
1897.00, 
1898.00, 
1899.00, 
1900.00, 
1901.00, 
1902.00, 
1903.00, 
1904.00, 
1905.00, 
1906.00, 
1907.00, 
1908.00, 
1909.00, 
1910.00, 
1911.00, 
1912.00, 
1913.00, 
1914.00, 
1915.00, 
1916.00, 
1917.00, 
1918.00, 
1919.00, 
1920.00, 
1921.00, 
1922.00, 
1923.00, 
1924.00, 
1925.00, 
1926.00, 
1927.00, 
1928.00, 
1929.00, 
1930.00, 
1931.00, 
1932.00, 
1933.00, 
1934.00, 
1935.00, 
1936.00, 
1937.00, 
1938.00, 
1939.00, 
1940.00, 
1941.00, 
1942.00, 
1943.00, 
1944.00, 
1945.00, 
1946.00, 
1947.00, 
1948.00, 
1949.00, 
1950.00, 
1951.00, 
1952.00, 
1953.00, 
1954.00, 
1955.00, 
1956.00, 
1957.00, 
1958.00, 
1959.00, 
1960.00, 
1961.00, 
1962.00, 
1963.00, 
1964.00, 
1965.00, 
1966.00, 
1967.00, 
1968.00, 
1969.00, 
1970.00, 
1971.00, 
1972.00, 
1973.00, 
1974.00, 
1975.00, 
1976.00, 
1977.00, 
1978.00, 
1979.00, 
1980.00, 
1981.00, 
1982.00, 
1983.00, 
1984.00, 
1985.00, 
1986.00, 
1987.00, 
1988.00, 
1989.00, 
1990.00, 
1991.00, 
1992.00, 
1993.00, 
1994.00, 
1995.00, 
1996.00, 
1997.00, 
1998.00, 
1999.00, 
2000.00, 
2001.00, 
2002.00, 
2003.00, 
2004.00, 
2005.00, 
2006.00, 
2007.00, 
2008.00, 
2009.00, 
2010.00, 
2011.00, 
2012.00, 
2013.00, 
2014.00, 
2015.00, 
2016.00, 
2017.00, 
2018.00, 
2019.00, 
2020.00, 
2021.00, 
2022.00, 
2023.00, 
2024.00, 
2025.00, 
2026.00, 
2027.00, 
2028.00, 
2029.00, 
2030.00, 
2031.00, 
2032.00, 
2033.00, 
2034.00, 
2035.00, 
2036.00, 
2037.00, 
2038.00, 
2039.00, 
2040.00, 
2041.00, 
2042.00, 
2043.00, 
2044.00, 
2045.00, 
2046.00, 
2047.00, 
2048.00, 
2049.00, 
2050.00, 
2051.00, 
2052.00, 
2053.00, 
2054.00, 
2055.00, 
2056.00, 
2057.00, 
2058.00, 
2059.00, 
2060.00, 
2061.00, 
2062.00, 
2063.00, 
2064.00, 
2065.00, 
2066.00, 
2067.00, 
2068.00, 
2069.00, 
2070.00, 
2071.00, 
2072.00, 
2073.00, 
2074.00, 
2075.00, 
2076.00, 
2077.00, 
2078.00, 
2079.00, 
2080.00, 
2081.00, 
2082.00, 
2083.00, 
2084.00, 
2085.00, 
2086.00, 
2087.00, 
2088.00, 
2089.00, 
2090.00, 
2091.00, 
2092.00, 
2093.00, 
2094.00, 
2095.00, 
2096.00, 
2097.00, 
2098.00, 
2099.00, 
2100.00, 
2101.00, 
2102.00, 
2103.00, 
2104.00, 
2105.00, 
2106.00, 
2107.00, 
2108.00, 
2109.00, 
2110.00, 
2111.00, 
2112.00, 
2113.00, 
2114.00, 
2115.00, 
2116.00, 
2117.00, 
2118.00, 
2119.00, 
2120.00, 
2121.00, 
2122.00, 
2123.00, 
2124.00, 
2125.00, 
2126.00, 
2127.00, 
2128.00, 
2129.00, 
2130.00, 
2131.00, 
2132.00, 
2133.00, 
2134.00, 
2135.00, 
2136.00, 
2137.00, 
2138.00, 
2139.00, 
2140.00, 
2141.00, 
2142.00, 
2143.00, 
2144.00, 
2145.00, 
2146.00, 
2147.00, 
2148.00, 
2149.00, 
2150.00, 
2151.00, 
2152.00, 
2153.00, 
2154.00, 
2155.00, 
2156.00, 
2157.00, 
2158.00, 
2159.00, 
2160.00, 
2161.00, 
2162.00, 
2163.00, 
2164.00, 
2165.00, 
2166.00, 
2167.00, 
2168.00, 
2169.00, 
2170.00, 
2171.00, 
2172.00, 
2173.00, 
2174.00, 
2175.00, 
2176.00, 
2177.00, 
2178.00, 
2179.00, 
2180.00, 
2181.00, 
2182.00, 
2183.00, 
2184.00, 
2185.00, 
2186.00, 
2187.00, 
2188.00, 
2189.00, 
2190.00, 
2191.00, 
2192.00, 
2193.00, 
2194.00, 
2195.00, 
2196.00, 
2197.00, 
2198.00, 
2199.00, 
2200.00, 
2201.00, 
2202.00, 
2203.00, 
2204.00, 
2205.00, 
2206.00, 
2207.00, 
2208.00, 
2209.00, 
2210.00, 
2211.00, 
2212.00, 
2213.00, 
2214.00, 
2215.00, 
2216.00, 
2217.00, 
2218.00, 
2219.00, 
2220.00, 
2221.00, 
2222.00, 
2223.00, 
2224.00, 
2225.00, 
2226.00, 
2227.00, 
2228.00, 
2229.00, 
2230.00, 
2231.00, 
2232.00, 
2233.00, 
2234.00, 
2235.00, 
2236.00, 
2237.00, 
2238.00, 
2239.00, 
2240.00, 
2241.00, 
2242.00, 
2243.00, 
2244.00, 
2245.00, 
2246.00, 
2247.00, 
2248.00, 
2249.00, 
2250.00, 
2251.00, 
2252.00, 
2253.00, 
2254.00, 
2255.00, 
2256.00, 
2257.00, 
2258.00, 
2259.00, 
2260.00, 
2261.00, 
2262.00, 
2263.00, 
2264.00, 
2265.00, 
2266.00, 
2267.00, 
2268.00, 
2269.00, 
2270.00, 
2271.00, 
2272.00, 
2273.00, 
2274.00, 
2275.00, 
2276.00, 
2277.00, 
2278.00, 
2279.00, 
2280.00, 
2281.00, 
2282.00, 
2283.00, 
2284.00, 
2285.00, 
2286.00, 
2287.00, 
2288.00, 
2289.00, 
2290.00, 
2291.00, 
2292.00, 
2293.00, 
2294.00, 
2295.00, 
2296.00, 
2297.00, 
2298.00, 
2299.00, 
2300.00, 
2301.00, 
2302.00, 
2303.00, 
2304.00, 
2305.00, 
2306.00, 
2307.00, 
2308.00, 
2309.00, 
2310.00, 
2311.00, 
2312.00, 
2313.00, 
2314.00, 
2315.00, 
2316.00, 
2317.00, 
2318.00, 
2319.00, 
2320.00, 
2321.00, 
2322.00, 
2323.00, 
2324.00, 
2325.00, 
2326.00, 
2327.00, 
2328.00, 
2329.00, 
2330.00, 
2331.00, 
2332.00, 
2333.00, 
2334.00, 
2335.00, 
2336.00, 
2337.00, 
2338.00, 
2339.00, 
2340.00, 
2341.00, 
2342.00, 
2343.00, 
2344.00, 
2345.00, 
2346.00, 
2347.00, 
2348.00, 
2349.00, 
2350.00, 
2351.00, 
2352.00, 
2353.00, 
2354.00, 
2355.00, 
2356.00, 
2357.00, 
2358.00, 
2359.00, 
2360.00, 
2361.00, 
2362.00, 
2363.00, 
2364.00, 
2365.00, 
2366.00, 
2367.00, 
2368.00, 
2369.00, 
2370.00, 
2371.00, 
2372.00, 
2373.00, 
2374.00, 
2375.00, 
2376.00, 
2377.00, 
2378.00, 
2379.00, 
2380.00, 
2381.00, 
2382.00, 
2383.00, 
2384.00, 
2385.00, 
2386.00, 
2387.00, 
2388.00, 
2389.00, 
2390.00, 
2391.00, 
2392.00, 
2393.00, 
2394.00, 
2395.00, 
2396.00, 
2397.00, 
2398.00, 
2399.00, 
2400.00, 
2401.00, 
2402.00, 
2403.00, 
2404.00, 
2405.00, 
2406.00, 
2407.00, 
2408.00, 
2409.00, 
2410.00, 
2411.00, 
2412.00, 
2413.00, 
2414.00, 
2415.00, 
2416.00, 
2417.00, 
2418.00, 
2419.00, 
2420.00, 
2421.00, 
2422.00, 
2423.00, 
2424.00, 
2425.00, 
2426.00, 
2427.00, 
2428.00, 
2429.00, 
2430.00, 
2431.00, 
2432.00, 
2433.00, 
2434.00, 
2435.00, 
2436.00, 
2437.00, 
2438.00, 
2439.00, 
2440.00, 
2441.00, 
2442.00, 
2443.00, 
2444.00, 
2445.00, 
2446.00, 
2447.00, 
2448.00, 
2449.00, 
2450.00, 
2451.00, 
2452.00, 
2453.00, 
2454.00, 
2455.00, 
2456.00, 
2457.00, 
2458.00, 
2459.00, 
2460.00, 
2461.00, 
2462.00, 
2463.00, 
2464.00, 
2465.00, 
2466.00, 
2467.00, 
2468.00, 
2469.00, 
2470.00, 
2471.00, 
2472.00, 
2473.00, 
2474.00, 
2475.00, 
2476.00, 
2477.00, 
2478.00, 
2479.00, 
2480.00, 
2481.00, 
2482.00, 
2483.00, 
2484.00, 
2485.00, 
2486.00, 
2487.00, 
2488.00, 
2489.00, 
2490.00, 
2491.00, 
2492.00, 
2493.00, 
2494.00, 
2495.00, 
2496.00, 
2497.00, 
2498.00, 
2499.00, 
2500.00, 
2501.00, 
2502.00, 
2503.00, 
2504.00, 
2505.00, 
2506.00, 
2507.00, 
2508.00, 
2509.00, 
2510.00, 
2511.00, 
2512.00, 
2513.00, 
2514.00, 
2515.00, 
2516.00, 
2517.00, 
2518.00, 
2519.00, 
2520.00, 
2521.00, 
2522.00, 
2523.00, 
2524.00, 
2525.00, 
2526.00, 
2527.00, 
2528.00, 
2529.00, 
2530.00, 
2531.00, 
2532.00, 
2533.00, 
2534.00, 
2535.00, 
2536.00, 
2537.00, 
2538.00, 
2539.00, 
2540.00, 
2541.00, 
2542.00, 
2543.00, 
2544.00, 
2545.00, 
2546.00, 
2547.00, 
2548.00, 
2549.00, 
2550.00, 
2551.00, 
2552.00, 
2553.00, 
2554.00, 
2555.00, 
2556.00, 
2557.00, 
2558.00, 
2559.00, 
2560.00, 
2561.00, 
2562.00, 
2563.00, 
2564.00, 
2565.00, 
2566.00, 
2567.00, 
2568.00, 
2569.00, 
2570.00, 
2571.00, 
2572.00, 
2573.00, 
2574.00, 
2575.00, 
2576.00, 
2577.00, 
2578.00, 
2579.00, 
2580.00, 
2581.00, 
2582.00, 
2583.00, 
2584.00, 
2585.00, 
2586.00, 
2587.00, 
2588.00, 
2589.00, 
2590.00, 
2591.00, 
2592.00, 
2593.00, 
2594.00, 
2595.00, 
2596.00, 
2597.00, 
2598.00, 
2599.00, 
2600.00, 
