"2bP2 - RawData"
"Wavelength nm.","T%"
200.00,0.002
201.00,0.001
202.00,0.002
203.00,0.004
204.00,0.004
205.00,0.003
206.00,0.002
207.00,0.002
208.00,-0.001
209.00,0.003
210.00,0.001
211.00,0.001
212.00,0.003
213.00,0.003
214.00,-0.000
215.00,0.000
216.00,-0.002
217.00,0.003
218.00,0.003
219.00,0.001
220.00,0.002
221.00,0.003
222.00,0.000
223.00,0.001
224.00,0.001
225.00,0.001
226.00,0.001
227.00,0.003
228.00,0.000
229.00,0.001
230.00,0.000
231.00,0.003
232.00,0.001
233.00,0.002
234.00,0.001
235.00,0.000
236.00,0.001
237.00,0.002
238.00,0.001
239.00,0.001
240.00,0.000
241.00,-0.001
242.00,-0.000
243.00,0.002
244.00,-0.001
245.00,-0.000
246.00,0.001
247.00,-0.001
248.00,0.001
249.00,0.001
250.00,0.001
251.00,0.003
252.00,0.000
253.00,0.001
254.00,0.003
255.00,0.001
256.00,0.001
257.00,0.001
258.00,0.001
259.00,0.000
260.00,0.001
261.00,0.001
262.00,-0.000
263.00,-0.001
264.00,0.001
265.00,0.001
266.00,0.001
267.00,0.002
268.00,0.001
269.00,-0.000
270.00,0.001
271.00,-0.001
272.00,-0.001
273.00,-0.000
274.00,0.001
275.00,0.000
276.00,0.000
277.00,0.000
278.00,0.001
279.00,0.001
280.00,0.001
281.00,0.000
282.00,0.000
283.00,0.001
284.00,0.001
285.00,-0.001
286.00,0.002
287.00,0.000
288.00,0.001
289.00,-0.000
290.00,0.000
291.00,0.001
292.00,0.000
293.00,0.000
294.00,0.000
295.00,0.000
296.00,0.001
297.00,0.001
298.00,0.001
299.00,0.002
300.00,0.003
301.00,0.006
302.00,0.007
303.00,0.011
304.00,0.018
305.00,0.028
306.00,0.042
307.00,0.063
308.00,0.094
309.00,0.149
310.00,0.205
311.00,0.268
312.00,0.375
313.00,0.504
314.00,0.648
315.00,0.841
316.00,1.064
317.00,1.345
318.00,1.638
319.00,2.001
320.00,2.421
321.00,2.896
322.00,3.338
323.00,4.000
324.00,4.608
325.00,5.208
326.00,5.871
327.00,6.625
328.00,7.382
329.00,8.107
330.00,8.901
331.00,9.683
332.00,10.544
333.00,11.398
334.00,12.215
335.00,13.025
336.00,13.878
337.00,14.606
338.00,15.509
339.00,16.264
340.00,17.016
341.00,17.774
342.00,18.435
343.00,19.138
344.00,19.785
345.00,20.370
346.00,20.973
347.00,21.555
348.00,22.047
349.00,22.582
350.00,23.054
351.00,23.480
352.00,23.874
353.00,24.213
354.00,24.594
355.00,24.993
356.00,25.258
357.00,25.566
358.00,25.786
359.00,26.092
360.00,26.304
361.00,26.606
362.00,26.810
363.00,27.060
364.00,27.141
365.00,27.273
366.00,27.406
367.00,27.497
368.00,27.559
369.00,27.656
370.00,27.777
371.00,27.773
372.00,27.768
373.00,27.855
374.00,27.852
375.00,27.814
376.00,27.802
377.00,27.785
378.00,27.725
379.00,27.631
380.00,27.672
381.00,27.640
382.00,27.683
383.00,27.688
384.00,27.773
385.00,27.783
386.00,27.863
387.00,27.912
388.00,28.002
389.00,27.999
390.00,28.041
391.00,28.138
392.00,28.129
393.00,28.146
394.00,28.174
395.00,28.211
396.00,28.172
397.00,28.231
398.00,28.261
399.00,28.273
400.00,28.278
401.00,28.330
402.00,28.297
403.00,28.280
404.00,28.317
405.00,28.263
406.00,28.282
407.00,28.258
408.00,28.267
409.00,28.208
410.00,28.152
411.00,28.149
412.00,28.137
413.00,28.186
414.00,28.084
415.00,28.119
416.00,28.131
417.00,28.094
418.00,28.148
419.00,28.196
420.00,28.199
421.00,28.363
422.00,28.357
423.00,28.398
424.00,28.444
425.00,28.472
426.00,28.459
427.00,28.551
428.00,28.606
429.00,28.615
430.00,28.630
431.00,28.698
432.00,28.697
433.00,28.792
434.00,28.858
435.00,28.922
436.00,28.998
437.00,29.072
438.00,29.150
439.00,29.188
440.00,29.258
441.00,29.393
442.00,29.467
443.00,29.518
444.00,29.600
445.00,29.651
446.00,29.745
447.00,29.785
448.00,29.988
449.00,30.074
450.00,30.170
451.00,30.259
452.00,30.370
453.00,30.488
454.00,30.589
455.00,30.674
456.00,30.796
457.00,30.887
458.00,30.941
459.00,31.071
460.00,31.232
461.00,31.339
462.00,31.406
463.00,31.550
464.00,31.674
465.00,31.813
466.00,31.920
467.00,32.046
468.00,32.144
469.00,32.175
470.00,32.310
471.00,32.449
472.00,32.502
473.00,32.603
474.00,32.725
475.00,32.835
476.00,32.929
477.00,33.069
478.00,33.168
479.00,33.370
480.00,33.434
481.00,33.587
482.00,33.712
483.00,33.830
484.00,34.023
485.00,34.120
486.00,34.293
487.00,34.424
488.00,34.560
489.00,34.703
490.00,34.792
491.00,34.901
492.00,34.964
493.00,35.213
494.00,35.336
495.00,35.392
496.00,35.526
497.00,35.646
498.00,35.750
499.00,35.861
500.00,36.016
501.00,36.134
502.00,36.247
503.00,36.338
504.00,36.407
505.00,36.530
506.00,36.623
507.00,36.741
508.00,36.820
509.00,37.033
510.00,37.180
511.00,37.137
512.00,37.343
513.00,37.514
514.00,37.547
515.00,37.726
516.00,37.755
517.00,37.793
518.00,38.013
519.00,37.993
520.00,37.936
521.00,38.151
522.00,38.206
523.00,38.230
524.00,38.368
525.00,38.473
526.00,38.491
527.00,38.547
528.00,38.558
529.00,38.719
530.00,38.879
531.00,38.989
532.00,39.060
533.00,39.164
534.00,39.204
535.00,39.279
536.00,39.340
537.00,39.455
538.00,39.458
539.00,39.526
540.00,39.661
541.00,39.669
542.00,39.664
543.00,39.728
544.00,39.806
545.00,39.794
546.00,39.923
547.00,39.997
548.00,40.148
549.00,40.139
550.00,40.206
551.00,40.339
552.00,40.372
553.00,40.363
554.00,40.480
555.00,40.497
556.00,40.525
557.00,40.636
558.00,40.647
559.00,40.698
560.00,40.787
561.00,40.842
562.00,40.848
563.00,40.913
564.00,40.951
565.00,40.951
566.00,40.960
567.00,40.983
568.00,41.040
569.00,41.093
570.00,41.117
571.00,41.146
572.00,41.134
573.00,41.108
574.00,41.234
575.00,41.187
576.00,41.220
577.00,41.269
578.00,41.385
579.00,41.457
580.00,41.449
581.00,41.620
582.00,41.671
583.00,41.642
584.00,41.765
585.00,41.859
586.00,41.862
587.00,41.964
588.00,41.945
589.00,41.899
590.00,42.040
591.00,42.079
592.00,41.983
593.00,42.125
594.00,42.200
595.00,42.291
596.00,42.293
597.00,42.309
598.00,42.386
599.00,42.350
600.00,42.392
601.00,42.429
602.00,42.511
603.00,42.525
604.00,42.543
605.00,42.582
606.00,42.610
607.00,42.638
608.00,42.615
609.00,42.736
610.00,42.858
611.00,42.623
612.00,42.700
613.00,42.859
614.00,42.817
615.00,42.841
616.00,43.033
617.00,42.890
618.00,42.772
619.00,43.127
620.00,43.337
621.00,43.176
622.00,43.221
623.00,43.241
624.00,43.368
625.00,43.337
626.00,43.406
627.00,43.467
628.00,43.451
629.00,43.518
630.00,43.623
631.00,43.609
632.00,43.697
633.00,43.800
634.00,43.865
635.00,43.922
636.00,44.014
637.00,44.036
638.00,44.056
639.00,44.102
640.00,44.146
641.00,44.210
642.00,44.205
643.00,44.345
644.00,44.320
645.00,44.349
646.00,44.562
647.00,44.592
648.00,44.620
649.00,44.484
650.00,44.735
651.00,44.955
652.00,44.854
653.00,44.798
654.00,44.913
655.00,45.063
656.00,45.306
657.00,45.194
658.00,45.237
659.00,45.310
660.00,45.332
661.00,45.400
662.00,45.390
663.00,45.514
664.00,45.753
665.00,45.888
666.00,45.787
667.00,45.848
668.00,45.782
669.00,46.045
670.00,46.250
671.00,46.220
672.00,46.241
673.00,46.329
674.00,46.374
675.00,46.370
676.00,46.541
677.00,46.689
678.00,46.528
679.00,46.689
680.00,46.909
681.00,47.098
682.00,46.917
683.00,46.932
684.00,47.196
685.00,47.128
686.00,46.979
687.00,47.110
688.00,47.253
689.00,47.293
690.00,47.508
691.00,47.724
692.00,47.538
693.00,47.447
694.00,47.687
695.00,47.930
696.00,47.901
697.00,47.786
698.00,48.015
699.00,48.033
700.00,47.785
701.00,48.042
702.00,48.165
703.00,48.294
704.00,48.303
705.00,48.292
706.00,48.365
707.00,48.340
708.00,48.290
709.00,48.582
710.00,48.962
711.00,48.736
712.00,48.629
713.00,48.782
714.00,48.891
715.00,48.878
716.00,48.759
717.00,48.988
718.00,49.139
719.00,49.130
720.00,49.104
721.00,53.566
722.00,53.459
723.00,53.486
724.00,53.478
725.00,53.631
726.00,53.501
727.00,53.543
728.00,53.580
729.00,53.549
730.00,53.597
731.00,53.597
732.00,53.508
733.00,53.672
734.00,53.560
735.00,53.590
736.00,53.638
737.00,53.645
738.00,53.640
739.00,53.658
740.00,53.632
741.00,53.731
742.00,53.845
743.00,53.749
744.00,53.749
745.00,53.696
746.00,53.749
747.00,53.661
748.00,53.583
749.00,53.677
750.00,53.719
751.00,53.632
752.00,53.622
753.00,53.586
754.00,53.637
755.00,53.659
756.00,53.561
757.00,53.579
758.00,53.679
759.00,53.572
760.00,53.542
761.00,53.596
762.00,53.586
763.00,53.588
764.00,53.624
765.00,53.595
766.00,53.656
767.00,53.615
768.00,53.700
769.00,53.701
770.00,53.717
771.00,53.571
772.00,53.725
773.00,53.641
774.00,53.636
775.00,53.755
776.00,53.670
777.00,53.729
778.00,53.596
779.00,53.701
780.00,53.557
781.00,53.652
782.00,53.573
783.00,53.626
784.00,53.591
785.00,53.507
786.00,53.599
787.00,53.569
788.00,53.509
789.00,53.475
790.00,53.444
791.00,53.497
792.00,53.432
793.00,53.451
794.00,53.456
795.00,53.381
796.00,53.371
797.00,53.403
798.00,53.366
799.00,53.294
800.00,53.285
801.00,53.253
802.00,53.312
803.00,53.207
804.00,53.170
805.00,53.317
806.00,53.242
807.00,53.230
808.00,53.260
809.00,53.224
810.00,53.244
811.00,53.116
812.00,53.177
813.00,53.069
814.00,53.139
815.00,53.088
816.00,53.120
817.00,53.031
818.00,52.939
819.00,52.980
820.00,52.910
821.00,53.012
822.00,52.956
823.00,52.877
824.00,52.890
825.00,52.951
826.00,52.791
827.00,52.884
828.00,52.929
829.00,52.986
830.00,52.906
831.00,55.217
832.00,55.203
833.00,55.170
834.00,55.184
835.00,55.080
836.00,55.143
837.00,55.067
838.00,55.070
839.00,55.049
840.00,55.016
841.00,55.051
842.00,54.956
843.00,54.977
844.00,54.959
845.00,54.920
846.00,54.905
847.00,54.897
848.00,54.889
849.00,54.790
850.00,54.814
851.00,54.724
852.00,54.757
853.00,54.685
854.00,54.659
855.00,54.574
856.00,54.629
857.00,54.591
858.00,54.540
859.00,54.557
860.00,54.498
861.00,54.567
862.00,54.462
863.00,54.460
864.00,54.402
865.00,54.502
866.00,54.407
867.00,54.433
868.00,54.393
869.00,54.406
870.00,54.413
871.00,54.391
872.00,54.379
873.00,54.358
874.00,54.356
875.00,54.293
876.00,54.324
877.00,54.294
878.00,54.302
879.00,54.260
880.00,54.272
881.00,54.225
882.00,54.284
883.00,54.202
884.00,54.192
885.00,54.149
886.00,54.152
887.00,54.116
888.00,54.103
889.00,54.075
890.00,54.089
891.00,54.029
892.00,54.018
893.00,53.978
894.00,54.026
895.00,53.959
896.00,53.941
897.00,53.904
898.00,53.874
899.00,53.879
900.00,53.845
901.00,53.881
902.00,53.905
903.00,53.838
904.00,53.830
905.00,53.801
906.00,53.821
907.00,53.784
908.00,53.703
909.00,53.723
910.00,53.680
911.00,53.674
912.00,53.659
913.00,53.650
914.00,53.608
915.00,53.593
916.00,53.577
917.00,53.558
918.00,53.520
919.00,53.511
920.00,53.464
921.00,53.478
922.00,53.456
923.00,53.440
924.00,53.391
925.00,53.431
926.00,53.377
927.00,53.394
928.00,53.333
929.00,53.350
930.00,53.316
931.00,53.345
932.00,53.266
933.00,53.305
934.00,53.270
935.00,53.231
936.00,53.181
937.00,53.189
938.00,53.168
939.00,53.204
940.00,53.138
941.00,53.153
942.00,53.093
943.00,53.131
944.00,53.043
945.00,53.066
946.00,53.042
947.00,53.015
948.00,52.986
949.00,52.955
950.00,52.941
951.00,52.953
952.00,52.909
953.00,52.875
954.00,52.878
955.00,52.812
956.00,52.844
957.00,52.781
958.00,52.797
959.00,52.725
960.00,52.740
961.00,52.719
962.00,52.708
963.00,52.676
964.00,52.698
965.00,52.672
966.00,52.655
967.00,52.665
968.00,52.620
969.00,52.648
970.00,52.622
971.00,52.645
972.00,52.606
973.00,52.625
974.00,52.652
975.00,52.612
976.00,52.646
977.00,52.606
978.00,52.659
979.00,52.587
980.00,52.615
981.00,52.617
982.00,52.592
983.00,52.594
984.00,52.561
985.00,52.589
986.00,52.544
987.00,52.580
988.00,52.533
989.00,52.528
990.00,52.523
991.00,52.501
992.00,52.533
993.00,52.496
994.00,52.492
995.00,52.474
996.00,52.471
997.00,52.485
998.00,52.439
999.00,52.463
1000.00,52.405
1001.00,52.407
1002.00,52.383
1003.00,52.383
1004.00,52.353
1005.00,52.337
1006.00,52.361
1007.00,52.329
1008.00,52.339
1009.00,52.319
1010.00,52.310
1011.00,52.317
1012.00,52.306
1013.00,52.274
1014.00,52.212
1015.00,52.240
1016.00,52.194
1017.00,52.192
1018.00,52.167
1019.00,52.160
1020.00,52.154
1021.00,52.126
1022.00,52.135
1023.00,52.071
1024.00,52.090
1025.00,52.057
1026.00,52.059
1027.00,52.046
1028.00,52.028
1029.00,52.014
1030.00,51.991
1031.00,52.013
1032.00,51.952
1033.00,51.975
1034.00,51.946
1035.00,51.898
1036.00,51.872
1037.00,51.868
1038.00,51.858
1039.00,51.819
1040.00,51.821
1041.00,51.790
1042.00,51.765
1043.00,51.742
1044.00,51.784
1045.00,51.763
1046.00,51.746
1047.00,51.768
1048.00,51.759
1049.00,51.771
1050.00,51.770
1051.00,51.823
1052.00,51.823
1053.00,51.817
1054.00,51.809
1055.00,51.836
1056.00,51.831
1057.00,51.829
1058.00,51.820
1059.00,51.819
1060.00,51.831
1061.00,51.804
1062.00,51.803
1063.00,51.811
1064.00,51.811
1065.00,51.793
1066.00,51.806
1067.00,51.801
1068.00,51.790
1069.00,51.742
1070.00,51.735
1071.00,51.732
1072.00,51.770
1073.00,51.768
1074.00,51.739
1075.00,51.709
1076.00,51.713
1077.00,51.697
1078.00,51.671
1079.00,51.675
1080.00,51.677
1081.00,51.662
1082.00,51.647
1083.00,51.630
1084.00,51.650
1085.00,51.670
1086.00,51.665
1087.00,51.652
1088.00,51.604
1089.00,51.588
1090.00,51.581
1091.00,51.587
1092.00,51.579
1093.00,51.570
1094.00,51.546
1095.00,51.541
1096.00,51.532
1097.00,51.522
1098.00,51.505
1099.00,51.511
1100.00,51.490
1101.00,51.480
1102.00,51.461
1103.00,51.467
1104.00,51.447
1105.00,51.438
1106.00,51.425
1107.00,51.451
1108.00,51.431
1109.00,51.418
1110.00,51.412
1111.00,51.395
1112.00,51.380
1113.00,51.370
1114.00,51.352
1115.00,51.362
1116.00,51.355
1117.00,51.347
1118.00,51.349
1119.00,51.342
1120.00,51.331
1121.00,51.335
1122.00,51.303
1123.00,51.291
1124.00,51.286
1125.00,51.287
1126.00,51.279
1127.00,51.274
1128.00,51.267
1129.00,51.257
1130.00,51.236
1131.00,51.239
1132.00,51.252
1133.00,51.251
1134.00,51.247
1135.00,51.213
1136.00,51.222
1137.00,51.225
1138.00,51.204
1139.00,51.211
1140.00,51.216
1141.00,51.196
1142.00,51.190
1143.00,51.217
1144.00,51.175
1145.00,51.174
1146.00,51.170
1147.00,51.150
1148.00,51.154
1149.00,51.166
1150.00,51.155
1151.00,51.160
1152.00,51.139
1153.00,51.148
1154.00,51.128
1155.00,51.128
1156.00,51.108
1157.00,51.129
1158.00,51.121
1159.00,51.127
1160.00,51.116
1161.00,51.120
1162.00,51.120
1163.00,51.124
1164.00,51.129
1165.00,51.131
1166.00,51.109
1167.00,51.092
1168.00,51.103
1169.00,51.105
1170.00,51.112
1171.00,51.079
1172.00,51.083
1173.00,51.095
1174.00,51.096
1175.00,51.094
1176.00,51.101
1177.00,51.084
1178.00,51.077
1179.00,51.091
1180.00,51.092
1181.00,51.087
1182.00,51.069
1183.00,51.075
1184.00,51.075
1185.00,51.071
1186.00,51.049
1187.00,51.065
1188.00,51.065
1189.00,51.064
1190.00,51.051
1191.00,51.066
1192.00,51.076
1193.00,51.051
1194.00,51.060
1195.00,51.034
1196.00,51.042
1197.00,51.048
1198.00,51.050
1199.00,51.055
1200.00,51.065
1201.00,51.079
1202.00,51.066
1203.00,51.066
1204.00,51.051
1205.00,51.064
1206.00,51.055
1207.00,51.037
1208.00,51.012
1209.00,51.033
1210.00,51.036
1211.00,51.029
1212.00,51.042
1213.00,51.015
1214.00,51.043
1215.00,51.019
1216.00,51.037
1217.00,51.048
1218.00,51.022
1219.00,51.035
1220.00,51.029
1221.00,51.031
1222.00,51.005
1223.00,51.035
1224.00,51.040
1225.00,51.044
1226.00,51.060
1227.00,51.012
1228.00,51.054
1229.00,51.030
1230.00,51.062
1231.00,51.076
1232.00,51.079
1233.00,51.055
1234.00,51.046
1235.00,51.088
1236.00,51.061
1237.00,51.018
1238.00,51.083
1239.00,51.072
1240.00,51.030
1241.00,51.007
1242.00,51.075
1243.00,51.130
1244.00,51.031
1245.00,51.099
1246.00,51.113
1247.00,51.094
1248.00,51.082
1249.00,51.098
1250.00,51.123
1251.00,51.106
1252.00,51.096
1253.00,51.092
1254.00,51.110
1255.00,51.122
1256.00,51.077
1257.00,51.067
1258.00,51.117
1259.00,51.106
1260.00,51.132
1261.00,51.145
1262.00,51.122
1263.00,51.116
1264.00,51.142
1265.00,51.137
1266.00,51.136
1267.00,51.147
1268.00,51.151
1269.00,51.148
1270.00,51.165
1271.00,51.165
1272.00,51.183
1273.00,51.182
1274.00,51.185
1275.00,51.200
1276.00,51.187
1277.00,51.181
1278.00,51.198
1279.00,51.193
1280.00,51.187
1281.00,51.190
1282.00,51.208
1283.00,51.219
1284.00,51.186
1285.00,51.198
1286.00,51.246
1287.00,51.234
1288.00,51.220
1289.00,51.221
1290.00,51.235
1291.00,51.241
1292.00,51.231
1293.00,51.224
1294.00,51.253
1295.00,51.263
1296.00,51.268
1297.00,51.280
1298.00,51.287
1299.00,51.257
1300.00,51.282
1301.00,51.281
1302.00,51.296
1303.00,51.283
1304.00,51.271
1305.00,51.303
1306.00,51.301
1307.00,51.299
1308.00,51.311
1309.00,51.307
1310.00,51.302
1311.00,51.298
1312.00,51.321
1313.00,51.334
1314.00,51.345
1315.00,51.352
1316.00,51.361
1317.00,51.367
1318.00,51.359
1319.00,51.362
1320.00,51.375
1321.00,51.524
1322.00,51.524
1323.00,51.503
1324.00,51.511
1325.00,51.507
1326.00,51.519
1327.00,51.517
1328.00,51.486
1329.00,51.508
1330.00,51.531
1331.00,51.509
1332.00,51.496
1333.00,51.513
1334.00,51.517
1335.00,51.554
1336.00,51.552
1337.00,51.603
1338.00,51.659
1339.00,51.691
1340.00,51.757
1341.00,51.838
1342.00,51.890
1343.00,51.928
1344.00,51.987
1345.00,52.058
1346.00,52.124
1347.00,52.185
1348.00,52.130
1349.00,52.153
1350.00,52.126
1351.00,52.155
1352.00,52.157
1353.00,52.274
1354.00,52.176
1355.00,52.115
1356.00,52.221
1357.00,52.235
1358.00,52.203
1359.00,52.296
1360.00,52.213
1361.00,52.073
1362.00,52.181
1363.00,52.395
1364.00,52.402
1365.00,52.279
1366.00,52.265
1367.00,52.213
1368.00,52.203
1369.00,52.333
1370.00,52.176
1371.00,51.897
1372.00,52.161
1373.00,52.232
1374.00,52.225
1375.00,52.211
1376.00,52.188
1377.00,52.226
1378.00,52.243
1379.00,52.258
1380.00,52.211
1381.00,52.181
1382.00,52.160
1383.00,52.194
1384.00,52.151
1385.00,52.131
1386.00,52.201
1387.00,52.154
1388.00,52.142
1389.00,52.094
1390.00,52.328
1391.00,52.141
1392.00,52.209
1393.00,52.212
1394.00,52.154
1395.00,52.201
1396.00,52.104
1397.00,52.106
1398.00,52.273
1399.00,52.202
1400.00,52.122
1401.00,52.153
1402.00,52.170
1403.00,52.157
1404.00,52.194
1405.00,52.258
1406.00,52.235
1407.00,52.253
1408.00,52.278
1409.00,52.205
1410.00,52.267
1411.00,52.306
1412.00,52.287
1413.00,52.193
1414.00,52.240
1415.00,52.286
1416.00,52.269
1417.00,52.287
1418.00,52.263
1419.00,52.298
1420.00,52.320
1421.00,52.351
1422.00,52.352
1423.00,52.365
1424.00,52.354
1425.00,52.386
1426.00,52.415
1427.00,52.403
1428.00,52.396
1429.00,52.434
1430.00,52.417
1431.00,52.442
1432.00,52.472
1433.00,52.491
1434.00,52.478
1435.00,52.503
1436.00,52.537
1437.00,52.508
1438.00,52.515
1439.00,52.572
1440.00,52.586
1441.00,52.582
1442.00,52.589
1443.00,52.637
1444.00,52.659
1445.00,52.606
1446.00,52.633
1447.00,52.670
1448.00,52.701
1449.00,52.674
1450.00,52.707
1451.00,52.738
1452.00,52.745
1453.00,52.760
1454.00,52.782
1455.00,52.798
1456.00,52.831
1457.00,52.822
1458.00,52.858
1459.00,52.868
1460.00,52.861
1461.00,52.882
1462.00,52.908
1463.00,52.897
1464.00,52.921
1465.00,52.955
1466.00,52.941
1467.00,52.968
1468.00,53.004
1469.00,52.989
1470.00,53.016
1471.00,53.019
1472.00,53.049
1473.00,53.073
1474.00,53.070
1475.00,53.093
1476.00,53.108
1477.00,53.088
1478.00,53.111
1479.00,53.125
1480.00,53.122
1481.00,53.132
1482.00,53.124
1483.00,53.149
1484.00,53.182
1485.00,53.178
1486.00,53.189
1487.00,53.217
1488.00,53.230
1489.00,53.235
1490.00,53.225
1491.00,53.241
1492.00,53.268
1493.00,53.243
1494.00,53.282
1495.00,53.304
1496.00,53.300
1497.00,53.283
1498.00,53.312
1499.00,53.308
1500.00,53.341
1501.00, 
1502.00, 
1503.00, 
1504.00, 
1505.00, 
1506.00, 
1507.00, 
1508.00, 
1509.00, 
1510.00, 
1511.00, 
1512.00, 
1513.00, 
1514.00, 
1515.00, 
1516.00, 
1517.00, 
1518.00, 
1519.00, 
1520.00, 
1521.00, 
1522.00, 
1523.00, 
1524.00, 
1525.00, 
1526.00, 
1527.00, 
1528.00, 
1529.00, 
1530.00, 
1531.00, 
1532.00, 
1533.00, 
1534.00, 
1535.00, 
1536.00, 
1537.00, 
1538.00, 
1539.00, 
1540.00, 
1541.00, 
1542.00, 
1543.00, 
1544.00, 
1545.00, 
1546.00, 
1547.00, 
1548.00, 
1549.00, 
1550.00, 
1551.00, 
1552.00, 
1553.00, 
1554.00, 
1555.00, 
1556.00, 
1557.00, 
1558.00, 
1559.00, 
1560.00, 
1561.00, 
1562.00, 
1563.00, 
1564.00, 
1565.00, 
1566.00, 
1567.00, 
1568.00, 
1569.00, 
1570.00, 
1571.00, 
1572.00, 
1573.00, 
1574.00, 
1575.00, 
1576.00, 
1577.00, 
1578.00, 
1579.00, 
1580.00, 
1581.00, 
1582.00, 
1583.00, 
1584.00, 
1585.00, 
1586.00, 
1587.00, 
1588.00, 
1589.00, 
1590.00, 
1591.00, 
1592.00, 
1593.00, 
1594.00, 
1595.00, 
1596.00, 
1597.00, 
1598.00, 
1599.00, 
1600.00, 
1601.00, 
1602.00, 
1603.00, 
1604.00, 
1605.00, 
1606.00, 
1607.00, 
1608.00, 
1609.00, 
1610.00, 
1611.00, 
1612.00, 
1613.00, 
1614.00, 
1615.00, 
1616.00, 
1617.00, 
1618.00, 
1619.00, 
1620.00, 
1621.00, 
1622.00, 
1623.00, 
1624.00, 
1625.00, 
1626.00, 
1627.00, 
1628.00, 
1629.00, 
1630.00, 
1631.00, 
1632.00, 
1633.00, 
1634.00, 
1635.00, 
1636.00, 
1637.00, 
1638.00, 
1639.00, 
1640.00, 
1641.00, 
1642.00, 
1643.00, 
1644.00, 
1645.00, 
1646.00, 
1647.00, 
1648.00, 
1649.00, 
1650.00, 
1651.00, 
1652.00, 
1653.00, 
1654.00, 
1655.00, 
1656.00, 
1657.00, 
1658.00, 
1659.00, 
1660.00, 
1661.00, 
1662.00, 
1663.00, 
1664.00, 
1665.00, 
1666.00, 
1667.00, 
1668.00, 
1669.00, 
1670.00, 
1671.00, 
1672.00, 
1673.00, 
1674.00, 
1675.00, 
1676.00, 
1677.00, 
1678.00, 
1679.00, 
1680.00, 
1681.00, 
1682.00, 
1683.00, 
1684.00, 
1685.00, 
1686.00, 
1687.00, 
1688.00, 
1689.00, 
1690.00, 
1691.00, 
1692.00, 
1693.00, 
1694.00, 
1695.00, 
1696.00, 
1697.00, 
1698.00, 
1699.00, 
1700.00, 
1701.00, 
1702.00, 
1703.00, 
1704.00, 
1705.00, 
1706.00, 
1707.00, 
1708.00, 
1709.00, 
1710.00, 
1711.00, 
1712.00, 
1713.00, 
1714.00, 
1715.00, 
1716.00, 
1717.00, 
1718.00, 
1719.00, 
1720.00, 
1721.00, 
1722.00, 
1723.00, 
1724.00, 
1725.00, 
1726.00, 
1727.00, 
1728.00, 
1729.00, 
1730.00, 
1731.00, 
1732.00, 
1733.00, 
1734.00, 
1735.00, 
1736.00, 
1737.00, 
1738.00, 
1739.00, 
1740.00, 
1741.00, 
1742.00, 
1743.00, 
1744.00, 
1745.00, 
1746.00, 
1747.00, 
1748.00, 
1749.00, 
1750.00, 
1751.00, 
1752.00, 
1753.00, 
1754.00, 
1755.00, 
1756.00, 
1757.00, 
1758.00, 
1759.00, 
1760.00, 
1761.00, 
1762.00, 
1763.00, 
1764.00, 
1765.00, 
1766.00, 
1767.00, 
1768.00, 
1769.00, 
1770.00, 
1771.00, 
1772.00, 
1773.00, 
1774.00, 
1775.00, 
1776.00, 
1777.00, 
1778.00, 
1779.00, 
1780.00, 
1781.00, 
1782.00, 
1783.00, 
1784.00, 
1785.00, 
1786.00, 
1787.00, 
1788.00, 
1789.00, 
1790.00, 
1791.00, 
1792.00, 
1793.00, 
1794.00, 
1795.00, 
1796.00, 
1797.00, 
1798.00, 
1799.00, 
1800.00, 
1801.00, 
1802.00, 
1803.00, 
1804.00, 
1805.00, 
1806.00, 
1807.00, 
1808.00, 
1809.00, 
1810.00, 
1811.00, 
1812.00, 
1813.00, 
1814.00, 
1815.00, 
1816.00, 
1817.00, 
1818.00, 
1819.00, 
1820.00, 
1821.00, 
1822.00, 
1823.00, 
1824.00, 
1825.00, 
1826.00, 
1827.00, 
1828.00, 
1829.00, 
1830.00, 
1831.00, 
1832.00, 
1833.00, 
1834.00, 
1835.00, 
1836.00, 
1837.00, 
1838.00, 
1839.00, 
1840.00, 
1841.00, 
1842.00, 
1843.00, 
1844.00, 
1845.00, 
1846.00, 
1847.00, 
1848.00, 
1849.00, 
1850.00, 
1851.00, 
1852.00, 
1853.00, 
1854.00, 
1855.00, 
1856.00, 
1857.00, 
1858.00, 
1859.00, 
1860.00, 
1861.00, 
1862.00, 
1863.00, 
1864.00, 
1865.00, 
1866.00, 
1867.00, 
1868.00, 
1869.00, 
1870.00, 
1871.00, 
1872.00, 
1873.00, 
1874.00, 
1875.00, 
1876.00, 
1877.00, 
1878.00, 
1879.00, 
1880.00, 
1881.00, 
1882.00, 
1883.00, 
1884.00, 
1885.00, 
1886.00, 
1887.00, 
1888.00, 
1889.00, 
1890.00, 
1891.00, 
1892.00, 
1893.00, 
1894.00, 
1895.00, 
1896.00, 
1897.00, 
1898.00, 
1899.00, 
1900.00, 
1901.00, 
1902.00, 
1903.00, 
1904.00, 
1905.00, 
1906.00, 
1907.00, 
1908.00, 
1909.00, 
1910.00, 
1911.00, 
1912.00, 
1913.00, 
1914.00, 
1915.00, 
1916.00, 
1917.00, 
1918.00, 
1919.00, 
1920.00, 
1921.00, 
1922.00, 
1923.00, 
1924.00, 
1925.00, 
1926.00, 
1927.00, 
1928.00, 
1929.00, 
1930.00, 
1931.00, 
1932.00, 
1933.00, 
1934.00, 
1935.00, 
1936.00, 
1937.00, 
1938.00, 
1939.00, 
1940.00, 
1941.00, 
1942.00, 
1943.00, 
1944.00, 
1945.00, 
1946.00, 
1947.00, 
1948.00, 
1949.00, 
1950.00, 
1951.00, 
1952.00, 
1953.00, 
1954.00, 
1955.00, 
1956.00, 
1957.00, 
1958.00, 
1959.00, 
1960.00, 
1961.00, 
1962.00, 
1963.00, 
1964.00, 
1965.00, 
1966.00, 
1967.00, 
1968.00, 
1969.00, 
1970.00, 
1971.00, 
1972.00, 
1973.00, 
1974.00, 
1975.00, 
1976.00, 
1977.00, 
1978.00, 
1979.00, 
1980.00, 
1981.00, 
1982.00, 
1983.00, 
1984.00, 
1985.00, 
1986.00, 
1987.00, 
1988.00, 
1989.00, 
1990.00, 
1991.00, 
1992.00, 
1993.00, 
1994.00, 
1995.00, 
1996.00, 
1997.00, 
1998.00, 
1999.00, 
2000.00, 
2001.00, 
2002.00, 
2003.00, 
2004.00, 
2005.00, 
2006.00, 
2007.00, 
2008.00, 
2009.00, 
2010.00, 
2011.00, 
2012.00, 
2013.00, 
2014.00, 
2015.00, 
2016.00, 
2017.00, 
2018.00, 
2019.00, 
2020.00, 
2021.00, 
2022.00, 
2023.00, 
2024.00, 
2025.00, 
2026.00, 
2027.00, 
2028.00, 
2029.00, 
2030.00, 
2031.00, 
2032.00, 
2033.00, 
2034.00, 
2035.00, 
2036.00, 
2037.00, 
2038.00, 
2039.00, 
2040.00, 
2041.00, 
2042.00, 
2043.00, 
2044.00, 
2045.00, 
2046.00, 
2047.00, 
2048.00, 
2049.00, 
2050.00, 
2051.00, 
2052.00, 
2053.00, 
2054.00, 
2055.00, 
2056.00, 
2057.00, 
2058.00, 
2059.00, 
2060.00, 
2061.00, 
2062.00, 
2063.00, 
2064.00, 
2065.00, 
2066.00, 
2067.00, 
2068.00, 
2069.00, 
2070.00, 
2071.00, 
2072.00, 
2073.00, 
2074.00, 
2075.00, 
2076.00, 
2077.00, 
2078.00, 
2079.00, 
2080.00, 
2081.00, 
2082.00, 
2083.00, 
2084.00, 
2085.00, 
2086.00, 
2087.00, 
2088.00, 
2089.00, 
2090.00, 
2091.00, 
2092.00, 
2093.00, 
2094.00, 
2095.00, 
2096.00, 
2097.00, 
2098.00, 
2099.00, 
2100.00, 
2101.00, 
2102.00, 
2103.00, 
2104.00, 
2105.00, 
2106.00, 
2107.00, 
2108.00, 
2109.00, 
2110.00, 
2111.00, 
2112.00, 
2113.00, 
2114.00, 
2115.00, 
2116.00, 
2117.00, 
2118.00, 
2119.00, 
2120.00, 
2121.00, 
2122.00, 
2123.00, 
2124.00, 
2125.00, 
2126.00, 
2127.00, 
2128.00, 
2129.00, 
2130.00, 
2131.00, 
2132.00, 
2133.00, 
2134.00, 
2135.00, 
2136.00, 
2137.00, 
2138.00, 
2139.00, 
2140.00, 
2141.00, 
2142.00, 
2143.00, 
2144.00, 
2145.00, 
2146.00, 
2147.00, 
2148.00, 
2149.00, 
2150.00, 
2151.00, 
2152.00, 
2153.00, 
2154.00, 
2155.00, 
2156.00, 
2157.00, 
2158.00, 
2159.00, 
2160.00, 
2161.00, 
2162.00, 
2163.00, 
2164.00, 
2165.00, 
2166.00, 
2167.00, 
2168.00, 
2169.00, 
2170.00, 
2171.00, 
2172.00, 
2173.00, 
2174.00, 
2175.00, 
2176.00, 
2177.00, 
2178.00, 
2179.00, 
2180.00, 
2181.00, 
2182.00, 
2183.00, 
2184.00, 
2185.00, 
2186.00, 
2187.00, 
2188.00, 
2189.00, 
2190.00, 
2191.00, 
2192.00, 
2193.00, 
2194.00, 
2195.00, 
2196.00, 
2197.00, 
2198.00, 
2199.00, 
2200.00, 
2201.00, 
2202.00, 
2203.00, 
2204.00, 
2205.00, 
2206.00, 
2207.00, 
2208.00, 
2209.00, 
2210.00, 
2211.00, 
2212.00, 
2213.00, 
2214.00, 
2215.00, 
2216.00, 
2217.00, 
2218.00, 
2219.00, 
2220.00, 
2221.00, 
2222.00, 
2223.00, 
2224.00, 
2225.00, 
2226.00, 
2227.00, 
2228.00, 
2229.00, 
2230.00, 
2231.00, 
2232.00, 
2233.00, 
2234.00, 
2235.00, 
2236.00, 
2237.00, 
2238.00, 
2239.00, 
2240.00, 
2241.00, 
2242.00, 
2243.00, 
2244.00, 
2245.00, 
2246.00, 
2247.00, 
2248.00, 
2249.00, 
2250.00, 
2251.00, 
2252.00, 
2253.00, 
2254.00, 
2255.00, 
2256.00, 
2257.00, 
2258.00, 
2259.00, 
2260.00, 
2261.00, 
2262.00, 
2263.00, 
2264.00, 
2265.00, 
2266.00, 
2267.00, 
2268.00, 
2269.00, 
2270.00, 
2271.00, 
2272.00, 
2273.00, 
2274.00, 
2275.00, 
2276.00, 
2277.00, 
2278.00, 
2279.00, 
2280.00, 
2281.00, 
2282.00, 
2283.00, 
2284.00, 
2285.00, 
2286.00, 
2287.00, 
2288.00, 
2289.00, 
2290.00, 
2291.00, 
2292.00, 
2293.00, 
2294.00, 
2295.00, 
2296.00, 
2297.00, 
2298.00, 
2299.00, 
2300.00, 
2301.00, 
2302.00, 
2303.00, 
2304.00, 
2305.00, 
2306.00, 
2307.00, 
2308.00, 
2309.00, 
2310.00, 
2311.00, 
2312.00, 
2313.00, 
2314.00, 
2315.00, 
2316.00, 
2317.00, 
2318.00, 
2319.00, 
2320.00, 
2321.00, 
2322.00, 
2323.00, 
2324.00, 
2325.00, 
2326.00, 
2327.00, 
2328.00, 
2329.00, 
2330.00, 
2331.00, 
2332.00, 
2333.00, 
2334.00, 
2335.00, 
2336.00, 
2337.00, 
2338.00, 
2339.00, 
2340.00, 
2341.00, 
2342.00, 
2343.00, 
2344.00, 
2345.00, 
2346.00, 
2347.00, 
2348.00, 
2349.00, 
2350.00, 
2351.00, 
2352.00, 
2353.00, 
2354.00, 
2355.00, 
2356.00, 
2357.00, 
2358.00, 
2359.00, 
2360.00, 
2361.00, 
2362.00, 
2363.00, 
2364.00, 
2365.00, 
2366.00, 
2367.00, 
2368.00, 
2369.00, 
2370.00, 
2371.00, 
2372.00, 
2373.00, 
2374.00, 
2375.00, 
2376.00, 
2377.00, 
2378.00, 
2379.00, 
2380.00, 
2381.00, 
2382.00, 
2383.00, 
2384.00, 
2385.00, 
2386.00, 
2387.00, 
2388.00, 
2389.00, 
2390.00, 
2391.00, 
2392.00, 
2393.00, 
2394.00, 
2395.00, 
2396.00, 
2397.00, 
2398.00, 
2399.00, 
2400.00, 
2401.00, 
2402.00, 
2403.00, 
2404.00, 
2405.00, 
2406.00, 
2407.00, 
2408.00, 
2409.00, 
2410.00, 
2411.00, 
2412.00, 
2413.00, 
2414.00, 
2415.00, 
2416.00, 
2417.00, 
2418.00, 
2419.00, 
2420.00, 
2421.00, 
2422.00, 
2423.00, 
2424.00, 
2425.00, 
2426.00, 
2427.00, 
2428.00, 
2429.00, 
2430.00, 
2431.00, 
2432.00, 
2433.00, 
2434.00, 
2435.00, 
2436.00, 
2437.00, 
2438.00, 
2439.00, 
2440.00, 
2441.00, 
2442.00, 
2443.00, 
2444.00, 
2445.00, 
2446.00, 
2447.00, 
2448.00, 
2449.00, 
2450.00, 
2451.00, 
2452.00, 
2453.00, 
2454.00, 
2455.00, 
2456.00, 
2457.00, 
2458.00, 
2459.00, 
2460.00, 
2461.00, 
2462.00, 
2463.00, 
2464.00, 
2465.00, 
2466.00, 
2467.00, 
2468.00, 
2469.00, 
2470.00, 
2471.00, 
2472.00, 
2473.00, 
2474.00, 
2475.00, 
2476.00, 
2477.00, 
2478.00, 
2479.00, 
2480.00, 
2481.00, 
2482.00, 
2483.00, 
2484.00, 
2485.00, 
2486.00, 
2487.00, 
2488.00, 
2489.00, 
2490.00, 
2491.00, 
2492.00, 
2493.00, 
2494.00, 
2495.00, 
2496.00, 
2497.00, 
2498.00, 
2499.00, 
2500.00, 
2501.00, 
2502.00, 
2503.00, 
2504.00, 
2505.00, 
2506.00, 
2507.00, 
2508.00, 
2509.00, 
2510.00, 
2511.00, 
2512.00, 
2513.00, 
2514.00, 
2515.00, 
2516.00, 
2517.00, 
2518.00, 
2519.00, 
2520.00, 
2521.00, 
2522.00, 
2523.00, 
2524.00, 
2525.00, 
2526.00, 
2527.00, 
2528.00, 
2529.00, 
2530.00, 
2531.00, 
2532.00, 
2533.00, 
2534.00, 
2535.00, 
2536.00, 
2537.00, 
2538.00, 
2539.00, 
2540.00, 
2541.00, 
2542.00, 
2543.00, 
2544.00, 
2545.00, 
2546.00, 
2547.00, 
2548.00, 
2549.00, 
2550.00, 
2551.00, 
2552.00, 
2553.00, 
2554.00, 
2555.00, 
2556.00, 
2557.00, 
2558.00, 
2559.00, 
2560.00, 
2561.00, 
2562.00, 
2563.00, 
2564.00, 
2565.00, 
2566.00, 
2567.00, 
2568.00, 
2569.00, 
2570.00, 
2571.00, 
2572.00, 
2573.00, 
2574.00, 
2575.00, 
2576.00, 
2577.00, 
2578.00, 
2579.00, 
2580.00, 
2581.00, 
2582.00, 
2583.00, 
2584.00, 
2585.00, 
2586.00, 
2587.00, 
2588.00, 
2589.00, 
2590.00, 
2591.00, 
2592.00, 
2593.00, 
2594.00, 
2595.00, 
2596.00, 
2597.00, 
2598.00, 
2599.00, 
2600.00, 
