"2cP1 - RawData"
"Wavelength nm.","T%"
200.00,0.001
201.00,0.002
202.00,0.003
203.00,0.001
204.00,0.001
205.00,0.004
206.00,0.001
207.00,-0.001
208.00,0.001
209.00,0.003
210.00,0.001
211.00,-0.001
212.00,0.001
213.00,0.001
214.00,0.001
215.00,0.002
216.00,0.001
217.00,0.002
218.00,0.003
219.00,0.001
220.00,0.002
221.00,0.001
222.00,0.004
223.00,0.001
224.00,0.003
225.00,-0.000
226.00,0.001
227.00,-0.000
228.00,0.000
229.00,0.003
230.00,0.001
231.00,0.001
232.00,0.000
233.00,-0.001
234.00,0.001
235.00,0.000
236.00,0.003
237.00,0.001
238.00,0.001
239.00,-0.000
240.00,-0.000
241.00,0.001
242.00,0.001
243.00,-0.000
244.00,0.002
245.00,-0.001
246.00,0.001
247.00,0.002
248.00,0.001
249.00,0.001
250.00,0.001
251.00,-0.001
252.00,0.002
253.00,0.000
254.00,0.001
255.00,0.001
256.00,0.001
257.00,-0.001
258.00,-0.000
259.00,0.002
260.00,0.001
261.00,0.001
262.00,0.002
263.00,0.001
264.00,0.001
265.00,0.000
266.00,0.001
267.00,0.001
268.00,0.000
269.00,0.001
270.00,0.001
271.00,-0.000
272.00,0.001
273.00,-0.001
274.00,-0.000
275.00,0.002
276.00,-0.000
277.00,0.000
278.00,-0.000
279.00,0.000
280.00,0.002
281.00,0.001
282.00,0.001
283.00,0.000
284.00,-0.000
285.00,0.001
286.00,-0.000
287.00,0.001
288.00,-0.000
289.00,0.001
290.00,0.001
291.00,-0.001
292.00,0.002
293.00,-0.000
294.00,0.001
295.00,0.001
296.00,-0.000
297.00,0.002
298.00,0.002
299.00,0.002
300.00,0.001
301.00,0.005
302.00,0.007
303.00,0.009
304.00,0.014
305.00,0.023
306.00,0.036
307.00,0.053
308.00,0.083
309.00,0.129
310.00,0.180
311.00,0.236
312.00,0.334
313.00,0.451
314.00,0.593
315.00,0.775
316.00,0.993
317.00,1.244
318.00,1.541
319.00,1.913
320.00,2.338
321.00,2.821
322.00,3.237
323.00,3.913
324.00,4.524
325.00,5.151
326.00,5.816
327.00,6.578
328.00,7.388
329.00,8.169
330.00,9.025
331.00,9.846
332.00,10.704
333.00,11.610
334.00,12.462
335.00,13.362
336.00,14.235
337.00,15.186
338.00,16.046
339.00,16.853
340.00,17.663
341.00,18.488
342.00,19.226
343.00,19.982
344.00,20.692
345.00,21.370
346.00,22.005
347.00,22.614
348.00,23.273
349.00,23.817
350.00,24.360
351.00,24.847
352.00,25.302
353.00,25.726
354.00,26.132
355.00,26.553
356.00,26.934
357.00,27.277
358.00,27.552
359.00,27.900
360.00,28.224
361.00,28.492
362.00,28.714
363.00,29.055
364.00,29.208
365.00,29.360
366.00,29.477
367.00,29.700
368.00,29.760
369.00,29.915
370.00,30.043
371.00,30.062
372.00,30.116
373.00,30.194
374.00,30.273
375.00,30.246
376.00,30.211
377.00,30.222
378.00,30.156
379.00,30.128
380.00,30.195
381.00,30.192
382.00,30.206
383.00,30.227
384.00,30.391
385.00,30.442
386.00,30.472
387.00,30.561
388.00,30.692
389.00,30.742
390.00,30.784
391.00,30.948
392.00,30.983
393.00,30.969
394.00,31.077
395.00,31.092
396.00,31.108
397.00,31.132
398.00,31.157
399.00,31.207
400.00,31.231
401.00,31.296
402.00,31.285
403.00,31.319
404.00,31.306
405.00,31.270
406.00,31.292
407.00,31.285
408.00,31.298
409.00,31.274
410.00,31.196
411.00,31.176
412.00,31.172
413.00,31.250
414.00,31.168
415.00,31.187
416.00,31.236
417.00,31.196
418.00,31.198
419.00,31.244
420.00,31.290
421.00,31.398
422.00,31.417
423.00,31.456
424.00,31.493
425.00,31.513
426.00,31.514
427.00,31.608
428.00,31.642
429.00,31.678
430.00,31.682
431.00,31.723
432.00,31.768
433.00,31.851
434.00,31.893
435.00,31.917
436.00,32.025
437.00,32.083
438.00,32.119
439.00,32.178
440.00,32.225
441.00,32.293
442.00,32.368
443.00,32.430
444.00,32.529
445.00,32.625
446.00,32.736
447.00,32.738
448.00,32.839
449.00,32.951
450.00,33.027
451.00,33.118
452.00,33.194
453.00,33.284
454.00,33.379
455.00,33.446
456.00,33.589
457.00,33.707
458.00,33.702
459.00,33.825
460.00,33.979
461.00,34.047
462.00,34.117
463.00,34.257
464.00,34.344
465.00,34.454
466.00,34.538
467.00,34.704
468.00,34.711
469.00,34.772
470.00,34.867
471.00,34.957
472.00,35.028
473.00,35.097
474.00,35.239
475.00,35.318
476.00,35.297
477.00,35.486
478.00,35.561
479.00,35.766
480.00,35.863
481.00,36.001
482.00,36.085
483.00,36.239
484.00,36.395
485.00,36.499
486.00,36.615
487.00,36.728
488.00,36.840
489.00,36.947
490.00,37.097
491.00,37.174
492.00,37.230
493.00,37.388
494.00,37.519
495.00,37.551
496.00,37.636
497.00,37.725
498.00,37.851
499.00,37.898
500.00,38.124
501.00,38.254
502.00,38.246
503.00,38.251
504.00,38.372
505.00,38.487
506.00,38.631
507.00,38.707
508.00,38.806
509.00,38.954
510.00,39.085
511.00,39.097
512.00,39.293
513.00,39.319
514.00,39.431
515.00,39.618
516.00,39.596
517.00,39.564
518.00,39.807
519.00,39.776
520.00,39.766
521.00,39.958
522.00,40.029
523.00,40.061
524.00,40.169
525.00,40.254
526.00,40.325
527.00,40.307
528.00,40.307
529.00,40.503
530.00,40.611
531.00,40.689
532.00,40.785
533.00,40.859
534.00,40.999
535.00,41.002
536.00,41.086
537.00,41.187
538.00,41.238
539.00,41.206
540.00,41.312
541.00,41.383
542.00,41.385
543.00,41.475
544.00,41.566
545.00,41.649
546.00,41.643
547.00,41.650
548.00,41.833
549.00,41.787
550.00,41.937
551.00,42.021
552.00,42.068
553.00,42.086
554.00,42.138
555.00,42.171
556.00,42.238
557.00,42.312
558.00,42.338
559.00,42.402
560.00,42.415
561.00,42.484
562.00,42.570
563.00,42.608
564.00,42.587
565.00,42.587
566.00,42.622
567.00,42.673
568.00,42.683
569.00,42.790
570.00,42.775
571.00,42.830
572.00,42.861
573.00,42.814
574.00,42.879
575.00,42.932
576.00,42.986
577.00,42.888
578.00,43.090
579.00,43.156
580.00,43.162
581.00,43.339
582.00,43.382
583.00,43.420
584.00,43.498
585.00,43.589
586.00,43.643
587.00,43.660
588.00,43.683
589.00,43.673
590.00,43.810
591.00,43.784
592.00,43.809
593.00,43.870
594.00,43.907
595.00,44.000
596.00,44.012
597.00,44.090
598.00,44.131
599.00,44.130
600.00,44.146
601.00,44.163
602.00,44.162
603.00,44.280
604.00,44.316
605.00,44.346
606.00,44.357
607.00,44.354
608.00,44.343
609.00,44.441
610.00,44.533
611.00,44.441
612.00,44.493
613.00,44.592
614.00,44.561
615.00,44.595
616.00,44.735
617.00,44.686
618.00,44.656
619.00,44.641
620.00,44.776
621.00,44.928
622.00,44.822
623.00,44.899
624.00,45.009
625.00,44.861
626.00,44.967
627.00,45.119
628.00,45.068
629.00,44.974
630.00,45.160
631.00,45.305
632.00,45.286
633.00,45.333
634.00,45.384
635.00,45.474
636.00,45.520
637.00,45.559
638.00,45.569
639.00,45.623
640.00,45.662
641.00,45.636
642.00,45.728
643.00,45.754
644.00,45.759
645.00,45.793
646.00,45.918
647.00,45.967
648.00,45.989
649.00,46.008
650.00,45.989
651.00,46.181
652.00,46.281
653.00,46.101
654.00,46.171
655.00,46.349
656.00,46.500
657.00,46.367
658.00,46.394
659.00,46.443
660.00,46.496
661.00,46.621
662.00,46.552
663.00,46.648
664.00,46.790
665.00,46.847
666.00,46.854
667.00,46.979
668.00,46.791
669.00,46.960
670.00,47.194
671.00,47.168
672.00,47.260
673.00,47.298
674.00,47.169
675.00,47.241
676.00,47.389
677.00,47.466
678.00,47.486
679.00,47.516
680.00,47.648
681.00,47.739
682.00,47.653
683.00,47.642
684.00,47.837
685.00,47.845
686.00,47.671
687.00,47.808
688.00,47.748
689.00,47.709
690.00,47.908
691.00,48.108
692.00,48.190
693.00,48.268
694.00,48.209
695.00,48.387
696.00,48.272
697.00,48.243
698.00,48.299
699.00,48.241
700.00,48.206
701.00,48.341
702.00,48.397
703.00,48.639
704.00,48.582
705.00,48.392
706.00,48.569
707.00,48.582
708.00,48.438
709.00,48.692
710.00,49.003
711.00,48.833
712.00,48.719
713.00,48.756
714.00,48.885
715.00,48.957
716.00,48.771
717.00,48.844
718.00,49.107
719.00,48.948
720.00,49.006
721.00,53.445
722.00,53.413
723.00,53.388
724.00,53.304
725.00,53.359
726.00,53.259
727.00,53.283
728.00,53.336
729.00,53.199
730.00,53.310
731.00,53.227
732.00,53.204
733.00,53.274
734.00,53.255
735.00,53.228
736.00,53.162
737.00,53.241
738.00,53.217
739.00,53.247
740.00,53.252
741.00,53.295
742.00,53.351
743.00,53.179
744.00,53.159
745.00,53.121
746.00,53.158
747.00,53.045
748.00,53.017
749.00,53.069
750.00,53.061
751.00,52.957
752.00,52.940
753.00,52.939
754.00,52.926
755.00,52.962
756.00,52.884
757.00,52.824
758.00,52.873
759.00,52.852
760.00,52.793
761.00,52.798
762.00,52.850
763.00,52.848
764.00,52.817
765.00,52.776
766.00,52.806
767.00,52.728
768.00,52.812
769.00,52.696
770.00,52.755
771.00,52.703
772.00,52.784
773.00,52.743
774.00,52.722
775.00,52.795
776.00,52.715
777.00,52.713
778.00,52.701
779.00,52.762
780.00,52.563
781.00,52.654
782.00,52.630
783.00,52.634
784.00,52.580
785.00,52.591
786.00,52.527
787.00,52.473
788.00,52.498
789.00,52.467
790.00,52.475
791.00,52.402
792.00,52.359
793.00,52.420
794.00,52.336
795.00,52.323
796.00,52.273
797.00,52.286
798.00,52.280
799.00,52.205
800.00,52.195
801.00,52.160
802.00,52.138
803.00,52.054
804.00,52.105
805.00,52.134
806.00,52.051
807.00,51.998
808.00,52.070
809.00,51.976
810.00,52.028
811.00,51.950
812.00,51.870
813.00,51.850
814.00,51.992
815.00,51.875
816.00,51.892
817.00,51.949
818.00,51.745
819.00,51.736
820.00,51.707
821.00,51.757
822.00,51.670
823.00,51.658
824.00,51.643
825.00,51.680
826.00,51.563
827.00,51.667
828.00,51.641
829.00,51.633
830.00,51.522
831.00,54.113
832.00,54.110
833.00,54.072
834.00,54.036
835.00,53.970
836.00,53.995
837.00,53.935
838.00,53.927
839.00,53.909
840.00,53.848
841.00,53.864
842.00,53.823
843.00,53.831
844.00,53.827
845.00,53.754
846.00,53.750
847.00,53.741
848.00,53.690
849.00,53.641
850.00,53.648
851.00,53.560
852.00,53.527
853.00,53.501
854.00,53.474
855.00,53.391
856.00,53.387
857.00,53.376
858.00,53.316
859.00,53.311
860.00,53.306
861.00,53.313
862.00,53.223
863.00,53.212
864.00,53.198
865.00,53.216
866.00,53.164
867.00,53.192
868.00,53.182
869.00,53.144
870.00,53.154
871.00,53.123
872.00,53.100
873.00,53.072
874.00,53.056
875.00,53.034
876.00,53.007
877.00,53.018
878.00,52.986
879.00,52.998
880.00,52.988
881.00,52.902
882.00,53.111
883.00,52.924
884.00,52.908
885.00,52.843
886.00,52.839
887.00,52.823
888.00,52.815
889.00,52.792
890.00,52.789
891.00,52.732
892.00,52.705
893.00,52.680
894.00,52.715
895.00,52.656
896.00,52.628
897.00,52.599
898.00,52.564
899.00,52.577
900.00,52.568
901.00,52.552
902.00,52.540
903.00,52.498
904.00,52.487
905.00,52.462
906.00,52.459
907.00,52.435
908.00,52.403
909.00,52.387
910.00,52.351
911.00,52.345
912.00,52.347
913.00,52.260
914.00,52.233
915.00,52.251
916.00,52.226
917.00,52.201
918.00,52.181
919.00,52.142
920.00,52.129
921.00,52.119
922.00,52.105
923.00,52.094
924.00,52.077
925.00,52.050
926.00,52.041
927.00,52.025
928.00,51.985
929.00,51.966
930.00,51.938
931.00,51.941
932.00,51.889
933.00,51.893
934.00,51.894
935.00,51.849
936.00,51.824
937.00,51.828
938.00,51.799
939.00,51.813
940.00,51.760
941.00,51.754
942.00,51.715
943.00,51.726
944.00,51.667
945.00,51.671
946.00,51.647
947.00,51.628
948.00,51.591
949.00,51.576
950.00,51.553
951.00,51.513
952.00,51.505
953.00,51.480
954.00,51.471
955.00,51.420
956.00,51.410
957.00,51.371
958.00,51.367
959.00,51.333
960.00,51.313
961.00,51.290
962.00,51.296
963.00,51.246
964.00,51.258
965.00,51.236
966.00,51.216
967.00,51.232
968.00,51.248
969.00,51.215
970.00,51.208
971.00,51.211
972.00,51.179
973.00,51.208
974.00,51.219
975.00,51.197
976.00,51.217
977.00,51.195
978.00,51.249
979.00,51.181
980.00,51.205
981.00,51.222
982.00,51.175
983.00,51.165
984.00,51.157
985.00,51.164
986.00,51.135
987.00,51.169
988.00,51.144
989.00,51.130
990.00,51.113
991.00,51.095
992.00,51.131
993.00,51.086
994.00,51.059
995.00,51.066
996.00,51.040
997.00,51.039
998.00,51.005
999.00,51.027
1000.00,50.978
1001.00,50.980
1002.00,50.969
1003.00,50.963
1004.00,50.929
1005.00,50.920
1006.00,50.945
1007.00,50.896
1008.00,50.897
1009.00,50.876
1010.00,50.874
1011.00,50.853
1012.00,50.807
1013.00,50.836
1014.00,50.785
1015.00,50.804
1016.00,50.766
1017.00,50.765
1018.00,50.741
1019.00,50.726
1020.00,50.707
1021.00,50.688
1022.00,50.696
1023.00,50.641
1024.00,50.640
1025.00,50.637
1026.00,50.624
1027.00,50.587
1028.00,50.604
1029.00,50.565
1030.00,50.556
1031.00,50.549
1032.00,50.506
1033.00,50.523
1034.00,50.492
1035.00,50.450
1036.00,50.445
1037.00,50.424
1038.00,50.398
1039.00,50.378
1040.00,50.373
1041.00,50.348
1042.00,50.331
1043.00,50.297
1044.00,50.347
1045.00,50.309
1046.00,50.305
1047.00,50.315
1048.00,50.317
1049.00,50.327
1050.00,50.335
1051.00,50.346
1052.00,50.374
1053.00,50.375
1054.00,50.367
1055.00,50.402
1056.00,50.397
1057.00,50.403
1058.00,50.413
1059.00,50.386
1060.00,50.395
1061.00,50.380
1062.00,50.352
1063.00,50.385
1064.00,50.358
1065.00,50.349
1066.00,50.347
1067.00,50.344
1068.00,50.341
1069.00,50.325
1070.00,50.289
1071.00,50.280
1072.00,50.279
1073.00,50.256
1074.00,50.273
1075.00,50.242
1076.00,50.226
1077.00,50.227
1078.00,50.204
1079.00,50.185
1080.00,50.199
1081.00,50.177
1082.00,50.173
1083.00,50.169
1084.00,50.151
1085.00,50.158
1086.00,50.157
1087.00,50.134
1088.00,50.144
1089.00,50.122
1090.00,50.114
1091.00,50.113
1092.00,50.100
1093.00,50.069
1094.00,50.061
1095.00,50.039
1096.00,50.049
1097.00,50.034
1098.00,50.025
1099.00,50.024
1100.00,50.011
1101.00,49.989
1102.00,50.003
1103.00,49.980
1104.00,49.967
1105.00,49.956
1106.00,49.940
1107.00,49.964
1108.00,49.946
1109.00,49.926
1110.00,49.941
1111.00,49.914
1112.00,49.899
1113.00,49.901
1114.00,49.898
1115.00,49.891
1116.00,49.890
1117.00,49.853
1118.00,49.871
1119.00,49.854
1120.00,49.842
1121.00,49.850
1122.00,49.827
1123.00,49.822
1124.00,49.825
1125.00,49.797
1126.00,49.797
1127.00,49.814
1128.00,49.810
1129.00,49.779
1130.00,49.777
1131.00,49.754
1132.00,49.771
1133.00,49.732
1134.00,49.738
1135.00,49.784
1136.00,49.722
1137.00,49.715
1138.00,49.722
1139.00,49.712
1140.00,49.721
1141.00,49.700
1142.00,49.692
1143.00,49.703
1144.00,49.682
1145.00,49.663
1146.00,49.687
1147.00,49.677
1148.00,49.692
1149.00,49.699
1150.00,49.664
1151.00,49.667
1152.00,49.652
1153.00,49.637
1154.00,49.647
1155.00,49.639
1156.00,49.626
1157.00,49.641
1158.00,49.628
1159.00,49.629
1160.00,49.617
1161.00,49.616
1162.00,49.624
1163.00,49.626
1164.00,49.600
1165.00,49.612
1166.00,49.599
1167.00,49.602
1168.00,49.618
1169.00,49.601
1170.00,49.597
1171.00,49.577
1172.00,49.577
1173.00,49.594
1174.00,49.593
1175.00,49.585
1176.00,49.592
1177.00,49.573
1178.00,49.570
1179.00,49.587
1180.00,49.578
1181.00,49.579
1182.00,49.581
1183.00,49.563
1184.00,49.561
1185.00,49.578
1186.00,49.553
1187.00,49.575
1188.00,49.553
1189.00,49.556
1190.00,49.551
1191.00,49.553
1192.00,49.554
1193.00,49.555
1194.00,49.546
1195.00,49.543
1196.00,49.562
1197.00,49.541
1198.00,49.557
1199.00,49.538
1200.00,49.537
1201.00,49.560
1202.00,49.525
1203.00,49.527
1204.00,49.517
1205.00,49.527
1206.00,49.532
1207.00,49.538
1208.00,49.509
1209.00,49.525
1210.00,49.521
1211.00,49.521
1212.00,49.543
1213.00,49.500
1214.00,49.521
1215.00,49.511
1216.00,49.507
1217.00,49.529
1218.00,49.510
1219.00,49.508
1220.00,49.513
1221.00,49.507
1222.00,49.492
1223.00,49.525
1224.00,49.510
1225.00,49.499
1226.00,49.505
1227.00,49.482
1228.00,49.517
1229.00,49.521
1230.00,49.552
1231.00,49.549
1232.00,49.549
1233.00,49.548
1234.00,49.569
1235.00,49.548
1236.00,49.553
1237.00,49.535
1238.00,49.539
1239.00,49.552
1240.00,49.546
1241.00,49.530
1242.00,49.544
1243.00,49.572
1244.00,49.539
1245.00,49.566
1246.00,49.565
1247.00,49.565
1248.00,49.571
1249.00,49.571
1250.00,49.579
1251.00,49.587
1252.00,49.561
1253.00,49.591
1254.00,49.601
1255.00,49.593
1256.00,49.631
1257.00,49.611
1258.00,49.609
1259.00,49.604
1260.00,49.608
1261.00,49.617
1262.00,49.611
1263.00,49.596
1264.00,49.628
1265.00,49.609
1266.00,49.607
1267.00,49.626
1268.00,49.632
1269.00,49.619
1270.00,49.636
1271.00,49.623
1272.00,49.652
1273.00,49.650
1274.00,49.639
1275.00,49.648
1276.00,49.659
1277.00,49.645
1278.00,49.676
1279.00,49.661
1280.00,49.668
1281.00,49.677
1282.00,49.672
1283.00,49.683
1284.00,49.683
1285.00,49.655
1286.00,49.671
1287.00,49.683
1288.00,49.691
1289.00,49.684
1290.00,49.688
1291.00,49.712
1292.00,49.717
1293.00,49.692
1294.00,49.726
1295.00,49.726
1296.00,49.714
1297.00,49.746
1298.00,49.734
1299.00,49.718
1300.00,49.718
1301.00,49.736
1302.00,49.765
1303.00,49.779
1304.00,49.753
1305.00,49.782
1306.00,49.781
1307.00,49.777
1308.00,49.797
1309.00,49.784
1310.00,49.789
1311.00,49.790
1312.00,49.788
1313.00,49.792
1314.00,49.818
1315.00,49.820
1316.00,49.836
1317.00,49.838
1318.00,49.826
1319.00,49.834
1320.00,49.855
1321.00,50.003
1322.00,50.034
1323.00,50.005
1324.00,50.004
1325.00,49.990
1326.00,50.017
1327.00,50.015
1328.00,50.012
1329.00,50.005
1330.00,50.009
1331.00,50.014
1332.00,50.007
1333.00,50.031
1334.00,50.029
1335.00,50.061
1336.00,50.087
1337.00,50.105
1338.00,50.179
1339.00,50.226
1340.00,50.266
1341.00,50.352
1342.00,50.403
1343.00,50.450
1344.00,50.494
1345.00,50.548
1346.00,50.594
1347.00,50.622
1348.00,50.634
1349.00,50.654
1350.00,50.648
1351.00,50.662
1352.00,50.665
1353.00,50.729
1354.00,50.682
1355.00,50.634
1356.00,50.714
1357.00,50.722
1358.00,50.723
1359.00,50.775
1360.00,50.812
1361.00,50.696
1362.00,50.686
1363.00,50.747
1364.00,50.784
1365.00,50.736
1366.00,50.757
1367.00,50.698
1368.00,50.696
1369.00,50.737
1370.00,50.677
1371.00,50.660
1372.00,50.689
1373.00,50.685
1374.00,50.695
1375.00,50.684
1376.00,50.671
1377.00,50.645
1378.00,50.657
1379.00,50.671
1380.00,50.693
1381.00,50.638
1382.00,50.605
1383.00,50.674
1384.00,50.634
1385.00,50.611
1386.00,50.691
1387.00,50.621
1388.00,50.633
1389.00,50.570
1390.00,50.740
1391.00,50.658
1392.00,50.690
1393.00,50.684
1394.00,50.648
1395.00,50.667
1396.00,50.631
1397.00,50.657
1398.00,50.676
1399.00,50.603
1400.00,50.628
1401.00,50.659
1402.00,50.672
1403.00,50.642
1404.00,50.677
1405.00,50.709
1406.00,50.690
1407.00,50.726
1408.00,50.691
1409.00,50.699
1410.00,50.736
1411.00,50.767
1412.00,50.768
1413.00,50.721
1414.00,50.728
1415.00,50.783
1416.00,50.792
1417.00,50.770
1418.00,50.784
1419.00,50.772
1420.00,50.799
1421.00,50.827
1422.00,50.834
1423.00,50.826
1424.00,50.868
1425.00,50.844
1426.00,50.882
1427.00,50.893
1428.00,50.887
1429.00,50.913
1430.00,50.916
1431.00,50.925
1432.00,50.944
1433.00,50.961
1434.00,50.963
1435.00,50.990
1436.00,51.000
1437.00,51.013
1438.00,51.030
1439.00,51.046
1440.00,51.060
1441.00,51.080
1442.00,51.072
1443.00,51.130
1444.00,51.115
1445.00,51.115
1446.00,51.141
1447.00,51.158
1448.00,51.189
1449.00,51.186
1450.00,51.170
1451.00,51.224
1452.00,51.224
1453.00,51.246
1454.00,51.253
1455.00,51.268
1456.00,51.281
1457.00,51.296
1458.00,51.297
1459.00,51.327
1460.00,51.319
1461.00,51.341
1462.00,51.381
1463.00,51.372
1464.00,51.377
1465.00,51.407
1466.00,51.401
1467.00,51.440
1468.00,51.502
1469.00,51.462
1470.00,51.467
1471.00,51.493
1472.00,51.498
1473.00,51.518
1474.00,51.529
1475.00,51.533
1476.00,51.558
1477.00,51.552
1478.00,51.572
1479.00,51.588
1480.00,51.584
1481.00,51.610
1482.00,51.625
1483.00,51.619
1484.00,51.642
1485.00,51.665
1486.00,51.653
1487.00,51.683
1488.00,51.682
1489.00,51.693
1490.00,51.705
1491.00,51.706
1492.00,51.734
1493.00,51.736
1494.00,51.730
1495.00,51.772
1496.00,51.744
1497.00,51.754
1498.00,51.766
1499.00,51.785
1500.00,51.819
1501.00, 
1502.00, 
1503.00, 
1504.00, 
1505.00, 
1506.00, 
1507.00, 
1508.00, 
1509.00, 
1510.00, 
1511.00, 
1512.00, 
1513.00, 
1514.00, 
1515.00, 
1516.00, 
1517.00, 
1518.00, 
1519.00, 
1520.00, 
1521.00, 
1522.00, 
1523.00, 
1524.00, 
1525.00, 
1526.00, 
1527.00, 
1528.00, 
1529.00, 
1530.00, 
1531.00, 
1532.00, 
1533.00, 
1534.00, 
1535.00, 
1536.00, 
1537.00, 
1538.00, 
1539.00, 
1540.00, 
1541.00, 
1542.00, 
1543.00, 
1544.00, 
1545.00, 
1546.00, 
1547.00, 
1548.00, 
1549.00, 
1550.00, 
1551.00, 
1552.00, 
1553.00, 
1554.00, 
1555.00, 
1556.00, 
1557.00, 
1558.00, 
1559.00, 
1560.00, 
1561.00, 
1562.00, 
1563.00, 
1564.00, 
1565.00, 
1566.00, 
1567.00, 
1568.00, 
1569.00, 
1570.00, 
1571.00, 
1572.00, 
1573.00, 
1574.00, 
1575.00, 
1576.00, 
1577.00, 
1578.00, 
1579.00, 
1580.00, 
1581.00, 
1582.00, 
1583.00, 
1584.00, 
1585.00, 
1586.00, 
1587.00, 
1588.00, 
1589.00, 
1590.00, 
1591.00, 
1592.00, 
1593.00, 
1594.00, 
1595.00, 
1596.00, 
1597.00, 
1598.00, 
1599.00, 
1600.00, 
1601.00, 
1602.00, 
1603.00, 
1604.00, 
1605.00, 
1606.00, 
1607.00, 
1608.00, 
1609.00, 
1610.00, 
1611.00, 
1612.00, 
1613.00, 
1614.00, 
1615.00, 
1616.00, 
1617.00, 
1618.00, 
1619.00, 
1620.00, 
1621.00, 
1622.00, 
1623.00, 
1624.00, 
1625.00, 
1626.00, 
1627.00, 
1628.00, 
1629.00, 
1630.00, 
1631.00, 
1632.00, 
1633.00, 
1634.00, 
1635.00, 
1636.00, 
1637.00, 
1638.00, 
1639.00, 
1640.00, 
1641.00, 
1642.00, 
1643.00, 
1644.00, 
1645.00, 
1646.00, 
1647.00, 
1648.00, 
1649.00, 
1650.00, 
1651.00, 
1652.00, 
1653.00, 
1654.00, 
1655.00, 
1656.00, 
1657.00, 
1658.00, 
1659.00, 
1660.00, 
1661.00, 
1662.00, 
1663.00, 
1664.00, 
1665.00, 
1666.00, 
1667.00, 
1668.00, 
1669.00, 
1670.00, 
1671.00, 
1672.00, 
1673.00, 
1674.00, 
1675.00, 
1676.00, 
1677.00, 
1678.00, 
1679.00, 
1680.00, 
1681.00, 
1682.00, 
1683.00, 
1684.00, 
1685.00, 
1686.00, 
1687.00, 
1688.00, 
1689.00, 
1690.00, 
1691.00, 
1692.00, 
1693.00, 
1694.00, 
1695.00, 
1696.00, 
1697.00, 
1698.00, 
1699.00, 
1700.00, 
1701.00, 
1702.00, 
1703.00, 
1704.00, 
1705.00, 
1706.00, 
1707.00, 
1708.00, 
1709.00, 
1710.00, 
1711.00, 
1712.00, 
1713.00, 
1714.00, 
1715.00, 
1716.00, 
1717.00, 
1718.00, 
1719.00, 
1720.00, 
1721.00, 
1722.00, 
1723.00, 
1724.00, 
1725.00, 
1726.00, 
1727.00, 
1728.00, 
1729.00, 
1730.00, 
1731.00, 
1732.00, 
1733.00, 
1734.00, 
1735.00, 
1736.00, 
1737.00, 
1738.00, 
1739.00, 
1740.00, 
1741.00, 
1742.00, 
1743.00, 
1744.00, 
1745.00, 
1746.00, 
1747.00, 
1748.00, 
1749.00, 
1750.00, 
1751.00, 
1752.00, 
1753.00, 
1754.00, 
1755.00, 
1756.00, 
1757.00, 
1758.00, 
1759.00, 
1760.00, 
1761.00, 
1762.00, 
1763.00, 
1764.00, 
1765.00, 
1766.00, 
1767.00, 
1768.00, 
1769.00, 
1770.00, 
1771.00, 
1772.00, 
1773.00, 
1774.00, 
1775.00, 
1776.00, 
1777.00, 
1778.00, 
1779.00, 
1780.00, 
1781.00, 
1782.00, 
1783.00, 
1784.00, 
1785.00, 
1786.00, 
1787.00, 
1788.00, 
1789.00, 
1790.00, 
1791.00, 
1792.00, 
1793.00, 
1794.00, 
1795.00, 
1796.00, 
1797.00, 
1798.00, 
1799.00, 
1800.00, 
1801.00, 
1802.00, 
1803.00, 
1804.00, 
1805.00, 
1806.00, 
1807.00, 
1808.00, 
1809.00, 
1810.00, 
1811.00, 
1812.00, 
1813.00, 
1814.00, 
1815.00, 
1816.00, 
1817.00, 
1818.00, 
1819.00, 
1820.00, 
1821.00, 
1822.00, 
1823.00, 
1824.00, 
1825.00, 
1826.00, 
1827.00, 
1828.00, 
1829.00, 
1830.00, 
1831.00, 
1832.00, 
1833.00, 
1834.00, 
1835.00, 
1836.00, 
1837.00, 
1838.00, 
1839.00, 
1840.00, 
1841.00, 
1842.00, 
1843.00, 
1844.00, 
1845.00, 
1846.00, 
1847.00, 
1848.00, 
1849.00, 
1850.00, 
1851.00, 
1852.00, 
1853.00, 
1854.00, 
1855.00, 
1856.00, 
1857.00, 
1858.00, 
1859.00, 
1860.00, 
1861.00, 
1862.00, 
1863.00, 
1864.00, 
1865.00, 
1866.00, 
1867.00, 
1868.00, 
1869.00, 
1870.00, 
1871.00, 
1872.00, 
1873.00, 
1874.00, 
1875.00, 
1876.00, 
1877.00, 
1878.00, 
1879.00, 
1880.00, 
1881.00, 
1882.00, 
1883.00, 
1884.00, 
1885.00, 
1886.00, 
1887.00, 
1888.00, 
1889.00, 
1890.00, 
1891.00, 
1892.00, 
1893.00, 
1894.00, 
1895.00, 
1896.00, 
1897.00, 
1898.00, 
1899.00, 
1900.00, 
1901.00, 
1902.00, 
1903.00, 
1904.00, 
1905.00, 
1906.00, 
1907.00, 
1908.00, 
1909.00, 
1910.00, 
1911.00, 
1912.00, 
1913.00, 
1914.00, 
1915.00, 
1916.00, 
1917.00, 
1918.00, 
1919.00, 
1920.00, 
1921.00, 
1922.00, 
1923.00, 
1924.00, 
1925.00, 
1926.00, 
1927.00, 
1928.00, 
1929.00, 
1930.00, 
1931.00, 
1932.00, 
1933.00, 
1934.00, 
1935.00, 
1936.00, 
1937.00, 
1938.00, 
1939.00, 
1940.00, 
1941.00, 
1942.00, 
1943.00, 
1944.00, 
1945.00, 
1946.00, 
1947.00, 
1948.00, 
1949.00, 
1950.00, 
1951.00, 
1952.00, 
1953.00, 
1954.00, 
1955.00, 
1956.00, 
1957.00, 
1958.00, 
1959.00, 
1960.00, 
1961.00, 
1962.00, 
1963.00, 
1964.00, 
1965.00, 
1966.00, 
1967.00, 
1968.00, 
1969.00, 
1970.00, 
1971.00, 
1972.00, 
1973.00, 
1974.00, 
1975.00, 
1976.00, 
1977.00, 
1978.00, 
1979.00, 
1980.00, 
1981.00, 
1982.00, 
1983.00, 
1984.00, 
1985.00, 
1986.00, 
1987.00, 
1988.00, 
1989.00, 
1990.00, 
1991.00, 
1992.00, 
1993.00, 
1994.00, 
1995.00, 
1996.00, 
1997.00, 
1998.00, 
1999.00, 
2000.00, 
2001.00, 
2002.00, 
2003.00, 
2004.00, 
2005.00, 
2006.00, 
2007.00, 
2008.00, 
2009.00, 
2010.00, 
2011.00, 
2012.00, 
2013.00, 
2014.00, 
2015.00, 
2016.00, 
2017.00, 
2018.00, 
2019.00, 
2020.00, 
2021.00, 
2022.00, 
2023.00, 
2024.00, 
2025.00, 
2026.00, 
2027.00, 
2028.00, 
2029.00, 
2030.00, 
2031.00, 
2032.00, 
2033.00, 
2034.00, 
2035.00, 
2036.00, 
2037.00, 
2038.00, 
2039.00, 
2040.00, 
2041.00, 
2042.00, 
2043.00, 
2044.00, 
2045.00, 
2046.00, 
2047.00, 
2048.00, 
2049.00, 
2050.00, 
2051.00, 
2052.00, 
2053.00, 
2054.00, 
2055.00, 
2056.00, 
2057.00, 
2058.00, 
2059.00, 
2060.00, 
2061.00, 
2062.00, 
2063.00, 
2064.00, 
2065.00, 
2066.00, 
2067.00, 
2068.00, 
2069.00, 
2070.00, 
2071.00, 
2072.00, 
2073.00, 
2074.00, 
2075.00, 
2076.00, 
2077.00, 
2078.00, 
2079.00, 
2080.00, 
2081.00, 
2082.00, 
2083.00, 
2084.00, 
2085.00, 
2086.00, 
2087.00, 
2088.00, 
2089.00, 
2090.00, 
2091.00, 
2092.00, 
2093.00, 
2094.00, 
2095.00, 
2096.00, 
2097.00, 
2098.00, 
2099.00, 
2100.00, 
2101.00, 
2102.00, 
2103.00, 
2104.00, 
2105.00, 
2106.00, 
2107.00, 
2108.00, 
2109.00, 
2110.00, 
2111.00, 
2112.00, 
2113.00, 
2114.00, 
2115.00, 
2116.00, 
2117.00, 
2118.00, 
2119.00, 
2120.00, 
2121.00, 
2122.00, 
2123.00, 
2124.00, 
2125.00, 
2126.00, 
2127.00, 
2128.00, 
2129.00, 
2130.00, 
2131.00, 
2132.00, 
2133.00, 
2134.00, 
2135.00, 
2136.00, 
2137.00, 
2138.00, 
2139.00, 
2140.00, 
2141.00, 
2142.00, 
2143.00, 
2144.00, 
2145.00, 
2146.00, 
2147.00, 
2148.00, 
2149.00, 
2150.00, 
2151.00, 
2152.00, 
2153.00, 
2154.00, 
2155.00, 
2156.00, 
2157.00, 
2158.00, 
2159.00, 
2160.00, 
2161.00, 
2162.00, 
2163.00, 
2164.00, 
2165.00, 
2166.00, 
2167.00, 
2168.00, 
2169.00, 
2170.00, 
2171.00, 
2172.00, 
2173.00, 
2174.00, 
2175.00, 
2176.00, 
2177.00, 
2178.00, 
2179.00, 
2180.00, 
2181.00, 
2182.00, 
2183.00, 
2184.00, 
2185.00, 
2186.00, 
2187.00, 
2188.00, 
2189.00, 
2190.00, 
2191.00, 
2192.00, 
2193.00, 
2194.00, 
2195.00, 
2196.00, 
2197.00, 
2198.00, 
2199.00, 
2200.00, 
2201.00, 
2202.00, 
2203.00, 
2204.00, 
2205.00, 
2206.00, 
2207.00, 
2208.00, 
2209.00, 
2210.00, 
2211.00, 
2212.00, 
2213.00, 
2214.00, 
2215.00, 
2216.00, 
2217.00, 
2218.00, 
2219.00, 
2220.00, 
2221.00, 
2222.00, 
2223.00, 
2224.00, 
2225.00, 
2226.00, 
2227.00, 
2228.00, 
2229.00, 
2230.00, 
2231.00, 
2232.00, 
2233.00, 
2234.00, 
2235.00, 
2236.00, 
2237.00, 
2238.00, 
2239.00, 
2240.00, 
2241.00, 
2242.00, 
2243.00, 
2244.00, 
2245.00, 
2246.00, 
2247.00, 
2248.00, 
2249.00, 
2250.00, 
2251.00, 
2252.00, 
2253.00, 
2254.00, 
2255.00, 
2256.00, 
2257.00, 
2258.00, 
2259.00, 
2260.00, 
2261.00, 
2262.00, 
2263.00, 
2264.00, 
2265.00, 
2266.00, 
2267.00, 
2268.00, 
2269.00, 
2270.00, 
2271.00, 
2272.00, 
2273.00, 
2274.00, 
2275.00, 
2276.00, 
2277.00, 
2278.00, 
2279.00, 
2280.00, 
2281.00, 
2282.00, 
2283.00, 
2284.00, 
2285.00, 
2286.00, 
2287.00, 
2288.00, 
2289.00, 
2290.00, 
2291.00, 
2292.00, 
2293.00, 
2294.00, 
2295.00, 
2296.00, 
2297.00, 
2298.00, 
2299.00, 
2300.00, 
2301.00, 
2302.00, 
2303.00, 
2304.00, 
2305.00, 
2306.00, 
2307.00, 
2308.00, 
2309.00, 
2310.00, 
2311.00, 
2312.00, 
2313.00, 
2314.00, 
2315.00, 
2316.00, 
2317.00, 
2318.00, 
2319.00, 
2320.00, 
2321.00, 
2322.00, 
2323.00, 
2324.00, 
2325.00, 
2326.00, 
2327.00, 
2328.00, 
2329.00, 
2330.00, 
2331.00, 
2332.00, 
2333.00, 
2334.00, 
2335.00, 
2336.00, 
2337.00, 
2338.00, 
2339.00, 
2340.00, 
2341.00, 
2342.00, 
2343.00, 
2344.00, 
2345.00, 
2346.00, 
2347.00, 
2348.00, 
2349.00, 
2350.00, 
2351.00, 
2352.00, 
2353.00, 
2354.00, 
2355.00, 
2356.00, 
2357.00, 
2358.00, 
2359.00, 
2360.00, 
2361.00, 
2362.00, 
2363.00, 
2364.00, 
2365.00, 
2366.00, 
2367.00, 
2368.00, 
2369.00, 
2370.00, 
2371.00, 
2372.00, 
2373.00, 
2374.00, 
2375.00, 
2376.00, 
2377.00, 
2378.00, 
2379.00, 
2380.00, 
2381.00, 
2382.00, 
2383.00, 
2384.00, 
2385.00, 
2386.00, 
2387.00, 
2388.00, 
2389.00, 
2390.00, 
2391.00, 
2392.00, 
2393.00, 
2394.00, 
2395.00, 
2396.00, 
2397.00, 
2398.00, 
2399.00, 
2400.00, 
2401.00, 
2402.00, 
2403.00, 
2404.00, 
2405.00, 
2406.00, 
2407.00, 
2408.00, 
2409.00, 
2410.00, 
2411.00, 
2412.00, 
2413.00, 
2414.00, 
2415.00, 
2416.00, 
2417.00, 
2418.00, 
2419.00, 
2420.00, 
2421.00, 
2422.00, 
2423.00, 
2424.00, 
2425.00, 
2426.00, 
2427.00, 
2428.00, 
2429.00, 
2430.00, 
2431.00, 
2432.00, 
2433.00, 
2434.00, 
2435.00, 
2436.00, 
2437.00, 
2438.00, 
2439.00, 
2440.00, 
2441.00, 
2442.00, 
2443.00, 
2444.00, 
2445.00, 
2446.00, 
2447.00, 
2448.00, 
2449.00, 
2450.00, 
2451.00, 
2452.00, 
2453.00, 
2454.00, 
2455.00, 
2456.00, 
2457.00, 
2458.00, 
2459.00, 
2460.00, 
2461.00, 
2462.00, 
2463.00, 
2464.00, 
2465.00, 
2466.00, 
2467.00, 
2468.00, 
2469.00, 
2470.00, 
2471.00, 
2472.00, 
2473.00, 
2474.00, 
2475.00, 
2476.00, 
2477.00, 
2478.00, 
2479.00, 
2480.00, 
2481.00, 
2482.00, 
2483.00, 
2484.00, 
2485.00, 
2486.00, 
2487.00, 
2488.00, 
2489.00, 
2490.00, 
2491.00, 
2492.00, 
2493.00, 
2494.00, 
2495.00, 
2496.00, 
2497.00, 
2498.00, 
2499.00, 
2500.00, 
2501.00, 
2502.00, 
2503.00, 
2504.00, 
2505.00, 
2506.00, 
2507.00, 
2508.00, 
2509.00, 
2510.00, 
2511.00, 
2512.00, 
2513.00, 
2514.00, 
2515.00, 
2516.00, 
2517.00, 
2518.00, 
2519.00, 
2520.00, 
2521.00, 
2522.00, 
2523.00, 
2524.00, 
2525.00, 
2526.00, 
2527.00, 
2528.00, 
2529.00, 
2530.00, 
2531.00, 
2532.00, 
2533.00, 
2534.00, 
2535.00, 
2536.00, 
2537.00, 
2538.00, 
2539.00, 
2540.00, 
2541.00, 
2542.00, 
2543.00, 
2544.00, 
2545.00, 
2546.00, 
2547.00, 
2548.00, 
2549.00, 
2550.00, 
2551.00, 
2552.00, 
2553.00, 
2554.00, 
2555.00, 
2556.00, 
2557.00, 
2558.00, 
2559.00, 
2560.00, 
2561.00, 
2562.00, 
2563.00, 
2564.00, 
2565.00, 
2566.00, 
2567.00, 
2568.00, 
2569.00, 
2570.00, 
2571.00, 
2572.00, 
2573.00, 
2574.00, 
2575.00, 
2576.00, 
2577.00, 
2578.00, 
2579.00, 
2580.00, 
2581.00, 
2582.00, 
2583.00, 
2584.00, 
2585.00, 
2586.00, 
2587.00, 
2588.00, 
2589.00, 
2590.00, 
2591.00, 
2592.00, 
2593.00, 
2594.00, 
2595.00, 
2596.00, 
2597.00, 
2598.00, 
2599.00, 
2600.00, 
