"2cP5 - RawData"
"Wavelength nm.","T%"
200.00,0.001
201.00,0.001
202.00,-0.000
203.00,0.001
204.00,0.001
205.00,0.001
206.00,0.000
207.00,-0.001
208.00,0.005
209.00,0.005
210.00,-0.002
211.00,0.003
212.00,-0.000
213.00,0.001
214.00,0.000
215.00,-0.001
216.00,-0.001
217.00,0.005
218.00,0.003
219.00,0.001
220.00,-0.000
221.00,0.002
222.00,0.003
223.00,0.000
224.00,0.001
225.00,0.000
226.00,0.000
227.00,0.000
228.00,-0.001
229.00,0.003
230.00,0.000
231.00,-0.001
232.00,-0.002
233.00,0.002
234.00,0.003
235.00,0.001
236.00,0.001
237.00,-0.002
238.00,-0.001
239.00,-0.001
240.00,0.000
241.00,0.001
242.00,0.003
243.00,0.000
244.00,0.000
245.00,0.001
246.00,-0.000
247.00,0.001
248.00,0.002
249.00,-0.000
250.00,-0.001
251.00,0.000
252.00,0.000
253.00,0.001
254.00,0.001
255.00,0.001
256.00,0.001
257.00,-0.000
258.00,-0.000
259.00,0.001
260.00,0.001
261.00,0.000
262.00,0.002
263.00,0.002
264.00,0.001
265.00,-0.001
266.00,-0.000
267.00,0.002
268.00,-0.000
269.00,0.001
270.00,0.001
271.00,0.000
272.00,0.001
273.00,0.001
274.00,0.000
275.00,0.001
276.00,0.001
277.00,0.001
278.00,0.001
279.00,-0.001
280.00,0.001
281.00,0.001
282.00,0.002
283.00,0.001
284.00,0.000
285.00,0.000
286.00,-0.000
287.00,0.000
288.00,-0.001
289.00,0.001
290.00,0.000
291.00,0.001
292.00,-0.000
293.00,0.000
294.00,0.001
295.00,0.001
296.00,0.001
297.00,0.002
298.00,0.001
299.00,0.001
300.00,0.003
301.00,0.001
302.00,0.006
303.00,0.008
304.00,0.015
305.00,0.018
306.00,0.032
307.00,0.045
308.00,0.073
309.00,0.112
310.00,0.157
311.00,0.203
312.00,0.278
313.00,0.390
314.00,0.503
315.00,0.655
316.00,0.826
317.00,1.053
318.00,1.299
319.00,1.603
320.00,1.959
321.00,2.337
322.00,2.765
323.00,3.257
324.00,3.781
325.00,4.288
326.00,4.847
327.00,5.480
328.00,6.132
329.00,6.762
330.00,7.481
331.00,8.177
332.00,8.883
333.00,9.615
334.00,10.292
335.00,11.065
336.00,11.764
337.00,12.506
338.00,13.209
339.00,13.859
340.00,14.519
341.00,15.206
342.00,15.805
343.00,16.373
344.00,16.976
345.00,17.528
346.00,18.014
347.00,18.555
348.00,19.015
349.00,19.441
350.00,19.915
351.00,20.242
352.00,20.616
353.00,20.951
354.00,21.272
355.00,21.604
356.00,21.848
357.00,22.094
358.00,22.352
359.00,22.577
360.00,22.805
361.00,23.060
362.00,23.308
363.00,23.370
364.00,23.465
365.00,23.637
366.00,23.688
367.00,23.843
368.00,23.888
369.00,23.991
370.00,24.100
371.00,24.084
372.00,24.108
373.00,24.183
374.00,24.184
375.00,24.127
376.00,24.090
377.00,24.120
378.00,24.023
379.00,23.961
380.00,23.999
381.00,23.985
382.00,24.017
383.00,24.035
384.00,24.083
385.00,24.115
386.00,24.130
387.00,24.214
388.00,24.292
389.00,24.290
390.00,24.360
391.00,24.428
392.00,24.431
393.00,24.392
394.00,24.459
395.00,24.501
396.00,24.458
397.00,24.485
398.00,24.532
399.00,24.535
400.00,24.546
401.00,24.559
402.00,24.574
403.00,24.574
404.00,24.592
405.00,24.595
406.00,24.553
407.00,24.556
408.00,24.566
409.00,24.517
410.00,24.481
411.00,24.470
412.00,24.487
413.00,24.506
414.00,24.432
415.00,24.500
416.00,24.554
417.00,24.508
418.00,24.540
419.00,24.590
420.00,24.636
421.00,24.691
422.00,24.737
423.00,24.791
424.00,24.846
425.00,24.853
426.00,24.875
427.00,24.969
428.00,24.991
429.00,25.040
430.00,25.097
431.00,25.150
432.00,25.196
433.00,25.254
434.00,25.330
435.00,25.399
436.00,25.454
437.00,25.565
438.00,25.597
439.00,25.671
440.00,25.767
441.00,25.835
442.00,25.925
443.00,25.990
444.00,26.118
445.00,26.186
446.00,26.306
447.00,26.393
448.00,26.492
449.00,26.585
450.00,26.696
451.00,26.769
452.00,26.943
453.00,27.049
454.00,27.094
455.00,27.227
456.00,27.353
457.00,27.458
458.00,27.564
459.00,27.702
460.00,27.824
461.00,27.985
462.00,28.063
463.00,28.214
464.00,28.324
465.00,28.469
466.00,28.578
467.00,28.723
468.00,28.808
469.00,28.887
470.00,29.028
471.00,29.162
472.00,29.249
473.00,29.334
474.00,29.484
475.00,29.588
476.00,29.708
477.00,29.825
478.00,29.925
479.00,30.147
480.00,30.233
481.00,30.405
482.00,30.547
483.00,30.671
484.00,30.844
485.00,30.994
486.00,31.177
487.00,31.264
488.00,31.423
489.00,31.583
490.00,31.736
491.00,31.819
492.00,31.956
493.00,32.114
494.00,32.269
495.00,32.310
496.00,32.454
497.00,32.568
498.00,32.690
499.00,32.817
500.00,32.967
501.00,33.106
502.00,33.235
503.00,33.326
504.00,33.412
505.00,33.539
506.00,33.636
507.00,33.742
508.00,33.878
509.00,34.064
510.00,34.224
511.00,34.234
512.00,34.432
513.00,34.533
514.00,34.606
515.00,34.814
516.00,34.805
517.00,34.863
518.00,35.069
519.00,35.111
520.00,35.102
521.00,35.246
522.00,35.361
523.00,35.381
524.00,35.549
525.00,35.659
526.00,35.720
527.00,35.759
528.00,35.807
529.00,35.957
530.00,36.097
531.00,36.184
532.00,36.305
533.00,36.427
534.00,36.512
535.00,36.587
536.00,36.643
537.00,36.696
538.00,36.776
539.00,36.791
540.00,36.896
541.00,36.939
542.00,36.951
543.00,37.031
544.00,37.120
545.00,37.177
546.00,37.245
547.00,37.379
548.00,37.491
549.00,37.421
550.00,37.483
551.00,37.719
552.00,37.729
553.00,37.749
554.00,37.823
555.00,37.839
556.00,37.878
557.00,37.960
558.00,38.039
559.00,38.093
560.00,38.153
561.00,38.184
562.00,38.282
563.00,38.300
564.00,38.286
565.00,38.319
566.00,38.376
567.00,38.397
568.00,38.428
569.00,38.525
570.00,38.531
571.00,38.548
572.00,38.605
573.00,38.580
574.00,38.647
575.00,38.636
576.00,38.667
577.00,38.731
578.00,38.837
579.00,38.897
580.00,38.929
581.00,39.059
582.00,39.124
583.00,39.126
584.00,39.234
585.00,39.295
586.00,39.321
587.00,39.408
588.00,39.417
589.00,39.347
590.00,39.469
591.00,39.517
592.00,39.497
593.00,39.556
594.00,39.642
595.00,39.779
596.00,39.784
597.00,39.760
598.00,39.843
599.00,39.877
600.00,39.899
601.00,39.931
602.00,40.016
603.00,40.027
604.00,40.032
605.00,40.100
606.00,40.125
607.00,40.115
608.00,40.095
609.00,40.208
610.00,40.337
611.00,40.237
612.00,40.323
613.00,40.385
614.00,40.337
615.00,40.442
616.00,40.546
617.00,40.509
618.00,40.537
619.00,40.591
620.00,40.647
621.00,40.651
622.00,40.818
623.00,40.886
624.00,40.928
625.00,40.955
626.00,41.029
627.00,41.041
628.00,41.106
629.00,41.133
630.00,41.197
631.00,41.178
632.00,41.319
633.00,41.447
634.00,41.503
635.00,41.597
636.00,41.650
637.00,41.699
638.00,41.700
639.00,41.845
640.00,41.806
641.00,41.869
642.00,41.979
643.00,42.009
644.00,42.016
645.00,42.104
646.00,42.269
647.00,42.291
648.00,42.383
649.00,42.374
650.00,42.392
651.00,42.564
652.00,42.706
653.00,42.551
654.00,42.672
655.00,42.834
656.00,43.112
657.00,42.970
658.00,43.007
659.00,43.164
660.00,43.206
661.00,43.233
662.00,43.235
663.00,43.407
664.00,43.619
665.00,43.764
666.00,43.621
667.00,43.807
668.00,43.822
669.00,44.013
670.00,44.249
671.00,44.139
672.00,44.205
673.00,44.320
674.00,44.295
675.00,44.412
676.00,44.663
677.00,44.760
678.00,44.635
679.00,44.767
680.00,44.921
681.00,45.141
682.00,45.001
683.00,45.081
684.00,45.297
685.00,45.288
686.00,45.079
687.00,45.212
688.00,45.433
689.00,45.486
690.00,45.630
691.00,45.907
692.00,45.762
693.00,45.661
694.00,45.959
695.00,46.162
696.00,46.183
697.00,46.031
698.00,46.307
699.00,46.392
700.00,46.122
701.00,46.395
702.00,46.537
703.00,46.666
704.00,46.683
705.00,46.619
706.00,46.679
707.00,46.778
708.00,46.805
709.00,47.029
710.00,47.346
711.00,47.136
712.00,47.036
713.00,47.189
714.00,47.363
715.00,47.372
716.00,47.339
717.00,47.543
718.00,47.668
719.00,47.572
720.00,47.611
721.00,52.177
722.00,52.190
723.00,52.094
724.00,52.153
725.00,52.200
726.00,52.219
727.00,52.237
728.00,52.266
729.00,52.267
730.00,52.347
731.00,52.224
732.00,52.301
733.00,52.409
734.00,52.371
735.00,52.375
736.00,52.465
737.00,52.494
738.00,52.604
739.00,52.504
740.00,52.531
741.00,52.563
742.00,52.613
743.00,52.551
744.00,52.630
745.00,52.583
746.00,52.612
747.00,52.607
748.00,52.593
749.00,52.603
750.00,52.611
751.00,52.642
752.00,52.527
753.00,52.542
754.00,52.567
755.00,52.680
756.00,52.581
757.00,52.545
758.00,52.640
759.00,52.588
760.00,52.642
761.00,52.626
762.00,52.730
763.00,52.742
764.00,52.636
765.00,52.659
766.00,52.695
767.00,52.695
768.00,52.707
769.00,52.791
770.00,52.787
771.00,52.652
772.00,52.821
773.00,52.719
774.00,52.750
775.00,52.807
776.00,52.743
777.00,52.810
778.00,52.711
779.00,52.828
780.00,52.733
781.00,52.809
782.00,52.789
783.00,52.777
784.00,52.793
785.00,52.787
786.00,52.736
787.00,52.690
788.00,52.737
789.00,52.703
790.00,52.629
791.00,52.750
792.00,52.613
793.00,52.697
794.00,52.628
795.00,52.677
796.00,52.572
797.00,52.582
798.00,52.637
799.00,52.576
800.00,52.558
801.00,52.588
802.00,52.575
803.00,52.500
804.00,52.429
805.00,52.594
806.00,52.482
807.00,52.515
808.00,52.451
809.00,52.451
810.00,52.536
811.00,52.408
812.00,52.358
813.00,52.379
814.00,52.422
815.00,52.349
816.00,52.323
817.00,52.444
818.00,52.263
819.00,52.235
820.00,52.244
821.00,52.367
822.00,52.293
823.00,52.213
824.00,52.209
825.00,52.261
826.00,52.179
827.00,52.194
828.00,52.181
829.00,52.135
830.00,52.155
831.00,54.304
832.00,54.259
833.00,54.234
834.00,54.233
835.00,54.158
836.00,54.232
837.00,54.132
838.00,54.156
839.00,54.125
840.00,54.082
841.00,54.139
842.00,54.036
843.00,54.089
844.00,54.077
845.00,53.986
846.00,53.969
847.00,53.974
848.00,53.954
849.00,53.854
850.00,53.897
851.00,53.839
852.00,53.843
853.00,53.776
854.00,53.787
855.00,53.703
856.00,53.746
857.00,53.669
858.00,53.642
859.00,53.640
860.00,53.617
861.00,53.629
862.00,53.555
863.00,53.597
864.00,53.526
865.00,53.608
866.00,53.526
867.00,53.570
868.00,53.524
869.00,53.505
870.00,53.550
871.00,53.489
872.00,53.498
873.00,53.469
874.00,53.478
875.00,53.408
876.00,53.447
877.00,53.429
878.00,53.439
879.00,53.394
880.00,53.375
881.00,53.353
882.00,53.376
883.00,53.303
884.00,53.330
885.00,53.257
886.00,53.284
887.00,53.228
888.00,53.244
889.00,53.197
890.00,53.202
891.00,53.150
892.00,53.171
893.00,53.096
894.00,53.142
895.00,53.091
896.00,53.108
897.00,53.042
898.00,53.021
899.00,53.020
900.00,53.003
901.00,53.004
902.00,53.029
903.00,52.961
904.00,52.956
905.00,52.920
906.00,52.933
907.00,52.890
908.00,52.862
909.00,52.844
910.00,52.826
911.00,52.829
912.00,52.829
913.00,52.761
914.00,52.749
915.00,52.730
916.00,52.713
917.00,52.692
918.00,52.685
919.00,52.628
920.00,52.620
921.00,52.613
922.00,52.598
923.00,52.582
924.00,52.533
925.00,52.543
926.00,52.529
927.00,52.528
928.00,52.476
929.00,52.491
930.00,52.446
931.00,52.454
932.00,52.384
933.00,52.405
934.00,52.361
935.00,52.353
936.00,52.313
937.00,52.331
938.00,52.313
939.00,52.339
940.00,52.271
941.00,52.278
942.00,52.233
943.00,52.255
944.00,52.177
945.00,52.197
946.00,52.171
947.00,52.142
948.00,52.124
949.00,52.100
950.00,52.063
951.00,52.118
952.00,52.054
953.00,52.017
954.00,52.004
955.00,51.952
956.00,51.969
957.00,51.925
958.00,51.939
959.00,51.873
960.00,51.886
961.00,51.850
962.00,51.845
963.00,51.792
964.00,51.814
965.00,51.791
966.00,51.762
967.00,51.791
968.00,51.747
969.00,51.774
970.00,51.754
971.00,51.779
972.00,51.722
973.00,51.758
974.00,51.775
975.00,51.736
976.00,51.761
977.00,51.718
978.00,51.803
979.00,51.736
980.00,51.761
981.00,51.816
982.00,51.735
983.00,51.720
984.00,51.682
985.00,51.713
986.00,51.681
987.00,51.710
988.00,51.673
989.00,51.667
990.00,51.668
991.00,51.645
992.00,51.673
993.00,51.648
994.00,51.618
995.00,51.596
996.00,51.594
997.00,51.605
998.00,51.555
999.00,51.585
1000.00,51.538
1001.00,51.543
1002.00,51.517
1003.00,51.511
1004.00,51.498
1005.00,51.472
1006.00,51.501
1007.00,51.454
1008.00,51.442
1009.00,51.427
1010.00,51.426
1011.00,51.441
1012.00,51.450
1013.00,51.398
1014.00,51.348
1015.00,51.375
1016.00,51.325
1017.00,51.318
1018.00,51.306
1019.00,51.284
1020.00,51.277
1021.00,51.253
1022.00,51.267
1023.00,51.214
1024.00,51.241
1025.00,51.207
1026.00,51.208
1027.00,51.201
1028.00,51.175
1029.00,51.152
1030.00,51.129
1031.00,51.142
1032.00,51.091
1033.00,51.108
1034.00,51.082
1035.00,51.040
1036.00,51.000
1037.00,50.984
1038.00,50.978
1039.00,50.947
1040.00,50.935
1041.00,50.910
1042.00,50.904
1043.00,50.866
1044.00,50.902
1045.00,50.902
1046.00,50.882
1047.00,50.901
1048.00,50.920
1049.00,50.931
1050.00,50.921
1051.00,50.952
1052.00,50.965
1053.00,50.955
1054.00,50.941
1055.00,50.990
1056.00,50.995
1057.00,50.975
1058.00,50.991
1059.00,50.966
1060.00,50.982
1061.00,50.944
1062.00,50.926
1063.00,50.950
1064.00,50.937
1065.00,50.933
1066.00,50.933
1067.00,50.935
1068.00,50.955
1069.00,50.892
1070.00,50.884
1071.00,50.864
1072.00,50.876
1073.00,50.845
1074.00,50.855
1075.00,50.829
1076.00,50.828
1077.00,50.829
1078.00,50.805
1079.00,50.792
1080.00,50.790
1081.00,50.778
1082.00,50.785
1083.00,50.790
1084.00,50.726
1085.00,50.737
1086.00,50.731
1087.00,50.721
1088.00,50.734
1089.00,50.766
1090.00,50.699
1091.00,50.690
1092.00,50.695
1093.00,50.676
1094.00,50.642
1095.00,50.625
1096.00,50.629
1097.00,50.619
1098.00,50.613
1099.00,50.615
1100.00,50.605
1101.00,50.596
1102.00,50.575
1103.00,50.597
1104.00,50.607
1105.00,50.550
1106.00,50.521
1107.00,50.544
1108.00,50.525
1109.00,50.516
1110.00,50.520
1111.00,50.515
1112.00,50.492
1113.00,50.482
1114.00,50.480
1115.00,50.487
1116.00,50.470
1117.00,50.437
1118.00,50.444
1119.00,50.448
1120.00,50.420
1121.00,50.443
1122.00,50.432
1123.00,50.407
1124.00,50.401
1125.00,50.398
1126.00,50.381
1127.00,50.377
1128.00,50.351
1129.00,50.364
1130.00,50.353
1131.00,50.341
1132.00,50.373
1133.00,50.385
1134.00,50.378
1135.00,50.400
1136.00,50.330
1137.00,50.323
1138.00,50.308
1139.00,50.309
1140.00,50.325
1141.00,50.307
1142.00,50.288
1143.00,50.308
1144.00,50.279
1145.00,50.279
1146.00,50.275
1147.00,50.259
1148.00,50.258
1149.00,50.259
1150.00,50.235
1151.00,50.241
1152.00,50.241
1153.00,50.239
1154.00,50.234
1155.00,50.253
1156.00,50.235
1157.00,50.234
1158.00,50.230
1159.00,50.240
1160.00,50.213
1161.00,50.214
1162.00,50.227
1163.00,50.226
1164.00,50.219
1165.00,50.216
1166.00,50.221
1167.00,50.205
1168.00,50.206
1169.00,50.208
1170.00,50.211
1171.00,50.187
1172.00,50.193
1173.00,50.210
1174.00,50.208
1175.00,50.193
1176.00,50.200
1177.00,50.187
1178.00,50.170
1179.00,50.173
1180.00,50.178
1181.00,50.173
1182.00,50.167
1183.00,50.159
1184.00,50.168
1185.00,50.174
1186.00,50.141
1187.00,50.173
1188.00,50.164
1189.00,50.161
1190.00,50.169
1191.00,50.140
1192.00,50.164
1193.00,50.162
1194.00,50.150
1195.00,50.149
1196.00,50.192
1197.00,50.158
1198.00,50.139
1199.00,50.142
1200.00,50.142
1201.00,50.148
1202.00,50.137
1203.00,50.125
1204.00,50.113
1205.00,50.141
1206.00,50.132
1207.00,50.123
1208.00,50.110
1209.00,50.124
1210.00,50.125
1211.00,50.118
1212.00,50.113
1213.00,50.091
1214.00,50.122
1215.00,50.101
1216.00,50.109
1217.00,50.129
1218.00,50.110
1219.00,50.116
1220.00,50.104
1221.00,50.124
1222.00,50.098
1223.00,50.100
1224.00,50.127
1225.00,50.110
1226.00,50.111
1227.00,50.117
1228.00,50.126
1229.00,50.119
1230.00,50.146
1231.00,50.149
1232.00,50.171
1233.00,50.162
1234.00,50.159
1235.00,50.164
1236.00,50.169
1237.00,50.153
1238.00,50.153
1239.00,50.169
1240.00,50.151
1241.00,50.147
1242.00,50.167
1243.00,50.194
1244.00,50.151
1245.00,50.180
1246.00,50.197
1247.00,50.180
1248.00,50.168
1249.00,50.183
1250.00,50.206
1251.00,50.194
1252.00,50.195
1253.00,50.192
1254.00,50.217
1255.00,50.219
1256.00,50.164
1257.00,50.176
1258.00,50.231
1259.00,50.212
1260.00,50.219
1261.00,50.220
1262.00,50.211
1263.00,50.197
1264.00,50.214
1265.00,50.217
1266.00,50.208
1267.00,50.222
1268.00,50.239
1269.00,50.247
1270.00,50.255
1271.00,50.246
1272.00,50.271
1273.00,50.267
1274.00,50.266
1275.00,50.273
1276.00,50.269
1277.00,50.262
1278.00,50.274
1279.00,50.277
1280.00,50.273
1281.00,50.288
1282.00,50.297
1283.00,50.314
1284.00,50.291
1285.00,50.262
1286.00,50.293
1287.00,50.294
1288.00,50.276
1289.00,50.270
1290.00,50.293
1291.00,50.319
1292.00,50.311
1293.00,50.299
1294.00,50.339
1295.00,50.345
1296.00,50.323
1297.00,50.340
1298.00,50.368
1299.00,50.340
1300.00,50.341
1301.00,50.364
1302.00,50.405
1303.00,50.376
1304.00,50.349
1305.00,50.397
1306.00,50.401
1307.00,50.387
1308.00,50.403
1309.00,50.413
1310.00,50.406
1311.00,50.383
1312.00,50.409
1313.00,50.437
1314.00,50.440
1315.00,50.435
1316.00,50.457
1317.00,50.467
1318.00,50.447
1319.00,50.457
1320.00,50.466
1321.00,50.624
1322.00,50.621
1323.00,50.600
1324.00,50.593
1325.00,50.601
1326.00,50.616
1327.00,50.620
1328.00,50.592
1329.00,50.605
1330.00,50.623
1331.00,50.594
1332.00,50.600
1333.00,50.622
1334.00,50.621
1335.00,50.675
1336.00,50.662
1337.00,50.706
1338.00,50.770
1339.00,50.804
1340.00,50.860
1341.00,50.941
1342.00,50.994
1343.00,51.038
1344.00,51.087
1345.00,51.154
1346.00,51.188
1347.00,51.198
1348.00,51.256
1349.00,51.272
1350.00,51.243
1351.00,51.273
1352.00,51.256
1353.00,51.346
1354.00,51.283
1355.00,51.223
1356.00,51.339
1357.00,51.335
1358.00,51.260
1359.00,51.385
1360.00,51.311
1361.00,51.003
1362.00,51.214
1363.00,51.459
1364.00,51.494
1365.00,51.324
1366.00,51.331
1367.00,51.313
1368.00,51.270
1369.00,51.341
1370.00,51.343
1371.00,51.210
1372.00,51.286
1373.00,51.310
1374.00,51.273
1375.00,51.305
1376.00,51.292
1377.00,51.209
1378.00,51.261
1379.00,51.327
1380.00,51.273
1381.00,51.297
1382.00,51.301
1383.00,51.297
1384.00,51.247
1385.00,51.223
1386.00,51.292
1387.00,51.267
1388.00,51.236
1389.00,51.182
1390.00,51.360
1391.00,51.282
1392.00,51.290
1393.00,51.200
1394.00,51.213
1395.00,51.295
1396.00,51.202
1397.00,51.111
1398.00,51.319
1399.00,51.275
1400.00,51.237
1401.00,51.258
1402.00,51.230
1403.00,51.262
1404.00,51.303
1405.00,51.316
1406.00,51.313
1407.00,51.364
1408.00,51.402
1409.00,51.295
1410.00,51.346
1411.00,51.388
1412.00,51.359
1413.00,51.323
1414.00,51.388
1415.00,51.415
1416.00,51.383
1417.00,51.403
1418.00,51.400
1419.00,51.408
1420.00,51.433
1421.00,51.440
1422.00,51.481
1423.00,51.524
1424.00,51.459
1425.00,51.483
1426.00,51.517
1427.00,51.505
1428.00,51.495
1429.00,51.523
1430.00,51.524
1431.00,51.545
1432.00,51.573
1433.00,51.585
1434.00,51.577
1435.00,51.594
1436.00,51.635
1437.00,51.644
1438.00,51.647
1439.00,51.663
1440.00,51.679
1441.00,51.687
1442.00,51.690
1443.00,51.730
1444.00,51.770
1445.00,51.740
1446.00,51.748
1447.00,51.779
1448.00,51.832
1449.00,51.797
1450.00,51.795
1451.00,51.827
1452.00,51.849
1453.00,51.852
1454.00,51.872
1455.00,51.912
1456.00,51.929
1457.00,51.909
1458.00,51.943
1459.00,51.969
1460.00,51.951
1461.00,51.962
1462.00,51.989
1463.00,51.976
1464.00,52.000
1465.00,52.027
1466.00,52.035
1467.00,52.070
1468.00,52.118
1469.00,52.092
1470.00,52.100
1471.00,52.102
1472.00,52.112
1473.00,52.133
1474.00,52.148
1475.00,52.169
1476.00,52.192
1477.00,52.188
1478.00,52.203
1479.00,52.210
1480.00,52.208
1481.00,52.248
1482.00,52.223
1483.00,52.257
1484.00,52.299
1485.00,52.289
1486.00,52.293
1487.00,52.308
1488.00,52.335
1489.00,52.340
1490.00,52.319
1491.00,52.357
1492.00,52.378
1493.00,52.366
1494.00,52.382
1495.00,52.402
1496.00,52.413
1497.00,52.388
1498.00,52.400
1499.00,52.419
1500.00,52.449
1501.00, 
1502.00, 
1503.00, 
1504.00, 
1505.00, 
1506.00, 
1507.00, 
1508.00, 
1509.00, 
1510.00, 
1511.00, 
1512.00, 
1513.00, 
1514.00, 
1515.00, 
1516.00, 
1517.00, 
1518.00, 
1519.00, 
1520.00, 
1521.00, 
1522.00, 
1523.00, 
1524.00, 
1525.00, 
1526.00, 
1527.00, 
1528.00, 
1529.00, 
1530.00, 
1531.00, 
1532.00, 
1533.00, 
1534.00, 
1535.00, 
1536.00, 
1537.00, 
1538.00, 
1539.00, 
1540.00, 
1541.00, 
1542.00, 
1543.00, 
1544.00, 
1545.00, 
1546.00, 
1547.00, 
1548.00, 
1549.00, 
1550.00, 
1551.00, 
1552.00, 
1553.00, 
1554.00, 
1555.00, 
1556.00, 
1557.00, 
1558.00, 
1559.00, 
1560.00, 
1561.00, 
1562.00, 
1563.00, 
1564.00, 
1565.00, 
1566.00, 
1567.00, 
1568.00, 
1569.00, 
1570.00, 
1571.00, 
1572.00, 
1573.00, 
1574.00, 
1575.00, 
1576.00, 
1577.00, 
1578.00, 
1579.00, 
1580.00, 
1581.00, 
1582.00, 
1583.00, 
1584.00, 
1585.00, 
1586.00, 
1587.00, 
1588.00, 
1589.00, 
1590.00, 
1591.00, 
1592.00, 
1593.00, 
1594.00, 
1595.00, 
1596.00, 
1597.00, 
1598.00, 
1599.00, 
1600.00, 
1601.00, 
1602.00, 
1603.00, 
1604.00, 
1605.00, 
1606.00, 
1607.00, 
1608.00, 
1609.00, 
1610.00, 
1611.00, 
1612.00, 
1613.00, 
1614.00, 
1615.00, 
1616.00, 
1617.00, 
1618.00, 
1619.00, 
1620.00, 
1621.00, 
1622.00, 
1623.00, 
1624.00, 
1625.00, 
1626.00, 
1627.00, 
1628.00, 
1629.00, 
1630.00, 
1631.00, 
1632.00, 
1633.00, 
1634.00, 
1635.00, 
1636.00, 
1637.00, 
1638.00, 
1639.00, 
1640.00, 
1641.00, 
1642.00, 
1643.00, 
1644.00, 
1645.00, 
1646.00, 
1647.00, 
1648.00, 
1649.00, 
1650.00, 
1651.00, 
1652.00, 
1653.00, 
1654.00, 
1655.00, 
1656.00, 
1657.00, 
1658.00, 
1659.00, 
1660.00, 
1661.00, 
1662.00, 
1663.00, 
1664.00, 
1665.00, 
1666.00, 
1667.00, 
1668.00, 
1669.00, 
1670.00, 
1671.00, 
1672.00, 
1673.00, 
1674.00, 
1675.00, 
1676.00, 
1677.00, 
1678.00, 
1679.00, 
1680.00, 
1681.00, 
1682.00, 
1683.00, 
1684.00, 
1685.00, 
1686.00, 
1687.00, 
1688.00, 
1689.00, 
1690.00, 
1691.00, 
1692.00, 
1693.00, 
1694.00, 
1695.00, 
1696.00, 
1697.00, 
1698.00, 
1699.00, 
1700.00, 
1701.00, 
1702.00, 
1703.00, 
1704.00, 
1705.00, 
1706.00, 
1707.00, 
1708.00, 
1709.00, 
1710.00, 
1711.00, 
1712.00, 
1713.00, 
1714.00, 
1715.00, 
1716.00, 
1717.00, 
1718.00, 
1719.00, 
1720.00, 
1721.00, 
1722.00, 
1723.00, 
1724.00, 
1725.00, 
1726.00, 
1727.00, 
1728.00, 
1729.00, 
1730.00, 
1731.00, 
1732.00, 
1733.00, 
1734.00, 
1735.00, 
1736.00, 
1737.00, 
1738.00, 
1739.00, 
1740.00, 
1741.00, 
1742.00, 
1743.00, 
1744.00, 
1745.00, 
1746.00, 
1747.00, 
1748.00, 
1749.00, 
1750.00, 
1751.00, 
1752.00, 
1753.00, 
1754.00, 
1755.00, 
1756.00, 
1757.00, 
1758.00, 
1759.00, 
1760.00, 
1761.00, 
1762.00, 
1763.00, 
1764.00, 
1765.00, 
1766.00, 
1767.00, 
1768.00, 
1769.00, 
1770.00, 
1771.00, 
1772.00, 
1773.00, 
1774.00, 
1775.00, 
1776.00, 
1777.00, 
1778.00, 
1779.00, 
1780.00, 
1781.00, 
1782.00, 
1783.00, 
1784.00, 
1785.00, 
1786.00, 
1787.00, 
1788.00, 
1789.00, 
1790.00, 
1791.00, 
1792.00, 
1793.00, 
1794.00, 
1795.00, 
1796.00, 
1797.00, 
1798.00, 
1799.00, 
1800.00, 
1801.00, 
1802.00, 
1803.00, 
1804.00, 
1805.00, 
1806.00, 
1807.00, 
1808.00, 
1809.00, 
1810.00, 
1811.00, 
1812.00, 
1813.00, 
1814.00, 
1815.00, 
1816.00, 
1817.00, 
1818.00, 
1819.00, 
1820.00, 
1821.00, 
1822.00, 
1823.00, 
1824.00, 
1825.00, 
1826.00, 
1827.00, 
1828.00, 
1829.00, 
1830.00, 
1831.00, 
1832.00, 
1833.00, 
1834.00, 
1835.00, 
1836.00, 
1837.00, 
1838.00, 
1839.00, 
1840.00, 
1841.00, 
1842.00, 
1843.00, 
1844.00, 
1845.00, 
1846.00, 
1847.00, 
1848.00, 
1849.00, 
1850.00, 
1851.00, 
1852.00, 
1853.00, 
1854.00, 
1855.00, 
1856.00, 
1857.00, 
1858.00, 
1859.00, 
1860.00, 
1861.00, 
1862.00, 
1863.00, 
1864.00, 
1865.00, 
1866.00, 
1867.00, 
1868.00, 
1869.00, 
1870.00, 
1871.00, 
1872.00, 
1873.00, 
1874.00, 
1875.00, 
1876.00, 
1877.00, 
1878.00, 
1879.00, 
1880.00, 
1881.00, 
1882.00, 
1883.00, 
1884.00, 
1885.00, 
1886.00, 
1887.00, 
1888.00, 
1889.00, 
1890.00, 
1891.00, 
1892.00, 
1893.00, 
1894.00, 
1895.00, 
1896.00, 
1897.00, 
1898.00, 
1899.00, 
1900.00, 
1901.00, 
1902.00, 
1903.00, 
1904.00, 
1905.00, 
1906.00, 
1907.00, 
1908.00, 
1909.00, 
1910.00, 
1911.00, 
1912.00, 
1913.00, 
1914.00, 
1915.00, 
1916.00, 
1917.00, 
1918.00, 
1919.00, 
1920.00, 
1921.00, 
1922.00, 
1923.00, 
1924.00, 
1925.00, 
1926.00, 
1927.00, 
1928.00, 
1929.00, 
1930.00, 
1931.00, 
1932.00, 
1933.00, 
1934.00, 
1935.00, 
1936.00, 
1937.00, 
1938.00, 
1939.00, 
1940.00, 
1941.00, 
1942.00, 
1943.00, 
1944.00, 
1945.00, 
1946.00, 
1947.00, 
1948.00, 
1949.00, 
1950.00, 
1951.00, 
1952.00, 
1953.00, 
1954.00, 
1955.00, 
1956.00, 
1957.00, 
1958.00, 
1959.00, 
1960.00, 
1961.00, 
1962.00, 
1963.00, 
1964.00, 
1965.00, 
1966.00, 
1967.00, 
1968.00, 
1969.00, 
1970.00, 
1971.00, 
1972.00, 
1973.00, 
1974.00, 
1975.00, 
1976.00, 
1977.00, 
1978.00, 
1979.00, 
1980.00, 
1981.00, 
1982.00, 
1983.00, 
1984.00, 
1985.00, 
1986.00, 
1987.00, 
1988.00, 
1989.00, 
1990.00, 
1991.00, 
1992.00, 
1993.00, 
1994.00, 
1995.00, 
1996.00, 
1997.00, 
1998.00, 
1999.00, 
2000.00, 
2001.00, 
2002.00, 
2003.00, 
2004.00, 
2005.00, 
2006.00, 
2007.00, 
2008.00, 
2009.00, 
2010.00, 
2011.00, 
2012.00, 
2013.00, 
2014.00, 
2015.00, 
2016.00, 
2017.00, 
2018.00, 
2019.00, 
2020.00, 
2021.00, 
2022.00, 
2023.00, 
2024.00, 
2025.00, 
2026.00, 
2027.00, 
2028.00, 
2029.00, 
2030.00, 
2031.00, 
2032.00, 
2033.00, 
2034.00, 
2035.00, 
2036.00, 
2037.00, 
2038.00, 
2039.00, 
2040.00, 
2041.00, 
2042.00, 
2043.00, 
2044.00, 
2045.00, 
2046.00, 
2047.00, 
2048.00, 
2049.00, 
2050.00, 
2051.00, 
2052.00, 
2053.00, 
2054.00, 
2055.00, 
2056.00, 
2057.00, 
2058.00, 
2059.00, 
2060.00, 
2061.00, 
2062.00, 
2063.00, 
2064.00, 
2065.00, 
2066.00, 
2067.00, 
2068.00, 
2069.00, 
2070.00, 
2071.00, 
2072.00, 
2073.00, 
2074.00, 
2075.00, 
2076.00, 
2077.00, 
2078.00, 
2079.00, 
2080.00, 
2081.00, 
2082.00, 
2083.00, 
2084.00, 
2085.00, 
2086.00, 
2087.00, 
2088.00, 
2089.00, 
2090.00, 
2091.00, 
2092.00, 
2093.00, 
2094.00, 
2095.00, 
2096.00, 
2097.00, 
2098.00, 
2099.00, 
2100.00, 
2101.00, 
2102.00, 
2103.00, 
2104.00, 
2105.00, 
2106.00, 
2107.00, 
2108.00, 
2109.00, 
2110.00, 
2111.00, 
2112.00, 
2113.00, 
2114.00, 
2115.00, 
2116.00, 
2117.00, 
2118.00, 
2119.00, 
2120.00, 
2121.00, 
2122.00, 
2123.00, 
2124.00, 
2125.00, 
2126.00, 
2127.00, 
2128.00, 
2129.00, 
2130.00, 
2131.00, 
2132.00, 
2133.00, 
2134.00, 
2135.00, 
2136.00, 
2137.00, 
2138.00, 
2139.00, 
2140.00, 
2141.00, 
2142.00, 
2143.00, 
2144.00, 
2145.00, 
2146.00, 
2147.00, 
2148.00, 
2149.00, 
2150.00, 
2151.00, 
2152.00, 
2153.00, 
2154.00, 
2155.00, 
2156.00, 
2157.00, 
2158.00, 
2159.00, 
2160.00, 
2161.00, 
2162.00, 
2163.00, 
2164.00, 
2165.00, 
2166.00, 
2167.00, 
2168.00, 
2169.00, 
2170.00, 
2171.00, 
2172.00, 
2173.00, 
2174.00, 
2175.00, 
2176.00, 
2177.00, 
2178.00, 
2179.00, 
2180.00, 
2181.00, 
2182.00, 
2183.00, 
2184.00, 
2185.00, 
2186.00, 
2187.00, 
2188.00, 
2189.00, 
2190.00, 
2191.00, 
2192.00, 
2193.00, 
2194.00, 
2195.00, 
2196.00, 
2197.00, 
2198.00, 
2199.00, 
2200.00, 
2201.00, 
2202.00, 
2203.00, 
2204.00, 
2205.00, 
2206.00, 
2207.00, 
2208.00, 
2209.00, 
2210.00, 
2211.00, 
2212.00, 
2213.00, 
2214.00, 
2215.00, 
2216.00, 
2217.00, 
2218.00, 
2219.00, 
2220.00, 
2221.00, 
2222.00, 
2223.00, 
2224.00, 
2225.00, 
2226.00, 
2227.00, 
2228.00, 
2229.00, 
2230.00, 
2231.00, 
2232.00, 
2233.00, 
2234.00, 
2235.00, 
2236.00, 
2237.00, 
2238.00, 
2239.00, 
2240.00, 
2241.00, 
2242.00, 
2243.00, 
2244.00, 
2245.00, 
2246.00, 
2247.00, 
2248.00, 
2249.00, 
2250.00, 
2251.00, 
2252.00, 
2253.00, 
2254.00, 
2255.00, 
2256.00, 
2257.00, 
2258.00, 
2259.00, 
2260.00, 
2261.00, 
2262.00, 
2263.00, 
2264.00, 
2265.00, 
2266.00, 
2267.00, 
2268.00, 
2269.00, 
2270.00, 
2271.00, 
2272.00, 
2273.00, 
2274.00, 
2275.00, 
2276.00, 
2277.00, 
2278.00, 
2279.00, 
2280.00, 
2281.00, 
2282.00, 
2283.00, 
2284.00, 
2285.00, 
2286.00, 
2287.00, 
2288.00, 
2289.00, 
2290.00, 
2291.00, 
2292.00, 
2293.00, 
2294.00, 
2295.00, 
2296.00, 
2297.00, 
2298.00, 
2299.00, 
2300.00, 
2301.00, 
2302.00, 
2303.00, 
2304.00, 
2305.00, 
2306.00, 
2307.00, 
2308.00, 
2309.00, 
2310.00, 
2311.00, 
2312.00, 
2313.00, 
2314.00, 
2315.00, 
2316.00, 
2317.00, 
2318.00, 
2319.00, 
2320.00, 
2321.00, 
2322.00, 
2323.00, 
2324.00, 
2325.00, 
2326.00, 
2327.00, 
2328.00, 
2329.00, 
2330.00, 
2331.00, 
2332.00, 
2333.00, 
2334.00, 
2335.00, 
2336.00, 
2337.00, 
2338.00, 
2339.00, 
2340.00, 
2341.00, 
2342.00, 
2343.00, 
2344.00, 
2345.00, 
2346.00, 
2347.00, 
2348.00, 
2349.00, 
2350.00, 
2351.00, 
2352.00, 
2353.00, 
2354.00, 
2355.00, 
2356.00, 
2357.00, 
2358.00, 
2359.00, 
2360.00, 
2361.00, 
2362.00, 
2363.00, 
2364.00, 
2365.00, 
2366.00, 
2367.00, 
2368.00, 
2369.00, 
2370.00, 
2371.00, 
2372.00, 
2373.00, 
2374.00, 
2375.00, 
2376.00, 
2377.00, 
2378.00, 
2379.00, 
2380.00, 
2381.00, 
2382.00, 
2383.00, 
2384.00, 
2385.00, 
2386.00, 
2387.00, 
2388.00, 
2389.00, 
2390.00, 
2391.00, 
2392.00, 
2393.00, 
2394.00, 
2395.00, 
2396.00, 
2397.00, 
2398.00, 
2399.00, 
2400.00, 
2401.00, 
2402.00, 
2403.00, 
2404.00, 
2405.00, 
2406.00, 
2407.00, 
2408.00, 
2409.00, 
2410.00, 
2411.00, 
2412.00, 
2413.00, 
2414.00, 
2415.00, 
2416.00, 
2417.00, 
2418.00, 
2419.00, 
2420.00, 
2421.00, 
2422.00, 
2423.00, 
2424.00, 
2425.00, 
2426.00, 
2427.00, 
2428.00, 
2429.00, 
2430.00, 
2431.00, 
2432.00, 
2433.00, 
2434.00, 
2435.00, 
2436.00, 
2437.00, 
2438.00, 
2439.00, 
2440.00, 
2441.00, 
2442.00, 
2443.00, 
2444.00, 
2445.00, 
2446.00, 
2447.00, 
2448.00, 
2449.00, 
2450.00, 
2451.00, 
2452.00, 
2453.00, 
2454.00, 
2455.00, 
2456.00, 
2457.00, 
2458.00, 
2459.00, 
2460.00, 
2461.00, 
2462.00, 
2463.00, 
2464.00, 
2465.00, 
2466.00, 
2467.00, 
2468.00, 
2469.00, 
2470.00, 
2471.00, 
2472.00, 
2473.00, 
2474.00, 
2475.00, 
2476.00, 
2477.00, 
2478.00, 
2479.00, 
2480.00, 
2481.00, 
2482.00, 
2483.00, 
2484.00, 
2485.00, 
2486.00, 
2487.00, 
2488.00, 
2489.00, 
2490.00, 
2491.00, 
2492.00, 
2493.00, 
2494.00, 
2495.00, 
2496.00, 
2497.00, 
2498.00, 
2499.00, 
2500.00, 
2501.00, 
2502.00, 
2503.00, 
2504.00, 
2505.00, 
2506.00, 
2507.00, 
2508.00, 
2509.00, 
2510.00, 
2511.00, 
2512.00, 
2513.00, 
2514.00, 
2515.00, 
2516.00, 
2517.00, 
2518.00, 
2519.00, 
2520.00, 
2521.00, 
2522.00, 
2523.00, 
2524.00, 
2525.00, 
2526.00, 
2527.00, 
2528.00, 
2529.00, 
2530.00, 
2531.00, 
2532.00, 
2533.00, 
2534.00, 
2535.00, 
2536.00, 
2537.00, 
2538.00, 
2539.00, 
2540.00, 
2541.00, 
2542.00, 
2543.00, 
2544.00, 
2545.00, 
2546.00, 
2547.00, 
2548.00, 
2549.00, 
2550.00, 
2551.00, 
2552.00, 
2553.00, 
2554.00, 
2555.00, 
2556.00, 
2557.00, 
2558.00, 
2559.00, 
2560.00, 
2561.00, 
2562.00, 
2563.00, 
2564.00, 
2565.00, 
2566.00, 
2567.00, 
2568.00, 
2569.00, 
2570.00, 
2571.00, 
2572.00, 
2573.00, 
2574.00, 
2575.00, 
2576.00, 
2577.00, 
2578.00, 
2579.00, 
2580.00, 
2581.00, 
2582.00, 
2583.00, 
2584.00, 
2585.00, 
2586.00, 
2587.00, 
2588.00, 
2589.00, 
2590.00, 
2591.00, 
2592.00, 
2593.00, 
2594.00, 
2595.00, 
2596.00, 
2597.00, 
2598.00, 
2599.00, 
2600.00, 
