"1aP1 - RawData"
"Wavelength nm.","T%"
200.00,-0.000
201.00,0.000
202.00,-0.001
203.00,0.000
204.00,0.000
205.00,0.002
206.00,0.000
207.00,0.005
208.00,0.000
209.00,0.001
210.00,-0.001
211.00,-0.002
212.00,-0.001
213.00,0.001
214.00,0.000
215.00,0.001
216.00,-0.001
217.00,0.002
218.00,0.001
219.00,-0.002
220.00,0.001
221.00,-0.000
222.00,0.001
223.00,-0.001
224.00,0.001
225.00,-0.001
226.00,0.003
227.00,-0.002
228.00,0.002
229.00,-0.000
230.00,-0.000
231.00,-0.002
232.00,-0.000
233.00,-0.000
234.00,0.001
235.00,0.001
236.00,-0.000
237.00,-0.001
238.00,-0.001
239.00,-0.000
240.00,-0.001
241.00,-0.001
242.00,0.000
243.00,-0.001
244.00,-0.002
245.00,0.001
246.00,0.000
247.00,0.001
248.00,0.000
249.00,0.000
250.00,-0.001
251.00,-0.000
252.00,0.001
253.00,-0.001
254.00,0.001
255.00,-0.000
256.00,-0.001
257.00,-0.001
258.00,-0.001
259.00,0.001
260.00,-0.001
261.00,0.000
262.00,-0.001
263.00,-0.000
264.00,-0.001
265.00,-0.001
266.00,0.000
267.00,-0.000
268.00,0.000
269.00,0.001
270.00,0.000
271.00,-0.000
272.00,0.000
273.00,0.001
274.00,0.000
275.00,-0.001
276.00,-0.001
277.00,-0.001
278.00,0.000
279.00,0.002
280.00,0.000
281.00,-0.001
282.00,-0.001
283.00,0.001
284.00,0.001
285.00,0.000
286.00,0.000
287.00,-0.002
288.00,0.000
289.00,-0.000
290.00,0.000
291.00,0.000
292.00,0.001
293.00,-0.001
294.00,-0.000
295.00,-0.000
296.00,0.000
297.00,0.000
298.00,0.002
299.00,0.002
300.00,0.002
301.00,0.002
302.00,0.005
303.00,0.007
304.00,0.011
305.00,0.018
306.00,0.026
307.00,0.037
308.00,0.059
309.00,0.084
310.00,0.119
311.00,0.155
312.00,0.216
313.00,0.293
314.00,0.387
315.00,0.492
316.00,0.616
317.00,0.760
318.00,0.930
319.00,1.132
320.00,1.341
321.00,1.596
322.00,1.877
323.00,2.139
324.00,2.493
325.00,2.801
326.00,3.125
327.00,3.500
328.00,3.887
329.00,4.252
330.00,4.652
331.00,5.038
332.00,5.430
333.00,5.838
334.00,6.223
335.00,6.632
336.00,6.967
337.00,7.341
338.00,7.708
339.00,7.999
340.00,8.389
341.00,8.699
342.00,8.971
343.00,9.313
344.00,9.530
345.00,9.767
346.00,9.997
347.00,10.218
348.00,10.410
349.00,10.617
350.00,10.782
351.00,10.946
352.00,11.082
353.00,11.214
354.00,11.342
355.00,11.456
356.00,11.558
357.00,11.633
358.00,11.716
359.00,11.799
360.00,11.803
361.00,11.879
362.00,11.840
363.00,11.859
364.00,11.879
365.00,11.893
366.00,11.882
367.00,11.904
368.00,11.906
369.00,11.883
370.00,11.902
371.00,11.910
372.00,11.879
373.00,11.840
374.00,11.727
375.00,11.723
376.00,11.658
377.00,11.584
378.00,11.541
379.00,11.477
380.00,11.422
381.00,11.390
382.00,11.343
383.00,11.341
384.00,11.305
385.00,11.329
386.00,11.286
387.00,11.282
388.00,11.257
389.00,11.228
390.00,11.247
391.00,11.206
392.00,11.196
393.00,11.180
394.00,11.131
395.00,11.123
396.00,11.090
397.00,11.048
398.00,11.027
399.00,11.031
400.00,10.999
401.00,11.021
402.00,10.955
403.00,10.964
404.00,10.929
405.00,10.881
406.00,10.864
407.00,10.832
408.00,10.816
409.00,10.830
410.00,10.827
411.00,10.800
412.00,10.779
413.00,10.840
414.00,10.852
415.00,10.830
416.00,10.814
417.00,10.791
418.00,10.775
419.00,10.790
420.00,10.788
421.00,10.809
422.00,10.849
423.00,10.832
424.00,10.839
425.00,10.875
426.00,10.892
427.00,10.908
428.00,10.938
429.00,10.944
430.00,10.991
431.00,11.036
432.00,11.065
433.00,11.118
434.00,11.128
435.00,11.199
436.00,11.256
437.00,11.282
438.00,11.338
439.00,11.392
440.00,11.453
441.00,11.520
442.00,11.591
443.00,11.633
444.00,11.722
445.00,11.779
446.00,11.874
447.00,11.922
448.00,12.012
449.00,12.101
450.00,12.194
451.00,12.288
452.00,12.386
453.00,12.432
454.00,12.531
455.00,12.628
456.00,12.704
457.00,12.820
458.00,12.882
459.00,12.998
460.00,13.066
461.00,13.167
462.00,13.244
463.00,13.363
464.00,13.451
465.00,13.552
466.00,13.682
467.00,13.848
468.00,14.034
469.00,14.132
470.00,14.124
471.00,14.298
472.00,14.445
473.00,14.571
474.00,14.702
475.00,14.885
476.00,15.036
477.00,15.168
478.00,15.256
479.00,15.432
480.00,15.589
481.00,15.723
482.00,15.858
483.00,15.963
484.00,16.082
485.00,16.321
486.00,16.486
487.00,16.697
488.00,16.761
489.00,16.960
490.00,16.964
491.00,17.228
492.00,17.410
493.00,17.565
494.00,17.600
495.00,17.831
496.00,17.892
497.00,18.049
498.00,18.146
499.00,18.327
500.00,18.465
501.00,18.650
502.00,18.722
503.00,18.904
504.00,19.036
505.00,19.183
506.00,19.369
507.00,19.460
508.00,19.558
509.00,19.716
510.00,19.845
511.00,20.027
512.00,20.317
513.00,20.404
514.00,20.513
515.00,20.559
516.00,20.703
517.00,20.810
518.00,20.925
519.00,21.055
520.00,21.190
521.00,21.282
522.00,21.434
523.00,21.622
524.00,21.693
525.00,21.865
526.00,21.924
527.00,22.011
528.00,22.088
529.00,22.242
530.00,22.284
531.00,22.388
532.00,22.341
533.00,22.475
534.00,22.657
535.00,22.780
536.00,22.888
537.00,22.941
538.00,23.129
539.00,23.219
540.00,23.314
541.00,23.420
542.00,23.393
543.00,23.633
544.00,23.728
545.00,23.859
546.00,23.945
547.00,24.023
548.00,24.121
549.00,24.189
550.00,24.263
551.00,24.306
552.00,24.433
553.00,24.388
554.00,24.454
555.00,24.530
556.00,24.561
557.00,24.734
558.00,24.800
559.00,24.933
560.00,24.961
561.00,24.988
562.00,25.070
563.00,25.113
564.00,25.212
565.00,25.322
566.00,25.335
567.00,25.448
568.00,25.523
569.00,25.557
570.00,25.454
571.00,25.626
572.00,25.726
573.00,25.679
574.00,25.769
575.00,25.785
576.00,25.823
577.00,25.976
578.00,26.056
579.00,26.108
580.00,26.154
581.00,26.226
582.00,26.328
583.00,26.394
584.00,26.561
585.00,26.567
586.00,26.548
587.00,26.746
588.00,26.824
589.00,26.770
590.00,26.910
591.00,26.979
592.00,27.038
593.00,27.134
594.00,27.198
595.00,27.273
596.00,27.416
597.00,27.350
598.00,27.423
599.00,27.404
600.00,27.385
601.00,27.483
602.00,27.453
603.00,27.631
604.00,27.666
605.00,27.719
606.00,27.850
607.00,27.926
608.00,27.937
609.00,28.183
610.00,28.119
611.00,28.106
612.00,28.289
613.00,28.243
614.00,28.405
615.00,28.421
616.00,28.387
617.00,28.380
618.00,28.463
619.00,28.566
620.00,28.633
621.00,28.780
622.00,28.867
623.00,28.929
624.00,29.076
625.00,29.142
626.00,29.251
627.00,29.411
628.00,29.475
629.00,29.509
630.00,29.649
631.00,29.704
632.00,29.815
633.00,29.965
634.00,30.046
635.00,30.049
636.00,30.165
637.00,30.232
638.00,30.320
639.00,30.422
640.00,30.575
641.00,30.712
642.00,30.884
643.00,31.000
644.00,31.047
645.00,31.072
646.00,31.218
647.00,31.449
648.00,31.531
649.00,31.754
650.00,31.905
651.00,31.890
652.00,31.908
653.00,32.163
654.00,32.241
655.00,32.596
656.00,32.457
657.00,33.606
658.00,33.382
659.00,32.455
660.00,33.007
661.00,33.207
662.00,33.416
663.00,33.652
664.00,33.673
665.00,33.467
666.00,33.970
667.00,34.318
668.00,34.414
669.00,34.177
670.00,34.590
671.00,34.370
672.00,34.834
673.00,34.759
674.00,34.772
675.00,35.187
676.00,35.078
677.00,35.350
678.00,35.786
679.00,35.884
680.00,36.166
681.00,36.554
682.00,36.976
683.00,36.837
684.00,36.781
685.00,36.874
686.00,36.736
687.00,37.002
688.00,37.329
689.00,37.439
690.00,37.341
691.00,37.850
692.00,37.799
693.00,37.805
694.00,38.302
695.00,38.254
696.00,38.487
697.00,38.651
698.00,38.922
699.00,38.780
700.00,38.918
701.00,39.186
702.00,39.502
703.00,39.846
704.00,40.213
705.00,40.081
706.00,39.883
707.00,39.962
708.00,39.964
709.00,40.226
710.00,40.104
711.00,40.380
712.00,41.038
713.00,40.888
714.00,40.963
715.00,41.476
716.00,41.668
717.00,41.565
718.00,41.802
719.00,42.147
720.00,42.520
721.00,46.042
722.00,46.156
723.00,46.220
724.00,46.322
725.00,46.412
726.00,46.541
727.00,46.646
728.00,46.793
729.00,46.908
730.00,47.044
731.00,47.111
732.00,47.265
733.00,47.342
734.00,47.540
735.00,47.577
736.00,47.682
737.00,47.859
738.00,48.001
739.00,48.052
740.00,48.189
741.00,48.278
742.00,48.409
743.00,48.443
744.00,48.478
745.00,48.523
746.00,48.652
747.00,48.778
748.00,48.824
749.00,48.884
750.00,48.921
751.00,48.948
752.00,49.147
753.00,49.079
754.00,49.189
755.00,49.144
756.00,49.336
757.00,49.380
758.00,49.410
759.00,49.572
760.00,49.556
761.00,49.756
762.00,49.763
763.00,49.912
764.00,49.897
765.00,49.945
766.00,49.998
767.00,50.115
768.00,50.143
769.00,50.181
770.00,50.272
771.00,50.322
772.00,50.429
773.00,50.464
774.00,50.514
775.00,50.560
776.00,50.571
777.00,50.702
778.00,50.633
779.00,50.812
780.00,50.775
781.00,50.909
782.00,50.981
783.00,50.892
784.00,50.987
785.00,50.926
786.00,51.069
787.00,51.075
788.00,51.150
789.00,51.180
790.00,51.084
791.00,51.299
792.00,51.236
793.00,51.278
794.00,51.347
795.00,51.381
796.00,51.442
797.00,51.345
798.00,51.402
799.00,51.336
800.00,51.388
801.00,51.270
802.00,51.288
803.00,51.340
804.00,51.368
805.00,51.437
806.00,51.378
807.00,51.446
808.00,51.517
809.00,51.457
810.00,51.565
811.00,51.442
812.00,51.608
813.00,51.620
814.00,51.653
815.00,51.755
816.00,51.613
817.00,51.715
818.00,51.548
819.00,51.602
820.00,51.746
821.00,51.611
822.00,51.703
823.00,51.692
824.00,51.908
825.00,51.579
826.00,51.542
827.00,51.699
828.00,51.533
829.00,51.639
830.00,51.647
831.00,54.366
832.00,54.415
833.00,54.400
834.00,54.349
835.00,54.398
836.00,54.400
837.00,54.402
838.00,54.406
839.00,54.421
840.00,54.461
841.00,54.481
842.00,54.523
843.00,54.443
844.00,54.464
845.00,54.368
846.00,54.384
847.00,54.312
848.00,54.426
849.00,54.494
850.00,54.438
851.00,54.428
852.00,54.378
853.00,54.457
854.00,54.400
855.00,54.388
856.00,54.276
857.00,54.331
858.00,54.365
859.00,54.376
860.00,54.404
861.00,54.351
862.00,54.369
863.00,54.339
864.00,54.444
865.00,54.319
866.00,54.341
867.00,54.322
868.00,54.432
869.00,54.412
870.00,54.364
871.00,54.383
872.00,54.415
873.00,54.386
874.00,54.293
875.00,54.353
876.00,54.313
877.00,54.423
878.00,54.322
879.00,54.415
880.00,54.396
881.00,54.412
882.00,54.261
883.00,54.410
884.00,54.370
885.00,54.357
886.00,54.285
887.00,54.310
888.00,54.332
889.00,54.320
890.00,54.203
891.00,54.241
892.00,54.312
893.00,54.268
894.00,54.210
895.00,54.245
896.00,54.309
897.00,54.259
898.00,54.165
899.00,54.108
900.00,54.157
901.00,54.021
902.00,53.992
903.00,54.348
904.00,54.262
905.00,54.174
906.00,54.051
907.00,54.097
908.00,54.214
909.00,54.167
910.00,54.074
911.00,53.975
912.00,54.037
913.00,53.941
914.00,54.011
915.00,54.130
916.00,54.275
917.00,54.140
918.00,54.005
919.00,54.078
920.00,54.202
921.00,54.072
922.00,53.900
923.00,53.919
924.00,54.245
925.00,53.952
926.00,53.862
927.00,53.915
928.00,54.077
929.00,53.905
930.00,53.834
931.00,53.855
932.00,54.005
933.00,53.857
934.00,53.857
935.00,53.892
936.00,53.911
937.00,53.811
938.00,53.691
939.00,53.780
940.00,53.869
941.00,53.757
942.00,53.669
943.00,53.697
944.00,53.773
945.00,53.707
946.00,53.643
947.00,53.705
948.00,53.676
949.00,53.655
950.00,53.551
951.00,53.611
952.00,53.637
953.00,53.605
954.00,53.508
955.00,53.523
956.00,53.498
957.00,53.501
958.00,53.397
959.00,53.430
960.00,53.406
961.00,53.404
962.00,53.381
963.00,53.390
964.00,53.403
965.00,53.377
966.00,53.361
967.00,53.334
968.00,53.382
969.00,53.308
970.00,53.318
971.00,53.328
972.00,53.331
973.00,53.325
974.00,53.333
975.00,53.374
976.00,53.323
977.00,53.344
978.00,53.337
979.00,53.373
980.00,53.375
981.00,53.342
982.00,53.348
983.00,53.290
984.00,53.344
985.00,53.304
986.00,53.356
987.00,53.356
988.00,53.306
989.00,53.284
990.00,53.297
991.00,53.272
992.00,53.276
993.00,53.305
994.00,53.257
995.00,53.218
996.00,53.244
997.00,53.221
998.00,53.240
999.00,53.208
1000.00,53.229
1001.00,53.199
1002.00,53.175
1003.00,53.189
1004.00,53.136
1005.00,53.143
1006.00,53.128
1007.00,53.181
1008.00,53.154
1009.00,53.122
1010.00,53.110
1011.00,53.076
1012.00,53.102
1013.00,53.094
1014.00,53.108
1015.00,53.076
1016.00,53.029
1017.00,53.021
1018.00,53.004
1019.00,53.015
1020.00,52.970
1021.00,53.004
1022.00,52.980
1023.00,52.956
1024.00,52.915
1025.00,52.922
1026.00,52.943
1027.00,52.900
1028.00,52.892
1029.00,52.880
1030.00,52.887
1031.00,52.864
1032.00,52.808
1033.00,52.809
1034.00,52.810
1035.00,52.777
1036.00,52.716
1037.00,52.709
1038.00,52.704
1039.00,52.682
1040.00,52.651
1041.00,52.615
1042.00,52.612
1043.00,52.626
1044.00,52.675
1045.00,52.631
1046.00,52.621
1047.00,52.618
1048.00,52.670
1049.00,52.679
1050.00,52.711
1051.00,52.713
1052.00,52.754
1053.00,52.777
1054.00,52.787
1055.00,52.756
1056.00,52.766
1057.00,52.814
1058.00,52.794
1059.00,52.770
1060.00,52.751
1061.00,52.760
1062.00,52.735
1063.00,52.729
1064.00,52.721
1065.00,52.746
1066.00,52.723
1067.00,52.720
1068.00,52.708
1069.00,52.728
1070.00,52.683
1071.00,52.684
1072.00,52.683
1073.00,52.696
1074.00,52.679
1075.00,52.657
1076.00,52.671
1077.00,52.673
1078.00,52.669
1079.00,52.643
1080.00,52.638
1081.00,52.626
1082.00,52.628
1083.00,52.617
1084.00,52.648
1085.00,52.626
1086.00,52.618
1087.00,52.586
1088.00,52.595
1089.00,52.577
1090.00,52.598
1091.00,52.576
1092.00,52.584
1093.00,52.555
1094.00,52.562
1095.00,52.524
1096.00,52.538
1097.00,52.551
1098.00,52.519
1099.00,52.474
1100.00,52.490
1101.00,52.474
1102.00,52.468
1103.00,52.458
1104.00,52.476
1105.00,52.446
1106.00,52.446
1107.00,52.419
1108.00,52.426
1109.00,52.415
1110.00,52.421
1111.00,52.391
1112.00,52.390
1113.00,52.378
1114.00,52.387
1115.00,52.390
1116.00,52.380
1117.00,52.340
1118.00,52.338
1119.00,52.319
1120.00,52.340
1121.00,52.358
1122.00,52.364
1123.00,52.287
1124.00,52.292
1125.00,52.280
1126.00,52.313
1127.00,52.321
1128.00,52.312
1129.00,52.281
1130.00,52.293
1131.00,52.242
1132.00,52.230
1133.00,52.306
1134.00,52.270
1135.00,52.163
1136.00,52.244
1137.00,52.255
1138.00,52.275
1139.00,52.261
1140.00,52.239
1141.00,52.206
1142.00,52.235
1143.00,52.264
1144.00,52.232
1145.00,52.200
1146.00,52.192
1147.00,52.180
1148.00,52.213
1149.00,52.238
1150.00,52.251
1151.00,52.248
1152.00,52.237
1153.00,52.210
1154.00,52.215
1155.00,52.220
1156.00,52.223
1157.00,52.220
1158.00,52.209
1159.00,52.192
1160.00,52.189
1161.00,52.201
1162.00,52.182
1163.00,52.196
1164.00,52.173
1165.00,52.165
1166.00,52.157
1167.00,52.168
1168.00,52.179
1169.00,52.182
1170.00,52.174
1171.00,52.170
1172.00,52.181
1173.00,52.183
1174.00,52.189
1175.00,52.190
1176.00,52.182
1177.00,52.173
1178.00,52.164
1179.00,52.179
1180.00,52.199
1181.00,52.196
1182.00,52.172
1183.00,52.169
1184.00,52.172
1185.00,52.181
1186.00,52.202
1187.00,52.198
1188.00,52.164
1189.00,52.168
1190.00,52.143
1191.00,52.164
1192.00,52.171
1193.00,52.168
1194.00,52.167
1195.00,52.129
1196.00,52.154
1197.00,52.166
1198.00,52.184
1199.00,52.160
1200.00,52.160
1201.00,52.161
1202.00,52.144
1203.00,52.154
1204.00,52.147
1205.00,52.157
1206.00,52.147
1207.00,52.159
1208.00,52.141
1209.00,52.172
1210.00,52.175
1211.00,52.192
1212.00,52.181
1213.00,52.160
1214.00,52.177
1215.00,52.154
1216.00,52.199
1217.00,52.159
1218.00,52.179
1219.00,52.188
1220.00,52.155
1221.00,52.190
1222.00,52.190
1223.00,52.205
1224.00,52.194
1225.00,52.178
1226.00,52.169
1227.00,52.185
1228.00,52.187
1229.00,52.200
1230.00,52.235
1231.00,52.222
1232.00,52.224
1233.00,52.241
1234.00,52.248
1235.00,52.228
1236.00,52.232
1237.00,52.213
1238.00,52.229
1239.00,52.214
1240.00,52.217
1241.00,52.223
1242.00,52.230
1243.00,52.238
1244.00,52.203
1245.00,52.233
1246.00,52.247
1247.00,52.250
1248.00,52.242
1249.00,52.246
1250.00,52.228
1251.00,52.249
1252.00,52.268
1253.00,52.246
1254.00,52.275
1255.00,52.231
1256.00,52.187
1257.00,52.237
1258.00,52.289
1259.00,52.308
1260.00,52.293
1261.00,52.288
1262.00,52.322
1263.00,52.293
1264.00,52.326
1265.00,52.338
1266.00,52.316
1267.00,52.317
1268.00,52.318
1269.00,52.323
1270.00,52.374
1271.00,52.364
1272.00,52.371
1273.00,52.399
1274.00,52.397
1275.00,52.381
1276.00,52.366
1277.00,52.358
1278.00,52.380
1279.00,52.402
1280.00,52.389
1281.00,52.378
1282.00,52.387
1283.00,52.381
1284.00,52.348
1285.00,52.366
1286.00,52.410
1287.00,52.415
1288.00,52.405
1289.00,52.410
1290.00,52.454
1291.00,52.436
1292.00,52.414
1293.00,52.422
1294.00,52.447
1295.00,52.480
1296.00,52.491
1297.00,52.484
1298.00,52.488
1299.00,52.474
1300.00,52.488
1301.00,52.495
1302.00,52.528
1303.00,52.516
1304.00,52.507
1305.00,52.508
1306.00,52.506
1307.00,52.490
1308.00,52.475
1309.00,52.530
1310.00,52.608
1311.00,52.530
1312.00,52.488
1313.00,52.541
1314.00,52.586
1315.00,52.591
1316.00,52.589
1317.00,52.626
1318.00,52.636
1319.00,52.622
1320.00,52.653
1321.00,52.687
1322.00,52.741
1323.00,52.715
1324.00,52.677
1325.00,52.720
1326.00,52.797
1327.00,52.718
1328.00,52.674
1329.00,52.709
1330.00,52.746
1331.00,52.699
1332.00,52.640
1333.00,52.700
1334.00,52.783
1335.00,52.742
1336.00,52.722
1337.00,52.807
1338.00,52.908
1339.00,52.963
1340.00,53.017
1341.00,53.074
1342.00,53.144
1343.00,53.214
1344.00,53.284
1345.00,53.322
1346.00,53.317
1347.00,53.361
1348.00,53.404
1349.00,53.425
1350.00,53.350
1351.00,53.263
1352.00,53.155
1353.00,53.354
1354.00,53.580
1355.00,53.472
1356.00,53.501
1357.00,53.479
1358.00,53.366
1359.00,52.907
1360.00,52.680
1361.00,52.922
1362.00,53.036
1363.00,54.018
1364.00,54.445
1365.00,53.909
1366.00,53.392
1367.00,53.454
1368.00,53.437
1369.00,53.617
1370.00,53.779
1371.00,53.569
1372.00,53.640
1373.00,53.632
1374.00,53.452
1375.00,53.426
1376.00,53.437
1377.00,53.405
1378.00,53.469
1379.00,53.507
1380.00,53.237
1381.00,53.526
1382.00,53.689
1383.00,53.554
1384.00,53.862
1385.00,53.630
1386.00,53.437
1387.00,53.570
1388.00,53.739
1389.00,53.552
1390.00,53.212
1391.00,53.525
1392.00,53.606
1393.00,53.914
1394.00,53.543
1395.00,53.652
1396.00,54.054
1397.00,53.989
1398.00,53.621
1399.00,53.952
1400.00,53.994
1401.00,53.511
1402.00,53.500
1403.00,53.582
1404.00,53.560
1405.00,53.667
1406.00,53.362
1407.00,53.563
1408.00,53.572
1409.00,53.545
1410.00,53.476
1411.00,53.371
1412.00,53.341
1413.00,53.338
1414.00,53.380
1415.00,53.624
1416.00,53.716
1417.00,53.769
1418.00,53.666
1419.00,53.540
1420.00,53.658
1421.00,53.737
1422.00,53.650
1423.00,53.584
1424.00,53.681
1425.00,53.676
1426.00,53.677
1427.00,53.714
1428.00,53.729
1429.00,53.732
1430.00,53.772
1431.00,53.721
1432.00,53.787
1433.00,53.819
1434.00,53.755
1435.00,53.855
1436.00,53.816
1437.00,53.792
1438.00,53.839
1439.00,53.869
1440.00,53.891
1441.00,53.887
1442.00,53.879
1443.00,53.966
1444.00,53.931
1445.00,53.858
1446.00,53.976
1447.00,53.997
1448.00,54.033
1449.00,54.037
1450.00,54.009
1451.00,54.029
1452.00,54.057
1453.00,54.083
1454.00,54.081
1455.00,54.093
1456.00,54.105
1457.00,54.089
1458.00,54.115
1459.00,54.149
1460.00,54.173
1461.00,54.165
1462.00,54.211
1463.00,54.205
1464.00,54.197
1465.00,54.232
1466.00,54.232
1467.00,54.245
1468.00,54.292
1469.00,54.281
1470.00,54.310
1471.00,54.318
1472.00,54.339
1473.00,54.356
1474.00,54.383
1475.00,54.392
1476.00,54.376
1477.00,54.360
1478.00,54.385
1479.00,54.425
1480.00,54.425
1481.00,54.417
1482.00,54.428
1483.00,54.430
1484.00,54.476
1485.00,54.503
1486.00,54.500
1487.00,54.517
1488.00,54.524
1489.00,54.533
1490.00,54.533
1491.00,54.559
1492.00,54.574
1493.00,54.545
1494.00,54.565
1495.00,54.564
1496.00,54.607
1497.00,54.594
1498.00,54.587
1499.00,54.643
1500.00,54.644
1501.00, 
1502.00, 
1503.00, 
1504.00, 
1505.00, 
1506.00, 
1507.00, 
1508.00, 
1509.00, 
1510.00, 
1511.00, 
1512.00, 
1513.00, 
1514.00, 
1515.00, 
1516.00, 
1517.00, 
1518.00, 
1519.00, 
1520.00, 
1521.00, 
1522.00, 
1523.00, 
1524.00, 
1525.00, 
1526.00, 
1527.00, 
1528.00, 
1529.00, 
1530.00, 
1531.00, 
1532.00, 
1533.00, 
1534.00, 
1535.00, 
1536.00, 
1537.00, 
1538.00, 
1539.00, 
1540.00, 
1541.00, 
1542.00, 
1543.00, 
1544.00, 
1545.00, 
1546.00, 
1547.00, 
1548.00, 
1549.00, 
1550.00, 
1551.00, 
1552.00, 
1553.00, 
1554.00, 
1555.00, 
1556.00, 
1557.00, 
1558.00, 
1559.00, 
1560.00, 
1561.00, 
1562.00, 
1563.00, 
1564.00, 
1565.00, 
1566.00, 
1567.00, 
1568.00, 
1569.00, 
1570.00, 
1571.00, 
1572.00, 
1573.00, 
1574.00, 
1575.00, 
1576.00, 
1577.00, 
1578.00, 
1579.00, 
1580.00, 
1581.00, 
1582.00, 
1583.00, 
1584.00, 
1585.00, 
1586.00, 
1587.00, 
1588.00, 
1589.00, 
1590.00, 
1591.00, 
1592.00, 
1593.00, 
1594.00, 
1595.00, 
1596.00, 
1597.00, 
1598.00, 
1599.00, 
1600.00, 
1601.00, 
1602.00, 
1603.00, 
1604.00, 
1605.00, 
1606.00, 
1607.00, 
1608.00, 
1609.00, 
1610.00, 
1611.00, 
1612.00, 
1613.00, 
1614.00, 
1615.00, 
1616.00, 
1617.00, 
1618.00, 
1619.00, 
1620.00, 
1621.00, 
1622.00, 
1623.00, 
1624.00, 
1625.00, 
1626.00, 
1627.00, 
1628.00, 
1629.00, 
1630.00, 
1631.00, 
1632.00, 
1633.00, 
1634.00, 
1635.00, 
1636.00, 
1637.00, 
1638.00, 
1639.00, 
1640.00, 
1641.00, 
1642.00, 
1643.00, 
1644.00, 
1645.00, 
1646.00, 
1647.00, 
1648.00, 
1649.00, 
1650.00, 
1651.00, 
1652.00, 
1653.00, 
1654.00, 
1655.00, 
1656.00, 
1657.00, 
1658.00, 
1659.00, 
1660.00, 
1661.00, 
1662.00, 
1663.00, 
1664.00, 
1665.00, 
1666.00, 
1667.00, 
1668.00, 
1669.00, 
1670.00, 
1671.00, 
1672.00, 
1673.00, 
1674.00, 
1675.00, 
1676.00, 
1677.00, 
1678.00, 
1679.00, 
1680.00, 
1681.00, 
1682.00, 
1683.00, 
1684.00, 
1685.00, 
1686.00, 
1687.00, 
1688.00, 
1689.00, 
1690.00, 
1691.00, 
1692.00, 
1693.00, 
1694.00, 
1695.00, 
1696.00, 
1697.00, 
1698.00, 
1699.00, 
1700.00, 
1701.00, 
1702.00, 
1703.00, 
1704.00, 
1705.00, 
1706.00, 
1707.00, 
1708.00, 
1709.00, 
1710.00, 
1711.00, 
1712.00, 
1713.00, 
1714.00, 
1715.00, 
1716.00, 
1717.00, 
1718.00, 
1719.00, 
1720.00, 
1721.00, 
1722.00, 
1723.00, 
1724.00, 
1725.00, 
1726.00, 
1727.00, 
1728.00, 
1729.00, 
1730.00, 
1731.00, 
1732.00, 
1733.00, 
1734.00, 
1735.00, 
1736.00, 
1737.00, 
1738.00, 
1739.00, 
1740.00, 
1741.00, 
1742.00, 
1743.00, 
1744.00, 
1745.00, 
1746.00, 
1747.00, 
1748.00, 
1749.00, 
1750.00, 
1751.00, 
1752.00, 
1753.00, 
1754.00, 
1755.00, 
1756.00, 
1757.00, 
1758.00, 
1759.00, 
1760.00, 
1761.00, 
1762.00, 
1763.00, 
1764.00, 
1765.00, 
1766.00, 
1767.00, 
1768.00, 
1769.00, 
1770.00, 
1771.00, 
1772.00, 
1773.00, 
1774.00, 
1775.00, 
1776.00, 
1777.00, 
1778.00, 
1779.00, 
1780.00, 
1781.00, 
1782.00, 
1783.00, 
1784.00, 
1785.00, 
1786.00, 
1787.00, 
1788.00, 
1789.00, 
1790.00, 
1791.00, 
1792.00, 
1793.00, 
1794.00, 
1795.00, 
1796.00, 
1797.00, 
1798.00, 
1799.00, 
1800.00, 
1801.00, 
1802.00, 
1803.00, 
1804.00, 
1805.00, 
1806.00, 
1807.00, 
1808.00, 
1809.00, 
1810.00, 
1811.00, 
1812.00, 
1813.00, 
1814.00, 
1815.00, 
1816.00, 
1817.00, 
1818.00, 
1819.00, 
1820.00, 
1821.00, 
1822.00, 
1823.00, 
1824.00, 
1825.00, 
1826.00, 
1827.00, 
1828.00, 
1829.00, 
1830.00, 
1831.00, 
1832.00, 
1833.00, 
1834.00, 
1835.00, 
1836.00, 
1837.00, 
1838.00, 
1839.00, 
1840.00, 
1841.00, 
1842.00, 
1843.00, 
1844.00, 
1845.00, 
1846.00, 
1847.00, 
1848.00, 
1849.00, 
1850.00, 
1851.00, 
1852.00, 
1853.00, 
1854.00, 
1855.00, 
1856.00, 
1857.00, 
1858.00, 
1859.00, 
1860.00, 
1861.00, 
1862.00, 
1863.00, 
1864.00, 
1865.00, 
1866.00, 
1867.00, 
1868.00, 
1869.00, 
1870.00, 
1871.00, 
1872.00, 
1873.00, 
1874.00, 
1875.00, 
1876.00, 
1877.00, 
1878.00, 
1879.00, 
1880.00, 
1881.00, 
1882.00, 
1883.00, 
1884.00, 
1885.00, 
1886.00, 
1887.00, 
1888.00, 
1889.00, 
1890.00, 
1891.00, 
1892.00, 
1893.00, 
1894.00, 
1895.00, 
1896.00, 
1897.00, 
1898.00, 
1899.00, 
1900.00, 
1901.00, 
1902.00, 
1903.00, 
1904.00, 
1905.00, 
1906.00, 
1907.00, 
1908.00, 
1909.00, 
1910.00, 
1911.00, 
1912.00, 
1913.00, 
1914.00, 
1915.00, 
1916.00, 
1917.00, 
1918.00, 
1919.00, 
1920.00, 
1921.00, 
1922.00, 
1923.00, 
1924.00, 
1925.00, 
1926.00, 
1927.00, 
1928.00, 
1929.00, 
1930.00, 
1931.00, 
1932.00, 
1933.00, 
1934.00, 
1935.00, 
1936.00, 
1937.00, 
1938.00, 
1939.00, 
1940.00, 
1941.00, 
1942.00, 
1943.00, 
1944.00, 
1945.00, 
1946.00, 
1947.00, 
1948.00, 
1949.00, 
1950.00, 
1951.00, 
1952.00, 
1953.00, 
1954.00, 
1955.00, 
1956.00, 
1957.00, 
1958.00, 
1959.00, 
1960.00, 
1961.00, 
1962.00, 
1963.00, 
1964.00, 
1965.00, 
1966.00, 
1967.00, 
1968.00, 
1969.00, 
1970.00, 
1971.00, 
1972.00, 
1973.00, 
1974.00, 
1975.00, 
1976.00, 
1977.00, 
1978.00, 
1979.00, 
1980.00, 
1981.00, 
1982.00, 
1983.00, 
1984.00, 
1985.00, 
1986.00, 
1987.00, 
1988.00, 
1989.00, 
1990.00, 
1991.00, 
1992.00, 
1993.00, 
1994.00, 
1995.00, 
1996.00, 
1997.00, 
1998.00, 
1999.00, 
2000.00, 
2001.00, 
2002.00, 
2003.00, 
2004.00, 
2005.00, 
2006.00, 
2007.00, 
2008.00, 
2009.00, 
2010.00, 
2011.00, 
2012.00, 
2013.00, 
2014.00, 
2015.00, 
2016.00, 
2017.00, 
2018.00, 
2019.00, 
2020.00, 
2021.00, 
2022.00, 
2023.00, 
2024.00, 
2025.00, 
2026.00, 
2027.00, 
2028.00, 
2029.00, 
2030.00, 
2031.00, 
2032.00, 
2033.00, 
2034.00, 
2035.00, 
2036.00, 
2037.00, 
2038.00, 
2039.00, 
2040.00, 
2041.00, 
2042.00, 
2043.00, 
2044.00, 
2045.00, 
2046.00, 
2047.00, 
2048.00, 
2049.00, 
2050.00, 
2051.00, 
2052.00, 
2053.00, 
2054.00, 
2055.00, 
2056.00, 
2057.00, 
2058.00, 
2059.00, 
2060.00, 
2061.00, 
2062.00, 
2063.00, 
2064.00, 
2065.00, 
2066.00, 
2067.00, 
2068.00, 
2069.00, 
2070.00, 
2071.00, 
2072.00, 
2073.00, 
2074.00, 
2075.00, 
2076.00, 
2077.00, 
2078.00, 
2079.00, 
2080.00, 
2081.00, 
2082.00, 
2083.00, 
2084.00, 
2085.00, 
2086.00, 
2087.00, 
2088.00, 
2089.00, 
2090.00, 
2091.00, 
2092.00, 
2093.00, 
2094.00, 
2095.00, 
2096.00, 
2097.00, 
2098.00, 
2099.00, 
2100.00, 
2101.00, 
2102.00, 
2103.00, 
2104.00, 
2105.00, 
2106.00, 
2107.00, 
2108.00, 
2109.00, 
2110.00, 
2111.00, 
2112.00, 
2113.00, 
2114.00, 
2115.00, 
2116.00, 
2117.00, 
2118.00, 
2119.00, 
2120.00, 
2121.00, 
2122.00, 
2123.00, 
2124.00, 
2125.00, 
2126.00, 
2127.00, 
2128.00, 
2129.00, 
2130.00, 
2131.00, 
2132.00, 
2133.00, 
2134.00, 
2135.00, 
2136.00, 
2137.00, 
2138.00, 
2139.00, 
2140.00, 
2141.00, 
2142.00, 
2143.00, 
2144.00, 
2145.00, 
2146.00, 
2147.00, 
2148.00, 
2149.00, 
2150.00, 
2151.00, 
2152.00, 
2153.00, 
2154.00, 
2155.00, 
2156.00, 
2157.00, 
2158.00, 
2159.00, 
2160.00, 
2161.00, 
2162.00, 
2163.00, 
2164.00, 
2165.00, 
2166.00, 
2167.00, 
2168.00, 
2169.00, 
2170.00, 
2171.00, 
2172.00, 
2173.00, 
2174.00, 
2175.00, 
2176.00, 
2177.00, 
2178.00, 
2179.00, 
2180.00, 
2181.00, 
2182.00, 
2183.00, 
2184.00, 
2185.00, 
2186.00, 
2187.00, 
2188.00, 
2189.00, 
2190.00, 
2191.00, 
2192.00, 
2193.00, 
2194.00, 
2195.00, 
2196.00, 
2197.00, 
2198.00, 
2199.00, 
2200.00, 
2201.00, 
2202.00, 
2203.00, 
2204.00, 
2205.00, 
2206.00, 
2207.00, 
2208.00, 
2209.00, 
2210.00, 
2211.00, 
2212.00, 
2213.00, 
2214.00, 
2215.00, 
2216.00, 
2217.00, 
2218.00, 
2219.00, 
2220.00, 
2221.00, 
2222.00, 
2223.00, 
2224.00, 
2225.00, 
2226.00, 
2227.00, 
2228.00, 
2229.00, 
2230.00, 
2231.00, 
2232.00, 
2233.00, 
2234.00, 
2235.00, 
2236.00, 
2237.00, 
2238.00, 
2239.00, 
2240.00, 
2241.00, 
2242.00, 
2243.00, 
2244.00, 
2245.00, 
2246.00, 
2247.00, 
2248.00, 
2249.00, 
2250.00, 
2251.00, 
2252.00, 
2253.00, 
2254.00, 
2255.00, 
2256.00, 
2257.00, 
2258.00, 
2259.00, 
2260.00, 
2261.00, 
2262.00, 
2263.00, 
2264.00, 
2265.00, 
2266.00, 
2267.00, 
2268.00, 
2269.00, 
2270.00, 
2271.00, 
2272.00, 
2273.00, 
2274.00, 
2275.00, 
2276.00, 
2277.00, 
2278.00, 
2279.00, 
2280.00, 
2281.00, 
2282.00, 
2283.00, 
2284.00, 
2285.00, 
2286.00, 
2287.00, 
2288.00, 
2289.00, 
2290.00, 
2291.00, 
2292.00, 
2293.00, 
2294.00, 
2295.00, 
2296.00, 
2297.00, 
2298.00, 
2299.00, 
2300.00, 
2301.00, 
2302.00, 
2303.00, 
2304.00, 
2305.00, 
2306.00, 
2307.00, 
2308.00, 
2309.00, 
2310.00, 
2311.00, 
2312.00, 
2313.00, 
2314.00, 
2315.00, 
2316.00, 
2317.00, 
2318.00, 
2319.00, 
2320.00, 
2321.00, 
2322.00, 
2323.00, 
2324.00, 
2325.00, 
2326.00, 
2327.00, 
2328.00, 
2329.00, 
2330.00, 
2331.00, 
2332.00, 
2333.00, 
2334.00, 
2335.00, 
2336.00, 
2337.00, 
2338.00, 
2339.00, 
2340.00, 
2341.00, 
2342.00, 
2343.00, 
2344.00, 
2345.00, 
2346.00, 
2347.00, 
2348.00, 
2349.00, 
2350.00, 
2351.00, 
2352.00, 
2353.00, 
2354.00, 
2355.00, 
2356.00, 
2357.00, 
2358.00, 
2359.00, 
2360.00, 
2361.00, 
2362.00, 
2363.00, 
2364.00, 
2365.00, 
2366.00, 
2367.00, 
2368.00, 
2369.00, 
2370.00, 
2371.00, 
2372.00, 
2373.00, 
2374.00, 
2375.00, 
2376.00, 
2377.00, 
2378.00, 
2379.00, 
2380.00, 
2381.00, 
2382.00, 
2383.00, 
2384.00, 
2385.00, 
2386.00, 
2387.00, 
2388.00, 
2389.00, 
2390.00, 
2391.00, 
2392.00, 
2393.00, 
2394.00, 
2395.00, 
2396.00, 
2397.00, 
2398.00, 
2399.00, 
2400.00, 
2401.00, 
2402.00, 
2403.00, 
2404.00, 
2405.00, 
2406.00, 
2407.00, 
2408.00, 
2409.00, 
2410.00, 
2411.00, 
2412.00, 
2413.00, 
2414.00, 
2415.00, 
2416.00, 
2417.00, 
2418.00, 
2419.00, 
2420.00, 
2421.00, 
2422.00, 
2423.00, 
2424.00, 
2425.00, 
2426.00, 
2427.00, 
2428.00, 
2429.00, 
2430.00, 
2431.00, 
2432.00, 
2433.00, 
2434.00, 
2435.00, 
2436.00, 
2437.00, 
2438.00, 
2439.00, 
2440.00, 
2441.00, 
2442.00, 
2443.00, 
2444.00, 
2445.00, 
2446.00, 
2447.00, 
2448.00, 
2449.00, 
2450.00, 
2451.00, 
2452.00, 
2453.00, 
2454.00, 
2455.00, 
2456.00, 
2457.00, 
2458.00, 
2459.00, 
2460.00, 
2461.00, 
2462.00, 
2463.00, 
2464.00, 
2465.00, 
2466.00, 
2467.00, 
2468.00, 
2469.00, 
2470.00, 
2471.00, 
2472.00, 
2473.00, 
2474.00, 
2475.00, 
2476.00, 
2477.00, 
2478.00, 
2479.00, 
2480.00, 
2481.00, 
2482.00, 
2483.00, 
2484.00, 
2485.00, 
2486.00, 
2487.00, 
2488.00, 
2489.00, 
2490.00, 
2491.00, 
2492.00, 
2493.00, 
2494.00, 
2495.00, 
2496.00, 
2497.00, 
2498.00, 
2499.00, 
2500.00, 
2501.00, 
2502.00, 
2503.00, 
2504.00, 
2505.00, 
2506.00, 
2507.00, 
2508.00, 
2509.00, 
2510.00, 
2511.00, 
2512.00, 
2513.00, 
2514.00, 
2515.00, 
2516.00, 
2517.00, 
2518.00, 
2519.00, 
2520.00, 
2521.00, 
2522.00, 
2523.00, 
2524.00, 
2525.00, 
2526.00, 
2527.00, 
2528.00, 
2529.00, 
2530.00, 
2531.00, 
2532.00, 
2533.00, 
2534.00, 
2535.00, 
2536.00, 
2537.00, 
2538.00, 
2539.00, 
2540.00, 
2541.00, 
2542.00, 
2543.00, 
2544.00, 
2545.00, 
2546.00, 
2547.00, 
2548.00, 
2549.00, 
2550.00, 
2551.00, 
2552.00, 
2553.00, 
2554.00, 
2555.00, 
2556.00, 
2557.00, 
2558.00, 
2559.00, 
2560.00, 
2561.00, 
2562.00, 
2563.00, 
2564.00, 
2565.00, 
2566.00, 
2567.00, 
2568.00, 
2569.00, 
2570.00, 
2571.00, 
2572.00, 
2573.00, 
2574.00, 
2575.00, 
2576.00, 
2577.00, 
2578.00, 
2579.00, 
2580.00, 
2581.00, 
2582.00, 
2583.00, 
2584.00, 
2585.00, 
2586.00, 
2587.00, 
2588.00, 
2589.00, 
2590.00, 
2591.00, 
2592.00, 
2593.00, 
2594.00, 
2595.00, 
2596.00, 
2597.00, 
2598.00, 
2599.00, 
2600.00, 
