"1bP1 - RawData"
"Wavelength nm.","T%"
200.00,0.005
201.00,0.003
202.00,0.000
203.00,0.000
204.00,0.001
205.00,-0.001
206.00,0.000
207.00,-0.001
208.00,-0.000
209.00,-0.000
210.00,0.001
211.00,0.000
212.00,0.000
213.00,-0.000
214.00,0.001
215.00,0.003
216.00,-0.001
217.00,0.002
218.00,-0.001
219.00,0.000
220.00,-0.000
221.00,0.001
222.00,0.001
223.00,0.000
224.00,-0.000
225.00,0.000
226.00,0.001
227.00,0.000
228.00,-0.000
229.00,0.001
230.00,-0.001
231.00,-0.002
232.00,0.000
233.00,-0.000
234.00,-0.001
235.00,0.002
236.00,0.000
237.00,0.000
238.00,-0.001
239.00,-0.001
240.00,-0.003
241.00,0.002
242.00,0.001
243.00,0.000
244.00,-0.001
245.00,0.001
246.00,-0.000
247.00,-0.002
248.00,0.001
249.00,0.002
250.00,0.001
251.00,-0.002
252.00,0.001
253.00,-0.003
254.00,-0.000
255.00,0.000
256.00,0.002
257.00,0.002
258.00,-0.001
259.00,-0.000
260.00,-0.001
261.00,0.002
262.00,0.000
263.00,-0.000
264.00,-0.001
265.00,0.000
266.00,-0.000
267.00,-0.001
268.00,0.000
269.00,0.000
270.00,0.001
271.00,0.001
272.00,-0.002
273.00,0.000
274.00,-0.000
275.00,-0.000
276.00,-0.000
277.00,0.001
278.00,-0.000
279.00,0.000
280.00,-0.002
281.00,0.001
282.00,0.001
283.00,0.000
284.00,-0.001
285.00,-0.001
286.00,-0.002
287.00,0.001
288.00,0.000
289.00,-0.000
290.00,-0.000
291.00,-0.000
292.00,0.000
293.00,-0.000
294.00,-0.001
295.00,0.000
296.00,-0.001
297.00,0.002
298.00,0.001
299.00,0.002
300.00,0.004
301.00,0.002
302.00,0.005
303.00,0.008
304.00,0.011
305.00,0.021
306.00,0.026
307.00,0.042
308.00,0.063
309.00,0.093
310.00,0.127
311.00,0.172
312.00,0.234
313.00,0.308
314.00,0.410
315.00,0.526
316.00,0.653
317.00,0.802
318.00,0.984
319.00,1.186
320.00,1.430
321.00,1.666
322.00,1.954
323.00,2.278
324.00,2.606
325.00,2.946
326.00,3.279
327.00,3.657
328.00,4.045
329.00,4.435
330.00,4.832
331.00,5.227
332.00,5.644
333.00,6.047
334.00,6.445
335.00,6.847
336.00,7.234
337.00,7.615
338.00,7.956
339.00,8.283
340.00,8.632
341.00,8.975
342.00,9.261
343.00,9.604
344.00,9.823
345.00,10.021
346.00,10.311
347.00,10.513
348.00,10.725
349.00,10.893
350.00,11.077
351.00,11.248
352.00,11.364
353.00,11.507
354.00,11.633
355.00,11.774
356.00,11.879
357.00,11.977
358.00,12.007
359.00,12.098
360.00,12.148
361.00,12.156
362.00,12.159
363.00,12.178
364.00,12.167
365.00,12.196
366.00,12.230
367.00,12.214
368.00,12.235
369.00,12.219
370.00,12.215
371.00,12.237
372.00,12.175
373.00,12.190
374.00,12.098
375.00,12.033
376.00,11.973
377.00,11.914
378.00,11.844
379.00,11.777
380.00,11.743
381.00,11.701
382.00,11.676
383.00,11.643
384.00,11.638
385.00,11.603
386.00,11.568
387.00,11.597
388.00,11.591
389.00,11.566
390.00,11.572
391.00,11.526
392.00,11.515
393.00,11.495
394.00,11.446
395.00,11.437
396.00,11.394
397.00,11.373
398.00,11.351
399.00,11.347
400.00,11.292
401.00,11.329
402.00,11.284
403.00,11.289
404.00,11.240
405.00,11.206
406.00,11.178
407.00,11.160
408.00,11.164
409.00,11.147
410.00,11.141
411.00,11.133
412.00,11.093
413.00,11.158
414.00,11.174
415.00,11.169
416.00,11.162
417.00,11.098
418.00,11.087
419.00,11.105
420.00,11.096
421.00,11.120
422.00,11.158
423.00,11.122
424.00,11.156
425.00,11.186
426.00,11.199
427.00,11.221
428.00,11.225
429.00,11.260
430.00,11.310
431.00,11.355
432.00,11.375
433.00,11.421
434.00,11.426
435.00,11.513
436.00,11.553
437.00,11.594
438.00,11.663
439.00,11.689
440.00,11.765
441.00,11.831
442.00,11.892
443.00,11.938
444.00,12.011
445.00,12.082
446.00,12.180
447.00,12.214
448.00,12.303
449.00,12.388
450.00,12.477
451.00,12.578
452.00,12.657
453.00,12.696
454.00,12.793
455.00,12.875
456.00,13.001
457.00,13.107
458.00,13.161
459.00,13.291
460.00,13.357
461.00,13.462
462.00,13.510
463.00,13.623
464.00,13.732
465.00,13.831
466.00,13.959
467.00,14.120
468.00,14.309
469.00,14.420
470.00,14.404
471.00,14.575
472.00,14.726
473.00,14.837
474.00,14.980
475.00,15.160
476.00,15.306
477.00,15.453
478.00,15.501
479.00,15.687
480.00,15.816
481.00,15.959
482.00,16.131
483.00,16.248
484.00,16.298
485.00,16.628
486.00,16.641
487.00,16.931
488.00,17.037
489.00,17.198
490.00,17.286
491.00,17.476
492.00,17.673
493.00,17.799
494.00,17.847
495.00,18.082
496.00,18.101
497.00,18.180
498.00,18.370
499.00,18.574
500.00,18.688
501.00,18.857
502.00,18.962
503.00,19.125
504.00,19.279
505.00,19.408
506.00,19.574
507.00,19.674
508.00,19.767
509.00,19.922
510.00,20.046
511.00,20.285
512.00,20.510
513.00,20.608
514.00,20.726
515.00,20.745
516.00,20.897
517.00,21.023
518.00,21.124
519.00,21.233
520.00,21.368
521.00,21.458
522.00,21.624
523.00,21.822
524.00,21.872
525.00,22.030
526.00,22.093
527.00,22.194
528.00,22.267
529.00,22.405
530.00,22.431
531.00,22.563
532.00,22.485
533.00,22.640
534.00,22.814
535.00,22.911
536.00,23.065
537.00,23.108
538.00,23.270
539.00,23.333
540.00,23.454
541.00,23.513
542.00,23.618
543.00,23.751
544.00,23.845
545.00,23.961
546.00,24.050
547.00,24.120
548.00,24.216
549.00,24.325
550.00,24.370
551.00,24.402
552.00,24.534
553.00,24.467
554.00,24.537
555.00,24.610
556.00,24.616
557.00,24.839
558.00,24.908
559.00,25.016
560.00,25.078
561.00,25.125
562.00,25.154
563.00,25.233
564.00,25.372
565.00,25.367
566.00,25.429
567.00,25.544
568.00,25.592
569.00,25.677
570.00,25.657
571.00,25.531
572.00,25.811
573.00,25.762
574.00,25.806
575.00,25.860
576.00,25.888
577.00,26.030
578.00,26.095
579.00,26.206
580.00,26.199
581.00,26.295
582.00,26.416
583.00,26.462
584.00,26.613
585.00,26.633
586.00,26.641
587.00,26.802
588.00,26.858
589.00,26.962
590.00,26.951
591.00,27.045
592.00,27.153
593.00,27.092
594.00,27.213
595.00,27.275
596.00,27.406
597.00,27.395
598.00,27.428
599.00,27.418
600.00,27.316
601.00,27.440
602.00,27.521
603.00,27.667
604.00,27.685
605.00,27.766
606.00,27.879
607.00,27.902
608.00,27.966
609.00,28.179
610.00,28.112
611.00,28.078
612.00,28.230
613.00,28.293
614.00,28.409
615.00,28.430
616.00,28.461
617.00,28.460
618.00,28.478
619.00,28.551
620.00,28.629
621.00,28.726
622.00,28.827
623.00,28.857
624.00,29.010
625.00,29.120
626.00,29.201
627.00,29.375
628.00,29.400
629.00,29.484
630.00,29.650
631.00,29.659
632.00,29.779
633.00,29.866
634.00,29.969
635.00,30.000
636.00,30.126
637.00,30.123
638.00,30.245
639.00,30.329
640.00,30.508
641.00,30.604
642.00,30.751
643.00,30.847
644.00,30.942
645.00,30.957
646.00,31.099
647.00,31.290
648.00,31.449
649.00,31.656
650.00,31.711
651.00,31.733
652.00,31.793
653.00,31.973
654.00,32.139
655.00,32.396
656.00,32.330
657.00,33.301
658.00,33.333
659.00,33.069
660.00,32.805
661.00,33.135
662.00,33.252
663.00,33.431
664.00,33.488
665.00,33.310
666.00,33.767
667.00,34.067
668.00,34.185
669.00,33.943
670.00,34.306
671.00,34.072
672.00,34.467
673.00,34.575
674.00,34.472
675.00,34.789
676.00,34.830
677.00,35.013
678.00,35.502
679.00,35.468
680.00,35.840
681.00,36.222
682.00,36.631
683.00,36.561
684.00,36.411
685.00,36.515
686.00,36.487
687.00,36.595
688.00,36.875
689.00,37.025
690.00,37.050
691.00,37.509
692.00,37.433
693.00,37.391
694.00,37.860
695.00,37.817
696.00,38.077
697.00,38.238
698.00,38.416
699.00,38.326
700.00,38.460
701.00,38.709
702.00,39.020
703.00,39.262
704.00,39.657
705.00,39.532
706.00,39.405
707.00,39.370
708.00,39.486
709.00,39.673
710.00,39.576
711.00,39.830
712.00,40.509
713.00,40.453
714.00,40.351
715.00,40.817
716.00,41.090
717.00,40.963
718.00,41.143
719.00,41.475
720.00,41.895
721.00,45.669
722.00,45.705
723.00,45.726
724.00,45.917
725.00,46.002
726.00,46.122
727.00,46.167
728.00,46.293
729.00,46.398
730.00,46.563
731.00,46.573
732.00,46.760
733.00,46.859
734.00,46.940
735.00,47.061
736.00,47.160
737.00,47.287
738.00,47.401
739.00,47.449
740.00,47.566
741.00,47.706
742.00,47.783
743.00,47.838
744.00,47.844
745.00,47.923
746.00,47.895
747.00,48.053
748.00,48.111
749.00,48.182
750.00,48.284
751.00,48.308
752.00,48.469
753.00,48.431
754.00,48.505
755.00,48.534
756.00,48.625
757.00,48.683
758.00,48.784
759.00,48.829
760.00,48.858
761.00,48.937
762.00,49.012
763.00,49.116
764.00,49.126
765.00,49.255
766.00,49.160
767.00,49.289
768.00,49.381
769.00,49.376
770.00,49.509
771.00,49.532
772.00,49.607
773.00,49.670
774.00,49.694
775.00,49.837
776.00,49.764
777.00,49.887
778.00,49.837
779.00,50.015
780.00,50.018
781.00,50.052
782.00,50.133
783.00,50.026
784.00,50.162
785.00,50.131
786.00,50.209
787.00,50.211
788.00,50.258
789.00,50.294
790.00,50.267
791.00,50.411
792.00,50.341
793.00,50.422
794.00,50.482
795.00,50.415
796.00,50.491
797.00,50.357
798.00,50.489
799.00,50.388
800.00,50.415
801.00,50.369
802.00,50.305
803.00,50.462
804.00,50.430
805.00,50.515
806.00,50.410
807.00,50.525
808.00,50.607
809.00,50.488
810.00,50.572
811.00,50.575
812.00,50.695
813.00,50.702
814.00,50.658
815.00,50.787
816.00,50.668
817.00,50.759
818.00,50.601
819.00,50.610
820.00,50.712
821.00,50.701
822.00,50.655
823.00,50.821
824.00,50.750
825.00,50.670
826.00,50.577
827.00,50.768
828.00,50.525
829.00,50.732
830.00,50.695
831.00,53.436
832.00,53.434
833.00,53.467
834.00,53.427
835.00,53.434
836.00,53.463
837.00,53.448
838.00,53.435
839.00,53.493
840.00,53.499
841.00,53.447
842.00,53.502
843.00,53.446
844.00,53.478
845.00,53.370
846.00,53.388
847.00,53.346
848.00,53.439
849.00,53.507
850.00,53.452
851.00,53.444
852.00,53.366
853.00,53.428
854.00,53.420
855.00,53.402
856.00,53.271
857.00,53.353
858.00,53.389
859.00,53.397
860.00,53.444
861.00,53.341
862.00,53.365
863.00,53.325
864.00,53.429
865.00,53.294
866.00,53.295
867.00,53.295
868.00,53.420
869.00,53.359
870.00,53.291
871.00,53.373
872.00,53.383
873.00,53.348
874.00,53.281
875.00,53.352
876.00,53.288
877.00,53.411
878.00,53.314
879.00,53.401
880.00,53.332
881.00,53.425
882.00,53.249
883.00,53.379
884.00,53.323
885.00,53.306
886.00,53.239
887.00,53.284
888.00,53.313
889.00,53.262
890.00,53.165
891.00,53.203
892.00,53.258
893.00,53.229
894.00,53.135
895.00,53.202
896.00,53.270
897.00,53.217
898.00,53.124
899.00,53.078
900.00,53.093
901.00,53.031
902.00,53.013
903.00,53.136
904.00,53.231
905.00,53.144
906.00,53.017
907.00,53.071
908.00,53.186
909.00,53.052
910.00,53.066
911.00,52.915
912.00,52.974
913.00,52.881
914.00,52.940
915.00,53.088
916.00,53.207
917.00,53.084
918.00,52.953
919.00,53.038
920.00,53.118
921.00,52.994
922.00,52.881
923.00,52.945
924.00,53.104
925.00,52.900
926.00,52.816
927.00,52.852
928.00,53.024
929.00,52.867
930.00,52.785
931.00,52.804
932.00,52.896
933.00,52.793
934.00,52.812
935.00,52.844
936.00,52.845
937.00,52.755
938.00,52.648
939.00,52.750
940.00,52.828
941.00,52.702
942.00,52.605
943.00,52.672
944.00,52.755
945.00,52.654
946.00,52.610
947.00,52.625
948.00,52.604
949.00,52.579
950.00,52.498
951.00,52.522
952.00,52.573
953.00,52.529
954.00,52.412
955.00,52.460
956.00,52.446
957.00,52.407
958.00,52.349
959.00,52.364
960.00,52.350
961.00,52.344
962.00,52.302
963.00,52.292
964.00,52.330
965.00,52.270
966.00,52.284
967.00,52.270
968.00,52.301
969.00,52.250
970.00,52.261
971.00,52.283
972.00,52.301
973.00,52.294
974.00,52.302
975.00,52.338
976.00,52.274
977.00,52.304
978.00,52.302
979.00,52.313
980.00,52.315
981.00,52.287
982.00,52.287
983.00,52.250
984.00,52.304
985.00,52.274
986.00,52.306
987.00,52.289
988.00,52.274
989.00,52.252
990.00,52.231
991.00,52.236
992.00,52.236
993.00,52.237
994.00,52.193
995.00,52.160
996.00,52.182
997.00,52.165
998.00,52.175
999.00,52.156
1000.00,52.156
1001.00,52.127
1002.00,52.110
1003.00,52.144
1004.00,52.097
1005.00,52.093
1006.00,52.069
1007.00,52.130
1008.00,52.085
1009.00,52.050
1010.00,52.074
1011.00,52.021
1012.00,52.014
1013.00,52.026
1014.00,52.036
1015.00,52.002
1016.00,51.972
1017.00,51.974
1018.00,51.958
1019.00,51.962
1020.00,51.923
1021.00,51.961
1022.00,51.929
1023.00,51.887
1024.00,51.849
1025.00,51.868
1026.00,51.890
1027.00,51.851
1028.00,51.856
1029.00,51.835
1030.00,51.860
1031.00,51.818
1032.00,51.783
1033.00,51.766
1034.00,51.771
1035.00,51.740
1036.00,51.680
1037.00,51.681
1038.00,51.662
1039.00,51.651
1040.00,51.604
1041.00,51.569
1042.00,51.568
1043.00,51.557
1044.00,51.615
1045.00,51.564
1046.00,51.565
1047.00,51.573
1048.00,51.606
1049.00,51.605
1050.00,51.638
1051.00,51.627
1052.00,51.672
1053.00,51.675
1054.00,51.705
1055.00,51.693
1056.00,51.691
1057.00,51.716
1058.00,51.700
1059.00,51.685
1060.00,51.675
1061.00,51.687
1062.00,51.675
1063.00,51.674
1064.00,51.635
1065.00,51.681
1066.00,51.660
1067.00,51.651
1068.00,51.659
1069.00,51.676
1070.00,51.626
1071.00,51.624
1072.00,51.625
1073.00,51.626
1074.00,51.618
1075.00,51.577
1076.00,51.595
1077.00,51.586
1078.00,51.557
1079.00,51.548
1080.00,51.544
1081.00,51.528
1082.00,51.549
1083.00,51.539
1084.00,51.548
1085.00,51.536
1086.00,51.537
1087.00,51.524
1088.00,51.532
1089.00,51.521
1090.00,51.529
1091.00,51.512
1092.00,51.524
1093.00,51.486
1094.00,51.486
1095.00,51.464
1096.00,51.468
1097.00,51.456
1098.00,51.455
1099.00,51.426
1100.00,51.430
1101.00,51.414
1102.00,51.445
1103.00,51.427
1104.00,51.416
1105.00,51.381
1106.00,51.377
1107.00,51.368
1108.00,51.362
1109.00,51.355
1110.00,51.367
1111.00,51.329
1112.00,51.328
1113.00,51.321
1114.00,51.331
1115.00,51.332
1116.00,51.331
1117.00,51.291
1118.00,51.283
1119.00,51.256
1120.00,51.280
1121.00,51.310
1122.00,51.298
1123.00,51.237
1124.00,51.245
1125.00,51.232
1126.00,51.275
1127.00,51.274
1128.00,51.263
1129.00,51.238
1130.00,51.235
1131.00,51.217
1132.00,51.210
1133.00,51.233
1134.00,51.227
1135.00,51.160
1136.00,51.206
1137.00,51.218
1138.00,51.207
1139.00,51.198
1140.00,51.187
1141.00,51.143
1142.00,51.185
1143.00,51.211
1144.00,51.170
1145.00,51.149
1146.00,51.129
1147.00,51.105
1148.00,51.140
1149.00,51.171
1150.00,51.184
1151.00,51.191
1152.00,51.150
1153.00,51.136
1154.00,51.142
1155.00,51.146
1156.00,51.163
1157.00,51.147
1158.00,51.120
1159.00,51.114
1160.00,51.116
1161.00,51.148
1162.00,51.131
1163.00,51.121
1164.00,51.126
1165.00,51.122
1166.00,51.106
1167.00,51.127
1168.00,51.149
1169.00,51.135
1170.00,51.122
1171.00,51.121
1172.00,51.113
1173.00,51.113
1174.00,51.115
1175.00,51.129
1176.00,51.112
1177.00,51.085
1178.00,51.112
1179.00,51.095
1180.00,51.132
1181.00,51.149
1182.00,51.125
1183.00,51.120
1184.00,51.095
1185.00,51.112
1186.00,51.109
1187.00,51.116
1188.00,51.100
1189.00,51.114
1190.00,51.083
1191.00,51.106
1192.00,51.127
1193.00,51.130
1194.00,51.108
1195.00,51.086
1196.00,51.106
1197.00,51.105
1198.00,51.116
1199.00,51.075
1200.00,51.081
1201.00,51.084
1202.00,51.070
1203.00,51.083
1204.00,51.084
1205.00,51.104
1206.00,51.093
1207.00,51.090
1208.00,51.071
1209.00,51.107
1210.00,51.095
1211.00,51.104
1212.00,51.109
1213.00,51.076
1214.00,51.100
1215.00,51.084
1216.00,51.102
1217.00,51.087
1218.00,51.084
1219.00,51.097
1220.00,51.083
1221.00,51.104
1222.00,51.107
1223.00,51.118
1224.00,51.098
1225.00,51.083
1226.00,51.094
1227.00,51.113
1228.00,51.085
1229.00,51.104
1230.00,51.156
1231.00,51.138
1232.00,51.134
1233.00,51.154
1234.00,51.158
1235.00,51.142
1236.00,51.155
1237.00,51.145
1238.00,51.159
1239.00,51.140
1240.00,51.137
1241.00,51.174
1242.00,51.177
1243.00,51.163
1244.00,51.139
1245.00,51.173
1246.00,51.176
1247.00,51.187
1248.00,51.180
1249.00,51.166
1250.00,51.158
1251.00,51.164
1252.00,51.178
1253.00,51.171
1254.00,51.191
1255.00,51.162
1256.00,51.136
1257.00,51.161
1258.00,51.223
1259.00,51.237
1260.00,51.233
1261.00,51.198
1262.00,51.210
1263.00,51.215
1264.00,51.239
1265.00,51.231
1266.00,51.235
1267.00,51.247
1268.00,51.240
1269.00,51.245
1270.00,51.265
1271.00,51.257
1272.00,51.271
1273.00,51.275
1274.00,51.293
1275.00,51.279
1276.00,51.267
1277.00,51.283
1278.00,51.319
1279.00,51.311
1280.00,51.309
1281.00,51.326
1282.00,51.323
1283.00,51.321
1284.00,51.289
1285.00,51.299
1286.00,51.334
1287.00,51.326
1288.00,51.336
1289.00,51.332
1290.00,51.374
1291.00,51.368
1292.00,51.357
1293.00,51.353
1294.00,51.356
1295.00,51.393
1296.00,51.402
1297.00,51.392
1298.00,51.402
1299.00,51.383
1300.00,51.388
1301.00,51.403
1302.00,51.470
1303.00,51.416
1304.00,51.406
1305.00,51.430
1306.00,51.406
1307.00,51.410
1308.00,51.408
1309.00,51.453
1310.00,51.496
1311.00,51.433
1312.00,51.404
1313.00,51.454
1314.00,51.491
1315.00,51.485
1316.00,51.482
1317.00,51.497
1318.00,51.530
1319.00,51.531
1320.00,51.547
1321.00,51.597
1322.00,51.650
1323.00,51.602
1324.00,51.592
1325.00,51.629
1326.00,51.694
1327.00,51.617
1328.00,51.583
1329.00,51.627
1330.00,51.658
1331.00,51.616
1332.00,51.573
1333.00,51.639
1334.00,51.714
1335.00,51.673
1336.00,51.637
1337.00,51.702
1338.00,51.821
1339.00,51.861
1340.00,51.903
1341.00,51.953
1342.00,52.035
1343.00,52.111
1344.00,52.183
1345.00,52.220
1346.00,52.254
1347.00,52.319
1348.00,52.308
1349.00,52.340
1350.00,52.262
1351.00,52.188
1352.00,52.111
1353.00,52.269
1354.00,52.468
1355.00,52.342
1356.00,52.454
1357.00,52.436
1358.00,52.293
1359.00,51.837
1360.00,51.609
1361.00,51.895
1362.00,51.825
1363.00,52.930
1364.00,53.254
1365.00,52.813
1366.00,52.348
1367.00,52.320
1368.00,52.298
1369.00,52.497
1370.00,52.510
1371.00,52.449
1372.00,52.520
1373.00,52.508
1374.00,52.322
1375.00,52.292
1376.00,52.310
1377.00,52.201
1378.00,52.337
1379.00,52.287
1380.00,52.136
1381.00,52.340
1382.00,52.639
1383.00,52.567
1384.00,52.689
1385.00,52.368
1386.00,52.273
1387.00,52.423
1388.00,52.630
1389.00,52.473
1390.00,52.138
1391.00,52.376
1392.00,52.512
1393.00,52.784
1394.00,52.405
1395.00,52.521
1396.00,52.953
1397.00,52.846
1398.00,52.519
1399.00,52.797
1400.00,52.888
1401.00,52.392
1402.00,52.400
1403.00,52.428
1404.00,52.431
1405.00,52.552
1406.00,52.228
1407.00,52.434
1408.00,52.465
1409.00,52.425
1410.00,52.370
1411.00,52.252
1412.00,52.249
1413.00,52.194
1414.00,52.286
1415.00,52.529
1416.00,52.575
1417.00,52.639
1418.00,52.486
1419.00,52.397
1420.00,52.536
1421.00,52.589
1422.00,52.537
1423.00,52.494
1424.00,52.534
1425.00,52.512
1426.00,52.514
1427.00,52.579
1428.00,52.578
1429.00,52.601
1430.00,52.622
1431.00,52.563
1432.00,52.642
1433.00,52.655
1434.00,52.650
1435.00,52.707
1436.00,52.655
1437.00,52.666
1438.00,52.699
1439.00,52.710
1440.00,52.728
1441.00,52.725
1442.00,52.721
1443.00,52.779
1444.00,52.786
1445.00,52.736
1446.00,52.801
1447.00,52.865
1448.00,52.937
1449.00,52.909
1450.00,52.857
1451.00,52.900
1452.00,52.886
1453.00,52.970
1454.00,52.963
1455.00,52.947
1456.00,52.956
1457.00,52.948
1458.00,52.958
1459.00,52.987
1460.00,53.015
1461.00,53.024
1462.00,53.054
1463.00,53.026
1464.00,53.052
1465.00,53.074
1466.00,53.062
1467.00,53.086
1468.00,53.168
1469.00,53.087
1470.00,53.127
1471.00,53.139
1472.00,53.154
1473.00,53.181
1474.00,53.208
1475.00,53.230
1476.00,53.208
1477.00,53.182
1478.00,53.215
1479.00,53.249
1480.00,53.261
1481.00,53.258
1482.00,53.272
1483.00,53.275
1484.00,53.302
1485.00,53.315
1486.00,53.318
1487.00,53.331
1488.00,53.319
1489.00,53.335
1490.00,53.343
1491.00,53.358
1492.00,53.393
1493.00,53.370
1494.00,53.380
1495.00,53.371
1496.00,53.387
1497.00,53.404
1498.00,53.405
1499.00,53.444
1500.00,53.461
1501.00, 
1502.00, 
1503.00, 
1504.00, 
1505.00, 
1506.00, 
1507.00, 
1508.00, 
1509.00, 
1510.00, 
1511.00, 
1512.00, 
1513.00, 
1514.00, 
1515.00, 
1516.00, 
1517.00, 
1518.00, 
1519.00, 
1520.00, 
1521.00, 
1522.00, 
1523.00, 
1524.00, 
1525.00, 
1526.00, 
1527.00, 
1528.00, 
1529.00, 
1530.00, 
1531.00, 
1532.00, 
1533.00, 
1534.00, 
1535.00, 
1536.00, 
1537.00, 
1538.00, 
1539.00, 
1540.00, 
1541.00, 
1542.00, 
1543.00, 
1544.00, 
1545.00, 
1546.00, 
1547.00, 
1548.00, 
1549.00, 
1550.00, 
1551.00, 
1552.00, 
1553.00, 
1554.00, 
1555.00, 
1556.00, 
1557.00, 
1558.00, 
1559.00, 
1560.00, 
1561.00, 
1562.00, 
1563.00, 
1564.00, 
1565.00, 
1566.00, 
1567.00, 
1568.00, 
1569.00, 
1570.00, 
1571.00, 
1572.00, 
1573.00, 
1574.00, 
1575.00, 
1576.00, 
1577.00, 
1578.00, 
1579.00, 
1580.00, 
1581.00, 
1582.00, 
1583.00, 
1584.00, 
1585.00, 
1586.00, 
1587.00, 
1588.00, 
1589.00, 
1590.00, 
1591.00, 
1592.00, 
1593.00, 
1594.00, 
1595.00, 
1596.00, 
1597.00, 
1598.00, 
1599.00, 
1600.00, 
1601.00, 
1602.00, 
1603.00, 
1604.00, 
1605.00, 
1606.00, 
1607.00, 
1608.00, 
1609.00, 
1610.00, 
1611.00, 
1612.00, 
1613.00, 
1614.00, 
1615.00, 
1616.00, 
1617.00, 
1618.00, 
1619.00, 
1620.00, 
1621.00, 
1622.00, 
1623.00, 
1624.00, 
1625.00, 
1626.00, 
1627.00, 
1628.00, 
1629.00, 
1630.00, 
1631.00, 
1632.00, 
1633.00, 
1634.00, 
1635.00, 
1636.00, 
1637.00, 
1638.00, 
1639.00, 
1640.00, 
1641.00, 
1642.00, 
1643.00, 
1644.00, 
1645.00, 
1646.00, 
1647.00, 
1648.00, 
1649.00, 
1650.00, 
1651.00, 
1652.00, 
1653.00, 
1654.00, 
1655.00, 
1656.00, 
1657.00, 
1658.00, 
1659.00, 
1660.00, 
1661.00, 
1662.00, 
1663.00, 
1664.00, 
1665.00, 
1666.00, 
1667.00, 
1668.00, 
1669.00, 
1670.00, 
1671.00, 
1672.00, 
1673.00, 
1674.00, 
1675.00, 
1676.00, 
1677.00, 
1678.00, 
1679.00, 
1680.00, 
1681.00, 
1682.00, 
1683.00, 
1684.00, 
1685.00, 
1686.00, 
1687.00, 
1688.00, 
1689.00, 
1690.00, 
1691.00, 
1692.00, 
1693.00, 
1694.00, 
1695.00, 
1696.00, 
1697.00, 
1698.00, 
1699.00, 
1700.00, 
1701.00, 
1702.00, 
1703.00, 
1704.00, 
1705.00, 
1706.00, 
1707.00, 
1708.00, 
1709.00, 
1710.00, 
1711.00, 
1712.00, 
1713.00, 
1714.00, 
1715.00, 
1716.00, 
1717.00, 
1718.00, 
1719.00, 
1720.00, 
1721.00, 
1722.00, 
1723.00, 
1724.00, 
1725.00, 
1726.00, 
1727.00, 
1728.00, 
1729.00, 
1730.00, 
1731.00, 
1732.00, 
1733.00, 
1734.00, 
1735.00, 
1736.00, 
1737.00, 
1738.00, 
1739.00, 
1740.00, 
1741.00, 
1742.00, 
1743.00, 
1744.00, 
1745.00, 
1746.00, 
1747.00, 
1748.00, 
1749.00, 
1750.00, 
1751.00, 
1752.00, 
1753.00, 
1754.00, 
1755.00, 
1756.00, 
1757.00, 
1758.00, 
1759.00, 
1760.00, 
1761.00, 
1762.00, 
1763.00, 
1764.00, 
1765.00, 
1766.00, 
1767.00, 
1768.00, 
1769.00, 
1770.00, 
1771.00, 
1772.00, 
1773.00, 
1774.00, 
1775.00, 
1776.00, 
1777.00, 
1778.00, 
1779.00, 
1780.00, 
1781.00, 
1782.00, 
1783.00, 
1784.00, 
1785.00, 
1786.00, 
1787.00, 
1788.00, 
1789.00, 
1790.00, 
1791.00, 
1792.00, 
1793.00, 
1794.00, 
1795.00, 
1796.00, 
1797.00, 
1798.00, 
1799.00, 
1800.00, 
1801.00, 
1802.00, 
1803.00, 
1804.00, 
1805.00, 
1806.00, 
1807.00, 
1808.00, 
1809.00, 
1810.00, 
1811.00, 
1812.00, 
1813.00, 
1814.00, 
1815.00, 
1816.00, 
1817.00, 
1818.00, 
1819.00, 
1820.00, 
1821.00, 
1822.00, 
1823.00, 
1824.00, 
1825.00, 
1826.00, 
1827.00, 
1828.00, 
1829.00, 
1830.00, 
1831.00, 
1832.00, 
1833.00, 
1834.00, 
1835.00, 
1836.00, 
1837.00, 
1838.00, 
1839.00, 
1840.00, 
1841.00, 
1842.00, 
1843.00, 
1844.00, 
1845.00, 
1846.00, 
1847.00, 
1848.00, 
1849.00, 
1850.00, 
1851.00, 
1852.00, 
1853.00, 
1854.00, 
1855.00, 
1856.00, 
1857.00, 
1858.00, 
1859.00, 
1860.00, 
1861.00, 
1862.00, 
1863.00, 
1864.00, 
1865.00, 
1866.00, 
1867.00, 
1868.00, 
1869.00, 
1870.00, 
1871.00, 
1872.00, 
1873.00, 
1874.00, 
1875.00, 
1876.00, 
1877.00, 
1878.00, 
1879.00, 
1880.00, 
1881.00, 
1882.00, 
1883.00, 
1884.00, 
1885.00, 
1886.00, 
1887.00, 
1888.00, 
1889.00, 
1890.00, 
1891.00, 
1892.00, 
1893.00, 
1894.00, 
1895.00, 
1896.00, 
1897.00, 
1898.00, 
1899.00, 
1900.00, 
1901.00, 
1902.00, 
1903.00, 
1904.00, 
1905.00, 
1906.00, 
1907.00, 
1908.00, 
1909.00, 
1910.00, 
1911.00, 
1912.00, 
1913.00, 
1914.00, 
1915.00, 
1916.00, 
1917.00, 
1918.00, 
1919.00, 
1920.00, 
1921.00, 
1922.00, 
1923.00, 
1924.00, 
1925.00, 
1926.00, 
1927.00, 
1928.00, 
1929.00, 
1930.00, 
1931.00, 
1932.00, 
1933.00, 
1934.00, 
1935.00, 
1936.00, 
1937.00, 
1938.00, 
1939.00, 
1940.00, 
1941.00, 
1942.00, 
1943.00, 
1944.00, 
1945.00, 
1946.00, 
1947.00, 
1948.00, 
1949.00, 
1950.00, 
1951.00, 
1952.00, 
1953.00, 
1954.00, 
1955.00, 
1956.00, 
1957.00, 
1958.00, 
1959.00, 
1960.00, 
1961.00, 
1962.00, 
1963.00, 
1964.00, 
1965.00, 
1966.00, 
1967.00, 
1968.00, 
1969.00, 
1970.00, 
1971.00, 
1972.00, 
1973.00, 
1974.00, 
1975.00, 
1976.00, 
1977.00, 
1978.00, 
1979.00, 
1980.00, 
1981.00, 
1982.00, 
1983.00, 
1984.00, 
1985.00, 
1986.00, 
1987.00, 
1988.00, 
1989.00, 
1990.00, 
1991.00, 
1992.00, 
1993.00, 
1994.00, 
1995.00, 
1996.00, 
1997.00, 
1998.00, 
1999.00, 
2000.00, 
2001.00, 
2002.00, 
2003.00, 
2004.00, 
2005.00, 
2006.00, 
2007.00, 
2008.00, 
2009.00, 
2010.00, 
2011.00, 
2012.00, 
2013.00, 
2014.00, 
2015.00, 
2016.00, 
2017.00, 
2018.00, 
2019.00, 
2020.00, 
2021.00, 
2022.00, 
2023.00, 
2024.00, 
2025.00, 
2026.00, 
2027.00, 
2028.00, 
2029.00, 
2030.00, 
2031.00, 
2032.00, 
2033.00, 
2034.00, 
2035.00, 
2036.00, 
2037.00, 
2038.00, 
2039.00, 
2040.00, 
2041.00, 
2042.00, 
2043.00, 
2044.00, 
2045.00, 
2046.00, 
2047.00, 
2048.00, 
2049.00, 
2050.00, 
2051.00, 
2052.00, 
2053.00, 
2054.00, 
2055.00, 
2056.00, 
2057.00, 
2058.00, 
2059.00, 
2060.00, 
2061.00, 
2062.00, 
2063.00, 
2064.00, 
2065.00, 
2066.00, 
2067.00, 
2068.00, 
2069.00, 
2070.00, 
2071.00, 
2072.00, 
2073.00, 
2074.00, 
2075.00, 
2076.00, 
2077.00, 
2078.00, 
2079.00, 
2080.00, 
2081.00, 
2082.00, 
2083.00, 
2084.00, 
2085.00, 
2086.00, 
2087.00, 
2088.00, 
2089.00, 
2090.00, 
2091.00, 
2092.00, 
2093.00, 
2094.00, 
2095.00, 
2096.00, 
2097.00, 
2098.00, 
2099.00, 
2100.00, 
2101.00, 
2102.00, 
2103.00, 
2104.00, 
2105.00, 
2106.00, 
2107.00, 
2108.00, 
2109.00, 
2110.00, 
2111.00, 
2112.00, 
2113.00, 
2114.00, 
2115.00, 
2116.00, 
2117.00, 
2118.00, 
2119.00, 
2120.00, 
2121.00, 
2122.00, 
2123.00, 
2124.00, 
2125.00, 
2126.00, 
2127.00, 
2128.00, 
2129.00, 
2130.00, 
2131.00, 
2132.00, 
2133.00, 
2134.00, 
2135.00, 
2136.00, 
2137.00, 
2138.00, 
2139.00, 
2140.00, 
2141.00, 
2142.00, 
2143.00, 
2144.00, 
2145.00, 
2146.00, 
2147.00, 
2148.00, 
2149.00, 
2150.00, 
2151.00, 
2152.00, 
2153.00, 
2154.00, 
2155.00, 
2156.00, 
2157.00, 
2158.00, 
2159.00, 
2160.00, 
2161.00, 
2162.00, 
2163.00, 
2164.00, 
2165.00, 
2166.00, 
2167.00, 
2168.00, 
2169.00, 
2170.00, 
2171.00, 
2172.00, 
2173.00, 
2174.00, 
2175.00, 
2176.00, 
2177.00, 
2178.00, 
2179.00, 
2180.00, 
2181.00, 
2182.00, 
2183.00, 
2184.00, 
2185.00, 
2186.00, 
2187.00, 
2188.00, 
2189.00, 
2190.00, 
2191.00, 
2192.00, 
2193.00, 
2194.00, 
2195.00, 
2196.00, 
2197.00, 
2198.00, 
2199.00, 
2200.00, 
2201.00, 
2202.00, 
2203.00, 
2204.00, 
2205.00, 
2206.00, 
2207.00, 
2208.00, 
2209.00, 
2210.00, 
2211.00, 
2212.00, 
2213.00, 
2214.00, 
2215.00, 
2216.00, 
2217.00, 
2218.00, 
2219.00, 
2220.00, 
2221.00, 
2222.00, 
2223.00, 
2224.00, 
2225.00, 
2226.00, 
2227.00, 
2228.00, 
2229.00, 
2230.00, 
2231.00, 
2232.00, 
2233.00, 
2234.00, 
2235.00, 
2236.00, 
2237.00, 
2238.00, 
2239.00, 
2240.00, 
2241.00, 
2242.00, 
2243.00, 
2244.00, 
2245.00, 
2246.00, 
2247.00, 
2248.00, 
2249.00, 
2250.00, 
2251.00, 
2252.00, 
2253.00, 
2254.00, 
2255.00, 
2256.00, 
2257.00, 
2258.00, 
2259.00, 
2260.00, 
2261.00, 
2262.00, 
2263.00, 
2264.00, 
2265.00, 
2266.00, 
2267.00, 
2268.00, 
2269.00, 
2270.00, 
2271.00, 
2272.00, 
2273.00, 
2274.00, 
2275.00, 
2276.00, 
2277.00, 
2278.00, 
2279.00, 
2280.00, 
2281.00, 
2282.00, 
2283.00, 
2284.00, 
2285.00, 
2286.00, 
2287.00, 
2288.00, 
2289.00, 
2290.00, 
2291.00, 
2292.00, 
2293.00, 
2294.00, 
2295.00, 
2296.00, 
2297.00, 
2298.00, 
2299.00, 
2300.00, 
2301.00, 
2302.00, 
2303.00, 
2304.00, 
2305.00, 
2306.00, 
2307.00, 
2308.00, 
2309.00, 
2310.00, 
2311.00, 
2312.00, 
2313.00, 
2314.00, 
2315.00, 
2316.00, 
2317.00, 
2318.00, 
2319.00, 
2320.00, 
2321.00, 
2322.00, 
2323.00, 
2324.00, 
2325.00, 
2326.00, 
2327.00, 
2328.00, 
2329.00, 
2330.00, 
2331.00, 
2332.00, 
2333.00, 
2334.00, 
2335.00, 
2336.00, 
2337.00, 
2338.00, 
2339.00, 
2340.00, 
2341.00, 
2342.00, 
2343.00, 
2344.00, 
2345.00, 
2346.00, 
2347.00, 
2348.00, 
2349.00, 
2350.00, 
2351.00, 
2352.00, 
2353.00, 
2354.00, 
2355.00, 
2356.00, 
2357.00, 
2358.00, 
2359.00, 
2360.00, 
2361.00, 
2362.00, 
2363.00, 
2364.00, 
2365.00, 
2366.00, 
2367.00, 
2368.00, 
2369.00, 
2370.00, 
2371.00, 
2372.00, 
2373.00, 
2374.00, 
2375.00, 
2376.00, 
2377.00, 
2378.00, 
2379.00, 
2380.00, 
2381.00, 
2382.00, 
2383.00, 
2384.00, 
2385.00, 
2386.00, 
2387.00, 
2388.00, 
2389.00, 
2390.00, 
2391.00, 
2392.00, 
2393.00, 
2394.00, 
2395.00, 
2396.00, 
2397.00, 
2398.00, 
2399.00, 
2400.00, 
2401.00, 
2402.00, 
2403.00, 
2404.00, 
2405.00, 
2406.00, 
2407.00, 
2408.00, 
2409.00, 
2410.00, 
2411.00, 
2412.00, 
2413.00, 
2414.00, 
2415.00, 
2416.00, 
2417.00, 
2418.00, 
2419.00, 
2420.00, 
2421.00, 
2422.00, 
2423.00, 
2424.00, 
2425.00, 
2426.00, 
2427.00, 
2428.00, 
2429.00, 
2430.00, 
2431.00, 
2432.00, 
2433.00, 
2434.00, 
2435.00, 
2436.00, 
2437.00, 
2438.00, 
2439.00, 
2440.00, 
2441.00, 
2442.00, 
2443.00, 
2444.00, 
2445.00, 
2446.00, 
2447.00, 
2448.00, 
2449.00, 
2450.00, 
2451.00, 
2452.00, 
2453.00, 
2454.00, 
2455.00, 
2456.00, 
2457.00, 
2458.00, 
2459.00, 
2460.00, 
2461.00, 
2462.00, 
2463.00, 
2464.00, 
2465.00, 
2466.00, 
2467.00, 
2468.00, 
2469.00, 
2470.00, 
2471.00, 
2472.00, 
2473.00, 
2474.00, 
2475.00, 
2476.00, 
2477.00, 
2478.00, 
2479.00, 
2480.00, 
2481.00, 
2482.00, 
2483.00, 
2484.00, 
2485.00, 
2486.00, 
2487.00, 
2488.00, 
2489.00, 
2490.00, 
2491.00, 
2492.00, 
2493.00, 
2494.00, 
2495.00, 
2496.00, 
2497.00, 
2498.00, 
2499.00, 
2500.00, 
2501.00, 
2502.00, 
2503.00, 
2504.00, 
2505.00, 
2506.00, 
2507.00, 
2508.00, 
2509.00, 
2510.00, 
2511.00, 
2512.00, 
2513.00, 
2514.00, 
2515.00, 
2516.00, 
2517.00, 
2518.00, 
2519.00, 
2520.00, 
2521.00, 
2522.00, 
2523.00, 
2524.00, 
2525.00, 
2526.00, 
2527.00, 
2528.00, 
2529.00, 
2530.00, 
2531.00, 
2532.00, 
2533.00, 
2534.00, 
2535.00, 
2536.00, 
2537.00, 
2538.00, 
2539.00, 
2540.00, 
2541.00, 
2542.00, 
2543.00, 
2544.00, 
2545.00, 
2546.00, 
2547.00, 
2548.00, 
2549.00, 
2550.00, 
2551.00, 
2552.00, 
2553.00, 
2554.00, 
2555.00, 
2556.00, 
2557.00, 
2558.00, 
2559.00, 
2560.00, 
2561.00, 
2562.00, 
2563.00, 
2564.00, 
2565.00, 
2566.00, 
2567.00, 
2568.00, 
2569.00, 
2570.00, 
2571.00, 
2572.00, 
2573.00, 
2574.00, 
2575.00, 
2576.00, 
2577.00, 
2578.00, 
2579.00, 
2580.00, 
2581.00, 
2582.00, 
2583.00, 
2584.00, 
2585.00, 
2586.00, 
2587.00, 
2588.00, 
2589.00, 
2590.00, 
2591.00, 
2592.00, 
2593.00, 
2594.00, 
2595.00, 
2596.00, 
2597.00, 
2598.00, 
2599.00, 
2600.00, 
