"1bP2 - RawData"
"Wavelength nm.","T%"
200.00,0.002
201.00,0.001
202.00,-0.001
203.00,-0.001
204.00,0.002
205.00,0.000
206.00,0.001
207.00,-0.003
208.00,-0.000
209.00,-0.001
210.00,-0.000
211.00,0.001
212.00,0.002
213.00,0.000
214.00,0.001
215.00,0.000
216.00,-0.001
217.00,-0.001
218.00,-0.001
219.00,0.001
220.00,0.004
221.00,-0.001
222.00,0.001
223.00,0.000
224.00,-0.001
225.00,0.000
226.00,0.002
227.00,0.001
228.00,0.001
229.00,0.000
230.00,-0.001
231.00,-0.002
232.00,0.000
233.00,0.001
234.00,-0.001
235.00,-0.002
236.00,0.000
237.00,-0.001
238.00,0.001
239.00,-0.000
240.00,-0.001
241.00,0.001
242.00,-0.000
243.00,0.001
244.00,-0.000
245.00,-0.000
246.00,0.001
247.00,0.001
248.00,-0.000
249.00,-0.001
250.00,0.001
251.00,-0.000
252.00,-0.001
253.00,-0.001
254.00,-0.000
255.00,-0.001
256.00,-0.000
257.00,-0.002
258.00,-0.000
259.00,0.001
260.00,0.000
261.00,-0.001
262.00,0.000
263.00,-0.000
264.00,0.000
265.00,0.001
266.00,0.001
267.00,0.000
268.00,-0.000
269.00,0.001
270.00,0.000
271.00,-0.001
272.00,-0.000
273.00,-0.000
274.00,-0.001
275.00,0.001
276.00,0.002
277.00,-0.000
278.00,-0.000
279.00,0.001
280.00,-0.001
281.00,-0.000
282.00,0.000
283.00,0.000
284.00,0.001
285.00,0.001
286.00,0.000
287.00,-0.001
288.00,0.000
289.00,0.001
290.00,0.001
291.00,0.000
292.00,-0.002
293.00,0.000
294.00,-0.001
295.00,0.000
296.00,0.001
297.00,-0.000
298.00,0.001
299.00,0.002
300.00,0.003
301.00,0.003
302.00,0.004
303.00,0.008
304.00,0.009
305.00,0.020
306.00,0.029
307.00,0.041
308.00,0.063
309.00,0.093
310.00,0.125
311.00,0.175
312.00,0.230
313.00,0.309
314.00,0.409
315.00,0.530
316.00,0.652
317.00,0.790
318.00,0.964
319.00,1.168
320.00,1.407
321.00,1.652
322.00,1.940
323.00,2.263
324.00,2.589
325.00,2.916
326.00,3.244
327.00,3.627
328.00,4.004
329.00,4.387
330.00,4.781
331.00,5.202
332.00,5.579
333.00,5.994
334.00,6.369
335.00,6.762
336.00,7.159
337.00,7.515
338.00,7.876
339.00,8.196
340.00,8.552
341.00,8.873
342.00,9.130
343.00,9.484
344.00,9.689
345.00,9.956
346.00,10.186
347.00,10.336
348.00,10.585
349.00,10.769
350.00,10.928
351.00,11.115
352.00,11.249
353.00,11.401
354.00,11.488
355.00,11.614
356.00,11.750
357.00,11.818
358.00,11.879
359.00,11.943
360.00,11.970
361.00,12.031
362.00,12.026
363.00,12.016
364.00,12.036
365.00,12.077
366.00,12.051
367.00,12.058
368.00,12.074
369.00,12.062
370.00,12.046
371.00,12.075
372.00,12.036
373.00,12.019
374.00,11.910
375.00,11.871
376.00,11.815
377.00,11.735
378.00,11.694
379.00,11.589
380.00,11.589
381.00,11.560
382.00,11.495
383.00,11.513
384.00,11.478
385.00,11.464
386.00,11.428
387.00,11.388
388.00,11.442
389.00,11.400
390.00,11.392
391.00,11.364
392.00,11.362
393.00,11.333
394.00,11.298
395.00,11.295
396.00,11.246
397.00,11.225
398.00,11.195
399.00,11.182
400.00,11.169
401.00,11.169
402.00,11.120
403.00,11.130
404.00,11.094
405.00,11.051
406.00,11.027
407.00,10.989
408.00,10.978
409.00,10.990
410.00,10.988
411.00,10.953
412.00,10.937
413.00,10.981
414.00,11.017
415.00,11.016
416.00,10.989
417.00,10.942
418.00,10.923
419.00,10.940
420.00,10.947
421.00,10.956
422.00,10.987
423.00,10.987
424.00,10.991
425.00,11.028
426.00,11.033
427.00,11.009
428.00,11.088
429.00,11.117
430.00,11.145
431.00,11.191
432.00,11.196
433.00,11.260
434.00,11.265
435.00,11.332
436.00,11.398
437.00,11.427
438.00,11.490
439.00,11.530
440.00,11.598
441.00,11.661
442.00,11.694
443.00,11.770
444.00,11.850
445.00,11.906
446.00,12.001
447.00,12.060
448.00,12.136
449.00,12.224
450.00,12.313
451.00,12.424
452.00,12.507
453.00,12.563
454.00,12.666
455.00,12.756
456.00,12.827
457.00,12.938
458.00,12.997
459.00,13.111
460.00,13.186
461.00,13.291
462.00,13.378
463.00,13.460
464.00,13.574
465.00,13.661
466.00,13.772
467.00,13.960
468.00,14.138
469.00,14.233
470.00,14.223
471.00,14.397
472.00,14.509
473.00,14.650
474.00,14.787
475.00,14.994
476.00,15.124
477.00,15.247
478.00,15.320
479.00,15.513
480.00,15.666
481.00,15.786
482.00,15.938
483.00,16.019
484.00,16.129
485.00,16.455
486.00,16.519
487.00,16.751
488.00,16.761
489.00,17.003
490.00,17.094
491.00,17.267
492.00,17.486
493.00,17.601
494.00,17.649
495.00,17.896
496.00,17.916
497.00,18.067
498.00,18.129
499.00,18.267
500.00,18.490
501.00,18.654
502.00,18.747
503.00,18.931
504.00,19.074
505.00,19.197
506.00,19.371
507.00,19.471
508.00,19.554
509.00,19.711
510.00,19.858
511.00,20.075
512.00,20.293
513.00,20.402
514.00,20.443
515.00,20.555
516.00,20.693
517.00,20.794
518.00,20.928
519.00,21.024
520.00,21.147
521.00,21.271
522.00,21.410
523.00,21.591
524.00,21.664
525.00,21.811
526.00,21.876
527.00,21.982
528.00,22.032
529.00,22.184
530.00,22.241
531.00,22.367
532.00,22.276
533.00,22.435
534.00,22.592
535.00,22.713
536.00,22.814
537.00,22.899
538.00,23.061
539.00,23.124
540.00,23.265
541.00,23.363
542.00,23.346
543.00,23.460
544.00,23.628
545.00,23.763
546.00,23.851
547.00,23.945
548.00,24.007
549.00,24.078
550.00,24.174
551.00,24.182
552.00,24.304
553.00,24.300
554.00,24.316
555.00,24.408
556.00,24.450
557.00,24.613
558.00,24.695
559.00,24.803
560.00,24.836
561.00,24.880
562.00,24.949
563.00,25.004
564.00,25.121
565.00,25.173
566.00,25.213
567.00,25.328
568.00,25.377
569.00,25.428
570.00,25.434
571.00,25.470
572.00,25.575
573.00,25.512
574.00,25.591
575.00,25.626
576.00,25.655
577.00,25.798
578.00,25.899
579.00,25.964
580.00,25.980
581.00,26.054
582.00,26.187
583.00,26.248
584.00,26.382
585.00,26.420
586.00,26.430
587.00,26.582
588.00,26.656
589.00,26.698
590.00,26.775
591.00,26.839
592.00,26.845
593.00,26.932
594.00,27.014
595.00,27.079
596.00,27.166
597.00,27.145
598.00,27.218
599.00,27.159
600.00,27.144
601.00,27.289
602.00,27.164
603.00,27.365
604.00,27.485
605.00,27.503
606.00,27.626
607.00,27.714
608.00,27.729
609.00,27.937
610.00,27.933
611.00,27.867
612.00,28.008
613.00,28.022
614.00,28.200
615.00,28.179
616.00,28.232
617.00,28.239
618.00,28.234
619.00,28.319
620.00,28.396
621.00,28.477
622.00,28.592
623.00,28.670
624.00,28.780
625.00,28.869
626.00,28.959
627.00,29.127
628.00,29.095
629.00,29.164
630.00,29.345
631.00,29.434
632.00,29.546
633.00,29.669
634.00,29.751
635.00,29.766
636.00,29.890
637.00,29.939
638.00,30.003
639.00,30.084
640.00,30.258
641.00,30.396
642.00,30.544
643.00,30.628
644.00,30.697
645.00,30.692
646.00,30.844
647.00,31.083
648.00,31.191
649.00,31.376
650.00,31.477
651.00,31.562
652.00,31.507
653.00,31.758
654.00,31.895
655.00,32.143
656.00,32.107
657.00,32.340
658.00,33.079
659.00,32.815
660.00,32.574
661.00,32.814
662.00,32.983
663.00,33.178
664.00,33.235
665.00,33.089
666.00,33.448
667.00,33.847
668.00,34.191
669.00,33.722
670.00,34.049
671.00,33.828
672.00,34.227
673.00,34.337
674.00,34.251
675.00,34.635
676.00,34.747
677.00,34.839
678.00,35.277
679.00,35.265
680.00,35.591
681.00,35.954
682.00,36.359
683.00,36.224
684.00,36.136
685.00,36.253
686.00,36.212
687.00,36.404
688.00,36.590
689.00,36.838
690.00,36.721
691.00,37.227
692.00,37.196
693.00,37.166
694.00,37.599
695.00,37.581
696.00,37.821
697.00,37.963
698.00,38.192
699.00,38.033
700.00,38.168
701.00,38.434
702.00,38.797
703.00,39.107
704.00,39.378
705.00,39.279
706.00,39.137
707.00,39.225
708.00,39.191
709.00,39.419
710.00,39.359
711.00,39.565
712.00,40.267
713.00,40.228
714.00,40.105
715.00,40.600
716.00,40.813
717.00,40.722
718.00,40.830
719.00,41.287
720.00,41.666
721.00,45.420
722.00,45.511
723.00,45.561
724.00,45.646
725.00,45.795
726.00,45.869
727.00,45.959
728.00,46.087
729.00,46.138
730.00,46.354
731.00,46.370
732.00,46.489
733.00,46.621
734.00,46.768
735.00,46.801
736.00,46.924
737.00,47.004
738.00,47.175
739.00,47.231
740.00,47.317
741.00,47.494
742.00,47.561
743.00,47.656
744.00,47.623
745.00,47.691
746.00,47.789
747.00,47.851
748.00,47.877
749.00,47.942
750.00,48.130
751.00,48.130
752.00,48.210
753.00,48.194
754.00,48.257
755.00,48.317
756.00,48.366
757.00,48.418
758.00,48.457
759.00,48.569
760.00,48.577
761.00,48.758
762.00,48.756
763.00,48.889
764.00,48.933
765.00,48.996
766.00,49.046
767.00,49.088
768.00,49.129
769.00,49.098
770.00,49.265
771.00,49.238
772.00,49.413
773.00,49.432
774.00,49.476
775.00,49.586
776.00,49.542
777.00,49.619
778.00,49.641
779.00,49.799
780.00,49.773
781.00,49.841
782.00,49.841
783.00,49.899
784.00,49.922
785.00,49.880
786.00,49.994
787.00,49.926
788.00,50.021
789.00,50.037
790.00,50.076
791.00,50.194
792.00,50.063
793.00,50.209
794.00,50.183
795.00,50.240
796.00,50.346
797.00,50.190
798.00,50.273
799.00,50.169
800.00,50.223
801.00,50.187
802.00,50.103
803.00,50.238
804.00,50.255
805.00,50.283
806.00,50.237
807.00,50.292
808.00,50.335
809.00,50.292
810.00,50.369
811.00,50.299
812.00,50.452
813.00,50.379
814.00,50.442
815.00,50.520
816.00,50.419
817.00,50.525
818.00,50.369
819.00,50.443
820.00,50.538
821.00,50.360
822.00,50.500
823.00,50.468
824.00,50.712
825.00,50.399
826.00,50.378
827.00,50.523
828.00,50.356
829.00,50.523
830.00,50.405
831.00,53.216
832.00,53.227
833.00,53.228
834.00,53.198
835.00,53.252
836.00,53.216
837.00,53.259
838.00,53.253
839.00,53.240
840.00,53.297
841.00,53.282
842.00,53.309
843.00,53.257
844.00,53.275
845.00,53.179
846.00,53.191
847.00,53.150
848.00,53.250
849.00,53.300
850.00,53.253
851.00,53.269
852.00,53.178
853.00,53.257
854.00,53.196
855.00,53.209
856.00,53.119
857.00,53.134
858.00,53.208
859.00,53.191
860.00,53.217
861.00,53.165
862.00,53.197
863.00,53.115
864.00,53.265
865.00,53.132
866.00,53.159
867.00,53.118
868.00,53.225
869.00,53.161
870.00,53.134
871.00,53.164
872.00,53.165
873.00,53.151
874.00,53.030
875.00,53.134
876.00,53.083
877.00,53.226
878.00,53.131
879.00,53.197
880.00,53.167
881.00,53.179
882.00,53.061
883.00,53.186
884.00,53.131
885.00,53.106
886.00,53.047
887.00,53.096
888.00,53.130
889.00,53.088
890.00,52.962
891.00,53.004
892.00,53.063
893.00,53.033
894.00,52.951
895.00,53.000
896.00,53.064
897.00,53.017
898.00,52.924
899.00,52.877
900.00,52.896
901.00,52.843
902.00,52.803
903.00,52.946
904.00,53.020
905.00,52.932
906.00,52.820
907.00,52.854
908.00,52.960
909.00,52.884
910.00,52.797
911.00,52.718
912.00,52.775
913.00,52.717
914.00,52.748
915.00,52.882
916.00,53.007
917.00,52.804
918.00,52.860
919.00,52.836
920.00,52.937
921.00,52.777
922.00,52.673
923.00,52.735
924.00,52.884
925.00,52.704
926.00,52.598
927.00,52.656
928.00,52.803
929.00,52.661
930.00,52.583
931.00,52.590
932.00,52.698
933.00,52.567
934.00,52.566
935.00,52.625
936.00,52.673
937.00,52.527
938.00,52.435
939.00,52.520
940.00,52.616
941.00,52.476
942.00,52.397
943.00,52.456
944.00,52.544
945.00,52.461
946.00,52.379
947.00,52.381
948.00,52.438
949.00,52.368
950.00,52.296
951.00,52.364
952.00,52.364
953.00,52.339
954.00,52.214
955.00,52.238
956.00,52.230
957.00,52.196
958.00,52.142
959.00,52.120
960.00,52.132
961.00,52.144
962.00,52.111
963.00,52.106
964.00,52.128
965.00,52.082
966.00,52.093
967.00,52.067
968.00,52.104
969.00,52.024
970.00,52.035
971.00,52.067
972.00,52.075
973.00,52.068
974.00,52.071
975.00,52.104
976.00,52.042
977.00,52.070
978.00,52.086
979.00,52.099
980.00,52.096
981.00,52.081
982.00,52.073
983.00,52.013
984.00,52.076
985.00,52.029
986.00,52.070
987.00,52.060
988.00,52.040
989.00,52.005
990.00,51.989
991.00,52.019
992.00,51.998
993.00,51.980
994.00,51.984
995.00,51.947
996.00,51.970
997.00,51.941
998.00,51.966
999.00,51.946
1000.00,51.944
1001.00,51.928
1002.00,51.903
1003.00,51.931
1004.00,51.877
1005.00,51.888
1006.00,51.880
1007.00,51.901
1008.00,51.868
1009.00,51.881
1010.00,51.849
1011.00,51.813
1012.00,51.826
1013.00,51.811
1014.00,51.828
1015.00,51.789
1016.00,51.752
1017.00,51.766
1018.00,51.751
1019.00,51.764
1020.00,51.720
1021.00,51.748
1022.00,51.715
1023.00,51.688
1024.00,51.659
1025.00,51.671
1026.00,51.688
1027.00,51.628
1028.00,51.632
1029.00,51.621
1030.00,51.636
1031.00,51.604
1032.00,51.541
1033.00,51.543
1034.00,51.545
1035.00,51.516
1036.00,51.462
1037.00,51.460
1038.00,51.441
1039.00,51.420
1040.00,51.380
1041.00,51.356
1042.00,51.364
1043.00,51.346
1044.00,51.402
1045.00,51.360
1046.00,51.348
1047.00,51.361
1048.00,51.403
1049.00,51.406
1050.00,51.438
1051.00,51.429
1052.00,51.480
1053.00,51.471
1054.00,51.511
1055.00,51.516
1056.00,51.487
1057.00,51.519
1058.00,51.491
1059.00,51.480
1060.00,51.464
1061.00,51.489
1062.00,51.480
1063.00,51.473
1064.00,51.453
1065.00,51.483
1066.00,51.449
1067.00,51.461
1068.00,51.434
1069.00,51.450
1070.00,51.420
1071.00,51.396
1072.00,51.408
1073.00,51.402
1074.00,51.382
1075.00,51.372
1076.00,51.378
1077.00,51.379
1078.00,51.363
1079.00,51.342
1080.00,51.349
1081.00,51.343
1082.00,51.354
1083.00,51.336
1084.00,51.355
1085.00,51.343
1086.00,51.317
1087.00,51.297
1088.00,51.310
1089.00,51.299
1090.00,51.320
1091.00,51.294
1092.00,51.300
1093.00,51.259
1094.00,51.277
1095.00,51.254
1096.00,51.254
1097.00,51.243
1098.00,51.234
1099.00,51.197
1100.00,51.207
1101.00,51.197
1102.00,51.198
1103.00,51.181
1104.00,51.194
1105.00,51.172
1106.00,51.168
1107.00,51.148
1108.00,51.157
1109.00,51.147
1110.00,51.153
1111.00,51.119
1112.00,51.112
1113.00,51.111
1114.00,51.114
1115.00,51.105
1116.00,51.120
1117.00,51.073
1118.00,51.068
1119.00,51.048
1120.00,51.064
1121.00,51.081
1122.00,51.077
1123.00,51.019
1124.00,51.017
1125.00,51.003
1126.00,51.021
1127.00,51.040
1128.00,51.041
1129.00,50.994
1130.00,51.018
1131.00,51.014
1132.00,50.981
1133.00,51.041
1134.00,51.012
1135.00,50.913
1136.00,50.986
1137.00,50.994
1138.00,50.991
1139.00,50.987
1140.00,50.966
1141.00,50.930
1142.00,50.973
1143.00,50.998
1144.00,50.990
1145.00,50.972
1146.00,50.941
1147.00,50.893
1148.00,50.918
1149.00,50.950
1150.00,50.962
1151.00,50.969
1152.00,50.949
1153.00,50.933
1154.00,50.926
1155.00,50.933
1156.00,50.949
1157.00,50.933
1158.00,50.910
1159.00,50.907
1160.00,50.911
1161.00,50.926
1162.00,50.911
1163.00,50.920
1164.00,50.902
1165.00,50.895
1166.00,50.890
1167.00,50.906
1168.00,50.907
1169.00,50.899
1170.00,50.894
1171.00,50.890
1172.00,50.878
1173.00,50.876
1174.00,50.900
1175.00,50.874
1176.00,50.899
1177.00,50.890
1178.00,50.858
1179.00,50.879
1180.00,50.889
1181.00,50.910
1182.00,50.906
1183.00,50.889
1184.00,50.872
1185.00,50.889
1186.00,50.887
1187.00,50.887
1188.00,50.880
1189.00,50.890
1190.00,50.854
1191.00,50.899
1192.00,50.912
1193.00,50.903
1194.00,50.891
1195.00,50.857
1196.00,50.875
1197.00,50.894
1198.00,50.908
1199.00,50.885
1200.00,50.886
1201.00,50.867
1202.00,50.863
1203.00,50.868
1204.00,50.887
1205.00,50.901
1206.00,50.882
1207.00,50.893
1208.00,50.858
1209.00,50.894
1210.00,50.898
1211.00,50.889
1212.00,50.885
1213.00,50.857
1214.00,50.880
1215.00,50.873
1216.00,50.879
1217.00,50.867
1218.00,50.872
1219.00,50.867
1220.00,50.879
1221.00,50.891
1222.00,50.897
1223.00,50.920
1224.00,50.871
1225.00,50.863
1226.00,50.860
1227.00,50.866
1228.00,50.856
1229.00,50.872
1230.00,50.913
1231.00,50.903
1232.00,50.917
1233.00,50.920
1234.00,50.927
1235.00,50.921
1236.00,50.928
1237.00,50.938
1238.00,50.964
1239.00,50.935
1240.00,50.930
1241.00,50.940
1242.00,50.935
1243.00,50.941
1244.00,50.914
1245.00,50.940
1246.00,50.961
1247.00,50.975
1248.00,50.957
1249.00,50.952
1250.00,50.935
1251.00,50.955
1252.00,50.957
1253.00,50.957
1254.00,50.991
1255.00,50.942
1256.00,50.907
1257.00,50.939
1258.00,51.011
1259.00,51.026
1260.00,51.016
1261.00,51.001
1262.00,51.013
1263.00,51.013
1264.00,51.021
1265.00,51.026
1266.00,51.029
1267.00,51.027
1268.00,51.018
1269.00,51.018
1270.00,51.073
1271.00,51.057
1272.00,51.059
1273.00,51.075
1274.00,51.075
1275.00,51.079
1276.00,51.079
1277.00,51.083
1278.00,51.107
1279.00,51.097
1280.00,51.074
1281.00,51.073
1282.00,51.076
1283.00,51.048
1284.00,51.026
1285.00,51.032
1286.00,51.077
1287.00,51.075
1288.00,51.073
1289.00,51.079
1290.00,51.140
1291.00,51.129
1292.00,51.129
1293.00,51.125
1294.00,51.125
1295.00,51.150
1296.00,51.150
1297.00,51.145
1298.00,51.157
1299.00,51.129
1300.00,51.166
1301.00,51.173
1302.00,51.226
1303.00,51.206
1304.00,51.176
1305.00,51.204
1306.00,51.187
1307.00,51.177
1308.00,51.160
1309.00,51.209
1310.00,51.249
1311.00,51.181
1312.00,51.170
1313.00,51.205
1314.00,51.259
1315.00,51.273
1316.00,51.258
1317.00,51.286
1318.00,51.291
1319.00,51.291
1320.00,51.320
1321.00,51.390
1322.00,51.429
1323.00,51.388
1324.00,51.366
1325.00,51.411
1326.00,51.480
1327.00,51.392
1328.00,51.370
1329.00,51.393
1330.00,51.428
1331.00,51.396
1332.00,51.353
1333.00,51.401
1334.00,51.463
1335.00,51.436
1336.00,51.420
1337.00,51.448
1338.00,51.590
1339.00,51.645
1340.00,51.696
1341.00,51.743
1342.00,51.834
1343.00,51.915
1344.00,51.971
1345.00,52.017
1346.00,52.013
1347.00,52.059
1348.00,52.107
1349.00,52.112
1350.00,52.058
1351.00,51.977
1352.00,51.890
1353.00,52.072
1354.00,52.243
1355.00,52.128
1356.00,52.200
1357.00,52.187
1358.00,52.098
1359.00,51.611
1360.00,51.336
1361.00,51.606
1362.00,51.726
1363.00,52.685
1364.00,52.978
1365.00,52.580
1366.00,52.139
1367.00,52.108
1368.00,52.125
1369.00,52.288
1370.00,52.263
1371.00,52.198
1372.00,52.317
1373.00,52.284
1374.00,52.098
1375.00,52.073
1376.00,52.065
1377.00,52.035
1378.00,52.140
1379.00,52.022
1380.00,51.923
1381.00,52.182
1382.00,52.345
1383.00,52.358
1384.00,52.461
1385.00,52.162
1386.00,52.069
1387.00,52.182
1388.00,52.427
1389.00,52.243
1390.00,51.874
1391.00,52.156
1392.00,52.268
1393.00,52.556
1394.00,52.178
1395.00,52.268
1396.00,52.698
1397.00,52.645
1398.00,52.276
1399.00,52.549
1400.00,52.650
1401.00,52.146
1402.00,52.123
1403.00,52.184
1404.00,52.177
1405.00,52.320
1406.00,52.017
1407.00,52.188
1408.00,52.221
1409.00,52.152
1410.00,52.111
1411.00,52.009
1412.00,52.023
1413.00,51.965
1414.00,52.047
1415.00,52.268
1416.00,52.268
1417.00,52.415
1418.00,52.273
1419.00,52.172
1420.00,52.281
1421.00,52.378
1422.00,52.271
1423.00,52.215
1424.00,52.302
1425.00,52.294
1426.00,52.282
1427.00,52.340
1428.00,52.359
1429.00,52.348
1430.00,52.370
1431.00,52.325
1432.00,52.376
1433.00,52.426
1434.00,52.374
1435.00,52.444
1436.00,52.398
1437.00,52.380
1438.00,52.444
1439.00,52.481
1440.00,52.487
1441.00,52.516
1442.00,52.509
1443.00,52.542
1444.00,52.542
1445.00,52.509
1446.00,52.570
1447.00,52.622
1448.00,52.680
1449.00,52.653
1450.00,52.605
1451.00,52.651
1452.00,52.670
1453.00,52.681
1454.00,52.681
1455.00,52.681
1456.00,52.710
1457.00,52.705
1458.00,52.718
1459.00,52.743
1460.00,52.751
1461.00,52.804
1462.00,52.784
1463.00,52.791
1464.00,52.818
1465.00,52.819
1466.00,52.813
1467.00,52.826
1468.00,52.891
1469.00,52.866
1470.00,52.877
1471.00,52.913
1472.00,52.925
1473.00,52.931
1474.00,52.965
1475.00,52.975
1476.00,52.960
1477.00,52.950
1478.00,52.978
1479.00,53.016
1480.00,53.020
1481.00,53.005
1482.00,53.051
1483.00,53.049
1484.00,53.075
1485.00,53.091
1486.00,53.081
1487.00,53.107
1488.00,53.118
1489.00,53.127
1490.00,53.116
1491.00,53.145
1492.00,53.156
1493.00,53.147
1494.00,53.162
1495.00,53.156
1496.00,53.196
1497.00,53.175
1498.00,53.160
1499.00,53.199
1500.00,53.211
1501.00, 
1502.00, 
1503.00, 
1504.00, 
1505.00, 
1506.00, 
1507.00, 
1508.00, 
1509.00, 
1510.00, 
1511.00, 
1512.00, 
1513.00, 
1514.00, 
1515.00, 
1516.00, 
1517.00, 
1518.00, 
1519.00, 
1520.00, 
1521.00, 
1522.00, 
1523.00, 
1524.00, 
1525.00, 
1526.00, 
1527.00, 
1528.00, 
1529.00, 
1530.00, 
1531.00, 
1532.00, 
1533.00, 
1534.00, 
1535.00, 
1536.00, 
1537.00, 
1538.00, 
1539.00, 
1540.00, 
1541.00, 
1542.00, 
1543.00, 
1544.00, 
1545.00, 
1546.00, 
1547.00, 
1548.00, 
1549.00, 
1550.00, 
1551.00, 
1552.00, 
1553.00, 
1554.00, 
1555.00, 
1556.00, 
1557.00, 
1558.00, 
1559.00, 
1560.00, 
1561.00, 
1562.00, 
1563.00, 
1564.00, 
1565.00, 
1566.00, 
1567.00, 
1568.00, 
1569.00, 
1570.00, 
1571.00, 
1572.00, 
1573.00, 
1574.00, 
1575.00, 
1576.00, 
1577.00, 
1578.00, 
1579.00, 
1580.00, 
1581.00, 
1582.00, 
1583.00, 
1584.00, 
1585.00, 
1586.00, 
1587.00, 
1588.00, 
1589.00, 
1590.00, 
1591.00, 
1592.00, 
1593.00, 
1594.00, 
1595.00, 
1596.00, 
1597.00, 
1598.00, 
1599.00, 
1600.00, 
1601.00, 
1602.00, 
1603.00, 
1604.00, 
1605.00, 
1606.00, 
1607.00, 
1608.00, 
1609.00, 
1610.00, 
1611.00, 
1612.00, 
1613.00, 
1614.00, 
1615.00, 
1616.00, 
1617.00, 
1618.00, 
1619.00, 
1620.00, 
1621.00, 
1622.00, 
1623.00, 
1624.00, 
1625.00, 
1626.00, 
1627.00, 
1628.00, 
1629.00, 
1630.00, 
1631.00, 
1632.00, 
1633.00, 
1634.00, 
1635.00, 
1636.00, 
1637.00, 
1638.00, 
1639.00, 
1640.00, 
1641.00, 
1642.00, 
1643.00, 
1644.00, 
1645.00, 
1646.00, 
1647.00, 
1648.00, 
1649.00, 
1650.00, 
1651.00, 
1652.00, 
1653.00, 
1654.00, 
1655.00, 
1656.00, 
1657.00, 
1658.00, 
1659.00, 
1660.00, 
1661.00, 
1662.00, 
1663.00, 
1664.00, 
1665.00, 
1666.00, 
1667.00, 
1668.00, 
1669.00, 
1670.00, 
1671.00, 
1672.00, 
1673.00, 
1674.00, 
1675.00, 
1676.00, 
1677.00, 
1678.00, 
1679.00, 
1680.00, 
1681.00, 
1682.00, 
1683.00, 
1684.00, 
1685.00, 
1686.00, 
1687.00, 
1688.00, 
1689.00, 
1690.00, 
1691.00, 
1692.00, 
1693.00, 
1694.00, 
1695.00, 
1696.00, 
1697.00, 
1698.00, 
1699.00, 
1700.00, 
1701.00, 
1702.00, 
1703.00, 
1704.00, 
1705.00, 
1706.00, 
1707.00, 
1708.00, 
1709.00, 
1710.00, 
1711.00, 
1712.00, 
1713.00, 
1714.00, 
1715.00, 
1716.00, 
1717.00, 
1718.00, 
1719.00, 
1720.00, 
1721.00, 
1722.00, 
1723.00, 
1724.00, 
1725.00, 
1726.00, 
1727.00, 
1728.00, 
1729.00, 
1730.00, 
1731.00, 
1732.00, 
1733.00, 
1734.00, 
1735.00, 
1736.00, 
1737.00, 
1738.00, 
1739.00, 
1740.00, 
1741.00, 
1742.00, 
1743.00, 
1744.00, 
1745.00, 
1746.00, 
1747.00, 
1748.00, 
1749.00, 
1750.00, 
1751.00, 
1752.00, 
1753.00, 
1754.00, 
1755.00, 
1756.00, 
1757.00, 
1758.00, 
1759.00, 
1760.00, 
1761.00, 
1762.00, 
1763.00, 
1764.00, 
1765.00, 
1766.00, 
1767.00, 
1768.00, 
1769.00, 
1770.00, 
1771.00, 
1772.00, 
1773.00, 
1774.00, 
1775.00, 
1776.00, 
1777.00, 
1778.00, 
1779.00, 
1780.00, 
1781.00, 
1782.00, 
1783.00, 
1784.00, 
1785.00, 
1786.00, 
1787.00, 
1788.00, 
1789.00, 
1790.00, 
1791.00, 
1792.00, 
1793.00, 
1794.00, 
1795.00, 
1796.00, 
1797.00, 
1798.00, 
1799.00, 
1800.00, 
1801.00, 
1802.00, 
1803.00, 
1804.00, 
1805.00, 
1806.00, 
1807.00, 
1808.00, 
1809.00, 
1810.00, 
1811.00, 
1812.00, 
1813.00, 
1814.00, 
1815.00, 
1816.00, 
1817.00, 
1818.00, 
1819.00, 
1820.00, 
1821.00, 
1822.00, 
1823.00, 
1824.00, 
1825.00, 
1826.00, 
1827.00, 
1828.00, 
1829.00, 
1830.00, 
1831.00, 
1832.00, 
1833.00, 
1834.00, 
1835.00, 
1836.00, 
1837.00, 
1838.00, 
1839.00, 
1840.00, 
1841.00, 
1842.00, 
1843.00, 
1844.00, 
1845.00, 
1846.00, 
1847.00, 
1848.00, 
1849.00, 
1850.00, 
1851.00, 
1852.00, 
1853.00, 
1854.00, 
1855.00, 
1856.00, 
1857.00, 
1858.00, 
1859.00, 
1860.00, 
1861.00, 
1862.00, 
1863.00, 
1864.00, 
1865.00, 
1866.00, 
1867.00, 
1868.00, 
1869.00, 
1870.00, 
1871.00, 
1872.00, 
1873.00, 
1874.00, 
1875.00, 
1876.00, 
1877.00, 
1878.00, 
1879.00, 
1880.00, 
1881.00, 
1882.00, 
1883.00, 
1884.00, 
1885.00, 
1886.00, 
1887.00, 
1888.00, 
1889.00, 
1890.00, 
1891.00, 
1892.00, 
1893.00, 
1894.00, 
1895.00, 
1896.00, 
1897.00, 
1898.00, 
1899.00, 
1900.00, 
1901.00, 
1902.00, 
1903.00, 
1904.00, 
1905.00, 
1906.00, 
1907.00, 
1908.00, 
1909.00, 
1910.00, 
1911.00, 
1912.00, 
1913.00, 
1914.00, 
1915.00, 
1916.00, 
1917.00, 
1918.00, 
1919.00, 
1920.00, 
1921.00, 
1922.00, 
1923.00, 
1924.00, 
1925.00, 
1926.00, 
1927.00, 
1928.00, 
1929.00, 
1930.00, 
1931.00, 
1932.00, 
1933.00, 
1934.00, 
1935.00, 
1936.00, 
1937.00, 
1938.00, 
1939.00, 
1940.00, 
1941.00, 
1942.00, 
1943.00, 
1944.00, 
1945.00, 
1946.00, 
1947.00, 
1948.00, 
1949.00, 
1950.00, 
1951.00, 
1952.00, 
1953.00, 
1954.00, 
1955.00, 
1956.00, 
1957.00, 
1958.00, 
1959.00, 
1960.00, 
1961.00, 
1962.00, 
1963.00, 
1964.00, 
1965.00, 
1966.00, 
1967.00, 
1968.00, 
1969.00, 
1970.00, 
1971.00, 
1972.00, 
1973.00, 
1974.00, 
1975.00, 
1976.00, 
1977.00, 
1978.00, 
1979.00, 
1980.00, 
1981.00, 
1982.00, 
1983.00, 
1984.00, 
1985.00, 
1986.00, 
1987.00, 
1988.00, 
1989.00, 
1990.00, 
1991.00, 
1992.00, 
1993.00, 
1994.00, 
1995.00, 
1996.00, 
1997.00, 
1998.00, 
1999.00, 
2000.00, 
2001.00, 
2002.00, 
2003.00, 
2004.00, 
2005.00, 
2006.00, 
2007.00, 
2008.00, 
2009.00, 
2010.00, 
2011.00, 
2012.00, 
2013.00, 
2014.00, 
2015.00, 
2016.00, 
2017.00, 
2018.00, 
2019.00, 
2020.00, 
2021.00, 
2022.00, 
2023.00, 
2024.00, 
2025.00, 
2026.00, 
2027.00, 
2028.00, 
2029.00, 
2030.00, 
2031.00, 
2032.00, 
2033.00, 
2034.00, 
2035.00, 
2036.00, 
2037.00, 
2038.00, 
2039.00, 
2040.00, 
2041.00, 
2042.00, 
2043.00, 
2044.00, 
2045.00, 
2046.00, 
2047.00, 
2048.00, 
2049.00, 
2050.00, 
2051.00, 
2052.00, 
2053.00, 
2054.00, 
2055.00, 
2056.00, 
2057.00, 
2058.00, 
2059.00, 
2060.00, 
2061.00, 
2062.00, 
2063.00, 
2064.00, 
2065.00, 
2066.00, 
2067.00, 
2068.00, 
2069.00, 
2070.00, 
2071.00, 
2072.00, 
2073.00, 
2074.00, 
2075.00, 
2076.00, 
2077.00, 
2078.00, 
2079.00, 
2080.00, 
2081.00, 
2082.00, 
2083.00, 
2084.00, 
2085.00, 
2086.00, 
2087.00, 
2088.00, 
2089.00, 
2090.00, 
2091.00, 
2092.00, 
2093.00, 
2094.00, 
2095.00, 
2096.00, 
2097.00, 
2098.00, 
2099.00, 
2100.00, 
2101.00, 
2102.00, 
2103.00, 
2104.00, 
2105.00, 
2106.00, 
2107.00, 
2108.00, 
2109.00, 
2110.00, 
2111.00, 
2112.00, 
2113.00, 
2114.00, 
2115.00, 
2116.00, 
2117.00, 
2118.00, 
2119.00, 
2120.00, 
2121.00, 
2122.00, 
2123.00, 
2124.00, 
2125.00, 
2126.00, 
2127.00, 
2128.00, 
2129.00, 
2130.00, 
2131.00, 
2132.00, 
2133.00, 
2134.00, 
2135.00, 
2136.00, 
2137.00, 
2138.00, 
2139.00, 
2140.00, 
2141.00, 
2142.00, 
2143.00, 
2144.00, 
2145.00, 
2146.00, 
2147.00, 
2148.00, 
2149.00, 
2150.00, 
2151.00, 
2152.00, 
2153.00, 
2154.00, 
2155.00, 
2156.00, 
2157.00, 
2158.00, 
2159.00, 
2160.00, 
2161.00, 
2162.00, 
2163.00, 
2164.00, 
2165.00, 
2166.00, 
2167.00, 
2168.00, 
2169.00, 
2170.00, 
2171.00, 
2172.00, 
2173.00, 
2174.00, 
2175.00, 
2176.00, 
2177.00, 
2178.00, 
2179.00, 
2180.00, 
2181.00, 
2182.00, 
2183.00, 
2184.00, 
2185.00, 
2186.00, 
2187.00, 
2188.00, 
2189.00, 
2190.00, 
2191.00, 
2192.00, 
2193.00, 
2194.00, 
2195.00, 
2196.00, 
2197.00, 
2198.00, 
2199.00, 
2200.00, 
2201.00, 
2202.00, 
2203.00, 
2204.00, 
2205.00, 
2206.00, 
2207.00, 
2208.00, 
2209.00, 
2210.00, 
2211.00, 
2212.00, 
2213.00, 
2214.00, 
2215.00, 
2216.00, 
2217.00, 
2218.00, 
2219.00, 
2220.00, 
2221.00, 
2222.00, 
2223.00, 
2224.00, 
2225.00, 
2226.00, 
2227.00, 
2228.00, 
2229.00, 
2230.00, 
2231.00, 
2232.00, 
2233.00, 
2234.00, 
2235.00, 
2236.00, 
2237.00, 
2238.00, 
2239.00, 
2240.00, 
2241.00, 
2242.00, 
2243.00, 
2244.00, 
2245.00, 
2246.00, 
2247.00, 
2248.00, 
2249.00, 
2250.00, 
2251.00, 
2252.00, 
2253.00, 
2254.00, 
2255.00, 
2256.00, 
2257.00, 
2258.00, 
2259.00, 
2260.00, 
2261.00, 
2262.00, 
2263.00, 
2264.00, 
2265.00, 
2266.00, 
2267.00, 
2268.00, 
2269.00, 
2270.00, 
2271.00, 
2272.00, 
2273.00, 
2274.00, 
2275.00, 
2276.00, 
2277.00, 
2278.00, 
2279.00, 
2280.00, 
2281.00, 
2282.00, 
2283.00, 
2284.00, 
2285.00, 
2286.00, 
2287.00, 
2288.00, 
2289.00, 
2290.00, 
2291.00, 
2292.00, 
2293.00, 
2294.00, 
2295.00, 
2296.00, 
2297.00, 
2298.00, 
2299.00, 
2300.00, 
2301.00, 
2302.00, 
2303.00, 
2304.00, 
2305.00, 
2306.00, 
2307.00, 
2308.00, 
2309.00, 
2310.00, 
2311.00, 
2312.00, 
2313.00, 
2314.00, 
2315.00, 
2316.00, 
2317.00, 
2318.00, 
2319.00, 
2320.00, 
2321.00, 
2322.00, 
2323.00, 
2324.00, 
2325.00, 
2326.00, 
2327.00, 
2328.00, 
2329.00, 
2330.00, 
2331.00, 
2332.00, 
2333.00, 
2334.00, 
2335.00, 
2336.00, 
2337.00, 
2338.00, 
2339.00, 
2340.00, 
2341.00, 
2342.00, 
2343.00, 
2344.00, 
2345.00, 
2346.00, 
2347.00, 
2348.00, 
2349.00, 
2350.00, 
2351.00, 
2352.00, 
2353.00, 
2354.00, 
2355.00, 
2356.00, 
2357.00, 
2358.00, 
2359.00, 
2360.00, 
2361.00, 
2362.00, 
2363.00, 
2364.00, 
2365.00, 
2366.00, 
2367.00, 
2368.00, 
2369.00, 
2370.00, 
2371.00, 
2372.00, 
2373.00, 
2374.00, 
2375.00, 
2376.00, 
2377.00, 
2378.00, 
2379.00, 
2380.00, 
2381.00, 
2382.00, 
2383.00, 
2384.00, 
2385.00, 
2386.00, 
2387.00, 
2388.00, 
2389.00, 
2390.00, 
2391.00, 
2392.00, 
2393.00, 
2394.00, 
2395.00, 
2396.00, 
2397.00, 
2398.00, 
2399.00, 
2400.00, 
2401.00, 
2402.00, 
2403.00, 
2404.00, 
2405.00, 
2406.00, 
2407.00, 
2408.00, 
2409.00, 
2410.00, 
2411.00, 
2412.00, 
2413.00, 
2414.00, 
2415.00, 
2416.00, 
2417.00, 
2418.00, 
2419.00, 
2420.00, 
2421.00, 
2422.00, 
2423.00, 
2424.00, 
2425.00, 
2426.00, 
2427.00, 
2428.00, 
2429.00, 
2430.00, 
2431.00, 
2432.00, 
2433.00, 
2434.00, 
2435.00, 
2436.00, 
2437.00, 
2438.00, 
2439.00, 
2440.00, 
2441.00, 
2442.00, 
2443.00, 
2444.00, 
2445.00, 
2446.00, 
2447.00, 
2448.00, 
2449.00, 
2450.00, 
2451.00, 
2452.00, 
2453.00, 
2454.00, 
2455.00, 
2456.00, 
2457.00, 
2458.00, 
2459.00, 
2460.00, 
2461.00, 
2462.00, 
2463.00, 
2464.00, 
2465.00, 
2466.00, 
2467.00, 
2468.00, 
2469.00, 
2470.00, 
2471.00, 
2472.00, 
2473.00, 
2474.00, 
2475.00, 
2476.00, 
2477.00, 
2478.00, 
2479.00, 
2480.00, 
2481.00, 
2482.00, 
2483.00, 
2484.00, 
2485.00, 
2486.00, 
2487.00, 
2488.00, 
2489.00, 
2490.00, 
2491.00, 
2492.00, 
2493.00, 
2494.00, 
2495.00, 
2496.00, 
2497.00, 
2498.00, 
2499.00, 
2500.00, 
2501.00, 
2502.00, 
2503.00, 
2504.00, 
2505.00, 
2506.00, 
2507.00, 
2508.00, 
2509.00, 
2510.00, 
2511.00, 
2512.00, 
2513.00, 
2514.00, 
2515.00, 
2516.00, 
2517.00, 
2518.00, 
2519.00, 
2520.00, 
2521.00, 
2522.00, 
2523.00, 
2524.00, 
2525.00, 
2526.00, 
2527.00, 
2528.00, 
2529.00, 
2530.00, 
2531.00, 
2532.00, 
2533.00, 
2534.00, 
2535.00, 
2536.00, 
2537.00, 
2538.00, 
2539.00, 
2540.00, 
2541.00, 
2542.00, 
2543.00, 
2544.00, 
2545.00, 
2546.00, 
2547.00, 
2548.00, 
2549.00, 
2550.00, 
2551.00, 
2552.00, 
2553.00, 
2554.00, 
2555.00, 
2556.00, 
2557.00, 
2558.00, 
2559.00, 
2560.00, 
2561.00, 
2562.00, 
2563.00, 
2564.00, 
2565.00, 
2566.00, 
2567.00, 
2568.00, 
2569.00, 
2570.00, 
2571.00, 
2572.00, 
2573.00, 
2574.00, 
2575.00, 
2576.00, 
2577.00, 
2578.00, 
2579.00, 
2580.00, 
2581.00, 
2582.00, 
2583.00, 
2584.00, 
2585.00, 
2586.00, 
2587.00, 
2588.00, 
2589.00, 
2590.00, 
2591.00, 
2592.00, 
2593.00, 
2594.00, 
2595.00, 
2596.00, 
2597.00, 
2598.00, 
2599.00, 
2600.00, 
