"1bP3 - RawData"
"Wavelength nm.","T%"
200.00,-0.000
201.00,-0.003
202.00,0.003
203.00,-0.002
204.00,0.001
205.00,0.001
206.00,0.001
207.00,0.002
208.00,0.000
209.00,-0.001
210.00,0.001
211.00,0.001
212.00,0.001
213.00,-0.001
214.00,0.001
215.00,0.001
216.00,-0.000
217.00,-0.001
218.00,-0.002
219.00,0.002
220.00,0.000
221.00,0.000
222.00,0.001
223.00,0.001
224.00,-0.000
225.00,-0.001
226.00,-0.000
227.00,0.001
228.00,-0.000
229.00,-0.001
230.00,-0.002
231.00,0.000
232.00,0.003
233.00,0.003
234.00,-0.001
235.00,-0.002
236.00,0.001
237.00,-0.001
238.00,-0.001
239.00,0.002
240.00,-0.001
241.00,0.002
242.00,0.000
243.00,-0.002
244.00,-0.000
245.00,-0.000
246.00,0.001
247.00,0.003
248.00,0.000
249.00,0.001
250.00,0.000
251.00,-0.001
252.00,0.001
253.00,-0.001
254.00,0.001
255.00,0.000
256.00,0.001
257.00,-0.001
258.00,0.000
259.00,0.002
260.00,0.002
261.00,-0.001
262.00,-0.001
263.00,-0.000
264.00,0.000
265.00,-0.001
266.00,-0.001
267.00,0.000
268.00,0.002
269.00,-0.001
270.00,-0.001
271.00,-0.000
272.00,-0.000
273.00,-0.001
274.00,0.000
275.00,-0.001
276.00,-0.000
277.00,-0.001
278.00,0.001
279.00,0.000
280.00,0.001
281.00,-0.000
282.00,-0.001
283.00,-0.002
284.00,0.001
285.00,0.001
286.00,-0.000
287.00,-0.001
288.00,0.001
289.00,-0.000
290.00,-0.001
291.00,-0.000
292.00,0.000
293.00,-0.000
294.00,0.000
295.00,-0.001
296.00,-0.000
297.00,0.001
298.00,0.002
299.00,0.002
300.00,0.003
301.00,0.003
302.00,0.004
303.00,0.007
304.00,0.012
305.00,0.018
306.00,0.028
307.00,0.039
308.00,0.062
309.00,0.092
310.00,0.129
311.00,0.172
312.00,0.232
313.00,0.308
314.00,0.400
315.00,0.516
316.00,0.638
317.00,0.789
318.00,0.963
319.00,1.171
320.00,1.393
321.00,1.650
322.00,1.938
323.00,2.243
324.00,2.546
325.00,2.898
326.00,3.240
327.00,3.618
328.00,3.947
329.00,4.347
330.00,4.764
331.00,5.136
332.00,5.534
333.00,5.950
334.00,6.306
335.00,6.727
336.00,7.084
337.00,7.465
338.00,7.826
339.00,8.144
340.00,8.473
341.00,8.786
342.00,9.078
343.00,9.389
344.00,9.591
345.00,9.873
346.00,10.070
347.00,10.280
348.00,10.491
349.00,10.678
350.00,10.844
351.00,10.979
352.00,11.122
353.00,11.283
354.00,11.386
355.00,11.506
356.00,11.624
357.00,11.681
358.00,11.763
359.00,11.829
360.00,11.851
361.00,11.875
362.00,11.885
363.00,11.898
364.00,11.897
365.00,11.942
366.00,11.919
367.00,11.955
368.00,11.950
369.00,11.947
370.00,11.925
371.00,11.961
372.00,11.895
373.00,11.875
374.00,11.797
375.00,11.752
376.00,11.683
377.00,11.614
378.00,11.551
379.00,11.487
380.00,11.459
381.00,11.405
382.00,11.384
383.00,11.359
384.00,11.354
385.00,11.323
386.00,11.296
387.00,11.288
388.00,11.301
389.00,11.271
390.00,11.255
391.00,11.240
392.00,11.210
393.00,11.206
394.00,11.159
395.00,11.143
396.00,11.119
397.00,11.073
398.00,11.058
399.00,11.060
400.00,11.031
401.00,11.040
402.00,10.986
403.00,11.003
404.00,10.964
405.00,10.886
406.00,10.892
407.00,10.844
408.00,10.859
409.00,10.854
410.00,10.829
411.00,10.827
412.00,10.788
413.00,10.870
414.00,10.892
415.00,10.861
416.00,10.863
417.00,10.808
418.00,10.793
419.00,10.824
420.00,10.814
421.00,10.832
422.00,10.843
423.00,10.845
424.00,10.868
425.00,10.889
426.00,10.897
427.00,10.914
428.00,10.937
429.00,10.985
430.00,11.022
431.00,11.063
432.00,11.082
433.00,11.124
434.00,11.146
435.00,11.217
436.00,11.256
437.00,11.304
438.00,11.355
439.00,11.388
440.00,11.460
441.00,11.514
442.00,11.608
443.00,11.630
444.00,11.723
445.00,11.768
446.00,11.859
447.00,11.929
448.00,11.993
449.00,12.096
450.00,12.179
451.00,12.285
452.00,12.373
453.00,12.434
454.00,12.522
455.00,12.620
456.00,12.687
457.00,12.790
458.00,12.866
459.00,12.974
460.00,13.041
461.00,13.151
462.00,13.223
463.00,13.323
464.00,13.418
465.00,13.510
466.00,13.626
467.00,13.819
468.00,14.009
469.00,14.109
470.00,14.084
471.00,14.255
472.00,14.408
473.00,14.526
474.00,14.670
475.00,14.831
476.00,14.988
477.00,15.115
478.00,15.183
479.00,15.376
480.00,15.473
481.00,15.670
482.00,15.807
483.00,15.915
484.00,16.004
485.00,16.307
486.00,16.411
487.00,16.582
488.00,16.708
489.00,16.876
490.00,16.951
491.00,17.165
492.00,17.334
493.00,17.464
494.00,17.520
495.00,17.741
496.00,17.807
497.00,17.940
498.00,18.045
499.00,18.235
500.00,18.340
501.00,18.506
502.00,18.615
503.00,18.800
504.00,18.924
505.00,19.058
506.00,19.248
507.00,19.346
508.00,19.429
509.00,19.597
510.00,19.701
511.00,19.925
512.00,20.166
513.00,20.255
514.00,20.354
515.00,20.394
516.00,20.538
517.00,20.671
518.00,20.765
519.00,20.899
520.00,21.022
521.00,21.099
522.00,21.274
523.00,21.471
524.00,21.544
525.00,21.695
526.00,21.774
527.00,21.850
528.00,21.936
529.00,22.093
530.00,22.131
531.00,22.221
532.00,22.154
533.00,22.280
534.00,22.470
535.00,22.580
536.00,22.686
537.00,22.788
538.00,22.940
539.00,23.025
540.00,23.165
541.00,23.244
542.00,23.283
543.00,23.416
544.00,23.490
545.00,23.619
546.00,23.714
547.00,23.790
548.00,23.882
549.00,23.926
550.00,24.008
551.00,24.072
552.00,24.175
553.00,24.181
554.00,24.199
555.00,24.260
556.00,24.322
557.00,24.494
558.00,24.574
559.00,24.688
560.00,24.717
561.00,24.767
562.00,24.828
563.00,24.896
564.00,25.007
565.00,25.060
566.00,25.101
567.00,25.203
568.00,25.256
569.00,25.340
570.00,25.314
571.00,25.338
572.00,25.477
573.00,25.410
574.00,25.497
575.00,25.537
576.00,25.562
577.00,25.680
578.00,25.789
579.00,25.860
580.00,25.881
581.00,25.980
582.00,26.068
583.00,26.116
584.00,26.280
585.00,26.308
586.00,26.290
587.00,26.473
588.00,26.532
589.00,26.600
590.00,26.676
591.00,26.724
592.00,26.757
593.00,26.822
594.00,26.893
595.00,26.944
596.00,27.093
597.00,27.057
598.00,27.104
599.00,27.095
600.00,27.060
601.00,27.170
602.00,27.157
603.00,27.312
604.00,27.370
605.00,27.420
606.00,27.537
607.00,27.635
608.00,27.617
609.00,27.865
610.00,27.823
611.00,27.791
612.00,27.947
613.00,27.935
614.00,28.072
615.00,28.071
616.00,28.139
617.00,28.114
618.00,28.147
619.00,28.213
620.00,28.283
621.00,28.384
622.00,28.518
623.00,28.589
624.00,28.708
625.00,28.784
626.00,28.896
627.00,28.989
628.00,29.076
629.00,29.154
630.00,29.305
631.00,29.343
632.00,29.452
633.00,29.568
634.00,29.646
635.00,29.655
636.00,29.775
637.00,29.835
638.00,29.906
639.00,30.018
640.00,30.203
641.00,30.304
642.00,30.421
643.00,30.598
644.00,30.610
645.00,30.637
646.00,30.822
647.00,30.972
648.00,31.127
649.00,31.363
650.00,31.433
651.00,31.437
652.00,31.534
653.00,31.700
654.00,31.838
655.00,32.197
656.00,32.068
657.00,33.016
658.00,32.971
659.00,32.724
660.00,32.542
661.00,32.756
662.00,32.975
663.00,33.117
664.00,33.284
665.00,33.039
666.00,33.504
667.00,33.844
668.00,33.802
669.00,33.633
670.00,34.034
671.00,33.812
672.00,34.252
673.00,34.297
674.00,34.187
675.00,34.605
676.00,34.652
677.00,34.760
678.00,35.239
679.00,35.244
680.00,35.546
681.00,35.913
682.00,36.308
683.00,36.184
684.00,36.077
685.00,36.230
686.00,36.147
687.00,36.360
688.00,36.674
689.00,36.766
690.00,36.743
691.00,37.267
692.00,37.188
693.00,37.117
694.00,37.603
695.00,37.560
696.00,37.751
697.00,37.849
698.00,38.116
699.00,37.983
700.00,38.181
701.00,38.453
702.00,38.746
703.00,39.104
704.00,39.347
705.00,39.186
706.00,39.131
707.00,39.102
708.00,39.154
709.00,39.497
710.00,39.356
711.00,39.628
712.00,40.331
713.00,40.170
714.00,40.104
715.00,40.573
716.00,40.852
717.00,40.729
718.00,40.924
719.00,41.274
720.00,41.653
721.00,45.425
722.00,45.552
723.00,45.599
724.00,45.722
725.00,45.831
726.00,45.931
727.00,46.004
728.00,46.116
729.00,46.241
730.00,46.406
731.00,46.455
732.00,46.599
733.00,46.674
734.00,46.851
735.00,46.891
736.00,47.034
737.00,47.057
738.00,47.238
739.00,47.337
740.00,47.427
741.00,47.548
742.00,47.632
743.00,47.752
744.00,47.729
745.00,47.803
746.00,47.876
747.00,48.010
748.00,48.006
749.00,48.067
750.00,48.139
751.00,48.208
752.00,48.381
753.00,48.337
754.00,48.316
755.00,48.349
756.00,48.452
757.00,48.526
758.00,48.639
759.00,48.703
760.00,48.737
761.00,48.794
762.00,48.923
763.00,49.028
764.00,49.055
765.00,49.098
766.00,49.164
767.00,49.208
768.00,49.297
769.00,49.329
770.00,49.419
771.00,49.393
772.00,49.580
773.00,49.577
774.00,49.684
775.00,49.747
776.00,49.687
777.00,49.800
778.00,49.771
779.00,49.926
780.00,49.920
781.00,49.984
782.00,49.985
783.00,50.031
784.00,50.047
785.00,50.058
786.00,50.147
787.00,50.143
788.00,50.109
789.00,50.257
790.00,50.170
791.00,50.303
792.00,50.241
793.00,50.335
794.00,50.417
795.00,50.460
796.00,50.471
797.00,50.393
798.00,50.379
799.00,50.363
800.00,50.427
801.00,50.295
802.00,50.230
803.00,50.367
804.00,50.389
805.00,50.457
806.00,50.352
807.00,50.469
808.00,50.544
809.00,50.431
810.00,50.535
811.00,50.501
812.00,50.660
813.00,50.598
814.00,50.616
815.00,50.736
816.00,50.586
817.00,50.680
818.00,50.565
819.00,50.558
820.00,50.731
821.00,50.526
822.00,50.673
823.00,50.687
824.00,50.813
825.00,50.571
826.00,50.556
827.00,50.738
828.00,50.518
829.00,50.625
830.00,50.624
831.00,53.366
832.00,53.385
833.00,53.387
834.00,53.346
835.00,53.398
836.00,53.376
837.00,53.415
838.00,53.414
839.00,53.433
840.00,53.458
841.00,53.460
842.00,53.443
843.00,53.407
844.00,53.461
845.00,53.338
846.00,53.353
847.00,53.271
848.00,53.384
849.00,53.464
850.00,53.386
851.00,53.387
852.00,53.266
853.00,53.501
854.00,53.356
855.00,53.372
856.00,53.240
857.00,53.281
858.00,53.342
859.00,53.352
860.00,53.376
861.00,53.287
862.00,53.328
863.00,53.291
864.00,53.389
865.00,53.262
866.00,53.329
867.00,53.270
868.00,53.375
869.00,53.350
870.00,53.285
871.00,53.330
872.00,53.330
873.00,53.325
874.00,53.238
875.00,53.308
876.00,53.246
877.00,53.376
878.00,53.253
879.00,53.359
880.00,53.300
881.00,53.329
882.00,53.216
883.00,53.322
884.00,53.214
885.00,53.432
886.00,53.203
887.00,53.228
888.00,53.281
889.00,53.240
890.00,53.146
891.00,53.181
892.00,53.226
893.00,53.205
894.00,53.134
895.00,53.188
896.00,53.226
897.00,53.177
898.00,53.104
899.00,53.039
900.00,53.063
901.00,53.011
902.00,52.976
903.00,53.118
904.00,53.181
905.00,53.098
906.00,52.996
907.00,53.019
908.00,53.145
909.00,53.073
910.00,52.989
911.00,52.911
912.00,52.966
913.00,52.890
914.00,52.965
915.00,53.064
916.00,53.173
917.00,53.040
918.00,52.936
919.00,53.009
920.00,53.102
921.00,52.951
922.00,52.826
923.00,52.857
924.00,53.073
925.00,52.862
926.00,52.775
927.00,52.804
928.00,52.984
929.00,52.840
930.00,52.777
931.00,52.761
932.00,52.884
933.00,52.742
934.00,52.739
935.00,52.797
936.00,52.866
937.00,52.722
938.00,52.596
939.00,52.676
940.00,52.782
941.00,52.653
942.00,52.567
943.00,52.617
944.00,52.708
945.00,52.608
946.00,52.551
947.00,52.578
948.00,52.542
949.00,52.538
950.00,52.453
951.00,52.532
952.00,52.542
953.00,52.504
954.00,52.386
955.00,52.416
956.00,52.416
957.00,52.392
958.00,52.331
959.00,52.328
960.00,52.318
961.00,52.306
962.00,52.275
963.00,52.265
964.00,52.293
965.00,52.254
966.00,52.253
967.00,52.238
968.00,52.285
969.00,52.200
970.00,52.214
971.00,52.235
972.00,52.252
973.00,52.247
974.00,52.257
975.00,52.290
976.00,52.230
977.00,52.266
978.00,52.280
979.00,52.315
980.00,52.296
981.00,52.262
982.00,52.282
983.00,52.206
984.00,52.251
985.00,52.233
986.00,52.253
987.00,52.247
988.00,52.217
989.00,52.211
990.00,52.189
991.00,52.182
992.00,52.185
993.00,52.211
994.00,52.154
995.00,52.124
996.00,52.144
997.00,52.119
998.00,52.141
999.00,52.143
1000.00,52.165
1001.00,52.114
1002.00,52.076
1003.00,52.105
1004.00,52.058
1005.00,52.057
1006.00,52.056
1007.00,52.107
1008.00,52.063
1009.00,52.038
1010.00,52.052
1011.00,51.984
1012.00,51.999
1013.00,51.992
1014.00,51.989
1015.00,51.971
1016.00,51.936
1017.00,51.946
1018.00,51.926
1019.00,51.930
1020.00,51.884
1021.00,51.917
1022.00,51.894
1023.00,51.864
1024.00,51.819
1025.00,51.836
1026.00,51.859
1027.00,51.805
1028.00,51.808
1029.00,51.796
1030.00,51.800
1031.00,51.774
1032.00,51.727
1033.00,51.725
1034.00,51.724
1035.00,51.693
1036.00,51.643
1037.00,51.638
1038.00,51.627
1039.00,51.607
1040.00,51.568
1041.00,51.522
1042.00,51.523
1043.00,51.527
1044.00,51.580
1045.00,51.531
1046.00,51.528
1047.00,51.544
1048.00,51.588
1049.00,51.584
1050.00,51.625
1051.00,51.616
1052.00,51.651
1053.00,51.667
1054.00,51.693
1055.00,51.669
1056.00,51.669
1057.00,51.692
1058.00,51.682
1059.00,51.669
1060.00,51.637
1061.00,51.665
1062.00,51.631
1063.00,51.626
1064.00,51.611
1065.00,51.642
1066.00,51.630
1067.00,51.631
1068.00,51.630
1069.00,51.663
1070.00,51.606
1071.00,51.591
1072.00,51.611
1073.00,51.611
1074.00,51.591
1075.00,51.568
1076.00,51.580
1077.00,51.578
1078.00,51.563
1079.00,51.542
1080.00,51.538
1081.00,51.516
1082.00,51.524
1083.00,51.514
1084.00,51.527
1085.00,51.520
1086.00,51.533
1087.00,51.502
1088.00,51.503
1089.00,51.482
1090.00,51.500
1091.00,51.486
1092.00,51.520
1093.00,51.470
1094.00,51.479
1095.00,51.446
1096.00,51.438
1097.00,51.426
1098.00,51.422
1099.00,51.386
1100.00,51.395
1101.00,51.377
1102.00,51.390
1103.00,51.378
1104.00,51.399
1105.00,51.362
1106.00,51.356
1107.00,51.343
1108.00,51.342
1109.00,51.320
1110.00,51.330
1111.00,51.296
1112.00,51.286
1113.00,51.286
1114.00,51.298
1115.00,51.291
1116.00,51.299
1117.00,51.262
1118.00,51.244
1119.00,51.221
1120.00,51.255
1121.00,51.255
1122.00,51.261
1123.00,51.245
1124.00,51.217
1125.00,51.216
1126.00,51.237
1127.00,51.238
1128.00,51.230
1129.00,51.192
1130.00,51.202
1131.00,51.173
1132.00,51.165
1133.00,51.228
1134.00,51.193
1135.00,51.110
1136.00,51.174
1137.00,51.182
1138.00,51.196
1139.00,51.179
1140.00,51.164
1141.00,51.136
1142.00,51.160
1143.00,51.184
1144.00,51.157
1145.00,51.124
1146.00,51.105
1147.00,51.096
1148.00,51.134
1149.00,51.147
1150.00,51.150
1151.00,51.155
1152.00,51.126
1153.00,51.097
1154.00,51.097
1155.00,51.118
1156.00,51.124
1157.00,51.117
1158.00,51.104
1159.00,51.087
1160.00,51.086
1161.00,51.111
1162.00,51.105
1163.00,51.107
1164.00,51.091
1165.00,51.092
1166.00,51.082
1167.00,51.094
1168.00,51.105
1169.00,51.085
1170.00,51.065
1171.00,51.055
1172.00,51.054
1173.00,51.046
1174.00,51.062
1175.00,51.060
1176.00,51.071
1177.00,51.049
1178.00,51.059
1179.00,51.078
1180.00,51.082
1181.00,51.071
1182.00,51.069
1183.00,51.094
1184.00,51.085
1185.00,51.074
1186.00,51.054
1187.00,51.063
1188.00,51.054
1189.00,51.054
1190.00,51.027
1191.00,51.059
1192.00,51.065
1193.00,51.062
1194.00,51.058
1195.00,51.022
1196.00,51.058
1197.00,51.066
1198.00,51.080
1199.00,51.070
1200.00,51.049
1201.00,51.031
1202.00,51.020
1203.00,51.026
1204.00,51.045
1205.00,51.064
1206.00,51.049
1207.00,51.058
1208.00,51.043
1209.00,51.078
1210.00,51.070
1211.00,51.076
1212.00,51.060
1213.00,51.030
1214.00,51.068
1215.00,51.041
1216.00,51.063
1217.00,51.048
1218.00,51.044
1219.00,51.047
1220.00,51.036
1221.00,51.067
1222.00,51.059
1223.00,51.077
1224.00,51.050
1225.00,51.046
1226.00,51.057
1227.00,51.053
1228.00,51.066
1229.00,51.087
1230.00,51.106
1231.00,51.090
1232.00,51.097
1233.00,51.110
1234.00,51.113
1235.00,51.112
1236.00,51.114
1237.00,51.108
1238.00,51.112
1239.00,51.089
1240.00,51.120
1241.00,51.118
1242.00,51.145
1243.00,51.152
1244.00,51.109
1245.00,51.141
1246.00,51.153
1247.00,51.150
1248.00,51.144
1249.00,51.145
1250.00,51.130
1251.00,51.137
1252.00,51.152
1253.00,51.144
1254.00,51.158
1255.00,51.125
1256.00,51.099
1257.00,51.126
1258.00,51.189
1259.00,51.228
1260.00,51.218
1261.00,51.194
1262.00,51.207
1263.00,51.194
1264.00,51.201
1265.00,51.204
1266.00,51.198
1267.00,51.199
1268.00,51.201
1269.00,51.209
1270.00,51.257
1271.00,51.239
1272.00,51.225
1273.00,51.233
1274.00,51.250
1275.00,51.253
1276.00,51.244
1277.00,51.254
1278.00,51.282
1279.00,51.265
1280.00,51.256
1281.00,51.277
1282.00,51.281
1283.00,51.269
1284.00,51.251
1285.00,51.251
1286.00,51.294
1287.00,51.289
1288.00,51.289
1289.00,51.281
1290.00,51.327
1291.00,51.324
1292.00,51.342
1293.00,51.324
1294.00,51.338
1295.00,51.372
1296.00,51.378
1297.00,51.377
1298.00,51.382
1299.00,51.354
1300.00,51.374
1301.00,51.378
1302.00,51.430
1303.00,51.408
1304.00,51.375
1305.00,51.405
1306.00,51.387
1307.00,51.380
1308.00,51.377
1309.00,51.441
1310.00,51.471
1311.00,51.401
1312.00,51.379
1313.00,51.422
1314.00,51.463
1315.00,51.457
1316.00,51.450
1317.00,51.487
1318.00,51.502
1319.00,51.497
1320.00,51.518
1321.00,51.577
1322.00,51.627
1323.00,51.591
1324.00,51.567
1325.00,51.592
1326.00,51.671
1327.00,51.584
1328.00,51.550
1329.00,51.594
1330.00,51.614
1331.00,51.578
1332.00,51.531
1333.00,51.619
1334.00,51.698
1335.00,51.624
1336.00,51.617
1337.00,51.678
1338.00,51.794
1339.00,51.834
1340.00,51.885
1341.00,51.938
1342.00,52.007
1343.00,52.071
1344.00,52.155
1345.00,52.198
1346.00,52.195
1347.00,52.217
1348.00,52.276
1349.00,52.298
1350.00,52.228
1351.00,52.152
1352.00,52.062
1353.00,52.233
1354.00,52.411
1355.00,52.296
1356.00,52.392
1357.00,52.359
1358.00,52.244
1359.00,51.773
1360.00,51.570
1361.00,51.780
1362.00,51.826
1363.00,52.856
1364.00,53.213
1365.00,52.758
1366.00,52.307
1367.00,52.281
1368.00,52.261
1369.00,52.438
1370.00,52.481
1371.00,52.405
1372.00,52.466
1373.00,52.444
1374.00,52.272
1375.00,52.245
1376.00,52.253
1377.00,52.229
1378.00,52.303
1379.00,52.474
1380.00,52.176
1381.00,52.334
1382.00,52.631
1383.00,52.563
1384.00,52.674
1385.00,52.350
1386.00,52.226
1387.00,52.369
1388.00,52.599
1389.00,52.405
1390.00,52.031
1391.00,52.332
1392.00,52.476
1393.00,52.744
1394.00,52.368
1395.00,52.410
1396.00,52.943
1397.00,52.798
1398.00,52.444
1399.00,52.729
1400.00,52.875
1401.00,52.334
1402.00,52.300
1403.00,52.371
1404.00,52.381
1405.00,52.507
1406.00,52.179
1407.00,52.448
1408.00,52.611
1409.00,52.710
1410.00,52.309
1411.00,52.194
1412.00,52.231
1413.00,52.177
1414.00,52.219
1415.00,52.465
1416.00,52.454
1417.00,52.619
1418.00,52.476
1419.00,52.360
1420.00,52.474
1421.00,52.558
1422.00,52.448
1423.00,52.404
1424.00,52.502
1425.00,52.481
1426.00,52.462
1427.00,52.511
1428.00,52.536
1429.00,52.534
1430.00,52.553
1431.00,52.506
1432.00,52.541
1433.00,52.610
1434.00,52.575
1435.00,52.652
1436.00,52.613
1437.00,52.580
1438.00,52.653
1439.00,52.666
1440.00,52.707
1441.00,52.725
1442.00,52.697
1443.00,52.732
1444.00,52.766
1445.00,52.704
1446.00,52.739
1447.00,52.813
1448.00,52.867
1449.00,52.864
1450.00,52.816
1451.00,52.833
1452.00,52.857
1453.00,52.909
1454.00,52.894
1455.00,52.908
1456.00,52.921
1457.00,52.896
1458.00,52.913
1459.00,52.931
1460.00,52.954
1461.00,52.973
1462.00,53.007
1463.00,52.985
1464.00,52.990
1465.00,53.016
1466.00,53.031
1467.00,53.051
1468.00,53.113
1469.00,53.076
1470.00,53.091
1471.00,53.118
1472.00,53.128
1473.00,53.146
1474.00,53.178
1475.00,53.181
1476.00,53.177
1477.00,53.157
1478.00,53.186
1479.00,53.223
1480.00,53.238
1481.00,53.214
1482.00,53.231
1483.00,53.240
1484.00,53.259
1485.00,53.283
1486.00,53.271
1487.00,53.292
1488.00,53.318
1489.00,53.319
1490.00,53.318
1491.00,53.347
1492.00,53.347
1493.00,53.340
1494.00,53.358
1495.00,53.355
1496.00,53.394
1497.00,53.381
1498.00,53.374
1499.00,53.436
1500.00,53.445
1501.00, 
1502.00, 
1503.00, 
1504.00, 
1505.00, 
1506.00, 
1507.00, 
1508.00, 
1509.00, 
1510.00, 
1511.00, 
1512.00, 
1513.00, 
1514.00, 
1515.00, 
1516.00, 
1517.00, 
1518.00, 
1519.00, 
1520.00, 
1521.00, 
1522.00, 
1523.00, 
1524.00, 
1525.00, 
1526.00, 
1527.00, 
1528.00, 
1529.00, 
1530.00, 
1531.00, 
1532.00, 
1533.00, 
1534.00, 
1535.00, 
1536.00, 
1537.00, 
1538.00, 
1539.00, 
1540.00, 
1541.00, 
1542.00, 
1543.00, 
1544.00, 
1545.00, 
1546.00, 
1547.00, 
1548.00, 
1549.00, 
1550.00, 
1551.00, 
1552.00, 
1553.00, 
1554.00, 
1555.00, 
1556.00, 
1557.00, 
1558.00, 
1559.00, 
1560.00, 
1561.00, 
1562.00, 
1563.00, 
1564.00, 
1565.00, 
1566.00, 
1567.00, 
1568.00, 
1569.00, 
1570.00, 
1571.00, 
1572.00, 
1573.00, 
1574.00, 
1575.00, 
1576.00, 
1577.00, 
1578.00, 
1579.00, 
1580.00, 
1581.00, 
1582.00, 
1583.00, 
1584.00, 
1585.00, 
1586.00, 
1587.00, 
1588.00, 
1589.00, 
1590.00, 
1591.00, 
1592.00, 
1593.00, 
1594.00, 
1595.00, 
1596.00, 
1597.00, 
1598.00, 
1599.00, 
1600.00, 
1601.00, 
1602.00, 
1603.00, 
1604.00, 
1605.00, 
1606.00, 
1607.00, 
1608.00, 
1609.00, 
1610.00, 
1611.00, 
1612.00, 
1613.00, 
1614.00, 
1615.00, 
1616.00, 
1617.00, 
1618.00, 
1619.00, 
1620.00, 
1621.00, 
1622.00, 
1623.00, 
1624.00, 
1625.00, 
1626.00, 
1627.00, 
1628.00, 
1629.00, 
1630.00, 
1631.00, 
1632.00, 
1633.00, 
1634.00, 
1635.00, 
1636.00, 
1637.00, 
1638.00, 
1639.00, 
1640.00, 
1641.00, 
1642.00, 
1643.00, 
1644.00, 
1645.00, 
1646.00, 
1647.00, 
1648.00, 
1649.00, 
1650.00, 
1651.00, 
1652.00, 
1653.00, 
1654.00, 
1655.00, 
1656.00, 
1657.00, 
1658.00, 
1659.00, 
1660.00, 
1661.00, 
1662.00, 
1663.00, 
1664.00, 
1665.00, 
1666.00, 
1667.00, 
1668.00, 
1669.00, 
1670.00, 
1671.00, 
1672.00, 
1673.00, 
1674.00, 
1675.00, 
1676.00, 
1677.00, 
1678.00, 
1679.00, 
1680.00, 
1681.00, 
1682.00, 
1683.00, 
1684.00, 
1685.00, 
1686.00, 
1687.00, 
1688.00, 
1689.00, 
1690.00, 
1691.00, 
1692.00, 
1693.00, 
1694.00, 
1695.00, 
1696.00, 
1697.00, 
1698.00, 
1699.00, 
1700.00, 
1701.00, 
1702.00, 
1703.00, 
1704.00, 
1705.00, 
1706.00, 
1707.00, 
1708.00, 
1709.00, 
1710.00, 
1711.00, 
1712.00, 
1713.00, 
1714.00, 
1715.00, 
1716.00, 
1717.00, 
1718.00, 
1719.00, 
1720.00, 
1721.00, 
1722.00, 
1723.00, 
1724.00, 
1725.00, 
1726.00, 
1727.00, 
1728.00, 
1729.00, 
1730.00, 
1731.00, 
1732.00, 
1733.00, 
1734.00, 
1735.00, 
1736.00, 
1737.00, 
1738.00, 
1739.00, 
1740.00, 
1741.00, 
1742.00, 
1743.00, 
1744.00, 
1745.00, 
1746.00, 
1747.00, 
1748.00, 
1749.00, 
1750.00, 
1751.00, 
1752.00, 
1753.00, 
1754.00, 
1755.00, 
1756.00, 
1757.00, 
1758.00, 
1759.00, 
1760.00, 
1761.00, 
1762.00, 
1763.00, 
1764.00, 
1765.00, 
1766.00, 
1767.00, 
1768.00, 
1769.00, 
1770.00, 
1771.00, 
1772.00, 
1773.00, 
1774.00, 
1775.00, 
1776.00, 
1777.00, 
1778.00, 
1779.00, 
1780.00, 
1781.00, 
1782.00, 
1783.00, 
1784.00, 
1785.00, 
1786.00, 
1787.00, 
1788.00, 
1789.00, 
1790.00, 
1791.00, 
1792.00, 
1793.00, 
1794.00, 
1795.00, 
1796.00, 
1797.00, 
1798.00, 
1799.00, 
1800.00, 
1801.00, 
1802.00, 
1803.00, 
1804.00, 
1805.00, 
1806.00, 
1807.00, 
1808.00, 
1809.00, 
1810.00, 
1811.00, 
1812.00, 
1813.00, 
1814.00, 
1815.00, 
1816.00, 
1817.00, 
1818.00, 
1819.00, 
1820.00, 
1821.00, 
1822.00, 
1823.00, 
1824.00, 
1825.00, 
1826.00, 
1827.00, 
1828.00, 
1829.00, 
1830.00, 
1831.00, 
1832.00, 
1833.00, 
1834.00, 
1835.00, 
1836.00, 
1837.00, 
1838.00, 
1839.00, 
1840.00, 
1841.00, 
1842.00, 
1843.00, 
1844.00, 
1845.00, 
1846.00, 
1847.00, 
1848.00, 
1849.00, 
1850.00, 
1851.00, 
1852.00, 
1853.00, 
1854.00, 
1855.00, 
1856.00, 
1857.00, 
1858.00, 
1859.00, 
1860.00, 
1861.00, 
1862.00, 
1863.00, 
1864.00, 
1865.00, 
1866.00, 
1867.00, 
1868.00, 
1869.00, 
1870.00, 
1871.00, 
1872.00, 
1873.00, 
1874.00, 
1875.00, 
1876.00, 
1877.00, 
1878.00, 
1879.00, 
1880.00, 
1881.00, 
1882.00, 
1883.00, 
1884.00, 
1885.00, 
1886.00, 
1887.00, 
1888.00, 
1889.00, 
1890.00, 
1891.00, 
1892.00, 
1893.00, 
1894.00, 
1895.00, 
1896.00, 
1897.00, 
1898.00, 
1899.00, 
1900.00, 
1901.00, 
1902.00, 
1903.00, 
1904.00, 
1905.00, 
1906.00, 
1907.00, 
1908.00, 
1909.00, 
1910.00, 
1911.00, 
1912.00, 
1913.00, 
1914.00, 
1915.00, 
1916.00, 
1917.00, 
1918.00, 
1919.00, 
1920.00, 
1921.00, 
1922.00, 
1923.00, 
1924.00, 
1925.00, 
1926.00, 
1927.00, 
1928.00, 
1929.00, 
1930.00, 
1931.00, 
1932.00, 
1933.00, 
1934.00, 
1935.00, 
1936.00, 
1937.00, 
1938.00, 
1939.00, 
1940.00, 
1941.00, 
1942.00, 
1943.00, 
1944.00, 
1945.00, 
1946.00, 
1947.00, 
1948.00, 
1949.00, 
1950.00, 
1951.00, 
1952.00, 
1953.00, 
1954.00, 
1955.00, 
1956.00, 
1957.00, 
1958.00, 
1959.00, 
1960.00, 
1961.00, 
1962.00, 
1963.00, 
1964.00, 
1965.00, 
1966.00, 
1967.00, 
1968.00, 
1969.00, 
1970.00, 
1971.00, 
1972.00, 
1973.00, 
1974.00, 
1975.00, 
1976.00, 
1977.00, 
1978.00, 
1979.00, 
1980.00, 
1981.00, 
1982.00, 
1983.00, 
1984.00, 
1985.00, 
1986.00, 
1987.00, 
1988.00, 
1989.00, 
1990.00, 
1991.00, 
1992.00, 
1993.00, 
1994.00, 
1995.00, 
1996.00, 
1997.00, 
1998.00, 
1999.00, 
2000.00, 
2001.00, 
2002.00, 
2003.00, 
2004.00, 
2005.00, 
2006.00, 
2007.00, 
2008.00, 
2009.00, 
2010.00, 
2011.00, 
2012.00, 
2013.00, 
2014.00, 
2015.00, 
2016.00, 
2017.00, 
2018.00, 
2019.00, 
2020.00, 
2021.00, 
2022.00, 
2023.00, 
2024.00, 
2025.00, 
2026.00, 
2027.00, 
2028.00, 
2029.00, 
2030.00, 
2031.00, 
2032.00, 
2033.00, 
2034.00, 
2035.00, 
2036.00, 
2037.00, 
2038.00, 
2039.00, 
2040.00, 
2041.00, 
2042.00, 
2043.00, 
2044.00, 
2045.00, 
2046.00, 
2047.00, 
2048.00, 
2049.00, 
2050.00, 
2051.00, 
2052.00, 
2053.00, 
2054.00, 
2055.00, 
2056.00, 
2057.00, 
2058.00, 
2059.00, 
2060.00, 
2061.00, 
2062.00, 
2063.00, 
2064.00, 
2065.00, 
2066.00, 
2067.00, 
2068.00, 
2069.00, 
2070.00, 
2071.00, 
2072.00, 
2073.00, 
2074.00, 
2075.00, 
2076.00, 
2077.00, 
2078.00, 
2079.00, 
2080.00, 
2081.00, 
2082.00, 
2083.00, 
2084.00, 
2085.00, 
2086.00, 
2087.00, 
2088.00, 
2089.00, 
2090.00, 
2091.00, 
2092.00, 
2093.00, 
2094.00, 
2095.00, 
2096.00, 
2097.00, 
2098.00, 
2099.00, 
2100.00, 
2101.00, 
2102.00, 
2103.00, 
2104.00, 
2105.00, 
2106.00, 
2107.00, 
2108.00, 
2109.00, 
2110.00, 
2111.00, 
2112.00, 
2113.00, 
2114.00, 
2115.00, 
2116.00, 
2117.00, 
2118.00, 
2119.00, 
2120.00, 
2121.00, 
2122.00, 
2123.00, 
2124.00, 
2125.00, 
2126.00, 
2127.00, 
2128.00, 
2129.00, 
2130.00, 
2131.00, 
2132.00, 
2133.00, 
2134.00, 
2135.00, 
2136.00, 
2137.00, 
2138.00, 
2139.00, 
2140.00, 
2141.00, 
2142.00, 
2143.00, 
2144.00, 
2145.00, 
2146.00, 
2147.00, 
2148.00, 
2149.00, 
2150.00, 
2151.00, 
2152.00, 
2153.00, 
2154.00, 
2155.00, 
2156.00, 
2157.00, 
2158.00, 
2159.00, 
2160.00, 
2161.00, 
2162.00, 
2163.00, 
2164.00, 
2165.00, 
2166.00, 
2167.00, 
2168.00, 
2169.00, 
2170.00, 
2171.00, 
2172.00, 
2173.00, 
2174.00, 
2175.00, 
2176.00, 
2177.00, 
2178.00, 
2179.00, 
2180.00, 
2181.00, 
2182.00, 
2183.00, 
2184.00, 
2185.00, 
2186.00, 
2187.00, 
2188.00, 
2189.00, 
2190.00, 
2191.00, 
2192.00, 
2193.00, 
2194.00, 
2195.00, 
2196.00, 
2197.00, 
2198.00, 
2199.00, 
2200.00, 
2201.00, 
2202.00, 
2203.00, 
2204.00, 
2205.00, 
2206.00, 
2207.00, 
2208.00, 
2209.00, 
2210.00, 
2211.00, 
2212.00, 
2213.00, 
2214.00, 
2215.00, 
2216.00, 
2217.00, 
2218.00, 
2219.00, 
2220.00, 
2221.00, 
2222.00, 
2223.00, 
2224.00, 
2225.00, 
2226.00, 
2227.00, 
2228.00, 
2229.00, 
2230.00, 
2231.00, 
2232.00, 
2233.00, 
2234.00, 
2235.00, 
2236.00, 
2237.00, 
2238.00, 
2239.00, 
2240.00, 
2241.00, 
2242.00, 
2243.00, 
2244.00, 
2245.00, 
2246.00, 
2247.00, 
2248.00, 
2249.00, 
2250.00, 
2251.00, 
2252.00, 
2253.00, 
2254.00, 
2255.00, 
2256.00, 
2257.00, 
2258.00, 
2259.00, 
2260.00, 
2261.00, 
2262.00, 
2263.00, 
2264.00, 
2265.00, 
2266.00, 
2267.00, 
2268.00, 
2269.00, 
2270.00, 
2271.00, 
2272.00, 
2273.00, 
2274.00, 
2275.00, 
2276.00, 
2277.00, 
2278.00, 
2279.00, 
2280.00, 
2281.00, 
2282.00, 
2283.00, 
2284.00, 
2285.00, 
2286.00, 
2287.00, 
2288.00, 
2289.00, 
2290.00, 
2291.00, 
2292.00, 
2293.00, 
2294.00, 
2295.00, 
2296.00, 
2297.00, 
2298.00, 
2299.00, 
2300.00, 
2301.00, 
2302.00, 
2303.00, 
2304.00, 
2305.00, 
2306.00, 
2307.00, 
2308.00, 
2309.00, 
2310.00, 
2311.00, 
2312.00, 
2313.00, 
2314.00, 
2315.00, 
2316.00, 
2317.00, 
2318.00, 
2319.00, 
2320.00, 
2321.00, 
2322.00, 
2323.00, 
2324.00, 
2325.00, 
2326.00, 
2327.00, 
2328.00, 
2329.00, 
2330.00, 
2331.00, 
2332.00, 
2333.00, 
2334.00, 
2335.00, 
2336.00, 
2337.00, 
2338.00, 
2339.00, 
2340.00, 
2341.00, 
2342.00, 
2343.00, 
2344.00, 
2345.00, 
2346.00, 
2347.00, 
2348.00, 
2349.00, 
2350.00, 
2351.00, 
2352.00, 
2353.00, 
2354.00, 
2355.00, 
2356.00, 
2357.00, 
2358.00, 
2359.00, 
2360.00, 
2361.00, 
2362.00, 
2363.00, 
2364.00, 
2365.00, 
2366.00, 
2367.00, 
2368.00, 
2369.00, 
2370.00, 
2371.00, 
2372.00, 
2373.00, 
2374.00, 
2375.00, 
2376.00, 
2377.00, 
2378.00, 
2379.00, 
2380.00, 
2381.00, 
2382.00, 
2383.00, 
2384.00, 
2385.00, 
2386.00, 
2387.00, 
2388.00, 
2389.00, 
2390.00, 
2391.00, 
2392.00, 
2393.00, 
2394.00, 
2395.00, 
2396.00, 
2397.00, 
2398.00, 
2399.00, 
2400.00, 
2401.00, 
2402.00, 
2403.00, 
2404.00, 
2405.00, 
2406.00, 
2407.00, 
2408.00, 
2409.00, 
2410.00, 
2411.00, 
2412.00, 
2413.00, 
2414.00, 
2415.00, 
2416.00, 
2417.00, 
2418.00, 
2419.00, 
2420.00, 
2421.00, 
2422.00, 
2423.00, 
2424.00, 
2425.00, 
2426.00, 
2427.00, 
2428.00, 
2429.00, 
2430.00, 
2431.00, 
2432.00, 
2433.00, 
2434.00, 
2435.00, 
2436.00, 
2437.00, 
2438.00, 
2439.00, 
2440.00, 
2441.00, 
2442.00, 
2443.00, 
2444.00, 
2445.00, 
2446.00, 
2447.00, 
2448.00, 
2449.00, 
2450.00, 
2451.00, 
2452.00, 
2453.00, 
2454.00, 
2455.00, 
2456.00, 
2457.00, 
2458.00, 
2459.00, 
2460.00, 
2461.00, 
2462.00, 
2463.00, 
2464.00, 
2465.00, 
2466.00, 
2467.00, 
2468.00, 
2469.00, 
2470.00, 
2471.00, 
2472.00, 
2473.00, 
2474.00, 
2475.00, 
2476.00, 
2477.00, 
2478.00, 
2479.00, 
2480.00, 
2481.00, 
2482.00, 
2483.00, 
2484.00, 
2485.00, 
2486.00, 
2487.00, 
2488.00, 
2489.00, 
2490.00, 
2491.00, 
2492.00, 
2493.00, 
2494.00, 
2495.00, 
2496.00, 
2497.00, 
2498.00, 
2499.00, 
2500.00, 
2501.00, 
2502.00, 
2503.00, 
2504.00, 
2505.00, 
2506.00, 
2507.00, 
2508.00, 
2509.00, 
2510.00, 
2511.00, 
2512.00, 
2513.00, 
2514.00, 
2515.00, 
2516.00, 
2517.00, 
2518.00, 
2519.00, 
2520.00, 
2521.00, 
2522.00, 
2523.00, 
2524.00, 
2525.00, 
2526.00, 
2527.00, 
2528.00, 
2529.00, 
2530.00, 
2531.00, 
2532.00, 
2533.00, 
2534.00, 
2535.00, 
2536.00, 
2537.00, 
2538.00, 
2539.00, 
2540.00, 
2541.00, 
2542.00, 
2543.00, 
2544.00, 
2545.00, 
2546.00, 
2547.00, 
2548.00, 
2549.00, 
2550.00, 
2551.00, 
2552.00, 
2553.00, 
2554.00, 
2555.00, 
2556.00, 
2557.00, 
2558.00, 
2559.00, 
2560.00, 
2561.00, 
2562.00, 
2563.00, 
2564.00, 
2565.00, 
2566.00, 
2567.00, 
2568.00, 
2569.00, 
2570.00, 
2571.00, 
2572.00, 
2573.00, 
2574.00, 
2575.00, 
2576.00, 
2577.00, 
2578.00, 
2579.00, 
2580.00, 
2581.00, 
2582.00, 
2583.00, 
2584.00, 
2585.00, 
2586.00, 
2587.00, 
2588.00, 
2589.00, 
2590.00, 
2591.00, 
2592.00, 
2593.00, 
2594.00, 
2595.00, 
2596.00, 
2597.00, 
2598.00, 
2599.00, 
2600.00, 
