"1bP4 - RawData"
"Wavelength nm.","T%"
200.00,-0.001
201.00,0.002
202.00,0.001
203.00,-0.002
204.00,0.001
205.00,-0.000
206.00,-0.001
207.00,0.000
208.00,-0.002
209.00,0.001
210.00,-0.000
211.00,-0.001
212.00,0.000
213.00,-0.001
214.00,-0.000
215.00,-0.001
216.00,0.002
217.00,0.000
218.00,0.001
219.00,0.002
220.00,-0.001
221.00,0.003
222.00,-0.000
223.00,-0.001
224.00,-0.000
225.00,0.001
226.00,0.000
227.00,0.001
228.00,0.001
229.00,0.004
230.00,-0.000
231.00,0.000
232.00,-0.000
233.00,0.001
234.00,0.002
235.00,-0.004
236.00,-0.000
237.00,-0.000
238.00,-0.000
239.00,-0.000
240.00,0.001
241.00,0.001
242.00,0.002
243.00,0.001
244.00,-0.001
245.00,-0.001
246.00,0.002
247.00,0.001
248.00,-0.001
249.00,-0.003
250.00,0.001
251.00,0.000
252.00,-0.000
253.00,0.001
254.00,-0.001
255.00,-0.000
256.00,0.001
257.00,-0.002
258.00,-0.000
259.00,-0.002
260.00,0.001
261.00,0.000
262.00,0.000
263.00,-0.000
264.00,-0.001
265.00,0.000
266.00,0.000
267.00,-0.001
268.00,0.001
269.00,-0.002
270.00,-0.001
271.00,-0.000
272.00,0.001
273.00,-0.001
274.00,-0.000
275.00,-0.001
276.00,0.001
277.00,0.000
278.00,-0.001
279.00,-0.002
280.00,-0.001
281.00,-0.000
282.00,0.001
283.00,0.001
284.00,0.002
285.00,0.001
286.00,0.002
287.00,-0.001
288.00,-0.002
289.00,0.000
290.00,-0.002
291.00,-0.001
292.00,0.000
293.00,-0.000
294.00,-0.000
295.00,0.000
296.00,-0.001
297.00,-0.002
298.00,0.000
299.00,0.003
300.00,0.003
301.00,0.003
302.00,0.006
303.00,0.007
304.00,0.011
305.00,0.017
306.00,0.029
307.00,0.042
308.00,0.062
309.00,0.095
310.00,0.127
311.00,0.177
312.00,0.236
313.00,0.313
314.00,0.415
315.00,0.530
316.00,0.655
317.00,0.811
318.00,0.985
319.00,1.196
320.00,1.431
321.00,1.688
322.00,1.966
323.00,2.283
324.00,2.603
325.00,2.929
326.00,3.266
327.00,3.643
328.00,4.039
329.00,4.420
330.00,4.805
331.00,5.198
332.00,5.594
333.00,6.010
334.00,6.374
335.00,6.772
336.00,7.171
337.00,7.488
338.00,7.880
339.00,8.186
340.00,8.527
341.00,8.873
342.00,9.147
343.00,9.475
344.00,9.673
345.00,9.930
346.00,10.157
347.00,10.361
348.00,10.556
349.00,10.716
350.00,10.921
351.00,11.069
352.00,11.212
353.00,11.347
354.00,11.454
355.00,11.602
356.00,11.706
357.00,11.773
358.00,11.835
359.00,11.907
360.00,11.933
361.00,11.975
362.00,11.994
363.00,11.997
364.00,12.004
365.00,12.017
366.00,12.033
367.00,12.024
368.00,12.028
369.00,12.030
370.00,12.021
371.00,12.045
372.00,11.991
373.00,11.988
374.00,11.885
375.00,11.832
376.00,11.789
377.00,11.717
378.00,11.658
379.00,11.603
380.00,11.559
381.00,11.504
382.00,11.488
383.00,11.450
384.00,11.446
385.00,11.436
386.00,11.400
387.00,11.401
388.00,11.371
389.00,11.377
390.00,11.361
391.00,11.343
392.00,11.332
393.00,11.324
394.00,11.277
395.00,11.248
396.00,11.221
397.00,11.183
398.00,11.171
399.00,11.170
400.00,11.138
401.00,11.147
402.00,11.112
403.00,11.106
404.00,11.069
405.00,11.026
406.00,11.025
407.00,10.964
408.00,10.969
409.00,10.958
410.00,10.951
411.00,10.943
412.00,10.921
413.00,10.973
414.00,10.988
415.00,10.969
416.00,10.988
417.00,10.942
418.00,10.905
419.00,10.921
420.00,10.923
421.00,10.941
422.00,10.973
423.00,10.957
424.00,10.972
425.00,10.996
426.00,11.013
427.00,11.032
428.00,11.045
429.00,11.089
430.00,11.115
431.00,11.152
432.00,11.183
433.00,11.226
434.00,11.249
435.00,11.318
436.00,11.373
437.00,11.401
438.00,11.467
439.00,11.501
440.00,11.571
441.00,11.624
442.00,11.688
443.00,11.733
444.00,11.802
445.00,11.869
446.00,11.968
447.00,12.012
448.00,12.087
449.00,12.180
450.00,12.263
451.00,12.371
452.00,12.440
453.00,12.496
454.00,12.605
455.00,12.703
456.00,12.777
457.00,12.877
458.00,12.950
459.00,13.042
460.00,13.136
461.00,13.216
462.00,13.295
463.00,13.405
464.00,13.505
465.00,13.598
466.00,13.713
467.00,13.879
468.00,14.067
469.00,14.171
470.00,14.136
471.00,14.304
472.00,14.452
473.00,14.550
474.00,14.721
475.00,14.884
476.00,15.025
477.00,15.138
478.00,15.218
479.00,15.403
480.00,15.572
481.00,15.699
482.00,15.816
483.00,15.940
484.00,16.010
485.00,16.287
486.00,16.438
487.00,16.612
488.00,16.727
489.00,16.891
490.00,16.967
491.00,17.163
492.00,17.324
493.00,17.469
494.00,17.493
495.00,17.726
496.00,17.799
497.00,17.916
498.00,18.015
499.00,18.205
500.00,18.275
501.00,18.480
502.00,18.592
503.00,18.782
504.00,18.881
505.00,19.046
506.00,19.223
507.00,19.276
508.00,19.380
509.00,19.537
510.00,19.645
511.00,19.898
512.00,20.120
513.00,20.179
514.00,20.315
515.00,20.362
516.00,20.478
517.00,20.610
518.00,20.692
519.00,20.810
520.00,20.943
521.00,21.029
522.00,21.192
523.00,21.383
524.00,21.421
525.00,21.594
526.00,21.683
527.00,21.728
528.00,21.822
529.00,21.957
530.00,22.006
531.00,22.111
532.00,22.029
533.00,22.195
534.00,22.357
535.00,22.464
536.00,22.593
537.00,22.622
538.00,22.814
539.00,22.897
540.00,22.993
541.00,23.124
542.00,23.118
543.00,23.267
544.00,23.363
545.00,23.493
546.00,23.529
547.00,23.649
548.00,23.721
549.00,23.792
550.00,23.882
551.00,23.852
552.00,23.987
553.00,23.975
554.00,24.021
555.00,24.098
556.00,24.137
557.00,24.311
558.00,24.371
559.00,24.492
560.00,24.524
561.00,24.541
562.00,24.631
563.00,24.691
564.00,24.791
565.00,24.834
566.00,24.864
567.00,24.992
568.00,25.033
569.00,25.129
570.00,25.087
571.00,25.111
572.00,25.240
573.00,25.159
574.00,25.261
575.00,25.277
576.00,25.306
577.00,25.429
578.00,25.536
579.00,25.602
580.00,25.629
581.00,25.708
582.00,25.834
583.00,25.862
584.00,26.007
585.00,26.039
586.00,26.050
587.00,26.184
588.00,26.268
589.00,26.320
590.00,26.412
591.00,26.465
592.00,26.494
593.00,26.561
594.00,26.612
595.00,26.705
596.00,26.841
597.00,26.785
598.00,26.810
599.00,26.818
600.00,26.749
601.00,26.873
602.00,26.885
603.00,26.893
604.00,27.009
605.00,27.072
606.00,27.204
607.00,27.300
608.00,27.278
609.00,27.551
610.00,27.488
611.00,27.465
612.00,27.582
613.00,27.592
614.00,27.736
615.00,27.757
616.00,27.774
617.00,27.751
618.00,27.817
619.00,27.865
620.00,27.931
621.00,28.073
622.00,28.144
623.00,28.201
624.00,28.315
625.00,28.404
626.00,28.503
627.00,28.641
628.00,28.689
629.00,28.735
630.00,28.852
631.00,28.958
632.00,28.998
633.00,29.176
634.00,29.257
635.00,29.260
636.00,29.347
637.00,29.393
638.00,29.484
639.00,29.563
640.00,29.734
641.00,29.864
642.00,29.984
643.00,30.082
644.00,30.146
645.00,30.199
646.00,30.328
647.00,30.507
648.00,30.629
649.00,30.896
650.00,30.926
651.00,30.981
652.00,30.991
653.00,31.204
654.00,31.351
655.00,31.638
656.00,31.590
657.00,32.404
658.00,32.432
659.00,32.262
660.00,32.066
661.00,32.263
662.00,32.443
663.00,32.622
664.00,32.686
665.00,32.436
666.00,32.912
667.00,33.234
668.00,33.202
669.00,33.057
670.00,33.430
671.00,33.209
672.00,33.630
673.00,33.707
674.00,33.571
675.00,33.992
676.00,34.018
677.00,34.140
678.00,34.588
679.00,34.584
680.00,34.871
681.00,35.216
682.00,35.665
683.00,35.532
684.00,35.370
685.00,35.532
686.00,35.536
687.00,35.689
688.00,35.912
689.00,36.108
690.00,36.066
691.00,36.509
692.00,36.429
693.00,36.393
694.00,36.865
695.00,36.691
696.00,36.901
697.00,37.105
698.00,37.156
699.00,37.072
700.00,37.219
701.00,37.663
702.00,38.031
703.00,38.178
704.00,38.554
705.00,38.397
706.00,38.300
707.00,38.345
708.00,38.343
709.00,38.611
710.00,38.529
711.00,38.731
712.00,39.401
713.00,39.315
714.00,39.191
715.00,39.669
716.00,39.909
717.00,39.851
718.00,39.964
719.00,40.273
720.00,40.717
721.00,44.698
722.00,44.741
723.00,44.834
724.00,44.908
725.00,45.018
726.00,45.109
727.00,45.202
728.00,45.250
729.00,45.400
730.00,45.525
731.00,45.607
732.00,45.715
733.00,45.789
734.00,45.904
735.00,46.016
736.00,46.141
737.00,46.232
738.00,46.380
739.00,46.477
740.00,46.530
741.00,46.642
742.00,46.733
743.00,46.837
744.00,46.788
745.00,46.851
746.00,46.936
747.00,47.028
748.00,47.064
749.00,47.167
750.00,47.223
751.00,47.270
752.00,47.408
753.00,47.318
754.00,47.381
755.00,47.371
756.00,47.509
757.00,47.511
758.00,47.604
759.00,47.735
760.00,47.718
761.00,47.821
762.00,47.876
763.00,48.010
764.00,48.067
765.00,48.096
766.00,48.134
767.00,48.123
768.00,48.238
769.00,48.209
770.00,48.348
771.00,48.295
772.00,48.467
773.00,48.494
774.00,48.569
775.00,48.619
776.00,48.646
777.00,48.719
778.00,48.664
779.00,48.789
780.00,48.811
781.00,48.969
782.00,48.926
783.00,48.915
784.00,49.016
785.00,48.907
786.00,49.014
787.00,49.027
788.00,49.082
789.00,49.147
790.00,49.106
791.00,49.142
792.00,49.071
793.00,49.257
794.00,49.225
795.00,49.299
796.00,49.324
797.00,49.249
798.00,49.272
799.00,49.194
800.00,49.253
801.00,49.143
802.00,49.115
803.00,49.231
804.00,49.195
805.00,49.300
806.00,49.186
807.00,49.335
808.00,49.384
809.00,49.304
810.00,49.361
811.00,49.292
812.00,49.494
813.00,49.444
814.00,49.393
815.00,49.491
816.00,49.382
817.00,49.461
818.00,49.280
819.00,49.440
820.00,49.438
821.00,49.332
822.00,49.459
823.00,49.504
824.00,49.643
825.00,49.366
826.00,49.310
827.00,49.485
828.00,49.292
829.00,49.498
830.00,49.410
831.00,51.987
832.00,52.013
833.00,52.028
834.00,51.978
835.00,52.053
836.00,52.000
837.00,51.996
838.00,51.997
839.00,52.038
840.00,52.061
841.00,52.069
842.00,52.060
843.00,52.004
844.00,52.041
845.00,51.922
846.00,51.958
847.00,51.847
848.00,51.993
849.00,52.065
850.00,51.980
851.00,51.994
852.00,51.934
853.00,52.008
854.00,51.954
855.00,51.946
856.00,51.860
857.00,51.841
858.00,51.955
859.00,51.942
860.00,51.928
861.00,51.860
862.00,51.910
863.00,51.878
864.00,51.974
865.00,51.854
866.00,51.881
867.00,51.857
868.00,51.954
869.00,51.938
870.00,51.868
871.00,51.899
872.00,51.909
873.00,51.894
874.00,51.783
875.00,51.852
876.00,51.800
877.00,51.901
878.00,51.787
879.00,51.891
880.00,51.876
881.00,51.889
882.00,51.786
883.00,51.911
884.00,51.864
885.00,51.852
886.00,51.776
887.00,51.760
888.00,51.829
889.00,51.797
890.00,51.684
891.00,51.723
892.00,51.770
893.00,51.740
894.00,51.663
895.00,51.700
896.00,51.765
897.00,51.703
898.00,51.622
899.00,51.541
900.00,51.593
901.00,51.583
902.00,51.529
903.00,51.653
904.00,51.723
905.00,51.626
906.00,51.520
907.00,51.554
908.00,51.675
909.00,51.597
910.00,51.510
911.00,51.395
912.00,51.485
913.00,51.433
914.00,51.470
915.00,51.571
916.00,51.698
917.00,51.567
918.00,51.431
919.00,51.528
920.00,51.627
921.00,51.469
922.00,51.380
923.00,51.427
924.00,51.602
925.00,51.402
926.00,51.296
927.00,51.339
928.00,51.505
929.00,51.336
930.00,51.272
931.00,51.265
932.00,51.382
933.00,51.257
934.00,51.256
935.00,51.300
936.00,51.351
937.00,51.212
938.00,51.111
939.00,51.205
940.00,51.304
941.00,51.172
942.00,51.068
943.00,51.127
944.00,51.215
945.00,51.142
946.00,51.080
947.00,51.114
948.00,51.086
949.00,51.050
950.00,50.974
951.00,51.044
952.00,51.056
953.00,51.024
954.00,50.890
955.00,50.948
956.00,50.946
957.00,50.888
958.00,50.845
959.00,50.906
960.00,50.840
961.00,50.822
962.00,50.792
963.00,50.796
964.00,50.813
965.00,50.768
966.00,50.760
967.00,50.755
968.00,50.824
969.00,50.732
970.00,50.714
971.00,50.761
972.00,50.811
973.00,50.770
974.00,50.780
975.00,50.822
976.00,50.753
977.00,50.790
978.00,50.798
979.00,50.846
980.00,50.817
981.00,50.768
982.00,50.777
983.00,50.726
984.00,50.779
985.00,50.751
986.00,50.789
987.00,50.770
988.00,50.734
989.00,50.729
990.00,50.723
991.00,50.722
992.00,50.712
993.00,50.731
994.00,50.688
995.00,50.653
996.00,50.681
997.00,50.649
998.00,50.678
999.00,50.650
1000.00,50.662
1001.00,50.644
1002.00,50.596
1003.00,50.606
1004.00,50.591
1005.00,50.570
1006.00,50.562
1007.00,50.612
1008.00,50.572
1009.00,50.549
1010.00,50.538
1011.00,50.506
1012.00,50.528
1013.00,50.499
1014.00,50.520
1015.00,50.489
1016.00,50.462
1017.00,50.457
1018.00,50.418
1019.00,50.439
1020.00,50.432
1021.00,50.423
1022.00,50.399
1023.00,50.372
1024.00,50.327
1025.00,50.339
1026.00,50.372
1027.00,50.327
1028.00,50.320
1029.00,50.310
1030.00,50.310
1031.00,50.275
1032.00,50.228
1033.00,50.230
1034.00,50.233
1035.00,50.189
1036.00,50.127
1037.00,50.147
1038.00,50.134
1039.00,50.122
1040.00,50.087
1041.00,50.026
1042.00,50.019
1043.00,50.024
1044.00,50.084
1045.00,50.039
1046.00,50.021
1047.00,50.034
1048.00,50.086
1049.00,50.088
1050.00,50.124
1051.00,50.123
1052.00,50.157
1053.00,50.156
1054.00,50.196
1055.00,50.178
1056.00,50.195
1057.00,50.223
1058.00,50.179
1059.00,50.180
1060.00,50.199
1061.00,50.178
1062.00,50.168
1063.00,50.162
1064.00,50.131
1065.00,50.177
1066.00,50.154
1067.00,50.162
1068.00,50.139
1069.00,50.146
1070.00,50.110
1071.00,50.101
1072.00,50.105
1073.00,50.106
1074.00,50.084
1075.00,50.067
1076.00,50.075
1077.00,50.074
1078.00,50.067
1079.00,50.047
1080.00,50.053
1081.00,50.044
1082.00,50.048
1083.00,50.025
1084.00,50.052
1085.00,50.032
1086.00,50.036
1087.00,50.012
1088.00,50.016
1089.00,50.013
1090.00,50.023
1091.00,49.999
1092.00,50.008
1093.00,49.973
1094.00,49.971
1095.00,49.947
1096.00,49.951
1097.00,49.934
1098.00,49.934
1099.00,49.897
1100.00,49.917
1101.00,49.903
1102.00,49.890
1103.00,49.888
1104.00,49.891
1105.00,49.862
1106.00,49.858
1107.00,49.838
1108.00,49.859
1109.00,49.823
1110.00,49.839
1111.00,49.822
1112.00,49.794
1113.00,49.792
1114.00,49.807
1115.00,49.805
1116.00,49.786
1117.00,49.758
1118.00,49.769
1119.00,49.740
1120.00,49.774
1121.00,49.782
1122.00,49.778
1123.00,49.707
1124.00,49.710
1125.00,49.711
1126.00,49.761
1127.00,49.744
1128.00,49.736
1129.00,49.695
1130.00,49.698
1131.00,49.663
1132.00,49.647
1133.00,49.712
1134.00,49.680
1135.00,49.578
1136.00,49.660
1137.00,49.658
1138.00,49.682
1139.00,49.671
1140.00,49.671
1141.00,49.652
1142.00,49.658
1143.00,49.677
1144.00,49.649
1145.00,49.628
1146.00,49.605
1147.00,49.593
1148.00,49.629
1149.00,49.647
1150.00,49.653
1151.00,49.659
1152.00,49.643
1153.00,49.619
1154.00,49.611
1155.00,49.633
1156.00,49.631
1157.00,49.624
1158.00,49.608
1159.00,49.597
1160.00,49.586
1161.00,49.619
1162.00,49.611
1163.00,49.602
1164.00,49.594
1165.00,49.589
1166.00,49.583
1167.00,49.590
1168.00,49.591
1169.00,49.595
1170.00,49.565
1171.00,49.555
1172.00,49.562
1173.00,49.559
1174.00,49.571
1175.00,49.565
1176.00,49.579
1177.00,49.564
1178.00,49.560
1179.00,49.577
1180.00,49.594
1181.00,49.581
1182.00,49.569
1183.00,49.571
1184.00,49.564
1185.00,49.573
1186.00,49.568
1187.00,49.585
1188.00,49.573
1189.00,49.568
1190.00,49.544
1191.00,49.578
1192.00,49.582
1193.00,49.572
1194.00,49.568
1195.00,49.550
1196.00,49.550
1197.00,49.560
1198.00,49.575
1199.00,49.538
1200.00,49.563
1201.00,49.582
1202.00,49.545
1203.00,49.551
1204.00,49.548
1205.00,49.561
1206.00,49.555
1207.00,49.559
1208.00,49.526
1209.00,49.557
1210.00,49.554
1211.00,49.548
1212.00,49.540
1213.00,49.529
1214.00,49.563
1215.00,49.536
1216.00,49.574
1217.00,49.558
1218.00,49.557
1219.00,49.552
1220.00,49.539
1221.00,49.575
1222.00,49.556
1223.00,49.558
1224.00,49.544
1225.00,49.542
1226.00,49.527
1227.00,49.540
1228.00,49.557
1229.00,49.557
1230.00,49.591
1231.00,49.569
1232.00,49.590
1233.00,49.591
1234.00,49.600
1235.00,49.608
1236.00,49.612
1237.00,49.588
1238.00,49.606
1239.00,49.606
1240.00,49.594
1241.00,49.598
1242.00,49.612
1243.00,49.613
1244.00,49.583
1245.00,49.616
1246.00,49.632
1247.00,49.649
1248.00,49.630
1249.00,49.635
1250.00,49.625
1251.00,49.620
1252.00,49.627
1253.00,49.621
1254.00,49.644
1255.00,49.606
1256.00,49.558
1257.00,49.602
1258.00,49.681
1259.00,49.686
1260.00,49.678
1261.00,49.659
1262.00,49.662
1263.00,49.656
1264.00,49.680
1265.00,49.687
1266.00,49.683
1267.00,49.685
1268.00,49.686
1269.00,49.678
1270.00,49.724
1271.00,49.721
1272.00,49.716
1273.00,49.717
1274.00,49.720
1275.00,49.715
1276.00,49.723
1277.00,49.725
1278.00,49.763
1279.00,49.758
1280.00,49.722
1281.00,49.730
1282.00,49.739
1283.00,49.719
1284.00,49.698
1285.00,49.696
1286.00,49.746
1287.00,49.761
1288.00,49.750
1289.00,49.747
1290.00,49.804
1291.00,49.795
1292.00,49.790
1293.00,49.785
1294.00,49.786
1295.00,49.815
1296.00,49.814
1297.00,49.817
1298.00,49.821
1299.00,49.790
1300.00,49.811
1301.00,49.822
1302.00,49.877
1303.00,49.846
1304.00,49.834
1305.00,49.860
1306.00,49.839
1307.00,49.832
1308.00,49.821
1309.00,49.879
1310.00,49.917
1311.00,49.843
1312.00,49.820
1313.00,49.869
1314.00,49.917
1315.00,49.930
1316.00,49.932
1317.00,49.948
1318.00,49.961
1319.00,49.951
1320.00,49.974
1321.00,50.049
1322.00,50.106
1323.00,50.068
1324.00,50.033
1325.00,50.067
1326.00,50.143
1327.00,50.061
1328.00,50.019
1329.00,50.054
1330.00,50.089
1331.00,50.043
1332.00,50.000
1333.00,50.070
1334.00,50.141
1335.00,50.117
1336.00,50.059
1337.00,50.190
1338.00,50.281
1339.00,50.284
1340.00,50.344
1341.00,50.392
1342.00,50.456
1343.00,50.535
1344.00,50.613
1345.00,50.660
1346.00,50.658
1347.00,50.701
1348.00,50.753
1349.00,50.775
1350.00,50.687
1351.00,50.619
1352.00,50.536
1353.00,50.591
1354.00,50.913
1355.00,50.805
1356.00,50.866
1357.00,50.845
1358.00,50.728
1359.00,50.277
1360.00,49.968
1361.00,50.285
1362.00,50.458
1363.00,51.328
1364.00,51.575
1365.00,50.973
1366.00,50.903
1367.00,50.728
1368.00,50.709
1369.00,50.902
1370.00,50.913
1371.00,50.869
1372.00,50.940
1373.00,50.914
1374.00,50.751
1375.00,50.719
1376.00,50.722
1377.00,50.681
1378.00,50.766
1379.00,50.700
1380.00,50.528
1381.00,50.876
1382.00,50.943
1383.00,50.703
1384.00,51.166
1385.00,50.759
1386.00,50.664
1387.00,50.827
1388.00,51.019
1389.00,50.838
1390.00,50.457
1391.00,50.800
1392.00,50.888
1393.00,51.127
1394.00,50.798
1395.00,50.890
1396.00,51.272
1397.00,51.196
1398.00,51.208
1399.00,51.289
1400.00,51.262
1401.00,50.756
1402.00,50.749
1403.00,50.826
1404.00,50.801
1405.00,50.883
1406.00,50.603
1407.00,50.799
1408.00,50.853
1409.00,50.853
1410.00,50.739
1411.00,50.688
1412.00,50.643
1413.00,50.607
1414.00,50.633
1415.00,50.874
1416.00,50.880
1417.00,51.010
1418.00,50.913
1419.00,50.783
1420.00,50.893
1421.00,50.960
1422.00,50.881
1423.00,50.821
1424.00,50.912
1425.00,50.897
1426.00,50.891
1427.00,50.939
1428.00,50.957
1429.00,50.962
1430.00,50.970
1431.00,50.939
1432.00,51.018
1433.00,51.054
1434.00,51.006
1435.00,51.070
1436.00,51.037
1437.00,51.010
1438.00,51.049
1439.00,51.101
1440.00,51.118
1441.00,51.132
1442.00,51.131
1443.00,51.162
1444.00,51.157
1445.00,51.099
1446.00,51.145
1447.00,51.223
1448.00,51.260
1449.00,51.260
1450.00,51.218
1451.00,51.252
1452.00,51.260
1453.00,51.297
1454.00,51.307
1455.00,51.294
1456.00,51.304
1457.00,51.316
1458.00,51.308
1459.00,51.383
1460.00,51.372
1461.00,51.367
1462.00,51.397
1463.00,51.369
1464.00,51.377
1465.00,51.411
1466.00,51.422
1467.00,51.448
1468.00,51.481
1469.00,51.458
1470.00,51.483
1471.00,51.503
1472.00,51.533
1473.00,51.549
1474.00,51.566
1475.00,51.560
1476.00,51.552
1477.00,51.546
1478.00,51.569
1479.00,51.603
1480.00,51.609
1481.00,51.598
1482.00,51.616
1483.00,51.621
1484.00,51.655
1485.00,51.657
1486.00,51.659
1487.00,51.679
1488.00,51.684
1489.00,51.689
1490.00,51.693
1491.00,51.724
1492.00,51.733
1493.00,51.714
1494.00,51.739
1495.00,51.733
1496.00,51.767
1497.00,51.755
1498.00,51.743
1499.00,51.793
1500.00,51.794
1501.00, 
1502.00, 
1503.00, 
1504.00, 
1505.00, 
1506.00, 
1507.00, 
1508.00, 
1509.00, 
1510.00, 
1511.00, 
1512.00, 
1513.00, 
1514.00, 
1515.00, 
1516.00, 
1517.00, 
1518.00, 
1519.00, 
1520.00, 
1521.00, 
1522.00, 
1523.00, 
1524.00, 
1525.00, 
1526.00, 
1527.00, 
1528.00, 
1529.00, 
1530.00, 
1531.00, 
1532.00, 
1533.00, 
1534.00, 
1535.00, 
1536.00, 
1537.00, 
1538.00, 
1539.00, 
1540.00, 
1541.00, 
1542.00, 
1543.00, 
1544.00, 
1545.00, 
1546.00, 
1547.00, 
1548.00, 
1549.00, 
1550.00, 
1551.00, 
1552.00, 
1553.00, 
1554.00, 
1555.00, 
1556.00, 
1557.00, 
1558.00, 
1559.00, 
1560.00, 
1561.00, 
1562.00, 
1563.00, 
1564.00, 
1565.00, 
1566.00, 
1567.00, 
1568.00, 
1569.00, 
1570.00, 
1571.00, 
1572.00, 
1573.00, 
1574.00, 
1575.00, 
1576.00, 
1577.00, 
1578.00, 
1579.00, 
1580.00, 
1581.00, 
1582.00, 
1583.00, 
1584.00, 
1585.00, 
1586.00, 
1587.00, 
1588.00, 
1589.00, 
1590.00, 
1591.00, 
1592.00, 
1593.00, 
1594.00, 
1595.00, 
1596.00, 
1597.00, 
1598.00, 
1599.00, 
1600.00, 
1601.00, 
1602.00, 
1603.00, 
1604.00, 
1605.00, 
1606.00, 
1607.00, 
1608.00, 
1609.00, 
1610.00, 
1611.00, 
1612.00, 
1613.00, 
1614.00, 
1615.00, 
1616.00, 
1617.00, 
1618.00, 
1619.00, 
1620.00, 
1621.00, 
1622.00, 
1623.00, 
1624.00, 
1625.00, 
1626.00, 
1627.00, 
1628.00, 
1629.00, 
1630.00, 
1631.00, 
1632.00, 
1633.00, 
1634.00, 
1635.00, 
1636.00, 
1637.00, 
1638.00, 
1639.00, 
1640.00, 
1641.00, 
1642.00, 
1643.00, 
1644.00, 
1645.00, 
1646.00, 
1647.00, 
1648.00, 
1649.00, 
1650.00, 
1651.00, 
1652.00, 
1653.00, 
1654.00, 
1655.00, 
1656.00, 
1657.00, 
1658.00, 
1659.00, 
1660.00, 
1661.00, 
1662.00, 
1663.00, 
1664.00, 
1665.00, 
1666.00, 
1667.00, 
1668.00, 
1669.00, 
1670.00, 
1671.00, 
1672.00, 
1673.00, 
1674.00, 
1675.00, 
1676.00, 
1677.00, 
1678.00, 
1679.00, 
1680.00, 
1681.00, 
1682.00, 
1683.00, 
1684.00, 
1685.00, 
1686.00, 
1687.00, 
1688.00, 
1689.00, 
1690.00, 
1691.00, 
1692.00, 
1693.00, 
1694.00, 
1695.00, 
1696.00, 
1697.00, 
1698.00, 
1699.00, 
1700.00, 
1701.00, 
1702.00, 
1703.00, 
1704.00, 
1705.00, 
1706.00, 
1707.00, 
1708.00, 
1709.00, 
1710.00, 
1711.00, 
1712.00, 
1713.00, 
1714.00, 
1715.00, 
1716.00, 
1717.00, 
1718.00, 
1719.00, 
1720.00, 
1721.00, 
1722.00, 
1723.00, 
1724.00, 
1725.00, 
1726.00, 
1727.00, 
1728.00, 
1729.00, 
1730.00, 
1731.00, 
1732.00, 
1733.00, 
1734.00, 
1735.00, 
1736.00, 
1737.00, 
1738.00, 
1739.00, 
1740.00, 
1741.00, 
1742.00, 
1743.00, 
1744.00, 
1745.00, 
1746.00, 
1747.00, 
1748.00, 
1749.00, 
1750.00, 
1751.00, 
1752.00, 
1753.00, 
1754.00, 
1755.00, 
1756.00, 
1757.00, 
1758.00, 
1759.00, 
1760.00, 
1761.00, 
1762.00, 
1763.00, 
1764.00, 
1765.00, 
1766.00, 
1767.00, 
1768.00, 
1769.00, 
1770.00, 
1771.00, 
1772.00, 
1773.00, 
1774.00, 
1775.00, 
1776.00, 
1777.00, 
1778.00, 
1779.00, 
1780.00, 
1781.00, 
1782.00, 
1783.00, 
1784.00, 
1785.00, 
1786.00, 
1787.00, 
1788.00, 
1789.00, 
1790.00, 
1791.00, 
1792.00, 
1793.00, 
1794.00, 
1795.00, 
1796.00, 
1797.00, 
1798.00, 
1799.00, 
1800.00, 
1801.00, 
1802.00, 
1803.00, 
1804.00, 
1805.00, 
1806.00, 
1807.00, 
1808.00, 
1809.00, 
1810.00, 
1811.00, 
1812.00, 
1813.00, 
1814.00, 
1815.00, 
1816.00, 
1817.00, 
1818.00, 
1819.00, 
1820.00, 
1821.00, 
1822.00, 
1823.00, 
1824.00, 
1825.00, 
1826.00, 
1827.00, 
1828.00, 
1829.00, 
1830.00, 
1831.00, 
1832.00, 
1833.00, 
1834.00, 
1835.00, 
1836.00, 
1837.00, 
1838.00, 
1839.00, 
1840.00, 
1841.00, 
1842.00, 
1843.00, 
1844.00, 
1845.00, 
1846.00, 
1847.00, 
1848.00, 
1849.00, 
1850.00, 
1851.00, 
1852.00, 
1853.00, 
1854.00, 
1855.00, 
1856.00, 
1857.00, 
1858.00, 
1859.00, 
1860.00, 
1861.00, 
1862.00, 
1863.00, 
1864.00, 
1865.00, 
1866.00, 
1867.00, 
1868.00, 
1869.00, 
1870.00, 
1871.00, 
1872.00, 
1873.00, 
1874.00, 
1875.00, 
1876.00, 
1877.00, 
1878.00, 
1879.00, 
1880.00, 
1881.00, 
1882.00, 
1883.00, 
1884.00, 
1885.00, 
1886.00, 
1887.00, 
1888.00, 
1889.00, 
1890.00, 
1891.00, 
1892.00, 
1893.00, 
1894.00, 
1895.00, 
1896.00, 
1897.00, 
1898.00, 
1899.00, 
1900.00, 
1901.00, 
1902.00, 
1903.00, 
1904.00, 
1905.00, 
1906.00, 
1907.00, 
1908.00, 
1909.00, 
1910.00, 
1911.00, 
1912.00, 
1913.00, 
1914.00, 
1915.00, 
1916.00, 
1917.00, 
1918.00, 
1919.00, 
1920.00, 
1921.00, 
1922.00, 
1923.00, 
1924.00, 
1925.00, 
1926.00, 
1927.00, 
1928.00, 
1929.00, 
1930.00, 
1931.00, 
1932.00, 
1933.00, 
1934.00, 
1935.00, 
1936.00, 
1937.00, 
1938.00, 
1939.00, 
1940.00, 
1941.00, 
1942.00, 
1943.00, 
1944.00, 
1945.00, 
1946.00, 
1947.00, 
1948.00, 
1949.00, 
1950.00, 
1951.00, 
1952.00, 
1953.00, 
1954.00, 
1955.00, 
1956.00, 
1957.00, 
1958.00, 
1959.00, 
1960.00, 
1961.00, 
1962.00, 
1963.00, 
1964.00, 
1965.00, 
1966.00, 
1967.00, 
1968.00, 
1969.00, 
1970.00, 
1971.00, 
1972.00, 
1973.00, 
1974.00, 
1975.00, 
1976.00, 
1977.00, 
1978.00, 
1979.00, 
1980.00, 
1981.00, 
1982.00, 
1983.00, 
1984.00, 
1985.00, 
1986.00, 
1987.00, 
1988.00, 
1989.00, 
1990.00, 
1991.00, 
1992.00, 
1993.00, 
1994.00, 
1995.00, 
1996.00, 
1997.00, 
1998.00, 
1999.00, 
2000.00, 
2001.00, 
2002.00, 
2003.00, 
2004.00, 
2005.00, 
2006.00, 
2007.00, 
2008.00, 
2009.00, 
2010.00, 
2011.00, 
2012.00, 
2013.00, 
2014.00, 
2015.00, 
2016.00, 
2017.00, 
2018.00, 
2019.00, 
2020.00, 
2021.00, 
2022.00, 
2023.00, 
2024.00, 
2025.00, 
2026.00, 
2027.00, 
2028.00, 
2029.00, 
2030.00, 
2031.00, 
2032.00, 
2033.00, 
2034.00, 
2035.00, 
2036.00, 
2037.00, 
2038.00, 
2039.00, 
2040.00, 
2041.00, 
2042.00, 
2043.00, 
2044.00, 
2045.00, 
2046.00, 
2047.00, 
2048.00, 
2049.00, 
2050.00, 
2051.00, 
2052.00, 
2053.00, 
2054.00, 
2055.00, 
2056.00, 
2057.00, 
2058.00, 
2059.00, 
2060.00, 
2061.00, 
2062.00, 
2063.00, 
2064.00, 
2065.00, 
2066.00, 
2067.00, 
2068.00, 
2069.00, 
2070.00, 
2071.00, 
2072.00, 
2073.00, 
2074.00, 
2075.00, 
2076.00, 
2077.00, 
2078.00, 
2079.00, 
2080.00, 
2081.00, 
2082.00, 
2083.00, 
2084.00, 
2085.00, 
2086.00, 
2087.00, 
2088.00, 
2089.00, 
2090.00, 
2091.00, 
2092.00, 
2093.00, 
2094.00, 
2095.00, 
2096.00, 
2097.00, 
2098.00, 
2099.00, 
2100.00, 
2101.00, 
2102.00, 
2103.00, 
2104.00, 
2105.00, 
2106.00, 
2107.00, 
2108.00, 
2109.00, 
2110.00, 
2111.00, 
2112.00, 
2113.00, 
2114.00, 
2115.00, 
2116.00, 
2117.00, 
2118.00, 
2119.00, 
2120.00, 
2121.00, 
2122.00, 
2123.00, 
2124.00, 
2125.00, 
2126.00, 
2127.00, 
2128.00, 
2129.00, 
2130.00, 
2131.00, 
2132.00, 
2133.00, 
2134.00, 
2135.00, 
2136.00, 
2137.00, 
2138.00, 
2139.00, 
2140.00, 
2141.00, 
2142.00, 
2143.00, 
2144.00, 
2145.00, 
2146.00, 
2147.00, 
2148.00, 
2149.00, 
2150.00, 
2151.00, 
2152.00, 
2153.00, 
2154.00, 
2155.00, 
2156.00, 
2157.00, 
2158.00, 
2159.00, 
2160.00, 
2161.00, 
2162.00, 
2163.00, 
2164.00, 
2165.00, 
2166.00, 
2167.00, 
2168.00, 
2169.00, 
2170.00, 
2171.00, 
2172.00, 
2173.00, 
2174.00, 
2175.00, 
2176.00, 
2177.00, 
2178.00, 
2179.00, 
2180.00, 
2181.00, 
2182.00, 
2183.00, 
2184.00, 
2185.00, 
2186.00, 
2187.00, 
2188.00, 
2189.00, 
2190.00, 
2191.00, 
2192.00, 
2193.00, 
2194.00, 
2195.00, 
2196.00, 
2197.00, 
2198.00, 
2199.00, 
2200.00, 
2201.00, 
2202.00, 
2203.00, 
2204.00, 
2205.00, 
2206.00, 
2207.00, 
2208.00, 
2209.00, 
2210.00, 
2211.00, 
2212.00, 
2213.00, 
2214.00, 
2215.00, 
2216.00, 
2217.00, 
2218.00, 
2219.00, 
2220.00, 
2221.00, 
2222.00, 
2223.00, 
2224.00, 
2225.00, 
2226.00, 
2227.00, 
2228.00, 
2229.00, 
2230.00, 
2231.00, 
2232.00, 
2233.00, 
2234.00, 
2235.00, 
2236.00, 
2237.00, 
2238.00, 
2239.00, 
2240.00, 
2241.00, 
2242.00, 
2243.00, 
2244.00, 
2245.00, 
2246.00, 
2247.00, 
2248.00, 
2249.00, 
2250.00, 
2251.00, 
2252.00, 
2253.00, 
2254.00, 
2255.00, 
2256.00, 
2257.00, 
2258.00, 
2259.00, 
2260.00, 
2261.00, 
2262.00, 
2263.00, 
2264.00, 
2265.00, 
2266.00, 
2267.00, 
2268.00, 
2269.00, 
2270.00, 
2271.00, 
2272.00, 
2273.00, 
2274.00, 
2275.00, 
2276.00, 
2277.00, 
2278.00, 
2279.00, 
2280.00, 
2281.00, 
2282.00, 
2283.00, 
2284.00, 
2285.00, 
2286.00, 
2287.00, 
2288.00, 
2289.00, 
2290.00, 
2291.00, 
2292.00, 
2293.00, 
2294.00, 
2295.00, 
2296.00, 
2297.00, 
2298.00, 
2299.00, 
2300.00, 
2301.00, 
2302.00, 
2303.00, 
2304.00, 
2305.00, 
2306.00, 
2307.00, 
2308.00, 
2309.00, 
2310.00, 
2311.00, 
2312.00, 
2313.00, 
2314.00, 
2315.00, 
2316.00, 
2317.00, 
2318.00, 
2319.00, 
2320.00, 
2321.00, 
2322.00, 
2323.00, 
2324.00, 
2325.00, 
2326.00, 
2327.00, 
2328.00, 
2329.00, 
2330.00, 
2331.00, 
2332.00, 
2333.00, 
2334.00, 
2335.00, 
2336.00, 
2337.00, 
2338.00, 
2339.00, 
2340.00, 
2341.00, 
2342.00, 
2343.00, 
2344.00, 
2345.00, 
2346.00, 
2347.00, 
2348.00, 
2349.00, 
2350.00, 
2351.00, 
2352.00, 
2353.00, 
2354.00, 
2355.00, 
2356.00, 
2357.00, 
2358.00, 
2359.00, 
2360.00, 
2361.00, 
2362.00, 
2363.00, 
2364.00, 
2365.00, 
2366.00, 
2367.00, 
2368.00, 
2369.00, 
2370.00, 
2371.00, 
2372.00, 
2373.00, 
2374.00, 
2375.00, 
2376.00, 
2377.00, 
2378.00, 
2379.00, 
2380.00, 
2381.00, 
2382.00, 
2383.00, 
2384.00, 
2385.00, 
2386.00, 
2387.00, 
2388.00, 
2389.00, 
2390.00, 
2391.00, 
2392.00, 
2393.00, 
2394.00, 
2395.00, 
2396.00, 
2397.00, 
2398.00, 
2399.00, 
2400.00, 
2401.00, 
2402.00, 
2403.00, 
2404.00, 
2405.00, 
2406.00, 
2407.00, 
2408.00, 
2409.00, 
2410.00, 
2411.00, 
2412.00, 
2413.00, 
2414.00, 
2415.00, 
2416.00, 
2417.00, 
2418.00, 
2419.00, 
2420.00, 
2421.00, 
2422.00, 
2423.00, 
2424.00, 
2425.00, 
2426.00, 
2427.00, 
2428.00, 
2429.00, 
2430.00, 
2431.00, 
2432.00, 
2433.00, 
2434.00, 
2435.00, 
2436.00, 
2437.00, 
2438.00, 
2439.00, 
2440.00, 
2441.00, 
2442.00, 
2443.00, 
2444.00, 
2445.00, 
2446.00, 
2447.00, 
2448.00, 
2449.00, 
2450.00, 
2451.00, 
2452.00, 
2453.00, 
2454.00, 
2455.00, 
2456.00, 
2457.00, 
2458.00, 
2459.00, 
2460.00, 
2461.00, 
2462.00, 
2463.00, 
2464.00, 
2465.00, 
2466.00, 
2467.00, 
2468.00, 
2469.00, 
2470.00, 
2471.00, 
2472.00, 
2473.00, 
2474.00, 
2475.00, 
2476.00, 
2477.00, 
2478.00, 
2479.00, 
2480.00, 
2481.00, 
2482.00, 
2483.00, 
2484.00, 
2485.00, 
2486.00, 
2487.00, 
2488.00, 
2489.00, 
2490.00, 
2491.00, 
2492.00, 
2493.00, 
2494.00, 
2495.00, 
2496.00, 
2497.00, 
2498.00, 
2499.00, 
2500.00, 
2501.00, 
2502.00, 
2503.00, 
2504.00, 
2505.00, 
2506.00, 
2507.00, 
2508.00, 
2509.00, 
2510.00, 
2511.00, 
2512.00, 
2513.00, 
2514.00, 
2515.00, 
2516.00, 
2517.00, 
2518.00, 
2519.00, 
2520.00, 
2521.00, 
2522.00, 
2523.00, 
2524.00, 
2525.00, 
2526.00, 
2527.00, 
2528.00, 
2529.00, 
2530.00, 
2531.00, 
2532.00, 
2533.00, 
2534.00, 
2535.00, 
2536.00, 
2537.00, 
2538.00, 
2539.00, 
2540.00, 
2541.00, 
2542.00, 
2543.00, 
2544.00, 
2545.00, 
2546.00, 
2547.00, 
2548.00, 
2549.00, 
2550.00, 
2551.00, 
2552.00, 
2553.00, 
2554.00, 
2555.00, 
2556.00, 
2557.00, 
2558.00, 
2559.00, 
2560.00, 
2561.00, 
2562.00, 
2563.00, 
2564.00, 
2565.00, 
2566.00, 
2567.00, 
2568.00, 
2569.00, 
2570.00, 
2571.00, 
2572.00, 
2573.00, 
2574.00, 
2575.00, 
2576.00, 
2577.00, 
2578.00, 
2579.00, 
2580.00, 
2581.00, 
2582.00, 
2583.00, 
2584.00, 
2585.00, 
2586.00, 
2587.00, 
2588.00, 
2589.00, 
2590.00, 
2591.00, 
2592.00, 
2593.00, 
2594.00, 
2595.00, 
2596.00, 
2597.00, 
2598.00, 
2599.00, 
2600.00, 
