"1bP5 - RawData"
"Wavelength nm.","T%"
200.00,0.002
201.00,0.000
202.00,0.002
203.00,0.001
204.00,0.000
205.00,0.003
206.00,0.001
207.00,-0.002
208.00,0.000
209.00,-0.003
210.00,0.000
211.00,-0.002
212.00,0.002
213.00,0.001
214.00,0.001
215.00,0.002
216.00,-0.001
217.00,0.001
218.00,-0.000
219.00,-0.004
220.00,0.002
221.00,0.000
222.00,0.001
223.00,-0.000
224.00,-0.003
225.00,-0.002
226.00,-0.001
227.00,0.002
228.00,0.000
229.00,-0.000
230.00,0.001
231.00,-0.000
232.00,0.000
233.00,-0.001
234.00,-0.000
235.00,0.001
236.00,-0.001
237.00,0.001
238.00,-0.001
239.00,-0.001
240.00,0.001
241.00,0.000
242.00,-0.000
243.00,-0.001
244.00,0.001
245.00,0.000
246.00,0.000
247.00,-0.001
248.00,0.001
249.00,0.000
250.00,-0.001
251.00,0.000
252.00,0.000
253.00,0.001
254.00,0.001
255.00,-0.001
256.00,-0.001
257.00,-0.002
258.00,0.001
259.00,0.001
260.00,-0.001
261.00,-0.000
262.00,-0.000
263.00,-0.002
264.00,0.000
265.00,-0.000
266.00,0.001
267.00,0.000
268.00,0.000
269.00,0.000
270.00,-0.001
271.00,0.001
272.00,-0.001
273.00,0.001
274.00,0.000
275.00,0.000
276.00,-0.002
277.00,-0.001
278.00,-0.001
279.00,0.000
280.00,-0.001
281.00,0.001
282.00,0.001
283.00,-0.001
284.00,-0.000
285.00,0.000
286.00,-0.001
287.00,0.002
288.00,-0.000
289.00,0.001
290.00,0.001
291.00,0.000
292.00,-0.000
293.00,-0.000
294.00,0.001
295.00,-0.002
296.00,0.000
297.00,-0.000
298.00,-0.001
299.00,0.002
300.00,0.003
301.00,0.003
302.00,0.003
303.00,0.007
304.00,0.012
305.00,0.022
306.00,0.029
307.00,0.043
308.00,0.064
309.00,0.098
310.00,0.134
311.00,0.183
312.00,0.244
313.00,0.324
314.00,0.419
315.00,0.541
316.00,0.665
317.00,0.824
318.00,1.005
319.00,1.213
320.00,1.459
321.00,1.724
322.00,2.013
323.00,2.345
324.00,2.670
325.00,2.998
326.00,3.348
327.00,3.730
328.00,4.108
329.00,4.499
330.00,4.920
331.00,5.294
332.00,5.712
333.00,6.150
334.00,6.501
335.00,6.935
336.00,7.328
337.00,7.695
338.00,8.061
339.00,8.375
340.00,8.735
341.00,9.066
342.00,9.336
343.00,9.673
344.00,9.883
345.00,10.127
346.00,10.375
347.00,10.600
348.00,10.822
349.00,10.991
350.00,11.153
351.00,11.308
352.00,11.476
353.00,11.590
354.00,11.719
355.00,11.862
356.00,11.965
357.00,12.020
358.00,12.100
359.00,12.188
360.00,12.199
361.00,12.262
362.00,12.202
363.00,12.245
364.00,12.223
365.00,12.286
366.00,12.266
367.00,12.288
368.00,12.309
369.00,12.271
370.00,12.274
371.00,12.293
372.00,12.231
373.00,12.240
374.00,12.145
375.00,12.078
376.00,12.040
377.00,11.978
378.00,11.911
379.00,11.839
380.00,11.819
381.00,11.745
382.00,11.740
383.00,11.688
384.00,11.685
385.00,11.675
386.00,11.639
387.00,11.634
388.00,11.647
389.00,11.608
390.00,11.613
391.00,11.583
392.00,11.561
393.00,11.547
394.00,11.511
395.00,11.493
396.00,11.471
397.00,11.433
398.00,11.398
399.00,11.396
400.00,11.354
401.00,11.395
402.00,11.338
403.00,11.349
404.00,11.312
405.00,11.251
406.00,11.235
407.00,11.188
408.00,11.205
409.00,11.195
410.00,11.166
411.00,11.169
412.00,11.142
413.00,11.215
414.00,11.233
415.00,11.204
416.00,11.188
417.00,11.144
418.00,11.119
419.00,11.148
420.00,11.133
421.00,11.163
422.00,11.199
423.00,11.182
424.00,11.196
425.00,11.230
426.00,11.252
427.00,11.267
428.00,11.289
429.00,11.325
430.00,11.357
431.00,11.395
432.00,11.416
433.00,11.484
434.00,11.479
435.00,11.556
436.00,11.609
437.00,11.640
438.00,11.696
439.00,11.741
440.00,11.820
441.00,11.871
442.00,11.943
443.00,11.978
444.00,12.060
445.00,12.135
446.00,12.213
447.00,12.288
448.00,12.369
449.00,12.449
450.00,12.555
451.00,12.652
452.00,12.727
453.00,12.824
454.00,12.888
455.00,12.958
456.00,13.071
457.00,13.168
458.00,13.246
459.00,13.339
460.00,13.422
461.00,13.524
462.00,13.605
463.00,13.726
464.00,13.801
465.00,13.919
466.00,14.035
467.00,14.216
468.00,14.398
469.00,14.492
470.00,14.456
471.00,14.634
472.00,14.799
473.00,14.924
474.00,15.057
475.00,15.246
476.00,15.371
477.00,15.518
478.00,15.595
479.00,15.774
480.00,15.951
481.00,16.038
482.00,16.207
483.00,16.320
484.00,16.393
485.00,16.707
486.00,16.774
487.00,17.035
488.00,17.113
489.00,17.293
490.00,17.385
491.00,17.579
492.00,17.774
493.00,17.897
494.00,17.931
495.00,18.190
496.00,18.241
497.00,18.318
498.00,18.487
499.00,18.685
500.00,18.806
501.00,18.979
502.00,19.075
503.00,19.277
504.00,19.387
505.00,19.518
506.00,19.711
507.00,19.831
508.00,19.868
509.00,20.062
510.00,20.209
511.00,20.392
512.00,20.653
513.00,20.669
514.00,20.859
515.00,20.889
516.00,21.034
517.00,21.137
518.00,21.255
519.00,21.361
520.00,21.514
521.00,21.614
522.00,21.771
523.00,21.964
524.00,22.028
525.00,22.180
526.00,22.243
527.00,22.308
528.00,22.390
529.00,22.550
530.00,22.603
531.00,22.699
532.00,22.647
533.00,22.817
534.00,22.991
535.00,23.071
536.00,23.227
537.00,23.268
538.00,23.437
539.00,23.497
540.00,23.654
541.00,23.731
542.00,23.775
543.00,23.895
544.00,23.999
545.00,24.133
546.00,24.219
547.00,24.304
548.00,24.404
549.00,24.455
550.00,24.581
551.00,24.569
552.00,24.678
553.00,24.677
554.00,24.721
555.00,24.788
556.00,24.833
557.00,25.003
558.00,25.064
559.00,25.196
560.00,25.211
561.00,25.250
562.00,25.353
563.00,25.392
564.00,25.480
565.00,25.555
566.00,25.595
567.00,25.692
568.00,25.752
569.00,25.753
570.00,25.651
571.00,25.852
572.00,25.988
573.00,25.913
574.00,25.983
575.00,26.011
576.00,26.049
577.00,26.183
578.00,26.267
579.00,26.364
580.00,26.365
581.00,26.459
582.00,26.574
583.00,26.622
584.00,26.786
585.00,26.800
586.00,26.776
587.00,26.975
588.00,27.021
589.00,27.071
590.00,27.180
591.00,27.221
592.00,27.242
593.00,27.326
594.00,27.393
595.00,27.477
596.00,27.627
597.00,27.568
598.00,27.651
599.00,27.606
600.00,27.558
601.00,27.709
602.00,27.649
603.00,27.807
604.00,27.890
605.00,27.907
606.00,28.043
607.00,28.132
608.00,28.073
609.00,28.339
610.00,28.318
611.00,28.222
612.00,28.414
613.00,28.439
614.00,28.574
615.00,28.611
616.00,28.637
617.00,28.612
618.00,28.639
619.00,28.722
620.00,28.812
621.00,28.910
622.00,29.049
623.00,29.095
624.00,29.223
625.00,29.290
626.00,29.389
627.00,29.557
628.00,29.552
629.00,29.675
630.00,29.840
631.00,29.827
632.00,29.986
633.00,30.108
634.00,30.168
635.00,30.144
636.00,30.296
637.00,30.302
638.00,30.398
639.00,30.527
640.00,30.674
641.00,30.805
642.00,30.901
643.00,31.031
644.00,31.134
645.00,31.132
646.00,31.276
647.00,31.479
648.00,31.601
649.00,31.801
650.00,31.880
651.00,31.941
652.00,32.023
653.00,32.200
654.00,32.334
655.00,32.678
656.00,32.540
657.00,33.530
658.00,33.454
659.00,33.166
660.00,33.019
661.00,33.305
662.00,33.481
663.00,33.679
664.00,33.636
665.00,33.533
666.00,33.997
667.00,34.318
668.00,34.326
669.00,34.101
670.00,34.543
671.00,34.310
672.00,34.757
673.00,34.785
674.00,34.730
675.00,35.055
676.00,35.122
677.00,35.254
678.00,35.748
679.00,35.747
680.00,36.144
681.00,36.460
682.00,36.856
683.00,36.776
684.00,36.619
685.00,36.781
686.00,36.717
687.00,36.891
688.00,37.223
689.00,37.268
690.00,37.208
691.00,37.782
692.00,37.620
693.00,37.669
694.00,38.173
695.00,38.044
696.00,38.127
697.00,38.532
698.00,38.415
699.00,38.409
700.00,39.037
701.00,39.026
702.00,39.255
703.00,39.605
704.00,39.918
705.00,39.757
706.00,39.612
707.00,39.701
708.00,39.656
709.00,39.948
710.00,39.838
711.00,40.078
712.00,40.803
713.00,40.726
714.00,40.636
715.00,41.113
716.00,41.344
717.00,41.228
718.00,41.447
719.00,41.830
720.00,42.141
721.00,45.883
722.00,45.957
723.00,46.006
724.00,46.136
725.00,46.159
726.00,46.339
727.00,46.393
728.00,46.577
729.00,46.648
730.00,46.838
731.00,46.887
732.00,46.963
733.00,47.073
734.00,47.202
735.00,47.318
736.00,47.383
737.00,47.494
738.00,47.661
739.00,47.731
740.00,47.818
741.00,47.915
742.00,48.088
743.00,48.127
744.00,48.106
745.00,48.167
746.00,48.257
747.00,48.416
748.00,48.440
749.00,48.474
750.00,48.604
751.00,48.634
752.00,48.801
753.00,48.750
754.00,48.841
755.00,48.847
756.00,48.942
757.00,48.959
758.00,49.021
759.00,49.084
760.00,49.179
761.00,49.214
762.00,49.309
763.00,49.487
764.00,49.504
765.00,49.492
766.00,49.582
767.00,49.604
768.00,49.659
769.00,49.694
770.00,49.814
771.00,49.790
772.00,49.867
773.00,49.991
774.00,50.073
775.00,50.108
776.00,50.164
777.00,50.153
778.00,50.235
779.00,50.337
780.00,50.370
781.00,50.456
782.00,50.452
783.00,50.438
784.00,50.513
785.00,50.476
786.00,50.551
787.00,50.593
788.00,50.624
789.00,50.682
790.00,50.604
791.00,50.747
792.00,50.654
793.00,50.771
794.00,50.803
795.00,50.795
796.00,50.878
797.00,50.716
798.00,50.781
799.00,50.814
800.00,50.826
801.00,50.690
802.00,50.669
803.00,50.784
804.00,50.788
805.00,50.921
806.00,50.737
807.00,50.897
808.00,50.960
809.00,50.909
810.00,50.956
811.00,50.899
812.00,51.041
813.00,51.008
814.00,50.963
815.00,51.116
816.00,50.988
817.00,51.054
818.00,50.943
819.00,51.032
820.00,51.094
821.00,50.973
822.00,51.040
823.00,51.032
824.00,51.237
825.00,51.011
826.00,50.940
827.00,51.044
828.00,50.846
829.00,51.073
830.00,51.067
831.00,53.536
832.00,53.559
833.00,53.593
834.00,53.556
835.00,53.603
836.00,53.558
837.00,53.618
838.00,53.561
839.00,53.581
840.00,53.637
841.00,53.597
842.00,53.625
843.00,53.612
844.00,53.612
845.00,53.521
846.00,53.544
847.00,53.489
848.00,53.571
849.00,53.648
850.00,53.578
851.00,53.572
852.00,53.507
853.00,53.604
854.00,53.532
855.00,53.532
856.00,53.441
857.00,53.499
858.00,53.518
859.00,53.529
860.00,53.532
861.00,53.463
862.00,53.485
863.00,53.432
864.00,53.537
865.00,53.411
866.00,53.463
867.00,53.421
868.00,53.494
869.00,53.425
870.00,53.585
871.00,53.460
872.00,53.488
873.00,53.486
874.00,53.394
875.00,53.459
876.00,53.412
877.00,53.535
878.00,53.431
879.00,53.523
880.00,53.517
881.00,53.495
882.00,53.335
883.00,53.673
884.00,53.456
885.00,53.461
886.00,53.387
887.00,53.412
888.00,53.484
889.00,53.421
890.00,53.294
891.00,53.325
892.00,53.366
893.00,53.335
894.00,53.283
895.00,53.321
896.00,53.375
897.00,53.320
898.00,53.245
899.00,53.212
900.00,53.220
901.00,53.155
902.00,53.147
903.00,53.257
904.00,53.340
905.00,53.256
906.00,53.142
907.00,53.179
908.00,53.299
909.00,53.242
910.00,53.167
911.00,53.045
912.00,53.104
913.00,53.016
914.00,53.082
915.00,53.203
916.00,53.311
917.00,53.198
918.00,53.067
919.00,53.120
920.00,53.263
921.00,53.116
922.00,53.002
923.00,53.062
924.00,53.234
925.00,53.046
926.00,52.930
927.00,52.968
928.00,53.129
929.00,52.971
930.00,52.899
931.00,52.924
932.00,53.040
933.00,52.908
934.00,53.005
935.00,52.957
936.00,53.025
937.00,52.892
938.00,52.778
939.00,52.876
940.00,52.954
941.00,52.827
942.00,52.744
943.00,52.786
944.00,52.877
945.00,52.786
946.00,52.705
947.00,52.761
948.00,52.723
949.00,52.681
950.00,52.627
951.00,52.675
952.00,52.708
953.00,52.680
954.00,52.538
955.00,52.586
956.00,52.607
957.00,52.527
958.00,52.479
959.00,52.478
960.00,52.468
961.00,52.478
962.00,52.432
963.00,52.438
964.00,52.463
965.00,52.423
966.00,52.423
967.00,52.402
968.00,52.467
969.00,52.361
970.00,52.363
971.00,52.421
972.00,52.422
973.00,52.414
974.00,52.414
975.00,52.452
976.00,52.380
977.00,52.415
978.00,52.427
979.00,52.431
980.00,52.433
981.00,52.407
982.00,52.399
983.00,52.371
984.00,52.444
985.00,52.385
986.00,52.420
987.00,52.397
988.00,52.366
989.00,52.360
990.00,52.333
991.00,52.339
992.00,52.340
993.00,52.349
994.00,52.301
995.00,52.263
996.00,52.283
997.00,52.271
998.00,52.285
999.00,52.282
1000.00,52.298
1001.00,52.275
1002.00,52.242
1003.00,52.272
1004.00,52.215
1005.00,52.216
1006.00,52.193
1007.00,52.234
1008.00,52.214
1009.00,52.191
1010.00,52.175
1011.00,52.138
1012.00,52.149
1013.00,52.126
1014.00,52.148
1015.00,52.125
1016.00,52.144
1017.00,52.123
1018.00,52.094
1019.00,52.095
1020.00,52.051
1021.00,52.087
1022.00,52.071
1023.00,52.045
1024.00,52.008
1025.00,52.018
1026.00,52.026
1027.00,51.998
1028.00,52.002
1029.00,51.977
1030.00,51.969
1031.00,51.944
1032.00,51.934
1033.00,51.896
1034.00,51.895
1035.00,51.847
1036.00,51.791
1037.00,51.791
1038.00,51.790
1039.00,51.771
1040.00,51.737
1041.00,51.698
1042.00,51.690
1043.00,51.681
1044.00,51.743
1045.00,51.697
1046.00,51.679
1047.00,51.695
1048.00,51.752
1049.00,51.756
1050.00,51.780
1051.00,51.775
1052.00,51.805
1053.00,51.814
1054.00,51.832
1055.00,51.822
1056.00,51.821
1057.00,51.846
1058.00,51.826
1059.00,51.822
1060.00,51.819
1061.00,51.818
1062.00,51.810
1063.00,51.805
1064.00,51.773
1065.00,51.821
1066.00,51.792
1067.00,51.783
1068.00,51.766
1069.00,51.788
1070.00,51.758
1071.00,51.749
1072.00,51.745
1073.00,51.745
1074.00,51.720
1075.00,51.712
1076.00,51.698
1077.00,51.718
1078.00,51.706
1079.00,51.685
1080.00,51.681
1081.00,51.670
1082.00,51.689
1083.00,51.676
1084.00,51.693
1085.00,51.683
1086.00,51.676
1087.00,51.660
1088.00,51.662
1089.00,51.650
1090.00,51.661
1091.00,51.628
1092.00,51.659
1093.00,51.671
1094.00,51.624
1095.00,51.597
1096.00,51.601
1097.00,51.586
1098.00,51.580
1099.00,51.561
1100.00,51.573
1101.00,51.554
1102.00,51.547
1103.00,51.536
1104.00,51.556
1105.00,51.523
1106.00,51.517
1107.00,51.510
1108.00,51.505
1109.00,51.494
1110.00,51.501
1111.00,51.464
1112.00,51.453
1113.00,51.451
1114.00,51.459
1115.00,51.457
1116.00,51.454
1117.00,51.405
1118.00,51.404
1119.00,51.385
1120.00,51.400
1121.00,51.431
1122.00,51.414
1123.00,51.350
1124.00,51.371
1125.00,51.364
1126.00,51.408
1127.00,51.395
1128.00,51.376
1129.00,51.342
1130.00,51.357
1131.00,51.326
1132.00,51.316
1133.00,51.379
1134.00,51.339
1135.00,51.249
1136.00,51.326
1137.00,51.346
1138.00,51.345
1139.00,51.329
1140.00,51.326
1141.00,51.288
1142.00,51.312
1143.00,51.344
1144.00,51.308
1145.00,51.283
1146.00,51.278
1147.00,51.249
1148.00,51.278
1149.00,51.295
1150.00,51.298
1151.00,51.313
1152.00,51.291
1153.00,51.268
1154.00,51.272
1155.00,51.269
1156.00,51.282
1157.00,51.266
1158.00,51.248
1159.00,51.256
1160.00,51.246
1161.00,51.260
1162.00,51.252
1163.00,51.253
1164.00,51.246
1165.00,51.253
1166.00,51.237
1167.00,51.248
1168.00,51.259
1169.00,51.253
1170.00,51.247
1171.00,51.229
1172.00,51.226
1173.00,51.240
1174.00,51.247
1175.00,51.231
1176.00,51.233
1177.00,51.212
1178.00,51.210
1179.00,51.237
1180.00,51.248
1181.00,51.239
1182.00,51.239
1183.00,51.242
1184.00,51.252
1185.00,51.252
1186.00,51.239
1187.00,51.248
1188.00,51.226
1189.00,51.228
1190.00,51.194
1191.00,51.220
1192.00,51.234
1193.00,51.222
1194.00,51.223
1195.00,51.197
1196.00,51.216
1197.00,51.219
1198.00,51.245
1199.00,51.228
1200.00,51.221
1201.00,51.228
1202.00,51.216
1203.00,51.218
1204.00,51.209
1205.00,51.214
1206.00,51.220
1207.00,51.209
1208.00,51.182
1209.00,51.237
1210.00,51.214
1211.00,51.240
1212.00,51.261
1213.00,51.219
1214.00,51.229
1215.00,51.219
1216.00,51.245
1217.00,51.239
1218.00,51.225
1219.00,51.215
1220.00,51.216
1221.00,51.245
1222.00,51.241
1223.00,51.253
1224.00,51.219
1225.00,51.215
1226.00,51.210
1227.00,51.221
1228.00,51.226
1229.00,51.238
1230.00,51.264
1231.00,51.251
1232.00,51.245
1233.00,51.259
1234.00,51.273
1235.00,51.260
1236.00,51.275
1237.00,51.251
1238.00,51.265
1239.00,51.271
1240.00,51.256
1241.00,51.258
1242.00,51.278
1243.00,51.270
1244.00,51.257
1245.00,51.306
1246.00,51.303
1247.00,51.310
1248.00,51.305
1249.00,51.301
1250.00,51.293
1251.00,51.295
1252.00,51.296
1253.00,51.302
1254.00,51.314
1255.00,51.280
1256.00,51.246
1257.00,51.277
1258.00,51.349
1259.00,51.365
1260.00,51.346
1261.00,51.334
1262.00,51.337
1263.00,51.329
1264.00,51.344
1265.00,51.337
1266.00,51.336
1267.00,51.344
1268.00,51.339
1269.00,51.346
1270.00,51.396
1271.00,51.392
1272.00,51.396
1273.00,51.409
1274.00,51.399
1275.00,51.388
1276.00,51.398
1277.00,51.418
1278.00,51.459
1279.00,51.436
1280.00,51.430
1281.00,51.441
1282.00,51.441
1283.00,51.446
1284.00,51.411
1285.00,51.409
1286.00,51.446
1287.00,51.439
1288.00,51.436
1289.00,51.451
1290.00,51.491
1291.00,51.487
1292.00,51.485
1293.00,51.474
1294.00,51.470
1295.00,51.507
1296.00,51.497
1297.00,51.517
1298.00,51.522
1299.00,51.493
1300.00,51.509
1301.00,51.502
1302.00,51.577
1303.00,51.550
1304.00,51.528
1305.00,51.563
1306.00,51.553
1307.00,51.525
1308.00,51.522
1309.00,51.583
1310.00,51.623
1311.00,51.563
1312.00,51.539
1313.00,51.593
1314.00,51.629
1315.00,51.622
1316.00,51.632
1317.00,51.644
1318.00,51.640
1319.00,51.639
1320.00,51.653
1321.00,51.706
1322.00,51.780
1323.00,51.737
1324.00,51.708
1325.00,51.748
1326.00,51.821
1327.00,51.754
1328.00,51.710
1329.00,51.751
1330.00,51.790
1331.00,51.734
1332.00,51.684
1333.00,51.762
1334.00,51.817
1335.00,51.769
1336.00,51.741
1337.00,51.821
1338.00,51.937
1339.00,51.966
1340.00,52.011
1341.00,52.077
1342.00,52.142
1343.00,52.201
1344.00,52.292
1345.00,52.310
1346.00,52.311
1347.00,52.372
1348.00,52.381
1349.00,52.450
1350.00,52.362
1351.00,52.263
1352.00,52.182
1353.00,52.390
1354.00,52.622
1355.00,52.491
1356.00,52.482
1357.00,52.506
1358.00,52.394
1359.00,51.920
1360.00,51.673
1361.00,51.941
1362.00,52.004
1363.00,53.010
1364.00,53.465
1365.00,53.244
1366.00,52.433
1367.00,52.395
1368.00,52.335
1369.00,52.578
1370.00,52.651
1371.00,52.544
1372.00,52.610
1373.00,52.590
1374.00,52.408
1375.00,52.414
1376.00,52.392
1377.00,52.343
1378.00,52.563
1379.00,52.511
1380.00,52.292
1381.00,52.470
1382.00,52.736
1383.00,52.642
1384.00,52.816
1385.00,52.483
1386.00,52.389
1387.00,52.545
1388.00,52.746
1389.00,52.553
1390.00,52.157
1391.00,52.508
1392.00,52.602
1393.00,52.829
1394.00,52.515
1395.00,52.675
1396.00,53.029
1397.00,52.922
1398.00,52.562
1399.00,52.924
1400.00,53.000
1401.00,52.478
1402.00,52.439
1403.00,52.545
1404.00,52.549
1405.00,52.612
1406.00,52.318
1407.00,52.540
1408.00,52.569
1409.00,52.475
1410.00,52.464
1411.00,52.278
1412.00,52.354
1413.00,52.299
1414.00,52.372
1415.00,52.619
1416.00,52.617
1417.00,52.754
1418.00,52.637
1419.00,52.513
1420.00,52.628
1421.00,52.705
1422.00,52.606
1423.00,52.533
1424.00,52.638
1425.00,52.626
1426.00,52.632
1427.00,52.687
1428.00,52.700
1429.00,52.722
1430.00,52.747
1431.00,52.696
1432.00,52.749
1433.00,52.796
1434.00,52.749
1435.00,52.816
1436.00,52.766
1437.00,52.751
1438.00,52.799
1439.00,52.833
1440.00,52.849
1441.00,52.860
1442.00,52.853
1443.00,52.902
1444.00,52.883
1445.00,52.834
1446.00,52.882
1447.00,52.957
1448.00,53.012
1449.00,53.015
1450.00,52.949
1451.00,52.988
1452.00,53.008
1453.00,53.025
1454.00,53.028
1455.00,53.039
1456.00,53.058
1457.00,53.054
1458.00,53.059
1459.00,53.095
1460.00,53.106
1461.00,53.122
1462.00,53.169
1463.00,53.128
1464.00,53.140
1465.00,53.164
1466.00,53.167
1467.00,53.206
1468.00,53.243
1469.00,53.248
1470.00,53.250
1471.00,53.273
1472.00,53.286
1473.00,53.312
1474.00,53.321
1475.00,53.328
1476.00,53.323
1477.00,53.292
1478.00,53.328
1479.00,53.364
1480.00,53.363
1481.00,53.368
1482.00,53.385
1483.00,53.399
1484.00,53.440
1485.00,53.445
1486.00,53.433
1487.00,53.468
1488.00,53.455
1489.00,53.465
1490.00,53.463
1491.00,53.461
1492.00,53.501
1493.00,53.484
1494.00,53.495
1495.00,53.515
1496.00,53.531
1497.00,53.523
1498.00,53.528
1499.00,53.572
1500.00,53.575
1501.00, 
1502.00, 
1503.00, 
1504.00, 
1505.00, 
1506.00, 
1507.00, 
1508.00, 
1509.00, 
1510.00, 
1511.00, 
1512.00, 
1513.00, 
1514.00, 
1515.00, 
1516.00, 
1517.00, 
1518.00, 
1519.00, 
1520.00, 
1521.00, 
1522.00, 
1523.00, 
1524.00, 
1525.00, 
1526.00, 
1527.00, 
1528.00, 
1529.00, 
1530.00, 
1531.00, 
1532.00, 
1533.00, 
1534.00, 
1535.00, 
1536.00, 
1537.00, 
1538.00, 
1539.00, 
1540.00, 
1541.00, 
1542.00, 
1543.00, 
1544.00, 
1545.00, 
1546.00, 
1547.00, 
1548.00, 
1549.00, 
1550.00, 
1551.00, 
1552.00, 
1553.00, 
1554.00, 
1555.00, 
1556.00, 
1557.00, 
1558.00, 
1559.00, 
1560.00, 
1561.00, 
1562.00, 
1563.00, 
1564.00, 
1565.00, 
1566.00, 
1567.00, 
1568.00, 
1569.00, 
1570.00, 
1571.00, 
1572.00, 
1573.00, 
1574.00, 
1575.00, 
1576.00, 
1577.00, 
1578.00, 
1579.00, 
1580.00, 
1581.00, 
1582.00, 
1583.00, 
1584.00, 
1585.00, 
1586.00, 
1587.00, 
1588.00, 
1589.00, 
1590.00, 
1591.00, 
1592.00, 
1593.00, 
1594.00, 
1595.00, 
1596.00, 
1597.00, 
1598.00, 
1599.00, 
1600.00, 
1601.00, 
1602.00, 
1603.00, 
1604.00, 
1605.00, 
1606.00, 
1607.00, 
1608.00, 
1609.00, 
1610.00, 
1611.00, 
1612.00, 
1613.00, 
1614.00, 
1615.00, 
1616.00, 
1617.00, 
1618.00, 
1619.00, 
1620.00, 
1621.00, 
1622.00, 
1623.00, 
1624.00, 
1625.00, 
1626.00, 
1627.00, 
1628.00, 
1629.00, 
1630.00, 
1631.00, 
1632.00, 
1633.00, 
1634.00, 
1635.00, 
1636.00, 
1637.00, 
1638.00, 
1639.00, 
1640.00, 
1641.00, 
1642.00, 
1643.00, 
1644.00, 
1645.00, 
1646.00, 
1647.00, 
1648.00, 
1649.00, 
1650.00, 
1651.00, 
1652.00, 
1653.00, 
1654.00, 
1655.00, 
1656.00, 
1657.00, 
1658.00, 
1659.00, 
1660.00, 
1661.00, 
1662.00, 
1663.00, 
1664.00, 
1665.00, 
1666.00, 
1667.00, 
1668.00, 
1669.00, 
1670.00, 
1671.00, 
1672.00, 
1673.00, 
1674.00, 
1675.00, 
1676.00, 
1677.00, 
1678.00, 
1679.00, 
1680.00, 
1681.00, 
1682.00, 
1683.00, 
1684.00, 
1685.00, 
1686.00, 
1687.00, 
1688.00, 
1689.00, 
1690.00, 
1691.00, 
1692.00, 
1693.00, 
1694.00, 
1695.00, 
1696.00, 
1697.00, 
1698.00, 
1699.00, 
1700.00, 
1701.00, 
1702.00, 
1703.00, 
1704.00, 
1705.00, 
1706.00, 
1707.00, 
1708.00, 
1709.00, 
1710.00, 
1711.00, 
1712.00, 
1713.00, 
1714.00, 
1715.00, 
1716.00, 
1717.00, 
1718.00, 
1719.00, 
1720.00, 
1721.00, 
1722.00, 
1723.00, 
1724.00, 
1725.00, 
1726.00, 
1727.00, 
1728.00, 
1729.00, 
1730.00, 
1731.00, 
1732.00, 
1733.00, 
1734.00, 
1735.00, 
1736.00, 
1737.00, 
1738.00, 
1739.00, 
1740.00, 
1741.00, 
1742.00, 
1743.00, 
1744.00, 
1745.00, 
1746.00, 
1747.00, 
1748.00, 
1749.00, 
1750.00, 
1751.00, 
1752.00, 
1753.00, 
1754.00, 
1755.00, 
1756.00, 
1757.00, 
1758.00, 
1759.00, 
1760.00, 
1761.00, 
1762.00, 
1763.00, 
1764.00, 
1765.00, 
1766.00, 
1767.00, 
1768.00, 
1769.00, 
1770.00, 
1771.00, 
1772.00, 
1773.00, 
1774.00, 
1775.00, 
1776.00, 
1777.00, 
1778.00, 
1779.00, 
1780.00, 
1781.00, 
1782.00, 
1783.00, 
1784.00, 
1785.00, 
1786.00, 
1787.00, 
1788.00, 
1789.00, 
1790.00, 
1791.00, 
1792.00, 
1793.00, 
1794.00, 
1795.00, 
1796.00, 
1797.00, 
1798.00, 
1799.00, 
1800.00, 
1801.00, 
1802.00, 
1803.00, 
1804.00, 
1805.00, 
1806.00, 
1807.00, 
1808.00, 
1809.00, 
1810.00, 
1811.00, 
1812.00, 
1813.00, 
1814.00, 
1815.00, 
1816.00, 
1817.00, 
1818.00, 
1819.00, 
1820.00, 
1821.00, 
1822.00, 
1823.00, 
1824.00, 
1825.00, 
1826.00, 
1827.00, 
1828.00, 
1829.00, 
1830.00, 
1831.00, 
1832.00, 
1833.00, 
1834.00, 
1835.00, 
1836.00, 
1837.00, 
1838.00, 
1839.00, 
1840.00, 
1841.00, 
1842.00, 
1843.00, 
1844.00, 
1845.00, 
1846.00, 
1847.00, 
1848.00, 
1849.00, 
1850.00, 
1851.00, 
1852.00, 
1853.00, 
1854.00, 
1855.00, 
1856.00, 
1857.00, 
1858.00, 
1859.00, 
1860.00, 
1861.00, 
1862.00, 
1863.00, 
1864.00, 
1865.00, 
1866.00, 
1867.00, 
1868.00, 
1869.00, 
1870.00, 
1871.00, 
1872.00, 
1873.00, 
1874.00, 
1875.00, 
1876.00, 
1877.00, 
1878.00, 
1879.00, 
1880.00, 
1881.00, 
1882.00, 
1883.00, 
1884.00, 
1885.00, 
1886.00, 
1887.00, 
1888.00, 
1889.00, 
1890.00, 
1891.00, 
1892.00, 
1893.00, 
1894.00, 
1895.00, 
1896.00, 
1897.00, 
1898.00, 
1899.00, 
1900.00, 
1901.00, 
1902.00, 
1903.00, 
1904.00, 
1905.00, 
1906.00, 
1907.00, 
1908.00, 
1909.00, 
1910.00, 
1911.00, 
1912.00, 
1913.00, 
1914.00, 
1915.00, 
1916.00, 
1917.00, 
1918.00, 
1919.00, 
1920.00, 
1921.00, 
1922.00, 
1923.00, 
1924.00, 
1925.00, 
1926.00, 
1927.00, 
1928.00, 
1929.00, 
1930.00, 
1931.00, 
1932.00, 
1933.00, 
1934.00, 
1935.00, 
1936.00, 
1937.00, 
1938.00, 
1939.00, 
1940.00, 
1941.00, 
1942.00, 
1943.00, 
1944.00, 
1945.00, 
1946.00, 
1947.00, 
1948.00, 
1949.00, 
1950.00, 
1951.00, 
1952.00, 
1953.00, 
1954.00, 
1955.00, 
1956.00, 
1957.00, 
1958.00, 
1959.00, 
1960.00, 
1961.00, 
1962.00, 
1963.00, 
1964.00, 
1965.00, 
1966.00, 
1967.00, 
1968.00, 
1969.00, 
1970.00, 
1971.00, 
1972.00, 
1973.00, 
1974.00, 
1975.00, 
1976.00, 
1977.00, 
1978.00, 
1979.00, 
1980.00, 
1981.00, 
1982.00, 
1983.00, 
1984.00, 
1985.00, 
1986.00, 
1987.00, 
1988.00, 
1989.00, 
1990.00, 
1991.00, 
1992.00, 
1993.00, 
1994.00, 
1995.00, 
1996.00, 
1997.00, 
1998.00, 
1999.00, 
2000.00, 
2001.00, 
2002.00, 
2003.00, 
2004.00, 
2005.00, 
2006.00, 
2007.00, 
2008.00, 
2009.00, 
2010.00, 
2011.00, 
2012.00, 
2013.00, 
2014.00, 
2015.00, 
2016.00, 
2017.00, 
2018.00, 
2019.00, 
2020.00, 
2021.00, 
2022.00, 
2023.00, 
2024.00, 
2025.00, 
2026.00, 
2027.00, 
2028.00, 
2029.00, 
2030.00, 
2031.00, 
2032.00, 
2033.00, 
2034.00, 
2035.00, 
2036.00, 
2037.00, 
2038.00, 
2039.00, 
2040.00, 
2041.00, 
2042.00, 
2043.00, 
2044.00, 
2045.00, 
2046.00, 
2047.00, 
2048.00, 
2049.00, 
2050.00, 
2051.00, 
2052.00, 
2053.00, 
2054.00, 
2055.00, 
2056.00, 
2057.00, 
2058.00, 
2059.00, 
2060.00, 
2061.00, 
2062.00, 
2063.00, 
2064.00, 
2065.00, 
2066.00, 
2067.00, 
2068.00, 
2069.00, 
2070.00, 
2071.00, 
2072.00, 
2073.00, 
2074.00, 
2075.00, 
2076.00, 
2077.00, 
2078.00, 
2079.00, 
2080.00, 
2081.00, 
2082.00, 
2083.00, 
2084.00, 
2085.00, 
2086.00, 
2087.00, 
2088.00, 
2089.00, 
2090.00, 
2091.00, 
2092.00, 
2093.00, 
2094.00, 
2095.00, 
2096.00, 
2097.00, 
2098.00, 
2099.00, 
2100.00, 
2101.00, 
2102.00, 
2103.00, 
2104.00, 
2105.00, 
2106.00, 
2107.00, 
2108.00, 
2109.00, 
2110.00, 
2111.00, 
2112.00, 
2113.00, 
2114.00, 
2115.00, 
2116.00, 
2117.00, 
2118.00, 
2119.00, 
2120.00, 
2121.00, 
2122.00, 
2123.00, 
2124.00, 
2125.00, 
2126.00, 
2127.00, 
2128.00, 
2129.00, 
2130.00, 
2131.00, 
2132.00, 
2133.00, 
2134.00, 
2135.00, 
2136.00, 
2137.00, 
2138.00, 
2139.00, 
2140.00, 
2141.00, 
2142.00, 
2143.00, 
2144.00, 
2145.00, 
2146.00, 
2147.00, 
2148.00, 
2149.00, 
2150.00, 
2151.00, 
2152.00, 
2153.00, 
2154.00, 
2155.00, 
2156.00, 
2157.00, 
2158.00, 
2159.00, 
2160.00, 
2161.00, 
2162.00, 
2163.00, 
2164.00, 
2165.00, 
2166.00, 
2167.00, 
2168.00, 
2169.00, 
2170.00, 
2171.00, 
2172.00, 
2173.00, 
2174.00, 
2175.00, 
2176.00, 
2177.00, 
2178.00, 
2179.00, 
2180.00, 
2181.00, 
2182.00, 
2183.00, 
2184.00, 
2185.00, 
2186.00, 
2187.00, 
2188.00, 
2189.00, 
2190.00, 
2191.00, 
2192.00, 
2193.00, 
2194.00, 
2195.00, 
2196.00, 
2197.00, 
2198.00, 
2199.00, 
2200.00, 
2201.00, 
2202.00, 
2203.00, 
2204.00, 
2205.00, 
2206.00, 
2207.00, 
2208.00, 
2209.00, 
2210.00, 
2211.00, 
2212.00, 
2213.00, 
2214.00, 
2215.00, 
2216.00, 
2217.00, 
2218.00, 
2219.00, 
2220.00, 
2221.00, 
2222.00, 
2223.00, 
2224.00, 
2225.00, 
2226.00, 
2227.00, 
2228.00, 
2229.00, 
2230.00, 
2231.00, 
2232.00, 
2233.00, 
2234.00, 
2235.00, 
2236.00, 
2237.00, 
2238.00, 
2239.00, 
2240.00, 
2241.00, 
2242.00, 
2243.00, 
2244.00, 
2245.00, 
2246.00, 
2247.00, 
2248.00, 
2249.00, 
2250.00, 
2251.00, 
2252.00, 
2253.00, 
2254.00, 
2255.00, 
2256.00, 
2257.00, 
2258.00, 
2259.00, 
2260.00, 
2261.00, 
2262.00, 
2263.00, 
2264.00, 
2265.00, 
2266.00, 
2267.00, 
2268.00, 
2269.00, 
2270.00, 
2271.00, 
2272.00, 
2273.00, 
2274.00, 
2275.00, 
2276.00, 
2277.00, 
2278.00, 
2279.00, 
2280.00, 
2281.00, 
2282.00, 
2283.00, 
2284.00, 
2285.00, 
2286.00, 
2287.00, 
2288.00, 
2289.00, 
2290.00, 
2291.00, 
2292.00, 
2293.00, 
2294.00, 
2295.00, 
2296.00, 
2297.00, 
2298.00, 
2299.00, 
2300.00, 
2301.00, 
2302.00, 
2303.00, 
2304.00, 
2305.00, 
2306.00, 
2307.00, 
2308.00, 
2309.00, 
2310.00, 
2311.00, 
2312.00, 
2313.00, 
2314.00, 
2315.00, 
2316.00, 
2317.00, 
2318.00, 
2319.00, 
2320.00, 
2321.00, 
2322.00, 
2323.00, 
2324.00, 
2325.00, 
2326.00, 
2327.00, 
2328.00, 
2329.00, 
2330.00, 
2331.00, 
2332.00, 
2333.00, 
2334.00, 
2335.00, 
2336.00, 
2337.00, 
2338.00, 
2339.00, 
2340.00, 
2341.00, 
2342.00, 
2343.00, 
2344.00, 
2345.00, 
2346.00, 
2347.00, 
2348.00, 
2349.00, 
2350.00, 
2351.00, 
2352.00, 
2353.00, 
2354.00, 
2355.00, 
2356.00, 
2357.00, 
2358.00, 
2359.00, 
2360.00, 
2361.00, 
2362.00, 
2363.00, 
2364.00, 
2365.00, 
2366.00, 
2367.00, 
2368.00, 
2369.00, 
2370.00, 
2371.00, 
2372.00, 
2373.00, 
2374.00, 
2375.00, 
2376.00, 
2377.00, 
2378.00, 
2379.00, 
2380.00, 
2381.00, 
2382.00, 
2383.00, 
2384.00, 
2385.00, 
2386.00, 
2387.00, 
2388.00, 
2389.00, 
2390.00, 
2391.00, 
2392.00, 
2393.00, 
2394.00, 
2395.00, 
2396.00, 
2397.00, 
2398.00, 
2399.00, 
2400.00, 
2401.00, 
2402.00, 
2403.00, 
2404.00, 
2405.00, 
2406.00, 
2407.00, 
2408.00, 
2409.00, 
2410.00, 
2411.00, 
2412.00, 
2413.00, 
2414.00, 
2415.00, 
2416.00, 
2417.00, 
2418.00, 
2419.00, 
2420.00, 
2421.00, 
2422.00, 
2423.00, 
2424.00, 
2425.00, 
2426.00, 
2427.00, 
2428.00, 
2429.00, 
2430.00, 
2431.00, 
2432.00, 
2433.00, 
2434.00, 
2435.00, 
2436.00, 
2437.00, 
2438.00, 
2439.00, 
2440.00, 
2441.00, 
2442.00, 
2443.00, 
2444.00, 
2445.00, 
2446.00, 
2447.00, 
2448.00, 
2449.00, 
2450.00, 
2451.00, 
2452.00, 
2453.00, 
2454.00, 
2455.00, 
2456.00, 
2457.00, 
2458.00, 
2459.00, 
2460.00, 
2461.00, 
2462.00, 
2463.00, 
2464.00, 
2465.00, 
2466.00, 
2467.00, 
2468.00, 
2469.00, 
2470.00, 
2471.00, 
2472.00, 
2473.00, 
2474.00, 
2475.00, 
2476.00, 
2477.00, 
2478.00, 
2479.00, 
2480.00, 
2481.00, 
2482.00, 
2483.00, 
2484.00, 
2485.00, 
2486.00, 
2487.00, 
2488.00, 
2489.00, 
2490.00, 
2491.00, 
2492.00, 
2493.00, 
2494.00, 
2495.00, 
2496.00, 
2497.00, 
2498.00, 
2499.00, 
2500.00, 
2501.00, 
2502.00, 
2503.00, 
2504.00, 
2505.00, 
2506.00, 
2507.00, 
2508.00, 
2509.00, 
2510.00, 
2511.00, 
2512.00, 
2513.00, 
2514.00, 
2515.00, 
2516.00, 
2517.00, 
2518.00, 
2519.00, 
2520.00, 
2521.00, 
2522.00, 
2523.00, 
2524.00, 
2525.00, 
2526.00, 
2527.00, 
2528.00, 
2529.00, 
2530.00, 
2531.00, 
2532.00, 
2533.00, 
2534.00, 
2535.00, 
2536.00, 
2537.00, 
2538.00, 
2539.00, 
2540.00, 
2541.00, 
2542.00, 
2543.00, 
2544.00, 
2545.00, 
2546.00, 
2547.00, 
2548.00, 
2549.00, 
2550.00, 
2551.00, 
2552.00, 
2553.00, 
2554.00, 
2555.00, 
2556.00, 
2557.00, 
2558.00, 
2559.00, 
2560.00, 
2561.00, 
2562.00, 
2563.00, 
2564.00, 
2565.00, 
2566.00, 
2567.00, 
2568.00, 
2569.00, 
2570.00, 
2571.00, 
2572.00, 
2573.00, 
2574.00, 
2575.00, 
2576.00, 
2577.00, 
2578.00, 
2579.00, 
2580.00, 
2581.00, 
2582.00, 
2583.00, 
2584.00, 
2585.00, 
2586.00, 
2587.00, 
2588.00, 
2589.00, 
2590.00, 
2591.00, 
2592.00, 
2593.00, 
2594.00, 
2595.00, 
2596.00, 
2597.00, 
2598.00, 
2599.00, 
2600.00, 
