"2bP2 - RawData"
"Wavelength nm.","T%"
200.00,-0.002
201.00,0.002
202.00,0.002
203.00,-0.002
204.00,0.001
205.00,0.003
206.00,0.001
207.00,0.001
208.00,0.005
209.00,0.003
210.00,0.000
211.00,0.001
212.00,-0.001
213.00,0.004
214.00,0.001
215.00,0.001
216.00,0.002
217.00,0.003
218.00,0.003
219.00,-0.002
220.00,0.001
221.00,0.002
222.00,0.002
223.00,-0.001
224.00,0.002
225.00,0.001
226.00,0.001
227.00,0.001
228.00,0.002
229.00,0.000
230.00,0.001
231.00,-0.001
232.00,0.002
233.00,-0.000
234.00,0.001
235.00,0.001
236.00,-0.000
237.00,-0.002
238.00,0.000
239.00,-0.001
240.00,0.000
241.00,0.001
242.00,0.001
243.00,-0.001
244.00,0.002
245.00,-0.000
246.00,0.002
247.00,-0.002
248.00,0.001
249.00,-0.000
250.00,-0.000
251.00,0.001
252.00,0.002
253.00,-0.001
254.00,-0.002
255.00,0.000
256.00,0.000
257.00,0.001
258.00,0.001
259.00,-0.001
260.00,0.001
261.00,0.001
262.00,-0.001
263.00,0.000
264.00,-0.001
265.00,0.000
266.00,0.000
267.00,0.001
268.00,-0.001
269.00,-0.000
270.00,0.000
271.00,-0.002
272.00,0.000
273.00,-0.001
274.00,0.002
275.00,0.001
276.00,-0.000
277.00,0.001
278.00,-0.001
279.00,-0.002
280.00,-0.000
281.00,0.000
282.00,0.001
283.00,-0.000
284.00,-0.000
285.00,0.001
286.00,0.000
287.00,0.002
288.00,0.001
289.00,-0.001
290.00,-0.001
291.00,0.000
292.00,0.000
293.00,-0.001
294.00,-0.000
295.00,-0.001
296.00,0.001
297.00,-0.000
298.00,0.002
299.00,0.001
300.00,-0.000
301.00,0.003
302.00,0.004
303.00,0.003
304.00,0.006
305.00,0.007
306.00,0.013
307.00,0.021
308.00,0.028
309.00,0.043
310.00,0.059
311.00,0.081
312.00,0.111
313.00,0.142
314.00,0.186
315.00,0.236
316.00,0.294
317.00,0.361
318.00,0.444
319.00,0.537
320.00,0.647
321.00,0.768
322.00,0.895
323.00,1.032
324.00,1.181
325.00,1.337
326.00,1.493
327.00,1.670
328.00,1.844
329.00,2.043
330.00,2.230
331.00,2.404
332.00,2.605
333.00,2.802
334.00,2.979
335.00,3.164
336.00,3.354
337.00,3.543
338.00,3.731
339.00,3.879
340.00,4.057
341.00,4.204
342.00,4.354
343.00,4.499
344.00,4.605
345.00,4.731
346.00,4.841
347.00,4.941
348.00,5.033
349.00,5.129
350.00,5.210
351.00,5.287
352.00,5.349
353.00,5.405
354.00,5.447
355.00,5.522
356.00,5.558
357.00,5.585
358.00,5.614
359.00,5.619
360.00,5.635
361.00,5.643
362.00,5.616
363.00,5.608
364.00,5.600
365.00,5.608
366.00,5.588
367.00,5.567
368.00,5.587
369.00,5.551
370.00,5.544
371.00,5.545
372.00,5.501
373.00,5.475
374.00,5.411
375.00,5.372
376.00,5.347
377.00,5.299
378.00,5.248
379.00,5.197
380.00,5.182
381.00,5.142
382.00,5.110
383.00,5.083
384.00,5.062
385.00,5.042
386.00,5.009
387.00,4.996
388.00,4.984
389.00,4.955
390.00,4.937
391.00,4.903
392.00,4.891
393.00,4.872
394.00,4.856
395.00,4.825
396.00,4.794
397.00,4.773
398.00,4.751
399.00,4.742
400.00,4.723
401.00,4.710
402.00,4.679
403.00,4.673
404.00,4.650
405.00,4.630
406.00,4.620
407.00,4.587
408.00,4.584
409.00,4.591
410.00,4.577
411.00,4.581
412.00,4.557
413.00,4.583
414.00,4.591
415.00,4.586
416.00,4.581
417.00,4.558
418.00,4.548
419.00,4.561
420.00,4.550
421.00,4.570
422.00,4.586
423.00,4.582
424.00,4.596
425.00,4.612
426.00,4.624
427.00,4.637
428.00,4.658
429.00,4.673
430.00,4.701
431.00,4.731
432.00,4.741
433.00,4.767
434.00,4.799
435.00,4.834
436.00,4.877
437.00,4.897
438.00,4.942
439.00,4.977
440.00,5.013
441.00,5.062
442.00,5.110
443.00,5.160
444.00,5.203
445.00,5.250
446.00,5.315
447.00,5.364
448.00,5.419
449.00,5.485
450.00,5.551
451.00,5.623
452.00,5.687
453.00,5.747
454.00,5.811
455.00,5.884
456.00,5.948
457.00,6.031
458.00,6.092
459.00,6.183
460.00,6.250
461.00,6.323
462.00,6.400
463.00,6.479
464.00,6.511
465.00,6.666
466.00,6.758
467.00,6.885
468.00,7.028
469.00,7.110
470.00,7.156
471.00,7.276
472.00,7.404
473.00,7.504
474.00,7.616
475.00,7.755
476.00,7.876
477.00,7.985
478.00,8.078
479.00,8.209
480.00,8.352
481.00,8.459
482.00,8.571
483.00,8.691
484.00,8.781
485.00,8.994
486.00,9.113
487.00,9.265
488.00,9.396
489.00,9.527
490.00,9.643
491.00,9.802
492.00,9.977
493.00,10.103
494.00,10.142
495.00,10.371
496.00,10.457
497.00,10.614
498.00,10.733
499.00,10.916
500.00,11.040
501.00,11.208
502.00,11.316
503.00,11.496
504.00,11.644
505.00,11.800
506.00,11.960
507.00,12.089
508.00,12.203
509.00,12.368
510.00,12.502
511.00,12.712
512.00,12.906
513.00,13.029
514.00,13.181
515.00,13.257
516.00,13.410
517.00,13.554
518.00,13.649
519.00,13.790
520.00,13.924
521.00,14.039
522.00,14.241
523.00,14.419
524.00,14.524
525.00,14.677
526.00,14.790
527.00,14.906
528.00,15.011
529.00,15.144
530.00,15.222
531.00,15.371
532.00,15.373
533.00,15.533
534.00,15.727
535.00,15.841
536.00,15.993
537.00,16.078
538.00,16.235
539.00,16.369
540.00,16.494
541.00,16.630
542.00,16.711
543.00,16.839
544.00,16.976
545.00,17.096
546.00,17.209
547.00,17.345
548.00,17.426
549.00,17.534
550.00,17.655
551.00,17.707
552.00,17.838
553.00,17.873
554.00,17.954
555.00,18.042
556.00,18.133
557.00,18.291
558.00,18.382
559.00,18.506
560.00,18.594
561.00,18.649
562.00,18.758
563.00,18.840
564.00,18.920
565.00,19.046
566.00,19.127
567.00,19.248
568.00,19.327
569.00,19.409
570.00,19.440
571.00,19.509
572.00,19.642
573.00,19.624
574.00,19.741
575.00,19.793
576.00,19.821
577.00,19.971
578.00,20.066
579.00,20.134
580.00,20.178
581.00,20.271
582.00,20.366
583.00,20.483
584.00,20.601
585.00,20.658
586.00,20.690
587.00,20.856
588.00,20.927
589.00,21.016
590.00,21.125
591.00,21.195
592.00,21.264
593.00,21.350
594.00,21.461
595.00,21.533
596.00,21.679
597.00,21.714
598.00,21.790
599.00,21.818
600.00,21.844
601.00,21.928
602.00,21.951
603.00,22.103
604.00,22.145
605.00,22.301
606.00,22.432
607.00,22.508
608.00,22.609
609.00,22.739
610.00,22.781
611.00,22.840
612.00,22.965
613.00,23.075
614.00,23.249
615.00,23.303
616.00,23.366
617.00,23.429
618.00,23.496
619.00,23.604
620.00,23.677
621.00,23.829
622.00,23.980
623.00,24.081
624.00,24.238
625.00,24.363
626.00,24.465
627.00,24.662
628.00,24.765
629.00,24.911
630.00,25.134
631.00,25.174
632.00,25.341
633.00,25.512
634.00,25.625
635.00,25.705
636.00,25.861
637.00,25.928
638.00,26.146
639.00,26.303
640.00,26.508
641.00,26.697
642.00,26.918
643.00,27.084
644.00,27.161
645.00,27.355
646.00,27.517
647.00,27.711
648.00,27.892
649.00,28.155
650.00,28.346
651.00,28.511
652.00,28.675
653.00,28.908
654.00,29.113
655.00,29.576
656.00,29.601
657.00,30.520
658.00,30.635
659.00,30.441
660.00,30.362
661.00,30.839
662.00,31.073
663.00,31.308
664.00,31.431
665.00,31.334
666.00,31.843
667.00,32.306
668.00,32.432
669.00,32.345
670.00,32.817
671.00,32.686
672.00,33.194
673.00,33.406
674.00,33.512
675.00,33.871
676.00,34.126
677.00,34.363
678.00,34.945
679.00,35.035
680.00,35.488
681.00,35.976
682.00,36.333
683.00,36.551
684.00,36.595
685.00,36.794
686.00,36.930
687.00,37.278
688.00,37.579
689.00,37.888
690.00,38.019
691.00,38.496
692.00,38.664
693.00,38.797
694.00,39.307
695.00,39.552
696.00,39.868
697.00,40.251
698.00,40.605
699.00,40.513
700.00,40.805
701.00,41.249
702.00,41.777
703.00,42.183
704.00,42.668
705.00,42.687
706.00,42.556
707.00,42.757
708.00,43.053
709.00,43.303
710.00,43.379
711.00,43.735
712.00,44.627
713.00,44.785
714.00,44.820
715.00,45.496
716.00,45.975
717.00,45.933
718.00,46.256
719.00,46.829
720.00,47.335
721.00,48.573
722.00,48.911
723.00,49.057
724.00,49.303
725.00,49.566
726.00,49.827
727.00,50.112
728.00,50.418
729.00,50.662
730.00,50.986
731.00,51.220
732.00,51.576
733.00,51.759
734.00,51.984
735.00,52.318
736.00,52.511
737.00,52.765
738.00,53.104
739.00,53.323
740.00,53.530
741.00,53.787
742.00,54.012
743.00,54.248
744.00,54.382
745.00,54.611
746.00,54.809
747.00,55.052
748.00,55.292
749.00,55.385
750.00,55.723
751.00,55.904
752.00,56.202
753.00,56.276
754.00,56.399
755.00,56.569
756.00,56.794
757.00,56.994
758.00,57.229
759.00,57.446
760.00,57.554
761.00,57.779
762.00,58.015
763.00,58.181
764.00,58.360
765.00,58.557
766.00,58.667
767.00,58.859
768.00,59.017
769.00,59.040
770.00,59.318
771.00,59.453
772.00,59.687
773.00,59.815
774.00,60.041
775.00,60.197
776.00,60.278
777.00,60.451
778.00,60.522
779.00,60.801
780.00,60.945
781.00,60.930
782.00,61.129
783.00,61.187
784.00,61.345
785.00,61.452
786.00,61.584
787.00,61.696
788.00,61.735
789.00,61.952
790.00,61.992
791.00,62.222
792.00,62.186
793.00,62.400
794.00,62.564
795.00,62.547
796.00,62.779
797.00,62.704
798.00,62.784
799.00,62.879
800.00,62.961
801.00,62.893
802.00,62.885
803.00,63.147
804.00,63.149
805.00,63.330
806.00,63.256
807.00,63.425
808.00,63.637
809.00,63.531
810.00,63.707
811.00,63.738
812.00,63.952
813.00,64.051
814.00,64.040
815.00,64.199
816.00,64.086
817.00,64.246
818.00,64.154
819.00,64.365
820.00,64.417
821.00,64.316
822.00,64.438
823.00,64.629
824.00,64.635
825.00,64.581
826.00,64.548
827.00,64.818
828.00,64.593
829.00,64.837
830.00,64.784
831.00,66.003
832.00,66.025
833.00,66.115
834.00,66.093
835.00,66.189
836.00,66.197
837.00,66.261
838.00,66.303
839.00,66.348
840.00,66.436
841.00,66.469
842.00,66.530
843.00,66.487
844.00,66.581
845.00,66.432
846.00,66.495
847.00,66.452
848.00,66.604
849.00,66.777
850.00,66.730
851.00,66.786
852.00,66.702
853.00,66.831
854.00,66.835
855.00,66.874
856.00,66.769
857.00,66.836
858.00,66.947
859.00,66.890
860.00,67.074
861.00,66.920
862.00,66.992
863.00,66.943
864.00,67.127
865.00,66.975
866.00,67.065
867.00,67.018
868.00,67.137
869.00,67.138
870.00,67.117
871.00,67.174
872.00,67.184
873.00,67.167
874.00,67.068
875.00,67.186
876.00,67.133
877.00,67.310
878.00,67.184
879.00,67.322
880.00,67.296
881.00,67.337
882.00,67.140
883.00,67.331
884.00,67.331
885.00,67.322
886.00,67.239
887.00,67.333
888.00,67.377
889.00,67.296
890.00,67.245
891.00,67.264
892.00,67.360
893.00,67.342
894.00,67.259
895.00,67.363
896.00,67.432
897.00,67.396
898.00,67.330
899.00,67.209
900.00,67.289
901.00,67.222
902.00,67.176
903.00,67.283
904.00,67.420
905.00,67.375
906.00,67.250
907.00,67.326
908.00,67.489
909.00,67.380
910.00,67.311
911.00,67.170
912.00,67.279
913.00,67.280
914.00,67.272
915.00,67.431
916.00,67.586
917.00,67.467
918.00,67.307
919.00,67.431
920.00,67.598
921.00,67.383
922.00,67.278
923.00,67.378
924.00,67.606
925.00,67.393
926.00,67.264
927.00,67.307
928.00,67.540
929.00,67.347
930.00,67.184
931.00,67.327
932.00,67.463
933.00,67.301
934.00,67.290
935.00,67.338
936.00,67.467
937.00,67.303
938.00,67.165
939.00,67.259
940.00,67.493
941.00,67.277
942.00,67.162
943.00,67.257
944.00,67.376
945.00,67.214
946.00,67.311
947.00,67.288
948.00,67.245
949.00,67.208
950.00,67.147
951.00,67.232
952.00,67.243
953.00,67.229
954.00,67.081
955.00,67.137
956.00,67.132
957.00,67.123
958.00,67.064
959.00,67.085
960.00,67.095
961.00,67.158
962.00,67.027
963.00,67.050
964.00,67.078
965.00,67.024
966.00,67.034
967.00,67.019
968.00,67.056
969.00,66.994
970.00,66.988
971.00,67.013
972.00,67.049
973.00,67.000
974.00,67.013
975.00,67.042
976.00,66.977
977.00,67.003
978.00,66.997
979.00,67.015
980.00,67.030
981.00,66.977
982.00,66.994
983.00,66.940
984.00,66.972
985.00,66.941
986.00,66.980
987.00,66.942
988.00,66.936
989.00,66.919
990.00,66.906
991.00,66.916
992.00,66.896
993.00,66.931
994.00,66.889
995.00,66.837
996.00,66.865
997.00,66.864
998.00,66.872
999.00,66.868
1000.00,66.872
1001.00,66.847
1002.00,66.825
1003.00,66.841
1004.00,66.820
1005.00,66.809
1006.00,66.784
1007.00,66.876
1008.00,66.829
1009.00,66.787
1010.00,66.788
1011.00,66.771
1012.00,66.765
1013.00,66.766
1014.00,66.777
1015.00,66.748
1016.00,66.723
1017.00,66.729
1018.00,66.716
1019.00,66.718
1020.00,66.666
1021.00,66.721
1022.00,66.718
1023.00,66.678
1024.00,66.661
1025.00,66.667
1026.00,66.709
1027.00,66.678
1028.00,66.658
1029.00,66.659
1030.00,66.685
1031.00,66.639
1032.00,66.583
1033.00,66.597
1034.00,66.617
1035.00,66.577
1036.00,66.530
1037.00,66.557
1038.00,66.560
1039.00,66.502
1040.00,66.502
1041.00,66.452
1042.00,66.440
1043.00,66.434
1044.00,66.500
1045.00,66.433
1046.00,66.421
1047.00,66.438
1048.00,66.459
1049.00,66.467
1050.00,66.466
1051.00,66.465
1052.00,66.516
1053.00,66.489
1054.00,66.510
1055.00,66.483
1056.00,66.462
1057.00,66.496
1058.00,66.486
1059.00,66.474
1060.00,66.444
1061.00,66.460
1062.00,66.451
1063.00,66.454
1064.00,66.409
1065.00,66.455
1066.00,66.449
1067.00,66.433
1068.00,66.420
1069.00,66.426
1070.00,66.412
1071.00,66.407
1072.00,66.411
1073.00,66.409
1074.00,66.400
1075.00,66.378
1076.00,66.377
1077.00,66.373
1078.00,66.378
1079.00,66.363
1080.00,66.354
1081.00,66.336
1082.00,66.358
1083.00,66.352
1084.00,66.362
1085.00,66.351
1086.00,66.329
1087.00,66.327
1088.00,66.319
1089.00,66.295
1090.00,66.326
1091.00,66.301
1092.00,66.299
1093.00,66.279
1094.00,66.271
1095.00,66.267
1096.00,66.271
1097.00,66.242
1098.00,66.250
1099.00,66.224
1100.00,66.220
1101.00,66.223
1102.00,66.213
1103.00,66.224
1104.00,66.219
1105.00,66.194
1106.00,66.203
1107.00,66.184
1108.00,66.178
1109.00,66.178
1110.00,66.169
1111.00,66.143
1112.00,66.139
1113.00,66.131
1114.00,66.141
1115.00,66.156
1116.00,66.133
1117.00,66.135
1118.00,66.131
1119.00,66.107
1120.00,66.122
1121.00,66.135
1122.00,66.139
1123.00,66.106
1124.00,66.069
1125.00,66.074
1126.00,66.141
1127.00,66.121
1128.00,66.118
1129.00,66.073
1130.00,66.097
1131.00,66.099
1132.00,66.071
1133.00,66.129
1134.00,66.052
1135.00,65.969
1136.00,66.096
1137.00,66.102
1138.00,66.078
1139.00,66.083
1140.00,66.028
1141.00,66.007
1142.00,66.065
1143.00,66.097
1144.00,66.034
1145.00,66.028
1146.00,65.990
1147.00,65.979
1148.00,66.019
1149.00,66.013
1150.00,66.062
1151.00,66.071
1152.00,66.014
1153.00,66.007
1154.00,66.002
1155.00,65.997
1156.00,66.036
1157.00,66.011
1158.00,66.001
1159.00,66.016
1160.00,65.987
1161.00,66.009
1162.00,65.994
1163.00,65.994
1164.00,65.994
1165.00,65.961
1166.00,65.958
1167.00,65.978
1168.00,65.982
1169.00,65.969
1170.00,65.975
1171.00,65.938
1172.00,65.943
1173.00,65.953
1174.00,65.972
1175.00,65.971
1176.00,65.966
1177.00,65.946
1178.00,65.949
1179.00,65.960
1180.00,65.962
1181.00,65.966
1182.00,65.942
1183.00,65.952
1184.00,65.936
1185.00,65.963
1186.00,65.968
1187.00,65.969
1188.00,65.954
1189.00,65.958
1190.00,65.931
1191.00,65.943
1192.00,65.975
1193.00,65.955
1194.00,65.967
1195.00,65.936
1196.00,65.951
1197.00,65.958
1198.00,65.964
1199.00,65.951
1200.00,65.956
1201.00,65.957
1202.00,65.947
1203.00,65.965
1204.00,65.942
1205.00,65.963
1206.00,65.941
1207.00,65.950
1208.00,65.923
1209.00,65.946
1210.00,65.967
1211.00,65.961
1212.00,65.959
1213.00,65.944
1214.00,65.984
1215.00,65.960
1216.00,65.989
1217.00,65.985
1218.00,65.965
1219.00,66.004
1220.00,65.972
1221.00,65.983
1222.00,66.002
1223.00,66.008
1224.00,65.977
1225.00,65.984
1226.00,65.975
1227.00,65.982
1228.00,65.991
1229.00,65.998
1230.00,66.052
1231.00,66.006
1232.00,65.995
1233.00,66.018
1234.00,66.020
1235.00,66.027
1236.00,66.031
1237.00,66.025
1238.00,66.043
1239.00,66.046
1240.00,66.030
1241.00,66.060
1242.00,66.053
1243.00,66.080
1244.00,66.050
1245.00,66.075
1246.00,66.102
1247.00,66.110
1248.00,66.091
1249.00,66.103
1250.00,66.099
1251.00,66.089
1252.00,66.120
1253.00,66.105
1254.00,66.119
1255.00,66.062
1256.00,66.043
1257.00,66.066
1258.00,66.204
1259.00,66.175
1260.00,66.184
1261.00,66.169
1262.00,66.164
1263.00,66.178
1264.00,66.179
1265.00,66.197
1266.00,66.214
1267.00,66.210
1268.00,66.212
1269.00,66.218
1270.00,66.248
1271.00,66.251
1272.00,66.262
1273.00,66.267
1274.00,66.270
1275.00,66.266
1276.00,66.257
1277.00,66.287
1278.00,66.292
1279.00,66.299
1280.00,66.304
1281.00,66.277
1282.00,66.291
1283.00,66.303
1284.00,66.253
1285.00,66.282
1286.00,66.355
1287.00,66.330
1288.00,66.355
1289.00,66.358
1290.00,66.401
1291.00,66.394
1292.00,66.381
1293.00,66.387
1294.00,66.402
1295.00,66.416
1296.00,66.445
1297.00,66.392
1298.00,66.410
1299.00,66.403
1300.00,66.442
1301.00,66.455
1302.00,66.515
1303.00,66.488
1304.00,66.491
1305.00,66.533
1306.00,66.491
1307.00,66.489
1308.00,66.470
1309.00,66.543
1310.00,66.591
1311.00,66.528
1312.00,66.481
1313.00,66.557
1314.00,66.592
1315.00,66.612
1316.00,66.617
1317.00,66.639
1318.00,66.650
1319.00,66.654
1320.00,66.674
1321.00,66.593
1322.00,66.649
1323.00,66.619
1324.00,66.620
1325.00,66.664
1326.00,66.766
1327.00,66.680
1328.00,66.615
1329.00,66.690
1330.00,66.741
1331.00,66.678
1332.00,66.634
1333.00,66.705
1334.00,66.801
1335.00,66.718
1336.00,66.690
1337.00,66.741
1338.00,66.884
1339.00,66.859
1340.00,66.921
1341.00,66.944
1342.00,66.982
1343.00,67.039
1344.00,67.101
1345.00,67.133
1346.00,67.129
1347.00,67.092
1348.00,67.200
1349.00,67.202
1350.00,67.168
1351.00,67.030
1352.00,67.028
1353.00,67.146
1354.00,67.281
1355.00,67.218
1356.00,67.376
1357.00,67.339
1358.00,67.380
1359.00,66.633
1360.00,66.343
1361.00,66.307
1362.00,67.061
1363.00,67.974
1364.00,68.024
1365.00,67.815
1366.00,67.461
1367.00,67.214
1368.00,67.530
1369.00,67.724
1370.00,67.364
1371.00,67.443
1372.00,67.660
1373.00,67.626
1374.00,67.501
1375.00,67.382
1376.00,67.374
1377.00,67.318
1378.00,67.601
1379.00,67.300
1380.00,67.273
1381.00,67.361
1382.00,67.840
1383.00,68.002
1384.00,67.963
1385.00,67.852
1386.00,67.454
1387.00,67.468
1388.00,68.064
1389.00,68.136
1390.00,67.280
1391.00,67.318
1392.00,67.791
1393.00,68.434
1394.00,67.611
1395.00,67.638
1396.00,68.461
1397.00,68.618
1398.00,67.897
1399.00,67.900
1400.00,68.307
1401.00,67.832
1402.00,67.816
1403.00,67.586
1404.00,67.974
1405.00,67.914
1406.00,67.710
1407.00,67.843
1408.00,67.620
1409.00,67.821
1410.00,67.796
1411.00,67.628
1412.00,67.685
1413.00,67.478
1414.00,67.735
1415.00,67.978
1416.00,67.968
1417.00,68.136
1418.00,68.003
1419.00,67.875
1420.00,68.051
1421.00,68.193
1422.00,67.963
1423.00,67.961
1424.00,68.099
1425.00,68.112
1426.00,68.065
1427.00,68.090
1428.00,68.190
1429.00,68.218
1430.00,68.149
1431.00,68.110
1432.00,68.226
1433.00,68.223
1434.00,68.234
1435.00,68.335
1436.00,68.226
1437.00,68.248
1438.00,68.293
1439.00,68.360
1440.00,68.385
1441.00,68.375
1442.00,68.407
1443.00,68.453
1444.00,68.406
1445.00,68.378
1446.00,68.470
1447.00,68.530
1448.00,68.632
1449.00,68.567
1450.00,68.539
1451.00,68.609
1452.00,68.629
1453.00,68.671
1454.00,68.665
1455.00,68.673
1456.00,68.724
1457.00,68.667
1458.00,68.728
1459.00,68.744
1460.00,68.773
1461.00,68.827
1462.00,68.832
1463.00,68.821
1464.00,68.845
1465.00,68.854
1466.00,68.861
1467.00,68.915
1468.00,68.946
1469.00,68.946
1470.00,68.992
1471.00,68.997
1472.00,69.022
1473.00,69.046
1474.00,69.107
1475.00,69.071
1476.00,69.081
1477.00,69.083
1478.00,69.166
1479.00,69.170
1480.00,69.180
1481.00,69.186
1482.00,69.212
1483.00,69.247
1484.00,69.284
1485.00,69.268
1486.00,69.310
1487.00,69.323
1488.00,69.321
1489.00,69.352
1490.00,69.370
1491.00,69.397
1492.00,69.457
1493.00,69.416
1494.00,69.460
1495.00,69.463
1496.00,69.507
1497.00,69.524
1498.00,69.522
1499.00,69.566
1500.00,69.600
1501.00, 
1502.00, 
1503.00, 
1504.00, 
1505.00, 
1506.00, 
1507.00, 
1508.00, 
1509.00, 
1510.00, 
1511.00, 
1512.00, 
1513.00, 
1514.00, 
1515.00, 
1516.00, 
1517.00, 
1518.00, 
1519.00, 
1520.00, 
1521.00, 
1522.00, 
1523.00, 
1524.00, 
1525.00, 
1526.00, 
1527.00, 
1528.00, 
1529.00, 
1530.00, 
1531.00, 
1532.00, 
1533.00, 
1534.00, 
1535.00, 
1536.00, 
1537.00, 
1538.00, 
1539.00, 
1540.00, 
1541.00, 
1542.00, 
1543.00, 
1544.00, 
1545.00, 
1546.00, 
1547.00, 
1548.00, 
1549.00, 
1550.00, 
1551.00, 
1552.00, 
1553.00, 
1554.00, 
1555.00, 
1556.00, 
1557.00, 
1558.00, 
1559.00, 
1560.00, 
1561.00, 
1562.00, 
1563.00, 
1564.00, 
1565.00, 
1566.00, 
1567.00, 
1568.00, 
1569.00, 
1570.00, 
1571.00, 
1572.00, 
1573.00, 
1574.00, 
1575.00, 
1576.00, 
1577.00, 
1578.00, 
1579.00, 
1580.00, 
1581.00, 
1582.00, 
1583.00, 
1584.00, 
1585.00, 
1586.00, 
1587.00, 
1588.00, 
1589.00, 
1590.00, 
1591.00, 
1592.00, 
1593.00, 
1594.00, 
1595.00, 
1596.00, 
1597.00, 
1598.00, 
1599.00, 
1600.00, 
1601.00, 
1602.00, 
1603.00, 
1604.00, 
1605.00, 
1606.00, 
1607.00, 
1608.00, 
1609.00, 
1610.00, 
1611.00, 
1612.00, 
1613.00, 
1614.00, 
1615.00, 
1616.00, 
1617.00, 
1618.00, 
1619.00, 
1620.00, 
1621.00, 
1622.00, 
1623.00, 
1624.00, 
1625.00, 
1626.00, 
1627.00, 
1628.00, 
1629.00, 
1630.00, 
1631.00, 
1632.00, 
1633.00, 
1634.00, 
1635.00, 
1636.00, 
1637.00, 
1638.00, 
1639.00, 
1640.00, 
1641.00, 
1642.00, 
1643.00, 
1644.00, 
1645.00, 
1646.00, 
1647.00, 
1648.00, 
1649.00, 
1650.00, 
1651.00, 
1652.00, 
1653.00, 
1654.00, 
1655.00, 
1656.00, 
1657.00, 
1658.00, 
1659.00, 
1660.00, 
1661.00, 
1662.00, 
1663.00, 
1664.00, 
1665.00, 
1666.00, 
1667.00, 
1668.00, 
1669.00, 
1670.00, 
1671.00, 
1672.00, 
1673.00, 
1674.00, 
1675.00, 
1676.00, 
1677.00, 
1678.00, 
1679.00, 
1680.00, 
1681.00, 
1682.00, 
1683.00, 
1684.00, 
1685.00, 
1686.00, 
1687.00, 
1688.00, 
1689.00, 
1690.00, 
1691.00, 
1692.00, 
1693.00, 
1694.00, 
1695.00, 
1696.00, 
1697.00, 
1698.00, 
1699.00, 
1700.00, 
1701.00, 
1702.00, 
1703.00, 
1704.00, 
1705.00, 
1706.00, 
1707.00, 
1708.00, 
1709.00, 
1710.00, 
1711.00, 
1712.00, 
1713.00, 
1714.00, 
1715.00, 
1716.00, 
1717.00, 
1718.00, 
1719.00, 
1720.00, 
1721.00, 
1722.00, 
1723.00, 
1724.00, 
1725.00, 
1726.00, 
1727.00, 
1728.00, 
1729.00, 
1730.00, 
1731.00, 
1732.00, 
1733.00, 
1734.00, 
1735.00, 
1736.00, 
1737.00, 
1738.00, 
1739.00, 
1740.00, 
1741.00, 
1742.00, 
1743.00, 
1744.00, 
1745.00, 
1746.00, 
1747.00, 
1748.00, 
1749.00, 
1750.00, 
1751.00, 
1752.00, 
1753.00, 
1754.00, 
1755.00, 
1756.00, 
1757.00, 
1758.00, 
1759.00, 
1760.00, 
1761.00, 
1762.00, 
1763.00, 
1764.00, 
1765.00, 
1766.00, 
1767.00, 
1768.00, 
1769.00, 
1770.00, 
1771.00, 
1772.00, 
1773.00, 
1774.00, 
1775.00, 
1776.00, 
1777.00, 
1778.00, 
1779.00, 
1780.00, 
1781.00, 
1782.00, 
1783.00, 
1784.00, 
1785.00, 
1786.00, 
1787.00, 
1788.00, 
1789.00, 
1790.00, 
1791.00, 
1792.00, 
1793.00, 
1794.00, 
1795.00, 
1796.00, 
1797.00, 
1798.00, 
1799.00, 
1800.00, 
1801.00, 
1802.00, 
1803.00, 
1804.00, 
1805.00, 
1806.00, 
1807.00, 
1808.00, 
1809.00, 
1810.00, 
1811.00, 
1812.00, 
1813.00, 
1814.00, 
1815.00, 
1816.00, 
1817.00, 
1818.00, 
1819.00, 
1820.00, 
1821.00, 
1822.00, 
1823.00, 
1824.00, 
1825.00, 
1826.00, 
1827.00, 
1828.00, 
1829.00, 
1830.00, 
1831.00, 
1832.00, 
1833.00, 
1834.00, 
1835.00, 
1836.00, 
1837.00, 
1838.00, 
1839.00, 
1840.00, 
1841.00, 
1842.00, 
1843.00, 
1844.00, 
1845.00, 
1846.00, 
1847.00, 
1848.00, 
1849.00, 
1850.00, 
1851.00, 
1852.00, 
1853.00, 
1854.00, 
1855.00, 
1856.00, 
1857.00, 
1858.00, 
1859.00, 
1860.00, 
1861.00, 
1862.00, 
1863.00, 
1864.00, 
1865.00, 
1866.00, 
1867.00, 
1868.00, 
1869.00, 
1870.00, 
1871.00, 
1872.00, 
1873.00, 
1874.00, 
1875.00, 
1876.00, 
1877.00, 
1878.00, 
1879.00, 
1880.00, 
1881.00, 
1882.00, 
1883.00, 
1884.00, 
1885.00, 
1886.00, 
1887.00, 
1888.00, 
1889.00, 
1890.00, 
1891.00, 
1892.00, 
1893.00, 
1894.00, 
1895.00, 
1896.00, 
1897.00, 
1898.00, 
1899.00, 
1900.00, 
1901.00, 
1902.00, 
1903.00, 
1904.00, 
1905.00, 
1906.00, 
1907.00, 
1908.00, 
1909.00, 
1910.00, 
1911.00, 
1912.00, 
1913.00, 
1914.00, 
1915.00, 
1916.00, 
1917.00, 
1918.00, 
1919.00, 
1920.00, 
1921.00, 
1922.00, 
1923.00, 
1924.00, 
1925.00, 
1926.00, 
1927.00, 
1928.00, 
1929.00, 
1930.00, 
1931.00, 
1932.00, 
1933.00, 
1934.00, 
1935.00, 
1936.00, 
1937.00, 
1938.00, 
1939.00, 
1940.00, 
1941.00, 
1942.00, 
1943.00, 
1944.00, 
1945.00, 
1946.00, 
1947.00, 
1948.00, 
1949.00, 
1950.00, 
1951.00, 
1952.00, 
1953.00, 
1954.00, 
1955.00, 
1956.00, 
1957.00, 
1958.00, 
1959.00, 
1960.00, 
1961.00, 
1962.00, 
1963.00, 
1964.00, 
1965.00, 
1966.00, 
1967.00, 
1968.00, 
1969.00, 
1970.00, 
1971.00, 
1972.00, 
1973.00, 
1974.00, 
1975.00, 
1976.00, 
1977.00, 
1978.00, 
1979.00, 
1980.00, 
1981.00, 
1982.00, 
1983.00, 
1984.00, 
1985.00, 
1986.00, 
1987.00, 
1988.00, 
1989.00, 
1990.00, 
1991.00, 
1992.00, 
1993.00, 
1994.00, 
1995.00, 
1996.00, 
1997.00, 
1998.00, 
1999.00, 
2000.00, 
2001.00, 
2002.00, 
2003.00, 
2004.00, 
2005.00, 
2006.00, 
2007.00, 
2008.00, 
2009.00, 
2010.00, 
2011.00, 
2012.00, 
2013.00, 
2014.00, 
2015.00, 
2016.00, 
2017.00, 
2018.00, 
2019.00, 
2020.00, 
2021.00, 
2022.00, 
2023.00, 
2024.00, 
2025.00, 
2026.00, 
2027.00, 
2028.00, 
2029.00, 
2030.00, 
2031.00, 
2032.00, 
2033.00, 
2034.00, 
2035.00, 
2036.00, 
2037.00, 
2038.00, 
2039.00, 
2040.00, 
2041.00, 
2042.00, 
2043.00, 
2044.00, 
2045.00, 
2046.00, 
2047.00, 
2048.00, 
2049.00, 
2050.00, 
2051.00, 
2052.00, 
2053.00, 
2054.00, 
2055.00, 
2056.00, 
2057.00, 
2058.00, 
2059.00, 
2060.00, 
2061.00, 
2062.00, 
2063.00, 
2064.00, 
2065.00, 
2066.00, 
2067.00, 
2068.00, 
2069.00, 
2070.00, 
2071.00, 
2072.00, 
2073.00, 
2074.00, 
2075.00, 
2076.00, 
2077.00, 
2078.00, 
2079.00, 
2080.00, 
2081.00, 
2082.00, 
2083.00, 
2084.00, 
2085.00, 
2086.00, 
2087.00, 
2088.00, 
2089.00, 
2090.00, 
2091.00, 
2092.00, 
2093.00, 
2094.00, 
2095.00, 
2096.00, 
2097.00, 
2098.00, 
2099.00, 
2100.00, 
2101.00, 
2102.00, 
2103.00, 
2104.00, 
2105.00, 
2106.00, 
2107.00, 
2108.00, 
2109.00, 
2110.00, 
2111.00, 
2112.00, 
2113.00, 
2114.00, 
2115.00, 
2116.00, 
2117.00, 
2118.00, 
2119.00, 
2120.00, 
2121.00, 
2122.00, 
2123.00, 
2124.00, 
2125.00, 
2126.00, 
2127.00, 
2128.00, 
2129.00, 
2130.00, 
2131.00, 
2132.00, 
2133.00, 
2134.00, 
2135.00, 
2136.00, 
2137.00, 
2138.00, 
2139.00, 
2140.00, 
2141.00, 
2142.00, 
2143.00, 
2144.00, 
2145.00, 
2146.00, 
2147.00, 
2148.00, 
2149.00, 
2150.00, 
2151.00, 
2152.00, 
2153.00, 
2154.00, 
2155.00, 
2156.00, 
2157.00, 
2158.00, 
2159.00, 
2160.00, 
2161.00, 
2162.00, 
2163.00, 
2164.00, 
2165.00, 
2166.00, 
2167.00, 
2168.00, 
2169.00, 
2170.00, 
2171.00, 
2172.00, 
2173.00, 
2174.00, 
2175.00, 
2176.00, 
2177.00, 
2178.00, 
2179.00, 
2180.00, 
2181.00, 
2182.00, 
2183.00, 
2184.00, 
2185.00, 
2186.00, 
2187.00, 
2188.00, 
2189.00, 
2190.00, 
2191.00, 
2192.00, 
2193.00, 
2194.00, 
2195.00, 
2196.00, 
2197.00, 
2198.00, 
2199.00, 
2200.00, 
2201.00, 
2202.00, 
2203.00, 
2204.00, 
2205.00, 
2206.00, 
2207.00, 
2208.00, 
2209.00, 
2210.00, 
2211.00, 
2212.00, 
2213.00, 
2214.00, 
2215.00, 
2216.00, 
2217.00, 
2218.00, 
2219.00, 
2220.00, 
2221.00, 
2222.00, 
2223.00, 
2224.00, 
2225.00, 
2226.00, 
2227.00, 
2228.00, 
2229.00, 
2230.00, 
2231.00, 
2232.00, 
2233.00, 
2234.00, 
2235.00, 
2236.00, 
2237.00, 
2238.00, 
2239.00, 
2240.00, 
2241.00, 
2242.00, 
2243.00, 
2244.00, 
2245.00, 
2246.00, 
2247.00, 
2248.00, 
2249.00, 
2250.00, 
2251.00, 
2252.00, 
2253.00, 
2254.00, 
2255.00, 
2256.00, 
2257.00, 
2258.00, 
2259.00, 
2260.00, 
2261.00, 
2262.00, 
2263.00, 
2264.00, 
2265.00, 
2266.00, 
2267.00, 
2268.00, 
2269.00, 
2270.00, 
2271.00, 
2272.00, 
2273.00, 
2274.00, 
2275.00, 
2276.00, 
2277.00, 
2278.00, 
2279.00, 
2280.00, 
2281.00, 
2282.00, 
2283.00, 
2284.00, 
2285.00, 
2286.00, 
2287.00, 
2288.00, 
2289.00, 
2290.00, 
2291.00, 
2292.00, 
2293.00, 
2294.00, 
2295.00, 
2296.00, 
2297.00, 
2298.00, 
2299.00, 
2300.00, 
2301.00, 
2302.00, 
2303.00, 
2304.00, 
2305.00, 
2306.00, 
2307.00, 
2308.00, 
2309.00, 
2310.00, 
2311.00, 
2312.00, 
2313.00, 
2314.00, 
2315.00, 
2316.00, 
2317.00, 
2318.00, 
2319.00, 
2320.00, 
2321.00, 
2322.00, 
2323.00, 
2324.00, 
2325.00, 
2326.00, 
2327.00, 
2328.00, 
2329.00, 
2330.00, 
2331.00, 
2332.00, 
2333.00, 
2334.00, 
2335.00, 
2336.00, 
2337.00, 
2338.00, 
2339.00, 
2340.00, 
2341.00, 
2342.00, 
2343.00, 
2344.00, 
2345.00, 
2346.00, 
2347.00, 
2348.00, 
2349.00, 
2350.00, 
2351.00, 
2352.00, 
2353.00, 
2354.00, 
2355.00, 
2356.00, 
2357.00, 
2358.00, 
2359.00, 
2360.00, 
2361.00, 
2362.00, 
2363.00, 
2364.00, 
2365.00, 
2366.00, 
2367.00, 
2368.00, 
2369.00, 
2370.00, 
2371.00, 
2372.00, 
2373.00, 
2374.00, 
2375.00, 
2376.00, 
2377.00, 
2378.00, 
2379.00, 
2380.00, 
2381.00, 
2382.00, 
2383.00, 
2384.00, 
2385.00, 
2386.00, 
2387.00, 
2388.00, 
2389.00, 
2390.00, 
2391.00, 
2392.00, 
2393.00, 
2394.00, 
2395.00, 
2396.00, 
2397.00, 
2398.00, 
2399.00, 
2400.00, 
2401.00, 
2402.00, 
2403.00, 
2404.00, 
2405.00, 
2406.00, 
2407.00, 
2408.00, 
2409.00, 
2410.00, 
2411.00, 
2412.00, 
2413.00, 
2414.00, 
2415.00, 
2416.00, 
2417.00, 
2418.00, 
2419.00, 
2420.00, 
2421.00, 
2422.00, 
2423.00, 
2424.00, 
2425.00, 
2426.00, 
2427.00, 
2428.00, 
2429.00, 
2430.00, 
2431.00, 
2432.00, 
2433.00, 
2434.00, 
2435.00, 
2436.00, 
2437.00, 
2438.00, 
2439.00, 
2440.00, 
2441.00, 
2442.00, 
2443.00, 
2444.00, 
2445.00, 
2446.00, 
2447.00, 
2448.00, 
2449.00, 
2450.00, 
2451.00, 
2452.00, 
2453.00, 
2454.00, 
2455.00, 
2456.00, 
2457.00, 
2458.00, 
2459.00, 
2460.00, 
2461.00, 
2462.00, 
2463.00, 
2464.00, 
2465.00, 
2466.00, 
2467.00, 
2468.00, 
2469.00, 
2470.00, 
2471.00, 
2472.00, 
2473.00, 
2474.00, 
2475.00, 
2476.00, 
2477.00, 
2478.00, 
2479.00, 
2480.00, 
2481.00, 
2482.00, 
2483.00, 
2484.00, 
2485.00, 
2486.00, 
2487.00, 
2488.00, 
2489.00, 
2490.00, 
2491.00, 
2492.00, 
2493.00, 
2494.00, 
2495.00, 
2496.00, 
2497.00, 
2498.00, 
2499.00, 
2500.00, 
2501.00, 
2502.00, 
2503.00, 
2504.00, 
2505.00, 
2506.00, 
2507.00, 
2508.00, 
2509.00, 
2510.00, 
2511.00, 
2512.00, 
2513.00, 
2514.00, 
2515.00, 
2516.00, 
2517.00, 
2518.00, 
2519.00, 
2520.00, 
2521.00, 
2522.00, 
2523.00, 
2524.00, 
2525.00, 
2526.00, 
2527.00, 
2528.00, 
2529.00, 
2530.00, 
2531.00, 
2532.00, 
2533.00, 
2534.00, 
2535.00, 
2536.00, 
2537.00, 
2538.00, 
2539.00, 
2540.00, 
2541.00, 
2542.00, 
2543.00, 
2544.00, 
2545.00, 
2546.00, 
2547.00, 
2548.00, 
2549.00, 
2550.00, 
2551.00, 
2552.00, 
2553.00, 
2554.00, 
2555.00, 
2556.00, 
2557.00, 
2558.00, 
2559.00, 
2560.00, 
2561.00, 
2562.00, 
2563.00, 
2564.00, 
2565.00, 
2566.00, 
2567.00, 
2568.00, 
2569.00, 
2570.00, 
2571.00, 
2572.00, 
2573.00, 
2574.00, 
2575.00, 
2576.00, 
2577.00, 
2578.00, 
2579.00, 
2580.00, 
2581.00, 
2582.00, 
2583.00, 
2584.00, 
2585.00, 
2586.00, 
2587.00, 
2588.00, 
2589.00, 
2590.00, 
2591.00, 
2592.00, 
2593.00, 
2594.00, 
2595.00, 
2596.00, 
2597.00, 
2598.00, 
2599.00, 
2600.00, 
