"2cP1 - RawData"
"Wavelength nm.","T%"
200.00,-0.000
201.00, 
202.00,-0.001
203.00, 
204.00,0.001
205.00, 
206.00,0.000
207.00, 
208.00,0.003
209.00, 
210.00,-0.001
211.00, 
212.00,0.002
213.00, 
214.00,0.003
215.00, 
216.00,0.001
217.00, 
218.00,-0.004
219.00, 
220.00,0.001
221.00, 
222.00,0.001
223.00, 
224.00,0.002
225.00, 
226.00,0.003
227.00, 
228.00,-0.000
229.00, 
230.00,0.002
231.00, 
232.00,-0.001
233.00, 
234.00,-0.000
235.00, 
236.00,-0.002
237.00, 
238.00,0.000
239.00, 
240.00,-0.000
241.00, 
242.00,0.000
243.00, 
244.00,-0.001
245.00, 
246.00,-0.001
247.00, 
248.00,0.001
249.00, 
250.00,0.001
251.00, 
252.00,0.001
253.00, 
254.00,-0.000
255.00, 
256.00,-0.000
257.00, 
258.00,-0.002
259.00, 
260.00,-0.001
261.00, 
262.00,-0.000
263.00, 
264.00,0.001
265.00, 
266.00,-0.001
267.00, 
268.00,-0.001
269.00, 
270.00,-0.000
271.00, 
272.00,0.001
273.00, 
274.00,0.002
275.00, 
276.00,-0.000
277.00, 
278.00,-0.000
279.00, 
280.00,0.002
281.00, 
282.00,0.002
283.00, 
284.00,0.002
285.00, 
286.00,0.002
287.00, 
288.00,0.001
289.00, 
290.00,0.000
291.00, 
292.00,-0.002
293.00, 
294.00,-0.000
295.00, 
296.00,-0.001
297.00, 
298.00,0.002
299.00, 
300.00,0.001
301.00, 
302.00,0.002
303.00, 
304.00,0.002
305.00, 
306.00,0.007
307.00, 
308.00,0.015
309.00, 
310.00,0.032
311.00, 
312.00,0.057
313.00, 
314.00,0.103
315.00, 
316.00,0.164
317.00, 
318.00,0.250
319.00, 
320.00,0.363
321.00, 
322.00,0.512
323.00, 
324.00,0.693
325.00, 
326.00,0.873
327.00, 
328.00,1.086
329.00, 
330.00,1.312
331.00, 
332.00,1.530
333.00, 
334.00,1.775
335.00, 
336.00,1.994
337.00, 
338.00,2.202
339.00, 
340.00,2.419
341.00, 
342.00,2.605
343.00, 
344.00,2.768
345.00, 
346.00,2.925
347.00, 
348.00,3.054
349.00, 
350.00,3.154
351.00, 
352.00,3.233
353.00, 
354.00,3.285
355.00, 
356.00,3.338
357.00, 
358.00,3.380
359.00, 
360.00,3.399
361.00, 
362.00,3.416
363.00, 
364.00,3.406
365.00, 
366.00,3.385
367.00, 
368.00,3.368
369.00, 
370.00,3.344
371.00, 
372.00,3.296
373.00, 
374.00,3.258
375.00, 
376.00,3.198
377.00, 
378.00,3.146
379.00, 
380.00,3.097
381.00, 
382.00,3.039
383.00, 
384.00,3.005
385.00, 
386.00,2.980
387.00, 
388.00,2.957
389.00, 
390.00,2.923
391.00, 
392.00,2.892
393.00, 
394.00,2.870
395.00, 
396.00,2.839
397.00, 
398.00,2.808
399.00, 
400.00,2.779
401.00, 
402.00,2.755
403.00, 
404.00,2.741
405.00, 
406.00,2.718
407.00, 
408.00,2.703
409.00, 
410.00,2.684
411.00, 
412.00,2.676
413.00, 
414.00,2.668
415.00, 
416.00,2.658
417.00, 
418.00,2.667
419.00, 
420.00,2.657
421.00, 
422.00,2.671
423.00, 
424.00,2.678
425.00, 
426.00,2.701
427.00, 
428.00,2.726
429.00, 
430.00,2.750
431.00, 
432.00,2.772
433.00, 
434.00,2.820
435.00, 
436.00,2.858
437.00, 
438.00,2.894
439.00, 
440.00,2.950
441.00, 
442.00,3.004
443.00, 
444.00,3.065
445.00, 
446.00,3.136
447.00, 
448.00,3.214
449.00, 
450.00,3.277
451.00, 
452.00,3.351
453.00, 
454.00,3.456
455.00, 
456.00,3.550
457.00, 
458.00,3.643
459.00, 
460.00,3.746
461.00, 
462.00,3.879
463.00, 
464.00,3.964
465.00, 
466.00,4.075
467.00, 
468.00,4.197
469.00, 
470.00,4.328
471.00, 
472.00,4.474
473.00, 
474.00,4.606
475.00, 
476.00,4.753
477.00, 
478.00,4.905
479.00, 
480.00,5.069
481.00, 
482.00,5.228
483.00, 
484.00,5.395
485.00, 
486.00,5.572
487.00, 
488.00,5.768
489.00, 
490.00,5.961
491.00, 
492.00,6.130
493.00, 
494.00,6.309
495.00, 
496.00,6.493
497.00, 
498.00,6.676
499.00, 
500.00,6.871
501.00, 
502.00,7.075
503.00, 
504.00,7.259
505.00, 
506.00,7.449
507.00, 
508.00,7.678
509.00, 
510.00,7.861
511.00, 
512.00,8.048
513.00, 
514.00,8.235
515.00, 
516.00,8.452
517.00, 
518.00,8.645
519.00, 
520.00,8.835
521.00, 
522.00,8.980
523.00, 
524.00,9.145
525.00, 
526.00,9.385
527.00, 
528.00,9.547
529.00, 
530.00,9.720
531.00, 
532.00,9.951
533.00, 
534.00,10.114
535.00, 
536.00,10.308
537.00, 
538.00,10.448
539.00, 
540.00,10.595
541.00, 
542.00,10.768
543.00, 
544.00,10.890
545.00, 
546.00,11.042
547.00, 
548.00,11.185
549.00, 
550.00,11.288
551.00, 
552.00,11.406
553.00, 
554.00,11.572
555.00, 
556.00,11.728
557.00, 
558.00,11.862
559.00, 
560.00,12.033
561.00, 
562.00,12.165
563.00, 
564.00,12.265
565.00, 
566.00,12.422
567.00, 
568.00,12.474
569.00, 
570.00,12.576
571.00, 
572.00,12.698
573.00, 
574.00,12.846
575.00, 
576.00,12.979
577.00, 
578.00,13.089
579.00, 
580.00,13.235
581.00, 
582.00,13.369
583.00, 
584.00,13.497
585.00, 
586.00,13.633
587.00, 
588.00,13.744
589.00, 
590.00,13.830
591.00, 
592.00,13.915
593.00, 
594.00,13.947
595.00, 
596.00,14.008
597.00, 
598.00,14.242
599.00, 
600.00,14.338
601.00, 
602.00,14.464
603.00, 
604.00,14.647
605.00, 
606.00,14.833
607.00, 
608.00,14.894
609.00, 
610.00,14.995
611.00, 
612.00,15.186
613.00, 
614.00,15.260
615.00, 
616.00,15.354
617.00, 
618.00,15.546
619.00, 
620.00,15.707
621.00, 
622.00,15.928
623.00, 
624.00,16.069
625.00, 
626.00,16.254
627.00, 
628.00,16.408
629.00, 
630.00,16.594
631.00, 
632.00,16.788
633.00, 
634.00,17.006
635.00, 
636.00,17.173
637.00, 
638.00,17.416
639.00, 
640.00,17.700
641.00, 
642.00,17.898
643.00, 
644.00,18.116
645.00, 
646.00,18.416
647.00, 
648.00,18.697
649.00, 
650.00,19.010
651.00, 
652.00,19.207
653.00, 
654.00,19.484
655.00, 
656.00,19.836
657.00, 
658.00,19.952
659.00, 
660.00,20.398
661.00, 
662.00,20.675
663.00, 
664.00,21.089
665.00, 
666.00,21.582
667.00, 
668.00,21.736
669.00, 
670.00,22.196
671.00, 
672.00,22.658
673.00, 
674.00,22.793
675.00, 
676.00,23.353
677.00, 
678.00,23.760
679.00, 
680.00,23.945
681.00, 
682.00,24.399
683.00, 
684.00,24.779
685.00, 
686.00,25.212
687.00, 
688.00,25.654
689.00, 
690.00,25.966
691.00, 
692.00,26.607
693.00, 
694.00,26.547
695.00, 
696.00,27.339
697.00, 
698.00,27.563
699.00, 
700.00,28.093
701.00, 
702.00,28.022
703.00, 
704.00,28.818
705.00, 
706.00,29.327
707.00, 
708.00,29.755
709.00, 
710.00,30.149
711.00, 
712.00,30.771
713.00, 
714.00,31.127
715.00, 
716.00,31.376
717.00, 
718.00,31.996
719.00, 
720.00,32.205
721.00, 
722.00,36.041
723.00, 
724.00,36.434
725.00, 
726.00,36.663
727.00, 
728.00,36.981
729.00, 
730.00,37.215
731.00, 
732.00,37.664
733.00, 
734.00,38.074
735.00, 
736.00,38.494
737.00, 
738.00,38.901
739.00, 
740.00,39.281
741.00, 
742.00,39.631
743.00, 
744.00,40.011
745.00, 
746.00,40.237
747.00, 
748.00,40.592
749.00, 
750.00,40.939
751.00, 
752.00,41.173
753.00, 
754.00,41.511
755.00, 
756.00,41.782
757.00, 
758.00,42.151
759.00, 
760.00,42.493
761.00, 
762.00,42.811
763.00, 
764.00,42.988
765.00, 
766.00,43.412
767.00, 
768.00,43.513
769.00, 
770.00,43.864
771.00, 
772.00,43.999
773.00, 
774.00,44.317
775.00, 
776.00,44.506
777.00, 
778.00,44.612
779.00, 
780.00,44.835
781.00, 
782.00,45.011
783.00, 
784.00,45.252
785.00, 
786.00,45.412
787.00, 
788.00,45.460
789.00, 
790.00,45.694
791.00, 
792.00,45.713
793.00, 
794.00,45.892
795.00, 
796.00,46.079
797.00, 
798.00,46.120
799.00, 
800.00,46.114
801.00, 
802.00,46.405
803.00, 
804.00,46.442
805.00, 
806.00,46.505
807.00, 
808.00,46.590
809.00, 
810.00,46.669
811.00, 
812.00,46.779
813.00, 
814.00,46.945
815.00, 
816.00,47.024
817.00, 
818.00,47.097
819.00, 
820.00,47.161
821.00, 
822.00,47.271
823.00, 
824.00,47.264
825.00, 
826.00,47.377
827.00, 
828.00,47.597
829.00, 
830.00,47.525
831.00, 
832.00,49.901
833.00, 
834.00,49.953
835.00, 
836.00,49.979
837.00, 
838.00,49.997
839.00, 
840.00,50.051
841.00, 
842.00,50.129
843.00, 
844.00,50.124
845.00, 
846.00,50.134
847.00, 
848.00,50.144
849.00, 
850.00,50.172
851.00, 
852.00,50.157
853.00, 
854.00,50.209
855.00, 
856.00,50.218
857.00, 
858.00,50.221
859.00, 
860.00,50.256
861.00, 
862.00,50.288
863.00, 
864.00,50.265
865.00, 
866.00,50.322
867.00, 
868.00,50.348
869.00, 
870.00,50.455
871.00, 
872.00,50.436
873.00, 
874.00,50.472
875.00, 
876.00,50.483
877.00, 
878.00,50.474
879.00, 
880.00,50.543
881.00, 
882.00,50.512
883.00, 
884.00,50.531
885.00, 
886.00,50.517
887.00, 
888.00,50.533
889.00, 
890.00,50.482
891.00, 
892.00,50.503
893.00, 
894.00,50.484
895.00, 
896.00,50.459
897.00, 
898.00,50.488
899.00, 
900.00,50.500
901.00, 
902.00,50.480
903.00, 
904.00,50.521
905.00, 
906.00,50.407
907.00, 
908.00,50.498
909.00, 
910.00,50.464
911.00, 
912.00,50.435
913.00, 
914.00,50.448
915.00, 
916.00,50.551
917.00, 
918.00,50.435
919.00, 
920.00,50.358
921.00, 
922.00,50.345
923.00, 
924.00,50.392
925.00, 
926.00,50.368
927.00, 
928.00,50.310
929.00, 
930.00,50.355
931.00, 
932.00,50.254
933.00, 
934.00,50.280
935.00, 
936.00,50.243
937.00, 
938.00,50.221
939.00, 
940.00,50.192
941.00, 
942.00,50.151
943.00, 
944.00,50.173
945.00, 
946.00,50.096
947.00, 
948.00,50.115
949.00, 
950.00,50.084
951.00, 
952.00,50.030
953.00, 
954.00,50.040
955.00, 
956.00,49.997
957.00, 
958.00,49.885
959.00, 
960.00,49.935
961.00, 
962.00,49.847
963.00, 
964.00,49.848
965.00, 
966.00,49.834
967.00, 
968.00,49.825
969.00, 
970.00,49.777
971.00, 
972.00,49.839
973.00, 
974.00,49.829
975.00, 
976.00,49.812
977.00, 
978.00,49.842
979.00, 
980.00,49.857
981.00, 
982.00,49.814
983.00, 
984.00,49.845
985.00, 
986.00,49.823
987.00, 
988.00,49.834
989.00, 
990.00,49.806
991.00, 
992.00,49.791
993.00, 
994.00,49.798
995.00, 
996.00,49.768
997.00, 
998.00,49.746
999.00, 
1000.00,49.757
1001.00, 
1002.00,49.737
1003.00, 
1004.00,49.702
1005.00, 
1006.00,49.681
1007.00, 
1008.00,49.703
1009.00, 
1010.00,49.633
1011.00, 
1012.00,49.623
1013.00, 
1014.00,49.618
1015.00, 
1016.00,49.596
1017.00, 
1018.00,49.552
1019.00, 
1020.00,49.533
1021.00, 
1022.00,49.511
1023.00, 
1024.00,49.480
1025.00, 
1026.00,49.450
1027.00, 
1028.00,49.409
1029.00, 
1030.00,49.402
1031.00, 
1032.00,49.364
1033.00, 
1034.00,49.326
1035.00, 
1036.00,49.277
1037.00, 
1038.00,49.258
1039.00, 
1040.00,49.188
1041.00, 
1042.00,49.181
1043.00, 
1044.00,49.168
1045.00, 
1046.00,49.149
1047.00, 
1048.00,49.181
1049.00, 
1050.00,49.222
1051.00, 
1052.00,49.217
1053.00, 
1054.00,49.230
1055.00, 
1056.00,49.243
1057.00, 
1058.00,49.256
1059.00, 
1060.00,49.267
1061.00, 
1062.00,49.248
1063.00, 
1064.00,49.242
1065.00, 
1066.00,49.235
1067.00, 
1068.00,49.185
1069.00, 
1070.00,49.181
1071.00, 
1072.00,49.146
1073.00, 
1074.00,49.167
1075.00, 
1076.00,49.182
1077.00, 
1078.00,49.131
1079.00, 
1080.00,49.122
1081.00, 
1082.00,49.116
1083.00, 
1084.00,49.072
1085.00, 
1086.00,49.053
1087.00, 
1088.00,49.047
1089.00, 
1090.00,49.031
1091.00, 
1092.00,49.005
1093.00, 
1094.00,48.993
1095.00, 
1096.00,48.987
1097.00, 
1098.00,48.970
1099.00, 
1100.00,48.949
1101.00, 
1102.00,48.947
1103.00, 
1104.00,48.905
1105.00, 
1106.00,48.888
1107.00, 
1108.00,48.902
1109.00, 
1110.00,48.860
1111.00, 
1112.00,48.832
1113.00, 
1114.00,48.882
1115.00, 
1116.00,48.815
1117.00, 
1118.00,48.818
1119.00, 
1120.00,48.801
1121.00, 
1122.00,48.768
1123.00, 
1124.00,48.754
1125.00, 
1126.00,48.748
1127.00, 
1128.00,48.718
1129.00, 
1130.00,48.691
1131.00, 
1132.00,48.681
1133.00, 
1134.00,48.694
1135.00, 
1136.00,48.651
1137.00, 
1138.00,48.670
1139.00, 
1140.00,48.661
1141.00, 
1142.00,48.634
1143.00, 
1144.00,48.643
1145.00, 
1146.00,48.643
1147.00, 
1148.00,48.618
1149.00, 
1150.00,48.639
1151.00, 
1152.00,48.600
1153.00, 
1154.00,48.620
1155.00, 
1156.00,48.588
1157.00, 
1158.00,48.588
1159.00, 
1160.00,48.581
1161.00, 
1162.00,48.591
1163.00, 
1164.00,48.571
1165.00, 
1166.00,48.597
1167.00, 
1168.00,48.590
1169.00, 
1170.00,48.575
1171.00, 
1172.00,48.574
1173.00, 
1174.00,48.579
1175.00, 
1176.00,48.554
1177.00, 
1178.00,48.551
1179.00, 
1180.00,48.563
1181.00, 
1182.00,48.541
1183.00, 
1184.00,48.533
1185.00, 
1186.00,48.568
1187.00, 
1188.00,48.514
1189.00, 
1190.00,48.548
1191.00, 
1192.00,48.543
1193.00, 
1194.00,48.536
1195.00, 
1196.00,48.532
1197.00, 
1198.00,48.541
1199.00, 
1200.00,48.536
1201.00, 
1202.00,48.537
1203.00, 
1204.00,48.526
1205.00, 
1206.00,48.532
1207.00, 
1208.00,48.504
1209.00, 
1210.00,48.522
1211.00, 
1212.00,48.483
1213.00, 
1214.00,48.497
1215.00, 
1216.00,48.499
1217.00, 
1218.00,48.468
1219.00, 
1220.00,48.492
1221.00, 
1222.00,48.495
1223.00, 
1224.00,48.484
1225.00, 
1226.00,48.479
1227.00, 
1228.00,48.487
1229.00, 
1230.00,48.537
1231.00, 
1232.00,48.525
1233.00, 
1234.00,48.534
1235.00, 
1236.00,48.566
1237.00, 
1238.00,48.510
1239.00, 
1240.00,48.544
1241.00, 
1242.00,48.503
1243.00, 
1244.00,48.540
1245.00, 
1246.00,48.521
1247.00, 
1248.00,48.515
1249.00, 
1250.00,48.513
1251.00, 
1252.00,48.549
1253.00, 
1254.00,48.526
1255.00, 
1256.00,48.534
1257.00, 
1258.00,48.565
1259.00, 
1260.00,48.563
1261.00, 
1262.00,48.567
1263.00, 
1264.00,48.584
1265.00, 
1266.00,48.576
1267.00, 
1268.00,48.592
1269.00, 
1270.00,48.592
1271.00, 
1272.00,48.625
1273.00, 
1274.00,48.592
1275.00, 
1276.00,48.615
1277.00, 
1278.00,48.640
1279.00, 
1280.00,48.623
1281.00, 
1282.00,48.630
1283.00, 
1284.00,48.659
1285.00, 
1286.00,48.620
1287.00, 
1288.00,48.667
1289.00, 
1290.00,48.648
1291.00, 
1292.00,48.659
1293.00, 
1294.00,48.677
1295.00, 
1296.00,48.699
1297.00, 
1298.00,48.704
1299.00, 
1300.00,48.710
1301.00, 
1302.00,48.750
1303.00, 
1304.00,48.754
1305.00, 
1306.00,48.747
1307.00, 
1308.00,48.805
1309.00, 
1310.00,48.744
1311.00, 
1312.00,48.783
1313.00, 
1314.00,48.813
1315.00, 
1316.00,48.836
1317.00, 
1318.00,48.874
1319.00, 
1320.00,48.860
1321.00, 
1322.00,49.005
1323.00, 
1324.00,49.036
1325.00, 
1326.00,48.978
1327.00, 
1328.00,48.983
1329.00, 
1330.00,48.978
1331.00, 
1332.00,48.981
1333.00, 
1334.00,49.005
1335.00, 
1336.00,49.045
1337.00, 
1338.00,49.157
1339.00, 
1340.00,49.284
1341.00, 
1342.00,49.396
1343.00, 
1344.00,49.480
1345.00, 
1346.00,49.583
1347.00, 
1348.00,49.604
1349.00, 
1350.00,49.663
1351.00, 
1352.00,49.700
1353.00, 
1354.00,49.738
1355.00, 
1356.00,49.674
1357.00, 
1358.00,49.688
1359.00, 
1360.00,49.721
1361.00, 
1362.00,49.694
1363.00, 
1364.00,49.778
1365.00, 
1366.00,49.752
1367.00, 
1368.00,49.540
1369.00, 
1370.00,49.708
1371.00, 
1372.00,49.627
1373.00, 
1374.00,49.712
1375.00, 
1376.00,49.637
1377.00, 
1378.00,49.791
1379.00, 
1380.00,49.607
1381.00, 
1382.00,49.158
1383.00, 
1384.00,49.507
1385.00, 
1386.00,49.675
1387.00, 
1388.00,49.589
1389.00, 
1390.00,49.638
1391.00, 
1392.00,49.557
1393.00, 
1394.00,49.643
1395.00, 
1396.00,49.658
1397.00, 
1398.00,49.617
1399.00, 
1400.00,49.823
1401.00, 
1402.00,49.660
1403.00, 
1404.00,49.615
1405.00, 
1406.00,49.651
1407.00, 
1408.00,49.793
1409.00, 
1410.00,49.643
1411.00, 
1412.00,50.170
1413.00, 
1414.00,50.047
1415.00, 
1416.00,49.767
1417.00, 
1418.00,49.777
1419.00, 
1420.00,49.777
1421.00, 
1422.00,49.859
1423.00, 
1424.00,49.832
1425.00, 
1426.00,49.879
1427.00, 
1428.00,49.904
1429.00, 
1430.00,49.898
1431.00, 
1432.00,49.954
1433.00, 
1434.00,49.966
1435.00, 
1436.00,50.029
1437.00, 
1438.00,50.039
1439.00, 
1440.00,50.103
1441.00, 
1442.00,50.102
1443.00, 
1444.00,50.184
1445.00, 
1446.00,50.146
1447.00, 
1448.00,50.217
1449.00, 
1450.00,50.240
1451.00, 
1452.00,50.278
1453.00, 
1454.00,50.290
1455.00, 
1456.00,50.301
1457.00, 
1458.00,50.366
1459.00, 
1460.00,50.395
1461.00, 
1462.00,50.407
1463.00, 
1464.00,50.428
1465.00, 
1466.00,50.448
1467.00, 
1468.00,50.511
1469.00, 
1470.00,50.514
1471.00, 
1472.00,50.541
1473.00, 
1474.00,50.572
1475.00, 
1476.00,50.595
1477.00, 
1478.00,50.612
1479.00, 
1480.00,50.635
1481.00, 
1482.00,50.667
1483.00, 
1484.00,50.705
1485.00, 
1486.00,50.719
1487.00, 
1488.00,50.747
1489.00, 
1490.00,50.759
1491.00, 
1492.00,50.778
1493.00, 
1494.00,50.780
1495.00, 
1496.00,50.821
1497.00, 
1498.00,50.830
1499.00, 
1500.00,50.866
1501.00, 
1502.00,50.884
1503.00, 
1504.00,50.954
1505.00, 
1506.00,50.951
1507.00, 
1508.00,50.961
1509.00, 
1510.00,50.973
1511.00, 
1512.00,50.995
1513.00, 
1514.00,51.008
1515.00, 
1516.00,51.050
1517.00, 
1518.00,51.064
1519.00, 
1520.00,51.082
1521.00, 
1522.00,51.111
1523.00, 
1524.00,51.130
1525.00, 
1526.00,51.144
1527.00, 
1528.00,51.181
1529.00, 
1530.00,51.180
1531.00, 
1532.00,51.211
1533.00, 
1534.00,51.202
1535.00, 
1536.00,51.237
1537.00, 
1538.00,51.249
1539.00, 
1540.00,51.270
1541.00, 
1542.00,51.280
1543.00, 
1544.00,51.322
1545.00, 
1546.00,51.322
1547.00, 
1548.00,51.350
1549.00, 
1550.00,51.367
1551.00, 
1552.00,51.405
1553.00, 
1554.00,51.400
1555.00, 
1556.00,51.437
1557.00, 
1558.00,51.461
1559.00, 
1560.00,51.485
1561.00, 
1562.00,51.502
1563.00, 
1564.00,51.545
1565.00, 
1566.00,51.558
1567.00, 
1568.00,51.583
1569.00, 
1570.00,51.605
1571.00, 
1572.00,51.672
1573.00, 
1574.00,51.658
1575.00, 
1576.00,51.677
1577.00, 
1578.00,51.672
1579.00, 
1580.00,51.712
1581.00, 
1582.00,51.753
1583.00, 
1584.00,51.827
1585.00, 
1586.00,51.845
1587.00, 
1588.00,51.823
1589.00, 
1590.00,51.848
1591.00, 
1592.00,51.908
1593.00, 
1594.00,51.932
1595.00, 
1596.00,51.987
1597.00, 
1598.00,51.999
1599.00, 
1600.00,52.024
1601.00, 
1602.00,52.034
1603.00, 
1604.00,52.076
1605.00, 
1606.00,52.073
1607.00, 
1608.00,52.097
1609.00, 
1610.00,52.102
1611.00, 
1612.00,52.130
1613.00, 
1614.00,52.135
1615.00, 
1616.00,52.198
1617.00, 
1618.00,52.178
1619.00, 
1620.00,52.243
1621.00, 
1622.00,52.209
1623.00, 
1624.00,52.239
1625.00, 
1626.00,52.242
1627.00, 
1628.00,52.266
1629.00, 
1630.00,52.270
1631.00, 
1632.00,52.291
1633.00, 
1634.00,52.305
1635.00, 
1636.00,52.354
1637.00, 
1638.00,52.349
1639.00, 
1640.00,52.375
1641.00, 
1642.00,52.359
1643.00, 
1644.00,52.420
1645.00, 
1646.00,52.439
1647.00, 
1648.00,52.437
1649.00, 
1650.00,52.460
1651.00, 
1652.00,52.988
1653.00, 
1654.00,52.998
1655.00, 
1656.00,52.821
1657.00, 
1658.00,53.040
1659.00, 
1660.00,53.025
1661.00, 
1662.00,52.982
1663.00, 
1664.00,53.161
1665.00, 
1666.00,53.066
1667.00, 
1668.00,53.010
1669.00, 
1670.00,52.938
1671.00, 
1672.00,52.899
1673.00, 
1674.00,52.997
1675.00, 
1676.00,53.073
1677.00, 
1678.00,53.055
1679.00, 
1680.00,53.085
1681.00, 
1682.00,53.138
1683.00, 
1684.00,53.233
1685.00, 
1686.00,53.204
1687.00, 
1688.00,53.133
1689.00, 
1690.00,53.280
1691.00, 
1692.00,53.147
1693.00, 
1694.00,53.191
1695.00, 
1696.00,53.267
1697.00, 
1698.00,53.154
1699.00, 
1700.00,53.144
1701.00, 
1702.00,52.988
1703.00, 
1704.00,53.118
1705.00, 
1706.00,52.993
1707.00, 
1708.00,53.150
1709.00, 
1710.00,52.936
1711.00, 
1712.00,53.256
1713.00, 
1714.00,53.213
1715.00, 
1716.00,53.001
1717.00, 
1718.00,53.302
1719.00, 
1720.00,52.877
1721.00, 
1722.00,53.209
1723.00, 
1724.00,53.077
1725.00, 
1726.00,53.042
1727.00, 
1728.00,53.036
1729.00, 
1730.00,52.972
1731.00, 
1732.00,52.949
1733.00, 
1734.00,53.039
1735.00, 
1736.00,53.100
1737.00, 
1738.00,53.109
1739.00, 
1740.00,52.997
1741.00, 
1742.00,53.160
1743.00, 
1744.00,53.357
1745.00, 
1746.00,53.168
1747.00, 
1748.00,53.361
1749.00, 
1750.00,52.904
1751.00, 
1752.00,53.056
1753.00, 
1754.00,52.902
1755.00, 
1756.00,52.690
1757.00, 
1758.00,53.150
1759.00, 
1760.00,53.039
1761.00, 
1762.00,53.200
1763.00, 
1764.00,53.087
1765.00, 
1766.00,53.163
1767.00, 
1768.00,52.940
1769.00, 
1770.00,53.106
1771.00, 
1772.00,52.961
1773.00, 
1774.00,53.111
1775.00, 
1776.00,52.907
1777.00, 
1778.00,53.117
1779.00, 
1780.00,53.059
1781.00, 
1782.00,53.198
1783.00, 
1784.00,52.910
1785.00, 
1786.00,53.197
1787.00, 
1788.00,52.925
1789.00, 
1790.00,53.174
1791.00, 
1792.00,53.066
1793.00, 
1794.00,53.010
1795.00, 
1796.00,53.246
1797.00, 
1798.00,53.179
1799.00, 
1800.00,53.170
1801.00, 
1802.00,52.904
1803.00, 
1804.00,53.134
1805.00, 
1806.00,52.966
1807.00, 
1808.00,53.119
1809.00, 
1810.00,53.017
1811.00, 
1812.00,53.251
1813.00, 
1814.00,53.314
1815.00, 
1816.00,53.108
1817.00, 
1818.00,53.054
1819.00, 
1820.00,53.332
1821.00, 
1822.00,53.114
1823.00, 
1824.00,52.854
1825.00, 
1826.00,52.904
1827.00, 
1828.00,53.268
1829.00, 
1830.00,53.538
1831.00, 
1832.00,53.207
1833.00, 
1834.00,53.587
1835.00, 
1836.00,53.374
1837.00, 
1838.00,53.344
1839.00, 
1840.00,53.514
1841.00, 
1842.00,53.260
1843.00, 
1844.00,53.321
1845.00, 
1846.00,53.565
1847.00, 
1848.00,53.776
1849.00, 
1850.00,53.317
1851.00, 
1852.00,52.437
1853.00, 
1854.00,53.412
1855.00, 
1856.00,53.911
1857.00, 
1858.00,53.226
1859.00, 
1860.00,53.693
1861.00, 
1862.00,53.853
1863.00, 
1864.00,53.780
1865.00, 
1866.00,54.774
1867.00, 
1868.00,53.950
1869.00, 
1870.00,54.054
1871.00, 
1872.00,53.718
1873.00, 
1874.00,53.705
1875.00, 
1876.00,54.010
1877.00, 
1878.00,53.499
1879.00, 
1880.00,53.576
1881.00, 
1882.00,53.156
1883.00, 
1884.00,53.283
1885.00, 
1886.00,53.498
1887.00, 
1888.00,53.328
1889.00, 
1890.00,53.315
1891.00, 
1892.00,53.328
1893.00, 
1894.00,53.354
1895.00, 
1896.00,53.426
1897.00, 
1898.00,53.655
1899.00, 
1900.00,52.849
1901.00, 
1902.00,53.515
1903.00, 
1904.00,52.811
1905.00, 
1906.00,53.124
1907.00, 
1908.00,53.012
1909.00, 
1910.00,53.023
1911.00, 
1912.00,53.240
1913.00, 
1914.00,52.968
1915.00, 
1916.00,53.083
1917.00, 
1918.00,53.289
1919.00, 
1920.00,53.225
1921.00, 
1922.00,53.119
1923.00, 
1924.00,53.074
1925.00, 
1926.00,53.201
1927.00, 
1928.00,52.987
1929.00, 
1930.00,53.049
1931.00, 
1932.00,53.077
1933.00, 
1934.00,52.917
1935.00, 
1936.00,52.951
1937.00, 
1938.00,53.251
1939.00, 
1940.00,53.132
1941.00, 
1942.00,53.009
1943.00, 
1944.00,53.199
1945.00, 
1946.00,52.762
1947.00, 
1948.00,52.922
1949.00, 
1950.00,53.136
1951.00, 
1952.00,53.026
1953.00, 
1954.00,53.316
1955.00, 
1956.00,53.066
1957.00, 
1958.00,53.002
1959.00, 
1960.00,52.900
1961.00, 
1962.00,53.088
1963.00, 
1964.00,53.162
1965.00, 
1966.00,52.913
1967.00, 
1968.00,53.086
1969.00, 
1970.00,52.997
1971.00, 
1972.00,53.003
1973.00, 
1974.00,52.986
1975.00, 
1976.00,53.250
1977.00, 
1978.00,52.970
1979.00, 
1980.00,52.988
1981.00, 
1982.00,53.036
1983.00, 
1984.00,52.959
1985.00, 
1986.00,53.118
1987.00, 
1988.00,53.056
1989.00, 
1990.00,52.831
1991.00, 
1992.00,52.687
1993.00, 
1994.00,53.073
1995.00, 
1996.00,52.745
1997.00, 
1998.00,52.870
1999.00, 
2000.00,52.911
2001.00, 
2002.00,53.175
2003.00, 
2004.00,53.129
2005.00, 
2006.00,52.523
2007.00, 
2008.00,53.002
2009.00, 
2010.00,52.965
2011.00, 
2012.00,53.179
2013.00, 
2014.00,53.555
2015.00, 
2016.00,52.945
2017.00, 
2018.00,53.168
2019.00, 
2020.00,52.832
2021.00, 
2022.00,52.989
2023.00, 
2024.00,52.826
2025.00, 
2026.00,52.751
2027.00, 
2028.00,53.015
2029.00, 
2030.00,53.068
2031.00, 
2032.00,52.774
2033.00, 
2034.00,52.930
2035.00, 
2036.00,53.007
2037.00, 
2038.00,53.358
2039.00, 
2040.00,52.903
2041.00, 
2042.00,53.065
2043.00, 
2044.00,53.167
2045.00, 
2046.00,53.414
2047.00, 
2048.00,53.130
2049.00, 
2050.00,53.029
2051.00, 
2052.00,53.115
2053.00, 
2054.00,52.614
2055.00, 
2056.00,52.624
2057.00, 
2058.00,52.808
2059.00, 
2060.00,52.605
2061.00, 
2062.00,52.887
2063.00, 
2064.00,52.732
2065.00, 
2066.00,53.216
2067.00, 
2068.00,52.798
2069.00, 
2070.00,52.806
2071.00, 
2072.00,52.802
2073.00, 
2074.00,52.592
2075.00, 
2076.00,52.576
2077.00, 
2078.00,52.995
2079.00, 
2080.00,52.892
2081.00, 
2082.00,52.700
2083.00, 
2084.00,52.665
2085.00, 
2086.00,52.702
2087.00, 
2088.00,53.004
2089.00, 
2090.00,52.267
2091.00, 
2092.00,52.787
2093.00, 
2094.00,52.697
2095.00, 
2096.00,52.541
2097.00, 
2098.00,52.764
2099.00, 
2100.00,52.953
2101.00, 
2102.00,52.793
2103.00, 
2104.00,52.694
2105.00, 
2106.00,52.508
2107.00, 
2108.00,52.683
2109.00, 
2110.00,52.848
2111.00, 
2112.00,52.166
2113.00, 
2114.00,52.323
2115.00, 
2116.00,52.913
2117.00, 
2118.00,52.769
2119.00, 
2120.00,52.946
2121.00, 
2122.00,52.843
2123.00, 
2124.00,52.447
2125.00, 
2126.00,52.709
2127.00, 
2128.00,52.840
2129.00, 
2130.00,52.851
2131.00, 
2132.00,52.305
2133.00, 
2134.00,52.629
2135.00, 
2136.00,52.912
2137.00, 
2138.00,52.947
2139.00, 
2140.00,52.838
2141.00, 
2142.00,53.078
2143.00, 
2144.00,53.111
2145.00, 
2146.00,52.306
2147.00, 
2148.00,52.732
2149.00, 
2150.00,52.785
2151.00, 
2152.00,52.687
2153.00, 
2154.00,52.567
2155.00, 
2156.00,52.811
2157.00, 
2158.00,52.893
2159.00, 
2160.00,52.796
2161.00, 
2162.00,52.739
2163.00, 
2164.00,52.625
2165.00, 
2166.00,52.651
2167.00, 
2168.00,52.568
2169.00, 
2170.00,52.503
2171.00, 
2172.00,52.725
2173.00, 
2174.00,52.430
2175.00, 
2176.00,52.363
2177.00, 
2178.00,52.851
2179.00, 
2180.00,51.650
2181.00, 
2182.00,52.332
2183.00, 
2184.00,52.691
2185.00, 
2186.00,52.409
2187.00, 
2188.00,51.586
2189.00, 
2190.00,52.823
2191.00, 
2192.00,51.476
2193.00, 
2194.00,52.094
2195.00, 
2196.00,52.120
2197.00, 
2198.00,52.049
2199.00, 
2200.00,52.482
2201.00, 
2202.00,51.827
2203.00, 
2204.00,52.006
2205.00, 
2206.00,52.099
2207.00, 
2208.00,51.859
2209.00, 
2210.00,52.001
2211.00, 
2212.00,51.857
2213.00, 
2214.00,52.108
2215.00, 
2216.00,52.280
2217.00, 
2218.00,52.562
2219.00, 
2220.00,52.053
2221.00, 
2222.00,51.498
2223.00, 
2224.00,51.633
2225.00, 
2226.00,51.634
2227.00, 
2228.00,52.558
2229.00, 
2230.00,52.160
2231.00, 
2232.00,52.720
2233.00, 
2234.00,52.446
2235.00, 
2236.00,52.188
2237.00, 
2238.00,53.248
2239.00, 
2240.00,52.881
2241.00, 
2242.00,53.167
2243.00, 
2244.00,52.444
2245.00, 
2246.00,52.564
2247.00, 
2248.00,52.303
2249.00, 
2250.00,53.194
2251.00, 
2252.00,53.015
2253.00, 
2254.00,52.811
2255.00, 
2256.00,53.231
2257.00, 
2258.00,53.378
2259.00, 
2260.00,53.677
2261.00, 
2262.00,52.861
2263.00, 
2264.00,52.787
2265.00, 
2266.00,53.409
2267.00, 
2268.00,52.908
2269.00, 
2270.00,53.228
2271.00, 
2272.00,52.395
2273.00, 
2274.00,53.187
2275.00, 
2276.00,52.747
2277.00, 
2278.00,52.747
2279.00, 
2280.00,52.404
2281.00, 
2282.00,52.469
2283.00, 
2284.00,52.914
2285.00, 
2286.00,52.972
2287.00, 
2288.00,52.557
2289.00, 
2290.00,53.015
2291.00, 
2292.00,52.784
2293.00, 
2294.00,52.610
2295.00, 
2296.00,52.956
2297.00, 
2298.00,52.940
2299.00, 
2300.00,52.937
2301.00, 
2302.00,53.234
2303.00, 
2304.00,52.694
2305.00, 
2306.00,52.446
2307.00, 
2308.00,53.146
2309.00, 
2310.00,52.961
2311.00, 
2312.00,52.791
2313.00, 
2314.00,53.163
2315.00, 
2316.00,52.577
2317.00, 
2318.00,52.990
2319.00, 
2320.00,52.453
2321.00, 
2322.00,52.830
2323.00, 
2324.00,53.977
2325.00, 
2326.00,53.576
2327.00, 
2328.00,53.470
2329.00, 
2330.00,52.899
2331.00, 
2332.00,53.208
2333.00, 
2334.00,53.080
2335.00, 
2336.00,53.302
2337.00, 
2338.00,52.840
2339.00, 
2340.00,53.087
2341.00, 
2342.00,52.493
2343.00, 
2344.00,53.006
2345.00, 
2346.00,53.341
2347.00, 
2348.00,53.165
2349.00, 
2350.00,52.830
2351.00, 
2352.00,52.968
2353.00, 
2354.00,53.082
2355.00, 
2356.00,53.275
2357.00, 
2358.00,52.600
2359.00, 
2360.00,52.582
2361.00, 
2362.00,52.358
2363.00, 
2364.00,52.503
2365.00, 
2366.00,53.087
2367.00, 
2368.00,52.902
2369.00, 
2370.00,53.387
2371.00, 
2372.00,52.648
2373.00, 
2374.00,52.913
2375.00, 
2376.00,52.916
2377.00, 
2378.00,52.672
2379.00, 
2380.00,52.791
2381.00, 
2382.00,51.912
2383.00, 
2384.00,52.057
2385.00, 
2386.00,52.711
2387.00, 
2388.00,53.435
2389.00, 
2390.00,53.469
2391.00, 
2392.00,52.194
2393.00, 
2394.00,52.222
2395.00, 
2396.00,53.058
2397.00, 
2398.00,53.344
2399.00, 
2400.00,52.654
2401.00, 
2402.00,51.847
2403.00, 
2404.00,52.942
2405.00, 
2406.00,52.489
2407.00, 
2408.00,52.783
2409.00, 
2410.00,52.216
2411.00, 
2412.00,52.113
2413.00, 
2414.00,52.470
2415.00, 
2416.00,53.155
2417.00, 
2418.00,52.812
2419.00, 
2420.00,53.505
2421.00, 
2422.00,51.881
2423.00, 
2424.00,52.967
2425.00, 
2426.00,52.059
2427.00, 
2428.00,52.597
2429.00, 
2430.00,52.571
2431.00, 
2432.00,52.013
2433.00, 
2434.00,51.822
2435.00, 
2436.00,51.552
2437.00, 
2438.00,51.978
2439.00, 
2440.00,51.696
2441.00, 
2442.00,52.533
2443.00, 
2444.00,52.533
2445.00, 
2446.00,52.647
2447.00, 
2448.00,52.843
2449.00, 
2450.00,52.736
2451.00, 
2452.00,52.770
2453.00, 
2454.00,52.145
2455.00, 
2456.00,52.756
2457.00, 
2458.00,52.186
2459.00, 
2460.00,51.154
2461.00, 
2462.00,52.868
2463.00, 
2464.00,50.520
2465.00, 
2466.00,51.323
2467.00, 
2468.00,51.310
2469.00, 
2470.00,51.897
2471.00, 
2472.00,52.299
2473.00, 
2474.00,49.655
2475.00, 
2476.00,51.915
2477.00, 
2478.00,51.178
2479.00, 
2480.00,51.964
2481.00, 
2482.00,50.760
2483.00, 
2484.00,50.453
2485.00, 
2486.00,52.652
2487.00, 
2488.00,51.243
2489.00, 
2490.00,51.404
2491.00, 
2492.00,51.809
2493.00, 
2494.00,52.250
2495.00, 
2496.00,51.829
2497.00, 
2498.00,51.795
2499.00, 
2500.00,50.898
2501.00, 
2502.00,51.653
2503.00, 
2504.00,51.506
2505.00, 
2506.00,51.865
2507.00, 
2508.00,51.702
2509.00, 
2510.00,51.825
2511.00, 
2512.00,52.035
2513.00, 
2514.00,51.523
2515.00, 
2516.00,51.690
2517.00, 
2518.00,52.601
2519.00, 
2520.00,51.903
2521.00, 
2522.00,51.923
2523.00, 
2524.00,51.646
2525.00, 
2526.00,51.341
2527.00, 
2528.00,52.066
2529.00, 
2530.00,51.415
2531.00, 
2532.00,52.454
2533.00, 
2534.00,51.652
2535.00, 
2536.00,52.427
2537.00, 
2538.00,51.737
2539.00, 
2540.00,51.737
2541.00, 
2542.00,51.226
2543.00, 
2544.00,51.533
2545.00, 
2546.00,52.506
2547.00, 
2548.00,50.957
2549.00, 
2550.00,52.276
2551.00, 
2552.00,51.782
2553.00, 
2554.00,51.472
2555.00, 
2556.00,51.090
2557.00, 
2558.00,52.841
2559.00, 
2560.00,50.993
2561.00, 
2562.00,50.517
2563.00, 
2564.00,51.799
2565.00, 
2566.00,52.077
2567.00, 
2568.00,50.589
2569.00, 
2570.00,50.941
2571.00, 
2572.00,51.444
2573.00, 
2574.00,52.145
2575.00, 
2576.00,52.075
2577.00, 
2578.00,51.798
2579.00, 
2580.00,52.580
2581.00, 
2582.00,52.092
2583.00, 
2584.00,50.479
2585.00, 
2586.00,50.821
2587.00, 
2588.00,51.751
2589.00, 
2590.00,51.800
2591.00, 
2592.00,53.349
2593.00, 
2594.00,50.643
2595.00, 
2596.00,52.202
2597.00, 
2598.00,52.291
2599.00, 
2600.00,52.920
