"2cP2 - RawData"
"Wavelength nm.","T%"
200.00,0.000
201.00, 
202.00,-0.001
203.00, 
204.00,-0.001
205.00, 
206.00,0.000
207.00, 
208.00,0.001
209.00, 
210.00,-0.001
211.00, 
212.00,0.001
213.00, 
214.00,-0.001
215.00, 
216.00,0.001
217.00, 
218.00,-0.000
219.00, 
220.00,0.000
221.00, 
222.00,-0.001
223.00, 
224.00,-0.000
225.00, 
226.00,-0.000
227.00, 
228.00,-0.002
229.00, 
230.00,-0.000
231.00, 
232.00,-0.000
233.00, 
234.00,0.000
235.00, 
236.00,-0.001
237.00, 
238.00,0.001
239.00, 
240.00,-0.000
241.00, 
242.00,0.001
243.00, 
244.00,0.000
245.00, 
246.00,0.002
247.00, 
248.00,-0.001
249.00, 
250.00,0.001
251.00, 
252.00,-0.001
253.00, 
254.00,0.001
255.00, 
256.00,-0.000
257.00, 
258.00,-0.001
259.00, 
260.00,-0.001
261.00, 
262.00,-0.000
263.00, 
264.00,-0.002
265.00, 
266.00,0.002
267.00, 
268.00,0.000
269.00, 
270.00,0.000
271.00, 
272.00,-0.000
273.00, 
274.00,0.001
275.00, 
276.00,0.000
277.00, 
278.00,0.000
279.00, 
280.00,-0.000
281.00, 
282.00,0.000
283.00, 
284.00,0.001
285.00, 
286.00,0.002
287.00, 
288.00,0.003
289.00, 
290.00,0.001
291.00, 
292.00,0.000
293.00, 
294.00,0.000
295.00, 
296.00,0.001
297.00, 
298.00,-0.000
299.00, 
300.00,0.002
301.00, 
302.00,0.001
303.00, 
304.00,0.003
305.00, 
306.00,0.007
307.00, 
308.00,0.015
309.00, 
310.00,0.032
311.00, 
312.00,0.056
313.00, 
314.00,0.104
315.00, 
316.00,0.158
317.00, 
318.00,0.248
319.00, 
320.00,0.359
321.00, 
322.00,0.504
323.00, 
324.00,0.690
325.00, 
326.00,0.863
327.00, 
328.00,1.038
329.00, 
330.00,1.293
331.00, 
332.00,1.515
333.00, 
334.00,1.749
335.00, 
336.00,1.968
337.00, 
338.00,2.178
339.00, 
340.00,2.396
341.00, 
342.00,2.589
343.00, 
344.00,2.743
345.00, 
346.00,2.891
347.00, 
348.00,3.007
349.00, 
350.00,3.113
351.00, 
352.00,3.191
353.00, 
354.00,3.257
355.00, 
356.00,3.301
357.00, 
358.00,3.343
359.00, 
360.00,3.359
361.00, 
362.00,3.369
363.00, 
364.00,3.370
365.00, 
366.00,3.336
367.00, 
368.00,3.325
369.00, 
370.00,3.292
371.00, 
372.00,3.260
373.00, 
374.00,3.217
375.00, 
376.00,3.168
377.00, 
378.00,3.099
379.00, 
380.00,3.057
381.00, 
382.00,3.001
383.00, 
384.00,2.965
385.00, 
386.00,2.936
387.00, 
388.00,2.905
389.00, 
390.00,2.878
391.00, 
392.00,2.850
393.00, 
394.00,2.822
395.00, 
396.00,2.799
397.00, 
398.00,2.765
399.00, 
400.00,2.745
401.00, 
402.00,2.713
403.00, 
404.00,2.696
405.00, 
406.00,2.679
407.00, 
408.00,2.671
409.00, 
410.00,2.643
411.00, 
412.00,2.630
413.00, 
414.00,2.621
415.00, 
416.00,2.617
417.00, 
418.00,2.623
419.00, 
420.00,2.620
421.00, 
422.00,2.626
423.00, 
424.00,2.646
425.00, 
426.00,2.667
427.00, 
428.00,2.684
429.00, 
430.00,2.705
431.00, 
432.00,2.739
433.00, 
434.00,2.780
435.00, 
436.00,2.810
437.00, 
438.00,2.855
439.00, 
440.00,2.903
441.00, 
442.00,2.965
443.00, 
444.00,3.030
445.00, 
446.00,3.097
447.00, 
448.00,3.163
449.00, 
450.00,3.237
451.00, 
452.00,3.304
453.00, 
454.00,3.405
455.00, 
456.00,3.495
457.00, 
458.00,3.597
459.00, 
460.00,3.710
461.00, 
462.00,3.835
463.00, 
464.00,3.931
465.00, 
466.00,4.037
467.00, 
468.00,4.166
469.00, 
470.00,4.284
471.00, 
472.00,4.427
473.00, 
474.00,4.563
475.00, 
476.00,4.714
477.00, 
478.00,4.858
479.00, 
480.00,5.015
481.00, 
482.00,5.184
483.00, 
484.00,5.347
485.00, 
486.00,5.507
487.00, 
488.00,5.713
489.00, 
490.00,5.906
491.00, 
492.00,6.081
493.00, 
494.00,6.258
495.00, 
496.00,6.441
497.00, 
498.00,6.638
499.00, 
500.00,6.816
501.00, 
502.00,6.995
503.00, 
504.00,7.215
505.00, 
506.00,7.387
507.00, 
508.00,7.606
509.00, 
510.00,7.805
511.00, 
512.00,7.974
513.00, 
514.00,8.168
515.00, 
516.00,8.393
517.00, 
518.00,8.597
519.00, 
520.00,8.753
521.00, 
522.00,8.911
523.00, 
524.00,9.075
525.00, 
526.00,9.323
527.00, 
528.00,9.492
529.00, 
530.00,9.659
531.00, 
532.00,9.900
533.00, 
534.00,10.072
535.00, 
536.00,10.228
537.00, 
538.00,10.374
539.00, 
540.00,10.529
541.00, 
542.00,10.710
543.00, 
544.00,10.849
545.00, 
546.00,10.982
547.00, 
548.00,11.103
549.00, 
550.00,11.235
551.00, 
552.00,11.369
553.00, 
554.00,11.528
555.00, 
556.00,11.701
557.00, 
558.00,11.850
559.00, 
560.00,11.948
561.00, 
562.00,12.077
563.00, 
564.00,12.214
565.00, 
566.00,12.322
567.00, 
568.00,12.419
569.00, 
570.00,12.508
571.00, 
572.00,12.603
573.00, 
574.00,12.798
575.00, 
576.00,12.894
577.00, 
578.00,13.016
579.00, 
580.00,13.195
581.00, 
582.00,13.303
583.00, 
584.00,13.451
585.00, 
586.00,13.570
587.00, 
588.00,13.654
589.00, 
590.00,13.807
591.00, 
592.00,13.832
593.00, 
594.00,13.864
595.00, 
596.00,14.031
597.00, 
598.00,14.171
599.00, 
600.00,14.253
601.00, 
602.00,14.369
603.00, 
604.00,14.572
605.00, 
606.00,14.773
607.00, 
608.00,14.807
609.00, 
610.00,14.904
611.00, 
612.00,15.146
613.00, 
614.00,15.138
615.00, 
616.00,15.327
617.00, 
618.00,15.496
619.00, 
620.00,15.637
621.00, 
622.00,15.858
623.00, 
624.00,16.015
625.00, 
626.00,16.150
627.00, 
628.00,16.359
629.00, 
630.00,16.540
631.00, 
632.00,16.717
633.00, 
634.00,16.925
635.00, 
636.00,17.108
637.00, 
638.00,17.328
639.00, 
640.00,17.655
641.00, 
642.00,17.869
643.00, 
644.00,18.070
645.00, 
646.00,18.375
647.00, 
648.00,18.617
649.00, 
650.00,18.949
651.00, 
652.00,19.206
653.00, 
654.00,19.453
655.00, 
656.00,19.783
657.00, 
658.00,19.867
659.00, 
660.00,20.231
661.00, 
662.00,20.664
663.00, 
664.00,21.000
665.00, 
666.00,21.567
667.00, 
668.00,21.717
669.00, 
670.00,22.190
671.00, 
672.00,22.770
673.00, 
674.00,22.787
675.00, 
676.00,23.255
677.00, 
678.00,23.783
679.00, 
680.00,23.962
681.00, 
682.00,24.315
683.00, 
684.00,24.748
685.00, 
686.00,25.249
687.00, 
688.00,25.573
689.00, 
690.00,25.955
691.00, 
692.00,26.557
693.00, 
694.00,26.491
695.00, 
696.00,27.383
697.00, 
698.00,27.652
699.00, 
700.00,28.177
701.00, 
702.00,28.235
703.00, 
704.00,28.812
705.00, 
706.00,29.436
707.00, 
708.00,29.922
709.00, 
710.00,30.308
711.00, 
712.00,30.842
713.00, 
714.00,31.201
715.00, 
716.00,31.418
717.00, 
718.00,32.085
719.00, 
720.00,32.176
721.00, 
722.00,35.981
723.00, 
724.00,36.372
725.00, 
726.00,36.611
727.00, 
728.00,37.060
729.00, 
730.00,37.302
731.00, 
732.00,37.793
733.00, 
734.00,38.148
735.00, 
736.00,38.478
737.00, 
738.00,38.748
739.00, 
740.00,39.153
741.00, 
742.00,39.489
743.00, 
744.00,39.902
745.00, 
746.00,40.245
747.00, 
748.00,40.632
749.00, 
750.00,40.906
751.00, 
752.00,41.219
753.00, 
754.00,41.558
755.00, 
756.00,41.901
757.00, 
758.00,42.177
759.00, 
760.00,42.479
761.00, 
762.00,42.812
763.00, 
764.00,42.977
765.00, 
766.00,43.508
767.00, 
768.00,43.575
769.00, 
770.00,43.899
771.00, 
772.00,44.078
773.00, 
774.00,44.355
775.00, 
776.00,44.577
777.00, 
778.00,44.705
779.00, 
780.00,44.942
781.00, 
782.00,45.130
783.00, 
784.00,45.336
785.00, 
786.00,45.458
787.00, 
788.00,45.580
789.00, 
790.00,45.776
791.00, 
792.00,45.849
793.00, 
794.00,46.014
795.00, 
796.00,46.244
797.00, 
798.00,46.394
799.00, 
800.00,46.375
801.00, 
802.00,46.632
803.00, 
804.00,46.589
805.00, 
806.00,46.660
807.00, 
808.00,46.639
809.00, 
810.00,46.757
811.00, 
812.00,46.943
813.00, 
814.00,47.040
815.00, 
816.00,47.136
817.00, 
818.00,47.132
819.00, 
820.00,47.263
821.00, 
822.00,47.292
823.00, 
824.00,47.324
825.00, 
826.00,47.524
827.00, 
828.00,47.655
829.00, 
830.00,47.689
831.00, 
832.00,50.045
833.00, 
834.00,50.126
835.00, 
836.00,50.129
837.00, 
838.00,50.138
839.00, 
840.00,50.236
841.00, 
842.00,50.307
843.00, 
844.00,50.347
845.00, 
846.00,50.311
847.00, 
848.00,50.316
849.00, 
850.00,50.343
851.00, 
852.00,50.367
853.00, 
854.00,50.398
855.00, 
856.00,50.392
857.00, 
858.00,50.360
859.00, 
860.00,50.417
861.00, 
862.00,50.437
863.00, 
864.00,50.488
865.00, 
866.00,50.522
867.00, 
868.00,50.543
869.00, 
870.00,50.619
871.00, 
872.00,50.613
873.00, 
874.00,50.651
875.00, 
876.00,50.703
877.00, 
878.00,50.668
879.00, 
880.00,50.700
881.00, 
882.00,50.724
883.00, 
884.00,50.717
885.00, 
886.00,50.714
887.00, 
888.00,50.770
889.00, 
890.00,50.675
891.00, 
892.00,50.722
893.00, 
894.00,50.660
895.00, 
896.00,50.678
897.00, 
898.00,50.652
899.00, 
900.00,50.687
901.00, 
902.00,50.722
903.00, 
904.00,50.736
905.00, 
906.00,50.697
907.00, 
908.00,50.723
909.00, 
910.00,50.667
911.00, 
912.00,50.657
913.00, 
914.00,50.633
915.00, 
916.00,50.703
917.00, 
918.00,50.635
919.00, 
920.00,50.631
921.00, 
922.00,50.566
923.00, 
924.00,50.557
925.00, 
926.00,50.720
927.00, 
928.00,50.563
929.00, 
930.00,50.506
931.00, 
932.00,50.495
933.00, 
934.00,50.473
935.00, 
936.00,50.440
937.00, 
938.00,50.415
939.00, 
940.00,50.403
941.00, 
942.00,50.358
943.00, 
944.00,50.387
945.00, 
946.00,50.315
947.00, 
948.00,50.320
949.00, 
950.00,50.288
951.00, 
952.00,50.239
953.00, 
954.00,50.235
955.00, 
956.00,50.203
957.00, 
958.00,50.124
959.00, 
960.00,50.112
961.00, 
962.00,50.081
963.00, 
964.00,50.076
965.00, 
966.00,50.048
967.00, 
968.00,50.036
969.00, 
970.00,50.010
971.00, 
972.00,50.070
973.00, 
974.00,50.052
975.00, 
976.00,50.022
977.00, 
978.00,50.056
979.00, 
980.00,50.062
981.00, 
982.00,50.019
983.00, 
984.00,50.047
985.00, 
986.00,50.043
987.00, 
988.00,50.043
989.00, 
990.00,50.019
991.00, 
992.00,50.014
993.00, 
994.00,50.002
995.00, 
996.00,49.973
997.00, 
998.00,49.957
999.00, 
1000.00,49.945
1001.00, 
1002.00,49.930
1003.00, 
1004.00,49.893
1005.00, 
1006.00,49.901
1007.00, 
1008.00,49.916
1009.00, 
1010.00,49.846
1011.00, 
1012.00,49.828
1013.00, 
1014.00,49.823
1015.00, 
1016.00,49.800
1017.00, 
1018.00,49.767
1019.00, 
1020.00,49.744
1021.00, 
1022.00,49.714
1023.00, 
1024.00,49.691
1025.00, 
1026.00,49.680
1027.00, 
1028.00,49.628
1029.00, 
1030.00,49.621
1031.00, 
1032.00,49.562
1033.00, 
1034.00,49.530
1035.00, 
1036.00,49.478
1037.00, 
1038.00,49.449
1039.00, 
1040.00,49.373
1041.00, 
1042.00,49.373
1043.00, 
1044.00,49.364
1045.00, 
1046.00,49.344
1047.00, 
1048.00,49.373
1049.00, 
1050.00,49.430
1051.00, 
1052.00,49.417
1053.00, 
1054.00,49.437
1055.00, 
1056.00,49.434
1057.00, 
1058.00,49.459
1059.00, 
1060.00,49.442
1061.00, 
1062.00,49.425
1063.00, 
1064.00,49.419
1065.00, 
1066.00,49.409
1067.00, 
1068.00,49.379
1069.00, 
1070.00,49.372
1071.00, 
1072.00,49.350
1073.00, 
1074.00,49.337
1075.00, 
1076.00,49.314
1077.00, 
1078.00,49.303
1079.00, 
1080.00,49.279
1081.00, 
1082.00,49.297
1083.00, 
1084.00,49.281
1085.00, 
1086.00,49.263
1087.00, 
1088.00,49.249
1089.00, 
1090.00,49.237
1091.00, 
1092.00,49.225
1093.00, 
1094.00,49.190
1095.00, 
1096.00,49.185
1097.00, 
1098.00,49.159
1099.00, 
1100.00,49.143
1101.00, 
1102.00,49.132
1103.00, 
1104.00,49.096
1105.00, 
1106.00,49.086
1107.00, 
1108.00,49.078
1109.00, 
1110.00,49.058
1111.00, 
1112.00,49.041
1113.00, 
1114.00,49.052
1115.00, 
1116.00,49.007
1117.00, 
1118.00,49.014
1119.00, 
1120.00,49.008
1121.00, 
1122.00,48.963
1123.00, 
1124.00,48.960
1125.00, 
1126.00,48.952
1127.00, 
1128.00,48.919
1129.00, 
1130.00,48.902
1131.00, 
1132.00,48.889
1133.00, 
1134.00,48.907
1135.00, 
1136.00,48.867
1137.00, 
1138.00,48.873
1139.00, 
1140.00,48.865
1141.00, 
1142.00,48.847
1143.00, 
1144.00,48.845
1145.00, 
1146.00,48.853
1147.00, 
1148.00,48.831
1149.00, 
1150.00,48.850
1151.00, 
1152.00,48.809
1153.00, 
1154.00,48.823
1155.00, 
1156.00,48.796
1157.00, 
1158.00,48.795
1159.00, 
1160.00,48.793
1161.00, 
1162.00,48.799
1163.00, 
1164.00,48.789
1165.00, 
1166.00,48.776
1167.00, 
1168.00,48.782
1169.00, 
1170.00,48.781
1171.00, 
1172.00,48.756
1173.00, 
1174.00,48.775
1175.00, 
1176.00,48.762
1177.00, 
1178.00,48.749
1179.00, 
1180.00,48.769
1181.00, 
1182.00,48.737
1183.00, 
1184.00,48.737
1185.00, 
1186.00,48.762
1187.00, 
1188.00,48.716
1189.00, 
1190.00,48.752
1191.00, 
1192.00,48.742
1193.00, 
1194.00,48.757
1195.00, 
1196.00,48.731
1197.00, 
1198.00,48.742
1199.00, 
1200.00,48.721
1201.00, 
1202.00,48.714
1203.00, 
1204.00,48.716
1205.00, 
1206.00,48.720
1207.00, 
1208.00,48.710
1209.00, 
1210.00,48.711
1211.00, 
1212.00,48.690
1213.00, 
1214.00,48.703
1215.00, 
1216.00,48.707
1217.00, 
1218.00,48.704
1219.00, 
1220.00,48.716
1221.00, 
1222.00,48.730
1223.00, 
1224.00,48.707
1225.00, 
1226.00,48.706
1227.00, 
1228.00,48.734
1229.00, 
1230.00,48.709
1231.00, 
1232.00,48.724
1233.00, 
1234.00,48.708
1235.00, 
1236.00,48.736
1237.00, 
1238.00,48.731
1239.00, 
1240.00,48.753
1241.00, 
1242.00,48.711
1243.00, 
1244.00,48.743
1245.00, 
1246.00,48.729
1247.00, 
1248.00,48.726
1249.00, 
1250.00,48.723
1251.00, 
1252.00,48.756
1253.00, 
1254.00,48.716
1255.00, 
1256.00,48.736
1257.00, 
1258.00,48.749
1259.00, 
1260.00,48.746
1261.00, 
1262.00,48.754
1263.00, 
1264.00,48.778
1265.00, 
1266.00,48.783
1267.00, 
1268.00,48.805
1269.00, 
1270.00,48.801
1271.00, 
1272.00,48.843
1273.00, 
1274.00,48.809
1275.00, 
1276.00,48.815
1277.00, 
1278.00,48.857
1279.00, 
1280.00,48.831
1281.00, 
1282.00,48.849
1283.00, 
1284.00,48.903
1285.00, 
1286.00,48.844
1287.00, 
1288.00,48.894
1289.00, 
1290.00,48.878
1291.00, 
1292.00,48.887
1293.00, 
1294.00,48.900
1295.00, 
1296.00,48.923
1297.00, 
1298.00,48.925
1299.00, 
1300.00,48.931
1301.00, 
1302.00,48.941
1303.00, 
1304.00,48.951
1305.00, 
1306.00,48.965
1307.00, 
1308.00,49.020
1309.00, 
1310.00,48.958
1311.00, 
1312.00,49.016
1313.00, 
1314.00,49.035
1315.00, 
1316.00,49.047
1317.00, 
1318.00,49.099
1319.00, 
1320.00,49.073
1321.00, 
1322.00,49.199
1323.00, 
1324.00,49.193
1325.00, 
1326.00,49.179
1327.00, 
1328.00,49.203
1329.00, 
1330.00,49.197
1331.00, 
1332.00,49.190
1333.00, 
1334.00,49.229
1335.00, 
1336.00,49.261
1337.00, 
1338.00,49.359
1339.00, 
1340.00,49.469
1341.00, 
1342.00,49.582
1343.00, 
1344.00,49.684
1345.00, 
1346.00,49.795
1347.00, 
1348.00,49.781
1349.00, 
1350.00,49.849
1351.00, 
1352.00,49.868
1353.00, 
1354.00,49.890
1355.00, 
1356.00,49.889
1357.00, 
1358.00,49.922
1359.00, 
1360.00,49.984
1361.00, 
1362.00,49.885
1363.00, 
1364.00,49.924
1365.00, 
1366.00,49.901
1367.00, 
1368.00,49.894
1369.00, 
1370.00,49.914
1371.00, 
1372.00,49.846
1373.00, 
1374.00,49.890
1375.00, 
1376.00,49.843
1377.00, 
1378.00,49.885
1379.00, 
1380.00,49.841
1381.00, 
1382.00,49.753
1383.00, 
1384.00,49.865
1385.00, 
1386.00,49.925
1387.00, 
1388.00,49.760
1389.00, 
1390.00,49.904
1391.00, 
1392.00,49.710
1393.00, 
1394.00,49.896
1395.00, 
1396.00,49.775
1397.00, 
1398.00,49.845
1399.00, 
1400.00,49.942
1401.00, 
1402.00,49.808
1403.00, 
1404.00,49.900
1405.00, 
1406.00,49.885
1407.00, 
1408.00,49.919
1409.00, 
1410.00,49.877
1411.00, 
1412.00,50.020
1413.00, 
1414.00,49.925
1415.00, 
1416.00,50.000
1417.00, 
1418.00,49.979
1419.00, 
1420.00,49.981
1421.00, 
1422.00,50.051
1423.00, 
1424.00,50.026
1425.00, 
1426.00,50.057
1427.00, 
1428.00,50.096
1429.00, 
1430.00,50.126
1431.00, 
1432.00,50.172
1433.00, 
1434.00,50.192
1435.00, 
1436.00,50.263
1437.00, 
1438.00,50.249
1439.00, 
1440.00,50.304
1441.00, 
1442.00,50.301
1443.00, 
1444.00,50.392
1445.00, 
1446.00,50.340
1447.00, 
1448.00,50.415
1449.00, 
1450.00,50.443
1451.00, 
1452.00,50.470
1453.00, 
1454.00,50.487
1455.00, 
1456.00,50.496
1457.00, 
1458.00,50.541
1459.00, 
1460.00,50.582
1461.00, 
1462.00,50.601
1463.00, 
1464.00,50.630
1465.00, 
1466.00,50.661
1467.00, 
1468.00,50.718
1469.00, 
1470.00,50.737
1471.00, 
1472.00,50.766
1473.00, 
1474.00,50.788
1475.00, 
1476.00,50.817
1477.00, 
1478.00,50.827
1479.00, 
1480.00,50.847
1481.00, 
1482.00,50.881
1483.00, 
1484.00,50.927
1485.00, 
1486.00,50.930
1487.00, 
1488.00,50.979
1489.00, 
1490.00,50.992
1491.00, 
1492.00,51.004
1493.00, 
1494.00,51.017
1495.00, 
1496.00,51.058
1497.00, 
1498.00,51.076
1499.00, 
1500.00,51.091
1501.00, 
1502.00,51.078
1503.00, 
1504.00,51.131
1505.00, 
1506.00,51.142
1507.00, 
1508.00,51.160
1509.00, 
1510.00,51.179
1511.00, 
1512.00,51.185
1513.00, 
1514.00,51.187
1515.00, 
1516.00,51.243
1517.00, 
1518.00,51.259
1519.00, 
1520.00,51.272
1521.00, 
1522.00,51.322
1523.00, 
1524.00,51.333
1525.00, 
1526.00,51.371
1527.00, 
1528.00,51.405
1529.00, 
1530.00,51.405
1531.00, 
1532.00,51.451
1533.00, 
1534.00,51.416
1535.00, 
1536.00,51.448
1537.00, 
1538.00,51.454
1539.00, 
1540.00,51.489
1541.00, 
1542.00,51.489
1543.00, 
1544.00,51.519
1545.00, 
1546.00,51.541
1547.00, 
1548.00,51.567
1549.00, 
1550.00,51.602
1551.00, 
1552.00,51.607
1553.00, 
1554.00,51.646
1555.00, 
1556.00,51.693
1557.00, 
1558.00,51.709
1559.00, 
1560.00,51.781
1561.00, 
1562.00,51.723
1563.00, 
1564.00,51.770
1565.00, 
1566.00,51.778
1567.00, 
1568.00,51.781
1569.00, 
1570.00,51.828
1571.00, 
1572.00,51.872
1573.00, 
1574.00,51.861
1575.00, 
1576.00,51.894
1577.00, 
1578.00,51.902
1579.00, 
1580.00,51.971
1581.00, 
1582.00,51.963
1583.00, 
1584.00,52.028
1585.00, 
1586.00,52.028
1587.00, 
1588.00,52.052
1589.00, 
1590.00,52.098
1591.00, 
1592.00,52.131
1593.00, 
1594.00,52.143
1595.00, 
1596.00,52.172
1597.00, 
1598.00,52.173
1599.00, 
1600.00,52.219
1601.00, 
1602.00,52.235
1603.00, 
1604.00,52.298
1605.00, 
1606.00,52.261
1607.00, 
1608.00,52.304
1609.00, 
1610.00,52.336
1611.00, 
1612.00,52.330
1613.00, 
1614.00,52.349
1615.00, 
1616.00,52.400
1617.00, 
1618.00,52.415
1619.00, 
1620.00,52.425
1621.00, 
1622.00,52.415
1623.00, 
1624.00,52.512
1625.00, 
1626.00,52.449
1627.00, 
1628.00,52.481
1629.00, 
1630.00,52.496
1631.00, 
1632.00,52.512
1633.00, 
1634.00,52.512
1635.00, 
1636.00,52.564
1637.00, 
1638.00,52.557
1639.00, 
1640.00,52.584
1641.00, 
1642.00,52.568
1643.00, 
1644.00,52.643
1645.00, 
1646.00,52.631
1647.00, 
1648.00,52.637
1649.00, 
1650.00,52.675
1651.00, 
1652.00,53.313
1653.00, 
1654.00,53.180
1655.00, 
1656.00,53.166
1657.00, 
1658.00,53.409
1659.00, 
1660.00,53.331
1661.00, 
1662.00,53.364
1663.00, 
1664.00,53.430
1665.00, 
1666.00,53.435
1667.00, 
1668.00,53.234
1669.00, 
1670.00,53.284
1671.00, 
1672.00,53.245
1673.00, 
1674.00,53.165
1675.00, 
1676.00,53.362
1677.00, 
1678.00,53.212
1679.00, 
1680.00,53.499
1681.00, 
1682.00,53.501
1683.00, 
1684.00,53.441
1685.00, 
1686.00,53.288
1687.00, 
1688.00,53.367
1689.00, 
1690.00,53.513
1691.00, 
1692.00,53.518
1693.00, 
1694.00,53.349
1695.00, 
1696.00,53.489
1697.00, 
1698.00,53.538
1699.00, 
1700.00,53.474
1701.00, 
1702.00,53.479
1703.00, 
1704.00,53.219
1705.00, 
1706.00,53.167
1707.00, 
1708.00,53.494
1709.00, 
1710.00,53.258
1711.00, 
1712.00,53.446
1713.00, 
1714.00,53.488
1715.00, 
1716.00,53.329
1717.00, 
1718.00,53.245
1719.00, 
1720.00,53.246
1721.00, 
1722.00,53.436
1723.00, 
1724.00,53.326
1725.00, 
1726.00,53.266
1727.00, 
1728.00,53.189
1729.00, 
1730.00,53.248
1731.00, 
1732.00,53.199
1733.00, 
1734.00,53.327
1735.00, 
1736.00,53.425
1737.00, 
1738.00,53.376
1739.00, 
1740.00,53.281
1741.00, 
1742.00,53.611
1743.00, 
1744.00,53.320
1745.00, 
1746.00,53.465
1747.00, 
1748.00,53.544
1749.00, 
1750.00,53.208
1751.00, 
1752.00,53.355
1753.00, 
1754.00,53.189
1755.00, 
1756.00,53.205
1757.00, 
1758.00,53.446
1759.00, 
1760.00,53.265
1761.00, 
1762.00,53.255
1763.00, 
1764.00,53.173
1765.00, 
1766.00,53.284
1767.00, 
1768.00,53.256
1769.00, 
1770.00,53.224
1771.00, 
1772.00,53.234
1773.00, 
1774.00,53.201
1775.00, 
1776.00,53.060
1777.00, 
1778.00,53.286
1779.00, 
1780.00,53.643
1781.00, 
1782.00,53.711
1783.00, 
1784.00,53.245
1785.00, 
1786.00,53.490
1787.00, 
1788.00,53.333
1789.00, 
1790.00,53.408
1791.00, 
1792.00,53.445
1793.00, 
1794.00,53.176
1795.00, 
1796.00,53.561
1797.00, 
1798.00,53.333
1799.00, 
1800.00,53.120
1801.00, 
1802.00,53.225
1803.00, 
1804.00,53.544
1805.00, 
1806.00,53.426
1807.00, 
1808.00,53.154
1809.00, 
1810.00,53.078
1811.00, 
1812.00,53.232
1813.00, 
1814.00,53.494
1815.00, 
1816.00,53.027
1817.00, 
1818.00,53.365
1819.00, 
1820.00,53.646
1821.00, 
1822.00,53.710
1823.00, 
1824.00,53.285
1825.00, 
1826.00,53.765
1827.00, 
1828.00,53.654
1829.00, 
1830.00,53.865
1831.00, 
1832.00,53.691
1833.00, 
1834.00,53.640
1835.00, 
1836.00,53.667
1837.00, 
1838.00,53.565
1839.00, 
1840.00,53.530
1841.00, 
1842.00,53.538
1843.00, 
1844.00,53.672
1845.00, 
1846.00,54.034
1847.00, 
1848.00,53.786
1849.00, 
1850.00,53.701
1851.00, 
1852.00,53.908
1853.00, 
1854.00,53.935
1855.00, 
1856.00,53.785
1857.00, 
1858.00,53.608
1859.00, 
1860.00,53.844
1861.00, 
1862.00,53.857
1863.00, 
1864.00,54.098
1865.00, 
1866.00,54.089
1867.00, 
1868.00,54.308
1869.00, 
1870.00,54.204
1871.00, 
1872.00,54.060
1873.00, 
1874.00,54.066
1875.00, 
1876.00,54.067
1877.00, 
1878.00,53.928
1879.00, 
1880.00,53.855
1881.00, 
1882.00,53.947
1883.00, 
1884.00,53.704
1885.00, 
1886.00,53.565
1887.00, 
1888.00,54.020
1889.00, 
1890.00,53.467
1891.00, 
1892.00,53.407
1893.00, 
1894.00,53.571
1895.00, 
1896.00,53.662
1897.00, 
1898.00,53.771
1899.00, 
1900.00,53.749
1901.00, 
1902.00,53.485
1903.00, 
1904.00,53.040
1905.00, 
1906.00,53.421
1907.00, 
1908.00,53.355
1909.00, 
1910.00,53.415
1911.00, 
1912.00,53.899
1913.00, 
1914.00,53.540
1915.00, 
1916.00,53.406
1917.00, 
1918.00,54.274
1919.00, 
1920.00,53.117
1921.00, 
1922.00,53.462
1923.00, 
1924.00,53.482
1925.00, 
1926.00,53.446
1927.00, 
1928.00,53.373
1929.00, 
1930.00,53.357
1931.00, 
1932.00,53.277
1933.00, 
1934.00,53.286
1935.00, 
1936.00,53.160
1937.00, 
1938.00,53.221
1939.00, 
1940.00,53.539
1941.00, 
1942.00,53.130
1943.00, 
1944.00,53.465
1945.00, 
1946.00,53.397
1947.00, 
1948.00,53.303
1949.00, 
1950.00,53.250
1951.00, 
1952.00,53.551
1953.00, 
1954.00,53.041
1955.00, 
1956.00,53.478
1957.00, 
1958.00,53.446
1959.00, 
1960.00,53.163
1961.00, 
1962.00,53.218
1963.00, 
1964.00,53.173
1965.00, 
1966.00,52.955
1967.00, 
1968.00,53.704
1969.00, 
1970.00,53.207
1971.00, 
1972.00,53.149
1973.00, 
1974.00,53.205
1975.00, 
1976.00,53.339
1977.00, 
1978.00,53.518
1979.00, 
1980.00,53.223
1981.00, 
1982.00,52.961
1983.00, 
1984.00,53.234
1985.00, 
1986.00,53.107
1987.00, 
1988.00,53.175
1989.00, 
1990.00,53.103
1991.00, 
1992.00,53.421
1993.00, 
1994.00,53.218
1995.00, 
1996.00,53.104
1997.00, 
1998.00,53.283
1999.00, 
2000.00,53.271
2001.00, 
2002.00,53.533
2003.00, 
2004.00,53.384
2005.00, 
2006.00,53.274
2007.00, 
2008.00,53.065
2009.00, 
2010.00,53.157
2011.00, 
2012.00,53.529
2013.00, 
2014.00,53.549
2015.00, 
2016.00,53.146
2017.00, 
2018.00,53.433
2019.00, 
2020.00,53.318
2021.00, 
2022.00,53.322
2023.00, 
2024.00,53.269
2025.00, 
2026.00,53.084
2027.00, 
2028.00,53.369
2029.00, 
2030.00,53.359
2031.00, 
2032.00,53.207
2033.00, 
2034.00,53.477
2035.00, 
2036.00,53.316
2037.00, 
2038.00,53.593
2039.00, 
2040.00,53.071
2041.00, 
2042.00,53.181
2043.00, 
2044.00,53.311
2045.00, 
2046.00,53.330
2047.00, 
2048.00,53.021
2049.00, 
2050.00,53.434
2051.00, 
2052.00,53.396
2053.00, 
2054.00,53.056
2055.00, 
2056.00,52.990
2057.00, 
2058.00,52.767
2059.00, 
2060.00,52.732
2061.00, 
2062.00,53.102
2063.00, 
2064.00,53.448
2065.00, 
2066.00,53.092
2067.00, 
2068.00,52.939
2069.00, 
2070.00,52.760
2071.00, 
2072.00,53.014
2073.00, 
2074.00,52.863
2075.00, 
2076.00,52.691
2077.00, 
2078.00,52.979
2079.00, 
2080.00,52.886
2081.00, 
2082.00,52.555
2083.00, 
2084.00,53.118
2085.00, 
2086.00,53.349
2087.00, 
2088.00,53.140
2089.00, 
2090.00,52.569
2091.00, 
2092.00,52.803
2093.00, 
2094.00,52.740
2095.00, 
2096.00,52.886
2097.00, 
2098.00,52.865
2099.00, 
2100.00,53.199
2101.00, 
2102.00,53.333
2103.00, 
2104.00,53.123
2105.00, 
2106.00,52.819
2107.00, 
2108.00,53.219
2109.00, 
2110.00,53.342
2111.00, 
2112.00,52.784
2113.00, 
2114.00,53.270
2115.00, 
2116.00,52.768
2117.00, 
2118.00,52.930
2119.00, 
2120.00,52.984
2121.00, 
2122.00,52.522
2123.00, 
2124.00,52.963
2125.00, 
2126.00,53.284
2127.00, 
2128.00,52.852
2129.00, 
2130.00,52.953
2131.00, 
2132.00,53.232
2133.00, 
2134.00,53.125
2135.00, 
2136.00,53.276
2137.00, 
2138.00,53.223
2139.00, 
2140.00,53.058
2141.00, 
2142.00,52.375
2143.00, 
2144.00,52.855
2145.00, 
2146.00,52.977
2147.00, 
2148.00,53.207
2149.00, 
2150.00,52.889
2151.00, 
2152.00,53.051
2153.00, 
2154.00,53.077
2155.00, 
2156.00,53.079
2157.00, 
2158.00,53.010
2159.00, 
2160.00,53.013
2161.00, 
2162.00,52.562
2163.00, 
2164.00,53.073
2165.00, 
2166.00,52.678
2167.00, 
2168.00,52.683
2169.00, 
2170.00,52.296
2171.00, 
2172.00,52.762
2173.00, 
2174.00,52.616
2175.00, 
2176.00,53.068
2177.00, 
2178.00,52.520
2179.00, 
2180.00,52.695
2181.00, 
2182.00,52.816
2183.00, 
2184.00,52.314
2185.00, 
2186.00,52.369
2187.00, 
2188.00,52.500
2189.00, 
2190.00,52.741
2191.00, 
2192.00,52.306
2193.00, 
2194.00,52.414
2195.00, 
2196.00,52.223
2197.00, 
2198.00,52.978
2199.00, 
2200.00,52.711
2201.00, 
2202.00,52.528
2203.00, 
2204.00,52.505
2205.00, 
2206.00,52.062
2207.00, 
2208.00,52.218
2209.00, 
2210.00,52.037
2211.00, 
2212.00,52.163
2213.00, 
2214.00,52.162
2215.00, 
2216.00,52.350
2217.00, 
2218.00,52.212
2219.00, 
2220.00,52.190
2221.00, 
2222.00,52.196
2223.00, 
2224.00,52.475
2225.00, 
2226.00,52.073
2227.00, 
2228.00,51.986
2229.00, 
2230.00,52.385
2231.00, 
2232.00,51.983
2233.00, 
2234.00,52.661
2235.00, 
2236.00,52.654
2237.00, 
2238.00,52.718
2239.00, 
2240.00,52.979
2241.00, 
2242.00,52.929
2243.00, 
2244.00,52.591
2245.00, 
2246.00,52.800
2247.00, 
2248.00,53.407
2249.00, 
2250.00,53.515
2251.00, 
2252.00,53.729
2253.00, 
2254.00,52.854
2255.00, 
2256.00,53.470
2257.00, 
2258.00,53.312
2259.00, 
2260.00,52.733
2261.00, 
2262.00,53.293
2263.00, 
2264.00,53.532
2265.00, 
2266.00,53.278
2267.00, 
2268.00,52.894
2269.00, 
2270.00,53.356
2271.00, 
2272.00,53.038
2273.00, 
2274.00,53.318
2275.00, 
2276.00,53.031
2277.00, 
2278.00,53.095
2279.00, 
2280.00,53.452
2281.00, 
2282.00,53.248
2283.00, 
2284.00,53.121
2285.00, 
2286.00,53.315
2287.00, 
2288.00,52.556
2289.00, 
2290.00,52.545
2291.00, 
2292.00,52.825
2293.00, 
2294.00,53.446
2295.00, 
2296.00,53.619
2297.00, 
2298.00,53.120
2299.00, 
2300.00,52.828
2301.00, 
2302.00,53.279
2303.00, 
2304.00,52.968
2305.00, 
2306.00,53.505
2307.00, 
2308.00,52.919
2309.00, 
2310.00,52.897
2311.00, 
2312.00,53.996
2313.00, 
2314.00,52.582
2315.00, 
2316.00,52.828
2317.00, 
2318.00,52.738
2319.00, 
2320.00,52.372
2321.00, 
2322.00,53.107
2323.00, 
2324.00,53.819
2325.00, 
2326.00,52.855
2327.00, 
2328.00,53.429
2329.00, 
2330.00,52.791
2331.00, 
2332.00,53.079
2333.00, 
2334.00,53.380
2335.00, 
2336.00,53.299
2337.00, 
2338.00,52.523
2339.00, 
2340.00,53.321
2341.00, 
2342.00,52.369
2343.00, 
2344.00,54.225
2345.00, 
2346.00,53.306
2347.00, 
2348.00,52.568
2349.00, 
2350.00,53.459
2351.00, 
2352.00,53.065
2353.00, 
2354.00,53.396
2355.00, 
2356.00,53.274
2357.00, 
2358.00,52.410
2359.00, 
2360.00,53.207
2361.00, 
2362.00,53.776
2363.00, 
2364.00,53.308
2365.00, 
2366.00,53.062
2367.00, 
2368.00,54.059
2369.00, 
2370.00,53.191
2371.00, 
2372.00,53.154
2373.00, 
2374.00,53.255
2375.00, 
2376.00,52.128
2377.00, 
2378.00,53.263
2379.00, 
2380.00,51.908
2381.00, 
2382.00,52.633
2383.00, 
2384.00,54.427
2385.00, 
2386.00,53.445
2387.00, 
2388.00,53.332
2389.00, 
2390.00,53.347
2391.00, 
2392.00,53.577
2393.00, 
2394.00,52.262
2395.00, 
2396.00,53.095
2397.00, 
2398.00,53.197
2399.00, 
2400.00,52.851
2401.00, 
2402.00,52.400
2403.00, 
2404.00,53.105
2405.00, 
2406.00,53.122
2407.00, 
2408.00,53.196
2409.00, 
2410.00,52.869
2411.00, 
2412.00,52.759
2413.00, 
2414.00,51.923
2415.00, 
2416.00,52.517
2417.00, 
2418.00,52.952
2419.00, 
2420.00,52.122
2421.00, 
2422.00,52.242
2423.00, 
2424.00,53.146
2425.00, 
2426.00,52.678
2427.00, 
2428.00,52.499
2429.00, 
2430.00,53.190
2431.00, 
2432.00,51.738
2433.00, 
2434.00,52.722
2435.00, 
2436.00,52.083
2437.00, 
2438.00,52.469
2439.00, 
2440.00,53.017
2441.00, 
2442.00,52.822
2443.00, 
2444.00,51.981
2445.00, 
2446.00,53.445
2447.00, 
2448.00,53.111
2449.00, 
2450.00,52.487
2451.00, 
2452.00,52.219
2453.00, 
2454.00,52.313
2455.00, 
2456.00,52.365
2457.00, 
2458.00,53.633
2459.00, 
2460.00,51.880
2461.00, 
2462.00,53.190
2463.00, 
2464.00,51.105
2465.00, 
2466.00,52.060
2467.00, 
2468.00,53.325
2469.00, 
2470.00,52.395
2471.00, 
2472.00,51.744
2473.00, 
2474.00,51.529
2475.00, 
2476.00,51.231
2477.00, 
2478.00,51.883
2479.00, 
2480.00,52.655
2481.00, 
2482.00,52.100
2483.00, 
2484.00,51.376
2485.00, 
2486.00,52.602
2487.00, 
2488.00,50.838
2489.00, 
2490.00,52.063
2491.00, 
2492.00,51.103
2493.00, 
2494.00,52.566
2495.00, 
2496.00,52.723
2497.00, 
2498.00,52.034
2499.00, 
2500.00,53.554
2501.00, 
2502.00,51.703
2503.00, 
2504.00,51.692
2505.00, 
2506.00,51.912
2507.00, 
2508.00,51.812
2509.00, 
2510.00,52.003
2511.00, 
2512.00,52.419
2513.00, 
2514.00,52.537
2515.00, 
2516.00,51.640
2517.00, 
2518.00,52.072
2519.00, 
2520.00,51.882
2521.00, 
2522.00,52.255
2523.00, 
2524.00,52.119
2525.00, 
2526.00,51.227
2527.00, 
2528.00,52.079
2529.00, 
2530.00,51.761
2531.00, 
2532.00,51.891
2533.00, 
2534.00,51.626
2535.00, 
2536.00,52.352
2537.00, 
2538.00,51.399
2539.00, 
2540.00,51.919
2541.00, 
2542.00,51.513
2543.00, 
2544.00,51.597
2545.00, 
2546.00,52.412
2547.00, 
2548.00,51.034
2549.00, 
2550.00,51.699
2551.00, 
2552.00,52.052
2553.00, 
2554.00,51.846
2555.00, 
2556.00,51.492
2557.00, 
2558.00,51.418
2559.00, 
2560.00,50.218
2561.00, 
2562.00,51.648
2563.00, 
2564.00,51.150
2565.00, 
2566.00,52.566
2567.00, 
2568.00,51.759
2569.00, 
2570.00,51.718
2571.00, 
2572.00,53.722
2573.00, 
2574.00,52.456
2575.00, 
2576.00,51.245
2577.00, 
2578.00,52.264
2579.00, 
2580.00,52.299
2581.00, 
2582.00,51.565
2583.00, 
2584.00,51.073
2585.00, 
2586.00,50.712
2587.00, 
2588.00,52.205
2589.00, 
2590.00,51.423
2591.00, 
2592.00,52.238
2593.00, 
2594.00,55.043
2595.00, 
2596.00,52.969
2597.00, 
2598.00,52.498
2599.00, 
2600.00,52.837
