"2cP3 - RawData"
"Wavelength nm.","T%"
200.00,0.001
201.00, 
202.00,0.001
203.00, 
204.00,-0.000
205.00, 
206.00,-0.001
207.00, 
208.00,0.003
209.00, 
210.00,0.001
211.00, 
212.00,0.001
213.00, 
214.00,-0.000
215.00, 
216.00,0.003
217.00, 
218.00,-0.001
219.00, 
220.00,0.001
221.00, 
222.00,-0.000
223.00, 
224.00,-0.000
225.00, 
226.00,0.001
227.00, 
228.00,-0.003
229.00, 
230.00,-0.000
231.00, 
232.00,0.001
233.00, 
234.00,0.002
235.00, 
236.00,0.001
237.00, 
238.00,0.001
239.00, 
240.00,-0.000
241.00, 
242.00,0.003
243.00, 
244.00,0.001
245.00, 
246.00,-0.001
247.00, 
248.00,0.000
249.00, 
250.00,0.000
251.00, 
252.00,0.003
253.00, 
254.00,-0.000
255.00, 
256.00,-0.001
257.00, 
258.00,0.001
259.00, 
260.00,0.002
261.00, 
262.00,-0.001
263.00, 
264.00,-0.001
265.00, 
266.00,0.002
267.00, 
268.00,0.001
269.00, 
270.00,-0.000
271.00, 
272.00,-0.001
273.00, 
274.00,0.000
275.00, 
276.00,-0.001
277.00, 
278.00,-0.000
279.00, 
280.00,0.001
281.00, 
282.00,0.003
283.00, 
284.00,0.001
285.00, 
286.00,0.001
287.00, 
288.00,-0.001
289.00, 
290.00,-0.001
291.00, 
292.00,-0.002
293.00, 
294.00,0.002
295.00, 
296.00,0.001
297.00, 
298.00,0.002
299.00, 
300.00,0.001
301.00, 
302.00,0.001
303.00, 
304.00,0.002
305.00, 
306.00,0.007
307.00, 
308.00,0.016
309.00, 
310.00,0.034
311.00, 
312.00,0.061
313.00, 
314.00,0.103
315.00, 
316.00,0.166
317.00, 
318.00,0.257
319.00, 
320.00,0.378
321.00, 
322.00,0.530
323.00, 
324.00,0.712
325.00, 
326.00,0.895
327.00, 
328.00,1.094
329.00, 
330.00,1.343
331.00, 
332.00,1.580
333.00, 
334.00,1.825
335.00, 
336.00,2.052
337.00, 
338.00,2.260
339.00, 
340.00,2.503
341.00, 
342.00,2.694
343.00, 
344.00,2.850
345.00, 
346.00,3.011
347.00, 
348.00,3.145
349.00, 
350.00,3.243
351.00, 
352.00,3.314
353.00, 
354.00,3.395
355.00, 
356.00,3.436
357.00, 
358.00,3.477
359.00, 
360.00,3.499
361.00, 
362.00,3.512
363.00, 
364.00,3.501
365.00, 
366.00,3.490
367.00, 
368.00,3.449
369.00, 
370.00,3.433
371.00, 
372.00,3.388
373.00, 
374.00,3.343
375.00, 
376.00,3.296
377.00, 
378.00,3.242
379.00, 
380.00,3.189
381.00, 
382.00,3.121
383.00, 
384.00,3.100
385.00, 
386.00,3.073
387.00, 
388.00,3.038
389.00, 
390.00,3.005
391.00, 
392.00,2.974
393.00, 
394.00,2.956
395.00, 
396.00,2.918
397.00, 
398.00,2.882
399.00, 
400.00,2.869
401.00, 
402.00,2.833
403.00, 
404.00,2.820
405.00, 
406.00,2.799
407.00, 
408.00,2.784
409.00, 
410.00,2.769
411.00, 
412.00,2.752
413.00, 
414.00,2.740
415.00, 
416.00,2.738
417.00, 
418.00,2.750
419.00, 
420.00,2.745
421.00, 
422.00,2.746
423.00, 
424.00,2.765
425.00, 
426.00,2.784
427.00, 
428.00,2.811
429.00, 
430.00,2.827
431.00, 
432.00,2.861
433.00, 
434.00,2.899
435.00, 
436.00,2.933
437.00, 
438.00,2.985
439.00, 
440.00,3.044
441.00, 
442.00,3.088
443.00, 
444.00,3.150
445.00, 
446.00,3.222
447.00, 
448.00,3.306
449.00, 
450.00,3.365
451.00, 
452.00,3.441
453.00, 
454.00,3.543
455.00, 
456.00,3.636
457.00, 
458.00,3.733
459.00, 
460.00,3.843
461.00, 
462.00,3.974
463.00, 
464.00,4.063
465.00, 
466.00,4.175
467.00, 
468.00,4.321
469.00, 
470.00,4.448
471.00, 
472.00,4.579
473.00, 
474.00,4.727
475.00, 
476.00,4.860
477.00, 
478.00,5.046
479.00, 
480.00,5.206
481.00, 
482.00,5.364
483.00, 
484.00,5.525
485.00, 
486.00,5.701
487.00, 
488.00,5.908
489.00, 
490.00,6.106
491.00, 
492.00,6.276
493.00, 
494.00,6.448
495.00, 
496.00,6.644
497.00, 
498.00,6.786
499.00, 
500.00,7.039
501.00, 
502.00,7.207
503.00, 
504.00,7.398
505.00, 
506.00,7.589
507.00, 
508.00,7.806
509.00, 
510.00,8.016
511.00, 
512.00,8.201
513.00, 
514.00,8.404
515.00, 
516.00,8.617
517.00, 
518.00,8.811
519.00, 
520.00,8.986
521.00, 
522.00,9.152
523.00, 
524.00,9.318
525.00, 
526.00,9.581
527.00, 
528.00,9.738
529.00, 
530.00,9.926
531.00, 
532.00,10.123
533.00, 
534.00,10.263
535.00, 
536.00,10.440
537.00, 
538.00,10.612
539.00, 
540.00,10.766
541.00, 
542.00,10.922
543.00, 
544.00,11.061
545.00, 
546.00,11.218
547.00, 
548.00,11.333
549.00, 
550.00,11.453
551.00, 
552.00,11.575
553.00, 
554.00,11.722
555.00, 
556.00,11.902
557.00, 
558.00,12.053
559.00, 
560.00,12.171
561.00, 
562.00,12.297
563.00, 
564.00,12.447
565.00, 
566.00,12.550
567.00, 
568.00,12.640
569.00, 
570.00,12.747
571.00, 
572.00,12.846
573.00, 
574.00,13.028
575.00, 
576.00,13.131
577.00, 
578.00,13.241
579.00, 
580.00,13.419
581.00, 
582.00,13.517
583.00, 
584.00,13.645
585.00, 
586.00,13.806
587.00, 
588.00,13.871
589.00, 
590.00,14.018
591.00, 
592.00,14.073
593.00, 
594.00,14.086
595.00, 
596.00,14.234
597.00, 
598.00,14.375
599.00, 
600.00,14.510
601.00, 
602.00,14.640
603.00, 
604.00,14.800
605.00, 
606.00,15.031
607.00, 
608.00,15.065
609.00, 
610.00,15.181
611.00, 
612.00,15.353
613.00, 
614.00,15.412
615.00, 
616.00,15.534
617.00, 
618.00,15.725
619.00, 
620.00,15.905
621.00, 
622.00,16.071
623.00, 
624.00,16.233
625.00, 
626.00,16.409
627.00, 
628.00,16.585
629.00, 
630.00,16.773
631.00, 
632.00,16.939
633.00, 
634.00,17.153
635.00, 
636.00,17.383
637.00, 
638.00,17.639
639.00, 
640.00,17.887
641.00, 
642.00,18.083
643.00, 
644.00,18.367
645.00, 
646.00,18.635
647.00, 
648.00,18.871
649.00, 
650.00,19.205
651.00, 
652.00,19.457
653.00, 
654.00,19.701
655.00, 
656.00,20.067
657.00, 
658.00,20.162
659.00, 
660.00,20.599
661.00, 
662.00,20.924
663.00, 
664.00,21.329
665.00, 
666.00,21.839
667.00, 
668.00,21.804
669.00, 
670.00,22.445
671.00, 
672.00,22.891
673.00, 
674.00,23.015
675.00, 
676.00,23.422
677.00, 
678.00,23.990
679.00, 
680.00,24.182
681.00, 
682.00,24.613
683.00, 
684.00,25.078
685.00, 
686.00,25.467
687.00, 
688.00,25.862
689.00, 
690.00,26.191
691.00, 
692.00,26.768
693.00, 
694.00,26.693
695.00, 
696.00,27.580
697.00, 
698.00,27.898
699.00, 
700.00,28.345
701.00, 
702.00,28.334
703.00, 
704.00,29.037
705.00, 
706.00,29.616
707.00, 
708.00,30.030
709.00, 
710.00,30.331
711.00, 
712.00,30.974
713.00, 
714.00,31.301
715.00, 
716.00,31.595
717.00, 
718.00,32.207
719.00, 
720.00,32.321
721.00, 
722.00,36.410
723.00, 
724.00,36.766
725.00, 
726.00,37.027
727.00, 
728.00,37.402
729.00, 
730.00,37.666
731.00, 
732.00,38.142
733.00, 
734.00,38.520
735.00, 
736.00,38.880
737.00, 
738.00,39.284
739.00, 
740.00,39.609
741.00, 
742.00,39.910
743.00, 
744.00,40.291
745.00, 
746.00,40.553
747.00, 
748.00,40.904
749.00, 
750.00,41.154
751.00, 
752.00,41.431
753.00, 
754.00,41.710
755.00, 
756.00,42.029
757.00, 
758.00,42.359
759.00, 
760.00,42.733
761.00, 
762.00,42.998
763.00, 
764.00,43.206
765.00, 
766.00,43.539
767.00, 
768.00,43.742
769.00, 
770.00,43.907
771.00, 
772.00,44.145
773.00, 
774.00,44.430
775.00, 
776.00,44.669
777.00, 
778.00,44.748
779.00, 
780.00,44.966
781.00, 
782.00,45.117
783.00, 
784.00,45.341
785.00, 
786.00,45.624
787.00, 
788.00,45.643
789.00, 
790.00,45.891
791.00, 
792.00,46.022
793.00, 
794.00,46.250
795.00, 
796.00,46.355
797.00, 
798.00,46.503
799.00, 
800.00,46.493
801.00, 
802.00,46.642
803.00, 
804.00,46.680
805.00, 
806.00,46.758
807.00, 
808.00,46.805
809.00, 
810.00,46.870
811.00, 
812.00,47.053
813.00, 
814.00,47.069
815.00, 
816.00,47.233
817.00, 
818.00,47.218
819.00, 
820.00,47.372
821.00, 
822.00,47.393
823.00, 
824.00,47.435
825.00, 
826.00,47.588
827.00, 
828.00,47.801
829.00, 
830.00,47.808
831.00, 
832.00,50.153
833.00, 
834.00,50.220
835.00, 
836.00,50.256
837.00, 
838.00,50.291
839.00, 
840.00,50.351
841.00, 
842.00,50.460
843.00, 
844.00,50.465
845.00, 
846.00,50.408
847.00, 
848.00,50.516
849.00, 
850.00,50.484
851.00, 
852.00,50.491
853.00, 
854.00,50.542
855.00, 
856.00,50.523
857.00, 
858.00,50.510
859.00, 
860.00,50.531
861.00, 
862.00,50.582
863.00, 
864.00,50.605
865.00, 
866.00,50.600
867.00, 
868.00,50.675
869.00, 
870.00,50.674
871.00, 
872.00,50.882
873.00, 
874.00,50.814
875.00, 
876.00,50.872
877.00, 
878.00,50.771
879.00, 
880.00,50.830
881.00, 
882.00,50.818
883.00, 
884.00,50.823
885.00, 
886.00,50.832
887.00, 
888.00,50.863
889.00, 
890.00,50.788
891.00, 
892.00,50.824
893.00, 
894.00,50.795
895.00, 
896.00,50.811
897.00, 
898.00,50.780
899.00, 
900.00,50.786
901.00, 
902.00,50.805
903.00, 
904.00,50.862
905.00, 
906.00,50.786
907.00, 
908.00,50.801
909.00, 
910.00,50.796
911.00, 
912.00,50.755
913.00, 
914.00,50.725
915.00, 
916.00,50.811
917.00, 
918.00,50.709
919.00, 
920.00,50.708
921.00, 
922.00,50.682
923.00, 
924.00,50.661
925.00, 
926.00,50.658
927.00, 
928.00,50.843
929.00, 
930.00,50.611
931.00, 
932.00,50.583
933.00, 
934.00,50.575
935.00, 
936.00,50.525
937.00, 
938.00,50.513
939.00, 
940.00,50.500
941.00, 
942.00,50.477
943.00, 
944.00,50.484
945.00, 
946.00,50.421
947.00, 
948.00,50.398
949.00, 
950.00,50.375
951.00, 
952.00,50.320
953.00, 
954.00,50.323
955.00, 
956.00,50.280
957.00, 
958.00,50.310
959.00, 
960.00,50.187
961.00, 
962.00,50.160
963.00, 
964.00,50.143
965.00, 
966.00,50.107
967.00, 
968.00,50.127
969.00, 
970.00,50.104
971.00, 
972.00,50.157
973.00, 
974.00,50.159
975.00, 
976.00,50.129
977.00, 
978.00,50.166
979.00, 
980.00,50.168
981.00, 
982.00,50.127
983.00, 
984.00,50.142
985.00, 
986.00,50.143
987.00, 
988.00,50.143
989.00, 
990.00,50.130
991.00, 
992.00,50.109
993.00, 
994.00,50.100
995.00, 
996.00,50.069
997.00, 
998.00,50.054
999.00, 
1000.00,50.055
1001.00, 
1002.00,50.041
1003.00, 
1004.00,49.990
1005.00, 
1006.00,50.003
1007.00, 
1008.00,50.008
1009.00, 
1010.00,49.940
1011.00, 
1012.00,49.933
1013.00, 
1014.00,49.920
1015.00, 
1016.00,49.882
1017.00, 
1018.00,49.903
1019.00, 
1020.00,49.832
1021.00, 
1022.00,49.794
1023.00, 
1024.00,49.788
1025.00, 
1026.00,49.749
1027.00, 
1028.00,49.706
1029.00, 
1030.00,49.710
1031.00, 
1032.00,49.650
1033.00, 
1034.00,49.603
1035.00, 
1036.00,49.551
1037.00, 
1038.00,49.538
1039.00, 
1040.00,49.447
1041.00, 
1042.00,49.453
1043.00, 
1044.00,49.509
1045.00, 
1046.00,49.418
1047.00, 
1048.00,49.458
1049.00, 
1050.00,49.539
1051.00, 
1052.00,49.510
1053.00, 
1054.00,49.519
1055.00, 
1056.00,49.515
1057.00, 
1058.00,49.543
1059.00, 
1060.00,49.526
1061.00, 
1062.00,49.510
1063.00, 
1064.00,49.508
1065.00, 
1066.00,49.489
1067.00, 
1068.00,49.463
1069.00, 
1070.00,49.475
1071.00, 
1072.00,49.452
1073.00, 
1074.00,49.439
1075.00, 
1076.00,49.422
1077.00, 
1078.00,49.423
1079.00, 
1080.00,49.399
1081.00, 
1082.00,49.393
1083.00, 
1084.00,49.385
1085.00, 
1086.00,49.367
1087.00, 
1088.00,49.351
1089.00, 
1090.00,49.340
1091.00, 
1092.00,49.321
1093.00, 
1094.00,49.282
1095.00, 
1096.00,49.272
1097.00, 
1098.00,49.252
1099.00, 
1100.00,49.236
1101.00, 
1102.00,49.234
1103.00, 
1104.00,49.210
1105.00, 
1106.00,49.201
1107.00, 
1108.00,49.198
1109.00, 
1110.00,49.161
1111.00, 
1112.00,49.136
1113.00, 
1114.00,49.145
1115.00, 
1116.00,49.100
1117.00, 
1118.00,49.098
1119.00, 
1120.00,49.086
1121.00, 
1122.00,49.042
1123.00, 
1124.00,49.042
1125.00, 
1126.00,49.035
1127.00, 
1128.00,49.006
1129.00, 
1130.00,48.979
1131.00, 
1132.00,48.962
1133.00, 
1134.00,49.015
1135.00, 
1136.00,48.957
1137.00, 
1138.00,48.980
1139.00, 
1140.00,48.971
1141.00, 
1142.00,48.949
1143.00, 
1144.00,48.937
1145.00, 
1146.00,48.936
1147.00, 
1148.00,48.902
1149.00, 
1150.00,48.927
1151.00, 
1152.00,48.896
1153.00, 
1154.00,48.909
1155.00, 
1156.00,48.890
1157.00, 
1158.00,48.902
1159.00, 
1160.00,48.905
1161.00, 
1162.00,48.912
1163.00, 
1164.00,48.881
1165.00, 
1166.00,48.879
1167.00, 
1168.00,48.881
1169.00, 
1170.00,48.858
1171.00, 
1172.00,48.861
1173.00, 
1174.00,48.875
1175.00, 
1176.00,48.854
1177.00, 
1178.00,48.853
1179.00, 
1180.00,48.865
1181.00, 
1182.00,48.839
1183.00, 
1184.00,48.833
1185.00, 
1186.00,48.865
1187.00, 
1188.00,48.819
1189.00, 
1190.00,48.855
1191.00, 
1192.00,48.848
1193.00, 
1194.00,48.847
1195.00, 
1196.00,48.839
1197.00, 
1198.00,48.853
1199.00, 
1200.00,48.833
1201.00, 
1202.00,48.833
1203.00, 
1204.00,48.827
1205.00, 
1206.00,48.835
1207.00, 
1208.00,48.819
1209.00, 
1210.00,48.825
1211.00, 
1212.00,48.799
1213.00, 
1214.00,48.813
1215.00, 
1216.00,48.807
1217.00, 
1218.00,48.776
1219.00, 
1220.00,48.807
1221.00, 
1222.00,48.792
1223.00, 
1224.00,48.789
1225.00, 
1226.00,48.822
1227.00, 
1228.00,48.817
1229.00, 
1230.00,48.805
1231.00, 
1232.00,48.847
1233.00, 
1234.00,48.828
1235.00, 
1236.00,48.826
1237.00, 
1238.00,48.808
1239.00, 
1240.00,48.844
1241.00, 
1242.00,48.802
1243.00, 
1244.00,48.836
1245.00, 
1246.00,48.833
1247.00, 
1248.00,48.850
1249.00, 
1250.00,48.837
1251.00, 
1252.00,48.876
1253.00, 
1254.00,48.836
1255.00, 
1256.00,48.854
1257.00, 
1258.00,48.867
1259.00, 
1260.00,48.857
1261.00, 
1262.00,48.880
1263.00, 
1264.00,48.889
1265.00, 
1266.00,48.871
1267.00, 
1268.00,48.912
1269.00, 
1270.00,48.914
1271.00, 
1272.00,48.950
1273.00, 
1274.00,48.929
1275.00, 
1276.00,48.942
1277.00, 
1278.00,48.989
1279.00, 
1280.00,48.957
1281.00, 
1282.00,48.975
1283.00, 
1284.00,48.997
1285.00, 
1286.00,48.946
1287.00, 
1288.00,49.004
1289.00, 
1290.00,48.978
1291.00, 
1292.00,48.990
1293.00, 
1294.00,48.997
1295.00, 
1296.00,49.024
1297.00, 
1298.00,49.005
1299.00, 
1300.00,49.012
1301.00, 
1302.00,49.054
1303.00, 
1304.00,49.053
1305.00, 
1306.00,49.063
1307.00, 
1308.00,49.113
1309.00, 
1310.00,49.049
1311.00, 
1312.00,49.113
1313.00, 
1314.00,49.131
1315.00, 
1316.00,49.156
1317.00, 
1318.00,49.207
1319.00, 
1320.00,49.172
1321.00, 
1322.00,49.328
1323.00, 
1324.00,49.328
1325.00, 
1326.00,49.294
1327.00, 
1328.00,49.300
1329.00, 
1330.00,49.279
1331.00, 
1332.00,49.307
1333.00, 
1334.00,49.322
1335.00, 
1336.00,49.362
1337.00, 
1338.00,49.466
1339.00, 
1340.00,49.586
1341.00, 
1342.00,49.698
1343.00, 
1344.00,49.813
1345.00, 
1346.00,49.917
1347.00, 
1348.00,49.915
1349.00, 
1350.00,49.913
1351.00, 
1352.00,49.984
1353.00, 
1354.00,49.986
1355.00, 
1356.00,49.977
1357.00, 
1358.00,49.996
1359.00, 
1360.00,50.084
1361.00, 
1362.00,49.969
1363.00, 
1364.00,50.124
1365.00, 
1366.00,50.132
1367.00, 
1368.00,49.780
1369.00, 
1370.00,50.024
1371.00, 
1372.00,49.899
1373.00, 
1374.00,49.987
1375.00, 
1376.00,49.930
1377.00, 
1378.00,49.931
1379.00, 
1380.00,49.945
1381.00, 
1382.00,49.904
1383.00, 
1384.00,49.942
1385.00, 
1386.00,49.956
1387.00, 
1388.00,49.966
1389.00, 
1390.00,49.958
1391.00, 
1392.00,49.909
1393.00, 
1394.00,49.966
1395.00, 
1396.00,49.857
1397.00, 
1398.00,49.923
1399.00, 
1400.00,49.966
1401.00, 
1402.00,49.962
1403.00, 
1404.00,49.941
1405.00, 
1406.00,49.977
1407.00, 
1408.00,50.025
1409.00, 
1410.00,49.976
1411.00, 
1412.00,50.123
1413.00, 
1414.00,49.997
1415.00, 
1416.00,50.095
1417.00, 
1418.00,50.115
1419.00, 
1420.00,50.103
1421.00, 
1422.00,50.167
1423.00, 
1424.00,50.152
1425.00, 
1426.00,50.172
1427.00, 
1428.00,50.216
1429.00, 
1430.00,50.226
1431.00, 
1432.00,50.277
1433.00, 
1434.00,50.286
1435.00, 
1436.00,50.354
1437.00, 
1438.00,50.358
1439.00, 
1440.00,50.406
1441.00, 
1442.00,50.398
1443.00, 
1444.00,50.510
1445.00, 
1446.00,50.454
1447.00, 
1448.00,50.509
1449.00, 
1450.00,50.540
1451.00, 
1452.00,50.575
1453.00, 
1454.00,50.580
1455.00, 
1456.00,50.607
1457.00, 
1458.00,50.661
1459.00, 
1460.00,50.673
1461.00, 
1462.00,50.706
1463.00, 
1464.00,50.738
1465.00, 
1466.00,50.771
1467.00, 
1468.00,50.813
1469.00, 
1470.00,50.821
1471.00, 
1472.00,50.881
1473.00, 
1474.00,50.871
1475.00, 
1476.00,50.908
1477.00, 
1478.00,50.923
1479.00, 
1480.00,50.935
1481.00, 
1482.00,50.980
1483.00, 
1484.00,51.013
1485.00, 
1486.00,51.014
1487.00, 
1488.00,51.056
1489.00, 
1490.00,51.069
1491.00, 
1492.00,51.094
1493.00, 
1494.00,51.101
1495.00, 
1496.00,51.156
1497.00, 
1498.00,51.175
1499.00, 
1500.00,51.189
1501.00, 
1502.00,51.186
1503.00, 
1504.00,51.234
1505.00, 
1506.00,51.250
1507.00, 
1508.00,51.277
1509.00, 
1510.00,51.308
1511.00, 
1512.00,51.321
1513.00, 
1514.00,51.333
1515.00, 
1516.00,51.370
1517.00, 
1518.00,51.383
1519.00, 
1520.00,51.396
1521.00, 
1522.00,51.439
1523.00, 
1524.00,51.443
1525.00, 
1526.00,51.464
1527.00, 
1528.00,51.499
1529.00, 
1530.00,51.500
1531.00, 
1532.00,51.546
1533.00, 
1534.00,51.532
1535.00, 
1536.00,51.575
1537.00, 
1538.00,51.598
1539.00, 
1540.00,51.618
1541.00, 
1542.00,51.629
1543.00, 
1544.00,51.664
1545.00, 
1546.00,51.652
1547.00, 
1548.00,51.687
1549.00, 
1550.00,51.710
1551.00, 
1552.00,51.749
1553.00, 
1554.00,51.737
1555.00, 
1556.00,51.778
1557.00, 
1558.00,51.792
1559.00, 
1560.00,51.833
1561.00, 
1562.00,51.832
1563.00, 
1564.00,51.890
1565.00, 
1566.00,51.901
1567.00, 
1568.00,51.912
1569.00, 
1570.00,51.943
1571.00, 
1572.00,51.983
1573.00, 
1574.00,51.985
1575.00, 
1576.00,51.996
1577.00, 
1578.00,52.066
1579.00, 
1580.00,52.068
1581.00, 
1582.00,52.062
1583.00, 
1584.00,52.153
1585.00, 
1586.00,52.133
1587.00, 
1588.00,52.162
1589.00, 
1590.00,52.188
1591.00, 
1592.00,52.256
1593.00, 
1594.00,52.248
1595.00, 
1596.00,52.276
1597.00, 
1598.00,52.286
1599.00, 
1600.00,52.324
1601.00, 
1602.00,52.325
1603.00, 
1604.00,52.367
1605.00, 
1606.00,52.369
1607.00, 
1608.00,52.393
1609.00, 
1610.00,52.414
1611.00, 
1612.00,52.429
1613.00, 
1614.00,52.439
1615.00, 
1616.00,52.518
1617.00, 
1618.00,52.489
1619.00, 
1620.00,52.555
1621.00, 
1622.00,52.531
1623.00, 
1624.00,52.549
1625.00, 
1626.00,52.571
1627.00, 
1628.00,52.604
1629.00, 
1630.00,52.598
1631.00, 
1632.00,52.634
1633.00, 
1634.00,52.629
1635.00, 
1636.00,52.667
1637.00, 
1638.00,52.669
1639.00, 
1640.00,52.699
1641.00, 
1642.00,52.673
1643.00, 
1644.00,52.723
1645.00, 
1646.00,52.725
1647.00, 
1648.00,52.741
1649.00, 
1650.00,52.778
1651.00, 
1652.00,53.409
1653.00, 
1654.00,53.458
1655.00, 
1656.00,53.300
1657.00, 
1658.00,53.532
1659.00, 
1660.00,53.335
1661.00, 
1662.00,53.424
1663.00, 
1664.00,53.419
1665.00, 
1666.00,53.348
1667.00, 
1668.00,53.452
1669.00, 
1670.00,53.309
1671.00, 
1672.00,53.555
1673.00, 
1674.00,53.402
1675.00, 
1676.00,53.586
1677.00, 
1678.00,53.525
1679.00, 
1680.00,53.349
1681.00, 
1682.00,53.691
1683.00, 
1684.00,53.631
1685.00, 
1686.00,53.394
1687.00, 
1688.00,53.486
1689.00, 
1690.00,53.416
1691.00, 
1692.00,53.379
1693.00, 
1694.00,53.261
1695.00, 
1696.00,53.467
1697.00, 
1698.00,53.569
1699.00, 
1700.00,53.778
1701.00, 
1702.00,53.556
1703.00, 
1704.00,53.332
1705.00, 
1706.00,53.547
1707.00, 
1708.00,53.740
1709.00, 
1710.00,53.394
1711.00, 
1712.00,53.559
1713.00, 
1714.00,53.451
1715.00, 
1716.00,53.482
1717.00, 
1718.00,53.426
1719.00, 
1720.00,53.329
1721.00, 
1722.00,53.433
1723.00, 
1724.00,53.304
1725.00, 
1726.00,53.410
1727.00, 
1728.00,53.475
1729.00, 
1730.00,53.336
1731.00, 
1732.00,53.506
1733.00, 
1734.00,53.474
1735.00, 
1736.00,53.350
1737.00, 
1738.00,53.565
1739.00, 
1740.00,53.406
1741.00, 
1742.00,53.471
1743.00, 
1744.00,53.383
1745.00, 
1746.00,53.299
1747.00, 
1748.00,53.633
1749.00, 
1750.00,53.149
1751.00, 
1752.00,53.528
1753.00, 
1754.00,53.444
1755.00, 
1756.00,53.342
1757.00, 
1758.00,53.368
1759.00, 
1760.00,53.285
1761.00, 
1762.00,53.535
1763.00, 
1764.00,53.466
1765.00, 
1766.00,53.385
1767.00, 
1768.00,53.608
1769.00, 
1770.00,53.309
1771.00, 
1772.00,53.268
1773.00, 
1774.00,53.295
1775.00, 
1776.00,53.271
1777.00, 
1778.00,53.480
1779.00, 
1780.00,53.532
1781.00, 
1782.00,53.553
1783.00, 
1784.00,53.267
1785.00, 
1786.00,53.447
1787.00, 
1788.00,53.535
1789.00, 
1790.00,53.601
1791.00, 
1792.00,53.618
1793.00, 
1794.00,53.515
1795.00, 
1796.00,53.599
1797.00, 
1798.00,53.650
1799.00, 
1800.00,53.319
1801.00, 
1802.00,53.207
1803.00, 
1804.00,53.578
1805.00, 
1806.00,53.282
1807.00, 
1808.00,53.467
1809.00, 
1810.00,53.368
1811.00, 
1812.00,53.169
1813.00, 
1814.00,53.643
1815.00, 
1816.00,53.460
1817.00, 
1818.00,53.584
1819.00, 
1820.00,53.774
1821.00, 
1822.00,53.610
1823.00, 
1824.00,53.607
1825.00, 
1826.00,53.674
1827.00, 
1828.00,53.421
1829.00, 
1830.00,53.861
1831.00, 
1832.00,53.742
1833.00, 
1834.00,53.849
1835.00, 
1836.00,53.727
1837.00, 
1838.00,53.531
1839.00, 
1840.00,53.722
1841.00, 
1842.00,53.745
1843.00, 
1844.00,53.616
1845.00, 
1846.00,53.728
1847.00, 
1848.00,53.941
1849.00, 
1850.00,53.597
1851.00, 
1852.00,53.729
1853.00, 
1854.00,53.930
1855.00, 
1856.00,53.715
1857.00, 
1858.00,54.512
1859.00, 
1860.00,53.780
1861.00, 
1862.00,53.767
1863.00, 
1864.00,54.114
1865.00, 
1866.00,54.963
1867.00, 
1868.00,54.449
1869.00, 
1870.00,54.095
1871.00, 
1872.00,53.926
1873.00, 
1874.00,54.031
1875.00, 
1876.00,54.393
1877.00, 
1878.00,53.837
1879.00, 
1880.00,54.030
1881.00, 
1882.00,53.865
1883.00, 
1884.00,53.918
1885.00, 
1886.00,53.989
1887.00, 
1888.00,53.862
1889.00, 
1890.00,53.799
1891.00, 
1892.00,53.509
1893.00, 
1894.00,53.416
1895.00, 
1896.00,53.826
1897.00, 
1898.00,53.973
1899.00, 
1900.00,53.725
1901.00, 
1902.00,53.535
1903.00, 
1904.00,53.354
1905.00, 
1906.00,53.844
1907.00, 
1908.00,53.669
1909.00, 
1910.00,53.527
1911.00, 
1912.00,53.811
1913.00, 
1914.00,53.579
1915.00, 
1916.00,53.356
1917.00, 
1918.00,53.846
1919.00, 
1920.00,53.209
1921.00, 
1922.00,53.449
1923.00, 
1924.00,53.606
1925.00, 
1926.00,53.317
1927.00, 
1928.00,53.350
1929.00, 
1930.00,53.610
1931.00, 
1932.00,53.591
1933.00, 
1934.00,53.486
1935.00, 
1936.00,53.456
1937.00, 
1938.00,53.570
1939.00, 
1940.00,53.856
1941.00, 
1942.00,53.119
1943.00, 
1944.00,53.494
1945.00, 
1946.00,53.407
1947.00, 
1948.00,53.237
1949.00, 
1950.00,53.493
1951.00, 
1952.00,53.479
1953.00, 
1954.00,53.470
1955.00, 
1956.00,53.408
1957.00, 
1958.00,53.258
1959.00, 
1960.00,53.504
1961.00, 
1962.00,53.276
1963.00, 
1964.00,53.210
1965.00, 
1966.00,53.184
1967.00, 
1968.00,53.582
1969.00, 
1970.00,53.328
1971.00, 
1972.00,53.347
1973.00, 
1974.00,53.595
1975.00, 
1976.00,53.556
1977.00, 
1978.00,53.398
1979.00, 
1980.00,53.198
1981.00, 
1982.00,53.498
1983.00, 
1984.00,53.499
1985.00, 
1986.00,53.420
1987.00, 
1988.00,53.287
1989.00, 
1990.00,53.296
1991.00, 
1992.00,53.442
1993.00, 
1994.00,53.413
1995.00, 
1996.00,53.442
1997.00, 
1998.00,53.242
1999.00, 
2000.00,53.419
2001.00, 
2002.00,53.341
2003.00, 
2004.00,53.337
2005.00, 
2006.00,53.259
2007.00, 
2008.00,53.458
2009.00, 
2010.00,53.198
2011.00, 
2012.00,53.529
2013.00, 
2014.00,53.271
2015.00, 
2016.00,53.404
2017.00, 
2018.00,53.776
2019.00, 
2020.00,53.631
2021.00, 
2022.00,53.729
2023.00, 
2024.00,53.884
2025.00, 
2026.00,53.407
2027.00, 
2028.00,53.488
2029.00, 
2030.00,53.599
2031.00, 
2032.00,53.376
2033.00, 
2034.00,53.321
2035.00, 
2036.00,53.408
2037.00, 
2038.00,53.553
2039.00, 
2040.00,53.205
2041.00, 
2042.00,53.551
2043.00, 
2044.00,53.612
2045.00, 
2046.00,53.555
2047.00, 
2048.00,53.639
2049.00, 
2050.00,53.625
2051.00, 
2052.00,53.447
2053.00, 
2054.00,53.168
2055.00, 
2056.00,52.839
2057.00, 
2058.00,53.093
2059.00, 
2060.00,53.082
2061.00, 
2062.00,53.186
2063.00, 
2064.00,53.116
2065.00, 
2066.00,52.998
2067.00, 
2068.00,52.986
2069.00, 
2070.00,53.022
2071.00, 
2072.00,52.925
2073.00, 
2074.00,53.378
2075.00, 
2076.00,53.219
2077.00, 
2078.00,53.082
2079.00, 
2080.00,53.354
2081.00, 
2082.00,52.435
2083.00, 
2084.00,53.327
2085.00, 
2086.00,53.524
2087.00, 
2088.00,52.859
2089.00, 
2090.00,52.744
2091.00, 
2092.00,53.219
2093.00, 
2094.00,53.261
2095.00, 
2096.00,53.107
2097.00, 
2098.00,52.944
2099.00, 
2100.00,53.215
2101.00, 
2102.00,53.715
2103.00, 
2104.00,53.599
2105.00, 
2106.00,53.237
2107.00, 
2108.00,53.544
2109.00, 
2110.00,53.072
2111.00, 
2112.00,52.701
2113.00, 
2114.00,53.176
2115.00, 
2116.00,52.607
2117.00, 
2118.00,52.922
2119.00, 
2120.00,53.268
2121.00, 
2122.00,52.856
2123.00, 
2124.00,52.752
2125.00, 
2126.00,53.234
2127.00, 
2128.00,52.988
2129.00, 
2130.00,53.045
2131.00, 
2132.00,53.485
2133.00, 
2134.00,52.835
2135.00, 
2136.00,53.090
2137.00, 
2138.00,53.347
2139.00, 
2140.00,53.452
2141.00, 
2142.00,52.731
2143.00, 
2144.00,53.513
2145.00, 
2146.00,52.859
2147.00, 
2148.00,53.389
2149.00, 
2150.00,53.406
2151.00, 
2152.00,53.330
2153.00, 
2154.00,53.562
2155.00, 
2156.00,53.665
2157.00, 
2158.00,52.860
2159.00, 
2160.00,53.270
2161.00, 
2162.00,52.923
2163.00, 
2164.00,53.309
2165.00, 
2166.00,53.397
2167.00, 
2168.00,53.430
2169.00, 
2170.00,52.595
2171.00, 
2172.00,52.703
2173.00, 
2174.00,52.898
2175.00, 
2176.00,53.437
2177.00, 
2178.00,53.112
2179.00, 
2180.00,52.418
2181.00, 
2182.00,52.741
2183.00, 
2184.00,53.164
2185.00, 
2186.00,52.611
2187.00, 
2188.00,52.136
2189.00, 
2190.00,52.786
2191.00, 
2192.00,52.240
2193.00, 
2194.00,52.466
2195.00, 
2196.00,52.564
2197.00, 
2198.00,53.307
2199.00, 
2200.00,52.937
2201.00, 
2202.00,52.859
2203.00, 
2204.00,52.616
2205.00, 
2206.00,52.646
2207.00, 
2208.00,52.247
2209.00, 
2210.00,53.104
2211.00, 
2212.00,52.098
2213.00, 
2214.00,53.023
2215.00, 
2216.00,51.626
2217.00, 
2218.00,52.638
2219.00, 
2220.00,52.038
2221.00, 
2222.00,52.267
2223.00, 
2224.00,52.446
2225.00, 
2226.00,52.795
2227.00, 
2228.00,52.275
2229.00, 
2230.00,52.389
2231.00, 
2232.00,52.343
2233.00, 
2234.00,52.193
2235.00, 
2236.00,52.910
2237.00, 
2238.00,53.319
2239.00, 
2240.00,53.219
2241.00, 
2242.00,53.199
2243.00, 
2244.00,52.754
2245.00, 
2246.00,53.406
2247.00, 
2248.00,53.134
2249.00, 
2250.00,53.716
2251.00, 
2252.00,53.295
2253.00, 
2254.00,53.049
2255.00, 
2256.00,53.442
2257.00, 
2258.00,53.390
2259.00, 
2260.00,53.222
2261.00, 
2262.00,53.369
2263.00, 
2264.00,53.877
2265.00, 
2266.00,53.480
2267.00, 
2268.00,53.318
2269.00, 
2270.00,53.135
2271.00, 
2272.00,53.157
2273.00, 
2274.00,53.337
2275.00, 
2276.00,53.161
2277.00, 
2278.00,52.653
2279.00, 
2280.00,53.571
2281.00, 
2282.00,53.333
2283.00, 
2284.00,52.838
2285.00, 
2286.00,53.388
2287.00, 
2288.00,52.737
2289.00, 
2290.00,52.984
2291.00, 
2292.00,53.385
2293.00, 
2294.00,53.229
2295.00, 
2296.00,53.625
2297.00, 
2298.00,53.032
2299.00, 
2300.00,53.548
2301.00, 
2302.00,53.279
2303.00, 
2304.00,53.427
2305.00, 
2306.00,53.460
2307.00, 
2308.00,53.664
2309.00, 
2310.00,52.984
2311.00, 
2312.00,52.966
2313.00, 
2314.00,53.397
2315.00, 
2316.00,53.307
2317.00, 
2318.00,53.554
2319.00, 
2320.00,52.830
2321.00, 
2322.00,53.929
2323.00, 
2324.00,54.228
2325.00, 
2326.00,53.855
2327.00, 
2328.00,53.804
2329.00, 
2330.00,53.056
2331.00, 
2332.00,53.858
2333.00, 
2334.00,53.496
2335.00, 
2336.00,53.207
2337.00, 
2338.00,53.433
2339.00, 
2340.00,53.744
2341.00, 
2342.00,53.016
2343.00, 
2344.00,53.003
2345.00, 
2346.00,53.732
2347.00, 
2348.00,53.938
2349.00, 
2350.00,53.288
2351.00, 
2352.00,53.389
2353.00, 
2354.00,52.999
2355.00, 
2356.00,53.430
2357.00, 
2358.00,52.825
2359.00, 
2360.00,53.334
2361.00, 
2362.00,53.529
2363.00, 
2364.00,53.491
2365.00, 
2366.00,53.571
2367.00, 
2368.00,53.092
2369.00, 
2370.00,54.427
2371.00, 
2372.00,53.503
2373.00, 
2374.00,54.249
2375.00, 
2376.00,52.590
2377.00, 
2378.00,52.866
2379.00, 
2380.00,53.276
2381.00, 
2382.00,52.260
2383.00, 
2384.00,53.746
2385.00, 
2386.00,53.690
2387.00, 
2388.00,53.276
2389.00, 
2390.00,53.995
2391.00, 
2392.00,52.954
2393.00, 
2394.00,52.929
2395.00, 
2396.00,53.206
2397.00, 
2398.00,53.157
2399.00, 
2400.00,53.668
2401.00, 
2402.00,52.028
2403.00, 
2404.00,53.097
2405.00, 
2406.00,52.708
2407.00, 
2408.00,52.618
2409.00, 
2410.00,52.860
2411.00, 
2412.00,53.065
2413.00, 
2414.00,51.817
2415.00, 
2416.00,52.947
2417.00, 
2418.00,53.278
2419.00, 
2420.00,53.445
2421.00, 
2422.00,53.412
2423.00, 
2424.00,53.259
2425.00, 
2426.00,52.577
2427.00, 
2428.00,53.601
2429.00, 
2430.00,52.903
2431.00, 
2432.00,52.700
2433.00, 
2434.00,53.256
2435.00, 
2436.00,52.726
2437.00, 
2438.00,51.957
2439.00, 
2440.00,52.859
2441.00, 
2442.00,53.155
2443.00, 
2444.00,53.444
2445.00, 
2446.00,52.589
2447.00, 
2448.00,53.033
2449.00, 
2450.00,52.831
2451.00, 
2452.00,52.819
2453.00, 
2454.00,52.878
2455.00, 
2456.00,52.580
2457.00, 
2458.00,52.277
2459.00, 
2460.00,52.682
2461.00, 
2462.00,52.606
2463.00, 
2464.00,52.046
2465.00, 
2466.00,53.392
2467.00, 
2468.00,52.813
2469.00, 
2470.00,53.544
2471.00, 
2472.00,53.263
2473.00, 
2474.00,51.247
2475.00, 
2476.00,51.749
2477.00, 
2478.00,51.761
2479.00, 
2480.00,51.335
2481.00, 
2482.00,51.797
2483.00, 
2484.00,53.354
2485.00, 
2486.00,53.371
2487.00, 
2488.00,52.028
2489.00, 
2490.00,52.232
2491.00, 
2492.00,52.359
2493.00, 
2494.00,52.221
2495.00, 
2496.00,52.630
2497.00, 
2498.00,52.793
2499.00, 
2500.00,51.900
2501.00, 
2502.00,51.987
2503.00, 
2504.00,52.090
2505.00, 
2506.00,52.272
2507.00, 
2508.00,51.997
2509.00, 
2510.00,52.320
2511.00, 
2512.00,52.042
2513.00, 
2514.00,52.061
2515.00, 
2516.00,52.231
2517.00, 
2518.00,52.080
2519.00, 
2520.00,52.844
2521.00, 
2522.00,52.092
2523.00, 
2524.00,52.036
2525.00, 
2526.00,52.906
2527.00, 
2528.00,52.029
2529.00, 
2530.00,52.380
2531.00, 
2532.00,52.221
2533.00, 
2534.00,51.161
2535.00, 
2536.00,52.117
2537.00, 
2538.00,51.832
2539.00, 
2540.00,52.304
2541.00, 
2542.00,51.183
2543.00, 
2544.00,52.541
2545.00, 
2546.00,52.096
2547.00, 
2548.00,51.708
2549.00, 
2550.00,53.018
2551.00, 
2552.00,52.175
2553.00, 
2554.00,51.687
2555.00, 
2556.00,51.340
2557.00, 
2558.00,51.882
2559.00, 
2560.00,51.831
2561.00, 
2562.00,53.300
2563.00, 
2564.00,51.940
2565.00, 
2566.00,52.662
2567.00, 
2568.00,51.019
2569.00, 
2570.00,52.013
2571.00, 
2572.00,52.630
2573.00, 
2574.00,52.767
2575.00, 
2576.00,52.047
2577.00, 
2578.00,52.463
2579.00, 
2580.00,53.279
2581.00, 
2582.00,54.218
2583.00, 
2584.00,51.255
2585.00, 
2586.00,51.736
2587.00, 
2588.00,51.671
2589.00, 
2590.00,53.241
2591.00, 
2592.00,46.222
2593.00, 
2594.00,52.816
2595.00, 
2596.00,52.871
2597.00, 
2598.00,51.208
2599.00, 
2600.00,51.540
