"clean - RawData"
"Wavelength nm.","T%"
200.00,0.001
201.00, 
202.00,0.004
203.00, 
204.00,0.003
205.00, 
206.00,0.002
207.00, 
208.00,0.004
209.00, 
210.00,-0.001
211.00, 
212.00,0.000
213.00, 
214.00,-0.000
215.00, 
216.00,0.005
217.00, 
218.00,0.003
219.00, 
220.00,0.006
221.00, 
222.00,0.001
223.00, 
224.00,0.002
225.00, 
226.00,0.002
227.00, 
228.00,0.000
229.00, 
230.00,0.001
231.00, 
232.00,0.000
233.00, 
234.00,0.002
235.00, 
236.00,-0.000
237.00, 
238.00,0.000
239.00, 
240.00,0.001
241.00, 
242.00,-0.001
243.00, 
244.00,0.002
245.00, 
246.00,0.003
247.00, 
248.00,0.001
249.00, 
250.00,0.001
251.00, 
252.00,0.002
253.00, 
254.00,-0.000
255.00, 
256.00,0.002
257.00, 
258.00,0.000
259.00, 
260.00,0.000
261.00, 
262.00,-0.001
263.00, 
264.00,-0.001
265.00, 
266.00,-0.000
267.00, 
268.00,0.001
269.00, 
270.00,-0.001
271.00, 
272.00,0.000
273.00, 
274.00,0.000
275.00, 
276.00,0.000
277.00, 
278.00,-0.000
279.00, 
280.00,0.001
281.00, 
282.00,0.000
283.00, 
284.00,0.001
285.00, 
286.00,0.000
287.00, 
288.00,-0.001
289.00, 
290.00,0.000
291.00, 
292.00,0.001
293.00, 
294.00,0.003
295.00, 
296.00,0.002
297.00, 
298.00,0.001
299.00, 
300.00,0.001
301.00, 
302.00,0.002
303.00, 
304.00,0.005
305.00, 
306.00,0.011
307.00, 
308.00,0.034
309.00, 
310.00,0.095
311.00, 
312.00,0.236
313.00, 
314.00,0.538
315.00, 
316.00,1.066
317.00, 
318.00,2.007
319.00, 
320.00,3.538
321.00, 
322.00,5.803
323.00, 
324.00,8.767
325.00, 
326.00,12.237
327.00, 
328.00,16.595
329.00, 
330.00,21.387
331.00, 
332.00,26.413
333.00, 
334.00,32.219
335.00, 
336.00,37.428
337.00, 
338.00,42.240
339.00, 
340.00,48.428
341.00, 
342.00,53.306
343.00, 
344.00,57.549
345.00, 
346.00,61.885
347.00, 
348.00,65.579
349.00, 
350.00,68.805
351.00, 
352.00,71.584
353.00, 
354.00,74.059
355.00, 
356.00,76.307
357.00, 
358.00,78.068
359.00, 
360.00,79.673
361.00, 
362.00,80.992
363.00, 
364.00,82.127
365.00, 
366.00,83.074
367.00, 
368.00,83.638
369.00, 
370.00,84.043
371.00, 
372.00,84.368
373.00, 
374.00,84.010
375.00, 
376.00,83.543
377.00, 
378.00,83.203
379.00, 
380.00,83.044
381.00, 
382.00,83.236
383.00, 
384.00,83.846
385.00, 
386.00,84.569
387.00, 
388.00,85.289
389.00, 
390.00,86.161
391.00, 
392.00,86.548
393.00, 
394.00,87.016
395.00, 
396.00,87.493
397.00, 
398.00,87.824
399.00, 
400.00,87.956
401.00, 
402.00,87.985
403.00, 
404.00,87.972
405.00, 
406.00,87.918
407.00, 
408.00,88.057
409.00, 
410.00,88.004
411.00, 
412.00,88.093
413.00, 
414.00,88.071
415.00, 
416.00,87.948
417.00, 
418.00,87.866
419.00, 
420.00,87.839
421.00, 
422.00,87.726
423.00, 
424.00,87.717
425.00, 
426.00,87.756
427.00, 
428.00,87.788
429.00, 
430.00,87.698
431.00, 
432.00,87.735
433.00, 
434.00,87.696
435.00, 
436.00,87.726
437.00, 
438.00,87.716
439.00, 
440.00,87.563
441.00, 
442.00,87.559
443.00, 
444.00,87.673
445.00, 
446.00,87.881
447.00, 
448.00,87.938
449.00, 
450.00,87.819
451.00, 
452.00,87.664
453.00, 
454.00,88.175
455.00, 
456.00,88.319
457.00, 
458.00,88.295
459.00, 
460.00,88.333
461.00, 
462.00,88.504
463.00, 
464.00,88.500
465.00, 
466.00,88.309
467.00, 
468.00,88.552
469.00, 
470.00,88.675
471.00, 
472.00,88.688
473.00, 
474.00,88.660
475.00, 
476.00,88.658
477.00, 
478.00,88.754
479.00, 
480.00,88.952
481.00, 
482.00,88.829
483.00, 
484.00,88.552
485.00, 
486.00,88.758
487.00, 
488.00,88.980
489.00, 
490.00,89.269
491.00, 
492.00,89.013
493.00, 
494.00,88.974
495.00, 
496.00,89.133
497.00, 
498.00,89.096
499.00, 
500.00,89.067
501.00, 
502.00,88.907
503.00, 
504.00,88.906
505.00, 
506.00,89.171
507.00, 
508.00,89.233
509.00, 
510.00,89.107
511.00, 
512.00,89.211
513.00, 
514.00,89.309
515.00, 
516.00,89.181
517.00, 
518.00,89.492
519.00, 
520.00,89.013
521.00, 
522.00,88.559
523.00, 
524.00,88.403
525.00, 
526.00,89.219
527.00, 
528.00,89.169
529.00, 
530.00,89.175
531.00, 
532.00,89.084
533.00, 
534.00,89.052
535.00, 
536.00,88.992
537.00, 
538.00,88.897
539.00, 
540.00,88.966
541.00, 
542.00,89.120
543.00, 
544.00,89.002
545.00, 
546.00,88.982
547.00, 
548.00,88.941
549.00, 
550.00,88.958
551.00, 
552.00,89.020
553.00, 
554.00,89.043
555.00, 
556.00,88.949
557.00, 
558.00,88.950
559.00, 
560.00,88.883
561.00, 
562.00,88.852
563.00, 
564.00,88.913
565.00, 
566.00,88.749
567.00, 
568.00,88.696
569.00, 
570.00,88.639
571.00, 
572.00,88.508
573.00, 
574.00,88.561
575.00, 
576.00,88.448
577.00, 
578.00,88.343
579.00, 
580.00,88.438
581.00, 
582.00,88.283
583.00, 
584.00,88.217
585.00, 
586.00,88.069
587.00, 
588.00,88.179
589.00, 
590.00,88.026
591.00, 
592.00,87.846
593.00, 
594.00,87.413
595.00, 
596.00,87.411
597.00, 
598.00,87.745
599.00, 
600.00,87.608
601.00, 
602.00,87.618
603.00, 
604.00,87.677
605.00, 
606.00,87.739
607.00, 
608.00,87.398
609.00, 
610.00,87.084
611.00, 
612.00,87.532
613.00, 
614.00,87.099
615.00, 
616.00,87.138
617.00, 
618.00,86.962
619.00, 
620.00,86.928
621.00, 
622.00,87.023
623.00, 
624.00,86.812
625.00, 
626.00,86.739
627.00, 
628.00,86.478
629.00, 
630.00,86.418
631.00, 
632.00,86.881
633.00, 
634.00,86.937
635.00, 
636.00,86.332
637.00, 
638.00,86.424
639.00, 
640.00,86.325
641.00, 
642.00,86.124
643.00, 
644.00,86.179
645.00, 
646.00,86.043
647.00, 
648.00,86.025
649.00, 
650.00,86.101
651.00, 
652.00,86.046
653.00, 
654.00,86.048
655.00, 
656.00,86.003
657.00, 
658.00,85.472
659.00, 
660.00,85.319
661.00, 
662.00,85.552
663.00, 
664.00,85.477
665.00, 
666.00,85.863
667.00, 
668.00,85.878
669.00, 
670.00,85.594
671.00, 
672.00,88.112
673.00, 
674.00,85.081
675.00, 
676.00,85.196
677.00, 
678.00,85.346
679.00, 
680.00,85.146
681.00, 
682.00,85.078
683.00, 
684.00,85.136
685.00, 
686.00,84.513
687.00, 
688.00,84.351
689.00, 
690.00,84.266
691.00, 
692.00,84.788
693.00, 
694.00,84.180
695.00, 
696.00,84.548
697.00, 
698.00,84.953
699.00, 
700.00,84.347
701.00, 
702.00,83.465
703.00, 
704.00,83.968
705.00, 
706.00,84.112
707.00, 
708.00,84.018
709.00, 
710.00,84.001
711.00, 
712.00,84.052
713.00, 
714.00,83.740
715.00, 
716.00,83.738
717.00, 
718.00,83.844
719.00, 
720.00,83.618
721.00, 
722.00,83.293
723.00, 
724.00,83.339
725.00, 
726.00,83.086
727.00, 
728.00,83.155
729.00, 
730.00,83.029
731.00, 
732.00,82.948
733.00, 
734.00,82.981
735.00, 
736.00,82.900
737.00, 
738.00,82.627
739.00, 
740.00,82.516
741.00, 
742.00,82.234
743.00, 
744.00,82.177
745.00, 
746.00,81.944
747.00, 
748.00,81.910
749.00, 
750.00,81.839
751.00, 
752.00,81.799
753.00, 
754.00,81.818
755.00, 
756.00,81.786
757.00, 
758.00,81.630
759.00, 
760.00,81.759
761.00, 
762.00,81.583
763.00, 
764.00,81.429
765.00, 
766.00,81.548
767.00, 
768.00,81.341
769.00, 
770.00,81.307
771.00, 
772.00,81.204
773.00, 
774.00,81.236
775.00, 
776.00,81.151
777.00, 
778.00,80.922
779.00, 
780.00,80.985
781.00, 
782.00,80.801
783.00, 
784.00,80.799
785.00, 
786.00,80.701
787.00, 
788.00,80.542
789.00, 
790.00,80.552
791.00, 
792.00,80.304
793.00, 
794.00,80.178
795.00, 
796.00,80.372
797.00, 
798.00,79.910
799.00, 
800.00,79.886
801.00, 
802.00,80.051
803.00, 
804.00,79.769
805.00, 
806.00,79.737
807.00, 
808.00,79.609
809.00, 
810.00,79.571
811.00, 
812.00,79.449
813.00, 
814.00,79.501
815.00, 
816.00,79.388
817.00, 
818.00,79.251
819.00, 
820.00,79.138
821.00, 
822.00,79.246
823.00, 
824.00,78.948
825.00, 
826.00,79.053
827.00, 
828.00,79.055
829.00, 
830.00,78.979
831.00, 
832.00,78.910
833.00, 
834.00,78.861
835.00, 
836.00,78.749
837.00, 
838.00,78.706
839.00, 
840.00,78.633
841.00, 
842.00,78.623
843.00, 
844.00,78.509
845.00, 
846.00,78.383
847.00, 
848.00,78.275
849.00, 
850.00,78.265
851.00, 
852.00,78.254
853.00, 
854.00,78.205
855.00, 
856.00,78.190
857.00, 
858.00,78.085
859.00, 
860.00,78.017
861.00, 
862.00,77.997
863.00, 
864.00,77.934
865.00, 
866.00,77.906
867.00, 
868.00,77.826
869.00, 
870.00,77.828
871.00, 
872.00,77.740
873.00, 
874.00,77.711
875.00, 
876.00,77.663
877.00, 
878.00,77.591
879.00, 
880.00,77.572
881.00, 
882.00,77.493
883.00, 
884.00,77.489
885.00, 
886.00,77.425
887.00, 
888.00,77.483
889.00, 
890.00,77.315
891.00, 
892.00,77.333
893.00, 
894.00,77.238
895.00, 
896.00,77.217
897.00, 
898.00,77.121
899.00, 
900.00,77.106
901.00, 
902.00,77.094
903.00, 
904.00,77.074
905.00, 
906.00,77.001
907.00, 
908.00,77.017
909.00, 
910.00,76.929
911.00, 
912.00,76.911
913.00, 
914.00,76.875
915.00, 
916.00,76.949
917.00, 
918.00,76.854
919.00, 
920.00,76.806
921.00, 
922.00,76.720
923.00, 
924.00,76.707
925.00, 
926.00,76.727
927.00, 
928.00,76.693
929.00, 
930.00,76.580
931.00, 
932.00,76.610
933.00, 
934.00,76.574
935.00, 
936.00,76.524
937.00, 
938.00,76.468
939.00, 
940.00,76.484
941.00, 
942.00,76.478
943.00, 
944.00,76.462
945.00, 
946.00,76.374
947.00, 
948.00,76.413
949.00, 
950.00,76.359
951.00, 
952.00,76.327
953.00, 
954.00,76.329
955.00, 
956.00,76.322
957.00, 
958.00,76.209
959.00, 
960.00,76.247
961.00, 
962.00,76.182
963.00, 
964.00,76.201
965.00, 
966.00,76.165
967.00, 
968.00,76.144
969.00, 
970.00,76.131
971.00, 
972.00,76.139
973.00, 
974.00,76.088
975.00, 
976.00,76.068
977.00, 
978.00,76.067
979.00, 
980.00,76.042
981.00, 
982.00,76.041
983.00, 
984.00,76.003
985.00, 
986.00,76.012
987.00, 
988.00,75.991
989.00, 
990.00,75.968
991.00, 
992.00,75.984
993.00, 
994.00,75.963
995.00, 
996.00,75.952
997.00, 
998.00,75.956
999.00, 
1000.00,75.922
1001.00, 
1002.00,75.901
1003.00, 
1004.00,75.900
1005.00, 
1006.00,75.896
1007.00, 
1008.00,75.889
1009.00, 
1010.00,75.882
1011.00, 
1012.00,75.849
1013.00, 
1014.00,75.863
1015.00, 
1016.00,75.819
1017.00, 
1018.00,75.826
1019.00, 
1020.00,75.841
1021.00, 
1022.00,75.824
1023.00, 
1024.00,75.795
1025.00, 
1026.00,75.816
1027.00, 
1028.00,75.786
1029.00, 
1030.00,75.791
1031.00, 
1032.00,75.753
1033.00, 
1034.00,75.752
1035.00, 
1036.00,75.738
1037.00, 
1038.00,75.734
1039.00, 
1040.00,75.711
1041.00, 
1042.00,75.734
1043.00, 
1044.00,75.699
1045.00, 
1046.00,75.720
1047.00, 
1048.00,75.718
1049.00, 
1050.00,75.741
1051.00, 
1052.00,75.711
1053.00, 
1054.00,75.697
1055.00, 
1056.00,75.680
1057.00, 
1058.00,75.699
1059.00, 
1060.00,75.693
1061.00, 
1062.00,75.672
1063.00, 
1064.00,75.695
1065.00, 
1066.00,75.655
1067.00, 
1068.00,75.648
1069.00, 
1070.00,75.667
1071.00, 
1072.00,75.653
1073.00, 
1074.00,75.666
1075.00, 
1076.00,75.672
1077.00, 
1078.00,75.658
1079.00, 
1080.00,75.676
1081.00, 
1082.00,75.652
1083.00, 
1084.00,75.645
1085.00, 
1086.00,75.675
1087.00, 
1088.00,75.662
1089.00, 
1090.00,75.640
1091.00, 
1092.00,75.648
1093.00, 
1094.00,75.625
1095.00, 
1096.00,75.637
1097.00, 
1098.00,75.637
1099.00, 
1100.00,75.639
1101.00, 
1102.00,75.669
1103.00, 
1104.00,75.658
1105.00, 
1106.00,75.641
1107.00, 
1108.00,75.681
1109.00, 
1110.00,75.674
1111.00, 
1112.00,75.675
1113.00, 
1114.00,75.676
1115.00, 
1116.00,75.659
1117.00, 
1118.00,75.669
1119.00, 
1120.00,75.678
1121.00, 
1122.00,75.658
1123.00, 
1124.00,75.674
1125.00, 
1126.00,75.680
1127.00, 
1128.00,75.676
1129.00, 
1130.00,75.691
1131.00, 
1132.00,75.698
1133.00, 
1134.00,75.742
1135.00, 
1136.00,75.719
1137.00, 
1138.00,75.716
1139.00, 
1140.00,75.740
1141.00, 
1142.00,75.749
1143.00, 
1144.00,75.728
1145.00, 
1146.00,75.764
1147.00, 
1148.00,75.744
1149.00, 
1150.00,75.738
1151.00, 
1152.00,75.776
1153.00, 
1154.00,75.784
1155.00, 
1156.00,75.767
1157.00, 
1158.00,75.791
1159.00, 
1160.00,75.797
1161.00, 
1162.00,75.825
1163.00, 
1164.00,75.846
1165.00, 
1166.00,75.828
1167.00, 
1168.00,75.854
1169.00, 
1170.00,75.866
1171.00, 
1172.00,75.862
1173.00, 
1174.00,75.887
1175.00, 
1176.00,75.874
1177.00, 
1178.00,75.887
1179.00, 
1180.00,75.916
1181.00, 
1182.00,75.902
1183.00, 
1184.00,75.914
1185.00, 
1186.00,75.944
1187.00, 
1188.00,75.937
1189.00, 
1190.00,75.969
1191.00, 
1192.00,75.990
1193.00, 
1194.00,75.990
1195.00, 
1196.00,76.027
1197.00, 
1198.00,76.025
1199.00, 
1200.00,76.043
1201.00, 
1202.00,76.076
1203.00, 
1204.00,76.050
1205.00, 
1206.00,76.093
1207.00, 
1208.00,76.118
1209.00, 
1210.00,76.107
1211.00, 
1212.00,76.148
1213.00, 
1214.00,76.140
1215.00, 
1216.00,76.145
1217.00, 
1218.00,76.193
1219.00, 
1220.00,76.199
1221.00, 
1222.00,76.195
1223.00, 
1224.00,76.241
1225.00, 
1226.00,76.251
1227.00, 
1228.00,76.317
1229.00, 
1230.00,76.276
1231.00, 
1232.00,76.337
1233.00, 
1234.00,76.338
1235.00, 
1236.00,76.371
1237.00, 
1238.00,76.360
1239.00, 
1240.00,76.429
1241.00, 
1242.00,76.419
1243.00, 
1244.00,76.441
1245.00, 
1246.00,76.471
1247.00, 
1248.00,76.481
1249.00, 
1250.00,76.513
1251.00, 
1252.00,76.537
1253.00, 
1254.00,76.536
1255.00, 
1256.00,76.583
1257.00, 
1258.00,76.599
1259.00, 
1260.00,76.593
1261.00, 
1262.00,76.647
1263.00, 
1264.00,76.660
1265.00, 
1266.00,76.682
1267.00, 
1268.00,76.736
1269.00, 
1270.00,76.731
1271.00, 
1272.00,76.786
1273.00, 
1274.00,76.796
1275.00, 
1276.00,76.820
1277.00, 
1278.00,76.874
1279.00, 
1280.00,76.890
1281.00, 
1282.00,76.892
1283.00, 
1284.00,76.937
1285.00, 
1286.00,76.959
1287.00, 
1288.00,76.994
1289.00, 
1290.00,77.009
1291.00, 
1292.00,77.022
1293.00, 
1294.00,77.105
1295.00, 
1296.00,77.121
1297.00, 
1298.00,77.137
1299.00, 
1300.00,77.193
1301.00, 
1302.00,77.199
1303.00, 
1304.00,77.219
1305.00, 
1306.00,77.271
1307.00, 
1308.00,77.296
1309.00, 
1310.00,77.315
1311.00, 
1312.00,77.375
1313.00, 
1314.00,77.408
1315.00, 
1316.00,77.475
1317.00, 
1318.00,77.505
1319.00, 
1320.00,77.495
1321.00, 
1322.00,77.543
1323.00, 
1324.00,77.582
1325.00, 
1326.00,77.578
1327.00, 
1328.00,77.652
1329.00, 
1330.00,77.669
1331.00, 
1332.00,77.682
1333.00, 
1334.00,77.765
1335.00, 
1336.00,77.785
1337.00, 
1338.00,77.802
1339.00, 
1340.00,77.882
1341.00, 
1342.00,77.886
1343.00, 
1344.00,77.931
1345.00, 
1346.00,77.986
1347.00, 
1348.00,77.960
1349.00, 
1350.00,78.032
1351.00, 
1352.00,78.091
1353.00, 
1354.00,78.129
1355.00, 
1356.00,78.195
1357.00, 
1358.00,78.191
1359.00, 
1360.00,78.279
1361.00, 
1362.00,78.303
1363.00, 
1364.00,78.400
1365.00, 
1366.00,78.361
1367.00, 
1368.00,78.426
1369.00, 
1370.00,78.485
1371.00, 
1372.00,78.489
1373.00, 
1374.00,78.523
1375.00, 
1376.00,78.490
1377.00, 
1378.00,78.598
1379.00, 
1380.00,78.536
1381.00, 
1382.00,78.582
1383.00, 
1384.00,78.681
1385.00, 
1386.00,78.760
1387.00, 
1388.00,78.582
1389.00, 
1390.00,78.767
1391.00, 
1392.00,78.596
1393.00, 
1394.00,78.802
1395.00, 
1396.00,78.727
1397.00, 
1398.00,78.747
1399.00, 
1400.00,79.029
1401.00, 
1402.00,78.775
1403.00, 
1404.00,78.920
1405.00, 
1406.00,78.906
1407.00, 
1408.00,78.953
1409.00, 
1410.00,78.934
1411.00, 
1412.00,79.073
1413.00, 
1414.00,78.974
1415.00, 
1416.00,79.153
1417.00, 
1418.00,79.153
1419.00, 
1420.00,79.150
1421.00, 
1422.00,79.288
1423.00, 
1424.00,79.273
1425.00, 
1426.00,79.324
1427.00, 
1428.00,79.387
1429.00, 
1430.00,79.415
1431.00, 
1432.00,79.493
1433.00, 
1434.00,79.525
1435.00, 
1436.00,79.589
1437.00, 
1438.00,79.651
1439.00, 
1440.00,79.724
1441.00, 
1442.00,79.720
1443.00, 
1444.00,80.048
1445.00, 
1446.00,79.915
1447.00, 
1448.00,79.906
1449.00, 
1450.00,79.979
1451.00, 
1452.00,80.028
1453.00, 
1454.00,80.077
1455.00, 
1456.00,80.092
1457.00, 
1458.00,80.183
1459.00, 
1460.00,80.236
1461.00, 
1462.00,80.281
1463.00, 
1464.00,80.291
1465.00, 
1466.00,80.370
1467.00, 
1468.00,80.416
1469.00, 
1470.00,80.463
1471.00, 
1472.00,80.531
1473.00, 
1474.00,80.581
1475.00, 
1476.00,80.608
1477.00, 
1478.00,80.640
1479.00, 
1480.00,80.667
1481.00, 
1482.00,80.728
1483.00, 
1484.00,80.789
1485.00, 
1486.00,80.795
1487.00, 
1488.00,80.872
1489.00, 
1490.00,80.894
1491.00, 
1492.00,80.921
1493.00, 
1494.00,80.984
1495.00, 
1496.00,81.033
1497.00, 
1498.00,81.080
1499.00, 
1500.00,81.094
1501.00, 
1502.00,81.130
1503.00, 
1504.00,81.191
1505.00, 
1506.00,81.237
1507.00, 
1508.00,81.253
1509.00, 
1510.00,81.326
1511.00, 
1512.00,81.330
1513.00, 
1514.00,81.347
1515.00, 
1516.00,81.423
1517.00, 
1518.00,81.465
1519.00, 
1520.00,81.499
1521.00, 
1522.00,81.535
1523.00, 
1524.00,81.557
1525.00, 
1526.00,81.621
1527.00, 
1528.00,81.656
1529.00, 
1530.00,81.669
1531.00, 
1532.00,81.738
1533.00, 
1534.00,81.763
1535.00, 
1536.00,81.782
1537.00, 
1538.00,81.824
1539.00, 
1540.00,81.863
1541.00, 
1542.00,81.873
1543.00, 
1544.00,81.920
1545.00, 
1546.00,81.912
1547.00, 
1548.00,81.986
1549.00, 
1550.00,82.018
1551.00, 
1552.00,82.036
1553.00, 
1554.00,82.096
1555.00, 
1556.00,82.115
1557.00, 
1558.00,82.129
1559.00, 
1560.00,82.187
1561.00, 
1562.00,82.214
1563.00, 
1564.00,82.233
1565.00, 
1566.00,82.266
1567.00, 
1568.00,82.292
1569.00, 
1570.00,82.308
1571.00, 
1572.00,82.342
1573.00, 
1574.00,82.317
1575.00, 
1576.00,82.394
1577.00, 
1578.00,82.383
1579.00, 
1580.00,82.410
1581.00, 
1582.00,82.439
1583.00, 
1584.00,82.484
1585.00, 
1586.00,82.495
1587.00, 
1588.00,82.532
1589.00, 
1590.00,82.521
1591.00, 
1592.00,82.591
1593.00, 
1594.00,82.583
1595.00, 
1596.00,82.592
1597.00, 
1598.00,82.621
1599.00, 
1600.00,82.648
1601.00, 
1602.00,82.642
1603.00, 
1604.00,82.701
1605.00, 
1606.00,82.691
1607.00, 
1608.00,82.718
1609.00, 
1610.00,82.747
1611.00, 
1612.00,82.758
1613.00, 
1614.00,82.789
1615.00, 
1616.00,82.822
1617.00, 
1618.00,82.798
1619.00, 
1620.00,82.861
1621.00, 
1622.00,82.847
1623.00, 
1624.00,82.882
1625.00, 
1626.00,82.940
1627.00, 
1628.00,82.963
1629.00, 
1630.00,82.919
1631.00, 
1632.00,82.956
1633.00, 
1634.00,82.962
1635.00, 
1636.00,82.998
1637.00, 
1638.00,83.011
1639.00, 
1640.00,82.988
1641.00, 
1642.00,83.043
1643.00, 
1644.00,83.044
1645.00, 
1646.00,83.047
1647.00, 
1648.00,83.085
1649.00, 
1650.00,83.074
1651.00, 
1652.00,83.504
1653.00, 
1654.00,83.298
1655.00, 
1656.00,83.365
1657.00, 
1658.00,83.499
1659.00, 
1660.00,83.330
1661.00, 
1662.00,83.398
1663.00, 
1664.00,83.483
1665.00, 
1666.00,83.270
1667.00, 
1668.00,83.337
1669.00, 
1670.00,83.381
1671.00, 
1672.00,83.486
1673.00, 
1674.00,83.186
1675.00, 
1676.00,83.420
1677.00, 
1678.00,83.566
1679.00, 
1680.00,83.447
1681.00, 
1682.00,83.473
1683.00, 
1684.00,83.626
1685.00, 
1686.00,83.331
1687.00, 
1688.00,83.415
1689.00, 
1690.00,83.637
1691.00, 
1692.00,83.349
1693.00, 
1694.00,83.544
1695.00, 
1696.00,83.808
1697.00, 
1698.00,83.547
1699.00, 
1700.00,83.752
1701.00, 
1702.00,83.671
1703.00, 
1704.00,83.694
1705.00, 
1706.00,83.240
1707.00, 
1708.00,83.369
1709.00, 
1710.00,83.301
1711.00, 
1712.00,83.626
1713.00, 
1714.00,83.603
1715.00, 
1716.00,83.576
1717.00, 
1718.00,83.725
1719.00, 
1720.00,83.373
1721.00, 
1722.00,83.530
1723.00, 
1724.00,83.471
1725.00, 
1726.00,83.521
1727.00, 
1728.00,83.542
1729.00, 
1730.00,83.225
1731.00, 
1732.00,83.125
1733.00, 
1734.00,83.394
1735.00, 
1736.00,83.467
1737.00, 
1738.00,83.568
1739.00, 
1740.00,83.375
1741.00, 
1742.00,83.448
1743.00, 
1744.00,83.393
1745.00, 
1746.00,83.540
1747.00, 
1748.00,83.434
1749.00, 
1750.00,83.251
1751.00, 
1752.00,83.357
1753.00, 
1754.00,83.170
1755.00, 
1756.00,83.156
1757.00, 
1758.00,83.298
1759.00, 
1760.00,83.005
1761.00, 
1762.00,83.351
1763.00, 
1764.00,83.438
1765.00, 
1766.00,83.568
1767.00, 
1768.00,83.502
1769.00, 
1770.00,83.388
1771.00, 
1772.00,83.277
1773.00, 
1774.00,83.160
1775.00, 
1776.00,82.996
1777.00, 
1778.00,83.255
1779.00, 
1780.00,83.418
1781.00, 
1782.00,83.353
1783.00, 
1784.00,83.210
1785.00, 
1786.00,83.400
1787.00, 
1788.00,83.409
1789.00, 
1790.00,83.420
1791.00, 
1792.00,83.366
1793.00, 
1794.00,83.075
1795.00, 
1796.00,83.181
1797.00, 
1798.00,83.233
1799.00, 
1800.00,83.068
1801.00, 
1802.00,82.888
1803.00, 
1804.00,83.306
1805.00, 
1806.00,83.196
1807.00, 
1808.00,83.282
1809.00, 
1810.00,82.905
1811.00, 
1812.00,83.196
1813.00, 
1814.00,82.598
1815.00, 
1816.00,83.111
1817.00, 
1818.00,82.903
1819.00, 
1820.00,83.580
1821.00, 
1822.00,83.018
1823.00, 
1824.00,82.220
1825.00, 
1826.00,83.154
1827.00, 
1828.00,82.892
1829.00, 
1830.00,83.250
1831.00, 
1832.00,83.014
1833.00, 
1834.00,82.968
1835.00, 
1836.00,83.221
1837.00, 
1838.00,82.972
1839.00, 
1840.00,82.923
1841.00, 
1842.00,82.909
1843.00, 
1844.00,82.981
1845.00, 
1846.00,83.050
1847.00, 
1848.00,83.305
1849.00, 
1850.00,83.134
1851.00, 
1852.00,82.907
1853.00, 
1854.00,83.042
1855.00, 
1856.00,82.981
1857.00, 
1858.00,83.352
1859.00, 
1860.00,82.789
1861.00, 
1862.00,83.004
1863.00, 
1864.00,83.099
1865.00, 
1866.00,82.839
1867.00, 
1868.00,82.901
1869.00, 
1870.00,83.147
1871.00, 
1872.00,82.910
1873.00, 
1874.00,83.018
1875.00, 
1876.00,83.103
1877.00, 
1878.00,82.640
1879.00, 
1880.00,82.829
1881.00, 
1882.00,82.950
1883.00, 
1884.00,82.755
1885.00, 
1886.00,82.594
1887.00, 
1888.00,82.959
1889.00, 
1890.00,82.899
1891.00, 
1892.00,82.913
1893.00, 
1894.00,82.558
1895.00, 
1896.00,81.225
1897.00, 
1898.00,83.152
1899.00, 
1900.00,83.116
1901.00, 
1902.00,83.038
1903.00, 
1904.00,82.845
1905.00, 
1906.00,82.966
1907.00, 
1908.00,83.162
1909.00, 
1910.00,83.122
1911.00, 
1912.00,83.383
1913.00, 
1914.00,82.629
1915.00, 
1916.00,82.623
1917.00, 
1918.00,82.993
1919.00, 
1920.00,82.637
1921.00, 
1922.00,82.637
1923.00, 
1924.00,82.832
1925.00, 
1926.00,82.897
1927.00, 
1928.00,82.869
1929.00, 
1930.00,82.876
1931.00, 
1932.00,82.833
1933.00, 
1934.00,82.762
1935.00, 
1936.00,82.429
1937.00, 
1938.00,82.782
1939.00, 
1940.00,82.825
1941.00, 
1942.00,82.247
1943.00, 
1944.00,83.141
1945.00, 
1946.00,82.686
1947.00, 
1948.00,82.727
1949.00, 
1950.00,82.789
1951.00, 
1952.00,82.976
1953.00, 
1954.00,82.907
1955.00, 
1956.00,83.105
1957.00, 
1958.00,82.681
1959.00, 
1960.00,82.857
1961.00, 
1962.00,82.507
1963.00, 
1964.00,82.540
1965.00, 
1966.00,82.465
1967.00, 
1968.00,82.983
1969.00, 
1970.00,82.755
1971.00, 
1972.00,82.865
1973.00, 
1974.00,82.465
1975.00, 
1976.00,82.725
1977.00, 
1978.00,82.763
1979.00, 
1980.00,82.448
1981.00, 
1982.00,82.529
1983.00, 
1984.00,82.795
1985.00, 
1986.00,82.585
1987.00, 
1988.00,82.677
1989.00, 
1990.00,82.481
1991.00, 
1992.00,82.451
1993.00, 
1994.00,82.723
1995.00, 
1996.00,82.306
1997.00, 
1998.00,82.921
1999.00, 
2000.00,82.768
2001.00, 
2002.00,82.738
2003.00, 
2004.00,83.019
2005.00, 
2006.00,82.393
2007.00, 
2008.00,82.659
2009.00, 
2010.00,82.688
2011.00, 
2012.00,82.778
2013.00, 
2014.00,83.070
2015.00, 
2016.00,82.431
2017.00, 
2018.00,82.950
2019.00, 
2020.00,82.503
2021.00, 
2022.00,82.944
2023.00, 
2024.00,82.861
2025.00, 
2026.00,82.833
2027.00, 
2028.00,82.805
2029.00, 
2030.00,82.649
2031.00, 
2032.00,82.709
2033.00, 
2034.00,82.608
2035.00, 
2036.00,82.494
2037.00, 
2038.00,83.163
2039.00, 
2040.00,82.101
2041.00, 
2042.00,82.751
2043.00, 
2044.00,82.674
2045.00, 
2046.00,82.286
2047.00, 
2048.00,82.928
2049.00, 
2050.00,82.934
2051.00, 
2052.00,83.228
2053.00, 
2054.00,82.539
2055.00, 
2056.00,82.730
2057.00, 
2058.00,82.196
2059.00, 
2060.00,82.593
2061.00, 
2062.00,82.663
2063.00, 
2064.00,82.466
2065.00, 
2066.00,83.203
2067.00, 
2068.00,82.523
2069.00, 
2070.00,82.343
2071.00, 
2072.00,82.540
2073.00, 
2074.00,83.082
2075.00, 
2076.00,82.604
2077.00, 
2078.00,83.011
2079.00, 
2080.00,82.385
2081.00, 
2082.00,82.561
2083.00, 
2084.00,83.095
2085.00, 
2086.00,82.538
2087.00, 
2088.00,82.711
2089.00, 
2090.00,81.926
2091.00, 
2092.00,83.353
2093.00, 
2094.00,83.056
2095.00, 
2096.00,81.925
2097.00, 
2098.00,82.796
2099.00, 
2100.00,82.713
2101.00, 
2102.00,83.148
2103.00, 
2104.00,83.013
2105.00, 
2106.00,83.009
2107.00, 
2108.00,82.575
2109.00, 
2110.00,82.285
2111.00, 
2112.00,82.060
2113.00, 
2114.00,82.312
2115.00, 
2116.00,82.448
2117.00, 
2118.00,82.814
2119.00, 
2120.00,83.460
2121.00, 
2122.00,82.451
2123.00, 
2124.00,82.520
2125.00, 
2126.00,82.839
2127.00, 
2128.00,82.847
2129.00, 
2130.00,82.191
2131.00, 
2132.00,82.953
2133.00, 
2134.00,82.487
2135.00, 
2136.00,82.598
2137.00, 
2138.00,82.123
2139.00, 
2140.00,83.134
2141.00, 
2142.00,82.770
2143.00, 
2144.00,83.737
2145.00, 
2146.00,82.294
2147.00, 
2148.00,82.707
2149.00, 
2150.00,82.340
2151.00, 
2152.00,82.561
2153.00, 
2154.00,83.076
2155.00, 
2156.00,82.198
2157.00, 
2158.00,82.219
2159.00, 
2160.00,82.403
2161.00, 
2162.00,82.278
2163.00, 
2164.00,82.283
2165.00, 
2166.00,82.689
2167.00, 
2168.00,82.492
2169.00, 
2170.00,81.787
2171.00, 
2172.00,82.055
2173.00, 
2174.00,82.097
2175.00, 
2176.00,83.203
2177.00, 
2178.00,81.962
2179.00, 
2180.00,80.962
2181.00, 
2182.00,81.132
2183.00, 
2184.00,81.403
2185.00, 
2186.00,80.652
2187.00, 
2188.00,81.126
2189.00, 
2190.00,81.388
2191.00, 
2192.00,80.891
2193.00, 
2194.00,80.824
2195.00, 
2196.00,81.122
2197.00, 
2198.00,81.449
2199.00, 
2200.00,80.247
2201.00, 
2202.00,80.637
2203.00, 
2204.00,80.732
2205.00, 
2206.00,80.785
2207.00, 
2208.00,79.908
2209.00, 
2210.00,80.388
2211.00, 
2212.00,80.252
2213.00, 
2214.00,80.948
2215.00, 
2216.00,80.393
2217.00, 
2218.00,80.628
2219.00, 
2220.00,80.543
2221.00, 
2222.00,80.570
2223.00, 
2224.00,79.822
2225.00, 
2226.00,80.547
2227.00, 
2228.00,80.210
2229.00, 
2230.00,79.876
2231.00, 
2232.00,80.877
2233.00, 
2234.00,80.764
2235.00, 
2236.00,80.792
2237.00, 
2238.00,80.628
2239.00, 
2240.00,80.696
2241.00, 
2242.00,80.997
2243.00, 
2244.00,80.447
2245.00, 
2246.00,80.766
2247.00, 
2248.00,80.751
2249.00, 
2250.00,81.061
2251.00, 
2252.00,80.735
2253.00, 
2254.00,80.419
2255.00, 
2256.00,80.790
2257.00, 
2258.00,80.632
2259.00, 
2260.00,81.243
2261.00, 
2262.00,81.138
2263.00, 
2264.00,81.609
2265.00, 
2266.00,80.794
2267.00, 
2268.00,81.140
2269.00, 
2270.00,81.140
2271.00, 
2272.00,80.606
2273.00, 
2274.00,81.270
2275.00, 
2276.00,80.797
2277.00, 
2278.00,81.182
2279.00, 
2280.00,81.270
2281.00, 
2282.00,81.519
2283.00, 
2284.00,81.105
2285.00, 
2286.00,81.096
2287.00, 
2288.00,80.963
2289.00, 
2290.00,80.930
2291.00, 
2292.00,82.271
2293.00, 
2294.00,81.525
2295.00, 
2296.00,81.738
2297.00, 
2298.00,81.815
2299.00, 
2300.00,82.275
2301.00, 
2302.00,81.700
2303.00, 
2304.00,81.907
2305.00, 
2306.00,80.921
2307.00, 
2308.00,81.918
2309.00, 
2310.00,81.497
2311.00, 
2312.00,81.658
2313.00, 
2314.00,81.771
2315.00, 
2316.00,80.840
2317.00, 
2318.00,81.819
2319.00, 
2320.00,81.563
2321.00, 
2322.00,81.774
2323.00, 
2324.00,82.416
2325.00, 
2326.00,81.770
2327.00, 
2328.00,81.620
2329.00, 
2330.00,80.939
2331.00, 
2332.00,81.694
2333.00, 
2334.00,81.353
2335.00, 
2336.00,82.102
2337.00, 
2338.00,81.561
2339.00, 
2340.00,81.457
2341.00, 
2342.00,81.534
2343.00, 
2344.00,82.797
2345.00, 
2346.00,81.928
2347.00, 
2348.00,81.418
2349.00, 
2350.00,82.253
2351.00, 
2352.00,81.293
2353.00, 
2354.00,82.378
2355.00, 
2356.00,81.868
2357.00, 
2358.00,81.979
2359.00, 
2360.00,81.511
2361.00, 
2362.00,81.250
2363.00, 
2364.00,81.357
2365.00, 
2366.00,81.453
2367.00, 
2368.00,82.121
2369.00, 
2370.00,82.579
2371.00, 
2372.00,81.199
2373.00, 
2374.00,82.510
2375.00, 
2376.00,81.328
2377.00, 
2378.00,80.261
2379.00, 
2380.00,81.366
2381.00, 
2382.00,80.831
2383.00, 
2384.00,81.014
2385.00, 
2386.00,82.930
2387.00, 
2388.00,81.577
2389.00, 
2390.00,82.862
2391.00, 
2392.00,82.495
2393.00, 
2394.00,81.290
2395.00, 
2396.00,81.680
2397.00, 
2398.00,81.319
2399.00, 
2400.00,81.434
2401.00, 
2402.00,79.929
2403.00, 
2404.00,81.390
2405.00, 
2406.00,81.312
2407.00, 
2408.00,81.383
2409.00, 
2410.00,81.220
2411.00, 
2412.00,81.728
2413.00, 
2414.00,81.511
2415.00, 
2416.00,81.047
2417.00, 
2418.00,81.585
2419.00, 
2420.00,81.569
2421.00, 
2422.00,80.203
2423.00, 
2424.00,81.372
2425.00, 
2426.00,81.014
2427.00, 
2428.00,80.409
2429.00, 
2430.00,82.129
2431.00, 
2432.00,79.670
2433.00, 
2434.00,81.850
2435.00, 
2436.00,80.733
2437.00, 
2438.00,80.973
2439.00, 
2440.00,81.355
2441.00, 
2442.00,81.854
2443.00, 
2444.00,81.056
2445.00, 
2446.00,80.420
2447.00, 
2448.00,80.453
2449.00, 
2450.00,79.566
2451.00, 
2452.00,80.709
2453.00, 
2454.00,79.245
2455.00, 
2456.00,79.785
2457.00, 
2458.00,81.527
2459.00, 
2460.00,80.491
2461.00, 
2462.00,81.148
2463.00, 
2464.00,78.398
2465.00, 
2466.00,80.731
2467.00, 
2468.00,80.217
2469.00, 
2470.00,80.280
2471.00, 
2472.00,78.974
2473.00, 
2474.00,78.573
2475.00, 
2476.00,79.133
2477.00, 
2478.00,79.513
2479.00, 
2480.00,80.646
2481.00, 
2482.00,80.189
2483.00, 
2484.00,80.284
2485.00, 
2486.00,79.826
2487.00, 
2488.00,80.392
2489.00, 
2490.00,79.956
2491.00, 
2492.00,78.495
2493.00, 
2494.00,79.875
2495.00, 
2496.00,79.367
2497.00, 
2498.00,79.734
2499.00, 
2500.00,77.729
2501.00, 
2502.00,78.970
2503.00, 
2504.00,79.278
2505.00, 
2506.00,79.424
2507.00, 
2508.00,79.723
2509.00, 
2510.00,79.894
2511.00, 
2512.00,79.154
2513.00, 
2514.00,79.424
2515.00, 
2516.00,79.348
2517.00, 
2518.00,80.074
2519.00, 
2520.00,80.267
2521.00, 
2522.00,79.952
2523.00, 
2524.00,79.046
2525.00, 
2526.00,78.941
2527.00, 
2528.00,79.204
2529.00, 
2530.00,78.705
2531.00, 
2532.00,78.659
2533.00, 
2534.00,79.143
2535.00, 
2536.00,79.701
2537.00, 
2538.00,78.628
2539.00, 
2540.00,79.118
2541.00, 
2542.00,79.156
2543.00, 
2544.00,79.524
2545.00, 
2546.00,79.263
2547.00, 
2548.00,79.209
2549.00, 
2550.00,78.367
2551.00, 
2552.00,78.788
2553.00, 
2554.00,78.936
2555.00, 
2556.00,77.624
2557.00, 
2558.00,79.164
2559.00, 
2560.00,78.661
2561.00, 
2562.00,78.749
2563.00, 
2564.00,78.685
2565.00, 
2566.00,78.834
2567.00, 
2568.00,80.420
2569.00, 
2570.00,78.066
2571.00, 
2572.00,78.929
2573.00, 
2574.00,79.850
2575.00, 
2576.00,79.074
2577.00, 
2578.00,78.396
2579.00, 
2580.00,79.542
2581.00, 
2582.00,79.777
2583.00, 
2584.00,78.067
2585.00, 
2586.00,78.243
2587.00, 
2588.00,79.187
2589.00, 
2590.00,78.116
2591.00, 
2592.00,78.847
2593.00, 
2594.00,77.670
2595.00, 
2596.00,80.130
2597.00, 
2598.00,78.379
2599.00, 
2600.00,78.905
