"1aP2 - RawData"
"Wavelength nm.","T%"
200.00,0.003
201.00,-0.002
202.00,-0.001
203.00,0.004
204.00,-0.001
205.00,0.000
206.00,0.002
207.00,-0.004
208.00,-0.002
209.00,0.002
210.00,0.001
211.00,0.000
212.00,-0.001
213.00,-0.001
214.00,0.002
215.00,-0.000
216.00,0.001
217.00,0.000
218.00,0.003
219.00,0.002
220.00,-0.001
221.00,0.003
222.00,0.002
223.00,-0.001
224.00,0.002
225.00,0.000
226.00,-0.000
227.00,0.002
228.00,-0.002
229.00,0.001
230.00,-0.001
231.00,0.002
232.00,0.002
233.00,0.001
234.00,0.002
235.00,-0.000
236.00,0.000
237.00,-0.001
238.00,-0.000
239.00,0.001
240.00,0.001
241.00,-0.001
242.00,-0.001
243.00,0.002
244.00,-0.001
245.00,-0.000
246.00,-0.001
247.00,0.000
248.00,-0.002
249.00,0.003
250.00,0.002
251.00,0.001
252.00,0.000
253.00,-0.001
254.00,0.001
255.00,-0.001
256.00,0.003
257.00,0.001
258.00,-0.001
259.00,0.002
260.00,-0.002
261.00,-0.001
262.00,0.001
263.00,0.001
264.00,-0.000
265.00,0.001
266.00,-0.002
267.00,0.000
268.00,0.001
269.00,0.001
270.00,0.001
271.00,0.001
272.00,-0.001
273.00,0.000
274.00,0.001
275.00,0.000
276.00,-0.000
277.00,-0.001
278.00,0.000
279.00,0.001
280.00,-0.000
281.00,-0.000
282.00,-0.001
283.00,-0.000
284.00,0.000
285.00,0.001
286.00,-0.001
287.00,0.002
288.00,-0.001
289.00,0.000
290.00,0.002
291.00,-0.000
292.00,0.001
293.00,0.001
294.00,-0.001
295.00,0.001
296.00,-0.001
297.00,0.001
298.00,0.001
299.00,0.002
300.00,0.004
301.00,0.005
302.00,0.007
303.00,0.013
304.00,0.018
305.00,0.032
306.00,0.049
307.00,0.074
308.00,0.111
309.00,0.173
310.00,0.236
311.00,0.318
312.00,0.438
313.00,0.589
314.00,0.769
315.00,0.988
316.00,1.256
317.00,1.578
318.00,1.915
319.00,2.338
320.00,2.811
321.00,3.360
322.00,3.951
323.00,4.628
324.00,5.316
325.00,6.011
326.00,6.742
327.00,7.580
328.00,8.400
329.00,9.209
330.00,10.011
331.00,10.817
332.00,11.838
333.00,12.776
334.00,13.662
335.00,14.519
336.00,15.348
337.00,16.241
338.00,17.101
339.00,17.890
340.00,18.718
341.00,19.456
342.00,20.200
343.00,20.862
344.00,21.475
345.00,22.191
346.00,22.756
347.00,23.266
348.00,23.827
349.00,24.255
350.00,24.759
351.00,25.152
352.00,25.510
353.00,25.948
354.00,26.264
355.00,26.576
356.00,26.876
357.00,27.161
358.00,27.405
359.00,27.671
360.00,27.906
361.00,28.100
362.00,28.251
363.00,28.519
364.00,28.572
365.00,28.701
366.00,28.797
367.00,28.903
368.00,28.947
369.00,28.994
370.00,29.061
371.00,29.142
372.00,29.099
373.00,29.076
374.00,29.116
375.00,29.141
376.00,29.086
377.00,28.974
378.00,28.921
379.00,28.820
380.00,28.854
381.00,28.842
382.00,28.834
383.00,28.851
384.00,28.860
385.00,28.931
386.00,28.940
387.00,29.021
388.00,29.110
389.00,29.119
390.00,29.160
391.00,29.198
392.00,29.217
393.00,29.265
394.00,29.272
395.00,29.332
396.00,29.254
397.00,29.321
398.00,29.324
399.00,29.323
400.00,29.328
401.00,29.292
402.00,29.378
403.00,29.311
404.00,29.317
405.00,29.306
406.00,29.352
407.00,29.254
408.00,29.262
409.00,29.209
410.00,29.141
411.00,29.186
412.00,29.129
413.00,29.140
414.00,29.098
415.00,29.112
416.00,29.201
417.00,29.161
418.00,29.161
419.00,29.271
420.00,29.343
421.00,29.371
422.00,29.356
423.00,29.409
424.00,29.465
425.00,29.508
426.00,29.501
427.00,29.575
428.00,29.639
429.00,29.642
430.00,29.775
431.00,29.846
432.00,29.781
433.00,29.868
434.00,29.916
435.00,30.012
436.00,30.079
437.00,30.095
438.00,30.183
439.00,30.255
440.00,30.326
441.00,30.411
442.00,30.512
443.00,30.572
444.00,30.675
445.00,30.757
446.00,30.848
447.00,30.983
448.00,31.073
449.00,31.124
450.00,31.213
451.00,31.333
452.00,31.369
453.00,31.509
454.00,31.609
455.00,31.661
456.00,31.834
457.00,31.951
458.00,32.050
459.00,32.147
460.00,32.290
461.00,32.384
462.00,32.497
463.00,32.640
464.00,32.758
465.00,32.874
466.00,32.954
467.00,33.149
468.00,33.236
469.00,33.430
470.00,33.386
471.00,33.550
472.00,33.684
473.00,33.725
474.00,33.861
475.00,33.943
476.00,34.012
477.00,34.179
478.00,34.270
479.00,34.444
480.00,34.569
481.00,34.666
482.00,34.812
483.00,34.943
484.00,35.117
485.00,35.263
486.00,35.437
487.00,35.554
488.00,35.659
489.00,35.839
490.00,35.979
491.00,36.097
492.00,36.332
493.00,36.419
494.00,36.397
495.00,36.516
496.00,36.597
497.00,36.750
498.00,36.906
499.00,37.023
500.00,37.166
501.00,37.267
502.00,37.359
503.00,37.520
504.00,37.515
505.00,37.622
506.00,37.750
507.00,37.810
508.00,37.914
509.00,38.088
510.00,38.180
511.00,38.303
512.00,38.405
513.00,38.558
514.00,38.647
515.00,38.770
516.00,38.852
517.00,38.931
518.00,39.040
519.00,39.126
520.00,39.203
521.00,39.252
522.00,39.336
523.00,39.337
524.00,39.413
525.00,39.519
526.00,39.622
527.00,39.695
528.00,39.755
529.00,39.878
530.00,40.002
531.00,40.117
532.00,40.228
533.00,40.308
534.00,40.371
535.00,40.467
536.00,40.493
537.00,40.540
538.00,40.625
539.00,40.664
540.00,40.675
541.00,40.774
542.00,40.824
543.00,40.826
544.00,40.891
545.00,40.969
546.00,40.986
547.00,41.082
548.00,41.183
549.00,41.236
550.00,41.145
551.00,41.365
552.00,41.364
553.00,41.320
554.00,41.353
555.00,41.475
556.00,41.636
557.00,41.669
558.00,41.703
559.00,41.766
560.00,41.807
561.00,41.907
562.00,41.937
563.00,42.099
564.00,41.983
565.00,42.012
566.00,42.068
567.00,42.061
568.00,42.098
569.00,42.131
570.00,42.163
571.00,42.227
572.00,42.215
573.00,42.201
574.00,42.227
575.00,42.179
576.00,42.251
577.00,42.284
578.00,42.378
579.00,42.384
580.00,42.410
581.00,42.606
582.00,42.651
583.00,42.633
584.00,42.697
585.00,42.818
586.00,42.861
587.00,42.873
588.00,42.898
589.00,42.844
590.00,42.907
591.00,42.970
592.00,42.890
593.00,42.962
594.00,43.034
595.00,43.064
596.00,43.133
597.00,43.194
598.00,43.261
599.00,43.184
600.00,43.323
601.00,43.374
602.00,43.372
603.00,43.369
604.00,43.347
605.00,43.449
606.00,43.471
607.00,43.436
608.00,43.501
609.00,43.654
610.00,43.490
611.00,43.431
612.00,43.503
613.00,43.781
614.00,43.755
615.00,43.790
616.00,43.882
617.00,43.890
618.00,43.853
619.00,43.944
620.00,43.942
621.00,43.989
622.00,44.075
623.00,44.127
624.00,44.188
625.00,44.256
626.00,44.266
627.00,44.355
628.00,44.300
629.00,44.320
630.00,44.373
631.00,44.422
632.00,44.495
633.00,44.624
634.00,44.711
635.00,44.759
636.00,44.818
637.00,44.841
638.00,44.855
639.00,44.910
640.00,44.926
641.00,45.019
642.00,45.063
643.00,45.097
644.00,45.196
645.00,45.281
646.00,45.400
647.00,45.402
648.00,45.476
649.00,45.485
650.00,45.433
651.00,45.546
652.00,45.572
653.00,45.690
654.00,45.682
655.00,45.817
656.00,46.041
657.00,46.075
658.00,46.092
659.00,46.096
660.00,46.067
661.00,46.129
662.00,46.216
663.00,46.297
664.00,46.494
665.00,46.640
666.00,46.642
667.00,46.693
668.00,46.702
669.00,46.938
670.00,47.045
671.00,46.879
672.00,47.063
673.00,47.129
674.00,47.204
675.00,47.220
676.00,47.326
677.00,47.512
678.00,47.342
679.00,47.445
680.00,47.562
681.00,47.702
682.00,47.776
683.00,47.717
684.00,47.764
685.00,47.821
686.00,47.413
687.00,47.916
688.00,48.254
689.00,48.031
690.00,48.229
691.00,48.418
692.00,48.182
693.00,48.085
694.00,48.229
695.00,48.477
696.00,48.502
697.00,48.519
698.00,48.581
699.00,48.777
700.00,48.849
701.00,48.890
702.00,48.894
703.00,49.023
704.00,49.056
705.00,49.024
706.00,49.128
707.00,49.294
708.00,49.091
709.00,49.404
710.00,49.682
711.00,49.304
712.00,49.274
713.00,49.446
714.00,49.472
715.00,49.564
716.00,49.481
717.00,49.615
718.00,49.740
719.00,49.735
720.00,49.820
721.00,54.251
722.00,54.280
723.00,54.304
724.00,54.274
725.00,54.209
726.00,54.232
727.00,54.232
728.00,54.258
729.00,54.218
730.00,54.338
731.00,54.243
732.00,54.293
733.00,54.342
734.00,54.339
735.00,54.383
736.00,54.340
737.00,54.357
738.00,54.387
739.00,54.384
740.00,54.465
741.00,54.468
742.00,54.438
743.00,54.374
744.00,54.335
745.00,54.434
746.00,54.376
747.00,54.468
748.00,54.360
749.00,54.388
750.00,54.370
751.00,54.365
752.00,54.334
753.00,54.375
754.00,54.322
755.00,54.315
756.00,54.320
757.00,54.298
758.00,54.319
759.00,54.263
760.00,54.349
761.00,54.299
762.00,54.327
763.00,54.320
764.00,54.332
765.00,54.304
766.00,54.278
767.00,54.357
768.00,54.367
769.00,54.347
770.00,54.364
771.00,54.335
772.00,54.339
773.00,54.260
774.00,54.333
775.00,54.290
776.00,54.306
777.00,54.387
778.00,54.299
779.00,54.360
780.00,54.292
781.00,54.294
782.00,54.253
783.00,54.254
784.00,54.244
785.00,54.208
786.00,54.239
787.00,54.218
788.00,54.249
789.00,54.240
790.00,54.138
791.00,54.235
792.00,54.101
793.00,54.132
794.00,54.099
795.00,54.133
796.00,54.065
797.00,54.011
798.00,54.067
799.00,54.002
800.00,54.015
801.00,54.061
802.00,54.010
803.00,53.959
804.00,53.923
805.00,53.954
806.00,53.922
807.00,53.887
808.00,53.928
809.00,53.898
810.00,53.768
811.00,53.905
812.00,53.841
813.00,53.841
814.00,53.765
815.00,53.755
816.00,53.834
817.00,53.729
818.00,53.670
819.00,53.715
820.00,53.640
821.00,53.660
822.00,53.613
823.00,53.680
824.00,53.627
825.00,53.540
826.00,53.527
827.00,53.685
828.00,53.700
829.00,53.513
830.00,53.677
831.00,56.040
832.00,56.072
833.00,55.994
834.00,56.021
835.00,55.977
836.00,55.949
837.00,55.972
838.00,55.881
839.00,55.890
840.00,55.827
841.00,55.903
842.00,55.858
843.00,55.868
844.00,55.844
845.00,55.785
846.00,55.877
847.00,55.754
848.00,55.766
849.00,55.664
850.00,55.651
851.00,55.591
852.00,55.622
853.00,55.573
854.00,55.589
855.00,55.509
856.00,55.506
857.00,55.462
858.00,55.456
859.00,55.459
860.00,55.435
861.00,55.500
862.00,55.351
863.00,55.405
864.00,55.351
865.00,55.400
866.00,55.127
867.00,55.355
868.00,55.332
869.00,55.267
870.00,55.337
871.00,55.294
872.00,55.269
873.00,55.228
874.00,55.423
875.00,55.215
876.00,55.255
877.00,55.218
878.00,55.230
879.00,55.224
880.00,55.167
881.00,55.159
882.00,55.195
883.00,55.156
884.00,55.107
885.00,55.105
886.00,55.088
887.00,55.051
888.00,55.025
889.00,55.033
890.00,55.044
891.00,55.005
892.00,54.978
893.00,54.949
894.00,54.945
895.00,54.921
896.00,54.926
897.00,54.899
898.00,54.868
899.00,54.890
900.00,54.856
901.00,54.844
902.00,54.869
903.00,54.819
904.00,54.802
905.00,54.775
906.00,54.768
907.00,54.730
908.00,54.731
909.00,54.714
910.00,54.669
911.00,54.650
912.00,54.654
913.00,54.623
914.00,54.602
915.00,54.599
916.00,54.575
917.00,54.533
918.00,54.537
919.00,54.519
920.00,54.468
921.00,54.465
922.00,54.483
923.00,54.454
924.00,54.403
925.00,54.399
926.00,54.436
927.00,54.383
928.00,54.312
929.00,54.461
930.00,54.332
931.00,54.319
932.00,54.282
933.00,54.278
934.00,54.255
935.00,54.249
936.00,54.192
937.00,54.206
938.00,54.191
939.00,54.182
940.00,54.152
941.00,54.153
942.00,54.109
943.00,54.116
944.00,54.054
945.00,54.058
946.00,54.058
947.00,54.026
948.00,54.018
949.00,54.005
950.00,53.977
951.00,53.963
952.00,53.965
953.00,53.904
954.00,53.904
955.00,53.845
956.00,53.838
957.00,53.807
958.00,53.805
959.00,53.756
960.00,53.752
961.00,53.775
962.00,53.784
963.00,53.726
964.00,53.706
965.00,53.716
966.00,53.685
967.00,53.668
968.00,53.669
969.00,53.672
970.00,53.669
971.00,53.667
972.00,53.629
973.00,53.678
974.00,53.700
975.00,53.645
976.00,53.684
977.00,53.661
978.00,53.701
979.00,53.665
980.00,53.651
981.00,53.682
982.00,53.636
983.00,53.661
984.00,53.636
985.00,53.668
986.00,53.617
987.00,53.663
988.00,53.596
989.00,53.598
990.00,53.610
991.00,53.571
992.00,53.611
993.00,53.572
994.00,53.550
995.00,53.544
996.00,53.550
997.00,53.525
998.00,53.508
999.00,53.529
1000.00,53.471
1001.00,53.481
1002.00,53.449
1003.00,53.464
1004.00,53.453
1005.00,53.404
1006.00,53.445
1007.00,53.416
1008.00,53.393
1009.00,53.384
1010.00,53.377
1011.00,53.360
1012.00,53.338
1013.00,53.348
1014.00,53.313
1015.00,53.333
1016.00,53.275
1017.00,53.283
1018.00,53.269
1019.00,53.226
1020.00,53.269
1021.00,53.211
1022.00,53.207
1023.00,53.173
1024.00,53.162
1025.00,53.150
1026.00,53.159
1027.00,53.131
1028.00,53.117
1029.00,53.117
1030.00,53.076
1031.00,53.102
1032.00,53.048
1033.00,53.036
1034.00,53.020
1035.00,52.973
1036.00,52.969
1037.00,52.961
1038.00,52.934
1039.00,52.904
1040.00,52.911
1041.00,52.871
1042.00,52.878
1043.00,52.865
1044.00,52.885
1045.00,52.875
1046.00,52.842
1047.00,52.875
1048.00,52.879
1049.00,52.889
1050.00,52.903
1051.00,52.935
1052.00,52.930
1053.00,52.951
1054.00,52.950
1055.00,52.972
1056.00,52.997
1057.00,52.982
1058.00,52.977
1059.00,52.973
1060.00,52.989
1061.00,52.973
1062.00,52.962
1063.00,52.963
1064.00,52.965
1065.00,52.942
1066.00,52.934
1067.00,52.926
1068.00,52.946
1069.00,52.924
1070.00,52.909
1071.00,52.893
1072.00,52.912
1073.00,52.885
1074.00,52.880
1075.00,52.868
1076.00,52.870
1077.00,52.851
1078.00,52.844
1079.00,52.830
1080.00,52.850
1081.00,52.857
1082.00,52.822
1083.00,52.832
1084.00,52.818
1085.00,52.818
1086.00,52.803
1087.00,52.811
1088.00,52.784
1089.00,52.790
1090.00,52.769
1091.00,52.782
1092.00,52.778
1093.00,52.755
1094.00,52.733
1095.00,52.751
1096.00,52.733
1097.00,52.730
1098.00,52.715
1099.00,52.707
1100.00,52.698
1101.00,52.672
1102.00,52.674
1103.00,52.672
1104.00,52.644
1105.00,52.649
1106.00,52.641
1107.00,52.619
1108.00,52.611
1109.00,52.604
1110.00,52.601
1111.00,52.611
1112.00,52.574
1113.00,52.596
1114.00,52.581
1115.00,52.581
1116.00,52.575
1117.00,52.559
1118.00,52.553
1119.00,52.573
1120.00,52.563
1121.00,52.567
1122.00,52.547
1123.00,52.524
1124.00,52.519
1125.00,52.505
1126.00,52.516
1127.00,52.546
1128.00,52.515
1129.00,52.499
1130.00,52.492
1131.00,52.479
1132.00,52.470
1133.00,52.460
1134.00,52.451
1135.00,52.451
1136.00,52.446
1137.00,52.449
1138.00,52.448
1139.00,52.460
1140.00,52.440
1141.00,52.462
1142.00,52.430
1143.00,52.456
1144.00,52.444
1145.00,52.422
1146.00,52.443
1147.00,52.439
1148.00,52.419
1149.00,52.455
1150.00,52.461
1151.00,52.442
1152.00,52.440
1153.00,52.440
1154.00,52.420
1155.00,52.418
1156.00,52.398
1157.00,52.420
1158.00,52.408
1159.00,52.395
1160.00,52.402
1161.00,52.428
1162.00,52.409
1163.00,52.416
1164.00,52.417
1165.00,52.415
1166.00,52.423
1167.00,52.392
1168.00,52.414
1169.00,52.400
1170.00,52.396
1171.00,52.372
1172.00,52.372
1173.00,52.361
1174.00,52.376
1175.00,52.366
1176.00,52.373
1177.00,52.378
1178.00,52.356
1179.00,52.397
1180.00,52.383
1181.00,52.395
1182.00,52.390
1183.00,52.393
1184.00,52.362
1185.00,52.384
1186.00,52.372
1187.00,52.381
1188.00,52.410
1189.00,52.370
1190.00,52.380
1191.00,52.377
1192.00,52.397
1193.00,52.398
1194.00,52.400
1195.00,52.378
1196.00,52.419
1197.00,52.408
1198.00,52.388
1199.00,52.385
1200.00,52.387
1201.00,52.400
1202.00,52.380
1203.00,52.392
1204.00,52.368
1205.00,52.391
1206.00,52.379
1207.00,52.392
1208.00,52.374
1209.00,52.388
1210.00,52.395
1211.00,52.365
1212.00,52.405
1213.00,52.370
1214.00,52.386
1215.00,52.368
1216.00,52.378
1217.00,52.375
1218.00,52.367
1219.00,52.384
1220.00,52.344
1221.00,52.377
1222.00,52.351
1223.00,52.384
1224.00,52.389
1225.00,52.357
1226.00,52.382
1227.00,52.376
1228.00,52.405
1229.00,52.412
1230.00,52.439
1231.00,52.408
1232.00,52.422
1233.00,52.407
1234.00,52.401
1235.00,52.414
1236.00,52.401
1237.00,52.406
1238.00,52.411
1239.00,52.421
1240.00,52.423
1241.00,52.435
1242.00,52.433
1243.00,52.460
1244.00,52.416
1245.00,52.453
1246.00,52.467
1247.00,52.444
1248.00,52.463
1249.00,52.491
1250.00,52.458
1251.00,52.440
1252.00,52.457
1253.00,52.441
1254.00,52.485
1255.00,52.437
1256.00,52.440
1257.00,52.467
1258.00,52.506
1259.00,52.505
1260.00,52.523
1261.00,52.511
1262.00,52.499
1263.00,52.511
1264.00,52.523
1265.00,52.536
1266.00,52.520
1267.00,52.542
1268.00,52.548
1269.00,52.544
1270.00,52.566
1271.00,52.570
1272.00,52.563
1273.00,52.593
1274.00,52.569
1275.00,52.582
1276.00,52.583
1277.00,52.574
1278.00,52.597
1279.00,52.630
1280.00,52.611
1281.00,52.626
1282.00,52.629
1283.00,52.599
1284.00,52.631
1285.00,52.628
1286.00,52.637
1287.00,52.643
1288.00,52.638
1289.00,52.641
1290.00,52.679
1291.00,52.654
1292.00,52.654
1293.00,52.661
1294.00,52.689
1295.00,52.696
1296.00,52.690
1297.00,52.701
1298.00,52.740
1299.00,52.705
1300.00,52.723
1301.00,52.716
1302.00,52.729
1303.00,52.713
1304.00,52.737
1305.00,52.744
1306.00,52.738
1307.00,52.718
1308.00,52.728
1309.00,52.762
1310.00,52.713
1311.00,52.739
1312.00,52.757
1313.00,52.767
1314.00,52.786
1315.00,52.807
1316.00,52.796
1317.00,52.826
1318.00,52.828
1319.00,52.825
1320.00,52.824
1321.00,52.975
1322.00,52.969
1323.00,52.972
1324.00,52.957
1325.00,52.963
1326.00,52.985
1327.00,52.966
1328.00,52.961
1329.00,52.969
1330.00,52.976
1331.00,52.988
1332.00,52.964
1333.00,52.974
1334.00,53.000
1335.00,52.998
1336.00,53.029
1337.00,53.068
1338.00,53.118
1339.00,53.174
1340.00,53.223
1341.00,53.287
1342.00,53.355
1343.00,53.402
1344.00,53.458
1345.00,53.499
1346.00,53.528
1347.00,53.547
1348.00,53.553
1349.00,53.614
1350.00,53.601
1351.00,53.654
1352.00,53.581
1353.00,53.805
1354.00,53.679
1355.00,53.569
1356.00,53.745
1357.00,53.648
1358.00,53.650
1359.00,53.687
1360.00,53.617
1361.00,53.771
1362.00,53.626
1363.00,53.729
1364.00,53.855
1365.00,53.696
1366.00,53.706
1367.00,53.739
1368.00,53.640
1369.00,53.575
1370.00,53.670
1371.00,53.623
1372.00,53.672
1373.00,53.666
1374.00,53.683
1375.00,53.693
1376.00,53.654
1377.00,53.652
1378.00,53.736
1379.00,53.701
1380.00,53.662
1381.00,53.735
1382.00,53.722
1383.00,53.716
1384.00,53.639
1385.00,53.560
1386.00,53.647
1387.00,53.704
1388.00,53.605
1389.00,53.543
1390.00,53.639
1391.00,53.735
1392.00,53.667
1393.00,53.745
1394.00,53.738
1395.00,53.660
1396.00,53.624
1397.00,53.558
1398.00,53.656
1399.00,53.700
1400.00,53.976
1401.00,53.615
1402.00,53.697
1403.00,53.693
1404.00,53.703
1405.00,53.712
1406.00,53.754
1407.00,53.694
1408.00,53.746
1409.00,53.709
1410.00,53.753
1411.00,53.676
1412.00,53.762
1413.00,53.738
1414.00,53.756
1415.00,53.726
1416.00,53.788
1417.00,53.820
1418.00,53.788
1419.00,53.826
1420.00,53.796
1421.00,53.839
1422.00,53.844
1423.00,53.847
1424.00,53.846
1425.00,53.866
1426.00,53.860
1427.00,53.903
1428.00,53.891
1429.00,53.908
1430.00,53.928
1431.00,53.948
1432.00,53.953
1433.00,53.976
1434.00,53.950
1435.00,53.991
1436.00,54.003
1437.00,53.988
1438.00,54.040
1439.00,54.057
1440.00,54.054
1441.00,54.078
1442.00,54.085
1443.00,54.133
1444.00,54.150
1445.00,54.099
1446.00,54.220
1447.00,54.196
1448.00,54.206
1449.00,54.216
1450.00,54.237
1451.00,54.230
1452.00,54.247
1453.00,54.226
1454.00,54.287
1455.00,54.310
1456.00,54.283
1457.00,54.309
1458.00,54.331
1459.00,54.330
1460.00,54.373
1461.00,54.342
1462.00,54.404
1463.00,54.409
1464.00,54.399
1465.00,54.410
1466.00,54.404
1467.00,54.400
1468.00,54.484
1469.00,54.461
1470.00,54.474
1471.00,54.533
1472.00,54.525
1473.00,54.558
1474.00,54.573
1475.00,54.581
1476.00,54.604
1477.00,54.567
1478.00,54.571
1479.00,54.603
1480.00,54.601
1481.00,54.604
1482.00,54.641
1483.00,54.657
1484.00,54.674
1485.00,54.690
1486.00,54.671
1487.00,54.716
1488.00,54.742
1489.00,54.714
1490.00,54.757
1491.00,54.764
1492.00,54.768
1493.00,54.740
1494.00,54.796
1495.00,54.764
1496.00,54.810
1497.00,54.783
1498.00,54.812
1499.00,54.835
1500.00,54.818
1501.00, 
1502.00, 
1503.00, 
1504.00, 
1505.00, 
1506.00, 
1507.00, 
1508.00, 
1509.00, 
1510.00, 
1511.00, 
1512.00, 
1513.00, 
1514.00, 
1515.00, 
1516.00, 
1517.00, 
1518.00, 
1519.00, 
1520.00, 
1521.00, 
1522.00, 
1523.00, 
1524.00, 
1525.00, 
1526.00, 
1527.00, 
1528.00, 
1529.00, 
1530.00, 
1531.00, 
1532.00, 
1533.00, 
1534.00, 
1535.00, 
1536.00, 
1537.00, 
1538.00, 
1539.00, 
1540.00, 
1541.00, 
1542.00, 
1543.00, 
1544.00, 
1545.00, 
1546.00, 
1547.00, 
1548.00, 
1549.00, 
1550.00, 
1551.00, 
1552.00, 
1553.00, 
1554.00, 
1555.00, 
1556.00, 
1557.00, 
1558.00, 
1559.00, 
1560.00, 
1561.00, 
1562.00, 
1563.00, 
1564.00, 
1565.00, 
1566.00, 
1567.00, 
1568.00, 
1569.00, 
1570.00, 
1571.00, 
1572.00, 
1573.00, 
1574.00, 
1575.00, 
1576.00, 
1577.00, 
1578.00, 
1579.00, 
1580.00, 
1581.00, 
1582.00, 
1583.00, 
1584.00, 
1585.00, 
1586.00, 
1587.00, 
1588.00, 
1589.00, 
1590.00, 
1591.00, 
1592.00, 
1593.00, 
1594.00, 
1595.00, 
1596.00, 
1597.00, 
1598.00, 
1599.00, 
1600.00, 
1601.00, 
1602.00, 
1603.00, 
1604.00, 
1605.00, 
1606.00, 
1607.00, 
1608.00, 
1609.00, 
1610.00, 
1611.00, 
1612.00, 
1613.00, 
1614.00, 
1615.00, 
1616.00, 
1617.00, 
1618.00, 
1619.00, 
1620.00, 
1621.00, 
1622.00, 
1623.00, 
1624.00, 
1625.00, 
1626.00, 
1627.00, 
1628.00, 
1629.00, 
1630.00, 
1631.00, 
1632.00, 
1633.00, 
1634.00, 
1635.00, 
1636.00, 
1637.00, 
1638.00, 
1639.00, 
1640.00, 
1641.00, 
1642.00, 
1643.00, 
1644.00, 
1645.00, 
1646.00, 
1647.00, 
1648.00, 
1649.00, 
1650.00, 
1651.00, 
1652.00, 
1653.00, 
1654.00, 
1655.00, 
1656.00, 
1657.00, 
1658.00, 
1659.00, 
1660.00, 
1661.00, 
1662.00, 
1663.00, 
1664.00, 
1665.00, 
1666.00, 
1667.00, 
1668.00, 
1669.00, 
1670.00, 
1671.00, 
1672.00, 
1673.00, 
1674.00, 
1675.00, 
1676.00, 
1677.00, 
1678.00, 
1679.00, 
1680.00, 
1681.00, 
1682.00, 
1683.00, 
1684.00, 
1685.00, 
1686.00, 
1687.00, 
1688.00, 
1689.00, 
1690.00, 
1691.00, 
1692.00, 
1693.00, 
1694.00, 
1695.00, 
1696.00, 
1697.00, 
1698.00, 
1699.00, 
1700.00, 
1701.00, 
1702.00, 
1703.00, 
1704.00, 
1705.00, 
1706.00, 
1707.00, 
1708.00, 
1709.00, 
1710.00, 
1711.00, 
1712.00, 
1713.00, 
1714.00, 
1715.00, 
1716.00, 
1717.00, 
1718.00, 
1719.00, 
1720.00, 
1721.00, 
1722.00, 
1723.00, 
1724.00, 
1725.00, 
1726.00, 
1727.00, 
1728.00, 
1729.00, 
1730.00, 
1731.00, 
1732.00, 
1733.00, 
1734.00, 
1735.00, 
1736.00, 
1737.00, 
1738.00, 
1739.00, 
1740.00, 
1741.00, 
1742.00, 
1743.00, 
1744.00, 
1745.00, 
1746.00, 
1747.00, 
1748.00, 
1749.00, 
1750.00, 
1751.00, 
1752.00, 
1753.00, 
1754.00, 
1755.00, 
1756.00, 
1757.00, 
1758.00, 
1759.00, 
1760.00, 
1761.00, 
1762.00, 
1763.00, 
1764.00, 
1765.00, 
1766.00, 
1767.00, 
1768.00, 
1769.00, 
1770.00, 
1771.00, 
1772.00, 
1773.00, 
1774.00, 
1775.00, 
1776.00, 
1777.00, 
1778.00, 
1779.00, 
1780.00, 
1781.00, 
1782.00, 
1783.00, 
1784.00, 
1785.00, 
1786.00, 
1787.00, 
1788.00, 
1789.00, 
1790.00, 
1791.00, 
1792.00, 
1793.00, 
1794.00, 
1795.00, 
1796.00, 
1797.00, 
1798.00, 
1799.00, 
1800.00, 
1801.00, 
1802.00, 
1803.00, 
1804.00, 
1805.00, 
1806.00, 
1807.00, 
1808.00, 
1809.00, 
1810.00, 
1811.00, 
1812.00, 
1813.00, 
1814.00, 
1815.00, 
1816.00, 
1817.00, 
1818.00, 
1819.00, 
1820.00, 
1821.00, 
1822.00, 
1823.00, 
1824.00, 
1825.00, 
1826.00, 
1827.00, 
1828.00, 
1829.00, 
1830.00, 
1831.00, 
1832.00, 
1833.00, 
1834.00, 
1835.00, 
1836.00, 
1837.00, 
1838.00, 
1839.00, 
1840.00, 
1841.00, 
1842.00, 
1843.00, 
1844.00, 
1845.00, 
1846.00, 
1847.00, 
1848.00, 
1849.00, 
1850.00, 
1851.00, 
1852.00, 
1853.00, 
1854.00, 
1855.00, 
1856.00, 
1857.00, 
1858.00, 
1859.00, 
1860.00, 
1861.00, 
1862.00, 
1863.00, 
1864.00, 
1865.00, 
1866.00, 
1867.00, 
1868.00, 
1869.00, 
1870.00, 
1871.00, 
1872.00, 
1873.00, 
1874.00, 
1875.00, 
1876.00, 
1877.00, 
1878.00, 
1879.00, 
1880.00, 
1881.00, 
1882.00, 
1883.00, 
1884.00, 
1885.00, 
1886.00, 
1887.00, 
1888.00, 
1889.00, 
1890.00, 
1891.00, 
1892.00, 
1893.00, 
1894.00, 
1895.00, 
1896.00, 
1897.00, 
1898.00, 
1899.00, 
1900.00, 
1901.00, 
1902.00, 
1903.00, 
1904.00, 
1905.00, 
1906.00, 
1907.00, 
1908.00, 
1909.00, 
1910.00, 
1911.00, 
1912.00, 
1913.00, 
1914.00, 
1915.00, 
1916.00, 
1917.00, 
1918.00, 
1919.00, 
1920.00, 
1921.00, 
1922.00, 
1923.00, 
1924.00, 
1925.00, 
1926.00, 
1927.00, 
1928.00, 
1929.00, 
1930.00, 
1931.00, 
1932.00, 
1933.00, 
1934.00, 
1935.00, 
1936.00, 
1937.00, 
1938.00, 
1939.00, 
1940.00, 
1941.00, 
1942.00, 
1943.00, 
1944.00, 
1945.00, 
1946.00, 
1947.00, 
1948.00, 
1949.00, 
1950.00, 
1951.00, 
1952.00, 
1953.00, 
1954.00, 
1955.00, 
1956.00, 
1957.00, 
1958.00, 
1959.00, 
1960.00, 
1961.00, 
1962.00, 
1963.00, 
1964.00, 
1965.00, 
1966.00, 
1967.00, 
1968.00, 
1969.00, 
1970.00, 
1971.00, 
1972.00, 
1973.00, 
1974.00, 
1975.00, 
1976.00, 
1977.00, 
1978.00, 
1979.00, 
1980.00, 
1981.00, 
1982.00, 
1983.00, 
1984.00, 
1985.00, 
1986.00, 
1987.00, 
1988.00, 
1989.00, 
1990.00, 
1991.00, 
1992.00, 
1993.00, 
1994.00, 
1995.00, 
1996.00, 
1997.00, 
1998.00, 
1999.00, 
2000.00, 
2001.00, 
2002.00, 
2003.00, 
2004.00, 
2005.00, 
2006.00, 
2007.00, 
2008.00, 
2009.00, 
2010.00, 
2011.00, 
2012.00, 
2013.00, 
2014.00, 
2015.00, 
2016.00, 
2017.00, 
2018.00, 
2019.00, 
2020.00, 
2021.00, 
2022.00, 
2023.00, 
2024.00, 
2025.00, 
2026.00, 
2027.00, 
2028.00, 
2029.00, 
2030.00, 
2031.00, 
2032.00, 
2033.00, 
2034.00, 
2035.00, 
2036.00, 
2037.00, 
2038.00, 
2039.00, 
2040.00, 
2041.00, 
2042.00, 
2043.00, 
2044.00, 
2045.00, 
2046.00, 
2047.00, 
2048.00, 
2049.00, 
2050.00, 
2051.00, 
2052.00, 
2053.00, 
2054.00, 
2055.00, 
2056.00, 
2057.00, 
2058.00, 
2059.00, 
2060.00, 
2061.00, 
2062.00, 
2063.00, 
2064.00, 
2065.00, 
2066.00, 
2067.00, 
2068.00, 
2069.00, 
2070.00, 
2071.00, 
2072.00, 
2073.00, 
2074.00, 
2075.00, 
2076.00, 
2077.00, 
2078.00, 
2079.00, 
2080.00, 
2081.00, 
2082.00, 
2083.00, 
2084.00, 
2085.00, 
2086.00, 
2087.00, 
2088.00, 
2089.00, 
2090.00, 
2091.00, 
2092.00, 
2093.00, 
2094.00, 
2095.00, 
2096.00, 
2097.00, 
2098.00, 
2099.00, 
2100.00, 
2101.00, 
2102.00, 
2103.00, 
2104.00, 
2105.00, 
2106.00, 
2107.00, 
2108.00, 
2109.00, 
2110.00, 
2111.00, 
2112.00, 
2113.00, 
2114.00, 
2115.00, 
2116.00, 
2117.00, 
2118.00, 
2119.00, 
2120.00, 
2121.00, 
2122.00, 
2123.00, 
2124.00, 
2125.00, 
2126.00, 
2127.00, 
2128.00, 
2129.00, 
2130.00, 
2131.00, 
2132.00, 
2133.00, 
2134.00, 
2135.00, 
2136.00, 
2137.00, 
2138.00, 
2139.00, 
2140.00, 
2141.00, 
2142.00, 
2143.00, 
2144.00, 
2145.00, 
2146.00, 
2147.00, 
2148.00, 
2149.00, 
2150.00, 
2151.00, 
2152.00, 
2153.00, 
2154.00, 
2155.00, 
2156.00, 
2157.00, 
2158.00, 
2159.00, 
2160.00, 
2161.00, 
2162.00, 
2163.00, 
2164.00, 
2165.00, 
2166.00, 
2167.00, 
2168.00, 
2169.00, 
2170.00, 
2171.00, 
2172.00, 
2173.00, 
2174.00, 
2175.00, 
2176.00, 
2177.00, 
2178.00, 
2179.00, 
2180.00, 
2181.00, 
2182.00, 
2183.00, 
2184.00, 
2185.00, 
2186.00, 
2187.00, 
2188.00, 
2189.00, 
2190.00, 
2191.00, 
2192.00, 
2193.00, 
2194.00, 
2195.00, 
2196.00, 
2197.00, 
2198.00, 
2199.00, 
2200.00, 
2201.00, 
2202.00, 
2203.00, 
2204.00, 
2205.00, 
2206.00, 
2207.00, 
2208.00, 
2209.00, 
2210.00, 
2211.00, 
2212.00, 
2213.00, 
2214.00, 
2215.00, 
2216.00, 
2217.00, 
2218.00, 
2219.00, 
2220.00, 
2221.00, 
2222.00, 
2223.00, 
2224.00, 
2225.00, 
2226.00, 
2227.00, 
2228.00, 
2229.00, 
2230.00, 
2231.00, 
2232.00, 
2233.00, 
2234.00, 
2235.00, 
2236.00, 
2237.00, 
2238.00, 
2239.00, 
2240.00, 
2241.00, 
2242.00, 
2243.00, 
2244.00, 
2245.00, 
2246.00, 
2247.00, 
2248.00, 
2249.00, 
2250.00, 
2251.00, 
2252.00, 
2253.00, 
2254.00, 
2255.00, 
2256.00, 
2257.00, 
2258.00, 
2259.00, 
2260.00, 
2261.00, 
2262.00, 
2263.00, 
2264.00, 
2265.00, 
2266.00, 
2267.00, 
2268.00, 
2269.00, 
2270.00, 
2271.00, 
2272.00, 
2273.00, 
2274.00, 
2275.00, 
2276.00, 
2277.00, 
2278.00, 
2279.00, 
2280.00, 
2281.00, 
2282.00, 
2283.00, 
2284.00, 
2285.00, 
2286.00, 
2287.00, 
2288.00, 
2289.00, 
2290.00, 
2291.00, 
2292.00, 
2293.00, 
2294.00, 
2295.00, 
2296.00, 
2297.00, 
2298.00, 
2299.00, 
2300.00, 
2301.00, 
2302.00, 
2303.00, 
2304.00, 
2305.00, 
2306.00, 
2307.00, 
2308.00, 
2309.00, 
2310.00, 
2311.00, 
2312.00, 
2313.00, 
2314.00, 
2315.00, 
2316.00, 
2317.00, 
2318.00, 
2319.00, 
2320.00, 
2321.00, 
2322.00, 
2323.00, 
2324.00, 
2325.00, 
2326.00, 
2327.00, 
2328.00, 
2329.00, 
2330.00, 
2331.00, 
2332.00, 
2333.00, 
2334.00, 
2335.00, 
2336.00, 
2337.00, 
2338.00, 
2339.00, 
2340.00, 
2341.00, 
2342.00, 
2343.00, 
2344.00, 
2345.00, 
2346.00, 
2347.00, 
2348.00, 
2349.00, 
2350.00, 
2351.00, 
2352.00, 
2353.00, 
2354.00, 
2355.00, 
2356.00, 
2357.00, 
2358.00, 
2359.00, 
2360.00, 
2361.00, 
2362.00, 
2363.00, 
2364.00, 
2365.00, 
2366.00, 
2367.00, 
2368.00, 
2369.00, 
2370.00, 
2371.00, 
2372.00, 
2373.00, 
2374.00, 
2375.00, 
2376.00, 
2377.00, 
2378.00, 
2379.00, 
2380.00, 
2381.00, 
2382.00, 
2383.00, 
2384.00, 
2385.00, 
2386.00, 
2387.00, 
2388.00, 
2389.00, 
2390.00, 
2391.00, 
2392.00, 
2393.00, 
2394.00, 
2395.00, 
2396.00, 
2397.00, 
2398.00, 
2399.00, 
2400.00, 
2401.00, 
2402.00, 
2403.00, 
2404.00, 
2405.00, 
2406.00, 
2407.00, 
2408.00, 
2409.00, 
2410.00, 
2411.00, 
2412.00, 
2413.00, 
2414.00, 
2415.00, 
2416.00, 
2417.00, 
2418.00, 
2419.00, 
2420.00, 
2421.00, 
2422.00, 
2423.00, 
2424.00, 
2425.00, 
2426.00, 
2427.00, 
2428.00, 
2429.00, 
2430.00, 
2431.00, 
2432.00, 
2433.00, 
2434.00, 
2435.00, 
2436.00, 
2437.00, 
2438.00, 
2439.00, 
2440.00, 
2441.00, 
2442.00, 
2443.00, 
2444.00, 
2445.00, 
2446.00, 
2447.00, 
2448.00, 
2449.00, 
2450.00, 
2451.00, 
2452.00, 
2453.00, 
2454.00, 
2455.00, 
2456.00, 
2457.00, 
2458.00, 
2459.00, 
2460.00, 
2461.00, 
2462.00, 
2463.00, 
2464.00, 
2465.00, 
2466.00, 
2467.00, 
2468.00, 
2469.00, 
2470.00, 
2471.00, 
2472.00, 
2473.00, 
2474.00, 
2475.00, 
2476.00, 
2477.00, 
2478.00, 
2479.00, 
2480.00, 
2481.00, 
2482.00, 
2483.00, 
2484.00, 
2485.00, 
2486.00, 
2487.00, 
2488.00, 
2489.00, 
2490.00, 
2491.00, 
2492.00, 
2493.00, 
2494.00, 
2495.00, 
2496.00, 
2497.00, 
2498.00, 
2499.00, 
2500.00, 
2501.00, 
2502.00, 
2503.00, 
2504.00, 
2505.00, 
2506.00, 
2507.00, 
2508.00, 
2509.00, 
2510.00, 
2511.00, 
2512.00, 
2513.00, 
2514.00, 
2515.00, 
2516.00, 
2517.00, 
2518.00, 
2519.00, 
2520.00, 
2521.00, 
2522.00, 
2523.00, 
2524.00, 
2525.00, 
2526.00, 
2527.00, 
2528.00, 
2529.00, 
2530.00, 
2531.00, 
2532.00, 
2533.00, 
2534.00, 
2535.00, 
2536.00, 
2537.00, 
2538.00, 
2539.00, 
2540.00, 
2541.00, 
2542.00, 
2543.00, 
2544.00, 
2545.00, 
2546.00, 
2547.00, 
2548.00, 
2549.00, 
2550.00, 
2551.00, 
2552.00, 
2553.00, 
2554.00, 
2555.00, 
2556.00, 
2557.00, 
2558.00, 
2559.00, 
2560.00, 
2561.00, 
2562.00, 
2563.00, 
2564.00, 
2565.00, 
2566.00, 
2567.00, 
2568.00, 
2569.00, 
2570.00, 
2571.00, 
2572.00, 
2573.00, 
2574.00, 
2575.00, 
2576.00, 
2577.00, 
2578.00, 
2579.00, 
2580.00, 
2581.00, 
2582.00, 
2583.00, 
2584.00, 
2585.00, 
2586.00, 
2587.00, 
2588.00, 
2589.00, 
2590.00, 
2591.00, 
2592.00, 
2593.00, 
2594.00, 
2595.00, 
2596.00, 
2597.00, 
2598.00, 
2599.00, 
2600.00, 
