"1bP2 - RawData"
"Wavelength nm.","T%"
200.00,0.003
201.00,0.001
202.00,0.003
203.00,0.002
204.00,0.001
205.00,0.004
206.00,0.001
207.00,0.005
208.00,0.003
209.00,0.002
210.00,-0.000
211.00,-0.002
212.00,-0.000
213.00,0.001
214.00,0.001
215.00,0.002
216.00,0.004
217.00,-0.001
218.00,0.002
219.00,-0.001
220.00,-0.000
221.00,0.001
222.00,-0.000
223.00,0.002
224.00,0.001
225.00,-0.003
226.00,0.000
227.00,-0.001
228.00,0.002
229.00,-0.001
230.00,0.000
231.00,0.001
232.00,-0.001
233.00,0.002
234.00,0.002
235.00,0.003
236.00,0.002
237.00,0.001
238.00,-0.001
239.00,-0.000
240.00,0.000
241.00,0.001
242.00,-0.000
243.00,0.002
244.00,0.001
245.00,-0.000
246.00,0.002
247.00,0.002
248.00,0.001
249.00,0.001
250.00,-0.000
251.00,-0.002
252.00,0.001
253.00,-0.001
254.00,0.001
255.00,0.000
256.00,-0.001
257.00,-0.001
258.00,0.001
259.00,0.003
260.00,-0.001
261.00,0.001
262.00,0.001
263.00,-0.001
264.00,0.001
265.00,-0.001
266.00,0.001
267.00,-0.002
268.00,0.000
269.00,-0.000
270.00,-0.000
271.00,0.000
272.00,-0.000
273.00,-0.001
274.00,-0.000
275.00,0.001
276.00,0.000
277.00,0.001
278.00,-0.001
279.00,0.001
280.00,-0.000
281.00,0.000
282.00,0.001
283.00,0.000
284.00,-0.000
285.00,-0.001
286.00,0.000
287.00,-0.000
288.00,0.000
289.00,-0.001
290.00,0.002
291.00,-0.000
292.00,-0.000
293.00,0.002
294.00,0.000
295.00,0.001
296.00,0.002
297.00,0.001
298.00,0.001
299.00,0.003
300.00,0.006
301.00,0.008
302.00,0.007
303.00,0.014
304.00,0.021
305.00,0.034
306.00,0.052
307.00,0.080
308.00,0.119
309.00,0.187
310.00,0.257
311.00,0.349
312.00,0.481
313.00,0.643
314.00,0.833
315.00,1.073
316.00,1.349
317.00,1.703
318.00,2.078
319.00,2.512
320.00,3.047
321.00,3.625
322.00,4.232
323.00,4.945
324.00,5.673
325.00,6.421
326.00,7.176
327.00,8.052
328.00,8.933
329.00,9.807
330.00,10.771
331.00,11.667
332.00,12.574
333.00,13.587
334.00,14.478
335.00,15.408
336.00,16.274
337.00,17.283
338.00,18.169
339.00,18.936
340.00,19.823
341.00,20.620
342.00,21.384
343.00,22.052
344.00,22.708
345.00,23.482
346.00,24.068
347.00,24.631
348.00,25.206
349.00,25.695
350.00,26.182
351.00,26.620
352.00,27.016
353.00,27.402
354.00,27.752
355.00,28.106
356.00,28.434
357.00,28.705
358.00,28.950
359.00,29.310
360.00,29.556
361.00,29.741
362.00,29.964
363.00,30.145
364.00,30.192
365.00,30.325
366.00,30.462
367.00,30.540
368.00,30.616
369.00,30.685
370.00,30.751
371.00,30.830
372.00,30.757
373.00,30.777
374.00,30.764
375.00,30.825
376.00,30.769
377.00,30.700
378.00,30.639
379.00,30.521
380.00,30.508
381.00,30.502
382.00,30.481
383.00,30.520
384.00,30.549
385.00,30.623
386.00,30.655
387.00,30.686
388.00,30.819
389.00,30.823
390.00,30.847
391.00,30.896
392.00,30.881
393.00,30.953
394.00,30.974
395.00,31.064
396.00,31.027
397.00,30.964
398.00,31.037
399.00,30.964
400.00,31.010
401.00,31.026
402.00,31.024
403.00,31.037
404.00,31.027
405.00,31.010
406.00,31.027
407.00,30.927
408.00,30.934
409.00,30.860
410.00,30.855
411.00,30.876
412.00,30.733
413.00,30.787
414.00,30.732
415.00,30.807
416.00,30.878
417.00,30.787
418.00,30.820
419.00,30.934
420.00,30.972
421.00,30.954
422.00,30.993
423.00,31.038
424.00,31.065
425.00,31.111
426.00,31.098
427.00,31.158
428.00,31.213
429.00,31.209
430.00,31.320
431.00,31.449
432.00,31.345
433.00,31.435
434.00,31.452
435.00,31.524
436.00,31.609
437.00,31.638
438.00,31.728
439.00,31.737
440.00,31.822
441.00,31.922
442.00,31.981
443.00,32.043
444.00,32.122
445.00,32.237
446.00,32.314
447.00,32.429
448.00,32.461
449.00,32.550
450.00,32.638
451.00,32.723
452.00,32.782
453.00,32.881
454.00,32.991
455.00,33.116
456.00,33.174
457.00,33.268
458.00,33.418
459.00,33.471
460.00,33.680
461.00,33.749
462.00,33.820
463.00,33.962
464.00,34.094
465.00,34.169
466.00,34.317
467.00,34.403
468.00,34.491
469.00,34.577
470.00,34.565
471.00,34.685
472.00,34.853
473.00,34.841
474.00,35.003
475.00,35.122
476.00,35.166
477.00,35.307
478.00,35.395
479.00,35.559
480.00,35.686
481.00,35.714
482.00,35.883
483.00,36.006
484.00,36.185
485.00,36.257
486.00,36.451
487.00,36.563
488.00,36.671
489.00,36.841
490.00,36.967
491.00,37.021
492.00,37.297
493.00,37.352
494.00,37.340
495.00,37.504
496.00,37.576
497.00,37.646
498.00,37.779
499.00,37.910
500.00,38.054
501.00,38.161
502.00,38.247
503.00,38.371
504.00,38.362
505.00,38.485
506.00,38.582
507.00,38.647
508.00,38.710
509.00,38.868
510.00,38.982
511.00,39.028
512.00,39.167
513.00,39.312
514.00,39.416
515.00,39.558
516.00,39.617
517.00,39.677
518.00,39.797
519.00,39.867
520.00,39.882
521.00,39.962
522.00,40.036
523.00,40.015
524.00,40.111
525.00,40.183
526.00,40.302
527.00,40.361
528.00,40.425
529.00,40.533
530.00,40.687
531.00,40.794
532.00,40.836
533.00,40.914
534.00,41.010
535.00,41.055
536.00,41.125
537.00,41.206
538.00,41.201
539.00,41.237
540.00,41.326
541.00,41.319
542.00,41.329
543.00,41.372
544.00,41.445
545.00,41.556
546.00,41.524
547.00,41.690
548.00,41.772
549.00,41.792
550.00,41.825
551.00,41.945
552.00,41.963
553.00,42.001
554.00,42.096
555.00,42.058
556.00,42.153
557.00,42.203
558.00,42.205
559.00,42.295
560.00,42.325
561.00,42.424
562.00,42.457
563.00,42.599
564.00,42.465
565.00,42.420
566.00,42.522
567.00,42.485
568.00,42.455
569.00,42.652
570.00,42.650
571.00,42.561
572.00,42.585
573.00,42.678
574.00,42.651
575.00,42.666
576.00,42.666
577.00,42.672
578.00,42.854
579.00,42.845
580.00,42.860
581.00,43.060
582.00,43.112
583.00,43.118
584.00,43.185
585.00,43.267
586.00,43.277
587.00,43.302
588.00,43.328
589.00,43.314
590.00,43.410
591.00,43.368
592.00,43.319
593.00,43.360
594.00,43.416
595.00,43.535
596.00,43.557
597.00,43.608
598.00,43.708
599.00,43.682
600.00,43.717
601.00,43.762
602.00,43.725
603.00,43.638
604.00,43.731
605.00,43.891
606.00,43.822
607.00,43.805
608.00,43.991
609.00,44.051
610.00,43.871
611.00,43.989
612.00,44.003
613.00,44.046
614.00,44.056
615.00,44.086
616.00,44.240
617.00,44.226
618.00,44.137
619.00,44.234
620.00,44.228
621.00,44.326
622.00,44.365
623.00,44.408
624.00,44.527
625.00,44.526
626.00,44.517
627.00,44.585
628.00,44.610
629.00,44.576
630.00,44.606
631.00,44.636
632.00,44.750
633.00,44.840
634.00,44.912
635.00,44.968
636.00,44.976
637.00,45.014
638.00,45.020
639.00,45.133
640.00,45.101
641.00,45.117
642.00,45.208
643.00,45.263
644.00,45.333
645.00,45.305
646.00,45.511
647.00,45.548
648.00,45.551
649.00,45.511
650.00,45.498
651.00,45.682
652.00,45.788
653.00,45.712
654.00,45.720
655.00,45.881
656.00,46.152
657.00,46.165
658.00,46.070
659.00,46.108
660.00,46.068
661.00,46.144
662.00,46.152
663.00,46.277
664.00,46.537
665.00,46.625
666.00,46.518
667.00,46.535
668.00,46.522
669.00,46.765
670.00,46.977
671.00,46.829
672.00,46.833
673.00,47.003
674.00,47.022
675.00,46.829
676.00,47.127
677.00,47.342
678.00,47.064
679.00,47.222
680.00,47.385
681.00,47.468
682.00,47.502
683.00,47.372
684.00,47.476
685.00,47.573
686.00,47.393
687.00,47.606
688.00,47.628
689.00,47.603
690.00,47.845
691.00,48.074
692.00,47.788
693.00,47.749
694.00,47.860
695.00,48.056
696.00,48.066
697.00,47.974
698.00,48.074
699.00,48.288
700.00,48.356
701.00,48.331
702.00,48.322
703.00,48.466
704.00,48.474
705.00,48.437
706.00,48.514
707.00,48.692
708.00,48.459
709.00,48.729
710.00,49.136
711.00,48.691
712.00,48.574
713.00,48.777
714.00,48.868
715.00,48.855
716.00,48.799
717.00,48.907
718.00,49.032
719.00,49.084
720.00,49.046
721.00,53.793
722.00,53.856
723.00,53.821
724.00,53.732
725.00,53.781
726.00,53.756
727.00,53.772
728.00,53.716
729.00,53.751
730.00,53.742
731.00,53.716
732.00,53.721
733.00,53.799
734.00,53.803
735.00,53.809
736.00,53.788
737.00,53.817
738.00,53.812
739.00,53.757
740.00,53.798
741.00,53.813
742.00,53.733
743.00,53.810
744.00,53.738
745.00,53.753
746.00,53.743
747.00,53.685
748.00,53.686
749.00,53.616
750.00,53.682
751.00,53.640
752.00,53.569
753.00,53.579
754.00,53.540
755.00,53.637
756.00,53.576
757.00,53.551
758.00,53.538
759.00,53.545
760.00,53.556
761.00,53.562
762.00,53.522
763.00,53.591
764.00,53.508
765.00,53.509
766.00,53.530
767.00,53.509
768.00,53.521
769.00,53.443
770.00,53.508
771.00,53.478
772.00,53.465
773.00,53.471
774.00,53.511
775.00,53.439
776.00,53.372
777.00,53.492
778.00,53.398
779.00,53.429
780.00,53.351
781.00,53.401
782.00,53.363
783.00,53.365
784.00,53.315
785.00,53.281
786.00,53.403
787.00,53.269
788.00,53.301
789.00,53.249
790.00,53.251
791.00,53.330
792.00,53.136
793.00,53.153
794.00,53.134
795.00,53.165
796.00,53.170
797.00,52.947
798.00,53.138
799.00,52.963
800.00,52.984
801.00,53.030
802.00,53.078
803.00,52.937
804.00,52.997
805.00,52.984
806.00,52.897
807.00,52.854
808.00,52.875
809.00,52.876
810.00,52.777
811.00,52.845
812.00,52.786
813.00,52.750
814.00,52.747
815.00,52.668
816.00,52.780
817.00,52.728
818.00,52.653
819.00,52.632
820.00,52.638
821.00,52.610
822.00,52.564
823.00,52.591
824.00,52.581
825.00,52.526
826.00,52.484
827.00,52.579
828.00,52.641
829.00,52.478
830.00,52.481
831.00,55.085
832.00,55.053
833.00,55.000
834.00,55.032
835.00,54.979
836.00,54.996
837.00,54.940
838.00,54.932
839.00,54.912
840.00,54.847
841.00,54.886
842.00,54.847
843.00,54.831
844.00,54.824
845.00,54.758
846.00,54.780
847.00,54.698
848.00,54.734
849.00,54.681
850.00,54.646
851.00,54.592
852.00,54.583
853.00,54.537
854.00,54.534
855.00,54.468
856.00,54.453
857.00,54.428
858.00,54.407
859.00,54.377
860.00,54.388
861.00,54.404
862.00,54.406
863.00,54.340
864.00,54.314
865.00,54.352
866.00,54.067
867.00,54.292
868.00,54.304
869.00,54.239
870.00,54.294
871.00,54.249
872.00,54.243
873.00,54.225
874.00,54.234
875.00,54.176
876.00,54.205
877.00,54.162
878.00,54.203
879.00,54.151
880.00,54.091
881.00,54.090
882.00,54.147
883.00,54.072
884.00,54.040
885.00,54.024
886.00,54.043
887.00,53.990
888.00,53.957
889.00,53.948
890.00,53.970
891.00,53.888
892.00,53.895
893.00,53.890
894.00,53.900
895.00,53.870
896.00,53.851
897.00,53.851
898.00,53.782
899.00,53.802
900.00,53.794
901.00,53.750
902.00,53.771
903.00,53.737
904.00,53.712
905.00,53.684
906.00,53.695
907.00,53.681
908.00,53.631
909.00,53.636
910.00,53.592
911.00,53.571
912.00,53.597
913.00,53.559
914.00,53.550
915.00,53.501
916.00,53.454
917.00,53.503
918.00,53.483
919.00,53.427
920.00,53.380
921.00,53.384
922.00,53.438
923.00,53.379
924.00,53.346
925.00,53.338
926.00,53.344
927.00,53.320
928.00,53.284
929.00,53.320
930.00,53.259
931.00,53.202
932.00,53.176
933.00,53.271
934.00,53.161
935.00,53.167
936.00,53.121
937.00,53.123
938.00,53.110
939.00,53.113
940.00,53.073
941.00,53.061
942.00,53.028
943.00,53.042
944.00,52.990
945.00,52.968
946.00,52.984
947.00,52.910
948.00,52.914
949.00,52.917
950.00,52.891
951.00,52.874
952.00,52.856
953.00,52.833
954.00,52.831
955.00,52.787
956.00,52.773
957.00,52.742
958.00,52.744
959.00,52.661
960.00,52.687
961.00,52.677
962.00,52.677
963.00,52.632
964.00,52.636
965.00,52.628
966.00,52.610
967.00,52.598
968.00,52.594
969.00,52.608
970.00,52.596
971.00,52.606
972.00,52.556
973.00,52.610
974.00,52.642
975.00,52.592
976.00,52.611
977.00,52.590
978.00,52.660
979.00,52.594
980.00,52.605
981.00,52.603
982.00,52.578
983.00,52.589
984.00,52.566
985.00,52.588
986.00,52.543
987.00,52.581
988.00,52.521
989.00,52.513
990.00,52.521
991.00,52.505
992.00,52.519
993.00,52.487
994.00,52.467
995.00,52.454
996.00,52.452
997.00,52.425
998.00,52.424
999.00,52.444
1000.00,52.370
1001.00,52.375
1002.00,52.363
1003.00,52.359
1004.00,52.373
1005.00,52.342
1006.00,52.374
1007.00,52.351
1008.00,52.330
1009.00,52.308
1010.00,52.308
1011.00,52.287
1012.00,52.266
1013.00,52.269
1014.00,52.229
1015.00,52.251
1016.00,52.205
1017.00,52.205
1018.00,52.200
1019.00,52.156
1020.00,52.165
1021.00,52.159
1022.00,52.125
1023.00,52.094
1024.00,52.137
1025.00,52.087
1026.00,52.085
1027.00,52.045
1028.00,52.045
1029.00,52.034
1030.00,51.971
1031.00,52.003
1032.00,51.965
1033.00,51.957
1034.00,51.943
1035.00,51.905
1036.00,51.882
1037.00,51.865
1038.00,51.865
1039.00,51.837
1040.00,51.831
1041.00,51.778
1042.00,51.790
1043.00,51.776
1044.00,51.801
1045.00,51.790
1046.00,51.760
1047.00,51.787
1048.00,51.804
1049.00,51.818
1050.00,51.801
1051.00,51.845
1052.00,51.855
1053.00,51.861
1054.00,51.861
1055.00,51.904
1056.00,51.912
1057.00,51.894
1058.00,51.877
1059.00,51.892
1060.00,51.906
1061.00,51.879
1062.00,51.881
1063.00,51.893
1064.00,51.886
1065.00,51.883
1066.00,51.867
1067.00,51.866
1068.00,51.876
1069.00,51.835
1070.00,51.848
1071.00,51.809
1072.00,51.821
1073.00,51.812
1074.00,51.793
1075.00,51.781
1076.00,51.792
1077.00,51.760
1078.00,51.749
1079.00,51.760
1080.00,51.768
1081.00,51.756
1082.00,51.746
1083.00,51.747
1084.00,51.747
1085.00,51.757
1086.00,51.731
1087.00,51.758
1088.00,51.716
1089.00,51.728
1090.00,51.719
1091.00,51.705
1092.00,51.692
1093.00,51.677
1094.00,51.659
1095.00,51.652
1096.00,51.631
1097.00,51.642
1098.00,51.630
1099.00,51.614
1100.00,51.606
1101.00,51.607
1102.00,51.583
1103.00,51.598
1104.00,51.578
1105.00,51.562
1106.00,51.546
1107.00,51.538
1108.00,51.532
1109.00,51.526
1110.00,51.513
1111.00,51.515
1112.00,51.492
1113.00,51.499
1114.00,51.495
1115.00,51.500
1116.00,51.490
1117.00,51.484
1118.00,51.470
1119.00,51.474
1120.00,51.478
1121.00,51.469
1122.00,51.458
1123.00,51.439
1124.00,51.420
1125.00,51.426
1126.00,51.428
1127.00,51.431
1128.00,51.423
1129.00,51.405
1130.00,51.389
1131.00,51.397
1132.00,51.379
1133.00,51.387
1134.00,51.383
1135.00,51.357
1136.00,51.363
1137.00,51.364
1138.00,51.359
1139.00,51.376
1140.00,51.366
1141.00,51.372
1142.00,51.359
1143.00,51.362
1144.00,51.349
1145.00,51.351
1146.00,51.356
1147.00,51.336
1148.00,51.321
1149.00,51.342
1150.00,51.344
1151.00,51.335
1152.00,51.337
1153.00,51.341
1154.00,51.305
1155.00,51.325
1156.00,51.313
1157.00,51.315
1158.00,51.317
1159.00,51.316
1160.00,51.301
1161.00,51.325
1162.00,51.334
1163.00,51.308
1164.00,51.318
1165.00,51.306
1166.00,51.316
1167.00,51.288
1168.00,51.300
1169.00,51.298
1170.00,51.281
1171.00,51.265
1172.00,51.286
1173.00,51.274
1174.00,51.285
1175.00,51.281
1176.00,51.277
1177.00,51.279
1178.00,51.279
1179.00,51.301
1180.00,51.289
1181.00,51.311
1182.00,51.297
1183.00,51.301
1184.00,51.257
1185.00,51.294
1186.00,51.284
1187.00,51.264
1188.00,51.288
1189.00,51.279
1190.00,51.260
1191.00,51.265
1192.00,51.315
1193.00,51.313
1194.00,51.294
1195.00,51.263
1196.00,51.310
1197.00,51.326
1198.00,51.302
1199.00,51.304
1200.00,51.308
1201.00,51.303
1202.00,51.287
1203.00,51.287
1204.00,51.271
1205.00,51.288
1206.00,51.273
1207.00,51.288
1208.00,51.277
1209.00,51.277
1210.00,51.288
1211.00,51.286
1212.00,51.301
1213.00,51.276
1214.00,51.299
1215.00,51.272
1216.00,51.289
1217.00,51.281
1218.00,51.274
1219.00,51.304
1220.00,51.257
1221.00,51.287
1222.00,51.264
1223.00,51.293
1224.00,51.310
1225.00,51.286
1226.00,51.282
1227.00,51.283
1228.00,51.298
1229.00,51.304
1230.00,51.352
1231.00,51.322
1232.00,51.346
1233.00,51.345
1234.00,51.339
1235.00,51.341
1236.00,51.329
1237.00,51.339
1238.00,51.331
1239.00,51.334
1240.00,51.320
1241.00,51.339
1242.00,51.324
1243.00,51.343
1244.00,51.318
1245.00,51.344
1246.00,51.369
1247.00,51.353
1248.00,51.357
1249.00,51.379
1250.00,51.370
1251.00,51.359
1252.00,51.366
1253.00,51.351
1254.00,51.386
1255.00,51.364
1256.00,51.356
1257.00,51.360
1258.00,51.392
1259.00,51.392
1260.00,51.424
1261.00,51.409
1262.00,51.413
1263.00,51.427
1264.00,51.417
1265.00,51.437
1266.00,51.430
1267.00,51.433
1268.00,51.452
1269.00,51.446
1270.00,51.458
1271.00,51.466
1272.00,51.461
1273.00,51.499
1274.00,51.500
1275.00,51.496
1276.00,51.486
1277.00,51.499
1278.00,51.491
1279.00,51.510
1280.00,51.502
1281.00,51.522
1282.00,51.523
1283.00,51.501
1284.00,51.521
1285.00,51.517
1286.00,51.518
1287.00,51.524
1288.00,51.523
1289.00,51.513
1290.00,51.555
1291.00,51.547
1292.00,51.546
1293.00,51.545
1294.00,51.560
1295.00,51.568
1296.00,51.568
1297.00,51.562
1298.00,51.603
1299.00,51.576
1300.00,51.592
1301.00,51.588
1302.00,51.614
1303.00,51.610
1304.00,51.595
1305.00,51.617
1306.00,51.620
1307.00,51.629
1308.00,51.616
1309.00,51.621
1310.00,51.620
1311.00,51.600
1312.00,51.622
1313.00,51.635
1314.00,51.659
1315.00,51.680
1316.00,51.667
1317.00,51.703
1318.00,51.705
1319.00,51.698
1320.00,51.713
1321.00,51.874
1322.00,51.865
1323.00,51.850
1324.00,51.835
1325.00,51.823
1326.00,51.860
1327.00,51.831
1328.00,51.830
1329.00,51.837
1330.00,51.835
1331.00,51.844
1332.00,51.831
1333.00,51.822
1334.00,51.857
1335.00,51.869
1336.00,51.896
1337.00,51.930
1338.00,51.992
1339.00,52.052
1340.00,52.111
1341.00,52.181
1342.00,52.239
1343.00,52.285
1344.00,52.336
1345.00,52.391
1346.00,52.436
1347.00,52.433
1348.00,52.452
1349.00,52.506
1350.00,52.498
1351.00,52.520
1352.00,52.492
1353.00,52.565
1354.00,52.536
1355.00,52.453
1356.00,52.588
1357.00,52.535
1358.00,52.535
1359.00,52.562
1360.00,52.515
1361.00,52.654
1362.00,52.460
1363.00,52.624
1364.00,52.730
1365.00,52.592
1366.00,52.610
1367.00,52.608
1368.00,52.451
1369.00,52.529
1370.00,52.517
1371.00,52.462
1372.00,52.502
1373.00,52.553
1374.00,52.535
1375.00,52.530
1376.00,52.515
1377.00,52.486
1378.00,52.552
1379.00,52.570
1380.00,52.548
1381.00,52.618
1382.00,52.568
1383.00,52.577
1384.00,52.496
1385.00,52.455
1386.00,52.525
1387.00,52.540
1388.00,52.473
1389.00,52.449
1390.00,52.500
1391.00,52.561
1392.00,52.520
1393.00,52.542
1394.00,52.543
1395.00,52.497
1396.00,52.447
1397.00,52.455
1398.00,52.525
1399.00,52.526
1400.00,52.503
1401.00,52.465
1402.00,52.493
1403.00,52.539
1404.00,52.511
1405.00,52.558
1406.00,52.582
1407.00,52.554
1408.00,52.568
1409.00,52.542
1410.00,52.598
1411.00,52.536
1412.00,52.644
1413.00,52.591
1414.00,52.611
1415.00,52.598
1416.00,52.623
1417.00,52.668
1418.00,52.637
1419.00,52.661
1420.00,52.646
1421.00,52.680
1422.00,52.665
1423.00,52.695
1424.00,52.681
1425.00,52.730
1426.00,52.711
1427.00,52.748
1428.00,52.742
1429.00,52.758
1430.00,52.797
1431.00,52.793
1432.00,52.803
1433.00,52.824
1434.00,52.799
1435.00,52.840
1436.00,52.854
1437.00,52.831
1438.00,52.854
1439.00,52.887
1440.00,52.895
1441.00,52.916
1442.00,52.930
1443.00,52.950
1444.00,52.985
1445.00,52.961
1446.00,52.977
1447.00,52.995
1448.00,53.026
1449.00,53.022
1450.00,53.047
1451.00,53.053
1452.00,53.086
1453.00,53.081
1454.00,53.114
1455.00,53.138
1456.00,53.150
1457.00,53.145
1458.00,53.176
1459.00,53.175
1460.00,53.195
1461.00,53.168
1462.00,53.200
1463.00,53.202
1464.00,53.211
1465.00,53.229
1466.00,53.232
1467.00,53.238
1468.00,53.298
1469.00,53.273
1470.00,53.305
1471.00,53.334
1472.00,53.325
1473.00,53.339
1474.00,53.365
1475.00,53.375
1476.00,53.387
1477.00,53.361
1478.00,53.386
1479.00,53.401
1480.00,53.436
1481.00,53.437
1482.00,53.439
1483.00,53.443
1484.00,53.467
1485.00,53.467
1486.00,53.484
1487.00,53.509
1488.00,53.542
1489.00,53.535
1490.00,53.545
1491.00,53.547
1492.00,53.563
1493.00,53.545
1494.00,53.583
1495.00,53.552
1496.00,53.590
1497.00,53.564
1498.00,53.588
1499.00,53.601
1500.00,53.612
1501.00, 
1502.00, 
1503.00, 
1504.00, 
1505.00, 
1506.00, 
1507.00, 
1508.00, 
1509.00, 
1510.00, 
1511.00, 
1512.00, 
1513.00, 
1514.00, 
1515.00, 
1516.00, 
1517.00, 
1518.00, 
1519.00, 
1520.00, 
1521.00, 
1522.00, 
1523.00, 
1524.00, 
1525.00, 
1526.00, 
1527.00, 
1528.00, 
1529.00, 
1530.00, 
1531.00, 
1532.00, 
1533.00, 
1534.00, 
1535.00, 
1536.00, 
1537.00, 
1538.00, 
1539.00, 
1540.00, 
1541.00, 
1542.00, 
1543.00, 
1544.00, 
1545.00, 
1546.00, 
1547.00, 
1548.00, 
1549.00, 
1550.00, 
1551.00, 
1552.00, 
1553.00, 
1554.00, 
1555.00, 
1556.00, 
1557.00, 
1558.00, 
1559.00, 
1560.00, 
1561.00, 
1562.00, 
1563.00, 
1564.00, 
1565.00, 
1566.00, 
1567.00, 
1568.00, 
1569.00, 
1570.00, 
1571.00, 
1572.00, 
1573.00, 
1574.00, 
1575.00, 
1576.00, 
1577.00, 
1578.00, 
1579.00, 
1580.00, 
1581.00, 
1582.00, 
1583.00, 
1584.00, 
1585.00, 
1586.00, 
1587.00, 
1588.00, 
1589.00, 
1590.00, 
1591.00, 
1592.00, 
1593.00, 
1594.00, 
1595.00, 
1596.00, 
1597.00, 
1598.00, 
1599.00, 
1600.00, 
1601.00, 
1602.00, 
1603.00, 
1604.00, 
1605.00, 
1606.00, 
1607.00, 
1608.00, 
1609.00, 
1610.00, 
1611.00, 
1612.00, 
1613.00, 
1614.00, 
1615.00, 
1616.00, 
1617.00, 
1618.00, 
1619.00, 
1620.00, 
1621.00, 
1622.00, 
1623.00, 
1624.00, 
1625.00, 
1626.00, 
1627.00, 
1628.00, 
1629.00, 
1630.00, 
1631.00, 
1632.00, 
1633.00, 
1634.00, 
1635.00, 
1636.00, 
1637.00, 
1638.00, 
1639.00, 
1640.00, 
1641.00, 
1642.00, 
1643.00, 
1644.00, 
1645.00, 
1646.00, 
1647.00, 
1648.00, 
1649.00, 
1650.00, 
1651.00, 
1652.00, 
1653.00, 
1654.00, 
1655.00, 
1656.00, 
1657.00, 
1658.00, 
1659.00, 
1660.00, 
1661.00, 
1662.00, 
1663.00, 
1664.00, 
1665.00, 
1666.00, 
1667.00, 
1668.00, 
1669.00, 
1670.00, 
1671.00, 
1672.00, 
1673.00, 
1674.00, 
1675.00, 
1676.00, 
1677.00, 
1678.00, 
1679.00, 
1680.00, 
1681.00, 
1682.00, 
1683.00, 
1684.00, 
1685.00, 
1686.00, 
1687.00, 
1688.00, 
1689.00, 
1690.00, 
1691.00, 
1692.00, 
1693.00, 
1694.00, 
1695.00, 
1696.00, 
1697.00, 
1698.00, 
1699.00, 
1700.00, 
1701.00, 
1702.00, 
1703.00, 
1704.00, 
1705.00, 
1706.00, 
1707.00, 
1708.00, 
1709.00, 
1710.00, 
1711.00, 
1712.00, 
1713.00, 
1714.00, 
1715.00, 
1716.00, 
1717.00, 
1718.00, 
1719.00, 
1720.00, 
1721.00, 
1722.00, 
1723.00, 
1724.00, 
1725.00, 
1726.00, 
1727.00, 
1728.00, 
1729.00, 
1730.00, 
1731.00, 
1732.00, 
1733.00, 
1734.00, 
1735.00, 
1736.00, 
1737.00, 
1738.00, 
1739.00, 
1740.00, 
1741.00, 
1742.00, 
1743.00, 
1744.00, 
1745.00, 
1746.00, 
1747.00, 
1748.00, 
1749.00, 
1750.00, 
1751.00, 
1752.00, 
1753.00, 
1754.00, 
1755.00, 
1756.00, 
1757.00, 
1758.00, 
1759.00, 
1760.00, 
1761.00, 
1762.00, 
1763.00, 
1764.00, 
1765.00, 
1766.00, 
1767.00, 
1768.00, 
1769.00, 
1770.00, 
1771.00, 
1772.00, 
1773.00, 
1774.00, 
1775.00, 
1776.00, 
1777.00, 
1778.00, 
1779.00, 
1780.00, 
1781.00, 
1782.00, 
1783.00, 
1784.00, 
1785.00, 
1786.00, 
1787.00, 
1788.00, 
1789.00, 
1790.00, 
1791.00, 
1792.00, 
1793.00, 
1794.00, 
1795.00, 
1796.00, 
1797.00, 
1798.00, 
1799.00, 
1800.00, 
1801.00, 
1802.00, 
1803.00, 
1804.00, 
1805.00, 
1806.00, 
1807.00, 
1808.00, 
1809.00, 
1810.00, 
1811.00, 
1812.00, 
1813.00, 
1814.00, 
1815.00, 
1816.00, 
1817.00, 
1818.00, 
1819.00, 
1820.00, 
1821.00, 
1822.00, 
1823.00, 
1824.00, 
1825.00, 
1826.00, 
1827.00, 
1828.00, 
1829.00, 
1830.00, 
1831.00, 
1832.00, 
1833.00, 
1834.00, 
1835.00, 
1836.00, 
1837.00, 
1838.00, 
1839.00, 
1840.00, 
1841.00, 
1842.00, 
1843.00, 
1844.00, 
1845.00, 
1846.00, 
1847.00, 
1848.00, 
1849.00, 
1850.00, 
1851.00, 
1852.00, 
1853.00, 
1854.00, 
1855.00, 
1856.00, 
1857.00, 
1858.00, 
1859.00, 
1860.00, 
1861.00, 
1862.00, 
1863.00, 
1864.00, 
1865.00, 
1866.00, 
1867.00, 
1868.00, 
1869.00, 
1870.00, 
1871.00, 
1872.00, 
1873.00, 
1874.00, 
1875.00, 
1876.00, 
1877.00, 
1878.00, 
1879.00, 
1880.00, 
1881.00, 
1882.00, 
1883.00, 
1884.00, 
1885.00, 
1886.00, 
1887.00, 
1888.00, 
1889.00, 
1890.00, 
1891.00, 
1892.00, 
1893.00, 
1894.00, 
1895.00, 
1896.00, 
1897.00, 
1898.00, 
1899.00, 
1900.00, 
1901.00, 
1902.00, 
1903.00, 
1904.00, 
1905.00, 
1906.00, 
1907.00, 
1908.00, 
1909.00, 
1910.00, 
1911.00, 
1912.00, 
1913.00, 
1914.00, 
1915.00, 
1916.00, 
1917.00, 
1918.00, 
1919.00, 
1920.00, 
1921.00, 
1922.00, 
1923.00, 
1924.00, 
1925.00, 
1926.00, 
1927.00, 
1928.00, 
1929.00, 
1930.00, 
1931.00, 
1932.00, 
1933.00, 
1934.00, 
1935.00, 
1936.00, 
1937.00, 
1938.00, 
1939.00, 
1940.00, 
1941.00, 
1942.00, 
1943.00, 
1944.00, 
1945.00, 
1946.00, 
1947.00, 
1948.00, 
1949.00, 
1950.00, 
1951.00, 
1952.00, 
1953.00, 
1954.00, 
1955.00, 
1956.00, 
1957.00, 
1958.00, 
1959.00, 
1960.00, 
1961.00, 
1962.00, 
1963.00, 
1964.00, 
1965.00, 
1966.00, 
1967.00, 
1968.00, 
1969.00, 
1970.00, 
1971.00, 
1972.00, 
1973.00, 
1974.00, 
1975.00, 
1976.00, 
1977.00, 
1978.00, 
1979.00, 
1980.00, 
1981.00, 
1982.00, 
1983.00, 
1984.00, 
1985.00, 
1986.00, 
1987.00, 
1988.00, 
1989.00, 
1990.00, 
1991.00, 
1992.00, 
1993.00, 
1994.00, 
1995.00, 
1996.00, 
1997.00, 
1998.00, 
1999.00, 
2000.00, 
2001.00, 
2002.00, 
2003.00, 
2004.00, 
2005.00, 
2006.00, 
2007.00, 
2008.00, 
2009.00, 
2010.00, 
2011.00, 
2012.00, 
2013.00, 
2014.00, 
2015.00, 
2016.00, 
2017.00, 
2018.00, 
2019.00, 
2020.00, 
2021.00, 
2022.00, 
2023.00, 
2024.00, 
2025.00, 
2026.00, 
2027.00, 
2028.00, 
2029.00, 
2030.00, 
2031.00, 
2032.00, 
2033.00, 
2034.00, 
2035.00, 
2036.00, 
2037.00, 
2038.00, 
2039.00, 
2040.00, 
2041.00, 
2042.00, 
2043.00, 
2044.00, 
2045.00, 
2046.00, 
2047.00, 
2048.00, 
2049.00, 
2050.00, 
2051.00, 
2052.00, 
2053.00, 
2054.00, 
2055.00, 
2056.00, 
2057.00, 
2058.00, 
2059.00, 
2060.00, 
2061.00, 
2062.00, 
2063.00, 
2064.00, 
2065.00, 
2066.00, 
2067.00, 
2068.00, 
2069.00, 
2070.00, 
2071.00, 
2072.00, 
2073.00, 
2074.00, 
2075.00, 
2076.00, 
2077.00, 
2078.00, 
2079.00, 
2080.00, 
2081.00, 
2082.00, 
2083.00, 
2084.00, 
2085.00, 
2086.00, 
2087.00, 
2088.00, 
2089.00, 
2090.00, 
2091.00, 
2092.00, 
2093.00, 
2094.00, 
2095.00, 
2096.00, 
2097.00, 
2098.00, 
2099.00, 
2100.00, 
2101.00, 
2102.00, 
2103.00, 
2104.00, 
2105.00, 
2106.00, 
2107.00, 
2108.00, 
2109.00, 
2110.00, 
2111.00, 
2112.00, 
2113.00, 
2114.00, 
2115.00, 
2116.00, 
2117.00, 
2118.00, 
2119.00, 
2120.00, 
2121.00, 
2122.00, 
2123.00, 
2124.00, 
2125.00, 
2126.00, 
2127.00, 
2128.00, 
2129.00, 
2130.00, 
2131.00, 
2132.00, 
2133.00, 
2134.00, 
2135.00, 
2136.00, 
2137.00, 
2138.00, 
2139.00, 
2140.00, 
2141.00, 
2142.00, 
2143.00, 
2144.00, 
2145.00, 
2146.00, 
2147.00, 
2148.00, 
2149.00, 
2150.00, 
2151.00, 
2152.00, 
2153.00, 
2154.00, 
2155.00, 
2156.00, 
2157.00, 
2158.00, 
2159.00, 
2160.00, 
2161.00, 
2162.00, 
2163.00, 
2164.00, 
2165.00, 
2166.00, 
2167.00, 
2168.00, 
2169.00, 
2170.00, 
2171.00, 
2172.00, 
2173.00, 
2174.00, 
2175.00, 
2176.00, 
2177.00, 
2178.00, 
2179.00, 
2180.00, 
2181.00, 
2182.00, 
2183.00, 
2184.00, 
2185.00, 
2186.00, 
2187.00, 
2188.00, 
2189.00, 
2190.00, 
2191.00, 
2192.00, 
2193.00, 
2194.00, 
2195.00, 
2196.00, 
2197.00, 
2198.00, 
2199.00, 
2200.00, 
2201.00, 
2202.00, 
2203.00, 
2204.00, 
2205.00, 
2206.00, 
2207.00, 
2208.00, 
2209.00, 
2210.00, 
2211.00, 
2212.00, 
2213.00, 
2214.00, 
2215.00, 
2216.00, 
2217.00, 
2218.00, 
2219.00, 
2220.00, 
2221.00, 
2222.00, 
2223.00, 
2224.00, 
2225.00, 
2226.00, 
2227.00, 
2228.00, 
2229.00, 
2230.00, 
2231.00, 
2232.00, 
2233.00, 
2234.00, 
2235.00, 
2236.00, 
2237.00, 
2238.00, 
2239.00, 
2240.00, 
2241.00, 
2242.00, 
2243.00, 
2244.00, 
2245.00, 
2246.00, 
2247.00, 
2248.00, 
2249.00, 
2250.00, 
2251.00, 
2252.00, 
2253.00, 
2254.00, 
2255.00, 
2256.00, 
2257.00, 
2258.00, 
2259.00, 
2260.00, 
2261.00, 
2262.00, 
2263.00, 
2264.00, 
2265.00, 
2266.00, 
2267.00, 
2268.00, 
2269.00, 
2270.00, 
2271.00, 
2272.00, 
2273.00, 
2274.00, 
2275.00, 
2276.00, 
2277.00, 
2278.00, 
2279.00, 
2280.00, 
2281.00, 
2282.00, 
2283.00, 
2284.00, 
2285.00, 
2286.00, 
2287.00, 
2288.00, 
2289.00, 
2290.00, 
2291.00, 
2292.00, 
2293.00, 
2294.00, 
2295.00, 
2296.00, 
2297.00, 
2298.00, 
2299.00, 
2300.00, 
2301.00, 
2302.00, 
2303.00, 
2304.00, 
2305.00, 
2306.00, 
2307.00, 
2308.00, 
2309.00, 
2310.00, 
2311.00, 
2312.00, 
2313.00, 
2314.00, 
2315.00, 
2316.00, 
2317.00, 
2318.00, 
2319.00, 
2320.00, 
2321.00, 
2322.00, 
2323.00, 
2324.00, 
2325.00, 
2326.00, 
2327.00, 
2328.00, 
2329.00, 
2330.00, 
2331.00, 
2332.00, 
2333.00, 
2334.00, 
2335.00, 
2336.00, 
2337.00, 
2338.00, 
2339.00, 
2340.00, 
2341.00, 
2342.00, 
2343.00, 
2344.00, 
2345.00, 
2346.00, 
2347.00, 
2348.00, 
2349.00, 
2350.00, 
2351.00, 
2352.00, 
2353.00, 
2354.00, 
2355.00, 
2356.00, 
2357.00, 
2358.00, 
2359.00, 
2360.00, 
2361.00, 
2362.00, 
2363.00, 
2364.00, 
2365.00, 
2366.00, 
2367.00, 
2368.00, 
2369.00, 
2370.00, 
2371.00, 
2372.00, 
2373.00, 
2374.00, 
2375.00, 
2376.00, 
2377.00, 
2378.00, 
2379.00, 
2380.00, 
2381.00, 
2382.00, 
2383.00, 
2384.00, 
2385.00, 
2386.00, 
2387.00, 
2388.00, 
2389.00, 
2390.00, 
2391.00, 
2392.00, 
2393.00, 
2394.00, 
2395.00, 
2396.00, 
2397.00, 
2398.00, 
2399.00, 
2400.00, 
2401.00, 
2402.00, 
2403.00, 
2404.00, 
2405.00, 
2406.00, 
2407.00, 
2408.00, 
2409.00, 
2410.00, 
2411.00, 
2412.00, 
2413.00, 
2414.00, 
2415.00, 
2416.00, 
2417.00, 
2418.00, 
2419.00, 
2420.00, 
2421.00, 
2422.00, 
2423.00, 
2424.00, 
2425.00, 
2426.00, 
2427.00, 
2428.00, 
2429.00, 
2430.00, 
2431.00, 
2432.00, 
2433.00, 
2434.00, 
2435.00, 
2436.00, 
2437.00, 
2438.00, 
2439.00, 
2440.00, 
2441.00, 
2442.00, 
2443.00, 
2444.00, 
2445.00, 
2446.00, 
2447.00, 
2448.00, 
2449.00, 
2450.00, 
2451.00, 
2452.00, 
2453.00, 
2454.00, 
2455.00, 
2456.00, 
2457.00, 
2458.00, 
2459.00, 
2460.00, 
2461.00, 
2462.00, 
2463.00, 
2464.00, 
2465.00, 
2466.00, 
2467.00, 
2468.00, 
2469.00, 
2470.00, 
2471.00, 
2472.00, 
2473.00, 
2474.00, 
2475.00, 
2476.00, 
2477.00, 
2478.00, 
2479.00, 
2480.00, 
2481.00, 
2482.00, 
2483.00, 
2484.00, 
2485.00, 
2486.00, 
2487.00, 
2488.00, 
2489.00, 
2490.00, 
2491.00, 
2492.00, 
2493.00, 
2494.00, 
2495.00, 
2496.00, 
2497.00, 
2498.00, 
2499.00, 
2500.00, 
2501.00, 
2502.00, 
2503.00, 
2504.00, 
2505.00, 
2506.00, 
2507.00, 
2508.00, 
2509.00, 
2510.00, 
2511.00, 
2512.00, 
2513.00, 
2514.00, 
2515.00, 
2516.00, 
2517.00, 
2518.00, 
2519.00, 
2520.00, 
2521.00, 
2522.00, 
2523.00, 
2524.00, 
2525.00, 
2526.00, 
2527.00, 
2528.00, 
2529.00, 
2530.00, 
2531.00, 
2532.00, 
2533.00, 
2534.00, 
2535.00, 
2536.00, 
2537.00, 
2538.00, 
2539.00, 
2540.00, 
2541.00, 
2542.00, 
2543.00, 
2544.00, 
2545.00, 
2546.00, 
2547.00, 
2548.00, 
2549.00, 
2550.00, 
2551.00, 
2552.00, 
2553.00, 
2554.00, 
2555.00, 
2556.00, 
2557.00, 
2558.00, 
2559.00, 
2560.00, 
2561.00, 
2562.00, 
2563.00, 
2564.00, 
2565.00, 
2566.00, 
2567.00, 
2568.00, 
2569.00, 
2570.00, 
2571.00, 
2572.00, 
2573.00, 
2574.00, 
2575.00, 
2576.00, 
2577.00, 
2578.00, 
2579.00, 
2580.00, 
2581.00, 
2582.00, 
2583.00, 
2584.00, 
2585.00, 
2586.00, 
2587.00, 
2588.00, 
2589.00, 
2590.00, 
2591.00, 
2592.00, 
2593.00, 
2594.00, 
2595.00, 
2596.00, 
2597.00, 
2598.00, 
2599.00, 
2600.00, 
