"1cP1 - RawData"
"Wavelength nm.","T%"
200.00,0.000
201.00,-0.002
202.00,0.005
203.00,0.003
204.00,-0.002
205.00,0.002
206.00,0.000
207.00,0.003
208.00,0.001
209.00,0.002
210.00,0.000
211.00,0.002
212.00,0.001
213.00,0.000
214.00,-0.001
215.00,-0.002
216.00,-0.002
217.00,0.001
218.00,0.000
219.00,0.001
220.00,-0.001
221.00,-0.000
222.00,-0.002
223.00,0.000
224.00,0.001
225.00,0.001
226.00,0.001
227.00,-0.001
228.00,0.001
229.00,0.001
230.00,0.002
231.00,-0.001
232.00,-0.001
233.00,0.001
234.00,0.001
235.00,0.000
236.00,0.001
237.00,-0.000
238.00,0.002
239.00,0.000
240.00,-0.002
241.00,0.001
242.00,0.001
243.00,0.000
244.00,0.002
245.00,0.000
246.00,0.001
247.00,0.002
248.00,0.000
249.00,0.001
250.00,-0.001
251.00,-0.000
252.00,0.001
253.00,-0.000
254.00,-0.001
255.00,0.002
256.00,0.000
257.00,0.001
258.00,-0.000
259.00,-0.001
260.00,0.001
261.00,-0.000
262.00,-0.001
263.00,0.001
264.00,0.002
265.00,-0.000
266.00,0.001
267.00,-0.001
268.00,0.001
269.00,0.000
270.00,0.000
271.00,-0.000
272.00,0.002
273.00,0.001
274.00,0.000
275.00,-0.000
276.00,-0.000
277.00,-0.001
278.00,0.001
279.00,0.001
280.00,-0.001
281.00,-0.000
282.00,0.001
283.00,0.001
284.00,0.000
285.00,0.001
286.00,0.002
287.00,-0.001
288.00,-0.001
289.00,0.000
290.00,-0.002
291.00,0.001
292.00,0.001
293.00,-0.000
294.00,-0.000
295.00,0.000
296.00,0.001
297.00,-0.001
298.00,0.001
299.00,-0.000
300.00,-0.000
301.00,0.000
302.00,-0.001
303.00,-0.000
304.00,0.000
305.00,0.001
306.00,0.001
307.00,0.003
308.00,0.006
309.00,0.012
310.00,0.021
311.00,0.031
312.00,0.040
313.00,0.069
314.00,0.103
315.00,0.151
316.00,0.225
317.00,0.319
318.00,0.428
319.00,0.574
320.00,0.761
321.00,0.992
322.00,1.272
323.00,1.598
324.00,1.993
325.00,2.394
326.00,2.843
327.00,3.377
328.00,3.938
329.00,4.586
330.00,5.155
331.00,5.923
332.00,6.631
333.00,7.463
334.00,8.227
335.00,9.065
336.00,9.879
337.00,10.766
338.00,11.607
339.00,12.368
340.00,13.230
341.00,14.029
342.00,14.796
343.00,15.549
344.00,16.258
345.00,17.022
346.00,17.680
347.00,18.270
348.00,18.903
349.00,19.485
350.00,20.030
351.00,20.564
352.00,20.976
353.00,21.477
354.00,21.863
355.00,22.296
356.00,22.649
357.00,22.985
358.00,23.347
359.00,23.674
360.00,23.988
361.00,24.221
362.00,24.511
363.00,24.718
364.00,24.852
365.00,25.033
366.00,25.220
367.00,25.294
368.00,25.373
369.00,25.490
370.00,25.583
371.00,25.638
372.00,25.592
373.00,25.611
374.00,25.608
375.00,25.612
376.00,25.520
377.00,25.447
378.00,25.336
379.00,25.199
380.00,25.254
381.00,25.191
382.00,25.270
383.00,25.290
384.00,25.385
385.00,25.486
386.00,25.566
387.00,25.659
388.00,25.789
389.00,25.840
390.00,25.888
391.00,25.974
392.00,26.015
393.00,26.047
394.00,26.126
395.00,26.179
396.00,26.165
397.00,26.190
398.00,26.206
399.00,26.247
400.00,26.237
401.00,26.239
402.00,26.239
403.00,26.214
404.00,26.230
405.00,26.224
406.00,26.236
407.00,26.178
408.00,26.189
409.00,26.122
410.00,26.077
411.00,26.093
412.00,26.066
413.00,26.018
414.00,25.983
415.00,26.024
416.00,26.051
417.00,26.028
418.00,26.062
419.00,26.141
420.00,26.201
421.00,26.187
422.00,26.200
423.00,26.256
424.00,26.257
425.00,26.309
426.00,26.300
427.00,26.355
428.00,26.412
429.00,26.433
430.00,26.563
431.00,26.624
432.00,26.553
433.00,26.655
434.00,26.662
435.00,26.739
436.00,26.798
437.00,26.793
438.00,26.881
439.00,26.912
440.00,27.006
441.00,27.083
442.00,27.158
443.00,27.233
444.00,27.319
445.00,27.420
446.00,27.513
447.00,27.619
448.00,27.669
449.00,27.808
450.00,27.921
451.00,27.964
452.00,28.018
453.00,28.166
454.00,28.210
455.00,28.363
456.00,28.487
457.00,28.594
458.00,28.676
459.00,28.789
460.00,28.946
461.00,29.044
462.00,29.169
463.00,29.308
464.00,29.435
465.00,29.540
466.00,29.686
467.00,29.789
468.00,29.857
469.00,29.975
470.00,30.033
471.00,30.117
472.00,30.243
473.00,30.284
474.00,30.399
475.00,30.522
476.00,30.595
477.00,30.728
478.00,30.813
479.00,30.973
480.00,31.102
481.00,31.200
482.00,31.361
483.00,31.496
484.00,31.647
485.00,31.746
486.00,31.930
487.00,32.069
488.00,32.175
489.00,32.357
490.00,32.471
491.00,32.562
492.00,32.820
493.00,32.919
494.00,32.827
495.00,33.022
496.00,33.048
497.00,33.256
498.00,33.419
499.00,33.552
500.00,33.630
501.00,33.756
502.00,33.844
503.00,33.959
504.00,34.045
505.00,34.185
506.00,34.253
507.00,34.270
508.00,34.435
509.00,34.619
510.00,34.744
511.00,34.854
512.00,35.016
513.00,35.135
514.00,35.228
515.00,35.368
516.00,35.442
517.00,35.545
518.00,35.645
519.00,35.739
520.00,35.808
521.00,35.850
522.00,35.909
523.00,35.960
524.00,36.046
525.00,36.199
526.00,36.261
527.00,36.301
528.00,36.369
529.00,36.576
530.00,36.716
531.00,36.782
532.00,36.926
533.00,36.955
534.00,37.064
535.00,37.144
536.00,37.223
537.00,37.280
538.00,37.381
539.00,37.418
540.00,37.487
541.00,37.557
542.00,37.604
543.00,37.657
544.00,37.760
545.00,37.819
546.00,37.829
547.00,38.049
548.00,38.130
549.00,38.107
550.00,38.198
551.00,38.315
552.00,38.320
553.00,38.395
554.00,38.468
555.00,38.458
556.00,38.561
557.00,38.607
558.00,38.681
559.00,38.769
560.00,38.837
561.00,38.903
562.00,38.946
563.00,39.111
564.00,38.980
565.00,39.012
566.00,39.050
567.00,39.061
568.00,39.114
569.00,39.170
570.00,39.155
571.00,39.311
572.00,39.275
573.00,39.263
574.00,39.298
575.00,39.280
576.00,39.312
577.00,39.355
578.00,39.451
579.00,39.495
580.00,39.527
581.00,39.748
582.00,39.778
583.00,39.721
584.00,39.800
585.00,39.895
586.00,39.987
587.00,40.024
588.00,40.034
589.00,40.052
590.00,40.119
591.00,40.121
592.00,40.058
593.00,40.149
594.00,40.304
595.00,40.352
596.00,40.390
597.00,40.453
598.00,40.497
599.00,40.438
600.00,40.546
601.00,40.565
602.00,40.604
603.00,40.627
604.00,40.691
605.00,40.752
606.00,40.720
607.00,40.723
608.00,40.870
609.00,40.940
610.00,40.853
611.00,40.941
612.00,40.947
613.00,40.989
614.00,41.074
615.00,41.126
616.00,41.230
617.00,41.193
618.00,41.180
619.00,41.246
620.00,41.295
621.00,41.353
622.00,41.364
623.00,41.400
624.00,41.496
625.00,41.556
626.00,41.572
627.00,41.667
628.00,41.601
629.00,41.671
630.00,41.676
631.00,41.652
632.00,41.803
633.00,41.953
634.00,41.940
635.00,41.976
636.00,42.127
637.00,42.190
638.00,42.202
639.00,42.301
640.00,42.254
641.00,42.289
642.00,42.359
643.00,42.433
644.00,42.471
645.00,42.583
646.00,42.678
647.00,42.716
648.00,42.824
649.00,42.800
650.00,42.775
651.00,42.954
652.00,42.999
653.00,42.922
654.00,43.008
655.00,43.191
656.00,43.457
657.00,43.314
658.00,43.385
659.00,43.465
660.00,43.444
661.00,43.512
662.00,43.484
663.00,43.564
664.00,43.941
665.00,44.050
666.00,43.888
667.00,43.905
668.00,43.947
669.00,44.212
670.00,44.388
671.00,44.263
672.00,44.373
673.00,44.318
674.00,44.378
675.00,44.538
676.00,44.714
677.00,44.868
678.00,44.643
679.00,44.731
680.00,44.885
681.00,45.058
682.00,45.105
683.00,45.014
684.00,45.157
685.00,45.211
686.00,45.056
687.00,45.295
688.00,45.216
689.00,45.323
690.00,45.610
691.00,45.685
692.00,45.521
693.00,45.606
694.00,45.667
695.00,45.825
696.00,45.916
697.00,45.826
698.00,45.929
699.00,46.199
700.00,46.218
701.00,46.128
702.00,46.165
703.00,46.332
704.00,46.406
705.00,46.313
706.00,46.342
707.00,46.497
708.00,46.269
709.00,46.751
710.00,47.022
711.00,46.579
712.00,46.596
713.00,46.833
714.00,46.859
715.00,46.830
716.00,46.800
717.00,46.939
718.00,46.799
719.00,46.981
720.00,47.207
721.00,51.729
722.00,51.750
723.00,51.764
724.00,51.686
725.00,51.674
726.00,51.764
727.00,51.686
728.00,51.698
729.00,51.680
730.00,51.737
731.00,51.720
732.00,51.706
733.00,51.774
734.00,51.790
735.00,51.756
736.00,51.765
737.00,51.789
738.00,51.822
739.00,51.795
740.00,51.775
741.00,51.938
742.00,51.839
743.00,51.864
744.00,51.733
745.00,51.929
746.00,51.826
747.00,51.793
748.00,51.788
749.00,51.716
750.00,51.811
751.00,51.767
752.00,51.700
753.00,51.759
754.00,51.681
755.00,51.741
756.00,51.708
757.00,51.699
758.00,51.700
759.00,51.702
760.00,51.723
761.00,51.665
762.00,51.636
763.00,51.693
764.00,51.662
765.00,51.689
766.00,51.691
767.00,51.687
768.00,51.716
769.00,51.624
770.00,51.671
771.00,51.663
772.00,51.707
773.00,51.676
774.00,51.657
775.00,51.671
776.00,51.648
777.00,51.689
778.00,51.578
779.00,51.630
780.00,51.619
781.00,51.602
782.00,51.600
783.00,51.501
784.00,51.611
785.00,51.490
786.00,51.572
787.00,51.482
788.00,51.531
789.00,51.463
790.00,51.410
791.00,51.489
792.00,51.435
793.00,51.392
794.00,51.407
795.00,51.353
796.00,51.360
797.00,51.235
798.00,51.319
799.00,51.201
800.00,51.238
801.00,51.279
802.00,51.212
803.00,51.178
804.00,51.196
805.00,51.203
806.00,51.143
807.00,51.092
808.00,51.097
809.00,51.049
810.00,50.980
811.00,51.073
812.00,50.995
813.00,50.993
814.00,50.948
815.00,50.939
816.00,51.025
817.00,50.961
818.00,50.906
819.00,50.841
820.00,50.923
821.00,50.854
822.00,50.815
823.00,50.791
824.00,50.846
825.00,50.745
826.00,50.769
827.00,50.845
828.00,50.775
829.00,50.763
830.00,50.773
831.00,52.984
832.00,53.009
833.00,52.916
834.00,52.980
835.00,52.915
836.00,52.913
837.00,52.873
838.00,52.846
839.00,52.807
840.00,52.758
841.00,52.802
842.00,52.755
843.00,52.741
844.00,52.708
845.00,52.696
846.00,52.705
847.00,52.647
848.00,52.637
849.00,52.588
850.00,52.549
851.00,52.490
852.00,52.497
853.00,52.423
854.00,52.411
855.00,52.371
856.00,52.397
857.00,52.309
858.00,52.319
859.00,52.275
860.00,52.288
861.00,52.321
862.00,52.213
863.00,52.230
864.00,52.193
865.00,52.231
866.00,51.951
867.00,52.170
868.00,52.163
869.00,52.085
870.00,52.152
871.00,52.078
872.00,52.124
873.00,52.077
874.00,52.065
875.00,52.040
876.00,52.039
877.00,52.029
878.00,52.023
879.00,51.963
880.00,51.939
881.00,51.934
882.00,51.951
883.00,51.922
884.00,51.899
885.00,51.821
886.00,51.849
887.00,51.961
888.00,51.766
889.00,51.751
890.00,51.782
891.00,51.727
892.00,51.714
893.00,51.681
894.00,51.677
895.00,51.632
896.00,51.625
897.00,51.594
898.00,51.571
899.00,51.600
900.00,51.572
901.00,51.667
902.00,51.556
903.00,51.506
904.00,51.511
905.00,51.466
906.00,51.474
907.00,51.437
908.00,51.424
909.00,51.393
910.00,51.374
911.00,51.348
912.00,51.358
913.00,51.303
914.00,51.315
915.00,51.286
916.00,51.260
917.00,51.234
918.00,51.248
919.00,51.181
920.00,51.164
921.00,51.144
922.00,51.180
923.00,51.134
924.00,51.109
925.00,51.089
926.00,51.050
927.00,51.064
928.00,51.033
929.00,51.030
930.00,50.977
931.00,50.978
932.00,50.935
933.00,50.953
934.00,50.922
935.00,50.914
936.00,50.856
937.00,50.870
938.00,50.838
939.00,50.817
940.00,50.795
941.00,50.789
942.00,50.744
943.00,50.745
944.00,50.692
945.00,50.718
946.00,50.678
947.00,50.659
948.00,50.645
949.00,50.623
950.00,50.597
951.00,50.580
952.00,50.577
953.00,50.526
954.00,50.509
955.00,50.485
956.00,50.455
957.00,50.404
958.00,50.451
959.00,50.374
960.00,50.384
961.00,50.364
962.00,50.374
963.00,50.308
964.00,50.296
965.00,50.290
966.00,50.269
967.00,50.257
968.00,50.238
969.00,50.252
970.00,50.245
971.00,50.269
972.00,50.224
973.00,50.264
974.00,50.281
975.00,50.245
976.00,50.268
977.00,50.237
978.00,50.285
979.00,50.241
980.00,50.262
981.00,50.281
982.00,50.251
983.00,50.250
984.00,50.230
985.00,50.257
986.00,50.202
987.00,50.238
988.00,50.181
989.00,50.182
990.00,50.188
991.00,50.167
992.00,50.207
993.00,50.157
994.00,50.128
995.00,50.109
996.00,50.103
997.00,50.094
998.00,50.070
999.00,50.084
1000.00,50.032
1001.00,50.048
1002.00,50.003
1003.00,50.000
1004.00,50.040
1005.00,49.953
1006.00,50.001
1007.00,49.958
1008.00,49.956
1009.00,49.944
1010.00,49.945
1011.00,49.931
1012.00,49.893
1013.00,49.905
1014.00,49.861
1015.00,49.878
1016.00,49.841
1017.00,49.846
1018.00,49.804
1019.00,49.787
1020.00,49.789
1021.00,49.768
1022.00,49.758
1023.00,49.715
1024.00,49.729
1025.00,49.706
1026.00,49.701
1027.00,49.668
1028.00,49.667
1029.00,49.646
1030.00,49.602
1031.00,49.632
1032.00,49.580
1033.00,49.573
1034.00,49.578
1035.00,49.502
1036.00,49.488
1037.00,49.488
1038.00,49.475
1039.00,49.441
1040.00,49.440
1041.00,49.390
1042.00,49.398
1043.00,49.377
1044.00,49.407
1045.00,49.388
1046.00,49.368
1047.00,49.410
1048.00,49.415
1049.00,49.430
1050.00,49.436
1051.00,49.466
1052.00,49.450
1053.00,49.466
1054.00,49.459
1055.00,49.480
1056.00,49.491
1057.00,49.491
1058.00,49.475
1059.00,49.475
1060.00,49.479
1061.00,49.468
1062.00,49.447
1063.00,49.465
1064.00,49.485
1065.00,49.487
1066.00,49.442
1067.00,49.438
1068.00,49.452
1069.00,49.424
1070.00,49.419
1071.00,49.400
1072.00,49.414
1073.00,49.375
1074.00,49.373
1075.00,49.355
1076.00,49.347
1077.00,49.336
1078.00,49.309
1079.00,49.326
1080.00,49.341
1081.00,49.309
1082.00,49.302
1083.00,49.307
1084.00,49.291
1085.00,49.285
1086.00,49.272
1087.00,49.282
1088.00,49.246
1089.00,49.245
1090.00,49.254
1091.00,49.262
1092.00,49.261
1093.00,49.270
1094.00,49.251
1095.00,49.204
1096.00,49.187
1097.00,49.193
1098.00,49.183
1099.00,49.180
1100.00,49.173
1101.00,49.155
1102.00,49.142
1103.00,49.150
1104.00,49.126
1105.00,49.121
1106.00,49.098
1107.00,49.091
1108.00,49.086
1109.00,49.081
1110.00,49.082
1111.00,49.068
1112.00,49.042
1113.00,49.055
1114.00,49.048
1115.00,49.045
1116.00,49.045
1117.00,49.031
1118.00,49.012
1119.00,49.021
1120.00,49.006
1121.00,48.997
1122.00,48.993
1123.00,48.981
1124.00,48.966
1125.00,48.971
1126.00,48.965
1127.00,48.971
1128.00,48.956
1129.00,48.943
1130.00,48.938
1131.00,48.935
1132.00,48.928
1133.00,48.929
1134.00,48.916
1135.00,48.909
1136.00,48.915
1137.00,48.912
1138.00,48.902
1139.00,48.905
1140.00,48.894
1141.00,48.894
1142.00,48.879
1143.00,48.898
1144.00,48.877
1145.00,48.865
1146.00,48.869
1147.00,48.875
1148.00,48.856
1149.00,48.882
1150.00,48.876
1151.00,48.873
1152.00,48.856
1153.00,48.856
1154.00,48.836
1155.00,48.839
1156.00,48.821
1157.00,48.836
1158.00,48.831
1159.00,48.821
1160.00,48.831
1161.00,48.839
1162.00,48.829
1163.00,48.831
1164.00,48.836
1165.00,48.829
1166.00,48.832
1167.00,48.802
1168.00,48.816
1169.00,48.809
1170.00,48.816
1171.00,48.813
1172.00,48.806
1173.00,48.809
1174.00,48.814
1175.00,48.812
1176.00,48.803
1177.00,48.803
1178.00,48.795
1179.00,48.823
1180.00,48.798
1181.00,48.824
1182.00,48.809
1183.00,48.805
1184.00,48.782
1185.00,48.800
1186.00,48.789
1187.00,48.789
1188.00,48.798
1189.00,48.789
1190.00,48.789
1191.00,48.777
1192.00,48.795
1193.00,48.798
1194.00,48.800
1195.00,48.773
1196.00,48.809
1197.00,48.805
1198.00,48.798
1199.00,48.796
1200.00,48.816
1201.00,48.846
1202.00,48.822
1203.00,48.807
1204.00,48.806
1205.00,48.822
1206.00,48.798
1207.00,48.807
1208.00,48.788
1209.00,48.785
1210.00,48.785
1211.00,48.768
1212.00,48.809
1213.00,48.775
1214.00,48.807
1215.00,48.788
1216.00,48.801
1217.00,48.809
1218.00,48.791
1219.00,48.818
1220.00,48.795
1221.00,48.820
1222.00,48.797
1223.00,48.823
1224.00,48.824
1225.00,48.805
1226.00,48.820
1227.00,48.809
1228.00,48.835
1229.00,48.822
1230.00,48.860
1231.00,48.847
1232.00,48.862
1233.00,48.867
1234.00,48.866
1235.00,48.859
1236.00,48.846
1237.00,48.873
1238.00,48.871
1239.00,48.882
1240.00,48.871
1241.00,48.894
1242.00,48.896
1243.00,48.913
1244.00,48.870
1245.00,48.913
1246.00,48.909
1247.00,48.894
1248.00,48.912
1249.00,48.906
1250.00,48.910
1251.00,48.895
1252.00,48.907
1253.00,48.897
1254.00,48.940
1255.00,48.915
1256.00,48.906
1257.00,48.893
1258.00,48.928
1259.00,48.935
1260.00,48.967
1261.00,48.964
1262.00,48.964
1263.00,48.962
1264.00,48.968
1265.00,48.977
1266.00,48.972
1267.00,48.989
1268.00,48.990
1269.00,48.988
1270.00,49.017
1271.00,49.016
1272.00,49.019
1273.00,49.052
1274.00,49.041
1275.00,49.042
1276.00,49.032
1277.00,49.034
1278.00,49.057
1279.00,49.058
1280.00,49.043
1281.00,49.067
1282.00,49.067
1283.00,49.060
1284.00,49.091
1285.00,49.085
1286.00,49.099
1287.00,49.097
1288.00,49.103
1289.00,49.102
1290.00,49.139
1291.00,49.118
1292.00,49.129
1293.00,49.128
1294.00,49.148
1295.00,49.165
1296.00,49.156
1297.00,49.164
1298.00,49.196
1299.00,49.168
1300.00,49.195
1301.00,49.182
1302.00,49.198
1303.00,49.212
1304.00,49.195
1305.00,49.222
1306.00,49.231
1307.00,49.244
1308.00,49.237
1309.00,49.247
1310.00,49.261
1311.00,49.247
1312.00,49.264
1313.00,49.272
1314.00,49.284
1315.00,49.290
1316.00,49.284
1317.00,49.316
1318.00,49.312
1319.00,49.322
1320.00,49.335
1321.00,49.494
1322.00,49.490
1323.00,49.475
1324.00,49.452
1325.00,49.457
1326.00,49.478
1327.00,49.458
1328.00,49.456
1329.00,49.449
1330.00,49.456
1331.00,49.478
1332.00,49.466
1333.00,49.472
1334.00,49.500
1335.00,49.519
1336.00,49.558
1337.00,49.598
1338.00,49.647
1339.00,49.705
1340.00,49.749
1341.00,49.819
1342.00,49.883
1343.00,49.911
1344.00,49.988
1345.00,50.036
1346.00,50.075
1347.00,50.105
1348.00,50.110
1349.00,50.166
1350.00,50.153
1351.00,50.182
1352.00,50.172
1353.00,50.240
1354.00,50.197
1355.00,50.131
1356.00,50.265
1357.00,50.206
1358.00,50.222
1359.00,50.238
1360.00,50.196
1361.00,50.277
1362.00,50.145
1363.00,50.265
1364.00,50.402
1365.00,50.251
1366.00,50.273
1367.00,50.271
1368.00,50.206
1369.00,50.271
1370.00,50.241
1371.00,50.205
1372.00,50.250
1373.00,50.246
1374.00,50.253
1375.00,50.251
1376.00,50.230
1377.00,50.252
1378.00,50.297
1379.00,50.244
1380.00,50.246
1381.00,50.261
1382.00,50.101
1383.00,50.263
1384.00,50.190
1385.00,50.153
1386.00,50.245
1387.00,50.221
1388.00,50.168
1389.00,50.130
1390.00,50.240
1391.00,50.282
1392.00,50.236
1393.00,50.220
1394.00,50.249
1395.00,50.255
1396.00,50.178
1397.00,50.165
1398.00,50.249
1399.00,50.260
1400.00,50.220
1401.00,50.182
1402.00,50.266
1403.00,50.229
1404.00,50.223
1405.00,50.292
1406.00,50.281
1407.00,50.307
1408.00,50.304
1409.00,50.246
1410.00,50.318
1411.00,50.286
1412.00,50.367
1413.00,50.332
1414.00,50.364
1415.00,50.365
1416.00,50.374
1417.00,50.381
1418.00,50.382
1419.00,50.404
1420.00,50.405
1421.00,50.440
1422.00,50.459
1423.00,50.485
1424.00,50.479
1425.00,50.496
1426.00,50.491
1427.00,50.522
1428.00,50.504
1429.00,50.530
1430.00,50.551
1431.00,50.576
1432.00,50.589
1433.00,50.605
1434.00,50.593
1435.00,50.651
1436.00,50.663
1437.00,50.652
1438.00,50.680
1439.00,50.693
1440.00,50.700
1441.00,50.735
1442.00,50.736
1443.00,50.821
1444.00,50.843
1445.00,50.809
1446.00,50.859
1447.00,50.870
1448.00,50.883
1449.00,50.894
1450.00,50.909
1451.00,50.914
1452.00,50.943
1453.00,50.944
1454.00,50.974
1455.00,51.000
1456.00,51.007
1457.00,51.014
1458.00,51.040
1459.00,51.046
1460.00,51.088
1461.00,51.069
1462.00,51.116
1463.00,51.128
1464.00,51.133
1465.00,51.149
1466.00,51.154
1467.00,51.171
1468.00,51.238
1469.00,51.201
1470.00,51.230
1471.00,51.259
1472.00,51.245
1473.00,51.269
1474.00,51.301
1475.00,51.301
1476.00,51.333
1477.00,51.329
1478.00,51.357
1479.00,51.375
1480.00,51.376
1481.00,51.378
1482.00,51.412
1483.00,51.414
1484.00,51.431
1485.00,51.453
1486.00,51.455
1487.00,51.497
1488.00,51.531
1489.00,51.512
1490.00,51.545
1491.00,51.545
1492.00,51.563
1493.00,51.554
1494.00,51.582
1495.00,51.571
1496.00,51.596
1497.00,51.572
1498.00,51.600
1499.00,51.621
1500.00,51.626
1501.00, 
1502.00, 
1503.00, 
1504.00, 
1505.00, 
1506.00, 
1507.00, 
1508.00, 
1509.00, 
1510.00, 
1511.00, 
1512.00, 
1513.00, 
1514.00, 
1515.00, 
1516.00, 
1517.00, 
1518.00, 
1519.00, 
1520.00, 
1521.00, 
1522.00, 
1523.00, 
1524.00, 
1525.00, 
1526.00, 
1527.00, 
1528.00, 
1529.00, 
1530.00, 
1531.00, 
1532.00, 
1533.00, 
1534.00, 
1535.00, 
1536.00, 
1537.00, 
1538.00, 
1539.00, 
1540.00, 
1541.00, 
1542.00, 
1543.00, 
1544.00, 
1545.00, 
1546.00, 
1547.00, 
1548.00, 
1549.00, 
1550.00, 
1551.00, 
1552.00, 
1553.00, 
1554.00, 
1555.00, 
1556.00, 
1557.00, 
1558.00, 
1559.00, 
1560.00, 
1561.00, 
1562.00, 
1563.00, 
1564.00, 
1565.00, 
1566.00, 
1567.00, 
1568.00, 
1569.00, 
1570.00, 
1571.00, 
1572.00, 
1573.00, 
1574.00, 
1575.00, 
1576.00, 
1577.00, 
1578.00, 
1579.00, 
1580.00, 
1581.00, 
1582.00, 
1583.00, 
1584.00, 
1585.00, 
1586.00, 
1587.00, 
1588.00, 
1589.00, 
1590.00, 
1591.00, 
1592.00, 
1593.00, 
1594.00, 
1595.00, 
1596.00, 
1597.00, 
1598.00, 
1599.00, 
1600.00, 
1601.00, 
1602.00, 
1603.00, 
1604.00, 
1605.00, 
1606.00, 
1607.00, 
1608.00, 
1609.00, 
1610.00, 
1611.00, 
1612.00, 
1613.00, 
1614.00, 
1615.00, 
1616.00, 
1617.00, 
1618.00, 
1619.00, 
1620.00, 
1621.00, 
1622.00, 
1623.00, 
1624.00, 
1625.00, 
1626.00, 
1627.00, 
1628.00, 
1629.00, 
1630.00, 
1631.00, 
1632.00, 
1633.00, 
1634.00, 
1635.00, 
1636.00, 
1637.00, 
1638.00, 
1639.00, 
1640.00, 
1641.00, 
1642.00, 
1643.00, 
1644.00, 
1645.00, 
1646.00, 
1647.00, 
1648.00, 
1649.00, 
1650.00, 
1651.00, 
1652.00, 
1653.00, 
1654.00, 
1655.00, 
1656.00, 
1657.00, 
1658.00, 
1659.00, 
1660.00, 
1661.00, 
1662.00, 
1663.00, 
1664.00, 
1665.00, 
1666.00, 
1667.00, 
1668.00, 
1669.00, 
1670.00, 
1671.00, 
1672.00, 
1673.00, 
1674.00, 
1675.00, 
1676.00, 
1677.00, 
1678.00, 
1679.00, 
1680.00, 
1681.00, 
1682.00, 
1683.00, 
1684.00, 
1685.00, 
1686.00, 
1687.00, 
1688.00, 
1689.00, 
1690.00, 
1691.00, 
1692.00, 
1693.00, 
1694.00, 
1695.00, 
1696.00, 
1697.00, 
1698.00, 
1699.00, 
1700.00, 
1701.00, 
1702.00, 
1703.00, 
1704.00, 
1705.00, 
1706.00, 
1707.00, 
1708.00, 
1709.00, 
1710.00, 
1711.00, 
1712.00, 
1713.00, 
1714.00, 
1715.00, 
1716.00, 
1717.00, 
1718.00, 
1719.00, 
1720.00, 
1721.00, 
1722.00, 
1723.00, 
1724.00, 
1725.00, 
1726.00, 
1727.00, 
1728.00, 
1729.00, 
1730.00, 
1731.00, 
1732.00, 
1733.00, 
1734.00, 
1735.00, 
1736.00, 
1737.00, 
1738.00, 
1739.00, 
1740.00, 
1741.00, 
1742.00, 
1743.00, 
1744.00, 
1745.00, 
1746.00, 
1747.00, 
1748.00, 
1749.00, 
1750.00, 
1751.00, 
1752.00, 
1753.00, 
1754.00, 
1755.00, 
1756.00, 
1757.00, 
1758.00, 
1759.00, 
1760.00, 
1761.00, 
1762.00, 
1763.00, 
1764.00, 
1765.00, 
1766.00, 
1767.00, 
1768.00, 
1769.00, 
1770.00, 
1771.00, 
1772.00, 
1773.00, 
1774.00, 
1775.00, 
1776.00, 
1777.00, 
1778.00, 
1779.00, 
1780.00, 
1781.00, 
1782.00, 
1783.00, 
1784.00, 
1785.00, 
1786.00, 
1787.00, 
1788.00, 
1789.00, 
1790.00, 
1791.00, 
1792.00, 
1793.00, 
1794.00, 
1795.00, 
1796.00, 
1797.00, 
1798.00, 
1799.00, 
1800.00, 
1801.00, 
1802.00, 
1803.00, 
1804.00, 
1805.00, 
1806.00, 
1807.00, 
1808.00, 
1809.00, 
1810.00, 
1811.00, 
1812.00, 
1813.00, 
1814.00, 
1815.00, 
1816.00, 
1817.00, 
1818.00, 
1819.00, 
1820.00, 
1821.00, 
1822.00, 
1823.00, 
1824.00, 
1825.00, 
1826.00, 
1827.00, 
1828.00, 
1829.00, 
1830.00, 
1831.00, 
1832.00, 
1833.00, 
1834.00, 
1835.00, 
1836.00, 
1837.00, 
1838.00, 
1839.00, 
1840.00, 
1841.00, 
1842.00, 
1843.00, 
1844.00, 
1845.00, 
1846.00, 
1847.00, 
1848.00, 
1849.00, 
1850.00, 
1851.00, 
1852.00, 
1853.00, 
1854.00, 
1855.00, 
1856.00, 
1857.00, 
1858.00, 
1859.00, 
1860.00, 
1861.00, 
1862.00, 
1863.00, 
1864.00, 
1865.00, 
1866.00, 
1867.00, 
1868.00, 
1869.00, 
1870.00, 
1871.00, 
1872.00, 
1873.00, 
1874.00, 
1875.00, 
1876.00, 
1877.00, 
1878.00, 
1879.00, 
1880.00, 
1881.00, 
1882.00, 
1883.00, 
1884.00, 
1885.00, 
1886.00, 
1887.00, 
1888.00, 
1889.00, 
1890.00, 
1891.00, 
1892.00, 
1893.00, 
1894.00, 
1895.00, 
1896.00, 
1897.00, 
1898.00, 
1899.00, 
1900.00, 
1901.00, 
1902.00, 
1903.00, 
1904.00, 
1905.00, 
1906.00, 
1907.00, 
1908.00, 
1909.00, 
1910.00, 
1911.00, 
1912.00, 
1913.00, 
1914.00, 
1915.00, 
1916.00, 
1917.00, 
1918.00, 
1919.00, 
1920.00, 
1921.00, 
1922.00, 
1923.00, 
1924.00, 
1925.00, 
1926.00, 
1927.00, 
1928.00, 
1929.00, 
1930.00, 
1931.00, 
1932.00, 
1933.00, 
1934.00, 
1935.00, 
1936.00, 
1937.00, 
1938.00, 
1939.00, 
1940.00, 
1941.00, 
1942.00, 
1943.00, 
1944.00, 
1945.00, 
1946.00, 
1947.00, 
1948.00, 
1949.00, 
1950.00, 
1951.00, 
1952.00, 
1953.00, 
1954.00, 
1955.00, 
1956.00, 
1957.00, 
1958.00, 
1959.00, 
1960.00, 
1961.00, 
1962.00, 
1963.00, 
1964.00, 
1965.00, 
1966.00, 
1967.00, 
1968.00, 
1969.00, 
1970.00, 
1971.00, 
1972.00, 
1973.00, 
1974.00, 
1975.00, 
1976.00, 
1977.00, 
1978.00, 
1979.00, 
1980.00, 
1981.00, 
1982.00, 
1983.00, 
1984.00, 
1985.00, 
1986.00, 
1987.00, 
1988.00, 
1989.00, 
1990.00, 
1991.00, 
1992.00, 
1993.00, 
1994.00, 
1995.00, 
1996.00, 
1997.00, 
1998.00, 
1999.00, 
2000.00, 
2001.00, 
2002.00, 
2003.00, 
2004.00, 
2005.00, 
2006.00, 
2007.00, 
2008.00, 
2009.00, 
2010.00, 
2011.00, 
2012.00, 
2013.00, 
2014.00, 
2015.00, 
2016.00, 
2017.00, 
2018.00, 
2019.00, 
2020.00, 
2021.00, 
2022.00, 
2023.00, 
2024.00, 
2025.00, 
2026.00, 
2027.00, 
2028.00, 
2029.00, 
2030.00, 
2031.00, 
2032.00, 
2033.00, 
2034.00, 
2035.00, 
2036.00, 
2037.00, 
2038.00, 
2039.00, 
2040.00, 
2041.00, 
2042.00, 
2043.00, 
2044.00, 
2045.00, 
2046.00, 
2047.00, 
2048.00, 
2049.00, 
2050.00, 
2051.00, 
2052.00, 
2053.00, 
2054.00, 
2055.00, 
2056.00, 
2057.00, 
2058.00, 
2059.00, 
2060.00, 
2061.00, 
2062.00, 
2063.00, 
2064.00, 
2065.00, 
2066.00, 
2067.00, 
2068.00, 
2069.00, 
2070.00, 
2071.00, 
2072.00, 
2073.00, 
2074.00, 
2075.00, 
2076.00, 
2077.00, 
2078.00, 
2079.00, 
2080.00, 
2081.00, 
2082.00, 
2083.00, 
2084.00, 
2085.00, 
2086.00, 
2087.00, 
2088.00, 
2089.00, 
2090.00, 
2091.00, 
2092.00, 
2093.00, 
2094.00, 
2095.00, 
2096.00, 
2097.00, 
2098.00, 
2099.00, 
2100.00, 
2101.00, 
2102.00, 
2103.00, 
2104.00, 
2105.00, 
2106.00, 
2107.00, 
2108.00, 
2109.00, 
2110.00, 
2111.00, 
2112.00, 
2113.00, 
2114.00, 
2115.00, 
2116.00, 
2117.00, 
2118.00, 
2119.00, 
2120.00, 
2121.00, 
2122.00, 
2123.00, 
2124.00, 
2125.00, 
2126.00, 
2127.00, 
2128.00, 
2129.00, 
2130.00, 
2131.00, 
2132.00, 
2133.00, 
2134.00, 
2135.00, 
2136.00, 
2137.00, 
2138.00, 
2139.00, 
2140.00, 
2141.00, 
2142.00, 
2143.00, 
2144.00, 
2145.00, 
2146.00, 
2147.00, 
2148.00, 
2149.00, 
2150.00, 
2151.00, 
2152.00, 
2153.00, 
2154.00, 
2155.00, 
2156.00, 
2157.00, 
2158.00, 
2159.00, 
2160.00, 
2161.00, 
2162.00, 
2163.00, 
2164.00, 
2165.00, 
2166.00, 
2167.00, 
2168.00, 
2169.00, 
2170.00, 
2171.00, 
2172.00, 
2173.00, 
2174.00, 
2175.00, 
2176.00, 
2177.00, 
2178.00, 
2179.00, 
2180.00, 
2181.00, 
2182.00, 
2183.00, 
2184.00, 
2185.00, 
2186.00, 
2187.00, 
2188.00, 
2189.00, 
2190.00, 
2191.00, 
2192.00, 
2193.00, 
2194.00, 
2195.00, 
2196.00, 
2197.00, 
2198.00, 
2199.00, 
2200.00, 
2201.00, 
2202.00, 
2203.00, 
2204.00, 
2205.00, 
2206.00, 
2207.00, 
2208.00, 
2209.00, 
2210.00, 
2211.00, 
2212.00, 
2213.00, 
2214.00, 
2215.00, 
2216.00, 
2217.00, 
2218.00, 
2219.00, 
2220.00, 
2221.00, 
2222.00, 
2223.00, 
2224.00, 
2225.00, 
2226.00, 
2227.00, 
2228.00, 
2229.00, 
2230.00, 
2231.00, 
2232.00, 
2233.00, 
2234.00, 
2235.00, 
2236.00, 
2237.00, 
2238.00, 
2239.00, 
2240.00, 
2241.00, 
2242.00, 
2243.00, 
2244.00, 
2245.00, 
2246.00, 
2247.00, 
2248.00, 
2249.00, 
2250.00, 
2251.00, 
2252.00, 
2253.00, 
2254.00, 
2255.00, 
2256.00, 
2257.00, 
2258.00, 
2259.00, 
2260.00, 
2261.00, 
2262.00, 
2263.00, 
2264.00, 
2265.00, 
2266.00, 
2267.00, 
2268.00, 
2269.00, 
2270.00, 
2271.00, 
2272.00, 
2273.00, 
2274.00, 
2275.00, 
2276.00, 
2277.00, 
2278.00, 
2279.00, 
2280.00, 
2281.00, 
2282.00, 
2283.00, 
2284.00, 
2285.00, 
2286.00, 
2287.00, 
2288.00, 
2289.00, 
2290.00, 
2291.00, 
2292.00, 
2293.00, 
2294.00, 
2295.00, 
2296.00, 
2297.00, 
2298.00, 
2299.00, 
2300.00, 
2301.00, 
2302.00, 
2303.00, 
2304.00, 
2305.00, 
2306.00, 
2307.00, 
2308.00, 
2309.00, 
2310.00, 
2311.00, 
2312.00, 
2313.00, 
2314.00, 
2315.00, 
2316.00, 
2317.00, 
2318.00, 
2319.00, 
2320.00, 
2321.00, 
2322.00, 
2323.00, 
2324.00, 
2325.00, 
2326.00, 
2327.00, 
2328.00, 
2329.00, 
2330.00, 
2331.00, 
2332.00, 
2333.00, 
2334.00, 
2335.00, 
2336.00, 
2337.00, 
2338.00, 
2339.00, 
2340.00, 
2341.00, 
2342.00, 
2343.00, 
2344.00, 
2345.00, 
2346.00, 
2347.00, 
2348.00, 
2349.00, 
2350.00, 
2351.00, 
2352.00, 
2353.00, 
2354.00, 
2355.00, 
2356.00, 
2357.00, 
2358.00, 
2359.00, 
2360.00, 
2361.00, 
2362.00, 
2363.00, 
2364.00, 
2365.00, 
2366.00, 
2367.00, 
2368.00, 
2369.00, 
2370.00, 
2371.00, 
2372.00, 
2373.00, 
2374.00, 
2375.00, 
2376.00, 
2377.00, 
2378.00, 
2379.00, 
2380.00, 
2381.00, 
2382.00, 
2383.00, 
2384.00, 
2385.00, 
2386.00, 
2387.00, 
2388.00, 
2389.00, 
2390.00, 
2391.00, 
2392.00, 
2393.00, 
2394.00, 
2395.00, 
2396.00, 
2397.00, 
2398.00, 
2399.00, 
2400.00, 
2401.00, 
2402.00, 
2403.00, 
2404.00, 
2405.00, 
2406.00, 
2407.00, 
2408.00, 
2409.00, 
2410.00, 
2411.00, 
2412.00, 
2413.00, 
2414.00, 
2415.00, 
2416.00, 
2417.00, 
2418.00, 
2419.00, 
2420.00, 
2421.00, 
2422.00, 
2423.00, 
2424.00, 
2425.00, 
2426.00, 
2427.00, 
2428.00, 
2429.00, 
2430.00, 
2431.00, 
2432.00, 
2433.00, 
2434.00, 
2435.00, 
2436.00, 
2437.00, 
2438.00, 
2439.00, 
2440.00, 
2441.00, 
2442.00, 
2443.00, 
2444.00, 
2445.00, 
2446.00, 
2447.00, 
2448.00, 
2449.00, 
2450.00, 
2451.00, 
2452.00, 
2453.00, 
2454.00, 
2455.00, 
2456.00, 
2457.00, 
2458.00, 
2459.00, 
2460.00, 
2461.00, 
2462.00, 
2463.00, 
2464.00, 
2465.00, 
2466.00, 
2467.00, 
2468.00, 
2469.00, 
2470.00, 
2471.00, 
2472.00, 
2473.00, 
2474.00, 
2475.00, 
2476.00, 
2477.00, 
2478.00, 
2479.00, 
2480.00, 
2481.00, 
2482.00, 
2483.00, 
2484.00, 
2485.00, 
2486.00, 
2487.00, 
2488.00, 
2489.00, 
2490.00, 
2491.00, 
2492.00, 
2493.00, 
2494.00, 
2495.00, 
2496.00, 
2497.00, 
2498.00, 
2499.00, 
2500.00, 
2501.00, 
2502.00, 
2503.00, 
2504.00, 
2505.00, 
2506.00, 
2507.00, 
2508.00, 
2509.00, 
2510.00, 
2511.00, 
2512.00, 
2513.00, 
2514.00, 
2515.00, 
2516.00, 
2517.00, 
2518.00, 
2519.00, 
2520.00, 
2521.00, 
2522.00, 
2523.00, 
2524.00, 
2525.00, 
2526.00, 
2527.00, 
2528.00, 
2529.00, 
2530.00, 
2531.00, 
2532.00, 
2533.00, 
2534.00, 
2535.00, 
2536.00, 
2537.00, 
2538.00, 
2539.00, 
2540.00, 
2541.00, 
2542.00, 
2543.00, 
2544.00, 
2545.00, 
2546.00, 
2547.00, 
2548.00, 
2549.00, 
2550.00, 
2551.00, 
2552.00, 
2553.00, 
2554.00, 
2555.00, 
2556.00, 
2557.00, 
2558.00, 
2559.00, 
2560.00, 
2561.00, 
2562.00, 
2563.00, 
2564.00, 
2565.00, 
2566.00, 
2567.00, 
2568.00, 
2569.00, 
2570.00, 
2571.00, 
2572.00, 
2573.00, 
2574.00, 
2575.00, 
2576.00, 
2577.00, 
2578.00, 
2579.00, 
2580.00, 
2581.00, 
2582.00, 
2583.00, 
2584.00, 
2585.00, 
2586.00, 
2587.00, 
2588.00, 
2589.00, 
2590.00, 
2591.00, 
2592.00, 
2593.00, 
2594.00, 
2595.00, 
2596.00, 
2597.00, 
2598.00, 
2599.00, 
2600.00, 
