"1cP2 - RawData"
"Wavelength nm.","T%"
200.00,0.005
201.00,0.003
202.00,0.002
203.00,0.003
204.00,0.006
205.00,-0.002
206.00,0.001
207.00,0.002
208.00,0.000
209.00,-0.001
210.00,0.002
211.00,0.001
212.00,0.004
213.00,0.001
214.00,0.002
215.00,-0.000
216.00,0.002
217.00,-0.000
218.00,0.002
219.00,0.004
220.00,0.003
221.00,0.001
222.00,0.001
223.00,0.000
224.00,0.004
225.00,0.000
226.00,0.000
227.00,0.001
228.00,-0.001
229.00,0.001
230.00,0.000
231.00,0.002
232.00,0.000
233.00,-0.001
234.00,-0.001
235.00,-0.000
236.00,0.001
237.00,0.001
238.00,-0.002
239.00,0.002
240.00,0.001
241.00,-0.000
242.00,0.001
243.00,0.002
244.00,0.001
245.00,0.001
246.00,-0.001
247.00,-0.000
248.00,-0.001
249.00,0.002
250.00,-0.001
251.00,0.001
252.00,0.000
253.00,-0.002
254.00,-0.000
255.00,0.003
256.00,-0.000
257.00,-0.000
258.00,-0.001
259.00,-0.001
260.00,-0.002
261.00,-0.000
262.00,0.000
263.00,0.000
264.00,0.001
265.00,-0.002
266.00,0.002
267.00,-0.000
268.00,-0.001
269.00,-0.002
270.00,0.001
271.00,-0.001
272.00,-0.000
273.00,0.000
274.00,0.000
275.00,0.001
276.00,-0.001
277.00,-0.001
278.00,0.001
279.00,0.000
280.00,0.000
281.00,0.001
282.00,0.001
283.00,0.001
284.00,0.001
285.00,-0.000
286.00,0.001
287.00,0.000
288.00,0.001
289.00,-0.001
290.00,0.001
291.00,-0.001
292.00,0.001
293.00,0.001
294.00,0.002
295.00,-0.001
296.00,0.001
297.00,0.001
298.00,0.000
299.00,-0.001
300.00,0.001
301.00,0.001
302.00,0.000
303.00,-0.000
304.00,0.003
305.00,0.002
306.00,0.004
307.00,0.008
308.00,0.009
309.00,0.020
310.00,0.029
311.00,0.041
312.00,0.067
313.00,0.111
314.00,0.166
315.00,0.241
316.00,0.340
317.00,0.483
318.00,0.666
319.00,0.899
320.00,1.180
321.00,1.556
322.00,1.985
323.00,2.513
324.00,3.120
325.00,3.759
326.00,4.421
327.00,5.314
328.00,6.212
329.00,7.169
330.00,8.255
331.00,9.349
332.00,10.508
333.00,11.814
334.00,13.062
335.00,14.397
336.00,15.663
337.00,17.019
338.00,18.337
339.00,19.612
340.00,20.990
341.00,22.377
342.00,23.616
343.00,24.760
344.00,25.933
345.00,27.221
346.00,28.285
347.00,29.241
348.00,30.270
349.00,31.256
350.00,32.191
351.00,32.988
352.00,33.790
353.00,34.544
354.00,35.260
355.00,35.991
356.00,36.650
357.00,37.207
358.00,37.812
359.00,38.469
360.00,38.950
361.00,39.402
362.00,39.968
363.00,40.385
364.00,40.535
365.00,40.794
366.00,41.337
367.00,41.374
368.00,41.645
369.00,41.898
370.00,42.052
371.00,42.249
372.00,42.286
373.00,42.344
374.00,42.387
375.00,42.437
376.00,42.336
377.00,42.243
378.00,42.140
379.00,42.053
380.00,42.109
381.00,42.170
382.00,42.267
383.00,42.402
384.00,42.603
385.00,42.796
386.00,42.990
387.00,43.202
388.00,43.489
389.00,43.591
390.00,43.774
391.00,43.910
392.00,44.076
393.00,44.214
394.00,44.341
395.00,44.539
396.00,44.504
397.00,44.627
398.00,44.697
399.00,44.727
400.00,44.758
401.00,44.815
402.00,44.861
403.00,44.869
404.00,44.894
405.00,44.951
406.00,45.029
407.00,44.846
408.00,44.879
409.00,44.804
410.00,44.753
411.00,44.772
412.00,44.693
413.00,44.717
414.00,44.653
415.00,44.649
416.00,44.713
417.00,44.658
418.00,44.690
419.00,44.844
420.00,44.898
421.00,44.883
422.00,44.881
423.00,44.930
424.00,44.921
425.00,44.909
426.00,44.917
427.00,44.997
428.00,45.026
429.00,45.028
430.00,45.119
431.00,45.282
432.00,45.077
433.00,45.120
434.00,45.126
435.00,45.178
436.00,45.192
437.00,45.185
438.00,45.234
439.00,45.271
440.00,45.332
441.00,45.350
442.00,45.403
443.00,45.441
444.00,45.461
445.00,45.551
446.00,45.584
447.00,45.724
448.00,45.740
449.00,45.762
450.00,45.814
451.00,45.850
452.00,45.849
453.00,45.995
454.00,46.015
455.00,46.054
456.00,46.155
457.00,46.183
458.00,46.244
459.00,46.310
460.00,46.396
461.00,46.474
462.00,46.485
463.00,46.643
464.00,46.719
465.00,46.665
466.00,46.741
467.00,46.978
468.00,46.772
469.00,46.885
470.00,46.829
471.00,46.865
472.00,46.921
473.00,46.857
474.00,46.939
475.00,47.013
476.00,46.980
477.00,47.047
478.00,47.075
479.00,47.207
480.00,47.281
481.00,47.209
482.00,47.413
483.00,47.392
484.00,47.501
485.00,47.608
486.00,47.747
487.00,47.787
488.00,47.846
489.00,47.955
490.00,47.990
491.00,48.040
492.00,48.256
493.00,48.292
494.00,48.189
495.00,48.169
496.00,48.321
497.00,48.355
498.00,48.405
499.00,48.471
500.00,48.578
501.00,48.581
502.00,48.620
503.00,48.707
504.00,48.688
505.00,48.686
506.00,48.771
507.00,48.775
508.00,48.653
509.00,48.925
510.00,49.060
511.00,49.016
512.00,49.135
513.00,49.227
514.00,49.267
515.00,49.319
516.00,49.328
517.00,49.357
518.00,49.467
519.00,49.419
520.00,49.424
521.00,49.492
522.00,49.458
523.00,49.399
524.00,49.471
525.00,49.564
526.00,49.599
527.00,49.572
528.00,49.597
529.00,49.733
530.00,49.923
531.00,49.931
532.00,50.025
533.00,50.070
534.00,50.146
535.00,50.155
536.00,50.208
537.00,50.199
538.00,50.215
539.00,50.215
540.00,50.285
541.00,50.263
542.00,50.223
543.00,50.269
544.00,50.295
545.00,50.340
546.00,50.344
547.00,50.457
548.00,50.528
549.00,50.479
550.00,50.535
551.00,50.698
552.00,50.676
553.00,50.603
554.00,50.715
555.00,50.603
556.00,50.703
557.00,50.780
558.00,50.813
559.00,50.855
560.00,50.884
561.00,50.923
562.00,50.959
563.00,51.076
564.00,50.964
565.00,50.925
566.00,50.923
567.00,50.917
568.00,50.918
569.00,50.990
570.00,50.928
571.00,51.006
572.00,50.951
573.00,50.901
574.00,50.978
575.00,50.873
576.00,50.860
577.00,50.853
578.00,50.971
579.00,50.998
580.00,50.973
581.00,51.156
582.00,51.195
583.00,51.145
584.00,51.242
585.00,51.290
586.00,51.298
587.00,51.352
588.00,51.265
589.00,51.199
590.00,51.323
591.00,51.346
592.00,51.251
593.00,51.263
594.00,51.323
595.00,51.406
596.00,51.422
597.00,51.419
598.00,51.444
599.00,51.425
600.00,51.507
601.00,51.560
602.00,51.455
603.00,51.395
604.00,51.410
605.00,51.471
606.00,51.362
607.00,51.392
608.00,51.511
609.00,51.561
610.00,51.389
611.00,51.634
612.00,51.474
613.00,51.543
614.00,51.552
615.00,51.531
616.00,51.685
617.00,51.549
618.00,51.471
619.00,51.562
620.00,51.494
621.00,51.483
622.00,51.523
623.00,51.547
624.00,51.601
625.00,51.617
626.00,51.660
627.00,51.631
628.00,51.506
629.00,51.521
630.00,51.463
631.00,51.489
632.00,51.528
633.00,51.603
634.00,51.683
635.00,51.655
636.00,51.743
637.00,51.649
638.00,51.545
639.00,51.495
640.00,51.498
641.00,51.560
642.00,51.628
643.00,51.610
644.00,51.620
645.00,51.595
646.00,51.754
647.00,51.763
648.00,51.701
649.00,51.633
650.00,51.488
651.00,51.719
652.00,51.639
653.00,51.568
654.00,51.542
655.00,51.626
656.00,52.002
657.00,51.727
658.00,51.738
659.00,51.743
660.00,51.588
661.00,51.623
662.00,51.576
663.00,51.663
664.00,51.859
665.00,51.937
666.00,51.733
667.00,51.738
668.00,51.703
669.00,51.865
670.00,52.020
671.00,51.714
672.00,51.825
673.00,51.940
674.00,51.898
675.00,51.813
676.00,51.898
677.00,52.040
678.00,51.614
679.00,51.703
680.00,51.914
681.00,51.916
682.00,51.894
683.00,51.716
684.00,51.756
685.00,51.649
686.00,51.456
687.00,51.716
688.00,51.727
689.00,51.578
690.00,51.793
691.00,52.056
692.00,51.581
693.00,51.419
694.00,51.596
695.00,51.662
696.00,51.818
697.00,51.667
698.00,51.648
699.00,51.862
700.00,51.687
701.00,51.612
702.00,51.667
703.00,51.720
704.00,51.680
705.00,51.571
706.00,51.494
707.00,51.662
708.00,51.396
709.00,51.768
710.00,51.999
711.00,51.459
712.00,51.368
713.00,51.557
714.00,51.548
715.00,51.448
716.00,51.276
717.00,51.467
718.00,51.525
719.00,51.406
720.00,51.377
721.00,56.223
722.00,56.138
723.00,56.111
724.00,56.049
725.00,55.977
726.00,55.892
727.00,55.838
728.00,55.780
729.00,55.674
730.00,55.723
731.00,55.555
732.00,55.598
733.00,55.605
734.00,55.563
735.00,55.460
736.00,55.413
737.00,55.360
738.00,55.318
739.00,55.268
740.00,55.216
741.00,55.312
742.00,55.149
743.00,55.107
744.00,55.035
745.00,55.043
746.00,54.956
747.00,54.905
748.00,54.870
749.00,54.774
750.00,54.747
751.00,54.729
752.00,54.616
753.00,54.592
754.00,54.464
755.00,54.521
756.00,54.433
757.00,54.386
758.00,54.418
759.00,54.327
760.00,54.349
761.00,54.200
762.00,54.178
763.00,54.190
764.00,54.081
765.00,54.037
766.00,53.943
767.00,54.054
768.00,54.016
769.00,53.938
770.00,53.877
771.00,53.854
772.00,53.815
773.00,53.759
774.00,53.822
775.00,53.691
776.00,53.676
777.00,53.702
778.00,53.603
779.00,53.647
780.00,53.515
781.00,53.514
782.00,53.457
783.00,53.362
784.00,53.404
785.00,53.289
786.00,53.395
787.00,53.201
788.00,53.266
789.00,53.142
790.00,53.152
791.00,53.174
792.00,53.007
793.00,53.016
794.00,53.001
795.00,52.987
796.00,52.915
797.00,52.783
798.00,52.841
799.00,52.676
800.00,52.688
801.00,52.775
802.00,52.684
803.00,52.580
804.00,52.563
805.00,52.615
806.00,52.508
807.00,52.377
808.00,52.444
809.00,52.482
810.00,52.262
811.00,52.325
812.00,52.352
813.00,52.269
814.00,52.291
815.00,52.246
816.00,52.211
817.00,52.220
818.00,52.123
819.00,52.047
820.00,52.094
821.00,52.005
822.00,51.953
823.00,51.958
824.00,51.938
825.00,51.791
826.00,51.819
827.00,51.930
828.00,51.929
829.00,51.794
830.00,51.899
831.00,54.131
832.00,54.076
833.00,54.009
834.00,53.995
835.00,53.960
836.00,53.942
837.00,53.887
838.00,53.864
839.00,53.821
840.00,53.768
841.00,53.814
842.00,53.732
843.00,53.712
844.00,53.698
845.00,53.653
846.00,53.647
847.00,53.580
848.00,53.556
849.00,53.482
850.00,53.451
851.00,53.366
852.00,53.353
853.00,53.315
854.00,53.298
855.00,53.218
856.00,53.202
857.00,53.147
858.00,53.146
859.00,53.113
860.00,53.111
861.00,53.130
862.00,53.018
863.00,53.020
864.00,52.983
865.00,53.034
866.00,52.736
867.00,52.958
868.00,52.953
869.00,52.885
870.00,52.902
871.00,52.888
872.00,52.863
873.00,52.841
874.00,52.821
875.00,52.781
876.00,52.781
877.00,52.753
878.00,52.751
879.00,52.703
880.00,52.663
881.00,52.648
882.00,52.662
883.00,52.583
884.00,52.575
885.00,52.534
886.00,52.525
887.00,52.486
888.00,52.454
889.00,52.438
890.00,52.439
891.00,52.386
892.00,52.360
893.00,52.331
894.00,52.323
895.00,52.290
896.00,52.273
897.00,52.240
898.00,52.209
899.00,52.228
900.00,52.207
901.00,52.155
902.00,52.178
903.00,52.132
904.00,52.106
905.00,52.063
906.00,52.077
907.00,52.028
908.00,52.019
909.00,52.002
910.00,51.949
911.00,51.921
912.00,51.944
913.00,51.900
914.00,51.874
915.00,51.850
916.00,51.815
917.00,51.796
918.00,51.798
919.00,51.730
920.00,51.705
921.00,51.703
922.00,51.727
923.00,51.670
924.00,51.627
925.00,51.620
926.00,51.633
927.00,51.602
928.00,51.542
929.00,51.559
930.00,51.514
931.00,51.490
932.00,51.452
933.00,51.474
934.00,51.446
935.00,51.442
936.00,51.383
937.00,51.384
938.00,51.359
939.00,51.346
940.00,51.306
941.00,51.302
942.00,51.254
943.00,51.262
944.00,51.193
945.00,51.229
946.00,51.211
947.00,51.167
948.00,51.155
949.00,51.130
950.00,51.099
951.00,51.079
952.00,51.042
953.00,51.003
954.00,50.994
955.00,50.960
956.00,50.944
957.00,50.964
958.00,50.905
959.00,50.860
960.00,50.869
961.00,50.836
962.00,50.856
963.00,50.794
964.00,50.793
965.00,50.796
966.00,50.757
967.00,50.751
968.00,50.735
969.00,50.750
970.00,50.713
971.00,50.725
972.00,50.720
973.00,50.738
974.00,50.737
975.00,50.678
976.00,50.716
977.00,50.702
978.00,50.756
979.00,50.694
980.00,50.702
981.00,50.712
982.00,50.685
983.00,50.693
984.00,50.676
985.00,50.696
986.00,50.649
987.00,50.687
988.00,50.710
989.00,50.635
990.00,50.634
991.00,50.595
992.00,50.626
993.00,50.607
994.00,50.569
995.00,50.564
996.00,50.559
997.00,50.535
998.00,50.512
999.00,50.526
1000.00,50.483
1001.00,50.502
1002.00,50.467
1003.00,50.464
1004.00,50.442
1005.00,50.400
1006.00,50.437
1007.00,50.403
1008.00,50.384
1009.00,50.373
1010.00,50.358
1011.00,50.346
1012.00,50.316
1013.00,50.317
1014.00,50.294
1015.00,50.325
1016.00,50.259
1017.00,50.282
1018.00,50.301
1019.00,50.207
1020.00,50.219
1021.00,50.187
1022.00,50.180
1023.00,50.140
1024.00,50.145
1025.00,50.120
1026.00,50.127
1027.00,50.085
1028.00,50.089
1029.00,50.074
1030.00,50.038
1031.00,50.054
1032.00,50.002
1033.00,49.994
1034.00,49.983
1035.00,49.933
1036.00,49.916
1037.00,49.908
1038.00,49.893
1039.00,49.867
1040.00,49.863
1041.00,49.828
1042.00,49.836
1043.00,49.814
1044.00,49.831
1045.00,49.832
1046.00,49.797
1047.00,49.816
1048.00,49.830
1049.00,49.830
1050.00,49.833
1051.00,49.876
1052.00,49.853
1053.00,49.865
1054.00,49.860
1055.00,49.890
1056.00,49.902
1057.00,49.892
1058.00,49.903
1059.00,49.900
1060.00,49.900
1061.00,49.887
1062.00,49.876
1063.00,49.881
1064.00,49.873
1065.00,49.865
1066.00,49.848
1067.00,49.846
1068.00,49.861
1069.00,49.819
1070.00,49.812
1071.00,49.791
1072.00,49.812
1073.00,49.792
1074.00,49.775
1075.00,49.769
1076.00,49.776
1077.00,49.751
1078.00,49.757
1079.00,49.764
1080.00,49.748
1081.00,49.743
1082.00,49.722
1083.00,49.724
1084.00,49.714
1085.00,49.700
1086.00,49.694
1087.00,49.707
1088.00,49.673
1089.00,49.679
1090.00,49.657
1091.00,49.667
1092.00,49.661
1093.00,49.642
1094.00,49.656
1095.00,49.628
1096.00,49.604
1097.00,49.609
1098.00,49.599
1099.00,49.600
1100.00,49.596
1101.00,49.575
1102.00,49.571
1103.00,49.582
1104.00,49.550
1105.00,49.550
1106.00,49.536
1107.00,49.525
1108.00,49.520
1109.00,49.515
1110.00,49.496
1111.00,49.495
1112.00,49.464
1113.00,49.479
1114.00,49.464
1115.00,49.449
1116.00,49.460
1117.00,49.451
1118.00,49.430
1119.00,49.458
1120.00,49.436
1121.00,49.434
1122.00,49.419
1123.00,49.412
1124.00,49.403
1125.00,49.390
1126.00,49.386
1127.00,49.395
1128.00,49.374
1129.00,49.357
1130.00,49.359
1131.00,49.367
1132.00,49.343
1133.00,49.349
1134.00,49.346
1135.00,49.326
1136.00,49.347
1137.00,49.338
1138.00,49.332
1139.00,49.342
1140.00,49.329
1141.00,49.314
1142.00,49.297
1143.00,49.308
1144.00,49.291
1145.00,49.294
1146.00,49.287
1147.00,49.283
1148.00,49.269
1149.00,49.286
1150.00,49.286
1151.00,49.276
1152.00,49.290
1153.00,49.283
1154.00,49.265
1155.00,49.292
1156.00,49.255
1157.00,49.267
1158.00,49.268
1159.00,49.254
1160.00,49.262
1161.00,49.277
1162.00,49.265
1163.00,49.269
1164.00,49.288
1165.00,49.285
1166.00,49.293
1167.00,49.261
1168.00,49.278
1169.00,49.273
1170.00,49.256
1171.00,49.248
1172.00,49.254
1173.00,49.243
1174.00,49.244
1175.00,49.249
1176.00,49.249
1177.00,49.256
1178.00,49.250
1179.00,49.271
1180.00,49.260
1181.00,49.267
1182.00,49.254
1183.00,49.260
1184.00,49.235
1185.00,49.268
1186.00,49.268
1187.00,49.247
1188.00,49.258
1189.00,49.239
1190.00,49.233
1191.00,49.236
1192.00,49.243
1193.00,49.236
1194.00,49.236
1195.00,49.219
1196.00,49.264
1197.00,49.264
1198.00,49.256
1199.00,49.243
1200.00,49.259
1201.00,49.285
1202.00,49.252
1203.00,49.244
1204.00,49.239
1205.00,49.254
1206.00,49.232
1207.00,49.251
1208.00,49.233
1209.00,49.229
1210.00,49.248
1211.00,49.249
1212.00,49.281
1213.00,49.277
1214.00,49.308
1215.00,49.269
1216.00,49.268
1217.00,49.255
1218.00,49.250
1219.00,49.265
1220.00,49.231
1221.00,49.273
1222.00,49.251
1223.00,49.285
1224.00,49.279
1225.00,49.246
1226.00,49.269
1227.00,49.262
1228.00,49.281
1229.00,49.277
1230.00,49.321
1231.00,49.302
1232.00,49.326
1233.00,49.315
1234.00,49.316
1235.00,49.323
1236.00,49.310
1237.00,49.332
1238.00,49.323
1239.00,49.337
1240.00,49.346
1241.00,49.352
1242.00,49.341
1243.00,49.351
1244.00,49.336
1245.00,49.380
1246.00,49.394
1247.00,49.374
1248.00,49.355
1249.00,49.377
1250.00,49.369
1251.00,49.371
1252.00,49.387
1253.00,49.369
1254.00,49.422
1255.00,49.392
1256.00,49.381
1257.00,49.385
1258.00,49.405
1259.00,49.435
1260.00,49.437
1261.00,49.427
1262.00,49.445
1263.00,49.428
1264.00,49.416
1265.00,49.432
1266.00,49.425
1267.00,49.443
1268.00,49.458
1269.00,49.462
1270.00,49.497
1271.00,49.500
1272.00,49.493
1273.00,49.512
1274.00,49.509
1275.00,49.507
1276.00,49.510
1277.00,49.506
1278.00,49.515
1279.00,49.527
1280.00,49.506
1281.00,49.523
1282.00,49.531
1283.00,49.523
1284.00,49.556
1285.00,49.548
1286.00,49.561
1287.00,49.587
1288.00,49.574
1289.00,49.570
1290.00,49.604
1291.00,49.601
1292.00,49.625
1293.00,49.611
1294.00,49.605
1295.00,49.612
1296.00,49.616
1297.00,49.612
1298.00,49.655
1299.00,49.624
1300.00,49.648
1301.00,49.651
1302.00,49.657
1303.00,49.667
1304.00,49.663
1305.00,49.678
1306.00,49.686
1307.00,49.691
1308.00,49.678
1309.00,49.694
1310.00,49.685
1311.00,49.685
1312.00,49.709
1313.00,49.712
1314.00,49.725
1315.00,49.735
1316.00,49.725
1317.00,49.769
1318.00,49.763
1319.00,49.755
1320.00,49.777
1321.00,49.963
1322.00,49.960
1323.00,49.957
1324.00,49.940
1325.00,49.944
1326.00,49.973
1327.00,49.939
1328.00,49.938
1329.00,49.932
1330.00,49.929
1331.00,49.961
1332.00,49.957
1333.00,49.974
1334.00,50.016
1335.00,50.032
1336.00,50.058
1337.00,50.088
1338.00,50.129
1339.00,50.187
1340.00,50.244
1341.00,50.313
1342.00,50.375
1343.00,50.425
1344.00,50.484
1345.00,50.523
1346.00,50.564
1347.00,50.576
1348.00,50.610
1349.00,50.652
1350.00,50.651
1351.00,50.670
1352.00,50.641
1353.00,50.758
1354.00,50.683
1355.00,50.615
1356.00,50.749
1357.00,50.699
1358.00,50.709
1359.00,50.745
1360.00,50.712
1361.00,50.790
1362.00,50.659
1363.00,50.788
1364.00,50.847
1365.00,50.768
1366.00,50.810
1367.00,50.765
1368.00,50.706
1369.00,50.787
1370.00,50.742
1371.00,50.702
1372.00,50.748
1373.00,50.747
1374.00,50.760
1375.00,50.752
1376.00,50.736
1377.00,50.766
1378.00,50.776
1379.00,50.742
1380.00,50.749
1381.00,50.774
1382.00,50.726
1383.00,50.767
1384.00,50.708
1385.00,50.675
1386.00,50.777
1387.00,50.755
1388.00,50.697
1389.00,50.654
1390.00,50.734
1391.00,50.761
1392.00,50.759
1393.00,50.813
1394.00,50.754
1395.00,50.785
1396.00,50.644
1397.00,50.785
1398.00,50.204
1399.00,50.745
1400.00,50.690
1401.00,50.692
1402.00,50.760
1403.00,50.737
1404.00,50.717
1405.00,50.782
1406.00,50.794
1407.00,50.813
1408.00,50.751
1409.00,50.799
1410.00,50.818
1411.00,50.873
1412.00,50.972
1413.00,51.191
1414.00,50.875
1415.00,50.862
1416.00,50.881
1417.00,50.897
1418.00,50.869
1419.00,50.915
1420.00,50.900
1421.00,50.932
1422.00,50.972
1423.00,50.970
1424.00,50.964
1425.00,51.029
1426.00,50.946
1427.00,51.029
1428.00,51.023
1429.00,51.030
1430.00,51.071
1431.00,51.085
1432.00,51.096
1433.00,51.132
1434.00,51.114
1435.00,51.170
1436.00,51.176
1437.00,51.165
1438.00,51.208
1439.00,51.223
1440.00,51.227
1441.00,51.254
1442.00,51.280
1443.00,51.308
1444.00,51.324
1445.00,51.319
1446.00,51.367
1447.00,51.382
1448.00,51.403
1449.00,51.389
1450.00,51.425
1451.00,51.416
1452.00,51.455
1453.00,51.432
1454.00,51.479
1455.00,51.514
1456.00,51.508
1457.00,51.534
1458.00,51.589
1459.00,51.577
1460.00,51.605
1461.00,51.594
1462.00,51.626
1463.00,51.637
1464.00,51.628
1465.00,51.653
1466.00,51.667
1467.00,51.667
1468.00,51.740
1469.00,51.718
1470.00,51.735
1471.00,51.778
1472.00,51.772
1473.00,51.810
1474.00,51.841
1475.00,51.836
1476.00,51.860
1477.00,51.847
1478.00,51.863
1479.00,51.883
1480.00,51.897
1481.00,51.897
1482.00,51.926
1483.00,51.928
1484.00,51.939
1485.00,51.954
1486.00,51.963
1487.00,52.005
1488.00,52.048
1489.00,52.013
1490.00,52.044
1491.00,52.054
1492.00,52.062
1493.00,52.057
1494.00,52.103
1495.00,52.083
1496.00,52.127
1497.00,52.094
1498.00,52.119
1499.00,52.151
1500.00,52.151
1501.00, 
1502.00, 
1503.00, 
1504.00, 
1505.00, 
1506.00, 
1507.00, 
1508.00, 
1509.00, 
1510.00, 
1511.00, 
1512.00, 
1513.00, 
1514.00, 
1515.00, 
1516.00, 
1517.00, 
1518.00, 
1519.00, 
1520.00, 
1521.00, 
1522.00, 
1523.00, 
1524.00, 
1525.00, 
1526.00, 
1527.00, 
1528.00, 
1529.00, 
1530.00, 
1531.00, 
1532.00, 
1533.00, 
1534.00, 
1535.00, 
1536.00, 
1537.00, 
1538.00, 
1539.00, 
1540.00, 
1541.00, 
1542.00, 
1543.00, 
1544.00, 
1545.00, 
1546.00, 
1547.00, 
1548.00, 
1549.00, 
1550.00, 
1551.00, 
1552.00, 
1553.00, 
1554.00, 
1555.00, 
1556.00, 
1557.00, 
1558.00, 
1559.00, 
1560.00, 
1561.00, 
1562.00, 
1563.00, 
1564.00, 
1565.00, 
1566.00, 
1567.00, 
1568.00, 
1569.00, 
1570.00, 
1571.00, 
1572.00, 
1573.00, 
1574.00, 
1575.00, 
1576.00, 
1577.00, 
1578.00, 
1579.00, 
1580.00, 
1581.00, 
1582.00, 
1583.00, 
1584.00, 
1585.00, 
1586.00, 
1587.00, 
1588.00, 
1589.00, 
1590.00, 
1591.00, 
1592.00, 
1593.00, 
1594.00, 
1595.00, 
1596.00, 
1597.00, 
1598.00, 
1599.00, 
1600.00, 
1601.00, 
1602.00, 
1603.00, 
1604.00, 
1605.00, 
1606.00, 
1607.00, 
1608.00, 
1609.00, 
1610.00, 
1611.00, 
1612.00, 
1613.00, 
1614.00, 
1615.00, 
1616.00, 
1617.00, 
1618.00, 
1619.00, 
1620.00, 
1621.00, 
1622.00, 
1623.00, 
1624.00, 
1625.00, 
1626.00, 
1627.00, 
1628.00, 
1629.00, 
1630.00, 
1631.00, 
1632.00, 
1633.00, 
1634.00, 
1635.00, 
1636.00, 
1637.00, 
1638.00, 
1639.00, 
1640.00, 
1641.00, 
1642.00, 
1643.00, 
1644.00, 
1645.00, 
1646.00, 
1647.00, 
1648.00, 
1649.00, 
1650.00, 
1651.00, 
1652.00, 
1653.00, 
1654.00, 
1655.00, 
1656.00, 
1657.00, 
1658.00, 
1659.00, 
1660.00, 
1661.00, 
1662.00, 
1663.00, 
1664.00, 
1665.00, 
1666.00, 
1667.00, 
1668.00, 
1669.00, 
1670.00, 
1671.00, 
1672.00, 
1673.00, 
1674.00, 
1675.00, 
1676.00, 
1677.00, 
1678.00, 
1679.00, 
1680.00, 
1681.00, 
1682.00, 
1683.00, 
1684.00, 
1685.00, 
1686.00, 
1687.00, 
1688.00, 
1689.00, 
1690.00, 
1691.00, 
1692.00, 
1693.00, 
1694.00, 
1695.00, 
1696.00, 
1697.00, 
1698.00, 
1699.00, 
1700.00, 
1701.00, 
1702.00, 
1703.00, 
1704.00, 
1705.00, 
1706.00, 
1707.00, 
1708.00, 
1709.00, 
1710.00, 
1711.00, 
1712.00, 
1713.00, 
1714.00, 
1715.00, 
1716.00, 
1717.00, 
1718.00, 
1719.00, 
1720.00, 
1721.00, 
1722.00, 
1723.00, 
1724.00, 
1725.00, 
1726.00, 
1727.00, 
1728.00, 
1729.00, 
1730.00, 
1731.00, 
1732.00, 
1733.00, 
1734.00, 
1735.00, 
1736.00, 
1737.00, 
1738.00, 
1739.00, 
1740.00, 
1741.00, 
1742.00, 
1743.00, 
1744.00, 
1745.00, 
1746.00, 
1747.00, 
1748.00, 
1749.00, 
1750.00, 
1751.00, 
1752.00, 
1753.00, 
1754.00, 
1755.00, 
1756.00, 
1757.00, 
1758.00, 
1759.00, 
1760.00, 
1761.00, 
1762.00, 
1763.00, 
1764.00, 
1765.00, 
1766.00, 
1767.00, 
1768.00, 
1769.00, 
1770.00, 
1771.00, 
1772.00, 
1773.00, 
1774.00, 
1775.00, 
1776.00, 
1777.00, 
1778.00, 
1779.00, 
1780.00, 
1781.00, 
1782.00, 
1783.00, 
1784.00, 
1785.00, 
1786.00, 
1787.00, 
1788.00, 
1789.00, 
1790.00, 
1791.00, 
1792.00, 
1793.00, 
1794.00, 
1795.00, 
1796.00, 
1797.00, 
1798.00, 
1799.00, 
1800.00, 
1801.00, 
1802.00, 
1803.00, 
1804.00, 
1805.00, 
1806.00, 
1807.00, 
1808.00, 
1809.00, 
1810.00, 
1811.00, 
1812.00, 
1813.00, 
1814.00, 
1815.00, 
1816.00, 
1817.00, 
1818.00, 
1819.00, 
1820.00, 
1821.00, 
1822.00, 
1823.00, 
1824.00, 
1825.00, 
1826.00, 
1827.00, 
1828.00, 
1829.00, 
1830.00, 
1831.00, 
1832.00, 
1833.00, 
1834.00, 
1835.00, 
1836.00, 
1837.00, 
1838.00, 
1839.00, 
1840.00, 
1841.00, 
1842.00, 
1843.00, 
1844.00, 
1845.00, 
1846.00, 
1847.00, 
1848.00, 
1849.00, 
1850.00, 
1851.00, 
1852.00, 
1853.00, 
1854.00, 
1855.00, 
1856.00, 
1857.00, 
1858.00, 
1859.00, 
1860.00, 
1861.00, 
1862.00, 
1863.00, 
1864.00, 
1865.00, 
1866.00, 
1867.00, 
1868.00, 
1869.00, 
1870.00, 
1871.00, 
1872.00, 
1873.00, 
1874.00, 
1875.00, 
1876.00, 
1877.00, 
1878.00, 
1879.00, 
1880.00, 
1881.00, 
1882.00, 
1883.00, 
1884.00, 
1885.00, 
1886.00, 
1887.00, 
1888.00, 
1889.00, 
1890.00, 
1891.00, 
1892.00, 
1893.00, 
1894.00, 
1895.00, 
1896.00, 
1897.00, 
1898.00, 
1899.00, 
1900.00, 
1901.00, 
1902.00, 
1903.00, 
1904.00, 
1905.00, 
1906.00, 
1907.00, 
1908.00, 
1909.00, 
1910.00, 
1911.00, 
1912.00, 
1913.00, 
1914.00, 
1915.00, 
1916.00, 
1917.00, 
1918.00, 
1919.00, 
1920.00, 
1921.00, 
1922.00, 
1923.00, 
1924.00, 
1925.00, 
1926.00, 
1927.00, 
1928.00, 
1929.00, 
1930.00, 
1931.00, 
1932.00, 
1933.00, 
1934.00, 
1935.00, 
1936.00, 
1937.00, 
1938.00, 
1939.00, 
1940.00, 
1941.00, 
1942.00, 
1943.00, 
1944.00, 
1945.00, 
1946.00, 
1947.00, 
1948.00, 
1949.00, 
1950.00, 
1951.00, 
1952.00, 
1953.00, 
1954.00, 
1955.00, 
1956.00, 
1957.00, 
1958.00, 
1959.00, 
1960.00, 
1961.00, 
1962.00, 
1963.00, 
1964.00, 
1965.00, 
1966.00, 
1967.00, 
1968.00, 
1969.00, 
1970.00, 
1971.00, 
1972.00, 
1973.00, 
1974.00, 
1975.00, 
1976.00, 
1977.00, 
1978.00, 
1979.00, 
1980.00, 
1981.00, 
1982.00, 
1983.00, 
1984.00, 
1985.00, 
1986.00, 
1987.00, 
1988.00, 
1989.00, 
1990.00, 
1991.00, 
1992.00, 
1993.00, 
1994.00, 
1995.00, 
1996.00, 
1997.00, 
1998.00, 
1999.00, 
2000.00, 
2001.00, 
2002.00, 
2003.00, 
2004.00, 
2005.00, 
2006.00, 
2007.00, 
2008.00, 
2009.00, 
2010.00, 
2011.00, 
2012.00, 
2013.00, 
2014.00, 
2015.00, 
2016.00, 
2017.00, 
2018.00, 
2019.00, 
2020.00, 
2021.00, 
2022.00, 
2023.00, 
2024.00, 
2025.00, 
2026.00, 
2027.00, 
2028.00, 
2029.00, 
2030.00, 
2031.00, 
2032.00, 
2033.00, 
2034.00, 
2035.00, 
2036.00, 
2037.00, 
2038.00, 
2039.00, 
2040.00, 
2041.00, 
2042.00, 
2043.00, 
2044.00, 
2045.00, 
2046.00, 
2047.00, 
2048.00, 
2049.00, 
2050.00, 
2051.00, 
2052.00, 
2053.00, 
2054.00, 
2055.00, 
2056.00, 
2057.00, 
2058.00, 
2059.00, 
2060.00, 
2061.00, 
2062.00, 
2063.00, 
2064.00, 
2065.00, 
2066.00, 
2067.00, 
2068.00, 
2069.00, 
2070.00, 
2071.00, 
2072.00, 
2073.00, 
2074.00, 
2075.00, 
2076.00, 
2077.00, 
2078.00, 
2079.00, 
2080.00, 
2081.00, 
2082.00, 
2083.00, 
2084.00, 
2085.00, 
2086.00, 
2087.00, 
2088.00, 
2089.00, 
2090.00, 
2091.00, 
2092.00, 
2093.00, 
2094.00, 
2095.00, 
2096.00, 
2097.00, 
2098.00, 
2099.00, 
2100.00, 
2101.00, 
2102.00, 
2103.00, 
2104.00, 
2105.00, 
2106.00, 
2107.00, 
2108.00, 
2109.00, 
2110.00, 
2111.00, 
2112.00, 
2113.00, 
2114.00, 
2115.00, 
2116.00, 
2117.00, 
2118.00, 
2119.00, 
2120.00, 
2121.00, 
2122.00, 
2123.00, 
2124.00, 
2125.00, 
2126.00, 
2127.00, 
2128.00, 
2129.00, 
2130.00, 
2131.00, 
2132.00, 
2133.00, 
2134.00, 
2135.00, 
2136.00, 
2137.00, 
2138.00, 
2139.00, 
2140.00, 
2141.00, 
2142.00, 
2143.00, 
2144.00, 
2145.00, 
2146.00, 
2147.00, 
2148.00, 
2149.00, 
2150.00, 
2151.00, 
2152.00, 
2153.00, 
2154.00, 
2155.00, 
2156.00, 
2157.00, 
2158.00, 
2159.00, 
2160.00, 
2161.00, 
2162.00, 
2163.00, 
2164.00, 
2165.00, 
2166.00, 
2167.00, 
2168.00, 
2169.00, 
2170.00, 
2171.00, 
2172.00, 
2173.00, 
2174.00, 
2175.00, 
2176.00, 
2177.00, 
2178.00, 
2179.00, 
2180.00, 
2181.00, 
2182.00, 
2183.00, 
2184.00, 
2185.00, 
2186.00, 
2187.00, 
2188.00, 
2189.00, 
2190.00, 
2191.00, 
2192.00, 
2193.00, 
2194.00, 
2195.00, 
2196.00, 
2197.00, 
2198.00, 
2199.00, 
2200.00, 
2201.00, 
2202.00, 
2203.00, 
2204.00, 
2205.00, 
2206.00, 
2207.00, 
2208.00, 
2209.00, 
2210.00, 
2211.00, 
2212.00, 
2213.00, 
2214.00, 
2215.00, 
2216.00, 
2217.00, 
2218.00, 
2219.00, 
2220.00, 
2221.00, 
2222.00, 
2223.00, 
2224.00, 
2225.00, 
2226.00, 
2227.00, 
2228.00, 
2229.00, 
2230.00, 
2231.00, 
2232.00, 
2233.00, 
2234.00, 
2235.00, 
2236.00, 
2237.00, 
2238.00, 
2239.00, 
2240.00, 
2241.00, 
2242.00, 
2243.00, 
2244.00, 
2245.00, 
2246.00, 
2247.00, 
2248.00, 
2249.00, 
2250.00, 
2251.00, 
2252.00, 
2253.00, 
2254.00, 
2255.00, 
2256.00, 
2257.00, 
2258.00, 
2259.00, 
2260.00, 
2261.00, 
2262.00, 
2263.00, 
2264.00, 
2265.00, 
2266.00, 
2267.00, 
2268.00, 
2269.00, 
2270.00, 
2271.00, 
2272.00, 
2273.00, 
2274.00, 
2275.00, 
2276.00, 
2277.00, 
2278.00, 
2279.00, 
2280.00, 
2281.00, 
2282.00, 
2283.00, 
2284.00, 
2285.00, 
2286.00, 
2287.00, 
2288.00, 
2289.00, 
2290.00, 
2291.00, 
2292.00, 
2293.00, 
2294.00, 
2295.00, 
2296.00, 
2297.00, 
2298.00, 
2299.00, 
2300.00, 
2301.00, 
2302.00, 
2303.00, 
2304.00, 
2305.00, 
2306.00, 
2307.00, 
2308.00, 
2309.00, 
2310.00, 
2311.00, 
2312.00, 
2313.00, 
2314.00, 
2315.00, 
2316.00, 
2317.00, 
2318.00, 
2319.00, 
2320.00, 
2321.00, 
2322.00, 
2323.00, 
2324.00, 
2325.00, 
2326.00, 
2327.00, 
2328.00, 
2329.00, 
2330.00, 
2331.00, 
2332.00, 
2333.00, 
2334.00, 
2335.00, 
2336.00, 
2337.00, 
2338.00, 
2339.00, 
2340.00, 
2341.00, 
2342.00, 
2343.00, 
2344.00, 
2345.00, 
2346.00, 
2347.00, 
2348.00, 
2349.00, 
2350.00, 
2351.00, 
2352.00, 
2353.00, 
2354.00, 
2355.00, 
2356.00, 
2357.00, 
2358.00, 
2359.00, 
2360.00, 
2361.00, 
2362.00, 
2363.00, 
2364.00, 
2365.00, 
2366.00, 
2367.00, 
2368.00, 
2369.00, 
2370.00, 
2371.00, 
2372.00, 
2373.00, 
2374.00, 
2375.00, 
2376.00, 
2377.00, 
2378.00, 
2379.00, 
2380.00, 
2381.00, 
2382.00, 
2383.00, 
2384.00, 
2385.00, 
2386.00, 
2387.00, 
2388.00, 
2389.00, 
2390.00, 
2391.00, 
2392.00, 
2393.00, 
2394.00, 
2395.00, 
2396.00, 
2397.00, 
2398.00, 
2399.00, 
2400.00, 
2401.00, 
2402.00, 
2403.00, 
2404.00, 
2405.00, 
2406.00, 
2407.00, 
2408.00, 
2409.00, 
2410.00, 
2411.00, 
2412.00, 
2413.00, 
2414.00, 
2415.00, 
2416.00, 
2417.00, 
2418.00, 
2419.00, 
2420.00, 
2421.00, 
2422.00, 
2423.00, 
2424.00, 
2425.00, 
2426.00, 
2427.00, 
2428.00, 
2429.00, 
2430.00, 
2431.00, 
2432.00, 
2433.00, 
2434.00, 
2435.00, 
2436.00, 
2437.00, 
2438.00, 
2439.00, 
2440.00, 
2441.00, 
2442.00, 
2443.00, 
2444.00, 
2445.00, 
2446.00, 
2447.00, 
2448.00, 
2449.00, 
2450.00, 
2451.00, 
2452.00, 
2453.00, 
2454.00, 
2455.00, 
2456.00, 
2457.00, 
2458.00, 
2459.00, 
2460.00, 
2461.00, 
2462.00, 
2463.00, 
2464.00, 
2465.00, 
2466.00, 
2467.00, 
2468.00, 
2469.00, 
2470.00, 
2471.00, 
2472.00, 
2473.00, 
2474.00, 
2475.00, 
2476.00, 
2477.00, 
2478.00, 
2479.00, 
2480.00, 
2481.00, 
2482.00, 
2483.00, 
2484.00, 
2485.00, 
2486.00, 
2487.00, 
2488.00, 
2489.00, 
2490.00, 
2491.00, 
2492.00, 
2493.00, 
2494.00, 
2495.00, 
2496.00, 
2497.00, 
2498.00, 
2499.00, 
2500.00, 
2501.00, 
2502.00, 
2503.00, 
2504.00, 
2505.00, 
2506.00, 
2507.00, 
2508.00, 
2509.00, 
2510.00, 
2511.00, 
2512.00, 
2513.00, 
2514.00, 
2515.00, 
2516.00, 
2517.00, 
2518.00, 
2519.00, 
2520.00, 
2521.00, 
2522.00, 
2523.00, 
2524.00, 
2525.00, 
2526.00, 
2527.00, 
2528.00, 
2529.00, 
2530.00, 
2531.00, 
2532.00, 
2533.00, 
2534.00, 
2535.00, 
2536.00, 
2537.00, 
2538.00, 
2539.00, 
2540.00, 
2541.00, 
2542.00, 
2543.00, 
2544.00, 
2545.00, 
2546.00, 
2547.00, 
2548.00, 
2549.00, 
2550.00, 
2551.00, 
2552.00, 
2553.00, 
2554.00, 
2555.00, 
2556.00, 
2557.00, 
2558.00, 
2559.00, 
2560.00, 
2561.00, 
2562.00, 
2563.00, 
2564.00, 
2565.00, 
2566.00, 
2567.00, 
2568.00, 
2569.00, 
2570.00, 
2571.00, 
2572.00, 
2573.00, 
2574.00, 
2575.00, 
2576.00, 
2577.00, 
2578.00, 
2579.00, 
2580.00, 
2581.00, 
2582.00, 
2583.00, 
2584.00, 
2585.00, 
2586.00, 
2587.00, 
2588.00, 
2589.00, 
2590.00, 
2591.00, 
2592.00, 
2593.00, 
2594.00, 
2595.00, 
2596.00, 
2597.00, 
2598.00, 
2599.00, 
2600.00, 
