"1cP3 - RawData"
"Wavelength nm.","T%"
200.00,-0.003
201.00,-0.001
202.00,0.003
203.00,0.003
204.00,-0.001
205.00,0.004
206.00,-0.002
207.00,0.004
208.00,0.001
209.00,-0.002
210.00,-0.000
211.00,0.006
212.00,0.001
213.00,-0.002
214.00,0.001
215.00,0.001
216.00,-0.001
217.00,0.002
218.00,-0.000
219.00,0.001
220.00,0.001
221.00,0.002
222.00,0.002
223.00,0.004
224.00,0.001
225.00,-0.000
226.00,0.001
227.00,0.001
228.00,-0.000
229.00,0.000
230.00,-0.001
231.00,0.000
232.00,0.001
233.00,0.002
234.00,-0.000
235.00,0.002
236.00,0.002
237.00,-0.001
238.00,0.001
239.00,0.000
240.00,0.002
241.00,0.001
242.00,0.000
243.00,0.001
244.00,0.001
245.00,-0.001
246.00,0.001
247.00,0.001
248.00,0.000
249.00,-0.000
250.00,0.001
251.00,0.000
252.00,-0.001
253.00,-0.001
254.00,0.001
255.00,0.001
256.00,-0.002
257.00,0.000
258.00,0.000
259.00,-0.001
260.00,0.000
261.00,0.000
262.00,0.003
263.00,-0.002
264.00,-0.001
265.00,-0.001
266.00,0.001
267.00,-0.000
268.00,-0.001
269.00,0.001
270.00,-0.000
271.00,0.001
272.00,-0.001
273.00,0.001
274.00,0.002
275.00,-0.001
276.00,0.001
277.00,-0.002
278.00,-0.001
279.00,-0.001
280.00,0.000
281.00,0.001
282.00,0.002
283.00,0.001
284.00,0.001
285.00,0.000
286.00,-0.002
287.00,-0.001
288.00,0.000
289.00,0.002
290.00,0.000
291.00,-0.000
292.00,-0.001
293.00,0.001
294.00,0.001
295.00,-0.000
296.00,-0.000
297.00,-0.000
298.00,-0.000
299.00,-0.001
300.00,0.000
301.00,0.001
302.00,0.002
303.00,-0.001
304.00,0.004
305.00,-0.000
306.00,0.002
307.00,0.004
308.00,0.009
309.00,0.013
310.00,0.023
311.00,0.038
312.00,0.050
313.00,0.076
314.00,0.116
315.00,0.174
316.00,0.248
317.00,0.360
318.00,0.488
319.00,0.657
320.00,0.875
321.00,1.140
322.00,1.454
323.00,1.836
324.00,2.273
325.00,2.753
326.00,3.265
327.00,3.869
328.00,4.544
329.00,5.253
330.00,6.034
331.00,6.831
332.00,7.670
333.00,8.622
334.00,9.517
335.00,10.466
336.00,11.416
337.00,12.388
338.00,13.410
339.00,14.326
340.00,15.301
341.00,16.284
342.00,17.160
343.00,18.007
344.00,18.867
345.00,19.813
346.00,20.548
347.00,21.276
348.00,22.007
349.00,22.713
350.00,23.359
351.00,23.915
352.00,24.485
353.00,25.089
354.00,25.549
355.00,26.112
356.00,26.514
357.00,26.904
358.00,27.349
359.00,27.765
360.00,28.154
361.00,28.471
362.00,28.789
363.00,29.072
364.00,29.238
365.00,29.434
366.00,29.680
367.00,29.814
368.00,29.909
369.00,30.062
370.00,30.175
371.00,30.267
372.00,30.265
373.00,30.289
374.00,30.317
375.00,30.316
376.00,30.243
377.00,30.159
378.00,30.008
379.00,30.026
380.00,29.877
381.00,29.996
382.00,30.013
383.00,30.092
384.00,30.228
385.00,30.345
386.00,30.434
387.00,30.550
388.00,30.714
389.00,30.795
390.00,30.891
391.00,31.035
392.00,31.076
393.00,31.079
394.00,31.247
395.00,31.235
396.00,31.302
397.00,31.385
398.00,31.398
399.00,31.392
400.00,31.435
401.00,31.438
402.00,31.474
403.00,31.445
404.00,31.469
405.00,31.466
406.00,31.468
407.00,31.377
408.00,31.418
409.00,31.327
410.00,31.284
411.00,31.345
412.00,31.273
413.00,31.238
414.00,31.224
415.00,31.277
416.00,31.328
417.00,31.247
418.00,31.266
419.00,31.402
420.00,31.465
421.00,31.401
422.00,31.460
423.00,31.438
424.00,31.557
425.00,31.540
426.00,31.541
427.00,31.601
428.00,31.673
429.00,31.684
430.00,31.761
431.00,31.873
432.00,31.803
433.00,31.833
434.00,31.880
435.00,31.969
436.00,31.996
437.00,32.013
438.00,32.075
439.00,32.163
440.00,32.204
441.00,32.287
442.00,32.363
443.00,32.428
444.00,32.526
445.00,32.583
446.00,32.646
447.00,32.811
448.00,32.866
449.00,32.927
450.00,33.003
451.00,33.089
452.00,33.168
453.00,33.301
454.00,33.359
455.00,33.445
456.00,33.554
457.00,33.677
458.00,33.740
459.00,33.864
460.00,34.017
461.00,34.068
462.00,34.194
463.00,34.304
464.00,34.432
465.00,34.521
466.00,34.613
467.00,34.722
468.00,34.857
469.00,34.940
470.00,34.942
471.00,35.005
472.00,35.140
473.00,35.155
474.00,35.277
475.00,35.389
476.00,35.420
477.00,35.540
478.00,35.629
479.00,35.776
480.00,35.886
481.00,35.963
482.00,36.128
483.00,36.272
484.00,36.404
485.00,36.497
486.00,36.704
487.00,36.766
488.00,36.889
489.00,37.018
490.00,37.191
491.00,37.292
492.00,37.523
493.00,37.612
494.00,37.564
495.00,37.672
496.00,37.804
497.00,37.924
498.00,38.011
499.00,38.144
500.00,38.285
501.00,38.354
502.00,38.469
503.00,38.587
504.00,38.592
505.00,38.705
506.00,38.785
507.00,38.881
508.00,38.951
509.00,39.134
510.00,39.234
511.00,39.306
512.00,39.470
513.00,39.581
514.00,39.695
515.00,39.831
516.00,39.881
517.00,39.900
518.00,40.018
519.00,40.097
520.00,40.175
521.00,40.249
522.00,40.331
523.00,40.329
524.00,40.406
525.00,40.501
526.00,40.608
527.00,40.645
528.00,40.705
529.00,40.896
530.00,41.040
531.00,41.152
532.00,41.245
533.00,41.287
534.00,41.440
535.00,41.500
536.00,41.554
537.00,41.619
538.00,41.681
539.00,41.653
540.00,41.754
541.00,41.854
542.00,41.887
543.00,41.916
544.00,42.014
545.00,42.095
546.00,42.097
547.00,42.313
548.00,42.381
549.00,42.387
550.00,42.432
551.00,42.579
552.00,42.596
553.00,42.606
554.00,42.699
555.00,42.728
556.00,42.855
557.00,42.928
558.00,42.932
559.00,42.990
560.00,43.082
561.00,43.155
562.00,43.186
563.00,43.373
564.00,43.251
565.00,43.244
566.00,43.303
567.00,43.277
568.00,43.366
569.00,43.452
570.00,43.484
571.00,43.602
572.00,43.558
573.00,43.488
574.00,43.542
575.00,43.529
576.00,43.573
577.00,43.580
578.00,43.718
579.00,43.751
580.00,43.778
581.00,44.017
582.00,43.977
583.00,43.942
584.00,44.075
585.00,44.163
586.00,44.262
587.00,44.216
588.00,44.190
589.00,44.214
590.00,44.373
591.00,44.358
592.00,44.271
593.00,44.328
594.00,44.356
595.00,44.543
596.00,44.578
597.00,44.495
598.00,44.555
599.00,44.774
600.00,44.860
601.00,44.788
602.00,44.763
603.00,44.776
604.00,44.857
605.00,44.925
606.00,44.906
607.00,44.944
608.00,45.101
609.00,45.164
610.00,44.988
611.00,45.082
612.00,45.097
613.00,45.162
614.00,45.205
615.00,45.231
616.00,45.341
617.00,45.305
618.00,45.258
619.00,45.318
620.00,45.332
621.00,45.332
622.00,45.475
623.00,45.523
624.00,45.447
625.00,45.494
626.00,45.659
627.00,45.722
628.00,45.718
629.00,45.728
630.00,45.754
631.00,45.792
632.00,45.870
633.00,46.001
634.00,46.046
635.00,46.122
636.00,46.126
637.00,46.089
638.00,46.098
639.00,46.267
640.00,46.237
641.00,46.251
642.00,46.380
643.00,46.371
644.00,46.361
645.00,46.498
646.00,46.605
647.00,46.634
648.00,46.661
649.00,46.584
650.00,46.599
651.00,46.718
652.00,46.780
653.00,46.707
654.00,46.724
655.00,46.952
656.00,47.221
657.00,47.123
658.00,47.126
659.00,47.085
660.00,47.001
661.00,47.058
662.00,47.292
663.00,47.217
664.00,47.502
665.00,47.644
666.00,47.485
667.00,47.534
668.00,47.602
669.00,47.759
670.00,47.988
671.00,47.725
672.00,47.851
673.00,47.872
674.00,47.940
675.00,47.964
676.00,48.049
677.00,48.297
678.00,47.993
679.00,48.108
680.00,48.282
681.00,48.425
682.00,48.394
683.00,48.233
684.00,48.397
685.00,48.454
686.00,48.283
687.00,48.497
688.00,48.513
689.00,48.514
690.00,48.753
691.00,48.982
692.00,48.573
693.00,48.586
694.00,48.793
695.00,48.851
696.00,48.796
697.00,48.869
698.00,48.988
699.00,49.038
700.00,49.096
701.00,49.061
702.00,49.040
703.00,49.211
704.00,49.232
705.00,49.178
706.00,48.987
707.00,49.372
708.00,49.432
709.00,49.576
710.00,49.993
711.00,49.354
712.00,49.363
713.00,49.534
714.00,49.608
715.00,49.495
716.00,49.451
717.00,49.751
718.00,49.764
719.00,49.661
720.00,49.712
721.00,54.392
722.00,54.341
723.00,54.339
724.00,54.336
725.00,54.286
726.00,54.302
727.00,54.264
728.00,54.281
729.00,54.257
730.00,54.237
731.00,54.203
732.00,54.174
733.00,54.264
734.00,54.228
735.00,54.215
736.00,54.164
737.00,54.167
738.00,54.244
739.00,54.190
740.00,54.214
741.00,54.255
742.00,54.129
743.00,54.122
744.00,54.100
745.00,54.116
746.00,54.132
747.00,54.024
748.00,54.060
749.00,53.969
750.00,54.005
751.00,54.032
752.00,53.942
753.00,53.886
754.00,53.875
755.00,53.860
756.00,53.895
757.00,53.852
758.00,53.863
759.00,53.778
760.00,53.815
761.00,53.870
762.00,53.749
763.00,53.805
764.00,53.761
765.00,53.738
766.00,53.714
767.00,53.775
768.00,53.763
769.00,53.719
770.00,53.685
771.00,53.745
772.00,53.695
773.00,53.664
774.00,53.679
775.00,53.598
776.00,53.624
777.00,53.635
778.00,53.552
779.00,53.636
780.00,53.534
781.00,53.494
782.00,53.498
783.00,53.490
784.00,53.527
785.00,53.391
786.00,53.529
787.00,53.411
788.00,53.395
789.00,53.298
790.00,53.289
791.00,53.391
792.00,53.243
793.00,53.249
794.00,53.261
795.00,53.213
796.00,53.182
797.00,53.110
798.00,53.142
799.00,53.062
800.00,53.040
801.00,53.078
802.00,53.067
803.00,52.977
804.00,52.999
805.00,53.025
806.00,52.913
807.00,52.890
808.00,52.932
809.00,52.866
810.00,52.785
811.00,52.816
812.00,52.803
813.00,52.767
814.00,52.710
815.00,52.770
816.00,52.807
817.00,52.748
818.00,52.633
819.00,52.563
820.00,52.620
821.00,52.612
822.00,52.495
823.00,52.546
824.00,52.558
825.00,52.458
826.00,52.488
827.00,52.606
828.00,52.525
829.00,52.419
830.00,52.472
831.00,54.769
832.00,54.739
833.00,54.712
834.00,54.708
835.00,54.663
836.00,54.673
837.00,54.618
838.00,54.558
839.00,54.582
840.00,54.504
841.00,54.557
842.00,54.512
843.00,54.486
844.00,54.436
845.00,54.420
846.00,54.408
847.00,54.345
848.00,54.326
849.00,54.276
850.00,54.266
851.00,54.159
852.00,54.162
853.00,54.155
854.00,54.170
855.00,54.057
856.00,54.060
857.00,54.065
858.00,53.980
859.00,53.960
860.00,53.985
861.00,53.982
862.00,53.866
863.00,53.902
864.00,53.855
865.00,53.921
866.00,53.608
867.00,53.831
868.00,53.831
869.00,53.806
870.00,53.833
871.00,53.760
872.00,53.728
873.00,53.827
874.00,53.729
875.00,53.680
876.00,53.697
877.00,53.688
878.00,53.694
879.00,53.653
880.00,53.618
881.00,53.583
882.00,53.652
883.00,53.541
884.00,53.525
885.00,53.517
886.00,53.503
887.00,53.454
888.00,53.401
889.00,53.409
890.00,53.388
891.00,53.352
892.00,53.326
893.00,53.312
894.00,53.325
895.00,53.266
896.00,53.263
897.00,53.240
898.00,53.202
899.00,53.207
900.00,53.176
901.00,53.263
902.00,53.171
903.00,53.147
904.00,53.111
905.00,53.122
906.00,53.100
907.00,53.073
908.00,53.026
909.00,53.006
910.00,52.982
911.00,52.948
912.00,52.940
913.00,52.937
914.00,52.937
915.00,52.904
916.00,52.868
917.00,52.850
918.00,52.838
919.00,52.800
920.00,52.769
921.00,52.762
922.00,52.758
923.00,52.726
924.00,52.672
925.00,52.692
926.00,52.704
927.00,52.664
928.00,52.609
929.00,52.623
930.00,52.584
931.00,52.548
932.00,52.505
933.00,52.523
934.00,52.497
935.00,52.480
936.00,52.433
937.00,52.443
938.00,52.403
939.00,52.398
940.00,52.374
941.00,52.348
942.00,52.278
943.00,52.320
944.00,52.283
945.00,52.304
946.00,52.278
947.00,52.224
948.00,52.206
949.00,52.186
950.00,52.173
951.00,52.149
952.00,52.130
953.00,52.084
954.00,52.068
955.00,52.035
956.00,52.013
957.00,51.944
958.00,51.965
959.00,51.911
960.00,51.912
961.00,51.898
962.00,51.886
963.00,51.845
964.00,51.847
965.00,51.856
966.00,51.829
967.00,51.825
968.00,51.809
969.00,51.819
970.00,51.795
971.00,51.798
972.00,51.776
973.00,51.820
974.00,51.825
975.00,51.769
976.00,51.792
977.00,51.766
978.00,51.811
979.00,51.751
980.00,51.764
981.00,51.764
982.00,51.741
983.00,51.756
984.00,51.727
985.00,51.753
986.00,51.719
987.00,51.737
988.00,51.693
989.00,51.700
990.00,51.684
991.00,51.664
992.00,51.696
993.00,51.652
994.00,51.632
995.00,51.608
996.00,51.620
997.00,51.592
998.00,51.583
999.00,51.593
1000.00,51.548
1001.00,51.543
1002.00,51.506
1003.00,51.504
1004.00,51.534
1005.00,51.469
1006.00,51.499
1007.00,51.455
1008.00,51.440
1009.00,51.421
1010.00,51.427
1011.00,51.419
1012.00,51.379
1013.00,51.382
1014.00,51.350
1015.00,51.365
1016.00,51.310
1017.00,51.309
1018.00,51.294
1019.00,51.269
1020.00,51.272
1021.00,51.247
1022.00,51.239
1023.00,51.189
1024.00,51.202
1025.00,51.179
1026.00,51.174
1027.00,51.142
1028.00,51.147
1029.00,51.136
1030.00,51.093
1031.00,51.126
1032.00,51.050
1033.00,51.057
1034.00,51.031
1035.00,50.988
1036.00,50.979
1037.00,50.969
1038.00,50.955
1039.00,50.914
1040.00,50.927
1041.00,50.893
1042.00,50.904
1043.00,50.881
1044.00,50.907
1045.00,50.898
1046.00,50.868
1047.00,50.897
1048.00,50.886
1049.00,50.902
1050.00,50.933
1051.00,50.937
1052.00,50.934
1053.00,50.933
1054.00,50.925
1055.00,50.951
1056.00,50.962
1057.00,50.964
1058.00,50.947
1059.00,50.945
1060.00,50.959
1061.00,50.943
1062.00,50.926
1063.00,50.934
1064.00,50.956
1065.00,50.958
1066.00,50.910
1067.00,50.903
1068.00,50.919
1069.00,50.885
1070.00,50.874
1071.00,50.875
1072.00,50.891
1073.00,50.860
1074.00,50.864
1075.00,50.852
1076.00,50.852
1077.00,50.837
1078.00,50.813
1079.00,50.809
1080.00,50.814
1081.00,50.796
1082.00,50.777
1083.00,50.776
1084.00,50.777
1085.00,50.787
1086.00,50.764
1087.00,50.774
1088.00,50.750
1089.00,50.749
1090.00,50.746
1091.00,50.749
1092.00,50.735
1093.00,50.708
1094.00,50.685
1095.00,50.684
1096.00,50.668
1097.00,50.675
1098.00,50.667
1099.00,50.664
1100.00,50.651
1101.00,50.643
1102.00,50.632
1103.00,50.632
1104.00,50.619
1105.00,50.609
1106.00,50.587
1107.00,50.574
1108.00,50.590
1109.00,50.579
1110.00,50.583
1111.00,50.585
1112.00,50.539
1113.00,50.542
1114.00,50.521
1115.00,50.529
1116.00,50.528
1117.00,50.495
1118.00,50.482
1119.00,50.490
1120.00,50.481
1121.00,50.480
1122.00,50.470
1123.00,50.468
1124.00,50.459
1125.00,50.452
1126.00,50.460
1127.00,50.447
1128.00,50.436
1129.00,50.417
1130.00,50.406
1131.00,50.408
1132.00,50.402
1133.00,50.404
1134.00,50.385
1135.00,50.372
1136.00,50.388
1137.00,50.386
1138.00,50.387
1139.00,50.426
1140.00,50.399
1141.00,50.380
1142.00,50.370
1143.00,50.395
1144.00,50.361
1145.00,50.338
1146.00,50.354
1147.00,50.349
1148.00,50.337
1149.00,50.354
1150.00,50.370
1151.00,50.358
1152.00,50.344
1153.00,50.345
1154.00,50.325
1155.00,50.330
1156.00,50.303
1157.00,50.314
1158.00,50.308
1159.00,50.302
1160.00,50.309
1161.00,50.324
1162.00,50.325
1163.00,50.314
1164.00,50.336
1165.00,50.332
1166.00,50.331
1167.00,50.311
1168.00,50.325
1169.00,50.331
1170.00,50.317
1171.00,50.301
1172.00,50.323
1173.00,50.295
1174.00,50.308
1175.00,50.292
1176.00,50.300
1177.00,50.305
1178.00,50.285
1179.00,50.310
1180.00,50.288
1181.00,50.313
1182.00,50.298
1183.00,50.292
1184.00,50.297
1185.00,50.290
1186.00,50.286
1187.00,50.311
1188.00,50.289
1189.00,50.266
1190.00,50.264
1191.00,50.257
1192.00,50.282
1193.00,50.280
1194.00,50.285
1195.00,50.273
1196.00,50.311
1197.00,50.308
1198.00,50.294
1199.00,50.288
1200.00,50.297
1201.00,50.309
1202.00,50.286
1203.00,50.275
1204.00,50.267
1205.00,50.290
1206.00,50.270
1207.00,50.285
1208.00,50.269
1209.00,50.288
1210.00,50.295
1211.00,50.281
1212.00,50.312
1213.00,50.268
1214.00,50.289
1215.00,50.268
1216.00,50.285
1217.00,50.295
1218.00,50.276
1219.00,50.299
1220.00,50.269
1221.00,50.293
1222.00,50.269
1223.00,50.307
1224.00,50.304
1225.00,50.288
1226.00,50.307
1227.00,50.290
1228.00,50.311
1229.00,50.306
1230.00,50.343
1231.00,50.332
1232.00,50.347
1233.00,50.345
1234.00,50.350
1235.00,50.349
1236.00,50.338
1237.00,50.348
1238.00,50.338
1239.00,50.343
1240.00,50.345
1241.00,50.366
1242.00,50.365
1243.00,50.381
1244.00,50.360
1245.00,50.405
1246.00,50.395
1247.00,50.388
1248.00,50.391
1249.00,50.411
1250.00,50.410
1251.00,50.406
1252.00,50.407
1253.00,50.409
1254.00,50.436
1255.00,50.395
1256.00,50.394
1257.00,50.398
1258.00,50.437
1259.00,50.449
1260.00,50.476
1261.00,50.466
1262.00,50.462
1263.00,50.470
1264.00,50.468
1265.00,50.464
1266.00,50.465
1267.00,50.476
1268.00,50.476
1269.00,50.483
1270.00,50.505
1271.00,50.504
1272.00,50.506
1273.00,50.547
1274.00,50.540
1275.00,50.540
1276.00,50.534
1277.00,50.544
1278.00,50.560
1279.00,50.553
1280.00,50.552
1281.00,50.574
1282.00,50.582
1283.00,50.564
1284.00,50.591
1285.00,50.573
1286.00,50.601
1287.00,50.601
1288.00,50.593
1289.00,50.594
1290.00,50.625
1291.00,50.639
1292.00,50.627
1293.00,50.634
1294.00,50.666
1295.00,50.652
1296.00,50.652
1297.00,50.663
1298.00,50.699
1299.00,50.664
1300.00,50.687
1301.00,50.681
1302.00,50.696
1303.00,50.709
1304.00,50.704
1305.00,50.729
1306.00,50.731
1307.00,50.741
1308.00,50.744
1309.00,50.747
1310.00,50.740
1311.00,50.729
1312.00,50.742
1313.00,50.762
1314.00,50.774
1315.00,50.789
1316.00,50.786
1317.00,50.821
1318.00,50.816
1319.00,50.830
1320.00,50.835
1321.00,50.974
1322.00,50.969
1323.00,50.948
1324.00,50.931
1325.00,50.945
1326.00,50.969
1327.00,50.953
1328.00,50.949
1329.00,50.953
1330.00,50.976
1331.00,50.981
1332.00,50.966
1333.00,50.992
1334.00,51.030
1335.00,51.035
1336.00,51.065
1337.00,51.091
1338.00,51.131
1339.00,51.193
1340.00,51.249
1341.00,51.334
1342.00,51.397
1343.00,51.442
1344.00,51.505
1345.00,51.529
1346.00,51.584
1347.00,51.603
1348.00,51.621
1349.00,51.669
1350.00,51.654
1351.00,51.680
1352.00,51.642
1353.00,51.664
1354.00,51.688
1355.00,51.642
1356.00,51.735
1357.00,51.685
1358.00,51.749
1359.00,51.735
1360.00,51.698
1361.00,51.875
1362.00,51.693
1363.00,51.772
1364.00,51.837
1365.00,51.781
1366.00,51.776
1367.00,51.769
1368.00,51.723
1369.00,51.779
1370.00,51.769
1371.00,51.706
1372.00,51.755
1373.00,51.769
1374.00,51.797
1375.00,51.777
1376.00,51.751
1377.00,51.771
1378.00,51.867
1379.00,51.802
1380.00,51.789
1381.00,51.845
1382.00,51.738
1383.00,51.823
1384.00,51.760
1385.00,51.695
1386.00,51.776
1387.00,51.766
1388.00,51.742
1389.00,51.697
1390.00,51.727
1391.00,51.784
1392.00,51.780
1393.00,51.772
1394.00,51.783
1395.00,51.785
1396.00,51.740
1397.00,51.808
1398.00,51.772
1399.00,51.860
1400.00,51.873
1401.00,51.742
1402.00,51.821
1403.00,51.790
1404.00,51.806
1405.00,51.837
1406.00,51.862
1407.00,51.867
1408.00,51.854
1409.00,51.826
1410.00,51.896
1411.00,51.850
1412.00,51.926
1413.00,51.889
1414.00,51.912
1415.00,51.927
1416.00,51.976
1417.00,52.005
1418.00,51.965
1419.00,51.991
1420.00,51.994
1421.00,52.062
1422.00,52.044
1423.00,52.068
1424.00,52.081
1425.00,52.093
1426.00,52.100
1427.00,52.109
1428.00,52.112
1429.00,52.152
1430.00,52.153
1431.00,52.175
1432.00,52.192
1433.00,52.214
1434.00,52.215
1435.00,52.272
1436.00,52.272
1437.00,52.268
1438.00,52.300
1439.00,52.299
1440.00,52.308
1441.00,52.320
1442.00,52.341
1443.00,52.386
1444.00,52.406
1445.00,52.402
1446.00,52.437
1447.00,52.447
1448.00,52.469
1449.00,52.475
1450.00,52.496
1451.00,52.514
1452.00,52.551
1453.00,52.545
1454.00,52.576
1455.00,52.594
1456.00,52.619
1457.00,52.620
1458.00,52.649
1459.00,52.650
1460.00,52.690
1461.00,52.679
1462.00,52.708
1463.00,52.719
1464.00,52.730
1465.00,52.754
1466.00,52.763
1467.00,52.786
1468.00,52.872
1469.00,52.819
1470.00,52.856
1471.00,52.886
1472.00,52.875
1473.00,52.904
1474.00,52.931
1475.00,52.958
1476.00,52.967
1477.00,52.969
1478.00,53.016
1479.00,53.013
1480.00,53.007
1481.00,53.016
1482.00,53.051
1483.00,53.057
1484.00,53.078
1485.00,53.092
1486.00,53.093
1487.00,53.143
1488.00,53.171
1489.00,53.147
1490.00,53.175
1491.00,53.183
1492.00,53.212
1493.00,53.185
1494.00,53.236
1495.00,53.229
1496.00,53.273
1497.00,53.245
1498.00,53.276
1499.00,53.296
1500.00,53.299
1501.00, 
1502.00, 
1503.00, 
1504.00, 
1505.00, 
1506.00, 
1507.00, 
1508.00, 
1509.00, 
1510.00, 
1511.00, 
1512.00, 
1513.00, 
1514.00, 
1515.00, 
1516.00, 
1517.00, 
1518.00, 
1519.00, 
1520.00, 
1521.00, 
1522.00, 
1523.00, 
1524.00, 
1525.00, 
1526.00, 
1527.00, 
1528.00, 
1529.00, 
1530.00, 
1531.00, 
1532.00, 
1533.00, 
1534.00, 
1535.00, 
1536.00, 
1537.00, 
1538.00, 
1539.00, 
1540.00, 
1541.00, 
1542.00, 
1543.00, 
1544.00, 
1545.00, 
1546.00, 
1547.00, 
1548.00, 
1549.00, 
1550.00, 
1551.00, 
1552.00, 
1553.00, 
1554.00, 
1555.00, 
1556.00, 
1557.00, 
1558.00, 
1559.00, 
1560.00, 
1561.00, 
1562.00, 
1563.00, 
1564.00, 
1565.00, 
1566.00, 
1567.00, 
1568.00, 
1569.00, 
1570.00, 
1571.00, 
1572.00, 
1573.00, 
1574.00, 
1575.00, 
1576.00, 
1577.00, 
1578.00, 
1579.00, 
1580.00, 
1581.00, 
1582.00, 
1583.00, 
1584.00, 
1585.00, 
1586.00, 
1587.00, 
1588.00, 
1589.00, 
1590.00, 
1591.00, 
1592.00, 
1593.00, 
1594.00, 
1595.00, 
1596.00, 
1597.00, 
1598.00, 
1599.00, 
1600.00, 
1601.00, 
1602.00, 
1603.00, 
1604.00, 
1605.00, 
1606.00, 
1607.00, 
1608.00, 
1609.00, 
1610.00, 
1611.00, 
1612.00, 
1613.00, 
1614.00, 
1615.00, 
1616.00, 
1617.00, 
1618.00, 
1619.00, 
1620.00, 
1621.00, 
1622.00, 
1623.00, 
1624.00, 
1625.00, 
1626.00, 
1627.00, 
1628.00, 
1629.00, 
1630.00, 
1631.00, 
1632.00, 
1633.00, 
1634.00, 
1635.00, 
1636.00, 
1637.00, 
1638.00, 
1639.00, 
1640.00, 
1641.00, 
1642.00, 
1643.00, 
1644.00, 
1645.00, 
1646.00, 
1647.00, 
1648.00, 
1649.00, 
1650.00, 
1651.00, 
1652.00, 
1653.00, 
1654.00, 
1655.00, 
1656.00, 
1657.00, 
1658.00, 
1659.00, 
1660.00, 
1661.00, 
1662.00, 
1663.00, 
1664.00, 
1665.00, 
1666.00, 
1667.00, 
1668.00, 
1669.00, 
1670.00, 
1671.00, 
1672.00, 
1673.00, 
1674.00, 
1675.00, 
1676.00, 
1677.00, 
1678.00, 
1679.00, 
1680.00, 
1681.00, 
1682.00, 
1683.00, 
1684.00, 
1685.00, 
1686.00, 
1687.00, 
1688.00, 
1689.00, 
1690.00, 
1691.00, 
1692.00, 
1693.00, 
1694.00, 
1695.00, 
1696.00, 
1697.00, 
1698.00, 
1699.00, 
1700.00, 
1701.00, 
1702.00, 
1703.00, 
1704.00, 
1705.00, 
1706.00, 
1707.00, 
1708.00, 
1709.00, 
1710.00, 
1711.00, 
1712.00, 
1713.00, 
1714.00, 
1715.00, 
1716.00, 
1717.00, 
1718.00, 
1719.00, 
1720.00, 
1721.00, 
1722.00, 
1723.00, 
1724.00, 
1725.00, 
1726.00, 
1727.00, 
1728.00, 
1729.00, 
1730.00, 
1731.00, 
1732.00, 
1733.00, 
1734.00, 
1735.00, 
1736.00, 
1737.00, 
1738.00, 
1739.00, 
1740.00, 
1741.00, 
1742.00, 
1743.00, 
1744.00, 
1745.00, 
1746.00, 
1747.00, 
1748.00, 
1749.00, 
1750.00, 
1751.00, 
1752.00, 
1753.00, 
1754.00, 
1755.00, 
1756.00, 
1757.00, 
1758.00, 
1759.00, 
1760.00, 
1761.00, 
1762.00, 
1763.00, 
1764.00, 
1765.00, 
1766.00, 
1767.00, 
1768.00, 
1769.00, 
1770.00, 
1771.00, 
1772.00, 
1773.00, 
1774.00, 
1775.00, 
1776.00, 
1777.00, 
1778.00, 
1779.00, 
1780.00, 
1781.00, 
1782.00, 
1783.00, 
1784.00, 
1785.00, 
1786.00, 
1787.00, 
1788.00, 
1789.00, 
1790.00, 
1791.00, 
1792.00, 
1793.00, 
1794.00, 
1795.00, 
1796.00, 
1797.00, 
1798.00, 
1799.00, 
1800.00, 
1801.00, 
1802.00, 
1803.00, 
1804.00, 
1805.00, 
1806.00, 
1807.00, 
1808.00, 
1809.00, 
1810.00, 
1811.00, 
1812.00, 
1813.00, 
1814.00, 
1815.00, 
1816.00, 
1817.00, 
1818.00, 
1819.00, 
1820.00, 
1821.00, 
1822.00, 
1823.00, 
1824.00, 
1825.00, 
1826.00, 
1827.00, 
1828.00, 
1829.00, 
1830.00, 
1831.00, 
1832.00, 
1833.00, 
1834.00, 
1835.00, 
1836.00, 
1837.00, 
1838.00, 
1839.00, 
1840.00, 
1841.00, 
1842.00, 
1843.00, 
1844.00, 
1845.00, 
1846.00, 
1847.00, 
1848.00, 
1849.00, 
1850.00, 
1851.00, 
1852.00, 
1853.00, 
1854.00, 
1855.00, 
1856.00, 
1857.00, 
1858.00, 
1859.00, 
1860.00, 
1861.00, 
1862.00, 
1863.00, 
1864.00, 
1865.00, 
1866.00, 
1867.00, 
1868.00, 
1869.00, 
1870.00, 
1871.00, 
1872.00, 
1873.00, 
1874.00, 
1875.00, 
1876.00, 
1877.00, 
1878.00, 
1879.00, 
1880.00, 
1881.00, 
1882.00, 
1883.00, 
1884.00, 
1885.00, 
1886.00, 
1887.00, 
1888.00, 
1889.00, 
1890.00, 
1891.00, 
1892.00, 
1893.00, 
1894.00, 
1895.00, 
1896.00, 
1897.00, 
1898.00, 
1899.00, 
1900.00, 
1901.00, 
1902.00, 
1903.00, 
1904.00, 
1905.00, 
1906.00, 
1907.00, 
1908.00, 
1909.00, 
1910.00, 
1911.00, 
1912.00, 
1913.00, 
1914.00, 
1915.00, 
1916.00, 
1917.00, 
1918.00, 
1919.00, 
1920.00, 
1921.00, 
1922.00, 
1923.00, 
1924.00, 
1925.00, 
1926.00, 
1927.00, 
1928.00, 
1929.00, 
1930.00, 
1931.00, 
1932.00, 
1933.00, 
1934.00, 
1935.00, 
1936.00, 
1937.00, 
1938.00, 
1939.00, 
1940.00, 
1941.00, 
1942.00, 
1943.00, 
1944.00, 
1945.00, 
1946.00, 
1947.00, 
1948.00, 
1949.00, 
1950.00, 
1951.00, 
1952.00, 
1953.00, 
1954.00, 
1955.00, 
1956.00, 
1957.00, 
1958.00, 
1959.00, 
1960.00, 
1961.00, 
1962.00, 
1963.00, 
1964.00, 
1965.00, 
1966.00, 
1967.00, 
1968.00, 
1969.00, 
1970.00, 
1971.00, 
1972.00, 
1973.00, 
1974.00, 
1975.00, 
1976.00, 
1977.00, 
1978.00, 
1979.00, 
1980.00, 
1981.00, 
1982.00, 
1983.00, 
1984.00, 
1985.00, 
1986.00, 
1987.00, 
1988.00, 
1989.00, 
1990.00, 
1991.00, 
1992.00, 
1993.00, 
1994.00, 
1995.00, 
1996.00, 
1997.00, 
1998.00, 
1999.00, 
2000.00, 
2001.00, 
2002.00, 
2003.00, 
2004.00, 
2005.00, 
2006.00, 
2007.00, 
2008.00, 
2009.00, 
2010.00, 
2011.00, 
2012.00, 
2013.00, 
2014.00, 
2015.00, 
2016.00, 
2017.00, 
2018.00, 
2019.00, 
2020.00, 
2021.00, 
2022.00, 
2023.00, 
2024.00, 
2025.00, 
2026.00, 
2027.00, 
2028.00, 
2029.00, 
2030.00, 
2031.00, 
2032.00, 
2033.00, 
2034.00, 
2035.00, 
2036.00, 
2037.00, 
2038.00, 
2039.00, 
2040.00, 
2041.00, 
2042.00, 
2043.00, 
2044.00, 
2045.00, 
2046.00, 
2047.00, 
2048.00, 
2049.00, 
2050.00, 
2051.00, 
2052.00, 
2053.00, 
2054.00, 
2055.00, 
2056.00, 
2057.00, 
2058.00, 
2059.00, 
2060.00, 
2061.00, 
2062.00, 
2063.00, 
2064.00, 
2065.00, 
2066.00, 
2067.00, 
2068.00, 
2069.00, 
2070.00, 
2071.00, 
2072.00, 
2073.00, 
2074.00, 
2075.00, 
2076.00, 
2077.00, 
2078.00, 
2079.00, 
2080.00, 
2081.00, 
2082.00, 
2083.00, 
2084.00, 
2085.00, 
2086.00, 
2087.00, 
2088.00, 
2089.00, 
2090.00, 
2091.00, 
2092.00, 
2093.00, 
2094.00, 
2095.00, 
2096.00, 
2097.00, 
2098.00, 
2099.00, 
2100.00, 
2101.00, 
2102.00, 
2103.00, 
2104.00, 
2105.00, 
2106.00, 
2107.00, 
2108.00, 
2109.00, 
2110.00, 
2111.00, 
2112.00, 
2113.00, 
2114.00, 
2115.00, 
2116.00, 
2117.00, 
2118.00, 
2119.00, 
2120.00, 
2121.00, 
2122.00, 
2123.00, 
2124.00, 
2125.00, 
2126.00, 
2127.00, 
2128.00, 
2129.00, 
2130.00, 
2131.00, 
2132.00, 
2133.00, 
2134.00, 
2135.00, 
2136.00, 
2137.00, 
2138.00, 
2139.00, 
2140.00, 
2141.00, 
2142.00, 
2143.00, 
2144.00, 
2145.00, 
2146.00, 
2147.00, 
2148.00, 
2149.00, 
2150.00, 
2151.00, 
2152.00, 
2153.00, 
2154.00, 
2155.00, 
2156.00, 
2157.00, 
2158.00, 
2159.00, 
2160.00, 
2161.00, 
2162.00, 
2163.00, 
2164.00, 
2165.00, 
2166.00, 
2167.00, 
2168.00, 
2169.00, 
2170.00, 
2171.00, 
2172.00, 
2173.00, 
2174.00, 
2175.00, 
2176.00, 
2177.00, 
2178.00, 
2179.00, 
2180.00, 
2181.00, 
2182.00, 
2183.00, 
2184.00, 
2185.00, 
2186.00, 
2187.00, 
2188.00, 
2189.00, 
2190.00, 
2191.00, 
2192.00, 
2193.00, 
2194.00, 
2195.00, 
2196.00, 
2197.00, 
2198.00, 
2199.00, 
2200.00, 
2201.00, 
2202.00, 
2203.00, 
2204.00, 
2205.00, 
2206.00, 
2207.00, 
2208.00, 
2209.00, 
2210.00, 
2211.00, 
2212.00, 
2213.00, 
2214.00, 
2215.00, 
2216.00, 
2217.00, 
2218.00, 
2219.00, 
2220.00, 
2221.00, 
2222.00, 
2223.00, 
2224.00, 
2225.00, 
2226.00, 
2227.00, 
2228.00, 
2229.00, 
2230.00, 
2231.00, 
2232.00, 
2233.00, 
2234.00, 
2235.00, 
2236.00, 
2237.00, 
2238.00, 
2239.00, 
2240.00, 
2241.00, 
2242.00, 
2243.00, 
2244.00, 
2245.00, 
2246.00, 
2247.00, 
2248.00, 
2249.00, 
2250.00, 
2251.00, 
2252.00, 
2253.00, 
2254.00, 
2255.00, 
2256.00, 
2257.00, 
2258.00, 
2259.00, 
2260.00, 
2261.00, 
2262.00, 
2263.00, 
2264.00, 
2265.00, 
2266.00, 
2267.00, 
2268.00, 
2269.00, 
2270.00, 
2271.00, 
2272.00, 
2273.00, 
2274.00, 
2275.00, 
2276.00, 
2277.00, 
2278.00, 
2279.00, 
2280.00, 
2281.00, 
2282.00, 
2283.00, 
2284.00, 
2285.00, 
2286.00, 
2287.00, 
2288.00, 
2289.00, 
2290.00, 
2291.00, 
2292.00, 
2293.00, 
2294.00, 
2295.00, 
2296.00, 
2297.00, 
2298.00, 
2299.00, 
2300.00, 
2301.00, 
2302.00, 
2303.00, 
2304.00, 
2305.00, 
2306.00, 
2307.00, 
2308.00, 
2309.00, 
2310.00, 
2311.00, 
2312.00, 
2313.00, 
2314.00, 
2315.00, 
2316.00, 
2317.00, 
2318.00, 
2319.00, 
2320.00, 
2321.00, 
2322.00, 
2323.00, 
2324.00, 
2325.00, 
2326.00, 
2327.00, 
2328.00, 
2329.00, 
2330.00, 
2331.00, 
2332.00, 
2333.00, 
2334.00, 
2335.00, 
2336.00, 
2337.00, 
2338.00, 
2339.00, 
2340.00, 
2341.00, 
2342.00, 
2343.00, 
2344.00, 
2345.00, 
2346.00, 
2347.00, 
2348.00, 
2349.00, 
2350.00, 
2351.00, 
2352.00, 
2353.00, 
2354.00, 
2355.00, 
2356.00, 
2357.00, 
2358.00, 
2359.00, 
2360.00, 
2361.00, 
2362.00, 
2363.00, 
2364.00, 
2365.00, 
2366.00, 
2367.00, 
2368.00, 
2369.00, 
2370.00, 
2371.00, 
2372.00, 
2373.00, 
2374.00, 
2375.00, 
2376.00, 
2377.00, 
2378.00, 
2379.00, 
2380.00, 
2381.00, 
2382.00, 
2383.00, 
2384.00, 
2385.00, 
2386.00, 
2387.00, 
2388.00, 
2389.00, 
2390.00, 
2391.00, 
2392.00, 
2393.00, 
2394.00, 
2395.00, 
2396.00, 
2397.00, 
2398.00, 
2399.00, 
2400.00, 
2401.00, 
2402.00, 
2403.00, 
2404.00, 
2405.00, 
2406.00, 
2407.00, 
2408.00, 
2409.00, 
2410.00, 
2411.00, 
2412.00, 
2413.00, 
2414.00, 
2415.00, 
2416.00, 
2417.00, 
2418.00, 
2419.00, 
2420.00, 
2421.00, 
2422.00, 
2423.00, 
2424.00, 
2425.00, 
2426.00, 
2427.00, 
2428.00, 
2429.00, 
2430.00, 
2431.00, 
2432.00, 
2433.00, 
2434.00, 
2435.00, 
2436.00, 
2437.00, 
2438.00, 
2439.00, 
2440.00, 
2441.00, 
2442.00, 
2443.00, 
2444.00, 
2445.00, 
2446.00, 
2447.00, 
2448.00, 
2449.00, 
2450.00, 
2451.00, 
2452.00, 
2453.00, 
2454.00, 
2455.00, 
2456.00, 
2457.00, 
2458.00, 
2459.00, 
2460.00, 
2461.00, 
2462.00, 
2463.00, 
2464.00, 
2465.00, 
2466.00, 
2467.00, 
2468.00, 
2469.00, 
2470.00, 
2471.00, 
2472.00, 
2473.00, 
2474.00, 
2475.00, 
2476.00, 
2477.00, 
2478.00, 
2479.00, 
2480.00, 
2481.00, 
2482.00, 
2483.00, 
2484.00, 
2485.00, 
2486.00, 
2487.00, 
2488.00, 
2489.00, 
2490.00, 
2491.00, 
2492.00, 
2493.00, 
2494.00, 
2495.00, 
2496.00, 
2497.00, 
2498.00, 
2499.00, 
2500.00, 
2501.00, 
2502.00, 
2503.00, 
2504.00, 
2505.00, 
2506.00, 
2507.00, 
2508.00, 
2509.00, 
2510.00, 
2511.00, 
2512.00, 
2513.00, 
2514.00, 
2515.00, 
2516.00, 
2517.00, 
2518.00, 
2519.00, 
2520.00, 
2521.00, 
2522.00, 
2523.00, 
2524.00, 
2525.00, 
2526.00, 
2527.00, 
2528.00, 
2529.00, 
2530.00, 
2531.00, 
2532.00, 
2533.00, 
2534.00, 
2535.00, 
2536.00, 
2537.00, 
2538.00, 
2539.00, 
2540.00, 
2541.00, 
2542.00, 
2543.00, 
2544.00, 
2545.00, 
2546.00, 
2547.00, 
2548.00, 
2549.00, 
2550.00, 
2551.00, 
2552.00, 
2553.00, 
2554.00, 
2555.00, 
2556.00, 
2557.00, 
2558.00, 
2559.00, 
2560.00, 
2561.00, 
2562.00, 
2563.00, 
2564.00, 
2565.00, 
2566.00, 
2567.00, 
2568.00, 
2569.00, 
2570.00, 
2571.00, 
2572.00, 
2573.00, 
2574.00, 
2575.00, 
2576.00, 
2577.00, 
2578.00, 
2579.00, 
2580.00, 
2581.00, 
2582.00, 
2583.00, 
2584.00, 
2585.00, 
2586.00, 
2587.00, 
2588.00, 
2589.00, 
2590.00, 
2591.00, 
2592.00, 
2593.00, 
2594.00, 
2595.00, 
2596.00, 
2597.00, 
2598.00, 
2599.00, 
2600.00, 
