"1cP5 - RawData"
"Wavelength nm.","T%"
200.00,0.002
201.00,-0.001
202.00,0.003
203.00,0.002
204.00,-0.002
205.00,0.001
206.00,0.000
207.00,-0.002
208.00,0.002
209.00,0.002
210.00,0.002
211.00,0.000
212.00,-0.001
213.00,0.001
214.00,0.001
215.00,-0.000
216.00,-0.002
217.00,-0.000
218.00,0.003
219.00,0.000
220.00,0.002
221.00,0.002
222.00,0.002
223.00,0.001
224.00,0.002
225.00,0.000
226.00,-0.001
227.00,0.001
228.00,0.001
229.00,-0.001
230.00,0.001
231.00,0.001
232.00,0.001
233.00,0.000
234.00,-0.002
235.00,0.002
236.00,-0.000
237.00,0.002
238.00,0.000
239.00,-0.000
240.00,0.003
241.00,0.002
242.00,0.002
243.00,0.000
244.00,0.001
245.00,0.002
246.00,-0.000
247.00,-0.001
248.00,0.001
249.00,0.000
250.00,0.000
251.00,0.001
252.00,-0.001
253.00,-0.000
254.00,0.000
255.00,0.001
256.00,0.001
257.00,-0.000
258.00,0.000
259.00,0.001
260.00,-0.003
261.00,0.002
262.00,0.001
263.00,-0.002
264.00,0.001
265.00,-0.001
266.00,-0.001
267.00,0.000
268.00,-0.001
269.00,-0.000
270.00,0.000
271.00,0.000
272.00,0.000
273.00,0.002
274.00,0.001
275.00,0.000
276.00,0.001
277.00,-0.001
278.00,0.000
279.00,0.000
280.00,-0.001
281.00,0.001
282.00,0.001
283.00,0.002
284.00,-0.001
285.00,0.002
286.00,-0.000
287.00,0.001
288.00,0.002
289.00,0.001
290.00,-0.000
291.00,-0.002
292.00,0.000
293.00,0.001
294.00,0.000
295.00,-0.000
296.00,0.001
297.00,0.000
298.00,0.001
299.00,-0.001
300.00,0.000
301.00,0.002
302.00,0.001
303.00,0.001
304.00,0.001
305.00,0.001
306.00,0.001
307.00,0.004
308.00,0.006
309.00,0.013
310.00,0.017
311.00,0.024
312.00,0.039
313.00,0.062
314.00,0.095
315.00,0.142
316.00,0.201
317.00,0.287
318.00,0.385
319.00,0.521
320.00,0.699
321.00,0.900
322.00,1.149
323.00,1.452
324.00,1.810
325.00,2.126
326.00,2.564
327.00,3.036
328.00,3.579
329.00,4.103
330.00,4.717
331.00,5.326
332.00,5.978
333.00,6.721
334.00,7.368
335.00,8.097
336.00,8.844
337.00,9.606
338.00,10.384
339.00,11.063
340.00,11.785
341.00,12.515
342.00,13.199
343.00,13.831
344.00,14.440
345.00,15.129
346.00,15.684
347.00,16.235
348.00,16.771
349.00,17.250
350.00,17.745
351.00,18.200
352.00,18.481
353.00,18.973
354.00,19.332
355.00,19.717
356.00,19.993
357.00,20.279
358.00,20.563
359.00,20.856
360.00,21.120
361.00,21.347
362.00,21.527
363.00,21.694
364.00,21.791
365.00,21.897
366.00,22.051
367.00,22.170
368.00,22.190
369.00,22.237
370.00,22.346
371.00,22.371
372.00,22.302
373.00,22.329
374.00,22.288
375.00,22.300
376.00,22.176
377.00,22.110
378.00,22.025
379.00,21.881
380.00,21.912
381.00,21.897
382.00,21.903
383.00,21.924
384.00,21.967
385.00,22.022
386.00,22.048
387.00,22.167
388.00,22.267
389.00,22.240
390.00,22.344
391.00,22.308
392.00,22.417
393.00,22.424
394.00,22.458
395.00,22.514
396.00,22.478
397.00,22.543
398.00,22.522
399.00,22.529
400.00,22.497
401.00,22.519
402.00,22.521
403.00,22.514
404.00,22.494
405.00,22.491
406.00,22.497
407.00,22.429
408.00,22.445
409.00,22.384
410.00,22.331
411.00,22.347
412.00,22.318
413.00,22.320
414.00,22.244
415.00,22.319
416.00,22.331
417.00,22.298
418.00,22.314
419.00,22.413
420.00,22.478
421.00,22.458
422.00,22.471
423.00,22.540
424.00,22.549
425.00,22.592
426.00,22.603
427.00,22.671
428.00,22.716
429.00,22.748
430.00,22.849
431.00,22.928
432.00,22.865
433.00,22.944
434.00,23.012
435.00,23.060
436.00,23.115
437.00,23.152
438.00,23.240
439.00,23.315
440.00,23.392
441.00,23.476
442.00,23.571
443.00,23.639
444.00,23.749
445.00,23.839
446.00,23.955
447.00,24.058
448.00,24.136
449.00,24.235
450.00,24.324
451.00,24.437
452.00,24.542
453.00,24.668
454.00,24.743
455.00,24.849
456.00,25.002
457.00,25.112
458.00,25.206
459.00,25.353
460.00,25.514
461.00,25.631
462.00,25.738
463.00,25.885
464.00,26.013
465.00,26.133
466.00,26.277
467.00,26.433
468.00,26.494
469.00,26.622
470.00,26.707
471.00,26.812
472.00,26.933
473.00,27.000
474.00,27.145
475.00,27.275
476.00,27.371
477.00,27.531
478.00,27.645
479.00,27.772
480.00,27.898
481.00,28.006
482.00,28.202
483.00,28.367
484.00,28.531
485.00,28.686
486.00,28.861
487.00,28.985
488.00,29.111
489.00,29.283
490.00,29.403
491.00,29.576
492.00,29.832
493.00,29.934
494.00,29.942
495.00,30.122
496.00,30.230
497.00,30.327
498.00,30.505
499.00,30.642
500.00,30.811
501.00,30.899
502.00,31.038
503.00,31.171
504.00,31.168
505.00,31.344
506.00,31.452
507.00,31.567
508.00,31.685
509.00,31.860
510.00,31.957
511.00,32.050
512.00,32.230
513.00,32.361
514.00,32.466
515.00,32.621
516.00,32.684
517.00,32.791
518.00,32.949
519.00,32.997
520.00,33.051
521.00,33.134
522.00,33.265
523.00,33.309
524.00,33.393
525.00,33.577
526.00,33.649
527.00,33.641
528.00,33.758
529.00,33.921
530.00,34.128
531.00,34.198
532.00,34.321
533.00,34.333
534.00,34.430
535.00,34.577
536.00,34.611
537.00,34.713
538.00,34.787
539.00,34.834
540.00,34.902
541.00,34.991
542.00,35.055
543.00,35.081
544.00,35.179
545.00,35.287
546.00,35.291
547.00,35.434
548.00,35.516
549.00,35.547
550.00,35.617
551.00,35.728
552.00,35.784
553.00,35.835
554.00,35.898
555.00,35.904
556.00,35.988
557.00,36.058
558.00,36.142
559.00,36.191
560.00,36.200
561.00,36.358
562.00,36.411
563.00,36.467
564.00,36.420
565.00,36.497
566.00,36.445
567.00,36.501
568.00,36.579
569.00,36.675
570.00,36.636
571.00,36.712
572.00,36.744
573.00,36.663
574.00,36.788
575.00,36.767
576.00,36.788
577.00,36.815
578.00,36.932
579.00,36.973
580.00,36.975
581.00,37.140
582.00,37.230
583.00,37.208
584.00,37.294
585.00,37.383
586.00,37.411
587.00,37.403
588.00,37.452
589.00,37.484
590.00,37.568
591.00,37.619
592.00,37.530
593.00,37.595
594.00,37.695
595.00,37.768
596.00,37.827
597.00,37.882
598.00,37.960
599.00,37.942
600.00,38.039
601.00,38.024
602.00,38.046
603.00,38.060
604.00,38.144
605.00,38.199
606.00,38.143
607.00,38.178
608.00,38.302
609.00,38.444
610.00,38.267
611.00,38.355
612.00,38.399
613.00,38.479
614.00,38.549
615.00,38.588
616.00,38.711
617.00,38.702
618.00,38.676
619.00,38.754
620.00,38.800
621.00,38.857
622.00,38.912
623.00,38.954
624.00,39.086
625.00,39.146
626.00,39.124
627.00,39.160
628.00,39.209
629.00,39.268
630.00,39.203
631.00,39.327
632.00,39.442
633.00,39.476
634.00,39.655
635.00,39.693
636.00,39.591
637.00,39.614
638.00,39.904
639.00,40.060
640.00,39.947
641.00,40.012
642.00,40.047
643.00,40.193
644.00,40.273
645.00,40.283
646.00,40.418
647.00,40.492
648.00,40.572
649.00,40.584
650.00,40.600
651.00,40.808
652.00,40.851
653.00,40.881
654.00,40.916
655.00,41.120
656.00,41.413
657.00,41.294
658.00,41.378
659.00,41.375
660.00,41.409
661.00,41.527
662.00,41.569
663.00,41.677
664.00,41.937
665.00,42.123
666.00,42.060
667.00,42.082
668.00,42.143
669.00,42.311
670.00,42.603
671.00,42.450
672.00,42.627
673.00,42.782
674.00,42.778
675.00,42.810
676.00,42.991
677.00,43.213
678.00,43.014
679.00,43.186
680.00,43.321
681.00,43.501
682.00,43.564
683.00,43.385
684.00,43.581
685.00,43.725
686.00,43.625
687.00,43.849
688.00,43.887
689.00,43.886
690.00,44.119
691.00,44.408
692.00,44.204
693.00,44.170
694.00,44.488
695.00,44.568
696.00,44.630
697.00,44.542
698.00,44.654
699.00,44.946
700.00,45.069
701.00,44.942
702.00,45.099
703.00,45.206
704.00,45.293
705.00,45.253
706.00,45.292
707.00,45.484
708.00,45.351
709.00,45.759
710.00,46.115
711.00,45.624
712.00,45.669
713.00,45.885
714.00,45.988
715.00,46.028
716.00,45.945
717.00,46.138
718.00,46.277
719.00,46.267
720.00,46.325
721.00,50.786
722.00,50.876
723.00,50.814
724.00,50.805
725.00,50.847
726.00,50.831
727.00,50.896
728.00,50.912
729.00,50.930
730.00,50.960
731.00,50.961
732.00,51.019
733.00,51.089
734.00,51.105
735.00,51.124
736.00,51.114
737.00,51.174
738.00,51.240
739.00,51.247
740.00,51.193
741.00,51.366
742.00,51.317
743.00,51.356
744.00,51.315
745.00,51.386
746.00,51.369
747.00,51.384
748.00,51.389
749.00,51.287
750.00,51.383
751.00,51.329
752.00,51.333
753.00,51.339
754.00,51.375
755.00,51.411
756.00,51.375
757.00,51.415
758.00,51.414
759.00,51.479
760.00,51.508
761.00,51.437
762.00,51.503
763.00,51.510
764.00,51.459
765.00,51.471
766.00,51.447
767.00,51.532
768.00,51.509
769.00,51.459
770.00,51.516
771.00,51.551
772.00,51.543
773.00,51.467
774.00,51.537
775.00,51.556
776.00,51.559
777.00,51.672
778.00,51.615
779.00,51.593
780.00,51.542
781.00,51.552
782.00,51.591
783.00,51.536
784.00,51.597
785.00,51.467
786.00,51.585
787.00,51.538
788.00,51.565
789.00,51.536
790.00,51.516
791.00,51.580
792.00,51.458
793.00,51.509
794.00,51.510
795.00,51.432
796.00,51.492
797.00,51.360
798.00,51.436
799.00,51.375
800.00,51.353
801.00,51.446
802.00,51.362
803.00,51.300
804.00,51.320
805.00,51.404
806.00,51.261
807.00,51.244
808.00,51.270
809.00,51.306
810.00,51.149
811.00,51.309
812.00,51.256
813.00,51.229
814.00,51.173
815.00,51.157
816.00,51.253
817.00,51.142
818.00,51.094
819.00,51.064
820.00,51.122
821.00,51.064
822.00,51.051
823.00,51.036
824.00,51.038
825.00,50.973
826.00,50.922
827.00,51.097
828.00,51.052
829.00,51.014
830.00,51.044
831.00,53.336
832.00,53.271
833.00,53.235
834.00,53.234
835.00,53.216
836.00,53.250
837.00,53.198
838.00,53.140
839.00,53.169
840.00,53.096
841.00,53.144
842.00,53.113
843.00,53.104
844.00,53.063
845.00,53.063
846.00,53.081
847.00,52.989
848.00,52.974
849.00,52.945
850.00,52.917
851.00,52.857
852.00,52.855
853.00,52.836
854.00,52.818
855.00,52.749
856.00,52.764
857.00,52.727
858.00,52.707
859.00,52.665
860.00,52.676
861.00,52.678
862.00,52.606
863.00,52.617
864.00,52.591
865.00,52.628
866.00,52.371
867.00,52.584
868.00,52.531
869.00,52.499
870.00,52.548
871.00,52.532
872.00,52.515
873.00,52.486
874.00,52.484
875.00,52.447
876.00,52.471
877.00,52.463
878.00,52.478
879.00,52.433
880.00,52.399
881.00,52.391
882.00,52.444
883.00,52.359
884.00,52.327
885.00,52.324
886.00,52.319
887.00,52.267
888.00,52.242
889.00,52.226
890.00,52.228
891.00,52.197
892.00,52.187
893.00,52.164
894.00,52.136
895.00,52.106
896.00,52.126
897.00,52.087
898.00,52.045
899.00,52.062
900.00,52.048
901.00,52.013
902.00,52.041
903.00,51.992
904.00,51.986
905.00,51.968
906.00,51.962
907.00,51.928
908.00,51.889
909.00,51.884
910.00,51.855
911.00,51.859
912.00,51.850
913.00,51.814
914.00,51.807
915.00,51.770
916.00,51.743
917.00,51.725
918.00,51.723
919.00,51.672
920.00,51.638
921.00,51.653
922.00,51.670
923.00,51.629
924.00,51.584
925.00,51.583
926.00,51.612
927.00,51.560
928.00,51.522
929.00,51.539
930.00,51.528
931.00,51.482
932.00,51.450
933.00,51.462
934.00,51.424
935.00,51.407
936.00,51.385
937.00,51.369
938.00,51.348
939.00,51.359
940.00,51.344
941.00,51.323
942.00,51.284
943.00,51.294
944.00,51.239
945.00,51.252
946.00,51.217
947.00,51.187
948.00,51.150
949.00,51.134
950.00,51.107
951.00,51.106
952.00,51.091
953.00,51.028
954.00,51.026
955.00,51.061
956.00,50.985
957.00,50.947
958.00,50.950
959.00,50.894
960.00,50.885
961.00,50.884
962.00,50.895
963.00,50.856
964.00,50.842
965.00,50.845
966.00,50.829
967.00,50.801
968.00,50.805
969.00,50.847
970.00,50.794
971.00,50.794
972.00,50.755
973.00,50.813
974.00,50.831
975.00,50.777
976.00,50.795
977.00,50.786
978.00,50.838
979.00,50.788
980.00,50.804
981.00,50.807
982.00,50.777
983.00,50.793
984.00,50.779
985.00,50.788
986.00,50.735
987.00,50.774
988.00,50.715
989.00,50.714
990.00,50.703
991.00,50.694
992.00,50.721
993.00,50.681
994.00,50.664
995.00,50.662
996.00,50.666
997.00,50.643
998.00,50.614
999.00,50.646
1000.00,50.606
1001.00,50.584
1002.00,50.562
1003.00,50.573
1004.00,50.549
1005.00,50.520
1006.00,50.556
1007.00,50.525
1008.00,50.501
1009.00,50.469
1010.00,50.474
1011.00,50.459
1012.00,50.428
1013.00,50.433
1014.00,50.395
1015.00,50.444
1016.00,50.458
1017.00,50.393
1018.00,50.369
1019.00,50.332
1020.00,50.335
1021.00,50.309
1022.00,50.300
1023.00,50.267
1024.00,50.290
1025.00,50.262
1026.00,50.247
1027.00,50.223
1028.00,50.213
1029.00,50.207
1030.00,50.159
1031.00,50.179
1032.00,50.130
1033.00,50.129
1034.00,50.109
1035.00,50.082
1036.00,50.062
1037.00,50.045
1038.00,50.036
1039.00,50.004
1040.00,50.007
1041.00,49.963
1042.00,49.964
1043.00,49.957
1044.00,49.993
1045.00,49.970
1046.00,49.950
1047.00,49.976
1048.00,49.977
1049.00,49.969
1050.00,49.972
1051.00,50.000
1052.00,49.998
1053.00,50.013
1054.00,50.018
1055.00,50.038
1056.00,50.045
1057.00,50.053
1058.00,50.041
1059.00,50.038
1060.00,50.050
1061.00,50.058
1062.00,50.026
1063.00,50.038
1064.00,50.030
1065.00,50.013
1066.00,50.005
1067.00,49.997
1068.00,50.022
1069.00,49.987
1070.00,49.971
1071.00,49.949
1072.00,49.970
1073.00,49.947
1074.00,49.947
1075.00,49.932
1076.00,49.951
1077.00,49.940
1078.00,49.891
1079.00,49.894
1080.00,49.900
1081.00,49.886
1082.00,49.879
1083.00,49.890
1084.00,49.882
1085.00,49.878
1086.00,49.852
1087.00,49.864
1088.00,49.841
1089.00,49.827
1090.00,49.839
1091.00,49.829
1092.00,49.808
1093.00,49.789
1094.00,49.784
1095.00,49.784
1096.00,49.762
1097.00,49.772
1098.00,49.761
1099.00,49.752
1100.00,49.742
1101.00,49.738
1102.00,49.726
1103.00,49.736
1104.00,49.720
1105.00,49.711
1106.00,49.692
1107.00,49.684
1108.00,49.669
1109.00,49.667
1110.00,49.652
1111.00,49.643
1112.00,49.618
1113.00,49.627
1114.00,49.619
1115.00,49.633
1116.00,49.648
1117.00,49.608
1118.00,49.596
1119.00,49.595
1120.00,49.592
1121.00,49.597
1122.00,49.585
1123.00,49.559
1124.00,49.551
1125.00,49.548
1126.00,49.545
1127.00,49.545
1128.00,49.528
1129.00,49.524
1130.00,49.510
1131.00,49.499
1132.00,49.501
1133.00,49.474
1134.00,49.464
1135.00,49.507
1136.00,49.508
1137.00,49.480
1138.00,49.471
1139.00,49.488
1140.00,49.471
1141.00,49.473
1142.00,49.451
1143.00,49.476
1144.00,49.447
1145.00,49.436
1146.00,49.438
1147.00,49.447
1148.00,49.433
1149.00,49.457
1150.00,49.463
1151.00,49.458
1152.00,49.443
1153.00,49.450
1154.00,49.421
1155.00,49.432
1156.00,49.426
1157.00,49.440
1158.00,49.438
1159.00,49.419
1160.00,49.438
1161.00,49.447
1162.00,49.443
1163.00,49.453
1164.00,49.439
1165.00,49.448
1166.00,49.429
1167.00,49.420
1168.00,49.451
1169.00,49.428
1170.00,49.429
1171.00,49.409
1172.00,49.414
1173.00,49.406
1174.00,49.414
1175.00,49.411
1176.00,49.415
1177.00,49.406
1178.00,49.403
1179.00,49.424
1180.00,49.416
1181.00,49.423
1182.00,49.407
1183.00,49.419
1184.00,49.388
1185.00,49.399
1186.00,49.393
1187.00,49.395
1188.00,49.394
1189.00,49.391
1190.00,49.397
1191.00,49.388
1192.00,49.413
1193.00,49.410
1194.00,49.419
1195.00,49.392
1196.00,49.429
1197.00,49.429
1198.00,49.408
1199.00,49.392
1200.00,49.409
1201.00,49.425
1202.00,49.397
1203.00,49.397
1204.00,49.394
1205.00,49.404
1206.00,49.392
1207.00,49.405
1208.00,49.402
1209.00,49.414
1210.00,49.407
1211.00,49.435
1212.00,49.452
1213.00,49.406
1214.00,49.448
1215.00,49.403
1216.00,49.417
1217.00,49.410
1218.00,49.398
1219.00,49.427
1220.00,49.395
1221.00,49.427
1222.00,49.417
1223.00,49.453
1224.00,49.458
1225.00,49.415
1226.00,49.426
1227.00,49.425
1228.00,49.450
1229.00,49.462
1230.00,49.475
1231.00,49.457
1232.00,49.473
1233.00,49.474
1234.00,49.472
1235.00,49.471
1236.00,49.464
1237.00,49.465
1238.00,49.469
1239.00,49.487
1240.00,49.478
1241.00,49.491
1242.00,49.499
1243.00,49.520
1244.00,49.496
1245.00,49.518
1246.00,49.518
1247.00,49.512
1248.00,49.512
1249.00,49.525
1250.00,49.518
1251.00,49.501
1252.00,49.519
1253.00,49.497
1254.00,49.539
1255.00,49.523
1256.00,49.507
1257.00,49.509
1258.00,49.562
1259.00,49.575
1260.00,49.590
1261.00,49.586
1262.00,49.573
1263.00,49.580
1264.00,49.580
1265.00,49.583
1266.00,49.589
1267.00,49.607
1268.00,49.610
1269.00,49.620
1270.00,49.641
1271.00,49.631
1272.00,49.619
1273.00,49.639
1274.00,49.642
1275.00,49.651
1276.00,49.642
1277.00,49.645
1278.00,49.659
1279.00,49.671
1280.00,49.663
1281.00,49.684
1282.00,49.700
1283.00,49.695
1284.00,49.699
1285.00,49.697
1286.00,49.698
1287.00,49.712
1288.00,49.703
1289.00,49.717
1290.00,49.753
1291.00,49.727
1292.00,49.744
1293.00,49.748
1294.00,49.752
1295.00,49.764
1296.00,49.766
1297.00,49.769
1298.00,49.804
1299.00,49.790
1300.00,49.807
1301.00,49.798
1302.00,49.825
1303.00,49.818
1304.00,49.815
1305.00,49.850
1306.00,49.843
1307.00,49.845
1308.00,49.844
1309.00,49.848
1310.00,49.853
1311.00,49.844
1312.00,49.866
1313.00,49.885
1314.00,49.902
1315.00,49.918
1316.00,49.911
1317.00,49.934
1318.00,49.935
1319.00,49.942
1320.00,49.947
1321.00,50.109
1322.00,50.101
1323.00,50.080
1324.00,50.068
1325.00,50.078
1326.00,50.105
1327.00,50.086
1328.00,50.090
1329.00,50.086
1330.00,50.099
1331.00,50.103
1332.00,50.112
1333.00,50.114
1334.00,50.133
1335.00,50.151
1336.00,50.174
1337.00,50.211
1338.00,50.269
1339.00,50.322
1340.00,50.367
1341.00,50.438
1342.00,50.502
1343.00,50.543
1344.00,50.600
1345.00,50.638
1346.00,50.693
1347.00,50.709
1348.00,50.711
1349.00,50.776
1350.00,50.769
1351.00,50.785
1352.00,50.766
1353.00,50.836
1354.00,50.805
1355.00,50.739
1356.00,50.866
1357.00,50.806
1358.00,50.807
1359.00,50.819
1360.00,50.833
1361.00,50.898
1362.00,50.754
1363.00,50.909
1364.00,51.034
1365.00,51.052
1366.00,50.920
1367.00,50.896
1368.00,50.796
1369.00,50.865
1370.00,50.841
1371.00,50.776
1372.00,50.845
1373.00,50.861
1374.00,50.853
1375.00,50.877
1376.00,50.858
1377.00,50.863
1378.00,50.912
1379.00,50.945
1380.00,50.966
1381.00,50.923
1382.00,50.897
1383.00,50.904
1384.00,50.847
1385.00,50.805
1386.00,50.881
1387.00,50.860
1388.00,50.830
1389.00,50.781
1390.00,50.845
1391.00,50.868
1392.00,50.847
1393.00,50.843
1394.00,50.863
1395.00,50.757
1396.00,50.811
1397.00,50.778
1398.00,50.832
1399.00,50.881
1400.00,50.838
1401.00,50.797
1402.00,50.851
1403.00,50.881
1404.00,50.871
1405.00,50.917
1406.00,50.915
1407.00,50.924
1408.00,50.901
1409.00,50.888
1410.00,50.951
1411.00,50.894
1412.00,50.998
1413.00,50.970
1414.00,50.970
1415.00,50.967
1416.00,51.013
1417.00,51.037
1418.00,51.027
1419.00,51.046
1420.00,51.039
1421.00,51.088
1422.00,51.070
1423.00,51.116
1424.00,51.120
1425.00,51.142
1426.00,51.093
1427.00,51.149
1428.00,51.143
1429.00,51.176
1430.00,51.180
1431.00,51.230
1432.00,51.236
1433.00,51.243
1434.00,51.245
1435.00,51.304
1436.00,51.299
1437.00,51.303
1438.00,51.344
1439.00,51.353
1440.00,51.362
1441.00,51.368
1442.00,51.391
1443.00,51.423
1444.00,51.445
1445.00,51.449
1446.00,51.482
1447.00,51.495
1448.00,51.524
1449.00,51.536
1450.00,51.542
1451.00,51.556
1452.00,51.595
1453.00,51.580
1454.00,51.629
1455.00,51.653
1456.00,51.651
1457.00,51.662
1458.00,51.681
1459.00,51.691
1460.00,51.725
1461.00,51.719
1462.00,51.766
1463.00,51.769
1464.00,51.774
1465.00,51.790
1466.00,51.787
1467.00,51.806
1468.00,51.883
1469.00,51.834
1470.00,51.872
1471.00,51.897
1472.00,51.888
1473.00,51.912
1474.00,51.937
1475.00,51.956
1476.00,51.980
1477.00,51.964
1478.00,51.995
1479.00,52.010
1480.00,52.016
1481.00,52.023
1482.00,52.061
1483.00,52.071
1484.00,52.091
1485.00,52.095
1486.00,52.094
1487.00,52.140
1488.00,52.154
1489.00,52.141
1490.00,52.167
1491.00,52.173
1492.00,52.198
1493.00,52.179
1494.00,52.232
1495.00,52.219
1496.00,52.246
1497.00,52.218
1498.00,52.245
1499.00,52.263
1500.00,52.282
1501.00, 
1502.00, 
1503.00, 
1504.00, 
1505.00, 
1506.00, 
1507.00, 
1508.00, 
1509.00, 
1510.00, 
1511.00, 
1512.00, 
1513.00, 
1514.00, 
1515.00, 
1516.00, 
1517.00, 
1518.00, 
1519.00, 
1520.00, 
1521.00, 
1522.00, 
1523.00, 
1524.00, 
1525.00, 
1526.00, 
1527.00, 
1528.00, 
1529.00, 
1530.00, 
1531.00, 
1532.00, 
1533.00, 
1534.00, 
1535.00, 
1536.00, 
1537.00, 
1538.00, 
1539.00, 
1540.00, 
1541.00, 
1542.00, 
1543.00, 
1544.00, 
1545.00, 
1546.00, 
1547.00, 
1548.00, 
1549.00, 
1550.00, 
1551.00, 
1552.00, 
1553.00, 
1554.00, 
1555.00, 
1556.00, 
1557.00, 
1558.00, 
1559.00, 
1560.00, 
1561.00, 
1562.00, 
1563.00, 
1564.00, 
1565.00, 
1566.00, 
1567.00, 
1568.00, 
1569.00, 
1570.00, 
1571.00, 
1572.00, 
1573.00, 
1574.00, 
1575.00, 
1576.00, 
1577.00, 
1578.00, 
1579.00, 
1580.00, 
1581.00, 
1582.00, 
1583.00, 
1584.00, 
1585.00, 
1586.00, 
1587.00, 
1588.00, 
1589.00, 
1590.00, 
1591.00, 
1592.00, 
1593.00, 
1594.00, 
1595.00, 
1596.00, 
1597.00, 
1598.00, 
1599.00, 
1600.00, 
1601.00, 
1602.00, 
1603.00, 
1604.00, 
1605.00, 
1606.00, 
1607.00, 
1608.00, 
1609.00, 
1610.00, 
1611.00, 
1612.00, 
1613.00, 
1614.00, 
1615.00, 
1616.00, 
1617.00, 
1618.00, 
1619.00, 
1620.00, 
1621.00, 
1622.00, 
1623.00, 
1624.00, 
1625.00, 
1626.00, 
1627.00, 
1628.00, 
1629.00, 
1630.00, 
1631.00, 
1632.00, 
1633.00, 
1634.00, 
1635.00, 
1636.00, 
1637.00, 
1638.00, 
1639.00, 
1640.00, 
1641.00, 
1642.00, 
1643.00, 
1644.00, 
1645.00, 
1646.00, 
1647.00, 
1648.00, 
1649.00, 
1650.00, 
1651.00, 
1652.00, 
1653.00, 
1654.00, 
1655.00, 
1656.00, 
1657.00, 
1658.00, 
1659.00, 
1660.00, 
1661.00, 
1662.00, 
1663.00, 
1664.00, 
1665.00, 
1666.00, 
1667.00, 
1668.00, 
1669.00, 
1670.00, 
1671.00, 
1672.00, 
1673.00, 
1674.00, 
1675.00, 
1676.00, 
1677.00, 
1678.00, 
1679.00, 
1680.00, 
1681.00, 
1682.00, 
1683.00, 
1684.00, 
1685.00, 
1686.00, 
1687.00, 
1688.00, 
1689.00, 
1690.00, 
1691.00, 
1692.00, 
1693.00, 
1694.00, 
1695.00, 
1696.00, 
1697.00, 
1698.00, 
1699.00, 
1700.00, 
1701.00, 
1702.00, 
1703.00, 
1704.00, 
1705.00, 
1706.00, 
1707.00, 
1708.00, 
1709.00, 
1710.00, 
1711.00, 
1712.00, 
1713.00, 
1714.00, 
1715.00, 
1716.00, 
1717.00, 
1718.00, 
1719.00, 
1720.00, 
1721.00, 
1722.00, 
1723.00, 
1724.00, 
1725.00, 
1726.00, 
1727.00, 
1728.00, 
1729.00, 
1730.00, 
1731.00, 
1732.00, 
1733.00, 
1734.00, 
1735.00, 
1736.00, 
1737.00, 
1738.00, 
1739.00, 
1740.00, 
1741.00, 
1742.00, 
1743.00, 
1744.00, 
1745.00, 
1746.00, 
1747.00, 
1748.00, 
1749.00, 
1750.00, 
1751.00, 
1752.00, 
1753.00, 
1754.00, 
1755.00, 
1756.00, 
1757.00, 
1758.00, 
1759.00, 
1760.00, 
1761.00, 
1762.00, 
1763.00, 
1764.00, 
1765.00, 
1766.00, 
1767.00, 
1768.00, 
1769.00, 
1770.00, 
1771.00, 
1772.00, 
1773.00, 
1774.00, 
1775.00, 
1776.00, 
1777.00, 
1778.00, 
1779.00, 
1780.00, 
1781.00, 
1782.00, 
1783.00, 
1784.00, 
1785.00, 
1786.00, 
1787.00, 
1788.00, 
1789.00, 
1790.00, 
1791.00, 
1792.00, 
1793.00, 
1794.00, 
1795.00, 
1796.00, 
1797.00, 
1798.00, 
1799.00, 
1800.00, 
1801.00, 
1802.00, 
1803.00, 
1804.00, 
1805.00, 
1806.00, 
1807.00, 
1808.00, 
1809.00, 
1810.00, 
1811.00, 
1812.00, 
1813.00, 
1814.00, 
1815.00, 
1816.00, 
1817.00, 
1818.00, 
1819.00, 
1820.00, 
1821.00, 
1822.00, 
1823.00, 
1824.00, 
1825.00, 
1826.00, 
1827.00, 
1828.00, 
1829.00, 
1830.00, 
1831.00, 
1832.00, 
1833.00, 
1834.00, 
1835.00, 
1836.00, 
1837.00, 
1838.00, 
1839.00, 
1840.00, 
1841.00, 
1842.00, 
1843.00, 
1844.00, 
1845.00, 
1846.00, 
1847.00, 
1848.00, 
1849.00, 
1850.00, 
1851.00, 
1852.00, 
1853.00, 
1854.00, 
1855.00, 
1856.00, 
1857.00, 
1858.00, 
1859.00, 
1860.00, 
1861.00, 
1862.00, 
1863.00, 
1864.00, 
1865.00, 
1866.00, 
1867.00, 
1868.00, 
1869.00, 
1870.00, 
1871.00, 
1872.00, 
1873.00, 
1874.00, 
1875.00, 
1876.00, 
1877.00, 
1878.00, 
1879.00, 
1880.00, 
1881.00, 
1882.00, 
1883.00, 
1884.00, 
1885.00, 
1886.00, 
1887.00, 
1888.00, 
1889.00, 
1890.00, 
1891.00, 
1892.00, 
1893.00, 
1894.00, 
1895.00, 
1896.00, 
1897.00, 
1898.00, 
1899.00, 
1900.00, 
1901.00, 
1902.00, 
1903.00, 
1904.00, 
1905.00, 
1906.00, 
1907.00, 
1908.00, 
1909.00, 
1910.00, 
1911.00, 
1912.00, 
1913.00, 
1914.00, 
1915.00, 
1916.00, 
1917.00, 
1918.00, 
1919.00, 
1920.00, 
1921.00, 
1922.00, 
1923.00, 
1924.00, 
1925.00, 
1926.00, 
1927.00, 
1928.00, 
1929.00, 
1930.00, 
1931.00, 
1932.00, 
1933.00, 
1934.00, 
1935.00, 
1936.00, 
1937.00, 
1938.00, 
1939.00, 
1940.00, 
1941.00, 
1942.00, 
1943.00, 
1944.00, 
1945.00, 
1946.00, 
1947.00, 
1948.00, 
1949.00, 
1950.00, 
1951.00, 
1952.00, 
1953.00, 
1954.00, 
1955.00, 
1956.00, 
1957.00, 
1958.00, 
1959.00, 
1960.00, 
1961.00, 
1962.00, 
1963.00, 
1964.00, 
1965.00, 
1966.00, 
1967.00, 
1968.00, 
1969.00, 
1970.00, 
1971.00, 
1972.00, 
1973.00, 
1974.00, 
1975.00, 
1976.00, 
1977.00, 
1978.00, 
1979.00, 
1980.00, 
1981.00, 
1982.00, 
1983.00, 
1984.00, 
1985.00, 
1986.00, 
1987.00, 
1988.00, 
1989.00, 
1990.00, 
1991.00, 
1992.00, 
1993.00, 
1994.00, 
1995.00, 
1996.00, 
1997.00, 
1998.00, 
1999.00, 
2000.00, 
2001.00, 
2002.00, 
2003.00, 
2004.00, 
2005.00, 
2006.00, 
2007.00, 
2008.00, 
2009.00, 
2010.00, 
2011.00, 
2012.00, 
2013.00, 
2014.00, 
2015.00, 
2016.00, 
2017.00, 
2018.00, 
2019.00, 
2020.00, 
2021.00, 
2022.00, 
2023.00, 
2024.00, 
2025.00, 
2026.00, 
2027.00, 
2028.00, 
2029.00, 
2030.00, 
2031.00, 
2032.00, 
2033.00, 
2034.00, 
2035.00, 
2036.00, 
2037.00, 
2038.00, 
2039.00, 
2040.00, 
2041.00, 
2042.00, 
2043.00, 
2044.00, 
2045.00, 
2046.00, 
2047.00, 
2048.00, 
2049.00, 
2050.00, 
2051.00, 
2052.00, 
2053.00, 
2054.00, 
2055.00, 
2056.00, 
2057.00, 
2058.00, 
2059.00, 
2060.00, 
2061.00, 
2062.00, 
2063.00, 
2064.00, 
2065.00, 
2066.00, 
2067.00, 
2068.00, 
2069.00, 
2070.00, 
2071.00, 
2072.00, 
2073.00, 
2074.00, 
2075.00, 
2076.00, 
2077.00, 
2078.00, 
2079.00, 
2080.00, 
2081.00, 
2082.00, 
2083.00, 
2084.00, 
2085.00, 
2086.00, 
2087.00, 
2088.00, 
2089.00, 
2090.00, 
2091.00, 
2092.00, 
2093.00, 
2094.00, 
2095.00, 
2096.00, 
2097.00, 
2098.00, 
2099.00, 
2100.00, 
2101.00, 
2102.00, 
2103.00, 
2104.00, 
2105.00, 
2106.00, 
2107.00, 
2108.00, 
2109.00, 
2110.00, 
2111.00, 
2112.00, 
2113.00, 
2114.00, 
2115.00, 
2116.00, 
2117.00, 
2118.00, 
2119.00, 
2120.00, 
2121.00, 
2122.00, 
2123.00, 
2124.00, 
2125.00, 
2126.00, 
2127.00, 
2128.00, 
2129.00, 
2130.00, 
2131.00, 
2132.00, 
2133.00, 
2134.00, 
2135.00, 
2136.00, 
2137.00, 
2138.00, 
2139.00, 
2140.00, 
2141.00, 
2142.00, 
2143.00, 
2144.00, 
2145.00, 
2146.00, 
2147.00, 
2148.00, 
2149.00, 
2150.00, 
2151.00, 
2152.00, 
2153.00, 
2154.00, 
2155.00, 
2156.00, 
2157.00, 
2158.00, 
2159.00, 
2160.00, 
2161.00, 
2162.00, 
2163.00, 
2164.00, 
2165.00, 
2166.00, 
2167.00, 
2168.00, 
2169.00, 
2170.00, 
2171.00, 
2172.00, 
2173.00, 
2174.00, 
2175.00, 
2176.00, 
2177.00, 
2178.00, 
2179.00, 
2180.00, 
2181.00, 
2182.00, 
2183.00, 
2184.00, 
2185.00, 
2186.00, 
2187.00, 
2188.00, 
2189.00, 
2190.00, 
2191.00, 
2192.00, 
2193.00, 
2194.00, 
2195.00, 
2196.00, 
2197.00, 
2198.00, 
2199.00, 
2200.00, 
2201.00, 
2202.00, 
2203.00, 
2204.00, 
2205.00, 
2206.00, 
2207.00, 
2208.00, 
2209.00, 
2210.00, 
2211.00, 
2212.00, 
2213.00, 
2214.00, 
2215.00, 
2216.00, 
2217.00, 
2218.00, 
2219.00, 
2220.00, 
2221.00, 
2222.00, 
2223.00, 
2224.00, 
2225.00, 
2226.00, 
2227.00, 
2228.00, 
2229.00, 
2230.00, 
2231.00, 
2232.00, 
2233.00, 
2234.00, 
2235.00, 
2236.00, 
2237.00, 
2238.00, 
2239.00, 
2240.00, 
2241.00, 
2242.00, 
2243.00, 
2244.00, 
2245.00, 
2246.00, 
2247.00, 
2248.00, 
2249.00, 
2250.00, 
2251.00, 
2252.00, 
2253.00, 
2254.00, 
2255.00, 
2256.00, 
2257.00, 
2258.00, 
2259.00, 
2260.00, 
2261.00, 
2262.00, 
2263.00, 
2264.00, 
2265.00, 
2266.00, 
2267.00, 
2268.00, 
2269.00, 
2270.00, 
2271.00, 
2272.00, 
2273.00, 
2274.00, 
2275.00, 
2276.00, 
2277.00, 
2278.00, 
2279.00, 
2280.00, 
2281.00, 
2282.00, 
2283.00, 
2284.00, 
2285.00, 
2286.00, 
2287.00, 
2288.00, 
2289.00, 
2290.00, 
2291.00, 
2292.00, 
2293.00, 
2294.00, 
2295.00, 
2296.00, 
2297.00, 
2298.00, 
2299.00, 
2300.00, 
2301.00, 
2302.00, 
2303.00, 
2304.00, 
2305.00, 
2306.00, 
2307.00, 
2308.00, 
2309.00, 
2310.00, 
2311.00, 
2312.00, 
2313.00, 
2314.00, 
2315.00, 
2316.00, 
2317.00, 
2318.00, 
2319.00, 
2320.00, 
2321.00, 
2322.00, 
2323.00, 
2324.00, 
2325.00, 
2326.00, 
2327.00, 
2328.00, 
2329.00, 
2330.00, 
2331.00, 
2332.00, 
2333.00, 
2334.00, 
2335.00, 
2336.00, 
2337.00, 
2338.00, 
2339.00, 
2340.00, 
2341.00, 
2342.00, 
2343.00, 
2344.00, 
2345.00, 
2346.00, 
2347.00, 
2348.00, 
2349.00, 
2350.00, 
2351.00, 
2352.00, 
2353.00, 
2354.00, 
2355.00, 
2356.00, 
2357.00, 
2358.00, 
2359.00, 
2360.00, 
2361.00, 
2362.00, 
2363.00, 
2364.00, 
2365.00, 
2366.00, 
2367.00, 
2368.00, 
2369.00, 
2370.00, 
2371.00, 
2372.00, 
2373.00, 
2374.00, 
2375.00, 
2376.00, 
2377.00, 
2378.00, 
2379.00, 
2380.00, 
2381.00, 
2382.00, 
2383.00, 
2384.00, 
2385.00, 
2386.00, 
2387.00, 
2388.00, 
2389.00, 
2390.00, 
2391.00, 
2392.00, 
2393.00, 
2394.00, 
2395.00, 
2396.00, 
2397.00, 
2398.00, 
2399.00, 
2400.00, 
2401.00, 
2402.00, 
2403.00, 
2404.00, 
2405.00, 
2406.00, 
2407.00, 
2408.00, 
2409.00, 
2410.00, 
2411.00, 
2412.00, 
2413.00, 
2414.00, 
2415.00, 
2416.00, 
2417.00, 
2418.00, 
2419.00, 
2420.00, 
2421.00, 
2422.00, 
2423.00, 
2424.00, 
2425.00, 
2426.00, 
2427.00, 
2428.00, 
2429.00, 
2430.00, 
2431.00, 
2432.00, 
2433.00, 
2434.00, 
2435.00, 
2436.00, 
2437.00, 
2438.00, 
2439.00, 
2440.00, 
2441.00, 
2442.00, 
2443.00, 
2444.00, 
2445.00, 
2446.00, 
2447.00, 
2448.00, 
2449.00, 
2450.00, 
2451.00, 
2452.00, 
2453.00, 
2454.00, 
2455.00, 
2456.00, 
2457.00, 
2458.00, 
2459.00, 
2460.00, 
2461.00, 
2462.00, 
2463.00, 
2464.00, 
2465.00, 
2466.00, 
2467.00, 
2468.00, 
2469.00, 
2470.00, 
2471.00, 
2472.00, 
2473.00, 
2474.00, 
2475.00, 
2476.00, 
2477.00, 
2478.00, 
2479.00, 
2480.00, 
2481.00, 
2482.00, 
2483.00, 
2484.00, 
2485.00, 
2486.00, 
2487.00, 
2488.00, 
2489.00, 
2490.00, 
2491.00, 
2492.00, 
2493.00, 
2494.00, 
2495.00, 
2496.00, 
2497.00, 
2498.00, 
2499.00, 
2500.00, 
2501.00, 
2502.00, 
2503.00, 
2504.00, 
2505.00, 
2506.00, 
2507.00, 
2508.00, 
2509.00, 
2510.00, 
2511.00, 
2512.00, 
2513.00, 
2514.00, 
2515.00, 
2516.00, 
2517.00, 
2518.00, 
2519.00, 
2520.00, 
2521.00, 
2522.00, 
2523.00, 
2524.00, 
2525.00, 
2526.00, 
2527.00, 
2528.00, 
2529.00, 
2530.00, 
2531.00, 
2532.00, 
2533.00, 
2534.00, 
2535.00, 
2536.00, 
2537.00, 
2538.00, 
2539.00, 
2540.00, 
2541.00, 
2542.00, 
2543.00, 
2544.00, 
2545.00, 
2546.00, 
2547.00, 
2548.00, 
2549.00, 
2550.00, 
2551.00, 
2552.00, 
2553.00, 
2554.00, 
2555.00, 
2556.00, 
2557.00, 
2558.00, 
2559.00, 
2560.00, 
2561.00, 
2562.00, 
2563.00, 
2564.00, 
2565.00, 
2566.00, 
2567.00, 
2568.00, 
2569.00, 
2570.00, 
2571.00, 
2572.00, 
2573.00, 
2574.00, 
2575.00, 
2576.00, 
2577.00, 
2578.00, 
2579.00, 
2580.00, 
2581.00, 
2582.00, 
2583.00, 
2584.00, 
2585.00, 
2586.00, 
2587.00, 
2588.00, 
2589.00, 
2590.00, 
2591.00, 
2592.00, 
2593.00, 
2594.00, 
2595.00, 
2596.00, 
2597.00, 
2598.00, 
2599.00, 
2600.00, 
