"2aP2 - RawData"
"Wavelength nm.","T%"
200.00,-0.001
201.00,-0.000
202.00,-0.000
203.00,0.001
204.00,0.001
205.00,0.003
206.00,0.002
207.00,-0.002
208.00,-0.003
209.00,0.000
210.00,0.000
211.00,0.003
212.00,0.002
213.00,0.001
214.00,0.000
215.00,0.002
216.00,0.002
217.00,0.002
218.00,0.000
219.00,0.003
220.00,0.000
221.00,-0.003
222.00,0.001
223.00,0.001
224.00,-0.000
225.00,-0.000
226.00,0.002
227.00,0.004
228.00,0.002
229.00,0.002
230.00,0.003
231.00,0.003
232.00,-0.000
233.00,0.003
234.00,0.004
235.00,0.003
236.00,0.002
237.00,0.001
238.00,0.001
239.00,-0.001
240.00,0.001
241.00,0.003
242.00,0.002
243.00,0.002
244.00,0.002
245.00,0.000
246.00,0.000
247.00,0.002
248.00,0.002
249.00,0.001
250.00,-0.000
251.00,0.002
252.00,0.001
253.00,0.002
254.00,0.001
255.00,-0.000
256.00,-0.001
257.00,0.002
258.00,0.001
259.00,0.002
260.00,0.002
261.00,0.001
262.00,0.000
263.00,0.001
264.00,0.000
265.00,0.001
266.00,0.002
267.00,-0.000
268.00,-0.001
269.00,-0.000
270.00,0.001
271.00,-0.000
272.00,-0.001
273.00,-0.001
274.00,0.001
275.00,-0.000
276.00,0.001
277.00,-0.000
278.00,0.000
279.00,-0.000
280.00,-0.001
281.00,0.001
282.00,0.001
283.00,-0.000
284.00,0.000
285.00,-0.000
286.00,-0.001
287.00,0.001
288.00,0.001
289.00,-0.001
290.00,-0.001
291.00,-0.000
292.00,-0.002
293.00,0.000
294.00,0.001
295.00,-0.001
296.00,0.000
297.00,0.001
298.00,0.000
299.00,0.001
300.00,0.000
301.00,0.006
302.00,0.004
303.00,0.008
304.00,0.011
305.00,0.015
306.00,0.029
307.00,0.039
308.00,0.060
309.00,0.096
310.00,0.132
311.00,0.178
312.00,0.244
313.00,0.330
314.00,0.436
315.00,0.562
316.00,0.706
317.00,0.907
318.00,1.110
319.00,1.381
320.00,1.660
321.00,1.977
322.00,2.346
323.00,2.761
324.00,3.196
325.00,3.641
326.00,4.103
327.00,4.648
328.00,5.191
329.00,5.691
330.00,6.297
331.00,6.862
332.00,7.446
333.00,8.019
334.00,8.697
335.00,9.280
336.00,9.906
337.00,10.517
338.00,11.126
339.00,11.649
340.00,12.213
341.00,12.803
342.00,13.289
343.00,13.763
344.00,14.249
345.00,14.745
346.00,15.165
347.00,15.547
348.00,15.922
349.00,16.316
350.00,16.625
351.00,16.957
352.00,17.245
353.00,17.518
354.00,17.754
355.00,18.036
356.00,18.244
357.00,18.431
358.00,18.633
359.00,18.878
360.00,19.040
361.00,19.184
362.00,19.325
363.00,19.483
364.00,19.522
365.00,19.587
366.00,19.710
367.00,19.766
368.00,19.799
369.00,19.850
370.00,19.883
371.00,19.884
372.00,19.951
373.00,19.854
374.00,19.916
375.00,19.936
376.00,19.879
377.00,19.801
378.00,19.754
379.00,19.694
380.00,19.709
381.00,19.683
382.00,19.637
383.00,19.678
384.00,19.659
385.00,19.687
386.00,19.723
387.00,19.756
388.00,19.814
389.00,19.792
390.00,19.823
391.00,19.851
392.00,19.832
393.00,19.835
394.00,19.835
395.00,19.880
396.00,19.861
397.00,19.860
398.00,19.860
399.00,19.859
400.00,19.870
401.00,19.861
402.00,19.865
403.00,19.852
404.00,19.863
405.00,19.850
406.00,19.850
407.00,19.813
408.00,19.815
409.00,19.757
410.00,19.724
411.00,19.778
412.00,19.715
413.00,19.737
414.00,19.720
415.00,19.754
416.00,19.773
417.00,19.758
418.00,19.788
419.00,19.869
420.00,19.934
421.00,19.953
422.00,19.966
423.00,20.026
424.00,20.018
425.00,20.073
426.00,20.092
427.00,20.170
428.00,20.207
429.00,20.248
430.00,20.342
431.00,20.420
432.00,20.386
433.00,20.465
434.00,20.523
435.00,20.591
436.00,20.662
437.00,20.705
438.00,20.794
439.00,20.906
440.00,20.962
441.00,21.021
442.00,21.121
443.00,21.164
444.00,21.317
445.00,21.435
446.00,21.514
447.00,21.606
448.00,21.698
449.00,21.784
450.00,21.880
451.00,22.009
452.00,22.095
453.00,22.240
454.00,22.322
455.00,22.446
456.00,22.582
457.00,22.684
458.00,22.801
459.00,22.969
460.00,23.089
461.00,23.204
462.00,23.317
463.00,23.472
464.00,23.613
465.00,23.738
466.00,23.878
467.00,24.038
468.00,24.121
469.00,24.220
470.00,24.350
471.00,24.461
472.00,24.586
473.00,24.653
474.00,24.801
475.00,24.936
476.00,25.040
477.00,25.189
478.00,25.301
479.00,25.488
480.00,25.613
481.00,25.744
482.00,25.920
483.00,26.057
484.00,26.247
485.00,26.383
486.00,26.564
487.00,26.708
488.00,26.862
489.00,27.030
490.00,27.155
491.00,27.312
492.00,27.545
493.00,27.678
494.00,27.704
495.00,27.829
496.00,27.993
497.00,28.117
498.00,28.271
499.00,28.428
500.00,28.538
501.00,28.664
502.00,28.781
503.00,28.931
504.00,29.008
505.00,29.163
506.00,29.293
507.00,29.374
508.00,29.526
509.00,29.648
510.00,29.840
511.00,29.932
512.00,30.083
513.00,30.193
514.00,30.316
515.00,30.443
516.00,30.583
517.00,30.665
518.00,30.811
519.00,30.883
520.00,30.962
521.00,31.089
522.00,31.191
523.00,31.202
524.00,31.329
525.00,31.450
526.00,31.548
527.00,31.592
528.00,31.702
529.00,31.881
530.00,32.032
531.00,32.093
532.00,32.212
533.00,32.336
534.00,32.424
535.00,32.497
536.00,32.595
537.00,32.663
538.00,32.712
539.00,32.821
540.00,32.922
541.00,32.925
542.00,32.952
543.00,33.093
544.00,33.146
545.00,33.230
546.00,33.302
547.00,33.436
548.00,33.526
549.00,33.546
550.00,33.617
551.00,33.762
552.00,33.795
553.00,33.829
554.00,33.933
555.00,33.948
556.00,34.042
557.00,34.119
558.00,34.167
559.00,34.269
560.00,34.301
561.00,34.354
562.00,34.449
563.00,34.561
564.00,34.507
565.00,34.525
566.00,34.534
567.00,34.577
568.00,34.616
569.00,34.752
570.00,34.822
571.00,34.731
572.00,34.791
573.00,34.849
574.00,34.855
575.00,34.907
576.00,34.925
577.00,34.965
578.00,35.080
579.00,35.141
580.00,35.173
581.00,35.364
582.00,35.402
583.00,35.414
584.00,35.492
585.00,35.560
586.00,35.626
587.00,35.670
588.00,35.696
589.00,35.691
590.00,35.812
591.00,35.910
592.00,35.821
593.00,35.893
594.00,35.967
595.00,36.086
596.00,36.167
597.00,36.206
598.00,36.326
599.00,36.230
600.00,36.314
601.00,36.376
602.00,36.374
603.00,36.414
604.00,36.442
605.00,36.546
606.00,36.550
607.00,36.595
608.00,36.755
609.00,36.845
610.00,36.701
611.00,36.780
612.00,36.820
613.00,36.887
614.00,36.958
615.00,37.061
616.00,37.178
617.00,37.137
618.00,37.130
619.00,37.233
620.00,37.268
621.00,37.321
622.00,37.411
623.00,37.509
624.00,37.584
625.00,37.620
626.00,37.730
627.00,37.779
628.00,37.831
629.00,37.849
630.00,37.938
631.00,37.983
632.00,38.085
633.00,38.219
634.00,38.313
635.00,38.428
636.00,38.501
637.00,38.525
638.00,38.557
639.00,38.701
640.00,38.710
641.00,38.805
642.00,38.930
643.00,38.955
644.00,38.986
645.00,39.113
646.00,39.346
647.00,39.372
648.00,39.459
649.00,39.428
650.00,39.551
651.00,39.745
652.00,39.819
653.00,39.792
654.00,39.890
655.00,40.135
656.00,40.392
657.00,40.332
658.00,40.396
659.00,40.422
660.00,40.574
661.00,40.643
662.00,40.679
663.00,40.833
664.00,41.059
665.00,41.252
666.00,41.151
667.00,41.181
668.00,41.217
669.00,41.574
670.00,41.807
671.00,41.733
672.00,41.870
673.00,41.999
674.00,42.030
675.00,42.136
676.00,42.307
677.00,42.547
678.00,42.342
679.00,42.525
680.00,42.728
681.00,42.862
682.00,42.972
683.00,42.937
684.00,43.142
685.00,43.220
686.00,43.128
687.00,43.359
688.00,43.398
689.00,43.467
690.00,43.741
691.00,44.031
692.00,43.859
693.00,43.840
694.00,44.111
695.00,44.283
696.00,44.354
697.00,44.388
698.00,44.502
699.00,44.714
700.00,44.806
701.00,44.805
702.00,44.915
703.00,45.086
704.00,45.154
705.00,45.197
706.00,45.205
707.00,45.395
708.00,45.286
709.00,45.675
710.00,46.100
711.00,45.661
712.00,45.692
713.00,45.941
714.00,45.999
715.00,46.048
716.00,46.028
717.00,46.236
718.00,46.407
719.00,46.381
720.00,46.456
721.00,50.937
722.00,50.984
723.00,51.054
724.00,51.013
725.00,51.066
726.00,51.149
727.00,51.186
728.00,51.220
729.00,51.213
730.00,51.330
731.00,51.358
732.00,51.383
733.00,51.442
734.00,51.516
735.00,51.576
736.00,51.539
737.00,51.623
738.00,51.700
739.00,51.733
740.00,51.825
741.00,51.884
742.00,51.861
743.00,51.902
744.00,51.897
745.00,51.974
746.00,51.944
747.00,52.029
748.00,51.992
749.00,51.993
750.00,52.051
751.00,52.128
752.00,52.040
753.00,52.090
754.00,52.035
755.00,52.222
756.00,52.151
757.00,52.245
758.00,52.194
759.00,52.260
760.00,52.262
761.00,52.291
762.00,52.322
763.00,52.407
764.00,52.342
765.00,52.354
766.00,52.415
767.00,52.450
768.00,52.492
769.00,52.423
770.00,52.442
771.00,52.557
772.00,52.511
773.00,52.574
774.00,52.624
775.00,52.610
776.00,52.511
777.00,52.626
778.00,52.624
779.00,52.677
780.00,52.604
781.00,52.631
782.00,52.628
783.00,52.654
784.00,52.714
785.00,52.716
786.00,52.760
787.00,52.677
788.00,52.753
789.00,52.706
790.00,52.619
791.00,52.736
792.00,52.629
793.00,52.698
794.00,52.746
795.00,52.719
796.00,52.723
797.00,52.616
798.00,52.712
799.00,52.571
800.00,52.677
801.00,52.751
802.00,52.691
803.00,52.612
804.00,52.652
805.00,52.601
806.00,52.613
807.00,52.571
808.00,52.614
809.00,52.617
810.00,52.496
811.00,52.598
812.00,52.621
813.00,52.581
814.00,52.558
815.00,52.578
816.00,52.615
817.00,52.623
818.00,52.524
819.00,52.419
820.00,52.546
821.00,52.463
822.00,52.469
823.00,52.450
824.00,52.414
825.00,52.377
826.00,52.485
827.00,52.558
828.00,52.493
829.00,52.455
830.00,52.463
831.00,54.580
832.00,54.578
833.00,54.547
834.00,54.572
835.00,54.497
836.00,54.513
837.00,54.506
838.00,54.478
839.00,54.478
840.00,54.420
841.00,54.461
842.00,54.433
843.00,54.406
844.00,54.417
845.00,54.382
846.00,54.392
847.00,54.351
848.00,54.331
849.00,54.303
850.00,54.273
851.00,54.215
852.00,54.207
853.00,54.198
854.00,54.173
855.00,54.116
856.00,54.131
857.00,54.061
858.00,54.067
859.00,54.037
860.00,54.028
861.00,54.058
862.00,53.982
863.00,54.020
864.00,53.970
865.00,54.021
866.00,53.735
867.00,53.983
868.00,53.957
869.00,53.923
870.00,53.960
871.00,53.912
872.00,53.909
873.00,53.895
874.00,53.908
875.00,53.864
876.00,53.895
877.00,53.990
878.00,53.894
879.00,53.835
880.00,53.820
881.00,53.790
882.00,53.828
883.00,53.759
884.00,53.746
885.00,53.729
886.00,53.724
887.00,53.684
888.00,53.643
889.00,53.659
890.00,53.699
891.00,53.645
892.00,53.581
893.00,53.744
894.00,53.605
895.00,53.561
896.00,53.575
897.00,53.555
898.00,53.503
899.00,53.521
900.00,53.515
901.00,53.497
902.00,53.503
903.00,53.460
904.00,53.472
905.00,53.422
906.00,53.415
907.00,53.401
908.00,53.372
909.00,53.358
910.00,53.323
911.00,53.312
912.00,53.320
913.00,53.281
914.00,53.277
915.00,53.243
916.00,53.166
917.00,53.281
918.00,53.199
919.00,53.174
920.00,53.152
921.00,53.131
922.00,53.143
923.00,53.127
924.00,53.076
925.00,53.062
926.00,53.078
927.00,53.038
928.00,53.009
929.00,53.038
930.00,52.988
931.00,52.960
932.00,53.009
933.00,52.943
934.00,52.915
935.00,52.905
936.00,52.858
937.00,52.853
938.00,52.841
939.00,52.847
940.00,52.811
941.00,52.805
942.00,52.759
943.00,52.786
944.00,52.734
945.00,52.747
946.00,52.775
947.00,52.690
948.00,52.666
949.00,52.651
950.00,52.623
951.00,52.617
952.00,52.603
953.00,52.558
954.00,52.555
955.00,52.499
956.00,52.502
957.00,52.462
958.00,52.455
959.00,52.404
960.00,52.399
961.00,52.391
962.00,52.397
963.00,52.339
964.00,52.334
965.00,52.345
966.00,52.317
967.00,52.316
968.00,52.303
969.00,52.307
970.00,52.296
971.00,52.297
972.00,52.264
973.00,52.314
974.00,52.322
975.00,52.291
976.00,52.313
977.00,52.275
978.00,52.401
979.00,52.290
980.00,52.300
981.00,52.296
982.00,52.273
983.00,52.274
984.00,52.252
985.00,52.290
986.00,52.229
987.00,52.279
988.00,52.213
989.00,52.218
990.00,52.210
991.00,52.183
992.00,52.220
993.00,52.209
994.00,52.157
995.00,52.156
996.00,52.152
997.00,52.131
998.00,52.114
999.00,52.137
1000.00,52.073
1001.00,52.072
1002.00,52.046
1003.00,52.053
1004.00,52.030
1005.00,52.002
1006.00,52.054
1007.00,52.016
1008.00,52.001
1009.00,51.991
1010.00,51.982
1011.00,51.977
1012.00,51.934
1013.00,51.943
1014.00,51.902
1015.00,51.934
1016.00,51.874
1017.00,51.881
1018.00,51.855
1019.00,51.815
1020.00,51.826
1021.00,51.789
1022.00,51.798
1023.00,51.750
1024.00,51.759
1025.00,51.749
1026.00,51.749
1027.00,51.709
1028.00,51.708
1029.00,51.697
1030.00,51.644
1031.00,51.666
1032.00,51.608
1033.00,51.607
1034.00,51.581
1035.00,51.525
1036.00,51.521
1037.00,51.507
1038.00,51.504
1039.00,51.487
1040.00,51.477
1041.00,51.441
1042.00,51.448
1043.00,51.419
1044.00,51.446
1045.00,51.424
1046.00,51.402
1047.00,51.440
1048.00,51.447
1049.00,51.449
1050.00,51.460
1051.00,51.497
1052.00,51.488
1053.00,51.509
1054.00,51.524
1055.00,51.513
1056.00,51.517
1057.00,51.511
1058.00,51.502
1059.00,51.496
1060.00,51.507
1061.00,51.501
1062.00,51.480
1063.00,51.478
1064.00,51.481
1065.00,51.465
1066.00,51.445
1067.00,51.430
1068.00,51.456
1069.00,51.422
1070.00,51.404
1071.00,51.391
1072.00,51.420
1073.00,51.395
1074.00,51.386
1075.00,51.374
1076.00,51.383
1077.00,51.360
1078.00,51.331
1079.00,51.325
1080.00,51.335
1081.00,51.324
1082.00,51.314
1083.00,51.322
1084.00,51.304
1085.00,51.293
1086.00,51.291
1087.00,51.296
1088.00,51.267
1089.00,51.265
1090.00,51.259
1091.00,51.251
1092.00,51.242
1093.00,51.219
1094.00,51.213
1095.00,51.211
1096.00,51.182
1097.00,51.205
1098.00,51.181
1099.00,51.183
1100.00,51.193
1101.00,51.147
1102.00,51.141
1103.00,51.143
1104.00,51.127
1105.00,51.132
1106.00,51.105
1107.00,51.095
1108.00,51.085
1109.00,51.065
1110.00,51.055
1111.00,51.058
1112.00,51.038
1113.00,51.077
1114.00,51.042
1115.00,51.031
1116.00,51.034
1117.00,51.014
1118.00,50.991
1119.00,50.996
1120.00,50.981
1121.00,50.975
1122.00,50.964
1123.00,50.957
1124.00,50.932
1125.00,50.942
1126.00,50.939
1127.00,50.939
1128.00,50.941
1129.00,50.921
1130.00,50.936
1131.00,50.925
1132.00,50.904
1133.00,50.896
1134.00,50.892
1135.00,50.883
1136.00,50.883
1137.00,50.882
1138.00,50.877
1139.00,50.899
1140.00,50.874
1141.00,50.872
1142.00,50.844
1143.00,50.845
1144.00,50.823
1145.00,50.817
1146.00,50.816
1147.00,50.813
1148.00,50.797
1149.00,50.822
1150.00,50.822
1151.00,50.817
1152.00,50.810
1153.00,50.805
1154.00,50.790
1155.00,50.807
1156.00,50.784
1157.00,50.798
1158.00,50.798
1159.00,50.787
1160.00,50.787
1161.00,50.800
1162.00,50.784
1163.00,50.788
1164.00,50.791
1165.00,50.778
1166.00,50.783
1167.00,50.756
1168.00,50.772
1169.00,50.762
1170.00,50.759
1171.00,50.740
1172.00,50.743
1173.00,50.738
1174.00,50.756
1175.00,50.742
1176.00,50.747
1177.00,50.754
1178.00,50.734
1179.00,50.763
1180.00,50.743
1181.00,50.760
1182.00,50.752
1183.00,50.738
1184.00,50.713
1185.00,50.730
1186.00,50.715
1187.00,50.698
1188.00,50.712
1189.00,50.704
1190.00,50.698
1191.00,50.703
1192.00,50.717
1193.00,50.713
1194.00,50.712
1195.00,50.683
1196.00,50.729
1197.00,50.720
1198.00,50.707
1199.00,50.700
1200.00,50.701
1201.00,50.724
1202.00,50.709
1203.00,50.691
1204.00,50.692
1205.00,50.719
1206.00,50.703
1207.00,50.718
1208.00,50.703
1209.00,50.712
1210.00,50.711
1211.00,50.694
1212.00,50.724
1213.00,50.685
1214.00,50.702
1215.00,50.685
1216.00,50.696
1217.00,50.690
1218.00,50.674
1219.00,50.703
1220.00,50.677
1221.00,50.688
1222.00,50.668
1223.00,50.706
1224.00,50.696
1225.00,50.669
1226.00,50.693
1227.00,50.679
1228.00,50.696
1229.00,50.695
1230.00,50.721
1231.00,50.708
1232.00,50.722
1233.00,50.723
1234.00,50.719
1235.00,50.724
1236.00,50.713
1237.00,50.729
1238.00,50.712
1239.00,50.708
1240.00,50.704
1241.00,50.712
1242.00,50.711
1243.00,50.727
1244.00,50.696
1245.00,50.740
1246.00,50.734
1247.00,50.718
1248.00,50.730
1249.00,50.758
1250.00,50.738
1251.00,50.725
1252.00,50.738
1253.00,50.713
1254.00,50.756
1255.00,50.741
1256.00,50.733
1257.00,50.728
1258.00,50.756
1259.00,50.761
1260.00,50.776
1261.00,50.760
1262.00,50.762
1263.00,50.761
1264.00,50.767
1265.00,50.766
1266.00,50.769
1267.00,50.778
1268.00,50.789
1269.00,50.788
1270.00,50.822
1271.00,50.816
1272.00,50.801
1273.00,50.837
1274.00,50.816
1275.00,50.818
1276.00,50.811
1277.00,50.807
1278.00,50.827
1279.00,50.828
1280.00,50.822
1281.00,50.840
1282.00,50.838
1283.00,50.829
1284.00,50.851
1285.00,50.836
1286.00,50.849
1287.00,50.848
1288.00,50.847
1289.00,50.848
1290.00,50.880
1291.00,50.868
1292.00,50.883
1293.00,50.880
1294.00,50.892
1295.00,50.917
1296.00,50.901
1297.00,50.917
1298.00,50.950
1299.00,50.913
1300.00,50.939
1301.00,50.937
1302.00,50.946
1303.00,50.962
1304.00,50.943
1305.00,50.956
1306.00,50.970
1307.00,50.979
1308.00,50.968
1309.00,50.973
1310.00,50.978
1311.00,50.976
1312.00,50.992
1313.00,50.995
1314.00,51.024
1315.00,51.023
1316.00,51.006
1317.00,51.045
1318.00,51.037
1319.00,51.033
1320.00,51.055
1321.00,51.172
1322.00,51.157
1323.00,51.164
1324.00,51.187
1325.00,51.147
1326.00,51.177
1327.00,51.156
1328.00,51.163
1329.00,51.142
1330.00,51.143
1331.00,51.163
1332.00,51.153
1333.00,51.162
1334.00,51.189
1335.00,51.193
1336.00,51.226
1337.00,51.262
1338.00,51.305
1339.00,51.369
1340.00,51.418
1341.00,51.478
1342.00,51.537
1343.00,51.582
1344.00,51.652
1345.00,51.694
1346.00,51.733
1347.00,51.750
1348.00,51.761
1349.00,51.797
1350.00,51.798
1351.00,51.827
1352.00,51.802
1353.00,51.844
1354.00,51.837
1355.00,51.747
1356.00,51.858
1357.00,51.830
1358.00,51.876
1359.00,51.839
1360.00,51.823
1361.00,51.875
1362.00,51.788
1363.00,51.862
1364.00,52.010
1365.00,51.869
1366.00,51.894
1367.00,51.902
1368.00,51.802
1369.00,51.884
1370.00,51.854
1371.00,51.791
1372.00,51.848
1373.00,51.861
1374.00,51.859
1375.00,51.852
1376.00,51.827
1377.00,51.834
1378.00,51.889
1379.00,51.841
1380.00,51.864
1381.00,51.912
1382.00,51.860
1383.00,51.867
1384.00,51.808
1385.00,51.748
1386.00,51.854
1387.00,51.855
1388.00,51.804
1389.00,51.767
1390.00,51.867
1391.00,51.847
1392.00,51.843
1393.00,51.845
1394.00,51.859
1395.00,51.816
1396.00,51.790
1397.00,51.777
1398.00,51.803
1399.00,51.871
1400.00,51.827
1401.00,51.794
1402.00,51.651
1403.00,51.842
1404.00,51.830
1405.00,51.884
1406.00,51.873
1407.00,51.897
1408.00,51.916
1409.00,51.843
1410.00,51.926
1411.00,51.821
1412.00,51.957
1413.00,51.908
1414.00,51.931
1415.00,51.920
1416.00,51.990
1417.00,52.077
1418.00,52.019
1419.00,51.984
1420.00,51.985
1421.00,52.029
1422.00,52.012
1423.00,52.030
1424.00,52.043
1425.00,52.063
1426.00,52.047
1427.00,52.084
1428.00,52.049
1429.00,52.029
1430.00,52.120
1431.00,52.111
1432.00,52.135
1433.00,52.164
1434.00,52.130
1435.00,52.190
1436.00,52.186
1437.00,52.174
1438.00,52.217
1439.00,52.232
1440.00,52.243
1441.00,52.263
1442.00,52.268
1443.00,52.299
1444.00,52.335
1445.00,52.335
1446.00,52.350
1447.00,52.374
1448.00,52.415
1449.00,52.395
1450.00,52.392
1451.00,52.400
1452.00,52.430
1453.00,52.417
1454.00,52.460
1455.00,52.474
1456.00,52.482
1457.00,52.494
1458.00,52.516
1459.00,52.510
1460.00,52.548
1461.00,52.543
1462.00,52.593
1463.00,52.584
1464.00,52.586
1465.00,52.606
1466.00,52.617
1467.00,52.630
1468.00,52.677
1469.00,52.660
1470.00,52.686
1471.00,52.716
1472.00,52.702
1473.00,52.701
1474.00,52.732
1475.00,52.732
1476.00,52.759
1477.00,52.750
1478.00,52.763
1479.00,52.789
1480.00,52.803
1481.00,52.808
1482.00,52.858
1483.00,52.861
1484.00,52.878
1485.00,52.892
1486.00,52.871
1487.00,52.914
1488.00,52.934
1489.00,52.924
1490.00,52.950
1491.00,52.955
1492.00,52.968
1493.00,52.963
1494.00,52.999
1495.00,52.978
1496.00,53.010
1497.00,52.994
1498.00,53.018
1499.00,53.035
1500.00,53.032
1501.00, 
1502.00, 
1503.00, 
1504.00, 
1505.00, 
1506.00, 
1507.00, 
1508.00, 
1509.00, 
1510.00, 
1511.00, 
1512.00, 
1513.00, 
1514.00, 
1515.00, 
1516.00, 
1517.00, 
1518.00, 
1519.00, 
1520.00, 
1521.00, 
1522.00, 
1523.00, 
1524.00, 
1525.00, 
1526.00, 
1527.00, 
1528.00, 
1529.00, 
1530.00, 
1531.00, 
1532.00, 
1533.00, 
1534.00, 
1535.00, 
1536.00, 
1537.00, 
1538.00, 
1539.00, 
1540.00, 
1541.00, 
1542.00, 
1543.00, 
1544.00, 
1545.00, 
1546.00, 
1547.00, 
1548.00, 
1549.00, 
1550.00, 
1551.00, 
1552.00, 
1553.00, 
1554.00, 
1555.00, 
1556.00, 
1557.00, 
1558.00, 
1559.00, 
1560.00, 
1561.00, 
1562.00, 
1563.00, 
1564.00, 
1565.00, 
1566.00, 
1567.00, 
1568.00, 
1569.00, 
1570.00, 
1571.00, 
1572.00, 
1573.00, 
1574.00, 
1575.00, 
1576.00, 
1577.00, 
1578.00, 
1579.00, 
1580.00, 
1581.00, 
1582.00, 
1583.00, 
1584.00, 
1585.00, 
1586.00, 
1587.00, 
1588.00, 
1589.00, 
1590.00, 
1591.00, 
1592.00, 
1593.00, 
1594.00, 
1595.00, 
1596.00, 
1597.00, 
1598.00, 
1599.00, 
1600.00, 
1601.00, 
1602.00, 
1603.00, 
1604.00, 
1605.00, 
1606.00, 
1607.00, 
1608.00, 
1609.00, 
1610.00, 
1611.00, 
1612.00, 
1613.00, 
1614.00, 
1615.00, 
1616.00, 
1617.00, 
1618.00, 
1619.00, 
1620.00, 
1621.00, 
1622.00, 
1623.00, 
1624.00, 
1625.00, 
1626.00, 
1627.00, 
1628.00, 
1629.00, 
1630.00, 
1631.00, 
1632.00, 
1633.00, 
1634.00, 
1635.00, 
1636.00, 
1637.00, 
1638.00, 
1639.00, 
1640.00, 
1641.00, 
1642.00, 
1643.00, 
1644.00, 
1645.00, 
1646.00, 
1647.00, 
1648.00, 
1649.00, 
1650.00, 
1651.00, 
1652.00, 
1653.00, 
1654.00, 
1655.00, 
1656.00, 
1657.00, 
1658.00, 
1659.00, 
1660.00, 
1661.00, 
1662.00, 
1663.00, 
1664.00, 
1665.00, 
1666.00, 
1667.00, 
1668.00, 
1669.00, 
1670.00, 
1671.00, 
1672.00, 
1673.00, 
1674.00, 
1675.00, 
1676.00, 
1677.00, 
1678.00, 
1679.00, 
1680.00, 
1681.00, 
1682.00, 
1683.00, 
1684.00, 
1685.00, 
1686.00, 
1687.00, 
1688.00, 
1689.00, 
1690.00, 
1691.00, 
1692.00, 
1693.00, 
1694.00, 
1695.00, 
1696.00, 
1697.00, 
1698.00, 
1699.00, 
1700.00, 
1701.00, 
1702.00, 
1703.00, 
1704.00, 
1705.00, 
1706.00, 
1707.00, 
1708.00, 
1709.00, 
1710.00, 
1711.00, 
1712.00, 
1713.00, 
1714.00, 
1715.00, 
1716.00, 
1717.00, 
1718.00, 
1719.00, 
1720.00, 
1721.00, 
1722.00, 
1723.00, 
1724.00, 
1725.00, 
1726.00, 
1727.00, 
1728.00, 
1729.00, 
1730.00, 
1731.00, 
1732.00, 
1733.00, 
1734.00, 
1735.00, 
1736.00, 
1737.00, 
1738.00, 
1739.00, 
1740.00, 
1741.00, 
1742.00, 
1743.00, 
1744.00, 
1745.00, 
1746.00, 
1747.00, 
1748.00, 
1749.00, 
1750.00, 
1751.00, 
1752.00, 
1753.00, 
1754.00, 
1755.00, 
1756.00, 
1757.00, 
1758.00, 
1759.00, 
1760.00, 
1761.00, 
1762.00, 
1763.00, 
1764.00, 
1765.00, 
1766.00, 
1767.00, 
1768.00, 
1769.00, 
1770.00, 
1771.00, 
1772.00, 
1773.00, 
1774.00, 
1775.00, 
1776.00, 
1777.00, 
1778.00, 
1779.00, 
1780.00, 
1781.00, 
1782.00, 
1783.00, 
1784.00, 
1785.00, 
1786.00, 
1787.00, 
1788.00, 
1789.00, 
1790.00, 
1791.00, 
1792.00, 
1793.00, 
1794.00, 
1795.00, 
1796.00, 
1797.00, 
1798.00, 
1799.00, 
1800.00, 
1801.00, 
1802.00, 
1803.00, 
1804.00, 
1805.00, 
1806.00, 
1807.00, 
1808.00, 
1809.00, 
1810.00, 
1811.00, 
1812.00, 
1813.00, 
1814.00, 
1815.00, 
1816.00, 
1817.00, 
1818.00, 
1819.00, 
1820.00, 
1821.00, 
1822.00, 
1823.00, 
1824.00, 
1825.00, 
1826.00, 
1827.00, 
1828.00, 
1829.00, 
1830.00, 
1831.00, 
1832.00, 
1833.00, 
1834.00, 
1835.00, 
1836.00, 
1837.00, 
1838.00, 
1839.00, 
1840.00, 
1841.00, 
1842.00, 
1843.00, 
1844.00, 
1845.00, 
1846.00, 
1847.00, 
1848.00, 
1849.00, 
1850.00, 
1851.00, 
1852.00, 
1853.00, 
1854.00, 
1855.00, 
1856.00, 
1857.00, 
1858.00, 
1859.00, 
1860.00, 
1861.00, 
1862.00, 
1863.00, 
1864.00, 
1865.00, 
1866.00, 
1867.00, 
1868.00, 
1869.00, 
1870.00, 
1871.00, 
1872.00, 
1873.00, 
1874.00, 
1875.00, 
1876.00, 
1877.00, 
1878.00, 
1879.00, 
1880.00, 
1881.00, 
1882.00, 
1883.00, 
1884.00, 
1885.00, 
1886.00, 
1887.00, 
1888.00, 
1889.00, 
1890.00, 
1891.00, 
1892.00, 
1893.00, 
1894.00, 
1895.00, 
1896.00, 
1897.00, 
1898.00, 
1899.00, 
1900.00, 
1901.00, 
1902.00, 
1903.00, 
1904.00, 
1905.00, 
1906.00, 
1907.00, 
1908.00, 
1909.00, 
1910.00, 
1911.00, 
1912.00, 
1913.00, 
1914.00, 
1915.00, 
1916.00, 
1917.00, 
1918.00, 
1919.00, 
1920.00, 
1921.00, 
1922.00, 
1923.00, 
1924.00, 
1925.00, 
1926.00, 
1927.00, 
1928.00, 
1929.00, 
1930.00, 
1931.00, 
1932.00, 
1933.00, 
1934.00, 
1935.00, 
1936.00, 
1937.00, 
1938.00, 
1939.00, 
1940.00, 
1941.00, 
1942.00, 
1943.00, 
1944.00, 
1945.00, 
1946.00, 
1947.00, 
1948.00, 
1949.00, 
1950.00, 
1951.00, 
1952.00, 
1953.00, 
1954.00, 
1955.00, 
1956.00, 
1957.00, 
1958.00, 
1959.00, 
1960.00, 
1961.00, 
1962.00, 
1963.00, 
1964.00, 
1965.00, 
1966.00, 
1967.00, 
1968.00, 
1969.00, 
1970.00, 
1971.00, 
1972.00, 
1973.00, 
1974.00, 
1975.00, 
1976.00, 
1977.00, 
1978.00, 
1979.00, 
1980.00, 
1981.00, 
1982.00, 
1983.00, 
1984.00, 
1985.00, 
1986.00, 
1987.00, 
1988.00, 
1989.00, 
1990.00, 
1991.00, 
1992.00, 
1993.00, 
1994.00, 
1995.00, 
1996.00, 
1997.00, 
1998.00, 
1999.00, 
2000.00, 
2001.00, 
2002.00, 
2003.00, 
2004.00, 
2005.00, 
2006.00, 
2007.00, 
2008.00, 
2009.00, 
2010.00, 
2011.00, 
2012.00, 
2013.00, 
2014.00, 
2015.00, 
2016.00, 
2017.00, 
2018.00, 
2019.00, 
2020.00, 
2021.00, 
2022.00, 
2023.00, 
2024.00, 
2025.00, 
2026.00, 
2027.00, 
2028.00, 
2029.00, 
2030.00, 
2031.00, 
2032.00, 
2033.00, 
2034.00, 
2035.00, 
2036.00, 
2037.00, 
2038.00, 
2039.00, 
2040.00, 
2041.00, 
2042.00, 
2043.00, 
2044.00, 
2045.00, 
2046.00, 
2047.00, 
2048.00, 
2049.00, 
2050.00, 
2051.00, 
2052.00, 
2053.00, 
2054.00, 
2055.00, 
2056.00, 
2057.00, 
2058.00, 
2059.00, 
2060.00, 
2061.00, 
2062.00, 
2063.00, 
2064.00, 
2065.00, 
2066.00, 
2067.00, 
2068.00, 
2069.00, 
2070.00, 
2071.00, 
2072.00, 
2073.00, 
2074.00, 
2075.00, 
2076.00, 
2077.00, 
2078.00, 
2079.00, 
2080.00, 
2081.00, 
2082.00, 
2083.00, 
2084.00, 
2085.00, 
2086.00, 
2087.00, 
2088.00, 
2089.00, 
2090.00, 
2091.00, 
2092.00, 
2093.00, 
2094.00, 
2095.00, 
2096.00, 
2097.00, 
2098.00, 
2099.00, 
2100.00, 
2101.00, 
2102.00, 
2103.00, 
2104.00, 
2105.00, 
2106.00, 
2107.00, 
2108.00, 
2109.00, 
2110.00, 
2111.00, 
2112.00, 
2113.00, 
2114.00, 
2115.00, 
2116.00, 
2117.00, 
2118.00, 
2119.00, 
2120.00, 
2121.00, 
2122.00, 
2123.00, 
2124.00, 
2125.00, 
2126.00, 
2127.00, 
2128.00, 
2129.00, 
2130.00, 
2131.00, 
2132.00, 
2133.00, 
2134.00, 
2135.00, 
2136.00, 
2137.00, 
2138.00, 
2139.00, 
2140.00, 
2141.00, 
2142.00, 
2143.00, 
2144.00, 
2145.00, 
2146.00, 
2147.00, 
2148.00, 
2149.00, 
2150.00, 
2151.00, 
2152.00, 
2153.00, 
2154.00, 
2155.00, 
2156.00, 
2157.00, 
2158.00, 
2159.00, 
2160.00, 
2161.00, 
2162.00, 
2163.00, 
2164.00, 
2165.00, 
2166.00, 
2167.00, 
2168.00, 
2169.00, 
2170.00, 
2171.00, 
2172.00, 
2173.00, 
2174.00, 
2175.00, 
2176.00, 
2177.00, 
2178.00, 
2179.00, 
2180.00, 
2181.00, 
2182.00, 
2183.00, 
2184.00, 
2185.00, 
2186.00, 
2187.00, 
2188.00, 
2189.00, 
2190.00, 
2191.00, 
2192.00, 
2193.00, 
2194.00, 
2195.00, 
2196.00, 
2197.00, 
2198.00, 
2199.00, 
2200.00, 
2201.00, 
2202.00, 
2203.00, 
2204.00, 
2205.00, 
2206.00, 
2207.00, 
2208.00, 
2209.00, 
2210.00, 
2211.00, 
2212.00, 
2213.00, 
2214.00, 
2215.00, 
2216.00, 
2217.00, 
2218.00, 
2219.00, 
2220.00, 
2221.00, 
2222.00, 
2223.00, 
2224.00, 
2225.00, 
2226.00, 
2227.00, 
2228.00, 
2229.00, 
2230.00, 
2231.00, 
2232.00, 
2233.00, 
2234.00, 
2235.00, 
2236.00, 
2237.00, 
2238.00, 
2239.00, 
2240.00, 
2241.00, 
2242.00, 
2243.00, 
2244.00, 
2245.00, 
2246.00, 
2247.00, 
2248.00, 
2249.00, 
2250.00, 
2251.00, 
2252.00, 
2253.00, 
2254.00, 
2255.00, 
2256.00, 
2257.00, 
2258.00, 
2259.00, 
2260.00, 
2261.00, 
2262.00, 
2263.00, 
2264.00, 
2265.00, 
2266.00, 
2267.00, 
2268.00, 
2269.00, 
2270.00, 
2271.00, 
2272.00, 
2273.00, 
2274.00, 
2275.00, 
2276.00, 
2277.00, 
2278.00, 
2279.00, 
2280.00, 
2281.00, 
2282.00, 
2283.00, 
2284.00, 
2285.00, 
2286.00, 
2287.00, 
2288.00, 
2289.00, 
2290.00, 
2291.00, 
2292.00, 
2293.00, 
2294.00, 
2295.00, 
2296.00, 
2297.00, 
2298.00, 
2299.00, 
2300.00, 
2301.00, 
2302.00, 
2303.00, 
2304.00, 
2305.00, 
2306.00, 
2307.00, 
2308.00, 
2309.00, 
2310.00, 
2311.00, 
2312.00, 
2313.00, 
2314.00, 
2315.00, 
2316.00, 
2317.00, 
2318.00, 
2319.00, 
2320.00, 
2321.00, 
2322.00, 
2323.00, 
2324.00, 
2325.00, 
2326.00, 
2327.00, 
2328.00, 
2329.00, 
2330.00, 
2331.00, 
2332.00, 
2333.00, 
2334.00, 
2335.00, 
2336.00, 
2337.00, 
2338.00, 
2339.00, 
2340.00, 
2341.00, 
2342.00, 
2343.00, 
2344.00, 
2345.00, 
2346.00, 
2347.00, 
2348.00, 
2349.00, 
2350.00, 
2351.00, 
2352.00, 
2353.00, 
2354.00, 
2355.00, 
2356.00, 
2357.00, 
2358.00, 
2359.00, 
2360.00, 
2361.00, 
2362.00, 
2363.00, 
2364.00, 
2365.00, 
2366.00, 
2367.00, 
2368.00, 
2369.00, 
2370.00, 
2371.00, 
2372.00, 
2373.00, 
2374.00, 
2375.00, 
2376.00, 
2377.00, 
2378.00, 
2379.00, 
2380.00, 
2381.00, 
2382.00, 
2383.00, 
2384.00, 
2385.00, 
2386.00, 
2387.00, 
2388.00, 
2389.00, 
2390.00, 
2391.00, 
2392.00, 
2393.00, 
2394.00, 
2395.00, 
2396.00, 
2397.00, 
2398.00, 
2399.00, 
2400.00, 
2401.00, 
2402.00, 
2403.00, 
2404.00, 
2405.00, 
2406.00, 
2407.00, 
2408.00, 
2409.00, 
2410.00, 
2411.00, 
2412.00, 
2413.00, 
2414.00, 
2415.00, 
2416.00, 
2417.00, 
2418.00, 
2419.00, 
2420.00, 
2421.00, 
2422.00, 
2423.00, 
2424.00, 
2425.00, 
2426.00, 
2427.00, 
2428.00, 
2429.00, 
2430.00, 
2431.00, 
2432.00, 
2433.00, 
2434.00, 
2435.00, 
2436.00, 
2437.00, 
2438.00, 
2439.00, 
2440.00, 
2441.00, 
2442.00, 
2443.00, 
2444.00, 
2445.00, 
2446.00, 
2447.00, 
2448.00, 
2449.00, 
2450.00, 
2451.00, 
2452.00, 
2453.00, 
2454.00, 
2455.00, 
2456.00, 
2457.00, 
2458.00, 
2459.00, 
2460.00, 
2461.00, 
2462.00, 
2463.00, 
2464.00, 
2465.00, 
2466.00, 
2467.00, 
2468.00, 
2469.00, 
2470.00, 
2471.00, 
2472.00, 
2473.00, 
2474.00, 
2475.00, 
2476.00, 
2477.00, 
2478.00, 
2479.00, 
2480.00, 
2481.00, 
2482.00, 
2483.00, 
2484.00, 
2485.00, 
2486.00, 
2487.00, 
2488.00, 
2489.00, 
2490.00, 
2491.00, 
2492.00, 
2493.00, 
2494.00, 
2495.00, 
2496.00, 
2497.00, 
2498.00, 
2499.00, 
2500.00, 
2501.00, 
2502.00, 
2503.00, 
2504.00, 
2505.00, 
2506.00, 
2507.00, 
2508.00, 
2509.00, 
2510.00, 
2511.00, 
2512.00, 
2513.00, 
2514.00, 
2515.00, 
2516.00, 
2517.00, 
2518.00, 
2519.00, 
2520.00, 
2521.00, 
2522.00, 
2523.00, 
2524.00, 
2525.00, 
2526.00, 
2527.00, 
2528.00, 
2529.00, 
2530.00, 
2531.00, 
2532.00, 
2533.00, 
2534.00, 
2535.00, 
2536.00, 
2537.00, 
2538.00, 
2539.00, 
2540.00, 
2541.00, 
2542.00, 
2543.00, 
2544.00, 
2545.00, 
2546.00, 
2547.00, 
2548.00, 
2549.00, 
2550.00, 
2551.00, 
2552.00, 
2553.00, 
2554.00, 
2555.00, 
2556.00, 
2557.00, 
2558.00, 
2559.00, 
2560.00, 
2561.00, 
2562.00, 
2563.00, 
2564.00, 
2565.00, 
2566.00, 
2567.00, 
2568.00, 
2569.00, 
2570.00, 
2571.00, 
2572.00, 
2573.00, 
2574.00, 
2575.00, 
2576.00, 
2577.00, 
2578.00, 
2579.00, 
2580.00, 
2581.00, 
2582.00, 
2583.00, 
2584.00, 
2585.00, 
2586.00, 
2587.00, 
2588.00, 
2589.00, 
2590.00, 
2591.00, 
2592.00, 
2593.00, 
2594.00, 
2595.00, 
2596.00, 
2597.00, 
2598.00, 
2599.00, 
2600.00, 
