"2bP2 - RawData"
"Wavelength nm.","T%"
200.00,-0.001
201.00,0.003
202.00,0.004
203.00,0.003
204.00,0.002
205.00,0.001
206.00,0.002
207.00,0.004
208.00,0.002
209.00,0.000
210.00,0.005
211.00,0.000
212.00,-0.001
213.00,0.001
214.00,0.000
215.00,0.001
216.00,0.000
217.00,-0.002
218.00,0.001
219.00,0.002
220.00,0.003
221.00,0.002
222.00,-0.003
223.00,0.001
224.00,0.002
225.00,0.001
226.00,0.001
227.00,-0.001
228.00,-0.001
229.00,0.000
230.00,0.001
231.00,0.000
232.00,0.001
233.00,-0.000
234.00,-0.001
235.00,-0.000
236.00,-0.001
237.00,-0.000
238.00,0.000
239.00,0.002
240.00,0.001
241.00,0.001
242.00,0.001
243.00,-0.000
244.00,0.001
245.00,0.001
246.00,0.001
247.00,-0.000
248.00,0.001
249.00,0.001
250.00,-0.001
251.00,0.003
252.00,0.000
253.00,0.000
254.00,-0.000
255.00,0.001
256.00,0.000
257.00,0.001
258.00,-0.002
259.00,0.001
260.00,-0.000
261.00,-0.000
262.00,-0.000
263.00,0.000
264.00,0.000
265.00,0.001
266.00,-0.000
267.00,0.002
268.00,0.001
269.00,0.002
270.00,0.001
271.00,0.000
272.00,0.002
273.00,0.000
274.00,-0.001
275.00,-0.001
276.00,0.001
277.00,0.000
278.00,-0.001
279.00,-0.001
280.00,-0.000
281.00,0.001
282.00,0.001
283.00,0.000
284.00,0.001
285.00,0.000
286.00,-0.001
287.00,-0.001
288.00,-0.001
289.00,0.000
290.00,0.002
291.00,0.001
292.00,0.000
293.00,0.001
294.00,-0.001
295.00,0.000
296.00,0.001
297.00,0.000
298.00,0.002
299.00,0.003
300.00,0.002
301.00,0.004
302.00,0.005
303.00,0.009
304.00,0.013
305.00,0.022
306.00,0.035
307.00,0.052
308.00,0.082
309.00,0.125
310.00,0.174
311.00,0.231
312.00,0.316
313.00,0.424
314.00,0.553
315.00,0.711
316.00,0.887
317.00,1.124
318.00,1.385
319.00,1.696
320.00,2.050
321.00,2.438
322.00,2.861
323.00,3.364
324.00,3.872
325.00,4.392
326.00,4.938
327.00,5.508
328.00,6.190
329.00,6.823
330.00,7.505
331.00,8.164
332.00,8.844
333.00,9.612
334.00,10.246
335.00,10.930
336.00,11.650
337.00,12.363
338.00,13.040
339.00,13.654
340.00,14.294
341.00,14.937
342.00,15.520
343.00,16.054
344.00,16.595
345.00,17.151
346.00,17.622
347.00,18.084
348.00,18.519
349.00,18.940
350.00,19.341
351.00,19.643
352.00,19.964
353.00,20.210
354.00,20.606
355.00,20.868
356.00,21.090
357.00,21.364
358.00,21.579
359.00,21.791
360.00,22.032
361.00,22.162
362.00,22.343
363.00,22.502
364.00,22.543
365.00,22.649
366.00,22.783
367.00,22.843
368.00,22.885
369.00,22.937
370.00,22.988
371.00,23.058
372.00,23.049
373.00,23.021
374.00,22.993
375.00,23.037
376.00,22.976
377.00,22.931
378.00,22.851
379.00,22.783
380.00,22.777
381.00,22.772
382.00,22.761
383.00,22.750
384.00,22.762
385.00,22.809
386.00,22.798
387.00,22.864
388.00,22.895
389.00,22.931
390.00,22.918
391.00,22.955
392.00,22.946
393.00,22.964
394.00,23.013
395.00,23.017
396.00,23.003
397.00,23.022
398.00,23.015
399.00,22.996
400.00,22.992
401.00,23.014
402.00,22.997
403.00,22.994
404.00,22.979
405.00,22.988
406.00,22.983
407.00,22.925
408.00,22.931
409.00,22.855
410.00,22.835
411.00,22.842
412.00,22.792
413.00,22.803
414.00,22.803
415.00,22.826
416.00,22.843
417.00,22.837
418.00,22.862
419.00,22.928
420.00,22.989
421.00,22.979
422.00,22.981
423.00,23.074
424.00,23.102
425.00,23.126
426.00,23.128
427.00,23.215
428.00,23.250
429.00,23.284
430.00,23.375
431.00,23.467
432.00,23.434
433.00,23.514
434.00,23.556
435.00,23.606
436.00,23.670
437.00,23.712
438.00,23.803
439.00,23.854
440.00,23.937
441.00,24.032
442.00,24.137
443.00,24.204
444.00,24.287
445.00,24.378
446.00,24.467
447.00,24.606
448.00,24.666
449.00,24.782
450.00,24.854
451.00,24.953
452.00,25.072
453.00,25.214
454.00,25.277
455.00,25.386
456.00,25.512
457.00,25.601
458.00,25.724
459.00,25.852
460.00,25.995
461.00,26.078
462.00,26.219
463.00,26.390
464.00,26.546
465.00,26.585
466.00,26.709
467.00,27.004
468.00,26.934
469.00,27.146
470.00,27.204
471.00,27.326
472.00,27.437
473.00,27.499
474.00,27.644
475.00,27.752
476.00,27.843
477.00,27.996
478.00,28.107
479.00,28.290
480.00,28.418
481.00,28.488
482.00,28.700
483.00,28.787
484.00,29.026
485.00,29.118
486.00,29.326
487.00,29.449
488.00,29.578
489.00,29.757
490.00,29.870
491.00,30.039
492.00,30.251
493.00,30.382
494.00,30.344
495.00,30.573
496.00,30.670
497.00,30.807
498.00,30.955
499.00,31.108
500.00,31.268
501.00,31.369
502.00,31.460
503.00,31.608
504.00,31.675
505.00,31.829
506.00,31.905
507.00,31.989
508.00,32.133
509.00,32.292
510.00,32.405
511.00,32.461
512.00,32.660
513.00,32.753
514.00,32.925
515.00,33.118
516.00,33.086
517.00,33.126
518.00,33.367
519.00,33.426
520.00,33.499
521.00,33.620
522.00,33.686
523.00,33.602
524.00,33.829
525.00,33.954
526.00,34.055
527.00,34.113
528.00,34.164
529.00,34.346
530.00,34.540
531.00,34.608
532.00,34.727
533.00,34.814
534.00,34.907
535.00,34.984
536.00,35.087
537.00,35.126
538.00,35.194
539.00,35.235
540.00,35.322
541.00,35.390
542.00,35.429
543.00,35.489
544.00,35.566
545.00,35.651
546.00,35.685
547.00,35.874
548.00,35.954
549.00,35.961
550.00,36.041
551.00,36.154
552.00,36.185
553.00,36.234
554.00,36.312
555.00,36.322
556.00,36.413
557.00,36.478
558.00,36.491
559.00,36.621
560.00,36.650
561.00,36.726
562.00,36.806
563.00,36.952
564.00,36.892
565.00,36.894
566.00,36.915
567.00,36.949
568.00,36.935
569.00,37.083
570.00,37.102
571.00,37.184
572.00,37.194
573.00,37.146
574.00,37.232
575.00,37.236
576.00,37.241
577.00,37.276
578.00,37.431
579.00,37.468
580.00,37.475
581.00,37.647
582.00,37.712
583.00,37.748
584.00,37.804
585.00,37.871
586.00,37.968
587.00,37.990
588.00,38.013
589.00,37.989
590.00,38.112
591.00,38.133
592.00,38.082
593.00,38.196
594.00,38.232
595.00,38.346
596.00,38.375
597.00,38.461
598.00,38.562
599.00,38.524
600.00,38.613
601.00,38.603
602.00,38.574
603.00,38.619
604.00,38.735
605.00,38.796
606.00,38.793
607.00,38.823
608.00,38.983
609.00,39.065
610.00,38.869
611.00,39.000
612.00,39.042
613.00,39.103
614.00,39.150
615.00,39.232
616.00,39.338
617.00,39.314
618.00,39.311
619.00,39.436
620.00,39.445
621.00,39.490
622.00,39.583
623.00,39.660
624.00,39.748
625.00,39.776
626.00,39.822
627.00,39.846
628.00,39.922
629.00,39.945
630.00,40.013
631.00,40.075
632.00,40.158
633.00,40.304
634.00,40.433
635.00,40.448
636.00,40.517
637.00,40.513
638.00,40.617
639.00,40.689
640.00,40.749
641.00,40.826
642.00,40.912
643.00,40.904
644.00,40.967
645.00,41.124
646.00,41.243
647.00,41.314
648.00,41.393
649.00,41.355
650.00,41.398
651.00,41.602
652.00,41.693
653.00,41.709
654.00,41.730
655.00,41.947
656.00,42.217
657.00,42.234
658.00,42.275
659.00,42.314
660.00,42.309
661.00,42.327
662.00,42.459
663.00,42.538
664.00,42.804
665.00,42.942
666.00,42.867
667.00,42.942
668.00,42.990
669.00,43.154
670.00,43.452
671.00,43.266
672.00,43.414
673.00,43.514
674.00,43.592
675.00,43.692
676.00,43.861
677.00,44.028
678.00,43.805
679.00,44.010
680.00,44.158
681.00,44.261
682.00,44.255
683.00,44.246
684.00,44.474
685.00,44.609
686.00,44.476
687.00,44.675
688.00,44.715
689.00,44.732
690.00,45.070
691.00,45.336
692.00,45.091
693.00,45.120
694.00,45.242
695.00,45.351
696.00,45.685
697.00,45.698
698.00,45.616
699.00,45.921
700.00,46.012
701.00,45.915
702.00,46.007
703.00,46.163
704.00,46.199
705.00,46.247
706.00,46.248
707.00,46.490
708.00,46.367
709.00,46.706
710.00,47.073
711.00,46.572
712.00,46.665
713.00,46.843
714.00,46.962
715.00,46.916
716.00,47.017
717.00,47.201
718.00,47.286
719.00,47.285
720.00,47.355
721.00,51.767
722.00,51.792
723.00,51.860
724.00,51.870
725.00,51.834
726.00,51.875
727.00,51.912
728.00,51.928
729.00,51.961
730.00,52.001
731.00,51.971
732.00,52.061
733.00,52.173
734.00,52.157
735.00,52.181
736.00,52.147
737.00,52.248
738.00,52.288
739.00,52.260
740.00,52.297
741.00,52.466
742.00,52.390
743.00,52.426
744.00,52.339
745.00,52.422
746.00,52.402
747.00,52.491
748.00,52.446
749.00,52.433
750.00,52.430
751.00,52.477
752.00,52.393
753.00,52.481
754.00,52.427
755.00,52.469
756.00,52.512
757.00,52.534
758.00,52.516
759.00,52.605
760.00,52.617
761.00,52.525
762.00,52.619
763.00,52.654
764.00,52.580
765.00,52.650
766.00,52.668
767.00,52.643
768.00,52.704
769.00,52.664
770.00,52.721
771.00,52.756
772.00,52.672
773.00,52.731
774.00,52.804
775.00,52.710
776.00,52.680
777.00,52.829
778.00,52.734
779.00,52.785
780.00,52.762
781.00,52.776
782.00,52.792
783.00,52.743
784.00,52.830
785.00,52.746
786.00,52.810
787.00,52.749
788.00,52.808
789.00,52.737
790.00,52.768
791.00,52.803
792.00,52.692
793.00,52.719
794.00,52.703
795.00,52.687
796.00,52.722
797.00,52.616
798.00,52.709
799.00,52.627
800.00,52.647
801.00,52.713
802.00,52.666
803.00,52.622
804.00,52.623
805.00,52.702
806.00,52.594
807.00,52.536
808.00,52.594
809.00,52.591
810.00,52.517
811.00,52.509
812.00,52.500
813.00,52.445
814.00,52.558
815.00,52.492
816.00,52.570
817.00,52.437
818.00,52.382
819.00,52.374
820.00,52.440
821.00,52.420
822.00,52.466
823.00,52.399
824.00,52.355
825.00,52.353
826.00,52.310
827.00,52.426
828.00,52.385
829.00,52.318
830.00,52.421
831.00,54.734
832.00,54.744
833.00,54.701
834.00,54.746
835.00,54.698
836.00,54.732
837.00,54.680
838.00,54.629
839.00,54.610
840.00,54.600
841.00,54.631
842.00,54.568
843.00,54.539
844.00,54.584
845.00,54.533
846.00,54.524
847.00,54.486
848.00,54.465
849.00,54.421
850.00,54.428
851.00,54.316
852.00,54.349
853.00,54.321
854.00,54.309
855.00,54.248
856.00,54.272
857.00,54.202
858.00,54.209
859.00,54.175
860.00,54.188
861.00,54.207
862.00,54.108
863.00,54.134
864.00,54.116
865.00,54.146
866.00,53.849
867.00,54.076
868.00,54.060
869.00,54.015
870.00,54.040
871.00,54.006
872.00,54.035
873.00,54.012
874.00,53.997
875.00,53.974
876.00,53.987
877.00,53.994
878.00,53.986
879.00,53.926
880.00,53.929
881.00,53.895
882.00,53.932
883.00,53.892
884.00,53.856
885.00,53.805
886.00,53.845
887.00,53.776
888.00,53.759
889.00,53.756
890.00,53.755
891.00,53.733
892.00,53.719
893.00,53.686
894.00,53.689
895.00,53.645
896.00,53.653
897.00,53.617
898.00,53.577
899.00,53.593
900.00,53.596
901.00,53.569
902.00,53.584
903.00,53.540
904.00,53.537
905.00,53.506
906.00,53.508
907.00,53.469
908.00,53.450
909.00,53.441
910.00,53.409
911.00,53.378
912.00,53.403
913.00,53.354
914.00,53.355
915.00,53.330
916.00,53.303
917.00,53.288
918.00,53.278
919.00,53.227
920.00,53.191
921.00,53.200
922.00,53.235
923.00,53.208
924.00,53.159
925.00,53.151
926.00,53.171
927.00,53.142
928.00,53.122
929.00,53.103
930.00,53.071
931.00,53.053
932.00,53.006
933.00,53.014
934.00,52.999
935.00,53.001
936.00,52.928
937.00,52.920
938.00,52.915
939.00,52.921
940.00,52.884
941.00,52.874
942.00,52.982
943.00,52.848
944.00,52.816
945.00,52.820
946.00,52.797
947.00,52.755
948.00,52.739
949.00,52.730
950.00,52.698
951.00,52.673
952.00,52.660
953.00,52.613
954.00,52.613
955.00,52.566
956.00,52.582
957.00,52.532
958.00,52.534
959.00,52.470
960.00,52.469
961.00,52.472
962.00,52.477
963.00,52.408
964.00,52.407
965.00,52.413
966.00,52.390
967.00,52.379
968.00,52.371
969.00,52.385
970.00,52.385
971.00,52.382
972.00,52.356
973.00,52.387
974.00,52.411
975.00,52.364
976.00,52.386
977.00,52.354
978.00,52.403
979.00,52.358
980.00,52.363
981.00,52.373
982.00,52.345
983.00,52.347
984.00,52.340
985.00,52.360
986.00,52.312
987.00,52.361
988.00,52.394
989.00,52.307
990.00,52.301
991.00,52.272
992.00,52.305
993.00,52.272
994.00,52.256
995.00,52.244
996.00,52.247
997.00,52.224
998.00,52.209
999.00,52.220
1000.00,52.185
1001.00,52.166
1002.00,52.122
1003.00,52.135
1004.00,52.137
1005.00,52.103
1006.00,52.137
1007.00,52.099
1008.00,52.095
1009.00,52.064
1010.00,52.056
1011.00,52.050
1012.00,52.022
1013.00,52.021
1014.00,51.982
1015.00,52.003
1016.00,51.947
1017.00,51.954
1018.00,51.941
1019.00,51.920
1020.00,51.912
1021.00,51.893
1022.00,51.896
1023.00,51.845
1024.00,51.843
1025.00,51.830
1026.00,51.835
1027.00,51.795
1028.00,51.788
1029.00,51.782
1030.00,51.733
1031.00,51.759
1032.00,51.703
1033.00,51.707
1034.00,51.685
1035.00,51.643
1036.00,51.640
1037.00,51.616
1038.00,51.610
1039.00,51.575
1040.00,51.570
1041.00,51.532
1042.00,51.521
1043.00,51.505
1044.00,51.538
1045.00,51.527
1046.00,51.510
1047.00,51.521
1048.00,51.533
1049.00,51.565
1050.00,51.545
1051.00,51.573
1052.00,51.572
1053.00,51.578
1054.00,51.575
1055.00,51.592
1056.00,51.607
1057.00,51.593
1058.00,51.572
1059.00,51.578
1060.00,51.580
1061.00,51.577
1062.00,51.556
1063.00,51.566
1064.00,51.594
1065.00,51.557
1066.00,51.554
1067.00,51.543
1068.00,51.562
1069.00,51.524
1070.00,51.516
1071.00,51.502
1072.00,51.503
1073.00,51.487
1074.00,51.484
1075.00,51.480
1076.00,51.479
1077.00,51.467
1078.00,51.449
1079.00,51.437
1080.00,51.444
1081.00,51.432
1082.00,51.425
1083.00,51.432
1084.00,51.408
1085.00,51.409
1086.00,51.387
1087.00,51.388
1088.00,51.358
1089.00,51.353
1090.00,51.332
1091.00,51.327
1092.00,51.326
1093.00,51.308
1094.00,51.290
1095.00,51.279
1096.00,51.269
1097.00,51.280
1098.00,51.274
1099.00,51.270
1100.00,51.264
1101.00,51.247
1102.00,51.234
1103.00,51.241
1104.00,51.222
1105.00,51.209
1106.00,51.194
1107.00,51.189
1108.00,51.185
1109.00,51.182
1110.00,51.188
1111.00,51.179
1112.00,51.149
1113.00,51.158
1114.00,51.140
1115.00,51.142
1116.00,51.128
1117.00,51.109
1118.00,51.101
1119.00,51.096
1120.00,51.085
1121.00,51.091
1122.00,51.074
1123.00,51.052
1124.00,51.048
1125.00,51.055
1126.00,51.056
1127.00,51.047
1128.00,51.023
1129.00,51.008
1130.00,51.014
1131.00,51.017
1132.00,50.993
1133.00,50.998
1134.00,50.985
1135.00,50.980
1136.00,50.980
1137.00,50.978
1138.00,50.963
1139.00,50.966
1140.00,50.946
1141.00,50.962
1142.00,50.953
1143.00,50.961
1144.00,50.941
1145.00,50.925
1146.00,50.929
1147.00,50.924
1148.00,50.917
1149.00,50.931
1150.00,50.926
1151.00,50.928
1152.00,50.910
1153.00,50.910
1154.00,50.885
1155.00,50.903
1156.00,50.878
1157.00,50.898
1158.00,50.897
1159.00,50.881
1160.00,50.878
1161.00,50.879
1162.00,50.876
1163.00,50.875
1164.00,50.884
1165.00,50.881
1166.00,50.885
1167.00,50.854
1168.00,50.868
1169.00,50.886
1170.00,50.872
1171.00,50.846
1172.00,50.871
1173.00,50.837
1174.00,50.845
1175.00,50.840
1176.00,50.840
1177.00,50.833
1178.00,50.824
1179.00,50.851
1180.00,50.839
1181.00,50.866
1182.00,50.852
1183.00,50.837
1184.00,50.841
1185.00,50.842
1186.00,50.836
1187.00,50.842
1188.00,50.840
1189.00,50.819
1190.00,50.821
1191.00,50.811
1192.00,50.825
1193.00,50.820
1194.00,50.818
1195.00,50.794
1196.00,50.828
1197.00,50.829
1198.00,50.808
1199.00,50.805
1200.00,50.805
1201.00,50.825
1202.00,50.809
1203.00,50.802
1204.00,50.793
1205.00,50.805
1206.00,50.800
1207.00,50.813
1208.00,50.793
1209.00,50.818
1210.00,50.800
1211.00,50.791
1212.00,50.841
1213.00,50.770
1214.00,50.795
1215.00,50.773
1216.00,50.789
1217.00,50.797
1218.00,50.773
1219.00,50.800
1220.00,50.770
1221.00,50.782
1222.00,50.760
1223.00,50.782
1224.00,50.786
1225.00,50.767
1226.00,50.783
1227.00,50.767
1228.00,50.793
1229.00,50.786
1230.00,50.810
1231.00,50.809
1232.00,50.837
1233.00,50.839
1234.00,50.826
1235.00,50.817
1236.00,50.817
1237.00,50.825
1238.00,50.821
1239.00,50.837
1240.00,50.828
1241.00,50.833
1242.00,50.837
1243.00,50.865
1244.00,50.826
1245.00,50.860
1246.00,50.865
1247.00,50.845
1248.00,50.837
1249.00,50.848
1250.00,50.856
1251.00,50.838
1252.00,50.852
1253.00,50.838
1254.00,50.876
1255.00,50.832
1256.00,50.817
1257.00,50.831
1258.00,50.869
1259.00,50.858
1260.00,50.879
1261.00,50.899
1262.00,50.892
1263.00,50.902
1264.00,50.896
1265.00,50.897
1266.00,50.885
1267.00,50.894
1268.00,50.905
1269.00,50.910
1270.00,50.927
1271.00,50.915
1272.00,50.916
1273.00,50.945
1274.00,50.938
1275.00,50.943
1276.00,50.941
1277.00,50.932
1278.00,50.942
1279.00,50.949
1280.00,50.945
1281.00,50.953
1282.00,50.960
1283.00,50.946
1284.00,50.968
1285.00,50.953
1286.00,50.968
1287.00,50.975
1288.00,50.959
1289.00,50.969
1290.00,50.995
1291.00,51.000
1292.00,50.990
1293.00,50.998
1294.00,51.031
1295.00,51.021
1296.00,51.022
1297.00,51.024
1298.00,51.050
1299.00,51.014
1300.00,51.030
1301.00,51.020
1302.00,51.041
1303.00,51.053
1304.00,51.031
1305.00,51.073
1306.00,51.078
1307.00,51.078
1308.00,51.070
1309.00,51.071
1310.00,51.076
1311.00,51.054
1312.00,51.066
1313.00,51.088
1314.00,51.108
1315.00,51.118
1316.00,51.106
1317.00,51.132
1318.00,51.114
1319.00,51.111
1320.00,51.142
1321.00,51.263
1322.00,51.283
1323.00,51.281
1324.00,51.237
1325.00,51.239
1326.00,51.262
1327.00,51.247
1328.00,51.232
1329.00,51.228
1330.00,51.256
1331.00,51.268
1332.00,51.253
1333.00,51.281
1334.00,51.314
1335.00,51.323
1336.00,51.335
1337.00,51.390
1338.00,51.434
1339.00,51.482
1340.00,51.521
1341.00,51.598
1342.00,51.661
1343.00,51.700
1344.00,51.763
1345.00,51.803
1346.00,51.841
1347.00,51.843
1348.00,51.866
1349.00,51.926
1350.00,51.913
1351.00,51.923
1352.00,51.920
1353.00,52.015
1354.00,51.967
1355.00,51.938
1356.00,52.005
1357.00,51.963
1358.00,51.982
1359.00,51.967
1360.00,51.916
1361.00,51.990
1362.00,51.931
1363.00,52.037
1364.00,52.086
1365.00,51.996
1366.00,52.016
1367.00,52.009
1368.00,51.908
1369.00,51.990
1370.00,51.958
1371.00,51.906
1372.00,51.961
1373.00,51.947
1374.00,51.963
1375.00,51.945
1376.00,51.915
1377.00,51.936
1378.00,52.134
1379.00,51.931
1380.00,51.953
1381.00,52.057
1382.00,52.023
1383.00,51.953
1384.00,51.833
1385.00,51.851
1386.00,51.946
1387.00,51.947
1388.00,51.894
1389.00,51.848
1390.00,51.902
1391.00,51.972
1392.00,51.935
1393.00,51.939
1394.00,51.911
1395.00,51.963
1396.00,51.868
1397.00,51.955
1398.00,51.678
1399.00,51.993
1400.00,51.955
1401.00,51.892
1402.00,51.936
1403.00,51.951
1404.00,51.927
1405.00,51.970
1406.00,51.956
1407.00,52.012
1408.00,52.006
1409.00,51.937
1410.00,52.009
1411.00,51.978
1412.00,52.040
1413.00,52.002
1414.00,52.003
1415.00,52.004
1416.00,52.042
1417.00,52.070
1418.00,52.046
1419.00,52.046
1420.00,52.040
1421.00,52.098
1422.00,52.090
1423.00,52.096
1424.00,52.110
1425.00,52.119
1426.00,52.122
1427.00,52.149
1428.00,52.138
1429.00,52.155
1430.00,52.182
1431.00,52.199
1432.00,52.218
1433.00,52.241
1434.00,52.218
1435.00,52.272
1436.00,52.277
1437.00,52.262
1438.00,52.287
1439.00,52.302
1440.00,52.332
1441.00,52.335
1442.00,52.349
1443.00,52.386
1444.00,52.439
1445.00,52.393
1446.00,52.405
1447.00,52.434
1448.00,52.443
1449.00,52.452
1450.00,52.453
1451.00,52.480
1452.00,52.506
1453.00,52.493
1454.00,52.533
1455.00,52.560
1456.00,52.567
1457.00,52.574
1458.00,52.604
1459.00,52.614
1460.00,52.617
1461.00,52.611
1462.00,52.649
1463.00,52.659
1464.00,52.653
1465.00,52.677
1466.00,52.676
1467.00,52.679
1468.00,52.751
1469.00,52.721
1470.00,52.741
1471.00,52.754
1472.00,52.743
1473.00,52.761
1474.00,52.796
1475.00,52.809
1476.00,52.827
1477.00,52.816
1478.00,52.827
1479.00,52.858
1480.00,52.862
1481.00,52.859
1482.00,52.900
1483.00,52.887
1484.00,52.926
1485.00,52.930
1486.00,52.928
1487.00,52.967
1488.00,52.987
1489.00,52.993
1490.00,52.992
1491.00,53.004
1492.00,53.025
1493.00,52.978
1494.00,53.000
1495.00,52.999
1496.00,53.033
1497.00,53.017
1498.00,53.044
1499.00,53.067
1500.00,53.075
1501.00, 
1502.00, 
1503.00, 
1504.00, 
1505.00, 
1506.00, 
1507.00, 
1508.00, 
1509.00, 
1510.00, 
1511.00, 
1512.00, 
1513.00, 
1514.00, 
1515.00, 
1516.00, 
1517.00, 
1518.00, 
1519.00, 
1520.00, 
1521.00, 
1522.00, 
1523.00, 
1524.00, 
1525.00, 
1526.00, 
1527.00, 
1528.00, 
1529.00, 
1530.00, 
1531.00, 
1532.00, 
1533.00, 
1534.00, 
1535.00, 
1536.00, 
1537.00, 
1538.00, 
1539.00, 
1540.00, 
1541.00, 
1542.00, 
1543.00, 
1544.00, 
1545.00, 
1546.00, 
1547.00, 
1548.00, 
1549.00, 
1550.00, 
1551.00, 
1552.00, 
1553.00, 
1554.00, 
1555.00, 
1556.00, 
1557.00, 
1558.00, 
1559.00, 
1560.00, 
1561.00, 
1562.00, 
1563.00, 
1564.00, 
1565.00, 
1566.00, 
1567.00, 
1568.00, 
1569.00, 
1570.00, 
1571.00, 
1572.00, 
1573.00, 
1574.00, 
1575.00, 
1576.00, 
1577.00, 
1578.00, 
1579.00, 
1580.00, 
1581.00, 
1582.00, 
1583.00, 
1584.00, 
1585.00, 
1586.00, 
1587.00, 
1588.00, 
1589.00, 
1590.00, 
1591.00, 
1592.00, 
1593.00, 
1594.00, 
1595.00, 
1596.00, 
1597.00, 
1598.00, 
1599.00, 
1600.00, 
1601.00, 
1602.00, 
1603.00, 
1604.00, 
1605.00, 
1606.00, 
1607.00, 
1608.00, 
1609.00, 
1610.00, 
1611.00, 
1612.00, 
1613.00, 
1614.00, 
1615.00, 
1616.00, 
1617.00, 
1618.00, 
1619.00, 
1620.00, 
1621.00, 
1622.00, 
1623.00, 
1624.00, 
1625.00, 
1626.00, 
1627.00, 
1628.00, 
1629.00, 
1630.00, 
1631.00, 
1632.00, 
1633.00, 
1634.00, 
1635.00, 
1636.00, 
1637.00, 
1638.00, 
1639.00, 
1640.00, 
1641.00, 
1642.00, 
1643.00, 
1644.00, 
1645.00, 
1646.00, 
1647.00, 
1648.00, 
1649.00, 
1650.00, 
1651.00, 
1652.00, 
1653.00, 
1654.00, 
1655.00, 
1656.00, 
1657.00, 
1658.00, 
1659.00, 
1660.00, 
1661.00, 
1662.00, 
1663.00, 
1664.00, 
1665.00, 
1666.00, 
1667.00, 
1668.00, 
1669.00, 
1670.00, 
1671.00, 
1672.00, 
1673.00, 
1674.00, 
1675.00, 
1676.00, 
1677.00, 
1678.00, 
1679.00, 
1680.00, 
1681.00, 
1682.00, 
1683.00, 
1684.00, 
1685.00, 
1686.00, 
1687.00, 
1688.00, 
1689.00, 
1690.00, 
1691.00, 
1692.00, 
1693.00, 
1694.00, 
1695.00, 
1696.00, 
1697.00, 
1698.00, 
1699.00, 
1700.00, 
1701.00, 
1702.00, 
1703.00, 
1704.00, 
1705.00, 
1706.00, 
1707.00, 
1708.00, 
1709.00, 
1710.00, 
1711.00, 
1712.00, 
1713.00, 
1714.00, 
1715.00, 
1716.00, 
1717.00, 
1718.00, 
1719.00, 
1720.00, 
1721.00, 
1722.00, 
1723.00, 
1724.00, 
1725.00, 
1726.00, 
1727.00, 
1728.00, 
1729.00, 
1730.00, 
1731.00, 
1732.00, 
1733.00, 
1734.00, 
1735.00, 
1736.00, 
1737.00, 
1738.00, 
1739.00, 
1740.00, 
1741.00, 
1742.00, 
1743.00, 
1744.00, 
1745.00, 
1746.00, 
1747.00, 
1748.00, 
1749.00, 
1750.00, 
1751.00, 
1752.00, 
1753.00, 
1754.00, 
1755.00, 
1756.00, 
1757.00, 
1758.00, 
1759.00, 
1760.00, 
1761.00, 
1762.00, 
1763.00, 
1764.00, 
1765.00, 
1766.00, 
1767.00, 
1768.00, 
1769.00, 
1770.00, 
1771.00, 
1772.00, 
1773.00, 
1774.00, 
1775.00, 
1776.00, 
1777.00, 
1778.00, 
1779.00, 
1780.00, 
1781.00, 
1782.00, 
1783.00, 
1784.00, 
1785.00, 
1786.00, 
1787.00, 
1788.00, 
1789.00, 
1790.00, 
1791.00, 
1792.00, 
1793.00, 
1794.00, 
1795.00, 
1796.00, 
1797.00, 
1798.00, 
1799.00, 
1800.00, 
1801.00, 
1802.00, 
1803.00, 
1804.00, 
1805.00, 
1806.00, 
1807.00, 
1808.00, 
1809.00, 
1810.00, 
1811.00, 
1812.00, 
1813.00, 
1814.00, 
1815.00, 
1816.00, 
1817.00, 
1818.00, 
1819.00, 
1820.00, 
1821.00, 
1822.00, 
1823.00, 
1824.00, 
1825.00, 
1826.00, 
1827.00, 
1828.00, 
1829.00, 
1830.00, 
1831.00, 
1832.00, 
1833.00, 
1834.00, 
1835.00, 
1836.00, 
1837.00, 
1838.00, 
1839.00, 
1840.00, 
1841.00, 
1842.00, 
1843.00, 
1844.00, 
1845.00, 
1846.00, 
1847.00, 
1848.00, 
1849.00, 
1850.00, 
1851.00, 
1852.00, 
1853.00, 
1854.00, 
1855.00, 
1856.00, 
1857.00, 
1858.00, 
1859.00, 
1860.00, 
1861.00, 
1862.00, 
1863.00, 
1864.00, 
1865.00, 
1866.00, 
1867.00, 
1868.00, 
1869.00, 
1870.00, 
1871.00, 
1872.00, 
1873.00, 
1874.00, 
1875.00, 
1876.00, 
1877.00, 
1878.00, 
1879.00, 
1880.00, 
1881.00, 
1882.00, 
1883.00, 
1884.00, 
1885.00, 
1886.00, 
1887.00, 
1888.00, 
1889.00, 
1890.00, 
1891.00, 
1892.00, 
1893.00, 
1894.00, 
1895.00, 
1896.00, 
1897.00, 
1898.00, 
1899.00, 
1900.00, 
1901.00, 
1902.00, 
1903.00, 
1904.00, 
1905.00, 
1906.00, 
1907.00, 
1908.00, 
1909.00, 
1910.00, 
1911.00, 
1912.00, 
1913.00, 
1914.00, 
1915.00, 
1916.00, 
1917.00, 
1918.00, 
1919.00, 
1920.00, 
1921.00, 
1922.00, 
1923.00, 
1924.00, 
1925.00, 
1926.00, 
1927.00, 
1928.00, 
1929.00, 
1930.00, 
1931.00, 
1932.00, 
1933.00, 
1934.00, 
1935.00, 
1936.00, 
1937.00, 
1938.00, 
1939.00, 
1940.00, 
1941.00, 
1942.00, 
1943.00, 
1944.00, 
1945.00, 
1946.00, 
1947.00, 
1948.00, 
1949.00, 
1950.00, 
1951.00, 
1952.00, 
1953.00, 
1954.00, 
1955.00, 
1956.00, 
1957.00, 
1958.00, 
1959.00, 
1960.00, 
1961.00, 
1962.00, 
1963.00, 
1964.00, 
1965.00, 
1966.00, 
1967.00, 
1968.00, 
1969.00, 
1970.00, 
1971.00, 
1972.00, 
1973.00, 
1974.00, 
1975.00, 
1976.00, 
1977.00, 
1978.00, 
1979.00, 
1980.00, 
1981.00, 
1982.00, 
1983.00, 
1984.00, 
1985.00, 
1986.00, 
1987.00, 
1988.00, 
1989.00, 
1990.00, 
1991.00, 
1992.00, 
1993.00, 
1994.00, 
1995.00, 
1996.00, 
1997.00, 
1998.00, 
1999.00, 
2000.00, 
2001.00, 
2002.00, 
2003.00, 
2004.00, 
2005.00, 
2006.00, 
2007.00, 
2008.00, 
2009.00, 
2010.00, 
2011.00, 
2012.00, 
2013.00, 
2014.00, 
2015.00, 
2016.00, 
2017.00, 
2018.00, 
2019.00, 
2020.00, 
2021.00, 
2022.00, 
2023.00, 
2024.00, 
2025.00, 
2026.00, 
2027.00, 
2028.00, 
2029.00, 
2030.00, 
2031.00, 
2032.00, 
2033.00, 
2034.00, 
2035.00, 
2036.00, 
2037.00, 
2038.00, 
2039.00, 
2040.00, 
2041.00, 
2042.00, 
2043.00, 
2044.00, 
2045.00, 
2046.00, 
2047.00, 
2048.00, 
2049.00, 
2050.00, 
2051.00, 
2052.00, 
2053.00, 
2054.00, 
2055.00, 
2056.00, 
2057.00, 
2058.00, 
2059.00, 
2060.00, 
2061.00, 
2062.00, 
2063.00, 
2064.00, 
2065.00, 
2066.00, 
2067.00, 
2068.00, 
2069.00, 
2070.00, 
2071.00, 
2072.00, 
2073.00, 
2074.00, 
2075.00, 
2076.00, 
2077.00, 
2078.00, 
2079.00, 
2080.00, 
2081.00, 
2082.00, 
2083.00, 
2084.00, 
2085.00, 
2086.00, 
2087.00, 
2088.00, 
2089.00, 
2090.00, 
2091.00, 
2092.00, 
2093.00, 
2094.00, 
2095.00, 
2096.00, 
2097.00, 
2098.00, 
2099.00, 
2100.00, 
2101.00, 
2102.00, 
2103.00, 
2104.00, 
2105.00, 
2106.00, 
2107.00, 
2108.00, 
2109.00, 
2110.00, 
2111.00, 
2112.00, 
2113.00, 
2114.00, 
2115.00, 
2116.00, 
2117.00, 
2118.00, 
2119.00, 
2120.00, 
2121.00, 
2122.00, 
2123.00, 
2124.00, 
2125.00, 
2126.00, 
2127.00, 
2128.00, 
2129.00, 
2130.00, 
2131.00, 
2132.00, 
2133.00, 
2134.00, 
2135.00, 
2136.00, 
2137.00, 
2138.00, 
2139.00, 
2140.00, 
2141.00, 
2142.00, 
2143.00, 
2144.00, 
2145.00, 
2146.00, 
2147.00, 
2148.00, 
2149.00, 
2150.00, 
2151.00, 
2152.00, 
2153.00, 
2154.00, 
2155.00, 
2156.00, 
2157.00, 
2158.00, 
2159.00, 
2160.00, 
2161.00, 
2162.00, 
2163.00, 
2164.00, 
2165.00, 
2166.00, 
2167.00, 
2168.00, 
2169.00, 
2170.00, 
2171.00, 
2172.00, 
2173.00, 
2174.00, 
2175.00, 
2176.00, 
2177.00, 
2178.00, 
2179.00, 
2180.00, 
2181.00, 
2182.00, 
2183.00, 
2184.00, 
2185.00, 
2186.00, 
2187.00, 
2188.00, 
2189.00, 
2190.00, 
2191.00, 
2192.00, 
2193.00, 
2194.00, 
2195.00, 
2196.00, 
2197.00, 
2198.00, 
2199.00, 
2200.00, 
2201.00, 
2202.00, 
2203.00, 
2204.00, 
2205.00, 
2206.00, 
2207.00, 
2208.00, 
2209.00, 
2210.00, 
2211.00, 
2212.00, 
2213.00, 
2214.00, 
2215.00, 
2216.00, 
2217.00, 
2218.00, 
2219.00, 
2220.00, 
2221.00, 
2222.00, 
2223.00, 
2224.00, 
2225.00, 
2226.00, 
2227.00, 
2228.00, 
2229.00, 
2230.00, 
2231.00, 
2232.00, 
2233.00, 
2234.00, 
2235.00, 
2236.00, 
2237.00, 
2238.00, 
2239.00, 
2240.00, 
2241.00, 
2242.00, 
2243.00, 
2244.00, 
2245.00, 
2246.00, 
2247.00, 
2248.00, 
2249.00, 
2250.00, 
2251.00, 
2252.00, 
2253.00, 
2254.00, 
2255.00, 
2256.00, 
2257.00, 
2258.00, 
2259.00, 
2260.00, 
2261.00, 
2262.00, 
2263.00, 
2264.00, 
2265.00, 
2266.00, 
2267.00, 
2268.00, 
2269.00, 
2270.00, 
2271.00, 
2272.00, 
2273.00, 
2274.00, 
2275.00, 
2276.00, 
2277.00, 
2278.00, 
2279.00, 
2280.00, 
2281.00, 
2282.00, 
2283.00, 
2284.00, 
2285.00, 
2286.00, 
2287.00, 
2288.00, 
2289.00, 
2290.00, 
2291.00, 
2292.00, 
2293.00, 
2294.00, 
2295.00, 
2296.00, 
2297.00, 
2298.00, 
2299.00, 
2300.00, 
2301.00, 
2302.00, 
2303.00, 
2304.00, 
2305.00, 
2306.00, 
2307.00, 
2308.00, 
2309.00, 
2310.00, 
2311.00, 
2312.00, 
2313.00, 
2314.00, 
2315.00, 
2316.00, 
2317.00, 
2318.00, 
2319.00, 
2320.00, 
2321.00, 
2322.00, 
2323.00, 
2324.00, 
2325.00, 
2326.00, 
2327.00, 
2328.00, 
2329.00, 
2330.00, 
2331.00, 
2332.00, 
2333.00, 
2334.00, 
2335.00, 
2336.00, 
2337.00, 
2338.00, 
2339.00, 
2340.00, 
2341.00, 
2342.00, 
2343.00, 
2344.00, 
2345.00, 
2346.00, 
2347.00, 
2348.00, 
2349.00, 
2350.00, 
2351.00, 
2352.00, 
2353.00, 
2354.00, 
2355.00, 
2356.00, 
2357.00, 
2358.00, 
2359.00, 
2360.00, 
2361.00, 
2362.00, 
2363.00, 
2364.00, 
2365.00, 
2366.00, 
2367.00, 
2368.00, 
2369.00, 
2370.00, 
2371.00, 
2372.00, 
2373.00, 
2374.00, 
2375.00, 
2376.00, 
2377.00, 
2378.00, 
2379.00, 
2380.00, 
2381.00, 
2382.00, 
2383.00, 
2384.00, 
2385.00, 
2386.00, 
2387.00, 
2388.00, 
2389.00, 
2390.00, 
2391.00, 
2392.00, 
2393.00, 
2394.00, 
2395.00, 
2396.00, 
2397.00, 
2398.00, 
2399.00, 
2400.00, 
2401.00, 
2402.00, 
2403.00, 
2404.00, 
2405.00, 
2406.00, 
2407.00, 
2408.00, 
2409.00, 
2410.00, 
2411.00, 
2412.00, 
2413.00, 
2414.00, 
2415.00, 
2416.00, 
2417.00, 
2418.00, 
2419.00, 
2420.00, 
2421.00, 
2422.00, 
2423.00, 
2424.00, 
2425.00, 
2426.00, 
2427.00, 
2428.00, 
2429.00, 
2430.00, 
2431.00, 
2432.00, 
2433.00, 
2434.00, 
2435.00, 
2436.00, 
2437.00, 
2438.00, 
2439.00, 
2440.00, 
2441.00, 
2442.00, 
2443.00, 
2444.00, 
2445.00, 
2446.00, 
2447.00, 
2448.00, 
2449.00, 
2450.00, 
2451.00, 
2452.00, 
2453.00, 
2454.00, 
2455.00, 
2456.00, 
2457.00, 
2458.00, 
2459.00, 
2460.00, 
2461.00, 
2462.00, 
2463.00, 
2464.00, 
2465.00, 
2466.00, 
2467.00, 
2468.00, 
2469.00, 
2470.00, 
2471.00, 
2472.00, 
2473.00, 
2474.00, 
2475.00, 
2476.00, 
2477.00, 
2478.00, 
2479.00, 
2480.00, 
2481.00, 
2482.00, 
2483.00, 
2484.00, 
2485.00, 
2486.00, 
2487.00, 
2488.00, 
2489.00, 
2490.00, 
2491.00, 
2492.00, 
2493.00, 
2494.00, 
2495.00, 
2496.00, 
2497.00, 
2498.00, 
2499.00, 
2500.00, 
2501.00, 
2502.00, 
2503.00, 
2504.00, 
2505.00, 
2506.00, 
2507.00, 
2508.00, 
2509.00, 
2510.00, 
2511.00, 
2512.00, 
2513.00, 
2514.00, 
2515.00, 
2516.00, 
2517.00, 
2518.00, 
2519.00, 
2520.00, 
2521.00, 
2522.00, 
2523.00, 
2524.00, 
2525.00, 
2526.00, 
2527.00, 
2528.00, 
2529.00, 
2530.00, 
2531.00, 
2532.00, 
2533.00, 
2534.00, 
2535.00, 
2536.00, 
2537.00, 
2538.00, 
2539.00, 
2540.00, 
2541.00, 
2542.00, 
2543.00, 
2544.00, 
2545.00, 
2546.00, 
2547.00, 
2548.00, 
2549.00, 
2550.00, 
2551.00, 
2552.00, 
2553.00, 
2554.00, 
2555.00, 
2556.00, 
2557.00, 
2558.00, 
2559.00, 
2560.00, 
2561.00, 
2562.00, 
2563.00, 
2564.00, 
2565.00, 
2566.00, 
2567.00, 
2568.00, 
2569.00, 
2570.00, 
2571.00, 
2572.00, 
2573.00, 
2574.00, 
2575.00, 
2576.00, 
2577.00, 
2578.00, 
2579.00, 
2580.00, 
2581.00, 
2582.00, 
2583.00, 
2584.00, 
2585.00, 
2586.00, 
2587.00, 
2588.00, 
2589.00, 
2590.00, 
2591.00, 
2592.00, 
2593.00, 
2594.00, 
2595.00, 
2596.00, 
2597.00, 
2598.00, 
2599.00, 
2600.00, 
