"2cP1 - RawData"
"Wavelength nm.","T%"
200.00,0.003
201.00,0.003
202.00,0.000
203.00,-0.001
204.00,-0.002
205.00,0.003
206.00,0.002
207.00,0.000
208.00,0.004
209.00,0.003
210.00,0.002
211.00,0.001
212.00,0.002
213.00,-0.001
214.00,-0.000
215.00,0.002
216.00,-0.002
217.00,0.002
218.00,0.005
219.00,-0.001
220.00,0.002
221.00,-0.001
222.00,0.000
223.00,0.000
224.00,0.001
225.00,0.000
226.00,0.001
227.00,-0.001
228.00,0.000
229.00,0.001
230.00,0.002
231.00,0.000
232.00,0.001
233.00,0.002
234.00,0.000
235.00,0.001
236.00,-0.001
237.00,0.001
238.00,0.003
239.00,-0.000
240.00,-0.001
241.00,0.001
242.00,0.001
243.00,0.001
244.00,0.000
245.00,0.001
246.00,0.000
247.00,0.000
248.00,0.001
249.00,0.000
250.00,-0.001
251.00,-0.001
252.00,-0.001
253.00,-0.001
254.00,-0.001
255.00,-0.000
256.00,0.001
257.00,0.001
258.00,0.000
259.00,0.000
260.00,-0.000
261.00,0.000
262.00,-0.001
263.00,0.001
264.00,-0.000
265.00,-0.001
266.00,0.000
267.00,-0.000
268.00,0.001
269.00,-0.001
270.00,-0.000
271.00,-0.001
272.00,0.000
273.00,0.000
274.00,0.000
275.00,0.001
276.00,0.001
277.00,0.001
278.00,0.001
279.00,-0.000
280.00,0.001
281.00,-0.002
282.00,0.000
283.00,-0.000
284.00,0.000
285.00,0.001
286.00,0.001
287.00,0.000
288.00,0.001
289.00,0.000
290.00,0.002
291.00,-0.002
292.00,0.001
293.00,0.003
294.00,-0.001
295.00,0.002
296.00,-0.001
297.00,0.000
298.00,0.000
299.00,0.001
300.00,0.003
301.00,0.004
302.00,0.006
303.00,0.009
304.00,0.013
305.00,0.021
306.00,0.031
307.00,0.047
308.00,0.071
309.00,0.111
310.00,0.155
311.00,0.208
312.00,0.284
313.00,0.392
314.00,0.511
315.00,0.668
316.00,0.859
317.00,1.076
318.00,1.333
319.00,1.634
320.00,1.976
321.00,2.401
322.00,2.835
323.00,3.334
324.00,3.869
325.00,4.416
326.00,4.964
327.00,5.632
328.00,6.284
329.00,6.951
330.00,7.679
331.00,8.407
332.00,9.116
333.00,9.901
334.00,10.627
335.00,11.405
336.00,12.134
337.00,12.877
338.00,13.651
339.00,14.323
340.00,15.027
341.00,15.723
342.00,16.396
343.00,16.992
344.00,17.635
345.00,18.203
346.00,18.723
347.00,19.259
348.00,19.739
349.00,20.204
350.00,20.659
351.00,21.091
352.00,21.433
353.00,21.815
354.00,22.144
355.00,22.471
356.00,22.776
357.00,23.073
358.00,23.335
359.00,23.570
360.00,23.790
361.00,24.051
362.00,24.224
363.00,24.454
364.00,24.545
365.00,24.715
366.00,24.857
367.00,24.978
368.00,25.016
369.00,25.124
370.00,25.189
371.00,25.263
372.00,25.309
373.00,25.321
374.00,25.291
375.00,25.287
376.00,25.314
377.00,25.264
378.00,25.219
379.00,25.201
380.00,25.189
381.00,25.130
382.00,25.163
383.00,25.189
384.00,25.239
385.00,25.312
386.00,25.347
387.00,25.351
388.00,25.411
389.00,25.435
390.00,25.530
391.00,25.585
392.00,25.603
393.00,25.642
394.00,25.693
395.00,25.666
396.00,25.697
397.00,25.723
398.00,25.752
399.00,25.760
400.00,25.708
401.00,25.696
402.00,25.688
403.00,25.778
404.00,25.790
405.00,25.765
406.00,25.801
407.00,25.734
408.00,25.707
409.00,25.690
410.00,25.657
411.00,25.674
412.00,25.653
413.00,25.647
414.00,25.647
415.00,25.661
416.00,25.680
417.00,25.679
418.00,25.688
419.00,25.719
420.00,25.736
421.00,25.866
422.00,25.894
423.00,25.877
424.00,25.888
425.00,25.958
426.00,25.974
427.00,26.014
428.00,26.061
429.00,26.113
430.00,26.188
431.00,26.253
432.00,26.186
433.00,26.287
434.00,26.310
435.00,26.397
436.00,26.457
437.00,26.497
438.00,26.579
439.00,26.643
440.00,26.676
441.00,26.775
442.00,26.865
443.00,26.923
444.00,27.027
445.00,27.085
446.00,27.212
447.00,27.325
448.00,27.411
449.00,27.487
450.00,27.551
451.00,27.643
452.00,27.740
453.00,27.858
454.00,27.952
455.00,28.038
456.00,28.138
457.00,28.256
458.00,28.329
459.00,28.449
460.00,28.609
461.00,28.697
462.00,28.813
463.00,28.939
464.00,29.031
465.00,29.129
466.00,29.220
467.00,29.357
468.00,29.468
469.00,29.603
470.00,29.675
471.00,29.741
472.00,29.837
473.00,29.894
474.00,30.002
475.00,30.151
476.00,30.227
477.00,30.338
478.00,30.434
479.00,30.635
480.00,30.755
481.00,30.911
482.00,31.049
483.00,31.182
484.00,31.273
485.00,31.440
486.00,31.592
487.00,31.695
488.00,31.834
489.00,31.992
490.00,32.088
491.00,32.244
492.00,32.432
493.00,32.513
494.00,32.579
495.00,32.680
496.00,32.794
497.00,32.919
498.00,33.057
499.00,33.190
500.00,33.277
501.00,33.444
502.00,33.497
503.00,33.700
504.00,33.754
505.00,33.870
506.00,33.976
507.00,34.079
508.00,34.172
509.00,34.295
510.00,34.462
511.00,34.541
512.00,34.652
513.00,34.765
514.00,34.875
515.00,34.991
516.00,35.078
517.00,35.164
518.00,35.293
519.00,35.382
520.00,35.501
521.00,35.548
522.00,35.603
523.00,35.669
524.00,35.748
525.00,35.823
526.00,35.934
527.00,36.026
528.00,36.092
529.00,36.169
530.00,36.271
531.00,36.429
532.00,36.525
533.00,36.600
534.00,36.724
535.00,36.782
536.00,36.873
537.00,36.893
538.00,37.022
539.00,37.131
540.00,37.156
541.00,37.189
542.00,37.294
543.00,37.334
544.00,37.409
545.00,37.491
546.00,37.528
547.00,37.586
548.00,37.741
549.00,37.783
550.00,37.907
551.00,37.924
552.00,38.019
553.00,38.082
554.00,38.170
555.00,38.165
556.00,38.258
557.00,38.374
558.00,38.316
559.00,38.436
560.00,38.541
561.00,38.503
562.00,38.602
563.00,38.689
564.00,38.581
565.00,38.734
566.00,38.768
567.00,38.803
568.00,38.840
569.00,38.890
570.00,38.878
571.00,39.011
572.00,39.019
573.00,39.028
574.00,39.114
575.00,39.101
576.00,39.144
577.00,39.210
578.00,39.303
579.00,39.303
580.00,39.413
581.00,39.494
582.00,39.594
583.00,39.620
584.00,39.699
585.00,39.778
586.00,39.865
587.00,39.869
588.00,39.938
589.00,39.973
590.00,40.087
591.00,40.083
592.00,40.088
593.00,40.124
594.00,40.201
595.00,40.200
596.00,40.265
597.00,40.269
598.00,40.419
599.00,40.434
600.00,40.515
601.00,40.609
602.00,40.615
603.00,40.571
604.00,40.680
605.00,40.723
606.00,40.788
607.00,40.765
608.00,40.815
609.00,40.819
610.00,40.867
611.00,40.948
612.00,40.966
613.00,40.972
614.00,41.045
615.00,41.054
616.00,41.164
617.00,41.198
618.00,41.260
619.00,41.282
620.00,41.315
621.00,41.399
622.00,41.437
623.00,41.458
624.00,41.551
625.00,41.607
626.00,41.610
627.00,41.690
628.00,41.710
629.00,41.778
630.00,41.871
631.00,41.908
632.00,41.929
633.00,41.961
634.00,42.073
635.00,42.082
636.00,42.127
637.00,42.341
638.00,42.351
639.00,42.366
640.00,42.445
641.00,42.554
642.00,42.509
643.00,42.537
644.00,42.680
645.00,42.724
646.00,42.780
647.00,42.883
648.00,42.849
649.00,42.954
650.00,43.005
651.00,43.121
652.00,43.180
653.00,43.255
654.00,43.312
655.00,43.342
656.00,43.453
657.00,43.600
658.00,43.663
659.00,43.750
660.00,43.682
661.00,43.761
662.00,43.952
663.00,44.004
664.00,44.050
665.00,44.076
666.00,44.206
667.00,44.239
668.00,44.346
669.00,44.449
670.00,44.535
671.00,44.472
672.00,44.598
673.00,44.794
674.00,44.736
675.00,44.883
676.00,44.854
677.00,45.020
678.00,44.965
679.00,44.961
680.00,45.114
681.00,45.218
682.00,45.362
683.00,45.403
684.00,45.409
685.00,45.480
686.00,45.495
687.00,45.700
688.00,45.743
689.00,45.824
690.00,45.862
691.00,45.976
692.00,45.991
693.00,45.972
694.00,46.061
695.00,46.244
696.00,46.278
697.00,46.341
698.00,46.444
699.00,46.427
700.00,46.602
701.00,46.574
702.00,46.621
703.00,46.684
704.00,46.728
705.00,46.850
706.00,46.861
707.00,47.049
708.00,46.944
709.00,47.049
710.00,47.239
711.00,47.082
712.00,47.111
713.00,47.238
714.00,47.289
715.00,47.317
716.00,47.387
717.00,47.450
718.00,47.402
719.00,47.527
720.00,47.594
721.00,51.692
722.00,51.772
723.00,51.742
724.00,51.698
725.00,51.694
726.00,51.771
727.00,51.751
728.00,51.755
729.00,51.774
730.00,51.855
731.00,51.771
732.00,51.848
733.00,51.879
734.00,51.837
735.00,51.809
736.00,51.835
737.00,51.908
738.00,51.965
739.00,51.966
740.00,51.971
741.00,52.022
742.00,51.902
743.00,51.963
744.00,51.839
745.00,51.950
746.00,51.880
747.00,51.925
748.00,51.885
749.00,51.834
750.00,51.915
751.00,51.912
752.00,51.877
753.00,51.951
754.00,51.802
755.00,51.848
756.00,51.891
757.00,51.849
758.00,51.883
759.00,51.895
760.00,51.860
761.00,51.894
762.00,51.894
763.00,51.920
764.00,51.926
765.00,51.901
766.00,51.889
767.00,51.890
768.00,51.916
769.00,51.914
770.00,51.902
771.00,51.955
772.00,51.914
773.00,51.916
774.00,51.923
775.00,51.872
776.00,51.911
777.00,51.917
778.00,51.887
779.00,51.901
780.00,51.844
781.00,51.894
782.00,51.844
783.00,51.860
784.00,51.850
785.00,51.800
786.00,51.878
787.00,51.838
788.00,51.773
789.00,51.797
790.00,51.753
791.00,51.774
792.00,51.730
793.00,51.727
794.00,51.728
795.00,51.684
796.00,51.712
797.00,51.629
798.00,51.667
799.00,51.616
800.00,51.597
801.00,51.636
802.00,51.624
803.00,51.555
804.00,51.534
805.00,51.503
806.00,51.542
807.00,51.460
808.00,51.509
809.00,51.449
810.00,51.386
811.00,51.435
812.00,51.405
813.00,51.444
814.00,51.407
815.00,51.359
816.00,51.390
817.00,51.320
818.00,51.332
819.00,51.306
820.00,51.301
821.00,51.195
822.00,51.198
823.00,51.212
824.00,51.272
825.00,51.135
826.00,51.213
827.00,51.232
828.00,51.162
829.00,51.168
830.00,51.206
831.00,53.614
832.00,53.626
833.00,53.616
834.00,53.584
835.00,53.492
836.00,53.585
837.00,53.450
838.00,53.461
839.00,53.508
840.00,53.447
841.00,53.473
842.00,53.435
843.00,53.410
844.00,53.404
845.00,53.365
846.00,53.369
847.00,53.341
848.00,53.302
849.00,53.248
850.00,53.190
851.00,53.162
852.00,53.162
853.00,53.134
854.00,53.110
855.00,53.045
856.00,53.041
857.00,52.998
858.00,52.994
859.00,52.946
860.00,52.957
861.00,52.950
862.00,52.869
863.00,52.880
864.00,52.882
865.00,52.893
866.00,52.606
867.00,52.839
868.00,52.843
869.00,52.772
870.00,52.776
871.00,52.762
872.00,52.770
873.00,52.750
874.00,52.717
875.00,52.719
876.00,52.675
877.00,52.685
878.00,52.663
879.00,52.658
880.00,52.613
881.00,52.617
882.00,52.616
883.00,52.604
884.00,52.571
885.00,52.512
886.00,52.512
887.00,52.494
888.00,52.465
889.00,52.438
890.00,52.456
891.00,52.428
892.00,52.403
893.00,52.377
894.00,52.378
895.00,52.337
896.00,52.324
897.00,52.310
898.00,52.276
899.00,52.309
900.00,52.293
901.00,52.239
902.00,52.223
903.00,52.206
904.00,52.219
905.00,52.162
906.00,52.169
907.00,52.143
908.00,52.131
909.00,52.129
910.00,52.061
911.00,52.060
912.00,52.085
913.00,52.027
914.00,52.001
915.00,51.969
916.00,51.959
917.00,51.907
918.00,51.907
919.00,51.892
920.00,51.864
921.00,51.849
922.00,51.879
923.00,51.843
924.00,51.808
925.00,51.781
926.00,51.796
927.00,51.779
928.00,51.740
929.00,51.734
930.00,51.699
931.00,51.681
932.00,51.651
933.00,51.646
934.00,51.622
935.00,51.617
936.00,51.581
937.00,51.567
938.00,51.548
939.00,51.547
940.00,51.500
941.00,51.507
942.00,51.449
943.00,51.469
944.00,51.432
945.00,51.432
946.00,51.412
947.00,51.393
948.00,51.371
949.00,51.343
950.00,51.317
951.00,51.303
952.00,51.293
953.00,51.246
954.00,51.248
955.00,51.195
956.00,51.181
957.00,51.136
958.00,51.146
959.00,51.099
960.00,51.088
961.00,51.065
962.00,51.093
963.00,51.051
964.00,51.039
965.00,51.027
966.00,51.020
967.00,51.008
968.00,50.991
969.00,50.999
970.00,50.974
971.00,50.988
972.00,50.958
973.00,50.973
974.00,51.006
975.00,50.957
976.00,50.990
977.00,50.956
978.00,50.993
979.00,50.956
980.00,50.982
981.00,50.975
982.00,50.955
983.00,50.953
984.00,50.940
985.00,50.967
986.00,50.915
987.00,50.943
988.00,50.911
989.00,50.893
990.00,50.903
991.00,50.874
992.00,50.895
993.00,50.866
994.00,50.841
995.00,50.836
996.00,50.831
997.00,50.808
998.00,50.777
999.00,50.803
1000.00,50.740
1001.00,50.755
1002.00,50.736
1003.00,50.729
1004.00,50.722
1005.00,50.698
1006.00,50.716
1007.00,50.696
1008.00,50.675
1009.00,50.665
1010.00,50.660
1011.00,50.633
1012.00,50.600
1013.00,50.612
1014.00,50.553
1015.00,50.590
1016.00,50.532
1017.00,50.539
1018.00,50.521
1019.00,50.481
1020.00,50.482
1021.00,50.469
1022.00,50.453
1023.00,50.413
1024.00,50.429
1025.00,50.403
1026.00,50.414
1027.00,50.368
1028.00,50.353
1029.00,50.361
1030.00,50.315
1031.00,50.327
1032.00,50.298
1033.00,50.285
1034.00,50.256
1035.00,50.228
1036.00,50.209
1037.00,50.203
1038.00,50.180
1039.00,50.148
1040.00,50.155
1041.00,50.096
1042.00,50.095
1043.00,50.083
1044.00,50.104
1045.00,50.095
1046.00,50.083
1047.00,50.082
1048.00,50.097
1049.00,50.105
1050.00,50.114
1051.00,50.139
1052.00,50.138
1053.00,50.149
1054.00,50.149
1055.00,50.156
1056.00,50.174
1057.00,50.175
1058.00,50.166
1059.00,50.171
1060.00,50.164
1061.00,50.166
1062.00,50.145
1063.00,50.152
1064.00,50.141
1065.00,50.140
1066.00,50.119
1067.00,50.095
1068.00,50.114
1069.00,50.092
1070.00,50.084
1071.00,50.058
1072.00,50.069
1073.00,50.052
1074.00,50.041
1075.00,50.029
1076.00,50.024
1077.00,50.002
1078.00,49.994
1079.00,49.980
1080.00,49.987
1081.00,49.976
1082.00,49.964
1083.00,49.957
1084.00,49.952
1085.00,49.940
1086.00,49.941
1087.00,49.953
1088.00,49.912
1089.00,49.905
1090.00,49.902
1091.00,49.891
1092.00,49.880
1093.00,49.856
1094.00,49.850
1095.00,49.849
1096.00,49.828
1097.00,49.824
1098.00,49.824
1099.00,49.812
1100.00,49.805
1101.00,49.787
1102.00,49.776
1103.00,49.776
1104.00,49.755
1105.00,49.743
1106.00,49.760
1107.00,49.717
1108.00,49.719
1109.00,49.714
1110.00,49.709
1111.00,49.696
1112.00,49.682
1113.00,49.673
1114.00,49.687
1115.00,49.677
1116.00,49.673
1117.00,49.654
1118.00,49.644
1119.00,49.637
1120.00,49.639
1121.00,49.616
1122.00,49.614
1123.00,49.599
1124.00,49.590
1125.00,49.569
1126.00,49.579
1127.00,49.574
1128.00,49.562
1129.00,49.543
1130.00,49.555
1131.00,49.541
1132.00,49.543
1133.00,49.529
1134.00,49.522
1135.00,49.557
1136.00,49.504
1137.00,49.497
1138.00,49.498
1139.00,49.509
1140.00,49.490
1141.00,49.487
1142.00,49.487
1143.00,49.478
1144.00,49.469
1145.00,49.464
1146.00,49.470
1147.00,49.460
1148.00,49.450
1149.00,49.455
1150.00,49.461
1151.00,49.442
1152.00,49.426
1153.00,49.433
1154.00,49.413
1155.00,49.421
1156.00,49.414
1157.00,49.410
1158.00,49.417
1159.00,49.406
1160.00,49.410
1161.00,49.418
1162.00,49.398
1163.00,49.402
1164.00,49.407
1165.00,49.388
1166.00,49.400
1167.00,49.388
1168.00,49.384
1169.00,49.387
1170.00,49.390
1171.00,49.364
1172.00,49.377
1173.00,49.365
1174.00,49.370
1175.00,49.379
1176.00,49.369
1177.00,49.369
1178.00,49.354
1179.00,49.359
1180.00,49.369
1181.00,49.371
1182.00,49.355
1183.00,49.373
1184.00,49.328
1185.00,49.348
1186.00,49.352
1187.00,49.343
1188.00,49.336
1189.00,49.333
1190.00,49.322
1191.00,49.325
1192.00,49.328
1193.00,49.320
1194.00,49.334
1195.00,49.300
1196.00,49.323
1197.00,49.325
1198.00,49.317
1199.00,49.317
1200.00,49.317
1201.00,49.321
1202.00,49.309
1203.00,49.308
1204.00,49.285
1205.00,49.317
1206.00,49.296
1207.00,49.322
1208.00,49.323
1209.00,49.294
1210.00,49.311
1211.00,49.298
1212.00,49.310
1213.00,49.286
1214.00,49.299
1215.00,49.283
1216.00,49.301
1217.00,49.293
1218.00,49.282
1219.00,49.305
1220.00,49.278
1221.00,49.294
1222.00,49.278
1223.00,49.293
1224.00,49.297
1225.00,49.279
1226.00,49.283
1227.00,49.275
1228.00,49.291
1229.00,49.296
1230.00,49.350
1231.00,49.316
1232.00,49.327
1233.00,49.323
1234.00,49.327
1235.00,49.329
1236.00,49.325
1237.00,49.317
1238.00,49.318
1239.00,49.328
1240.00,49.333
1241.00,49.336
1242.00,49.327
1243.00,49.360
1244.00,49.345
1245.00,49.347
1246.00,49.356
1247.00,49.342
1248.00,49.341
1249.00,49.358
1250.00,49.342
1251.00,49.338
1252.00,49.361
1253.00,49.340
1254.00,49.372
1255.00,49.360
1256.00,49.332
1257.00,49.328
1258.00,49.370
1259.00,49.376
1260.00,49.394
1261.00,49.386
1262.00,49.384
1263.00,49.389
1264.00,49.389
1265.00,49.393
1266.00,49.394
1267.00,49.392
1268.00,49.410
1269.00,49.400
1270.00,49.410
1271.00,49.409
1272.00,49.415
1273.00,49.437
1274.00,49.451
1275.00,49.434
1276.00,49.436
1277.00,49.427
1278.00,49.441
1279.00,49.451
1280.00,49.443
1281.00,49.445
1282.00,49.462
1283.00,49.440
1284.00,49.455
1285.00,49.444
1286.00,49.447
1287.00,49.453
1288.00,49.470
1289.00,49.458
1290.00,49.481
1291.00,49.477
1292.00,49.492
1293.00,49.482
1294.00,49.495
1295.00,49.501
1296.00,49.508
1297.00,49.506
1298.00,49.530
1299.00,49.517
1300.00,49.519
1301.00,49.529
1302.00,49.524
1303.00,49.549
1304.00,49.538
1305.00,49.549
1306.00,49.551
1307.00,49.575
1308.00,49.565
1309.00,49.556
1310.00,49.562
1311.00,49.550
1312.00,49.572
1313.00,49.573
1314.00,49.582
1315.00,49.603
1316.00,49.587
1317.00,49.598
1318.00,49.603
1319.00,49.597
1320.00,49.637
1321.00,49.777
1322.00,49.795
1323.00,49.777
1324.00,49.776
1325.00,49.750
1326.00,49.792
1327.00,49.771
1328.00,49.769
1329.00,49.767
1330.00,49.755
1331.00,49.776
1332.00,49.803
1333.00,49.742
1334.00,49.823
1335.00,49.827
1336.00,49.849
1337.00,49.877
1338.00,49.931
1339.00,49.989
1340.00,50.039
1341.00,50.103
1342.00,50.179
1343.00,50.239
1344.00,50.298
1345.00,50.351
1346.00,50.426
1347.00,50.499
1348.00,50.411
1349.00,50.448
1350.00,50.437
1351.00,50.454
1352.00,50.431
1353.00,50.522
1354.00,50.486
1355.00,50.404
1356.00,50.498
1357.00,50.490
1358.00,50.507
1359.00,50.538
1360.00,50.523
1361.00,50.463
1362.00,50.455
1363.00,50.505
1364.00,50.471
1365.00,50.514
1366.00,50.516
1367.00,50.477
1368.00,50.489
1369.00,50.493
1370.00,50.473
1371.00,50.436
1372.00,50.452
1373.00,50.444
1374.00,50.483
1375.00,50.455
1376.00,50.460
1377.00,50.467
1378.00,50.637
1379.00,50.413
1380.00,50.475
1381.00,50.428
1382.00,50.435
1383.00,50.443
1384.00,50.404
1385.00,50.391
1386.00,50.461
1387.00,50.394
1388.00,50.369
1389.00,50.395
1390.00,50.488
1391.00,50.420
1392.00,50.464
1393.00,50.550
1394.00,50.503
1395.00,50.408
1396.00,50.395
1397.00,50.456
1398.00,50.440
1399.00,50.413
1400.00,50.469
1401.00,50.418
1402.00,50.426
1403.00,50.412
1404.00,50.430
1405.00,50.468
1406.00,50.451
1407.00,50.488
1408.00,50.454
1409.00,50.437
1410.00,50.490
1411.00,50.473
1412.00,50.545
1413.00,50.491
1414.00,50.499
1415.00,50.519
1416.00,50.534
1417.00,50.543
1418.00,50.536
1419.00,50.528
1420.00,50.557
1421.00,50.586
1422.00,50.593
1423.00,50.588
1424.00,50.611
1425.00,50.624
1426.00,50.632
1427.00,50.658
1428.00,50.656
1429.00,50.665
1430.00,50.695
1431.00,50.703
1432.00,50.716
1433.00,50.747
1434.00,50.729
1435.00,50.773
1436.00,50.781
1437.00,50.771
1438.00,50.800
1439.00,50.826
1440.00,50.826
1441.00,50.831
1442.00,50.854
1443.00,50.891
1444.00,50.894
1445.00,50.872
1446.00,50.893
1447.00,50.926
1448.00,50.942
1449.00,50.958
1450.00,50.937
1451.00,50.958
1452.00,50.967
1453.00,51.008
1454.00,51.019
1455.00,51.062
1456.00,51.061
1457.00,51.070
1458.00,51.091
1459.00,51.103
1460.00,51.114
1461.00,51.119
1462.00,51.133
1463.00,51.165
1464.00,51.167
1465.00,51.176
1466.00,51.180
1467.00,51.193
1468.00,51.231
1469.00,51.232
1470.00,51.235
1471.00,51.256
1472.00,51.265
1473.00,51.283
1474.00,51.311
1475.00,51.323
1476.00,51.328
1477.00,51.331
1478.00,51.350
1479.00,51.360
1480.00,51.373
1481.00,51.364
1482.00,51.385
1483.00,51.401
1484.00,51.408
1485.00,51.438
1486.00,51.439
1487.00,51.451
1488.00,51.471
1489.00,51.473
1490.00,51.488
1491.00,51.498
1492.00,51.507
1493.00,51.503
1494.00,51.520
1495.00,51.527
1496.00,51.534
1497.00,51.544
1498.00,51.542
1499.00,51.568
1500.00,51.589
1501.00, 
1502.00, 
1503.00, 
1504.00, 
1505.00, 
1506.00, 
1507.00, 
1508.00, 
1509.00, 
1510.00, 
1511.00, 
1512.00, 
1513.00, 
1514.00, 
1515.00, 
1516.00, 
1517.00, 
1518.00, 
1519.00, 
1520.00, 
1521.00, 
1522.00, 
1523.00, 
1524.00, 
1525.00, 
1526.00, 
1527.00, 
1528.00, 
1529.00, 
1530.00, 
1531.00, 
1532.00, 
1533.00, 
1534.00, 
1535.00, 
1536.00, 
1537.00, 
1538.00, 
1539.00, 
1540.00, 
1541.00, 
1542.00, 
1543.00, 
1544.00, 
1545.00, 
1546.00, 
1547.00, 
1548.00, 
1549.00, 
1550.00, 
1551.00, 
1552.00, 
1553.00, 
1554.00, 
1555.00, 
1556.00, 
1557.00, 
1558.00, 
1559.00, 
1560.00, 
1561.00, 
1562.00, 
1563.00, 
1564.00, 
1565.00, 
1566.00, 
1567.00, 
1568.00, 
1569.00, 
1570.00, 
1571.00, 
1572.00, 
1573.00, 
1574.00, 
1575.00, 
1576.00, 
1577.00, 
1578.00, 
1579.00, 
1580.00, 
1581.00, 
1582.00, 
1583.00, 
1584.00, 
1585.00, 
1586.00, 
1587.00, 
1588.00, 
1589.00, 
1590.00, 
1591.00, 
1592.00, 
1593.00, 
1594.00, 
1595.00, 
1596.00, 
1597.00, 
1598.00, 
1599.00, 
1600.00, 
1601.00, 
1602.00, 
1603.00, 
1604.00, 
1605.00, 
1606.00, 
1607.00, 
1608.00, 
1609.00, 
1610.00, 
1611.00, 
1612.00, 
1613.00, 
1614.00, 
1615.00, 
1616.00, 
1617.00, 
1618.00, 
1619.00, 
1620.00, 
1621.00, 
1622.00, 
1623.00, 
1624.00, 
1625.00, 
1626.00, 
1627.00, 
1628.00, 
1629.00, 
1630.00, 
1631.00, 
1632.00, 
1633.00, 
1634.00, 
1635.00, 
1636.00, 
1637.00, 
1638.00, 
1639.00, 
1640.00, 
1641.00, 
1642.00, 
1643.00, 
1644.00, 
1645.00, 
1646.00, 
1647.00, 
1648.00, 
1649.00, 
1650.00, 
1651.00, 
1652.00, 
1653.00, 
1654.00, 
1655.00, 
1656.00, 
1657.00, 
1658.00, 
1659.00, 
1660.00, 
1661.00, 
1662.00, 
1663.00, 
1664.00, 
1665.00, 
1666.00, 
1667.00, 
1668.00, 
1669.00, 
1670.00, 
1671.00, 
1672.00, 
1673.00, 
1674.00, 
1675.00, 
1676.00, 
1677.00, 
1678.00, 
1679.00, 
1680.00, 
1681.00, 
1682.00, 
1683.00, 
1684.00, 
1685.00, 
1686.00, 
1687.00, 
1688.00, 
1689.00, 
1690.00, 
1691.00, 
1692.00, 
1693.00, 
1694.00, 
1695.00, 
1696.00, 
1697.00, 
1698.00, 
1699.00, 
1700.00, 
1701.00, 
1702.00, 
1703.00, 
1704.00, 
1705.00, 
1706.00, 
1707.00, 
1708.00, 
1709.00, 
1710.00, 
1711.00, 
1712.00, 
1713.00, 
1714.00, 
1715.00, 
1716.00, 
1717.00, 
1718.00, 
1719.00, 
1720.00, 
1721.00, 
1722.00, 
1723.00, 
1724.00, 
1725.00, 
1726.00, 
1727.00, 
1728.00, 
1729.00, 
1730.00, 
1731.00, 
1732.00, 
1733.00, 
1734.00, 
1735.00, 
1736.00, 
1737.00, 
1738.00, 
1739.00, 
1740.00, 
1741.00, 
1742.00, 
1743.00, 
1744.00, 
1745.00, 
1746.00, 
1747.00, 
1748.00, 
1749.00, 
1750.00, 
1751.00, 
1752.00, 
1753.00, 
1754.00, 
1755.00, 
1756.00, 
1757.00, 
1758.00, 
1759.00, 
1760.00, 
1761.00, 
1762.00, 
1763.00, 
1764.00, 
1765.00, 
1766.00, 
1767.00, 
1768.00, 
1769.00, 
1770.00, 
1771.00, 
1772.00, 
1773.00, 
1774.00, 
1775.00, 
1776.00, 
1777.00, 
1778.00, 
1779.00, 
1780.00, 
1781.00, 
1782.00, 
1783.00, 
1784.00, 
1785.00, 
1786.00, 
1787.00, 
1788.00, 
1789.00, 
1790.00, 
1791.00, 
1792.00, 
1793.00, 
1794.00, 
1795.00, 
1796.00, 
1797.00, 
1798.00, 
1799.00, 
1800.00, 
1801.00, 
1802.00, 
1803.00, 
1804.00, 
1805.00, 
1806.00, 
1807.00, 
1808.00, 
1809.00, 
1810.00, 
1811.00, 
1812.00, 
1813.00, 
1814.00, 
1815.00, 
1816.00, 
1817.00, 
1818.00, 
1819.00, 
1820.00, 
1821.00, 
1822.00, 
1823.00, 
1824.00, 
1825.00, 
1826.00, 
1827.00, 
1828.00, 
1829.00, 
1830.00, 
1831.00, 
1832.00, 
1833.00, 
1834.00, 
1835.00, 
1836.00, 
1837.00, 
1838.00, 
1839.00, 
1840.00, 
1841.00, 
1842.00, 
1843.00, 
1844.00, 
1845.00, 
1846.00, 
1847.00, 
1848.00, 
1849.00, 
1850.00, 
1851.00, 
1852.00, 
1853.00, 
1854.00, 
1855.00, 
1856.00, 
1857.00, 
1858.00, 
1859.00, 
1860.00, 
1861.00, 
1862.00, 
1863.00, 
1864.00, 
1865.00, 
1866.00, 
1867.00, 
1868.00, 
1869.00, 
1870.00, 
1871.00, 
1872.00, 
1873.00, 
1874.00, 
1875.00, 
1876.00, 
1877.00, 
1878.00, 
1879.00, 
1880.00, 
1881.00, 
1882.00, 
1883.00, 
1884.00, 
1885.00, 
1886.00, 
1887.00, 
1888.00, 
1889.00, 
1890.00, 
1891.00, 
1892.00, 
1893.00, 
1894.00, 
1895.00, 
1896.00, 
1897.00, 
1898.00, 
1899.00, 
1900.00, 
1901.00, 
1902.00, 
1903.00, 
1904.00, 
1905.00, 
1906.00, 
1907.00, 
1908.00, 
1909.00, 
1910.00, 
1911.00, 
1912.00, 
1913.00, 
1914.00, 
1915.00, 
1916.00, 
1917.00, 
1918.00, 
1919.00, 
1920.00, 
1921.00, 
1922.00, 
1923.00, 
1924.00, 
1925.00, 
1926.00, 
1927.00, 
1928.00, 
1929.00, 
1930.00, 
1931.00, 
1932.00, 
1933.00, 
1934.00, 
1935.00, 
1936.00, 
1937.00, 
1938.00, 
1939.00, 
1940.00, 
1941.00, 
1942.00, 
1943.00, 
1944.00, 
1945.00, 
1946.00, 
1947.00, 
1948.00, 
1949.00, 
1950.00, 
1951.00, 
1952.00, 
1953.00, 
1954.00, 
1955.00, 
1956.00, 
1957.00, 
1958.00, 
1959.00, 
1960.00, 
1961.00, 
1962.00, 
1963.00, 
1964.00, 
1965.00, 
1966.00, 
1967.00, 
1968.00, 
1969.00, 
1970.00, 
1971.00, 
1972.00, 
1973.00, 
1974.00, 
1975.00, 
1976.00, 
1977.00, 
1978.00, 
1979.00, 
1980.00, 
1981.00, 
1982.00, 
1983.00, 
1984.00, 
1985.00, 
1986.00, 
1987.00, 
1988.00, 
1989.00, 
1990.00, 
1991.00, 
1992.00, 
1993.00, 
1994.00, 
1995.00, 
1996.00, 
1997.00, 
1998.00, 
1999.00, 
2000.00, 
2001.00, 
2002.00, 
2003.00, 
2004.00, 
2005.00, 
2006.00, 
2007.00, 
2008.00, 
2009.00, 
2010.00, 
2011.00, 
2012.00, 
2013.00, 
2014.00, 
2015.00, 
2016.00, 
2017.00, 
2018.00, 
2019.00, 
2020.00, 
2021.00, 
2022.00, 
2023.00, 
2024.00, 
2025.00, 
2026.00, 
2027.00, 
2028.00, 
2029.00, 
2030.00, 
2031.00, 
2032.00, 
2033.00, 
2034.00, 
2035.00, 
2036.00, 
2037.00, 
2038.00, 
2039.00, 
2040.00, 
2041.00, 
2042.00, 
2043.00, 
2044.00, 
2045.00, 
2046.00, 
2047.00, 
2048.00, 
2049.00, 
2050.00, 
2051.00, 
2052.00, 
2053.00, 
2054.00, 
2055.00, 
2056.00, 
2057.00, 
2058.00, 
2059.00, 
2060.00, 
2061.00, 
2062.00, 
2063.00, 
2064.00, 
2065.00, 
2066.00, 
2067.00, 
2068.00, 
2069.00, 
2070.00, 
2071.00, 
2072.00, 
2073.00, 
2074.00, 
2075.00, 
2076.00, 
2077.00, 
2078.00, 
2079.00, 
2080.00, 
2081.00, 
2082.00, 
2083.00, 
2084.00, 
2085.00, 
2086.00, 
2087.00, 
2088.00, 
2089.00, 
2090.00, 
2091.00, 
2092.00, 
2093.00, 
2094.00, 
2095.00, 
2096.00, 
2097.00, 
2098.00, 
2099.00, 
2100.00, 
2101.00, 
2102.00, 
2103.00, 
2104.00, 
2105.00, 
2106.00, 
2107.00, 
2108.00, 
2109.00, 
2110.00, 
2111.00, 
2112.00, 
2113.00, 
2114.00, 
2115.00, 
2116.00, 
2117.00, 
2118.00, 
2119.00, 
2120.00, 
2121.00, 
2122.00, 
2123.00, 
2124.00, 
2125.00, 
2126.00, 
2127.00, 
2128.00, 
2129.00, 
2130.00, 
2131.00, 
2132.00, 
2133.00, 
2134.00, 
2135.00, 
2136.00, 
2137.00, 
2138.00, 
2139.00, 
2140.00, 
2141.00, 
2142.00, 
2143.00, 
2144.00, 
2145.00, 
2146.00, 
2147.00, 
2148.00, 
2149.00, 
2150.00, 
2151.00, 
2152.00, 
2153.00, 
2154.00, 
2155.00, 
2156.00, 
2157.00, 
2158.00, 
2159.00, 
2160.00, 
2161.00, 
2162.00, 
2163.00, 
2164.00, 
2165.00, 
2166.00, 
2167.00, 
2168.00, 
2169.00, 
2170.00, 
2171.00, 
2172.00, 
2173.00, 
2174.00, 
2175.00, 
2176.00, 
2177.00, 
2178.00, 
2179.00, 
2180.00, 
2181.00, 
2182.00, 
2183.00, 
2184.00, 
2185.00, 
2186.00, 
2187.00, 
2188.00, 
2189.00, 
2190.00, 
2191.00, 
2192.00, 
2193.00, 
2194.00, 
2195.00, 
2196.00, 
2197.00, 
2198.00, 
2199.00, 
2200.00, 
2201.00, 
2202.00, 
2203.00, 
2204.00, 
2205.00, 
2206.00, 
2207.00, 
2208.00, 
2209.00, 
2210.00, 
2211.00, 
2212.00, 
2213.00, 
2214.00, 
2215.00, 
2216.00, 
2217.00, 
2218.00, 
2219.00, 
2220.00, 
2221.00, 
2222.00, 
2223.00, 
2224.00, 
2225.00, 
2226.00, 
2227.00, 
2228.00, 
2229.00, 
2230.00, 
2231.00, 
2232.00, 
2233.00, 
2234.00, 
2235.00, 
2236.00, 
2237.00, 
2238.00, 
2239.00, 
2240.00, 
2241.00, 
2242.00, 
2243.00, 
2244.00, 
2245.00, 
2246.00, 
2247.00, 
2248.00, 
2249.00, 
2250.00, 
2251.00, 
2252.00, 
2253.00, 
2254.00, 
2255.00, 
2256.00, 
2257.00, 
2258.00, 
2259.00, 
2260.00, 
2261.00, 
2262.00, 
2263.00, 
2264.00, 
2265.00, 
2266.00, 
2267.00, 
2268.00, 
2269.00, 
2270.00, 
2271.00, 
2272.00, 
2273.00, 
2274.00, 
2275.00, 
2276.00, 
2277.00, 
2278.00, 
2279.00, 
2280.00, 
2281.00, 
2282.00, 
2283.00, 
2284.00, 
2285.00, 
2286.00, 
2287.00, 
2288.00, 
2289.00, 
2290.00, 
2291.00, 
2292.00, 
2293.00, 
2294.00, 
2295.00, 
2296.00, 
2297.00, 
2298.00, 
2299.00, 
2300.00, 
2301.00, 
2302.00, 
2303.00, 
2304.00, 
2305.00, 
2306.00, 
2307.00, 
2308.00, 
2309.00, 
2310.00, 
2311.00, 
2312.00, 
2313.00, 
2314.00, 
2315.00, 
2316.00, 
2317.00, 
2318.00, 
2319.00, 
2320.00, 
2321.00, 
2322.00, 
2323.00, 
2324.00, 
2325.00, 
2326.00, 
2327.00, 
2328.00, 
2329.00, 
2330.00, 
2331.00, 
2332.00, 
2333.00, 
2334.00, 
2335.00, 
2336.00, 
2337.00, 
2338.00, 
2339.00, 
2340.00, 
2341.00, 
2342.00, 
2343.00, 
2344.00, 
2345.00, 
2346.00, 
2347.00, 
2348.00, 
2349.00, 
2350.00, 
2351.00, 
2352.00, 
2353.00, 
2354.00, 
2355.00, 
2356.00, 
2357.00, 
2358.00, 
2359.00, 
2360.00, 
2361.00, 
2362.00, 
2363.00, 
2364.00, 
2365.00, 
2366.00, 
2367.00, 
2368.00, 
2369.00, 
2370.00, 
2371.00, 
2372.00, 
2373.00, 
2374.00, 
2375.00, 
2376.00, 
2377.00, 
2378.00, 
2379.00, 
2380.00, 
2381.00, 
2382.00, 
2383.00, 
2384.00, 
2385.00, 
2386.00, 
2387.00, 
2388.00, 
2389.00, 
2390.00, 
2391.00, 
2392.00, 
2393.00, 
2394.00, 
2395.00, 
2396.00, 
2397.00, 
2398.00, 
2399.00, 
2400.00, 
2401.00, 
2402.00, 
2403.00, 
2404.00, 
2405.00, 
2406.00, 
2407.00, 
2408.00, 
2409.00, 
2410.00, 
2411.00, 
2412.00, 
2413.00, 
2414.00, 
2415.00, 
2416.00, 
2417.00, 
2418.00, 
2419.00, 
2420.00, 
2421.00, 
2422.00, 
2423.00, 
2424.00, 
2425.00, 
2426.00, 
2427.00, 
2428.00, 
2429.00, 
2430.00, 
2431.00, 
2432.00, 
2433.00, 
2434.00, 
2435.00, 
2436.00, 
2437.00, 
2438.00, 
2439.00, 
2440.00, 
2441.00, 
2442.00, 
2443.00, 
2444.00, 
2445.00, 
2446.00, 
2447.00, 
2448.00, 
2449.00, 
2450.00, 
2451.00, 
2452.00, 
2453.00, 
2454.00, 
2455.00, 
2456.00, 
2457.00, 
2458.00, 
2459.00, 
2460.00, 
2461.00, 
2462.00, 
2463.00, 
2464.00, 
2465.00, 
2466.00, 
2467.00, 
2468.00, 
2469.00, 
2470.00, 
2471.00, 
2472.00, 
2473.00, 
2474.00, 
2475.00, 
2476.00, 
2477.00, 
2478.00, 
2479.00, 
2480.00, 
2481.00, 
2482.00, 
2483.00, 
2484.00, 
2485.00, 
2486.00, 
2487.00, 
2488.00, 
2489.00, 
2490.00, 
2491.00, 
2492.00, 
2493.00, 
2494.00, 
2495.00, 
2496.00, 
2497.00, 
2498.00, 
2499.00, 
2500.00, 
2501.00, 
2502.00, 
2503.00, 
2504.00, 
2505.00, 
2506.00, 
2507.00, 
2508.00, 
2509.00, 
2510.00, 
2511.00, 
2512.00, 
2513.00, 
2514.00, 
2515.00, 
2516.00, 
2517.00, 
2518.00, 
2519.00, 
2520.00, 
2521.00, 
2522.00, 
2523.00, 
2524.00, 
2525.00, 
2526.00, 
2527.00, 
2528.00, 
2529.00, 
2530.00, 
2531.00, 
2532.00, 
2533.00, 
2534.00, 
2535.00, 
2536.00, 
2537.00, 
2538.00, 
2539.00, 
2540.00, 
2541.00, 
2542.00, 
2543.00, 
2544.00, 
2545.00, 
2546.00, 
2547.00, 
2548.00, 
2549.00, 
2550.00, 
2551.00, 
2552.00, 
2553.00, 
2554.00, 
2555.00, 
2556.00, 
2557.00, 
2558.00, 
2559.00, 
2560.00, 
2561.00, 
2562.00, 
2563.00, 
2564.00, 
2565.00, 
2566.00, 
2567.00, 
2568.00, 
2569.00, 
2570.00, 
2571.00, 
2572.00, 
2573.00, 
2574.00, 
2575.00, 
2576.00, 
2577.00, 
2578.00, 
2579.00, 
2580.00, 
2581.00, 
2582.00, 
2583.00, 
2584.00, 
2585.00, 
2586.00, 
2587.00, 
2588.00, 
2589.00, 
2590.00, 
2591.00, 
2592.00, 
2593.00, 
2594.00, 
2595.00, 
2596.00, 
2597.00, 
2598.00, 
2599.00, 
2600.00, 
