"2cP2 - RawData"
"Wavelength nm.","T%"
200.00,0.000
201.00,0.003
202.00,-0.001
203.00,0.005
204.00,-0.002
205.00,0.003
206.00,0.003
207.00,0.003
208.00,0.001
209.00,0.003
210.00,-0.000
211.00,0.004
212.00,0.002
213.00,0.003
214.00,-0.001
215.00,0.001
216.00,0.005
217.00,0.005
218.00,0.004
219.00,0.000
220.00,0.002
221.00,0.001
222.00,-0.000
223.00,0.002
224.00,0.002
225.00,0.002
226.00,-0.001
227.00,-0.001
228.00,-0.001
229.00,-0.000
230.00,-0.000
231.00,-0.000
232.00,-0.002
233.00,0.002
234.00,-0.000
235.00,0.000
236.00,-0.000
237.00,0.000
238.00,0.000
239.00,0.001
240.00,0.001
241.00,0.001
242.00,0.001
243.00,0.001
244.00,0.001
245.00,-0.001
246.00,0.001
247.00,0.001
248.00,0.001
249.00,-0.000
250.00,0.000
251.00,-0.000
252.00,0.000
253.00,-0.001
254.00,0.001
255.00,0.002
256.00,-0.000
257.00,0.000
258.00,-0.000
259.00,0.001
260.00,0.000
261.00,-0.001
262.00,-0.001
263.00,0.001
264.00,-0.001
265.00,-0.001
266.00,-0.001
267.00,-0.001
268.00,0.001
269.00,0.000
270.00,0.001
271.00,0.001
272.00,-0.000
273.00,-0.000
274.00,0.001
275.00,-0.002
276.00,-0.001
277.00,0.002
278.00,0.002
279.00,0.001
280.00,0.001
281.00,0.001
282.00,0.001
283.00,0.001
284.00,0.000
285.00,-0.002
286.00,0.001
287.00,-0.001
288.00,-0.000
289.00,-0.001
290.00,0.000
291.00,0.001
292.00,0.000
293.00,-0.001
294.00,0.003
295.00,0.000
296.00,-0.002
297.00,0.000
298.00,0.003
299.00,0.002
300.00,0.004
301.00,0.006
302.00,0.007
303.00,0.013
304.00,0.021
305.00,0.033
306.00,0.055
307.00,0.080
308.00,0.126
309.00,0.188
310.00,0.263
311.00,0.360
312.00,0.495
313.00,0.669
314.00,0.879
315.00,1.137
316.00,1.460
317.00,1.844
318.00,2.259
319.00,2.796
320.00,3.389
321.00,4.059
322.00,4.809
323.00,5.693
324.00,6.567
325.00,7.494
326.00,8.449
327.00,9.574
328.00,10.683
329.00,11.780
330.00,13.008
331.00,14.210
332.00,15.465
333.00,16.790
334.00,17.896
335.00,19.305
336.00,20.532
337.00,21.860
338.00,23.082
339.00,24.202
340.00,25.468
341.00,26.639
342.00,27.739
343.00,28.825
344.00,29.800
345.00,30.853
346.00,31.689
347.00,32.605
348.00,33.421
349.00,34.298
350.00,35.041
351.00,35.718
352.00,36.420
353.00,37.084
354.00,37.701
355.00,38.261
356.00,38.836
357.00,39.389
358.00,39.820
359.00,40.278
360.00,40.659
361.00,41.118
362.00,41.539
363.00,41.903
364.00,42.184
365.00,42.485
366.00,42.771
367.00,43.011
368.00,43.163
369.00,43.434
370.00,43.546
371.00,43.747
372.00,43.806
373.00,43.878
374.00,43.899
375.00,43.988
376.00,44.057
377.00,44.034
378.00,43.954
379.00,43.985
380.00,43.989
381.00,44.092
382.00,44.178
383.00,44.260
384.00,44.410
385.00,44.554
386.00,44.681
387.00,44.876
388.00,44.999
389.00,45.114
390.00,45.200
391.00,45.395
392.00,45.488
393.00,45.539
394.00,45.669
395.00,45.736
396.00,45.823
397.00,45.932
398.00,45.998
399.00,46.043
400.00,46.051
401.00,46.051
402.00,46.152
403.00,46.212
404.00,46.194
405.00,46.301
406.00,46.298
407.00,46.218
408.00,46.201
409.00,46.148
410.00,46.119
411.00,46.124
412.00,46.083
413.00,46.068
414.00,45.995
415.00,45.988
416.00,46.003
417.00,46.100
418.00,46.128
419.00,46.204
420.00,46.245
421.00,46.333
422.00,46.354
423.00,46.390
424.00,46.336
425.00,46.367
426.00,46.423
427.00,46.435
428.00,46.510
429.00,46.479
430.00,46.568
431.00,46.660
432.00,46.475
433.00,46.602
434.00,46.625
435.00,46.643
436.00,46.654
437.00,46.636
438.00,46.698
439.00,46.711
440.00,46.780
441.00,46.822
442.00,46.859
443.00,46.913
444.00,46.954
445.00,47.014
446.00,47.049
447.00,47.197
448.00,47.139
449.00,47.207
450.00,47.232
451.00,47.260
452.00,47.310
453.00,47.348
454.00,47.290
455.00,47.479
456.00,47.535
457.00,47.624
458.00,47.606
459.00,47.636
460.00,47.649
461.00,47.768
462.00,47.831
463.00,47.916
464.00,47.980
465.00,48.012
466.00,47.962
467.00,48.121
468.00,48.114
469.00,48.138
470.00,48.105
471.00,48.182
472.00,48.162
473.00,48.073
474.00,48.100
475.00,48.145
476.00,48.200
477.00,48.293
478.00,48.334
479.00,48.406
480.00,48.487
481.00,48.513
482.00,48.610
483.00,48.643
484.00,48.708
485.00,48.811
486.00,48.887
487.00,48.965
488.00,48.948
489.00,49.122
490.00,49.170
491.00,49.165
492.00,49.335
493.00,49.251
494.00,49.224
495.00,49.331
496.00,49.366
497.00,49.410
498.00,49.471
499.00,49.505
500.00,49.521
501.00,49.448
502.00,49.663
503.00,49.730
504.00,49.736
505.00,49.795
506.00,49.807
507.00,49.836
508.00,49.819
509.00,49.962
510.00,49.982
511.00,49.964
512.00,50.080
513.00,50.099
514.00,50.057
515.00,50.139
516.00,50.063
517.00,50.009
518.00,50.337
519.00,50.355
520.00,50.440
521.00,50.399
522.00,50.439
523.00,50.412
524.00,50.364
525.00,50.461
526.00,50.501
527.00,50.516
528.00,50.513
529.00,50.570
530.00,50.618
531.00,50.723
532.00,50.792
533.00,50.787
534.00,50.869
535.00,50.909
536.00,50.918
537.00,50.939
538.00,51.016
539.00,51.060
540.00,51.036
541.00,51.045
542.00,51.093
543.00,51.103
544.00,51.138
545.00,51.191
546.00,51.133
547.00,51.294
548.00,51.311
549.00,51.269
550.00,51.309
551.00,51.376
552.00,51.387
553.00,51.405
554.00,51.472
555.00,51.458
556.00,51.477
557.00,51.542
558.00,51.561
559.00,51.549
560.00,51.599
561.00,51.636
562.00,51.646
563.00,51.757
564.00,51.640
565.00,51.629
566.00,51.577
567.00,51.480
568.00,51.582
569.00,51.582
570.00,51.419
571.00,51.697
572.00,51.587
573.00,51.519
574.00,51.568
575.00,51.426
576.00,51.503
577.00,51.710
578.00,51.752
579.00,51.782
580.00,51.791
581.00,51.937
582.00,51.940
583.00,51.935
584.00,52.024
585.00,52.050
586.00,52.122
587.00,52.121
588.00,52.119
589.00,52.205
590.00,52.165
591.00,52.152
592.00,52.128
593.00,52.160
594.00,52.161
595.00,52.231
596.00,52.284
597.00,52.124
598.00,52.285
599.00,52.250
600.00,52.250
601.00,52.396
602.00,52.362
603.00,52.315
604.00,52.222
605.00,52.215
606.00,52.329
607.00,52.281
608.00,52.348
609.00,52.346
610.00,52.302
611.00,52.319
612.00,52.374
613.00,52.298
614.00,52.308
615.00,52.332
616.00,52.397
617.00,52.235
618.00,52.404
619.00,52.422
620.00,52.385
621.00,52.407
622.00,52.371
623.00,52.441
624.00,52.433
625.00,52.460
626.00,52.421
627.00,52.427
628.00,52.424
629.00,52.373
630.00,52.437
631.00,52.418
632.00,52.410
633.00,52.411
634.00,52.476
635.00,52.543
636.00,52.443
637.00,52.541
638.00,52.494
639.00,52.420
640.00,52.424
641.00,52.343
642.00,52.301
643.00,52.426
644.00,52.506
645.00,52.414
646.00,52.529
647.00,52.432
648.00,52.399
649.00,52.593
650.00,52.442
651.00,52.506
652.00,52.451
653.00,52.445
654.00,52.456
655.00,52.406
656.00,52.552
657.00,52.701
658.00,52.712
659.00,52.501
660.00,52.509
661.00,52.506
662.00,52.539
663.00,52.594
664.00,52.636
665.00,52.552
666.00,52.589
667.00,52.563
668.00,52.654
669.00,52.663
670.00,52.606
671.00,52.497
672.00,52.605
673.00,52.679
674.00,52.641
675.00,52.610
676.00,52.568
677.00,52.576
678.00,52.446
679.00,52.454
680.00,52.598
681.00,52.536
682.00,52.554
683.00,52.492
684.00,52.457
685.00,52.472
686.00,52.304
687.00,52.400
688.00,52.537
689.00,52.475
690.00,52.431
691.00,52.585
692.00,52.402
693.00,52.245
694.00,52.299
695.00,52.416
696.00,52.405
697.00,52.447
698.00,52.365
699.00,52.479
700.00,52.514
701.00,52.264
702.00,52.294
703.00,52.276
704.00,52.339
705.00,52.362
706.00,52.275
707.00,52.439
708.00,52.225
709.00,52.314
710.00,52.484
711.00,52.242
712.00,52.099
713.00,52.312
714.00,52.218
715.00,52.120
716.00,52.145
717.00,52.155
718.00,52.178
719.00,52.158
720.00,52.097
721.00,56.409
722.00,56.432
723.00,56.299
724.00,56.245
725.00,56.187
726.00,56.177
727.00,56.036
728.00,56.007
729.00,55.942
730.00,55.922
731.00,55.894
732.00,55.839
733.00,55.802
734.00,55.813
735.00,55.679
736.00,55.566
737.00,55.570
738.00,55.630
739.00,55.480
740.00,55.496
741.00,55.461
742.00,55.282
743.00,55.309
744.00,55.241
745.00,55.321
746.00,55.093
747.00,55.113
748.00,55.046
749.00,54.930
750.00,54.934
751.00,54.865
752.00,54.768
753.00,54.715
754.00,54.679
755.00,54.692
756.00,54.623
757.00,54.639
758.00,54.577
759.00,54.524
760.00,54.459
761.00,54.426
762.00,54.389
763.00,54.341
764.00,54.242
765.00,54.266
766.00,54.188
767.00,54.232
768.00,54.098
769.00,54.130
770.00,54.107
771.00,54.137
772.00,54.015
773.00,54.040
774.00,53.987
775.00,53.927
776.00,53.925
777.00,53.886
778.00,53.813
779.00,53.755
780.00,53.731
781.00,53.719
782.00,53.645
783.00,53.584
784.00,53.642
785.00,53.569
786.00,53.532
787.00,53.535
788.00,53.417
789.00,53.414
790.00,53.391
791.00,53.352
792.00,53.250
793.00,53.258
794.00,53.239
795.00,53.146
796.00,53.149
797.00,53.039
798.00,53.073
799.00,52.995
800.00,52.979
801.00,53.013
802.00,52.961
803.00,52.903
804.00,52.835
805.00,52.855
806.00,52.776
807.00,52.701
808.00,52.698
809.00,52.689
810.00,52.613
811.00,52.616
812.00,52.575
813.00,52.501
814.00,52.512
815.00,52.482
816.00,52.553
817.00,52.435
818.00,52.384
819.00,52.338
820.00,52.326
821.00,52.260
822.00,52.242
823.00,52.222
824.00,52.158
825.00,52.121
826.00,52.077
827.00,52.169
828.00,52.099
829.00,52.094
830.00,52.081
831.00,54.613
832.00,54.600
833.00,54.576
834.00,54.549
835.00,54.486
836.00,54.471
837.00,54.431
838.00,54.387
839.00,54.364
840.00,54.322
841.00,54.337
842.00,54.281
843.00,54.248
844.00,54.237
845.00,54.157
846.00,54.178
847.00,54.146
848.00,54.083
849.00,54.038
850.00,54.011
851.00,53.933
852.00,53.920
853.00,53.889
854.00,53.871
855.00,53.768
856.00,53.766
857.00,53.692
858.00,53.716
859.00,53.644
860.00,53.638
861.00,53.638
862.00,53.531
863.00,53.547
864.00,53.525
865.00,53.535
866.00,53.253
867.00,53.516
868.00,53.459
869.00,53.414
870.00,53.449
871.00,53.383
872.00,53.384
873.00,53.364
874.00,53.327
875.00,53.313
876.00,53.326
877.00,53.295
878.00,53.265
879.00,53.360
880.00,53.206
881.00,53.193
882.00,53.175
883.00,53.143
884.00,53.111
885.00,53.059
886.00,53.050
887.00,53.031
888.00,52.990
889.00,52.961
890.00,52.976
891.00,52.932
892.00,52.909
893.00,52.865
894.00,52.867
895.00,52.822
896.00,52.818
897.00,52.795
898.00,52.762
899.00,52.774
900.00,52.766
901.00,52.721
902.00,52.720
903.00,52.700
904.00,52.674
905.00,52.651
906.00,52.637
907.00,52.569
908.00,52.591
909.00,52.543
910.00,52.506
911.00,52.495
912.00,52.519
913.00,52.498
914.00,52.432
915.00,52.401
916.00,52.405
917.00,52.369
918.00,52.312
919.00,52.408
920.00,52.283
921.00,52.274
922.00,52.295
923.00,52.258
924.00,52.227
925.00,52.182
926.00,52.206
927.00,52.177
928.00,52.122
929.00,52.131
930.00,52.103
931.00,52.081
932.00,52.052
933.00,52.052
934.00,52.134
935.00,52.016
936.00,51.973
937.00,51.955
938.00,51.920
939.00,51.919
940.00,51.890
941.00,51.876
942.00,51.830
943.00,51.847
944.00,51.810
945.00,51.787
946.00,51.802
947.00,51.717
948.00,51.714
949.00,51.687
950.00,51.665
951.00,51.639
952.00,51.623
953.00,51.569
954.00,51.573
955.00,51.513
956.00,51.521
957.00,51.476
958.00,51.467
959.00,51.429
960.00,51.425
961.00,51.388
962.00,51.424
963.00,51.372
964.00,51.354
965.00,51.352
966.00,51.342
967.00,51.318
968.00,51.301
969.00,51.312
970.00,51.305
971.00,51.297
972.00,51.261
973.00,51.302
974.00,51.326
975.00,51.262
976.00,51.296
977.00,51.270
978.00,51.308
979.00,51.257
980.00,51.279
981.00,51.295
982.00,51.265
983.00,51.264
984.00,51.251
985.00,51.279
986.00,51.219
987.00,51.254
988.00,51.208
989.00,51.202
990.00,51.208
991.00,51.171
992.00,51.201
993.00,51.164
994.00,51.136
995.00,51.137
996.00,51.127
997.00,51.105
998.00,51.084
999.00,51.104
1000.00,51.046
1001.00,51.063
1002.00,51.031
1003.00,51.033
1004.00,51.026
1005.00,50.989
1006.00,51.011
1007.00,50.976
1008.00,50.978
1009.00,50.946
1010.00,50.918
1011.00,50.962
1012.00,50.894
1013.00,50.897
1014.00,50.864
1015.00,50.878
1016.00,50.836
1017.00,50.843
1018.00,50.819
1019.00,50.780
1020.00,50.786
1021.00,50.762
1022.00,50.743
1023.00,50.723
1024.00,50.702
1025.00,50.673
1026.00,50.687
1027.00,50.651
1028.00,50.638
1029.00,50.638
1030.00,50.592
1031.00,50.618
1032.00,50.577
1033.00,50.580
1034.00,50.558
1035.00,50.506
1036.00,50.513
1037.00,50.491
1038.00,50.463
1039.00,50.437
1040.00,50.441
1041.00,50.401
1042.00,50.394
1043.00,50.361
1044.00,50.377
1045.00,50.371
1046.00,50.360
1047.00,50.366
1048.00,50.378
1049.00,50.380
1050.00,50.396
1051.00,50.419
1052.00,50.433
1053.00,50.448
1054.00,50.441
1055.00,50.450
1056.00,50.462
1057.00,50.464
1058.00,50.452
1059.00,50.447
1060.00,50.453
1061.00,50.455
1062.00,50.429
1063.00,50.438
1064.00,50.431
1065.00,50.431
1066.00,50.414
1067.00,50.398
1068.00,50.399
1069.00,50.388
1070.00,50.369
1071.00,50.336
1072.00,50.356
1073.00,50.325
1074.00,50.330
1075.00,50.317
1076.00,50.311
1077.00,50.298
1078.00,50.284
1079.00,50.271
1080.00,50.282
1081.00,50.260
1082.00,50.252
1083.00,50.247
1084.00,50.247
1085.00,50.233
1086.00,50.234
1087.00,50.249
1088.00,50.183
1089.00,50.186
1090.00,50.185
1091.00,50.179
1092.00,50.164
1093.00,50.137
1094.00,50.139
1095.00,50.123
1096.00,50.107
1097.00,50.113
1098.00,50.101
1099.00,50.088
1100.00,50.088
1101.00,50.066
1102.00,50.080
1103.00,50.061
1104.00,50.046
1105.00,50.045
1106.00,50.036
1107.00,50.021
1108.00,50.027
1109.00,50.013
1110.00,50.006
1111.00,50.003
1112.00,49.975
1113.00,49.978
1114.00,49.981
1115.00,49.971
1116.00,49.980
1117.00,49.954
1118.00,49.950
1119.00,49.951
1120.00,49.937
1121.00,49.930
1122.00,49.923
1123.00,49.901
1124.00,49.901
1125.00,49.882
1126.00,49.893
1127.00,49.906
1128.00,49.874
1129.00,49.857
1130.00,49.866
1131.00,49.848
1132.00,49.836
1133.00,49.832
1134.00,49.828
1135.00,49.827
1136.00,49.819
1137.00,49.809
1138.00,49.817
1139.00,49.816
1140.00,49.795
1141.00,49.806
1142.00,49.789
1143.00,49.795
1144.00,49.780
1145.00,49.773
1146.00,49.779
1147.00,49.781
1148.00,49.763
1149.00,49.774
1150.00,49.772
1151.00,49.762
1152.00,49.759
1153.00,49.752
1154.00,49.734
1155.00,49.749
1156.00,49.722
1157.00,49.726
1158.00,49.725
1159.00,49.706
1160.00,49.714
1161.00,49.723
1162.00,49.703
1163.00,49.723
1164.00,49.718
1165.00,49.713
1166.00,49.713
1167.00,49.692
1168.00,49.703
1169.00,49.699
1170.00,49.702
1171.00,49.682
1172.00,49.685
1173.00,49.663
1174.00,49.683
1175.00,49.675
1176.00,49.672
1177.00,49.674
1178.00,49.649
1179.00,49.683
1180.00,49.673
1181.00,49.679
1182.00,49.681
1183.00,49.668
1184.00,49.653
1185.00,49.681
1186.00,49.666
1187.00,49.663
1188.00,49.652
1189.00,49.645
1190.00,49.640
1191.00,49.647
1192.00,49.654
1193.00,49.665
1194.00,49.675
1195.00,49.637
1196.00,49.672
1197.00,49.670
1198.00,49.664
1199.00,49.660
1200.00,49.647
1201.00,49.664
1202.00,49.653
1203.00,49.635
1204.00,49.634
1205.00,49.650
1206.00,49.633
1207.00,49.650
1208.00,49.630
1209.00,49.629
1210.00,49.638
1211.00,49.627
1212.00,49.661
1213.00,49.630
1214.00,49.630
1215.00,49.629
1216.00,49.627
1217.00,49.629
1218.00,49.638
1219.00,49.644
1220.00,49.621
1221.00,49.637
1222.00,49.626
1223.00,49.650
1224.00,49.644
1225.00,49.612
1226.00,49.633
1227.00,49.617
1228.00,49.634
1229.00,49.643
1230.00,49.683
1231.00,49.670
1232.00,49.685
1233.00,49.671
1234.00,49.674
1235.00,49.673
1236.00,49.669
1237.00,49.674
1238.00,49.673
1239.00,49.671
1240.00,49.677
1241.00,49.683
1242.00,49.678
1243.00,49.706
1244.00,49.666
1245.00,49.699
1246.00,49.716
1247.00,49.701
1248.00,49.696
1249.00,49.704
1250.00,49.696
1251.00,49.709
1252.00,49.707
1253.00,49.698
1254.00,49.758
1255.00,49.697
1256.00,49.713
1257.00,49.705
1258.00,49.731
1259.00,49.733
1260.00,49.751
1261.00,49.741
1262.00,49.751
1263.00,49.742
1264.00,49.743
1265.00,49.758
1266.00,49.751
1267.00,49.752
1268.00,49.776
1269.00,49.763
1270.00,49.785
1271.00,49.785
1272.00,49.787
1273.00,49.805
1274.00,49.796
1275.00,49.798
1276.00,49.799
1277.00,49.788
1278.00,49.814
1279.00,49.817
1280.00,49.814
1281.00,49.830
1282.00,49.833
1283.00,49.798
1284.00,49.831
1285.00,49.821
1286.00,49.816
1287.00,49.818
1288.00,49.825
1289.00,49.828
1290.00,49.853
1291.00,49.836
1292.00,49.864
1293.00,49.850
1294.00,49.852
1295.00,49.875
1296.00,49.879
1297.00,49.884
1298.00,49.888
1299.00,49.880
1300.00,49.926
1301.00,49.918
1302.00,49.899
1303.00,49.940
1304.00,49.917
1305.00,49.926
1306.00,49.941
1307.00,49.946
1308.00,49.935
1309.00,49.936
1310.00,49.932
1311.00,49.935
1312.00,49.948
1313.00,49.944
1314.00,49.968
1315.00,49.973
1316.00,49.966
1317.00,49.995
1318.00,49.979
1319.00,49.980
1320.00,50.018
1321.00,50.147
1322.00,50.171
1323.00,50.157
1324.00,50.142
1325.00,50.146
1326.00,50.176
1327.00,50.154
1328.00,50.155
1329.00,50.135
1330.00,50.144
1331.00,50.166
1332.00,50.159
1333.00,50.156
1334.00,50.198
1335.00,50.197
1336.00,50.228
1337.00,50.256
1338.00,50.306
1339.00,50.365
1340.00,50.431
1341.00,50.485
1342.00,50.568
1343.00,50.602
1344.00,50.670
1345.00,50.720
1346.00,50.759
1347.00,50.775
1348.00,50.787
1349.00,50.837
1350.00,50.840
1351.00,50.845
1352.00,50.838
1353.00,50.949
1354.00,50.872
1355.00,50.827
1356.00,50.877
1357.00,50.859
1358.00,50.894
1359.00,50.955
1360.00,51.253
1361.00,50.863
1362.00,50.832
1363.00,50.896
1364.00,50.942
1365.00,50.912
1366.00,50.957
1367.00,50.904
1368.00,50.845
1369.00,50.896
1370.00,50.859
1371.00,50.826
1372.00,50.853
1373.00,50.835
1374.00,50.877
1375.00,50.831
1376.00,50.842
1377.00,50.844
1378.00,50.920
1379.00,50.869
1380.00,50.867
1381.00,50.885
1382.00,50.826
1383.00,50.848
1384.00,50.825
1385.00,50.790
1386.00,50.853
1387.00,50.881
1388.00,50.774
1389.00,50.806
1390.00,50.481
1391.00,50.810
1392.00,50.847
1393.00,50.862
1394.00,50.817
1395.00,50.796
1396.00,50.784
1397.00,50.844
1398.00,50.843
1399.00,50.786
1400.00,50.820
1401.00,50.799
1402.00,50.810
1403.00,50.817
1404.00,50.823
1405.00,50.840
1406.00,50.864
1407.00,50.904
1408.00,50.864
1409.00,50.849
1410.00,50.912
1411.00,50.891
1412.00,50.927
1413.00,50.889
1414.00,50.902
1415.00,50.920
1416.00,50.971
1417.00,50.959
1418.00,50.966
1419.00,50.973
1420.00,50.981
1421.00,50.969
1422.00,51.027
1423.00,51.015
1424.00,51.043
1425.00,51.054
1426.00,51.055
1427.00,51.082
1428.00,51.085
1429.00,51.079
1430.00,51.122
1431.00,51.116
1432.00,51.126
1433.00,51.189
1434.00,51.175
1435.00,51.188
1436.00,51.197
1437.00,51.183
1438.00,51.217
1439.00,51.229
1440.00,51.244
1441.00,51.264
1442.00,51.272
1443.00,51.308
1444.00,51.311
1445.00,51.298
1446.00,51.323
1447.00,51.355
1448.00,51.366
1449.00,51.388
1450.00,51.373
1451.00,51.391
1452.00,51.415
1453.00,51.425
1454.00,51.435
1455.00,51.470
1456.00,51.478
1457.00,51.483
1458.00,51.508
1459.00,51.508
1460.00,51.527
1461.00,51.529
1462.00,51.554
1463.00,51.592
1464.00,51.587
1465.00,51.589
1466.00,51.607
1467.00,51.618
1468.00,51.674
1469.00,51.662
1470.00,51.658
1471.00,51.687
1472.00,51.687
1473.00,51.698
1474.00,51.739
1475.00,51.730
1476.00,51.742
1477.00,51.761
1478.00,51.757
1479.00,51.775
1480.00,51.787
1481.00,51.789
1482.00,51.810
1483.00,51.819
1484.00,51.824
1485.00,51.860
1486.00,51.847
1487.00,51.887
1488.00,51.909
1489.00,51.888
1490.00,51.913
1491.00,51.917
1492.00,51.933
1493.00,51.946
1494.00,51.949
1495.00,51.950
1496.00,51.970
1497.00,51.966
1498.00,51.962
1499.00,51.998
1500.00,51.999
1501.00, 
1502.00, 
1503.00, 
1504.00, 
1505.00, 
1506.00, 
1507.00, 
1508.00, 
1509.00, 
1510.00, 
1511.00, 
1512.00, 
1513.00, 
1514.00, 
1515.00, 
1516.00, 
1517.00, 
1518.00, 
1519.00, 
1520.00, 
1521.00, 
1522.00, 
1523.00, 
1524.00, 
1525.00, 
1526.00, 
1527.00, 
1528.00, 
1529.00, 
1530.00, 
1531.00, 
1532.00, 
1533.00, 
1534.00, 
1535.00, 
1536.00, 
1537.00, 
1538.00, 
1539.00, 
1540.00, 
1541.00, 
1542.00, 
1543.00, 
1544.00, 
1545.00, 
1546.00, 
1547.00, 
1548.00, 
1549.00, 
1550.00, 
1551.00, 
1552.00, 
1553.00, 
1554.00, 
1555.00, 
1556.00, 
1557.00, 
1558.00, 
1559.00, 
1560.00, 
1561.00, 
1562.00, 
1563.00, 
1564.00, 
1565.00, 
1566.00, 
1567.00, 
1568.00, 
1569.00, 
1570.00, 
1571.00, 
1572.00, 
1573.00, 
1574.00, 
1575.00, 
1576.00, 
1577.00, 
1578.00, 
1579.00, 
1580.00, 
1581.00, 
1582.00, 
1583.00, 
1584.00, 
1585.00, 
1586.00, 
1587.00, 
1588.00, 
1589.00, 
1590.00, 
1591.00, 
1592.00, 
1593.00, 
1594.00, 
1595.00, 
1596.00, 
1597.00, 
1598.00, 
1599.00, 
1600.00, 
1601.00, 
1602.00, 
1603.00, 
1604.00, 
1605.00, 
1606.00, 
1607.00, 
1608.00, 
1609.00, 
1610.00, 
1611.00, 
1612.00, 
1613.00, 
1614.00, 
1615.00, 
1616.00, 
1617.00, 
1618.00, 
1619.00, 
1620.00, 
1621.00, 
1622.00, 
1623.00, 
1624.00, 
1625.00, 
1626.00, 
1627.00, 
1628.00, 
1629.00, 
1630.00, 
1631.00, 
1632.00, 
1633.00, 
1634.00, 
1635.00, 
1636.00, 
1637.00, 
1638.00, 
1639.00, 
1640.00, 
1641.00, 
1642.00, 
1643.00, 
1644.00, 
1645.00, 
1646.00, 
1647.00, 
1648.00, 
1649.00, 
1650.00, 
1651.00, 
1652.00, 
1653.00, 
1654.00, 
1655.00, 
1656.00, 
1657.00, 
1658.00, 
1659.00, 
1660.00, 
1661.00, 
1662.00, 
1663.00, 
1664.00, 
1665.00, 
1666.00, 
1667.00, 
1668.00, 
1669.00, 
1670.00, 
1671.00, 
1672.00, 
1673.00, 
1674.00, 
1675.00, 
1676.00, 
1677.00, 
1678.00, 
1679.00, 
1680.00, 
1681.00, 
1682.00, 
1683.00, 
1684.00, 
1685.00, 
1686.00, 
1687.00, 
1688.00, 
1689.00, 
1690.00, 
1691.00, 
1692.00, 
1693.00, 
1694.00, 
1695.00, 
1696.00, 
1697.00, 
1698.00, 
1699.00, 
1700.00, 
1701.00, 
1702.00, 
1703.00, 
1704.00, 
1705.00, 
1706.00, 
1707.00, 
1708.00, 
1709.00, 
1710.00, 
1711.00, 
1712.00, 
1713.00, 
1714.00, 
1715.00, 
1716.00, 
1717.00, 
1718.00, 
1719.00, 
1720.00, 
1721.00, 
1722.00, 
1723.00, 
1724.00, 
1725.00, 
1726.00, 
1727.00, 
1728.00, 
1729.00, 
1730.00, 
1731.00, 
1732.00, 
1733.00, 
1734.00, 
1735.00, 
1736.00, 
1737.00, 
1738.00, 
1739.00, 
1740.00, 
1741.00, 
1742.00, 
1743.00, 
1744.00, 
1745.00, 
1746.00, 
1747.00, 
1748.00, 
1749.00, 
1750.00, 
1751.00, 
1752.00, 
1753.00, 
1754.00, 
1755.00, 
1756.00, 
1757.00, 
1758.00, 
1759.00, 
1760.00, 
1761.00, 
1762.00, 
1763.00, 
1764.00, 
1765.00, 
1766.00, 
1767.00, 
1768.00, 
1769.00, 
1770.00, 
1771.00, 
1772.00, 
1773.00, 
1774.00, 
1775.00, 
1776.00, 
1777.00, 
1778.00, 
1779.00, 
1780.00, 
1781.00, 
1782.00, 
1783.00, 
1784.00, 
1785.00, 
1786.00, 
1787.00, 
1788.00, 
1789.00, 
1790.00, 
1791.00, 
1792.00, 
1793.00, 
1794.00, 
1795.00, 
1796.00, 
1797.00, 
1798.00, 
1799.00, 
1800.00, 
1801.00, 
1802.00, 
1803.00, 
1804.00, 
1805.00, 
1806.00, 
1807.00, 
1808.00, 
1809.00, 
1810.00, 
1811.00, 
1812.00, 
1813.00, 
1814.00, 
1815.00, 
1816.00, 
1817.00, 
1818.00, 
1819.00, 
1820.00, 
1821.00, 
1822.00, 
1823.00, 
1824.00, 
1825.00, 
1826.00, 
1827.00, 
1828.00, 
1829.00, 
1830.00, 
1831.00, 
1832.00, 
1833.00, 
1834.00, 
1835.00, 
1836.00, 
1837.00, 
1838.00, 
1839.00, 
1840.00, 
1841.00, 
1842.00, 
1843.00, 
1844.00, 
1845.00, 
1846.00, 
1847.00, 
1848.00, 
1849.00, 
1850.00, 
1851.00, 
1852.00, 
1853.00, 
1854.00, 
1855.00, 
1856.00, 
1857.00, 
1858.00, 
1859.00, 
1860.00, 
1861.00, 
1862.00, 
1863.00, 
1864.00, 
1865.00, 
1866.00, 
1867.00, 
1868.00, 
1869.00, 
1870.00, 
1871.00, 
1872.00, 
1873.00, 
1874.00, 
1875.00, 
1876.00, 
1877.00, 
1878.00, 
1879.00, 
1880.00, 
1881.00, 
1882.00, 
1883.00, 
1884.00, 
1885.00, 
1886.00, 
1887.00, 
1888.00, 
1889.00, 
1890.00, 
1891.00, 
1892.00, 
1893.00, 
1894.00, 
1895.00, 
1896.00, 
1897.00, 
1898.00, 
1899.00, 
1900.00, 
1901.00, 
1902.00, 
1903.00, 
1904.00, 
1905.00, 
1906.00, 
1907.00, 
1908.00, 
1909.00, 
1910.00, 
1911.00, 
1912.00, 
1913.00, 
1914.00, 
1915.00, 
1916.00, 
1917.00, 
1918.00, 
1919.00, 
1920.00, 
1921.00, 
1922.00, 
1923.00, 
1924.00, 
1925.00, 
1926.00, 
1927.00, 
1928.00, 
1929.00, 
1930.00, 
1931.00, 
1932.00, 
1933.00, 
1934.00, 
1935.00, 
1936.00, 
1937.00, 
1938.00, 
1939.00, 
1940.00, 
1941.00, 
1942.00, 
1943.00, 
1944.00, 
1945.00, 
1946.00, 
1947.00, 
1948.00, 
1949.00, 
1950.00, 
1951.00, 
1952.00, 
1953.00, 
1954.00, 
1955.00, 
1956.00, 
1957.00, 
1958.00, 
1959.00, 
1960.00, 
1961.00, 
1962.00, 
1963.00, 
1964.00, 
1965.00, 
1966.00, 
1967.00, 
1968.00, 
1969.00, 
1970.00, 
1971.00, 
1972.00, 
1973.00, 
1974.00, 
1975.00, 
1976.00, 
1977.00, 
1978.00, 
1979.00, 
1980.00, 
1981.00, 
1982.00, 
1983.00, 
1984.00, 
1985.00, 
1986.00, 
1987.00, 
1988.00, 
1989.00, 
1990.00, 
1991.00, 
1992.00, 
1993.00, 
1994.00, 
1995.00, 
1996.00, 
1997.00, 
1998.00, 
1999.00, 
2000.00, 
2001.00, 
2002.00, 
2003.00, 
2004.00, 
2005.00, 
2006.00, 
2007.00, 
2008.00, 
2009.00, 
2010.00, 
2011.00, 
2012.00, 
2013.00, 
2014.00, 
2015.00, 
2016.00, 
2017.00, 
2018.00, 
2019.00, 
2020.00, 
2021.00, 
2022.00, 
2023.00, 
2024.00, 
2025.00, 
2026.00, 
2027.00, 
2028.00, 
2029.00, 
2030.00, 
2031.00, 
2032.00, 
2033.00, 
2034.00, 
2035.00, 
2036.00, 
2037.00, 
2038.00, 
2039.00, 
2040.00, 
2041.00, 
2042.00, 
2043.00, 
2044.00, 
2045.00, 
2046.00, 
2047.00, 
2048.00, 
2049.00, 
2050.00, 
2051.00, 
2052.00, 
2053.00, 
2054.00, 
2055.00, 
2056.00, 
2057.00, 
2058.00, 
2059.00, 
2060.00, 
2061.00, 
2062.00, 
2063.00, 
2064.00, 
2065.00, 
2066.00, 
2067.00, 
2068.00, 
2069.00, 
2070.00, 
2071.00, 
2072.00, 
2073.00, 
2074.00, 
2075.00, 
2076.00, 
2077.00, 
2078.00, 
2079.00, 
2080.00, 
2081.00, 
2082.00, 
2083.00, 
2084.00, 
2085.00, 
2086.00, 
2087.00, 
2088.00, 
2089.00, 
2090.00, 
2091.00, 
2092.00, 
2093.00, 
2094.00, 
2095.00, 
2096.00, 
2097.00, 
2098.00, 
2099.00, 
2100.00, 
2101.00, 
2102.00, 
2103.00, 
2104.00, 
2105.00, 
2106.00, 
2107.00, 
2108.00, 
2109.00, 
2110.00, 
2111.00, 
2112.00, 
2113.00, 
2114.00, 
2115.00, 
2116.00, 
2117.00, 
2118.00, 
2119.00, 
2120.00, 
2121.00, 
2122.00, 
2123.00, 
2124.00, 
2125.00, 
2126.00, 
2127.00, 
2128.00, 
2129.00, 
2130.00, 
2131.00, 
2132.00, 
2133.00, 
2134.00, 
2135.00, 
2136.00, 
2137.00, 
2138.00, 
2139.00, 
2140.00, 
2141.00, 
2142.00, 
2143.00, 
2144.00, 
2145.00, 
2146.00, 
2147.00, 
2148.00, 
2149.00, 
2150.00, 
2151.00, 
2152.00, 
2153.00, 
2154.00, 
2155.00, 
2156.00, 
2157.00, 
2158.00, 
2159.00, 
2160.00, 
2161.00, 
2162.00, 
2163.00, 
2164.00, 
2165.00, 
2166.00, 
2167.00, 
2168.00, 
2169.00, 
2170.00, 
2171.00, 
2172.00, 
2173.00, 
2174.00, 
2175.00, 
2176.00, 
2177.00, 
2178.00, 
2179.00, 
2180.00, 
2181.00, 
2182.00, 
2183.00, 
2184.00, 
2185.00, 
2186.00, 
2187.00, 
2188.00, 
2189.00, 
2190.00, 
2191.00, 
2192.00, 
2193.00, 
2194.00, 
2195.00, 
2196.00, 
2197.00, 
2198.00, 
2199.00, 
2200.00, 
2201.00, 
2202.00, 
2203.00, 
2204.00, 
2205.00, 
2206.00, 
2207.00, 
2208.00, 
2209.00, 
2210.00, 
2211.00, 
2212.00, 
2213.00, 
2214.00, 
2215.00, 
2216.00, 
2217.00, 
2218.00, 
2219.00, 
2220.00, 
2221.00, 
2222.00, 
2223.00, 
2224.00, 
2225.00, 
2226.00, 
2227.00, 
2228.00, 
2229.00, 
2230.00, 
2231.00, 
2232.00, 
2233.00, 
2234.00, 
2235.00, 
2236.00, 
2237.00, 
2238.00, 
2239.00, 
2240.00, 
2241.00, 
2242.00, 
2243.00, 
2244.00, 
2245.00, 
2246.00, 
2247.00, 
2248.00, 
2249.00, 
2250.00, 
2251.00, 
2252.00, 
2253.00, 
2254.00, 
2255.00, 
2256.00, 
2257.00, 
2258.00, 
2259.00, 
2260.00, 
2261.00, 
2262.00, 
2263.00, 
2264.00, 
2265.00, 
2266.00, 
2267.00, 
2268.00, 
2269.00, 
2270.00, 
2271.00, 
2272.00, 
2273.00, 
2274.00, 
2275.00, 
2276.00, 
2277.00, 
2278.00, 
2279.00, 
2280.00, 
2281.00, 
2282.00, 
2283.00, 
2284.00, 
2285.00, 
2286.00, 
2287.00, 
2288.00, 
2289.00, 
2290.00, 
2291.00, 
2292.00, 
2293.00, 
2294.00, 
2295.00, 
2296.00, 
2297.00, 
2298.00, 
2299.00, 
2300.00, 
2301.00, 
2302.00, 
2303.00, 
2304.00, 
2305.00, 
2306.00, 
2307.00, 
2308.00, 
2309.00, 
2310.00, 
2311.00, 
2312.00, 
2313.00, 
2314.00, 
2315.00, 
2316.00, 
2317.00, 
2318.00, 
2319.00, 
2320.00, 
2321.00, 
2322.00, 
2323.00, 
2324.00, 
2325.00, 
2326.00, 
2327.00, 
2328.00, 
2329.00, 
2330.00, 
2331.00, 
2332.00, 
2333.00, 
2334.00, 
2335.00, 
2336.00, 
2337.00, 
2338.00, 
2339.00, 
2340.00, 
2341.00, 
2342.00, 
2343.00, 
2344.00, 
2345.00, 
2346.00, 
2347.00, 
2348.00, 
2349.00, 
2350.00, 
2351.00, 
2352.00, 
2353.00, 
2354.00, 
2355.00, 
2356.00, 
2357.00, 
2358.00, 
2359.00, 
2360.00, 
2361.00, 
2362.00, 
2363.00, 
2364.00, 
2365.00, 
2366.00, 
2367.00, 
2368.00, 
2369.00, 
2370.00, 
2371.00, 
2372.00, 
2373.00, 
2374.00, 
2375.00, 
2376.00, 
2377.00, 
2378.00, 
2379.00, 
2380.00, 
2381.00, 
2382.00, 
2383.00, 
2384.00, 
2385.00, 
2386.00, 
2387.00, 
2388.00, 
2389.00, 
2390.00, 
2391.00, 
2392.00, 
2393.00, 
2394.00, 
2395.00, 
2396.00, 
2397.00, 
2398.00, 
2399.00, 
2400.00, 
2401.00, 
2402.00, 
2403.00, 
2404.00, 
2405.00, 
2406.00, 
2407.00, 
2408.00, 
2409.00, 
2410.00, 
2411.00, 
2412.00, 
2413.00, 
2414.00, 
2415.00, 
2416.00, 
2417.00, 
2418.00, 
2419.00, 
2420.00, 
2421.00, 
2422.00, 
2423.00, 
2424.00, 
2425.00, 
2426.00, 
2427.00, 
2428.00, 
2429.00, 
2430.00, 
2431.00, 
2432.00, 
2433.00, 
2434.00, 
2435.00, 
2436.00, 
2437.00, 
2438.00, 
2439.00, 
2440.00, 
2441.00, 
2442.00, 
2443.00, 
2444.00, 
2445.00, 
2446.00, 
2447.00, 
2448.00, 
2449.00, 
2450.00, 
2451.00, 
2452.00, 
2453.00, 
2454.00, 
2455.00, 
2456.00, 
2457.00, 
2458.00, 
2459.00, 
2460.00, 
2461.00, 
2462.00, 
2463.00, 
2464.00, 
2465.00, 
2466.00, 
2467.00, 
2468.00, 
2469.00, 
2470.00, 
2471.00, 
2472.00, 
2473.00, 
2474.00, 
2475.00, 
2476.00, 
2477.00, 
2478.00, 
2479.00, 
2480.00, 
2481.00, 
2482.00, 
2483.00, 
2484.00, 
2485.00, 
2486.00, 
2487.00, 
2488.00, 
2489.00, 
2490.00, 
2491.00, 
2492.00, 
2493.00, 
2494.00, 
2495.00, 
2496.00, 
2497.00, 
2498.00, 
2499.00, 
2500.00, 
2501.00, 
2502.00, 
2503.00, 
2504.00, 
2505.00, 
2506.00, 
2507.00, 
2508.00, 
2509.00, 
2510.00, 
2511.00, 
2512.00, 
2513.00, 
2514.00, 
2515.00, 
2516.00, 
2517.00, 
2518.00, 
2519.00, 
2520.00, 
2521.00, 
2522.00, 
2523.00, 
2524.00, 
2525.00, 
2526.00, 
2527.00, 
2528.00, 
2529.00, 
2530.00, 
2531.00, 
2532.00, 
2533.00, 
2534.00, 
2535.00, 
2536.00, 
2537.00, 
2538.00, 
2539.00, 
2540.00, 
2541.00, 
2542.00, 
2543.00, 
2544.00, 
2545.00, 
2546.00, 
2547.00, 
2548.00, 
2549.00, 
2550.00, 
2551.00, 
2552.00, 
2553.00, 
2554.00, 
2555.00, 
2556.00, 
2557.00, 
2558.00, 
2559.00, 
2560.00, 
2561.00, 
2562.00, 
2563.00, 
2564.00, 
2565.00, 
2566.00, 
2567.00, 
2568.00, 
2569.00, 
2570.00, 
2571.00, 
2572.00, 
2573.00, 
2574.00, 
2575.00, 
2576.00, 
2577.00, 
2578.00, 
2579.00, 
2580.00, 
2581.00, 
2582.00, 
2583.00, 
2584.00, 
2585.00, 
2586.00, 
2587.00, 
2588.00, 
2589.00, 
2590.00, 
2591.00, 
2592.00, 
2593.00, 
2594.00, 
2595.00, 
2596.00, 
2597.00, 
2598.00, 
2599.00, 
2600.00, 
