"2cP4 - RawData"
"Wavelength nm.","T%"
200.00,0.004
201.00,0.001
202.00,0.003
203.00,0.001
204.00,-0.000
205.00,0.004
206.00,-0.000
207.00,0.004
208.00,0.000
209.00,0.003
210.00,-0.001
211.00,0.006
212.00,0.000
213.00,0.001
214.00,0.002
215.00,0.001
216.00,0.002
217.00,-0.002
218.00,0.001
219.00,0.001
220.00,0.003
221.00,0.001
222.00,0.000
223.00,0.001
224.00,0.001
225.00,0.002
226.00,0.003
227.00,0.001
228.00,0.001
229.00,-0.000
230.00,-0.000
231.00,0.000
232.00,0.000
233.00,0.001
234.00,0.000
235.00,-0.000
236.00,0.002
237.00,-0.001
238.00,0.000
239.00,0.001
240.00,0.000
241.00,-0.001
242.00,0.000
243.00,0.000
244.00,0.001
245.00,0.001
246.00,0.000
247.00,0.000
248.00,-0.000
249.00,0.000
250.00,0.002
251.00,0.003
252.00,0.001
253.00,-0.001
254.00,-0.000
255.00,0.001
256.00,-0.000
257.00,0.002
258.00,0.001
259.00,0.001
260.00,-0.000
261.00,0.002
262.00,0.002
263.00,0.001
264.00,0.001
265.00,-0.000
266.00,-0.000
267.00,0.001
268.00,0.001
269.00,0.000
270.00,0.001
271.00,0.000
272.00,0.002
273.00,0.001
274.00,-0.000
275.00,-0.001
276.00,-0.001
277.00,0.002
278.00,-0.001
279.00,0.000
280.00,0.001
281.00,-0.000
282.00,0.001
283.00,-0.000
284.00,0.002
285.00,0.003
286.00,0.001
287.00,0.000
288.00,0.002
289.00,0.002
290.00,-0.001
291.00,0.000
292.00,0.000
293.00,0.000
294.00,0.001
295.00,0.000
296.00,-0.000
297.00,0.000
298.00,0.001
299.00,0.003
300.00,0.002
301.00,0.004
302.00,0.006
303.00,0.008
304.00,0.011
305.00,0.020
306.00,0.027
307.00,0.041
308.00,0.066
309.00,0.102
310.00,0.141
311.00,0.199
312.00,0.266
313.00,0.361
314.00,0.473
315.00,0.603
316.00,0.778
317.00,0.986
318.00,1.207
319.00,1.479
320.00,1.819
321.00,2.168
322.00,2.565
323.00,3.021
324.00,3.502
325.00,3.991
326.00,4.475
327.00,5.070
328.00,5.670
329.00,6.269
330.00,6.908
331.00,7.545
332.00,8.206
333.00,8.911
334.00,9.538
335.00,10.225
336.00,10.880
337.00,11.574
338.00,12.240
339.00,12.820
340.00,13.486
341.00,14.103
342.00,14.658
343.00,15.236
344.00,15.755
345.00,16.287
346.00,16.737
347.00,17.208
348.00,17.631
349.00,18.065
350.00,18.453
351.00,18.783
352.00,19.124
353.00,19.430
354.00,19.718
355.00,19.950
356.00,20.238
357.00,20.514
358.00,20.740
359.00,20.941
360.00,21.153
361.00,21.276
362.00,21.486
363.00,21.624
364.00,21.781
365.00,21.872
366.00,21.979
367.00,22.053
368.00,22.108
369.00,22.170
370.00,22.221
371.00,22.289
372.00,22.291
373.00,22.283
374.00,22.298
375.00,22.305
376.00,22.254
377.00,22.229
378.00,22.151
379.00,22.116
380.00,22.109
381.00,22.107
382.00,22.100
383.00,22.082
384.00,22.067
385.00,22.167
386.00,22.174
387.00,22.242
388.00,22.258
389.00,22.323
390.00,22.328
391.00,22.384
392.00,22.361
393.00,22.385
394.00,22.438
395.00,22.433
396.00,22.467
397.00,22.455
398.00,22.487
399.00,22.477
400.00,22.463
401.00,22.481
402.00,22.498
403.00,22.524
404.00,22.493
405.00,22.498
406.00,22.512
407.00,22.466
408.00,22.464
409.00,22.415
410.00,22.415
411.00,22.402
412.00,22.387
413.00,22.368
414.00,22.371
415.00,22.430
416.00,22.459
417.00,22.466
418.00,22.506
419.00,22.538
420.00,22.584
421.00,22.640
422.00,22.683
423.00,22.704
424.00,22.728
425.00,22.780
426.00,22.824
427.00,22.865
428.00,22.920
429.00,22.947
430.00,23.047
431.00,23.108
432.00,23.102
433.00,23.188
434.00,23.234
435.00,23.323
436.00,23.377
437.00,23.404
438.00,23.533
439.00,23.598
440.00,23.681
441.00,23.766
442.00,23.845
443.00,23.862
444.00,24.023
445.00,24.127
446.00,24.224
447.00,24.368
448.00,24.410
449.00,24.521
450.00,24.620
451.00,24.729
452.00,24.814
453.00,24.951
454.00,25.043
455.00,25.174
456.00,25.289
457.00,25.386
458.00,25.511
459.00,25.657
460.00,25.791
461.00,25.895
462.00,26.022
463.00,26.173
464.00,26.290
465.00,26.434
466.00,26.532
467.00,26.716
468.00,26.786
469.00,26.926
470.00,27.013
471.00,27.129
472.00,27.261
473.00,27.311
474.00,27.450
475.00,27.571
476.00,27.679
477.00,27.808
478.00,27.923
479.00,28.075
480.00,28.211
481.00,28.335
482.00,28.485
483.00,28.655
484.00,28.762
485.00,28.973
486.00,29.116
487.00,29.189
488.00,29.334
489.00,29.440
490.00,29.707
491.00,29.859
492.00,30.091
493.00,30.151
494.00,30.184
495.00,30.332
496.00,30.463
497.00,30.566
498.00,30.741
499.00,30.860
500.00,31.041
501.00,31.142
502.00,31.254
503.00,31.387
504.00,31.458
505.00,31.601
506.00,31.695
507.00,31.767
508.00,31.867
509.00,32.026
510.00,32.095
511.00,32.318
512.00,32.482
513.00,32.511
514.00,32.645
515.00,32.789
516.00,32.844
517.00,33.048
518.00,33.134
519.00,33.242
520.00,33.339
521.00,33.360
522.00,33.480
523.00,33.521
524.00,33.606
525.00,33.702
526.00,33.822
527.00,33.936
528.00,33.996
529.00,34.116
530.00,34.233
531.00,34.349
532.00,34.455
533.00,34.519
534.00,34.620
535.00,34.705
536.00,34.839
537.00,34.855
538.00,34.990
539.00,35.025
540.00,35.061
541.00,35.144
542.00,35.182
543.00,35.267
544.00,35.331
545.00,35.386
546.00,35.450
547.00,35.593
548.00,35.662
549.00,35.684
550.00,35.780
551.00,35.848
552.00,35.916
553.00,35.992
554.00,36.081
555.00,36.116
556.00,36.129
557.00,36.228
558.00,36.248
559.00,36.283
560.00,36.460
561.00,36.455
562.00,36.580
563.00,36.687
564.00,36.608
565.00,36.634
566.00,36.679
567.00,36.689
568.00,36.705
569.00,36.844
570.00,36.808
571.00,36.868
572.00,36.942
573.00,36.907
574.00,36.952
575.00,36.987
576.00,37.026
577.00,37.078
578.00,37.123
579.00,37.200
580.00,37.255
581.00,37.352
582.00,37.482
583.00,37.517
584.00,37.503
585.00,37.680
586.00,37.697
587.00,37.683
588.00,37.728
589.00,37.671
590.00,37.836
591.00,37.894
592.00,37.899
593.00,37.967
594.00,37.987
595.00,38.065
596.00,38.143
597.00,38.178
598.00,38.306
599.00,38.327
600.00,38.411
601.00,38.448
602.00,38.452
603.00,38.467
604.00,38.526
605.00,38.609
606.00,38.656
607.00,38.653
608.00,38.762
609.00,38.786
610.00,38.729
611.00,38.840
612.00,38.886
613.00,38.913
614.00,39.001
615.00,39.019
616.00,39.141
617.00,39.192
618.00,39.212
619.00,39.278
620.00,39.306
621.00,39.356
622.00,39.393
623.00,39.481
624.00,39.593
625.00,39.563
626.00,39.690
627.00,39.680
628.00,39.738
629.00,39.785
630.00,39.857
631.00,39.912
632.00,40.020
633.00,40.130
634.00,40.198
635.00,40.303
636.00,40.405
637.00,40.457
638.00,40.485
639.00,40.584
640.00,40.608
641.00,40.682
642.00,40.776
643.00,40.824
644.00,40.941
645.00,40.996
646.00,41.140
647.00,41.177
648.00,41.271
649.00,41.371
650.00,41.362
651.00,41.452
652.00,41.557
653.00,41.665
654.00,41.753
655.00,41.811
656.00,41.938
657.00,42.180
658.00,42.170
659.00,42.106
660.00,42.242
661.00,42.339
662.00,42.512
663.00,42.553
664.00,42.668
665.00,42.724
666.00,42.827
667.00,42.961
668.00,42.988
669.00,43.119
670.00,43.226
671.00,43.189
672.00,43.349
673.00,43.513
674.00,43.625
675.00,43.698
676.00,43.722
677.00,43.873
678.00,43.846
679.00,43.860
680.00,44.103
681.00,44.208
682.00,44.292
683.00,44.344
684.00,44.455
685.00,44.600
686.00,44.612
687.00,44.730
688.00,44.811
689.00,44.841
690.00,45.057
691.00,45.156
692.00,45.054
693.00,45.193
694.00,45.247
695.00,45.439
696.00,45.493
697.00,45.540
698.00,45.760
699.00,45.926
700.00,45.958
701.00,45.978
702.00,46.040
703.00,46.182
704.00,46.176
705.00,46.350
706.00,46.390
707.00,46.631
708.00,46.481
709.00,46.603
710.00,46.858
711.00,46.746
712.00,46.633
713.00,46.872
714.00,46.929
715.00,46.907
716.00,47.026
717.00,47.139
718.00,47.031
719.00,47.282
720.00,47.317
721.00,51.540
722.00,51.629
723.00,51.633
724.00,51.614
725.00,51.662
726.00,51.689
727.00,51.739
728.00,51.742
729.00,51.694
730.00,51.842
731.00,51.794
732.00,51.794
733.00,51.936
734.00,51.937
735.00,51.944
736.00,51.962
737.00,51.996
738.00,52.023
739.00,52.081
740.00,52.099
741.00,52.213
742.00,52.137
743.00,52.201
744.00,52.123
745.00,52.214
746.00,52.150
747.00,52.170
748.00,52.213
749.00,52.195
750.00,52.231
751.00,52.244
752.00,52.185
753.00,52.225
754.00,52.186
755.00,52.220
756.00,52.242
757.00,52.259
758.00,52.267
759.00,52.330
760.00,52.282
761.00,52.312
762.00,52.308
763.00,52.402
764.00,52.337
765.00,52.371
766.00,52.414
767.00,52.380
768.00,52.496
769.00,52.396
770.00,52.452
771.00,52.469
772.00,52.451
773.00,52.508
774.00,52.458
775.00,52.413
776.00,52.437
777.00,52.501
778.00,52.476
779.00,52.528
780.00,52.462
781.00,52.499
782.00,52.537
783.00,52.515
784.00,52.491
785.00,52.495
786.00,52.563
787.00,52.516
788.00,52.457
789.00,52.507
790.00,52.446
791.00,52.469
792.00,52.432
793.00,52.402
794.00,52.409
795.00,52.410
796.00,52.409
797.00,52.365
798.00,52.394
799.00,52.303
800.00,52.345
801.00,52.415
802.00,52.399
803.00,52.339
804.00,52.312
805.00,52.378
806.00,52.314
807.00,52.279
808.00,52.269
809.00,52.274
810.00,52.134
811.00,52.214
812.00,52.271
813.00,52.224
814.00,52.226
815.00,52.178
816.00,52.251
817.00,52.134
818.00,52.124
819.00,52.099
820.00,52.093
821.00,52.119
822.00,52.054
823.00,52.057
824.00,52.076
825.00,52.004
826.00,52.071
827.00,52.056
828.00,52.010
829.00,51.997
830.00,52.063
831.00,54.191
832.00,54.152
833.00,54.142
834.00,54.150
835.00,54.136
836.00,54.121
837.00,54.095
838.00,54.024
839.00,54.042
840.00,53.970
841.00,54.013
842.00,53.975
843.00,53.975
844.00,53.946
845.00,53.927
846.00,53.920
847.00,53.909
848.00,53.908
849.00,53.856
850.00,53.805
851.00,53.757
852.00,53.765
853.00,53.718
854.00,53.716
855.00,53.631
856.00,53.659
857.00,53.603
858.00,53.585
859.00,53.540
860.00,53.574
861.00,53.575
862.00,53.507
863.00,53.526
864.00,53.487
865.00,53.528
866.00,53.259
867.00,53.496
868.00,53.467
869.00,53.424
870.00,53.442
871.00,53.428
872.00,53.430
873.00,53.427
874.00,53.419
875.00,53.412
876.00,53.393
877.00,53.523
878.00,53.389
879.00,53.349
880.00,53.342
881.00,53.283
882.00,53.338
883.00,53.257
884.00,53.226
885.00,53.212
886.00,53.187
887.00,53.195
888.00,53.132
889.00,53.133
890.00,53.145
891.00,53.126
892.00,53.072
893.00,53.071
894.00,53.052
895.00,53.039
896.00,53.015
897.00,52.998
898.00,52.969
899.00,52.966
900.00,52.946
901.00,52.943
902.00,52.934
903.00,52.901
904.00,52.910
905.00,52.882
906.00,52.857
907.00,52.849
908.00,52.809
909.00,52.799
910.00,52.774
911.00,52.742
912.00,52.763
913.00,52.711
914.00,52.719
915.00,52.679
916.00,52.594
917.00,52.722
918.00,52.628
919.00,52.599
920.00,52.553
921.00,52.536
922.00,52.558
923.00,52.520
924.00,52.500
925.00,52.487
926.00,52.515
927.00,52.479
928.00,52.444
929.00,52.464
930.00,52.424
931.00,52.381
932.00,52.425
933.00,52.388
934.00,52.346
935.00,52.325
936.00,52.298
937.00,52.287
938.00,52.283
939.00,52.269
940.00,52.227
941.00,52.230
942.00,52.189
943.00,52.192
944.00,52.146
945.00,52.147
946.00,52.123
947.00,52.098
948.00,52.068
949.00,52.060
950.00,52.029
951.00,52.033
952.00,52.011
953.00,51.944
954.00,51.940
955.00,51.908
956.00,51.912
957.00,51.869
958.00,51.876
959.00,51.806
960.00,51.815
961.00,51.786
962.00,51.783
963.00,51.778
964.00,51.728
965.00,51.731
966.00,51.714
967.00,51.697
968.00,51.687
969.00,51.707
970.00,51.700
971.00,51.700
972.00,51.667
973.00,51.701
974.00,51.742
975.00,51.672
976.00,51.695
977.00,51.661
978.00,51.776
979.00,51.659
980.00,51.681
981.00,51.693
982.00,51.672
983.00,51.668
984.00,51.657
985.00,51.682
986.00,51.626
987.00,51.663
988.00,51.631
989.00,51.637
990.00,51.622
991.00,51.593
992.00,51.618
993.00,51.604
994.00,51.549
995.00,51.561
996.00,51.559
997.00,51.529
998.00,51.513
999.00,51.540
1000.00,51.478
1001.00,51.490
1002.00,51.466
1003.00,51.462
1004.00,51.448
1005.00,51.413
1006.00,51.445
1007.00,51.410
1008.00,51.388
1009.00,51.372
1010.00,51.361
1011.00,51.347
1012.00,51.315
1013.00,51.322
1014.00,51.279
1015.00,51.294
1016.00,51.239
1017.00,51.240
1018.00,51.230
1019.00,51.195
1020.00,51.191
1021.00,51.179
1022.00,51.180
1023.00,51.142
1024.00,51.144
1025.00,51.119
1026.00,51.128
1027.00,51.094
1028.00,51.079
1029.00,51.075
1030.00,51.023
1031.00,51.050
1032.00,51.014
1033.00,51.013
1034.00,50.978
1035.00,50.941
1036.00,50.934
1037.00,50.907
1038.00,50.902
1039.00,50.856
1040.00,50.875
1041.00,50.825
1042.00,50.832
1043.00,50.813
1044.00,50.833
1045.00,50.822
1046.00,50.813
1047.00,50.831
1048.00,50.838
1049.00,50.831
1050.00,50.838
1051.00,50.868
1052.00,50.868
1053.00,50.859
1054.00,50.862
1055.00,50.866
1056.00,50.877
1057.00,50.884
1058.00,50.867
1059.00,50.876
1060.00,50.880
1061.00,50.864
1062.00,50.849
1063.00,50.865
1064.00,50.862
1065.00,50.859
1066.00,50.843
1067.00,50.827
1068.00,50.835
1069.00,50.801
1070.00,50.795
1071.00,50.783
1072.00,50.791
1073.00,50.762
1074.00,50.754
1075.00,50.744
1076.00,50.755
1077.00,50.737
1078.00,50.721
1079.00,50.711
1080.00,50.720
1081.00,50.701
1082.00,50.686
1083.00,50.682
1084.00,50.678
1085.00,50.667
1086.00,50.661
1087.00,50.668
1088.00,50.635
1089.00,50.625
1090.00,50.629
1091.00,50.620
1092.00,50.616
1093.00,50.583
1094.00,50.574
1095.00,50.571
1096.00,50.557
1097.00,50.552
1098.00,50.546
1099.00,50.555
1100.00,50.562
1101.00,50.529
1102.00,50.518
1103.00,50.523
1104.00,50.511
1105.00,50.489
1106.00,50.487
1107.00,50.472
1108.00,50.456
1109.00,50.443
1110.00,50.432
1111.00,50.427
1112.00,50.400
1113.00,50.400
1114.00,50.396
1115.00,50.399
1116.00,50.395
1117.00,50.390
1118.00,50.373
1119.00,50.363
1120.00,50.367
1121.00,50.356
1122.00,50.353
1123.00,50.333
1124.00,50.319
1125.00,50.303
1126.00,50.308
1127.00,50.313
1128.00,50.302
1129.00,50.271
1130.00,50.276
1131.00,50.284
1132.00,50.259
1133.00,50.259
1134.00,50.252
1135.00,50.235
1136.00,50.256
1137.00,50.243
1138.00,50.238
1139.00,50.241
1140.00,50.214
1141.00,50.221
1142.00,50.211
1143.00,50.202
1144.00,50.187
1145.00,50.194
1146.00,50.209
1147.00,50.195
1148.00,50.184
1149.00,50.194
1150.00,50.200
1151.00,50.198
1152.00,50.192
1153.00,50.188
1154.00,50.158
1155.00,50.171
1156.00,50.155
1157.00,50.158
1158.00,50.146
1159.00,50.135
1160.00,50.136
1161.00,50.154
1162.00,50.141
1163.00,50.137
1164.00,50.148
1165.00,50.133
1166.00,50.132
1167.00,50.126
1168.00,50.125
1169.00,50.130
1170.00,50.125
1171.00,50.102
1172.00,50.108
1173.00,50.089
1174.00,50.096
1175.00,50.102
1176.00,50.100
1177.00,50.102
1178.00,50.096
1179.00,50.112
1180.00,50.103
1181.00,50.113
1182.00,50.099
1183.00,50.099
1184.00,50.072
1185.00,50.078
1186.00,50.067
1187.00,50.059
1188.00,50.058
1189.00,50.058
1190.00,50.066
1191.00,50.059
1192.00,50.071
1193.00,50.060
1194.00,50.070
1195.00,50.042
1196.00,50.076
1197.00,50.076
1198.00,50.046
1199.00,50.048
1200.00,50.054
1201.00,50.051
1202.00,50.039
1203.00,50.039
1204.00,50.034
1205.00,50.057
1206.00,50.037
1207.00,50.049
1208.00,50.044
1209.00,50.047
1210.00,50.054
1211.00,50.038
1212.00,50.065
1213.00,50.029
1214.00,50.049
1215.00,50.031
1216.00,50.036
1217.00,50.033
1218.00,50.020
1219.00,50.039
1220.00,50.008
1221.00,50.023
1222.00,50.012
1223.00,50.043
1224.00,50.046
1225.00,50.030
1226.00,50.031
1227.00,50.020
1228.00,50.037
1229.00,50.028
1230.00,50.073
1231.00,50.050
1232.00,50.068
1233.00,50.072
1234.00,50.086
1235.00,50.078
1236.00,50.068
1237.00,50.081
1238.00,50.057
1239.00,50.066
1240.00,50.055
1241.00,50.072
1242.00,50.070
1243.00,50.089
1244.00,50.071
1245.00,50.095
1246.00,50.102
1247.00,50.086
1248.00,50.084
1249.00,50.109
1250.00,50.097
1251.00,50.091
1252.00,50.107
1253.00,50.089
1254.00,50.121
1255.00,50.113
1256.00,50.099
1257.00,50.085
1258.00,50.104
1259.00,50.102
1260.00,50.130
1261.00,50.121
1262.00,50.118
1263.00,50.128
1264.00,50.128
1265.00,50.126
1266.00,50.130
1267.00,50.123
1268.00,50.151
1269.00,50.144
1270.00,50.155
1271.00,50.159
1272.00,50.159
1273.00,50.174
1274.00,50.170
1275.00,50.175
1276.00,50.169
1277.00,50.172
1278.00,50.185
1279.00,50.194
1280.00,50.193
1281.00,50.192
1282.00,50.208
1283.00,50.185
1284.00,50.191
1285.00,50.183
1286.00,50.197
1287.00,50.192
1288.00,50.197
1289.00,50.213
1290.00,50.228
1291.00,50.221
1292.00,50.230
1293.00,50.229
1294.00,50.244
1295.00,50.243
1296.00,50.265
1297.00,50.253
1298.00,50.275
1299.00,50.257
1300.00,50.270
1301.00,50.281
1302.00,50.280
1303.00,50.305
1304.00,50.283
1305.00,50.301
1306.00,50.298
1307.00,50.306
1308.00,50.301
1309.00,50.297
1310.00,50.319
1311.00,50.285
1312.00,50.315
1313.00,50.344
1314.00,50.313
1315.00,50.333
1316.00,50.331
1317.00,50.357
1318.00,50.352
1319.00,50.351
1320.00,50.377
1321.00,50.535
1322.00,50.547
1323.00,50.519
1324.00,50.510
1325.00,50.506
1326.00,50.531
1327.00,50.513
1328.00,50.502
1329.00,50.490
1330.00,50.509
1331.00,50.510
1332.00,50.531
1333.00,50.513
1334.00,50.545
1335.00,50.552
1336.00,50.573
1337.00,50.607
1338.00,50.665
1339.00,50.711
1340.00,50.773
1341.00,50.831
1342.00,50.895
1343.00,50.952
1344.00,51.013
1345.00,51.042
1346.00,51.103
1347.00,51.087
1348.00,51.099
1349.00,51.162
1350.00,51.166
1351.00,51.188
1352.00,51.172
1353.00,51.221
1354.00,51.192
1355.00,51.146
1356.00,51.228
1357.00,51.144
1358.00,51.223
1359.00,51.249
1360.00,51.256
1361.00,51.311
1362.00,51.162
1363.00,51.225
1364.00,51.284
1365.00,51.252
1366.00,51.278
1367.00,51.234
1368.00,51.153
1369.00,51.230
1370.00,51.198
1371.00,51.123
1372.00,51.183
1373.00,51.175
1374.00,51.201
1375.00,51.196
1376.00,51.199
1377.00,51.181
1378.00,51.238
1379.00,51.218
1380.00,51.213
1381.00,51.212
1382.00,51.174
1383.00,51.188
1384.00,51.172
1385.00,51.145
1386.00,51.187
1387.00,51.164
1388.00,51.148
1389.00,51.139
1390.00,51.178
1391.00,51.178
1392.00,51.192
1393.00,51.205
1394.00,51.158
1395.00,51.168
1396.00,51.151
1397.00,51.175
1398.00,51.233
1399.00,51.183
1400.00,51.181
1401.00,51.148
1402.00,51.217
1403.00,51.199
1404.00,51.160
1405.00,51.209
1406.00,51.200
1407.00,51.227
1408.00,51.205
1409.00,51.191
1410.00,51.251
1411.00,51.223
1412.00,51.310
1413.00,51.225
1414.00,51.239
1415.00,51.264
1416.00,51.302
1417.00,51.369
1418.00,51.320
1419.00,51.284
1420.00,51.313
1421.00,51.366
1422.00,51.356
1423.00,51.357
1424.00,51.380
1425.00,51.396
1426.00,51.397
1427.00,51.414
1428.00,51.410
1429.00,51.428
1430.00,51.444
1431.00,51.450
1432.00,51.463
1433.00,51.488
1434.00,51.483
1435.00,51.529
1436.00,51.530
1437.00,51.528
1438.00,51.549
1439.00,51.576
1440.00,51.590
1441.00,51.598
1442.00,51.615
1443.00,51.646
1444.00,51.672
1445.00,51.665
1446.00,51.664
1447.00,51.688
1448.00,51.706
1449.00,51.713
1450.00,51.718
1451.00,51.731
1452.00,51.747
1453.00,51.766
1454.00,51.778
1455.00,51.803
1456.00,51.822
1457.00,51.825
1458.00,51.850
1459.00,51.858
1460.00,51.872
1461.00,51.873
1462.00,51.897
1463.00,51.918
1464.00,51.923
1465.00,51.934
1466.00,51.941
1467.00,51.956
1468.00,52.007
1469.00,51.992
1470.00,52.009
1471.00,52.017
1472.00,52.020
1473.00,52.043
1474.00,52.075
1475.00,52.083
1476.00,52.092
1477.00,52.086
1478.00,52.111
1479.00,52.125
1480.00,52.136
1481.00,52.139
1482.00,52.157
1483.00,52.163
1484.00,52.176
1485.00,52.190
1486.00,52.198
1487.00,52.232
1488.00,52.244
1489.00,52.250
1490.00,52.268
1491.00,52.279
1492.00,52.287
1493.00,52.272
1494.00,52.296
1495.00,52.291
1496.00,52.321
1497.00,52.323
1498.00,52.321
1499.00,52.336
1500.00,52.357
1501.00, 
1502.00, 
1503.00, 
1504.00, 
1505.00, 
1506.00, 
1507.00, 
1508.00, 
1509.00, 
1510.00, 
1511.00, 
1512.00, 
1513.00, 
1514.00, 
1515.00, 
1516.00, 
1517.00, 
1518.00, 
1519.00, 
1520.00, 
1521.00, 
1522.00, 
1523.00, 
1524.00, 
1525.00, 
1526.00, 
1527.00, 
1528.00, 
1529.00, 
1530.00, 
1531.00, 
1532.00, 
1533.00, 
1534.00, 
1535.00, 
1536.00, 
1537.00, 
1538.00, 
1539.00, 
1540.00, 
1541.00, 
1542.00, 
1543.00, 
1544.00, 
1545.00, 
1546.00, 
1547.00, 
1548.00, 
1549.00, 
1550.00, 
1551.00, 
1552.00, 
1553.00, 
1554.00, 
1555.00, 
1556.00, 
1557.00, 
1558.00, 
1559.00, 
1560.00, 
1561.00, 
1562.00, 
1563.00, 
1564.00, 
1565.00, 
1566.00, 
1567.00, 
1568.00, 
1569.00, 
1570.00, 
1571.00, 
1572.00, 
1573.00, 
1574.00, 
1575.00, 
1576.00, 
1577.00, 
1578.00, 
1579.00, 
1580.00, 
1581.00, 
1582.00, 
1583.00, 
1584.00, 
1585.00, 
1586.00, 
1587.00, 
1588.00, 
1589.00, 
1590.00, 
1591.00, 
1592.00, 
1593.00, 
1594.00, 
1595.00, 
1596.00, 
1597.00, 
1598.00, 
1599.00, 
1600.00, 
1601.00, 
1602.00, 
1603.00, 
1604.00, 
1605.00, 
1606.00, 
1607.00, 
1608.00, 
1609.00, 
1610.00, 
1611.00, 
1612.00, 
1613.00, 
1614.00, 
1615.00, 
1616.00, 
1617.00, 
1618.00, 
1619.00, 
1620.00, 
1621.00, 
1622.00, 
1623.00, 
1624.00, 
1625.00, 
1626.00, 
1627.00, 
1628.00, 
1629.00, 
1630.00, 
1631.00, 
1632.00, 
1633.00, 
1634.00, 
1635.00, 
1636.00, 
1637.00, 
1638.00, 
1639.00, 
1640.00, 
1641.00, 
1642.00, 
1643.00, 
1644.00, 
1645.00, 
1646.00, 
1647.00, 
1648.00, 
1649.00, 
1650.00, 
1651.00, 
1652.00, 
1653.00, 
1654.00, 
1655.00, 
1656.00, 
1657.00, 
1658.00, 
1659.00, 
1660.00, 
1661.00, 
1662.00, 
1663.00, 
1664.00, 
1665.00, 
1666.00, 
1667.00, 
1668.00, 
1669.00, 
1670.00, 
1671.00, 
1672.00, 
1673.00, 
1674.00, 
1675.00, 
1676.00, 
1677.00, 
1678.00, 
1679.00, 
1680.00, 
1681.00, 
1682.00, 
1683.00, 
1684.00, 
1685.00, 
1686.00, 
1687.00, 
1688.00, 
1689.00, 
1690.00, 
1691.00, 
1692.00, 
1693.00, 
1694.00, 
1695.00, 
1696.00, 
1697.00, 
1698.00, 
1699.00, 
1700.00, 
1701.00, 
1702.00, 
1703.00, 
1704.00, 
1705.00, 
1706.00, 
1707.00, 
1708.00, 
1709.00, 
1710.00, 
1711.00, 
1712.00, 
1713.00, 
1714.00, 
1715.00, 
1716.00, 
1717.00, 
1718.00, 
1719.00, 
1720.00, 
1721.00, 
1722.00, 
1723.00, 
1724.00, 
1725.00, 
1726.00, 
1727.00, 
1728.00, 
1729.00, 
1730.00, 
1731.00, 
1732.00, 
1733.00, 
1734.00, 
1735.00, 
1736.00, 
1737.00, 
1738.00, 
1739.00, 
1740.00, 
1741.00, 
1742.00, 
1743.00, 
1744.00, 
1745.00, 
1746.00, 
1747.00, 
1748.00, 
1749.00, 
1750.00, 
1751.00, 
1752.00, 
1753.00, 
1754.00, 
1755.00, 
1756.00, 
1757.00, 
1758.00, 
1759.00, 
1760.00, 
1761.00, 
1762.00, 
1763.00, 
1764.00, 
1765.00, 
1766.00, 
1767.00, 
1768.00, 
1769.00, 
1770.00, 
1771.00, 
1772.00, 
1773.00, 
1774.00, 
1775.00, 
1776.00, 
1777.00, 
1778.00, 
1779.00, 
1780.00, 
1781.00, 
1782.00, 
1783.00, 
1784.00, 
1785.00, 
1786.00, 
1787.00, 
1788.00, 
1789.00, 
1790.00, 
1791.00, 
1792.00, 
1793.00, 
1794.00, 
1795.00, 
1796.00, 
1797.00, 
1798.00, 
1799.00, 
1800.00, 
1801.00, 
1802.00, 
1803.00, 
1804.00, 
1805.00, 
1806.00, 
1807.00, 
1808.00, 
1809.00, 
1810.00, 
1811.00, 
1812.00, 
1813.00, 
1814.00, 
1815.00, 
1816.00, 
1817.00, 
1818.00, 
1819.00, 
1820.00, 
1821.00, 
1822.00, 
1823.00, 
1824.00, 
1825.00, 
1826.00, 
1827.00, 
1828.00, 
1829.00, 
1830.00, 
1831.00, 
1832.00, 
1833.00, 
1834.00, 
1835.00, 
1836.00, 
1837.00, 
1838.00, 
1839.00, 
1840.00, 
1841.00, 
1842.00, 
1843.00, 
1844.00, 
1845.00, 
1846.00, 
1847.00, 
1848.00, 
1849.00, 
1850.00, 
1851.00, 
1852.00, 
1853.00, 
1854.00, 
1855.00, 
1856.00, 
1857.00, 
1858.00, 
1859.00, 
1860.00, 
1861.00, 
1862.00, 
1863.00, 
1864.00, 
1865.00, 
1866.00, 
1867.00, 
1868.00, 
1869.00, 
1870.00, 
1871.00, 
1872.00, 
1873.00, 
1874.00, 
1875.00, 
1876.00, 
1877.00, 
1878.00, 
1879.00, 
1880.00, 
1881.00, 
1882.00, 
1883.00, 
1884.00, 
1885.00, 
1886.00, 
1887.00, 
1888.00, 
1889.00, 
1890.00, 
1891.00, 
1892.00, 
1893.00, 
1894.00, 
1895.00, 
1896.00, 
1897.00, 
1898.00, 
1899.00, 
1900.00, 
1901.00, 
1902.00, 
1903.00, 
1904.00, 
1905.00, 
1906.00, 
1907.00, 
1908.00, 
1909.00, 
1910.00, 
1911.00, 
1912.00, 
1913.00, 
1914.00, 
1915.00, 
1916.00, 
1917.00, 
1918.00, 
1919.00, 
1920.00, 
1921.00, 
1922.00, 
1923.00, 
1924.00, 
1925.00, 
1926.00, 
1927.00, 
1928.00, 
1929.00, 
1930.00, 
1931.00, 
1932.00, 
1933.00, 
1934.00, 
1935.00, 
1936.00, 
1937.00, 
1938.00, 
1939.00, 
1940.00, 
1941.00, 
1942.00, 
1943.00, 
1944.00, 
1945.00, 
1946.00, 
1947.00, 
1948.00, 
1949.00, 
1950.00, 
1951.00, 
1952.00, 
1953.00, 
1954.00, 
1955.00, 
1956.00, 
1957.00, 
1958.00, 
1959.00, 
1960.00, 
1961.00, 
1962.00, 
1963.00, 
1964.00, 
1965.00, 
1966.00, 
1967.00, 
1968.00, 
1969.00, 
1970.00, 
1971.00, 
1972.00, 
1973.00, 
1974.00, 
1975.00, 
1976.00, 
1977.00, 
1978.00, 
1979.00, 
1980.00, 
1981.00, 
1982.00, 
1983.00, 
1984.00, 
1985.00, 
1986.00, 
1987.00, 
1988.00, 
1989.00, 
1990.00, 
1991.00, 
1992.00, 
1993.00, 
1994.00, 
1995.00, 
1996.00, 
1997.00, 
1998.00, 
1999.00, 
2000.00, 
2001.00, 
2002.00, 
2003.00, 
2004.00, 
2005.00, 
2006.00, 
2007.00, 
2008.00, 
2009.00, 
2010.00, 
2011.00, 
2012.00, 
2013.00, 
2014.00, 
2015.00, 
2016.00, 
2017.00, 
2018.00, 
2019.00, 
2020.00, 
2021.00, 
2022.00, 
2023.00, 
2024.00, 
2025.00, 
2026.00, 
2027.00, 
2028.00, 
2029.00, 
2030.00, 
2031.00, 
2032.00, 
2033.00, 
2034.00, 
2035.00, 
2036.00, 
2037.00, 
2038.00, 
2039.00, 
2040.00, 
2041.00, 
2042.00, 
2043.00, 
2044.00, 
2045.00, 
2046.00, 
2047.00, 
2048.00, 
2049.00, 
2050.00, 
2051.00, 
2052.00, 
2053.00, 
2054.00, 
2055.00, 
2056.00, 
2057.00, 
2058.00, 
2059.00, 
2060.00, 
2061.00, 
2062.00, 
2063.00, 
2064.00, 
2065.00, 
2066.00, 
2067.00, 
2068.00, 
2069.00, 
2070.00, 
2071.00, 
2072.00, 
2073.00, 
2074.00, 
2075.00, 
2076.00, 
2077.00, 
2078.00, 
2079.00, 
2080.00, 
2081.00, 
2082.00, 
2083.00, 
2084.00, 
2085.00, 
2086.00, 
2087.00, 
2088.00, 
2089.00, 
2090.00, 
2091.00, 
2092.00, 
2093.00, 
2094.00, 
2095.00, 
2096.00, 
2097.00, 
2098.00, 
2099.00, 
2100.00, 
2101.00, 
2102.00, 
2103.00, 
2104.00, 
2105.00, 
2106.00, 
2107.00, 
2108.00, 
2109.00, 
2110.00, 
2111.00, 
2112.00, 
2113.00, 
2114.00, 
2115.00, 
2116.00, 
2117.00, 
2118.00, 
2119.00, 
2120.00, 
2121.00, 
2122.00, 
2123.00, 
2124.00, 
2125.00, 
2126.00, 
2127.00, 
2128.00, 
2129.00, 
2130.00, 
2131.00, 
2132.00, 
2133.00, 
2134.00, 
2135.00, 
2136.00, 
2137.00, 
2138.00, 
2139.00, 
2140.00, 
2141.00, 
2142.00, 
2143.00, 
2144.00, 
2145.00, 
2146.00, 
2147.00, 
2148.00, 
2149.00, 
2150.00, 
2151.00, 
2152.00, 
2153.00, 
2154.00, 
2155.00, 
2156.00, 
2157.00, 
2158.00, 
2159.00, 
2160.00, 
2161.00, 
2162.00, 
2163.00, 
2164.00, 
2165.00, 
2166.00, 
2167.00, 
2168.00, 
2169.00, 
2170.00, 
2171.00, 
2172.00, 
2173.00, 
2174.00, 
2175.00, 
2176.00, 
2177.00, 
2178.00, 
2179.00, 
2180.00, 
2181.00, 
2182.00, 
2183.00, 
2184.00, 
2185.00, 
2186.00, 
2187.00, 
2188.00, 
2189.00, 
2190.00, 
2191.00, 
2192.00, 
2193.00, 
2194.00, 
2195.00, 
2196.00, 
2197.00, 
2198.00, 
2199.00, 
2200.00, 
2201.00, 
2202.00, 
2203.00, 
2204.00, 
2205.00, 
2206.00, 
2207.00, 
2208.00, 
2209.00, 
2210.00, 
2211.00, 
2212.00, 
2213.00, 
2214.00, 
2215.00, 
2216.00, 
2217.00, 
2218.00, 
2219.00, 
2220.00, 
2221.00, 
2222.00, 
2223.00, 
2224.00, 
2225.00, 
2226.00, 
2227.00, 
2228.00, 
2229.00, 
2230.00, 
2231.00, 
2232.00, 
2233.00, 
2234.00, 
2235.00, 
2236.00, 
2237.00, 
2238.00, 
2239.00, 
2240.00, 
2241.00, 
2242.00, 
2243.00, 
2244.00, 
2245.00, 
2246.00, 
2247.00, 
2248.00, 
2249.00, 
2250.00, 
2251.00, 
2252.00, 
2253.00, 
2254.00, 
2255.00, 
2256.00, 
2257.00, 
2258.00, 
2259.00, 
2260.00, 
2261.00, 
2262.00, 
2263.00, 
2264.00, 
2265.00, 
2266.00, 
2267.00, 
2268.00, 
2269.00, 
2270.00, 
2271.00, 
2272.00, 
2273.00, 
2274.00, 
2275.00, 
2276.00, 
2277.00, 
2278.00, 
2279.00, 
2280.00, 
2281.00, 
2282.00, 
2283.00, 
2284.00, 
2285.00, 
2286.00, 
2287.00, 
2288.00, 
2289.00, 
2290.00, 
2291.00, 
2292.00, 
2293.00, 
2294.00, 
2295.00, 
2296.00, 
2297.00, 
2298.00, 
2299.00, 
2300.00, 
2301.00, 
2302.00, 
2303.00, 
2304.00, 
2305.00, 
2306.00, 
2307.00, 
2308.00, 
2309.00, 
2310.00, 
2311.00, 
2312.00, 
2313.00, 
2314.00, 
2315.00, 
2316.00, 
2317.00, 
2318.00, 
2319.00, 
2320.00, 
2321.00, 
2322.00, 
2323.00, 
2324.00, 
2325.00, 
2326.00, 
2327.00, 
2328.00, 
2329.00, 
2330.00, 
2331.00, 
2332.00, 
2333.00, 
2334.00, 
2335.00, 
2336.00, 
2337.00, 
2338.00, 
2339.00, 
2340.00, 
2341.00, 
2342.00, 
2343.00, 
2344.00, 
2345.00, 
2346.00, 
2347.00, 
2348.00, 
2349.00, 
2350.00, 
2351.00, 
2352.00, 
2353.00, 
2354.00, 
2355.00, 
2356.00, 
2357.00, 
2358.00, 
2359.00, 
2360.00, 
2361.00, 
2362.00, 
2363.00, 
2364.00, 
2365.00, 
2366.00, 
2367.00, 
2368.00, 
2369.00, 
2370.00, 
2371.00, 
2372.00, 
2373.00, 
2374.00, 
2375.00, 
2376.00, 
2377.00, 
2378.00, 
2379.00, 
2380.00, 
2381.00, 
2382.00, 
2383.00, 
2384.00, 
2385.00, 
2386.00, 
2387.00, 
2388.00, 
2389.00, 
2390.00, 
2391.00, 
2392.00, 
2393.00, 
2394.00, 
2395.00, 
2396.00, 
2397.00, 
2398.00, 
2399.00, 
2400.00, 
2401.00, 
2402.00, 
2403.00, 
2404.00, 
2405.00, 
2406.00, 
2407.00, 
2408.00, 
2409.00, 
2410.00, 
2411.00, 
2412.00, 
2413.00, 
2414.00, 
2415.00, 
2416.00, 
2417.00, 
2418.00, 
2419.00, 
2420.00, 
2421.00, 
2422.00, 
2423.00, 
2424.00, 
2425.00, 
2426.00, 
2427.00, 
2428.00, 
2429.00, 
2430.00, 
2431.00, 
2432.00, 
2433.00, 
2434.00, 
2435.00, 
2436.00, 
2437.00, 
2438.00, 
2439.00, 
2440.00, 
2441.00, 
2442.00, 
2443.00, 
2444.00, 
2445.00, 
2446.00, 
2447.00, 
2448.00, 
2449.00, 
2450.00, 
2451.00, 
2452.00, 
2453.00, 
2454.00, 
2455.00, 
2456.00, 
2457.00, 
2458.00, 
2459.00, 
2460.00, 
2461.00, 
2462.00, 
2463.00, 
2464.00, 
2465.00, 
2466.00, 
2467.00, 
2468.00, 
2469.00, 
2470.00, 
2471.00, 
2472.00, 
2473.00, 
2474.00, 
2475.00, 
2476.00, 
2477.00, 
2478.00, 
2479.00, 
2480.00, 
2481.00, 
2482.00, 
2483.00, 
2484.00, 
2485.00, 
2486.00, 
2487.00, 
2488.00, 
2489.00, 
2490.00, 
2491.00, 
2492.00, 
2493.00, 
2494.00, 
2495.00, 
2496.00, 
2497.00, 
2498.00, 
2499.00, 
2500.00, 
2501.00, 
2502.00, 
2503.00, 
2504.00, 
2505.00, 
2506.00, 
2507.00, 
2508.00, 
2509.00, 
2510.00, 
2511.00, 
2512.00, 
2513.00, 
2514.00, 
2515.00, 
2516.00, 
2517.00, 
2518.00, 
2519.00, 
2520.00, 
2521.00, 
2522.00, 
2523.00, 
2524.00, 
2525.00, 
2526.00, 
2527.00, 
2528.00, 
2529.00, 
2530.00, 
2531.00, 
2532.00, 
2533.00, 
2534.00, 
2535.00, 
2536.00, 
2537.00, 
2538.00, 
2539.00, 
2540.00, 
2541.00, 
2542.00, 
2543.00, 
2544.00, 
2545.00, 
2546.00, 
2547.00, 
2548.00, 
2549.00, 
2550.00, 
2551.00, 
2552.00, 
2553.00, 
2554.00, 
2555.00, 
2556.00, 
2557.00, 
2558.00, 
2559.00, 
2560.00, 
2561.00, 
2562.00, 
2563.00, 
2564.00, 
2565.00, 
2566.00, 
2567.00, 
2568.00, 
2569.00, 
2570.00, 
2571.00, 
2572.00, 
2573.00, 
2574.00, 
2575.00, 
2576.00, 
2577.00, 
2578.00, 
2579.00, 
2580.00, 
2581.00, 
2582.00, 
2583.00, 
2584.00, 
2585.00, 
2586.00, 
2587.00, 
2588.00, 
2589.00, 
2590.00, 
2591.00, 
2592.00, 
2593.00, 
2594.00, 
2595.00, 
2596.00, 
2597.00, 
2598.00, 
2599.00, 
2600.00, 
