"2cP5 - RawData"
"Wavelength nm.","T%"
200.00,0.000
201.00,0.002
202.00,0.002
203.00,0.001
204.00,0.003
205.00,-0.001
206.00,0.001
207.00,0.003
208.00,0.004
209.00,0.003
210.00,0.003
211.00,0.003
212.00,0.001
213.00,0.000
214.00,0.000
215.00,0.001
216.00,0.001
217.00,0.002
218.00,0.002
219.00,0.001
220.00,-0.000
221.00,0.002
222.00,0.000
223.00,-0.002
224.00,-0.001
225.00,0.000
226.00,-0.001
227.00,-0.002
228.00,-0.002
229.00,0.001
230.00,0.000
231.00,0.001
232.00,0.001
233.00,-0.000
234.00,-0.001
235.00,0.001
236.00,0.001
237.00,0.000
238.00,0.001
239.00,0.001
240.00,0.002
241.00,0.001
242.00,-0.000
243.00,0.000
244.00,0.001
245.00,0.002
246.00,-0.000
247.00,0.000
248.00,0.001
249.00,0.001
250.00,-0.000
251.00,-0.000
252.00,0.001
253.00,-0.001
254.00,0.001
255.00,0.001
256.00,0.001
257.00,0.000
258.00,0.001
259.00,-0.001
260.00,0.001
261.00,0.001
262.00,0.001
263.00,-0.002
264.00,-0.001
265.00,-0.001
266.00,0.001
267.00,-0.000
268.00,0.000
269.00,0.001
270.00,0.000
271.00,-0.000
272.00,-0.001
273.00,-0.001
274.00,-0.000
275.00,0.001
276.00,-0.000
277.00,-0.000
278.00,0.002
279.00,0.001
280.00,0.002
281.00,-0.001
282.00,0.002
283.00,-0.001
284.00,0.000
285.00,-0.001
286.00,0.001
287.00,-0.000
288.00,-0.000
289.00,-0.001
290.00,0.001
291.00,0.001
292.00,-0.000
293.00,0.001
294.00,0.000
295.00,0.002
296.00,-0.001
297.00,0.000
298.00,0.000
299.00,0.001
300.00,0.002
301.00,0.003
302.00,0.005
303.00,0.007
304.00,0.011
305.00,0.016
306.00,0.026
307.00,0.039
308.00,0.059
309.00,0.097
310.00,0.136
311.00,0.180
312.00,0.245
313.00,0.325
314.00,0.427
315.00,0.558
316.00,0.723
317.00,0.892
318.00,1.124
319.00,1.387
320.00,1.685
321.00,2.022
322.00,2.377
323.00,2.814
324.00,3.229
325.00,3.710
326.00,4.185
327.00,4.723
328.00,5.272
329.00,5.825
330.00,6.429
331.00,7.012
332.00,7.618
333.00,8.254
334.00,8.873
335.00,9.506
336.00,10.125
337.00,10.767
338.00,11.396
339.00,11.940
340.00,12.522
341.00,13.103
342.00,13.634
343.00,14.095
344.00,14.620
345.00,15.118
346.00,15.578
347.00,15.954
348.00,16.338
349.00,16.735
350.00,17.088
351.00,17.440
352.00,17.697
353.00,17.971
354.00,18.255
355.00,18.473
356.00,18.755
357.00,18.965
358.00,19.154
359.00,19.397
360.00,19.588
361.00,19.726
362.00,19.869
363.00,19.984
364.00,20.101
365.00,20.132
366.00,20.291
367.00,20.369
368.00,20.367
369.00,20.443
370.00,20.503
371.00,20.574
372.00,20.548
373.00,20.533
374.00,20.526
375.00,20.560
376.00,20.534
377.00,20.412
378.00,20.409
379.00,20.297
380.00,20.341
381.00,20.315
382.00,20.309
383.00,20.318
384.00,20.350
385.00,20.380
386.00,20.369
387.00,20.422
388.00,20.469
389.00,20.470
390.00,20.493
391.00,20.542
392.00,20.500
393.00,20.553
394.00,20.533
395.00,20.581
396.00,20.590
397.00,20.587
398.00,20.606
399.00,20.610
400.00,20.575
401.00,20.590
402.00,20.601
403.00,20.566
404.00,20.566
405.00,20.574
406.00,20.597
407.00,20.550
408.00,20.558
409.00,20.492
410.00,20.462
411.00,20.483
412.00,20.469
413.00,20.466
414.00,20.443
415.00,20.478
416.00,20.505
417.00,20.509
418.00,20.519
419.00,20.604
420.00,20.676
421.00,20.690
422.00,20.685
423.00,20.753
424.00,20.778
425.00,20.833
426.00,20.846
427.00,20.890
428.00,20.939
429.00,20.990
430.00,21.095
431.00,21.170
432.00,21.145
433.00,21.214
434.00,21.259
435.00,21.368
436.00,21.389
437.00,21.449
438.00,21.535
439.00,21.599
440.00,21.704
441.00,21.773
442.00,21.874
443.00,21.956
444.00,22.038
445.00,22.144
446.00,22.238
447.00,22.359
448.00,22.450
449.00,22.538
450.00,22.633
451.00,22.717
452.00,22.823
453.00,22.989
454.00,23.047
455.00,23.171
456.00,23.297
457.00,23.423
458.00,23.524
459.00,23.644
460.00,23.811
461.00,23.931
462.00,24.038
463.00,24.199
464.00,24.321
465.00,24.434
466.00,24.571
467.00,24.714
468.00,24.814
469.00,24.921
470.00,25.027
471.00,25.140
472.00,25.279
473.00,25.337
474.00,25.496
475.00,25.618
476.00,25.729
477.00,25.864
478.00,25.981
479.00,26.157
480.00,26.282
481.00,26.413
482.00,26.591
483.00,26.745
484.00,26.899
485.00,27.022
486.00,27.213
487.00,27.341
488.00,27.510
489.00,27.671
490.00,27.820
491.00,27.962
492.00,28.192
493.00,28.321
494.00,28.310
495.00,28.395
496.00,28.616
497.00,28.759
498.00,28.886
499.00,29.021
500.00,29.184
501.00,29.295
502.00,29.424
503.00,29.569
504.00,29.607
505.00,29.793
506.00,29.918
507.00,30.005
508.00,30.020
509.00,30.263
510.00,30.405
511.00,30.485
512.00,30.703
513.00,30.859
514.00,30.943
515.00,31.094
516.00,31.203
517.00,31.259
518.00,31.358
519.00,31.480
520.00,31.573
521.00,31.648
522.00,31.731
523.00,31.790
524.00,31.883
525.00,32.017
526.00,32.089
527.00,32.181
528.00,32.242
529.00,32.453
530.00,32.576
531.00,32.671
532.00,32.799
533.00,32.871
534.00,32.967
535.00,33.048
536.00,33.149
537.00,33.234
538.00,33.289
539.00,33.368
540.00,33.401
541.00,33.490
542.00,33.571
543.00,33.575
544.00,33.671
545.00,33.777
546.00,33.789
547.00,33.965
548.00,34.009
549.00,34.076
550.00,34.186
551.00,34.159
552.00,34.253
553.00,34.374
554.00,34.423
555.00,34.474
556.00,34.552
557.00,34.612
558.00,34.690
559.00,34.768
560.00,34.855
561.00,34.923
562.00,34.968
563.00,35.137
564.00,35.039
565.00,35.061
566.00,35.095
567.00,35.116
568.00,35.177
569.00,35.245
570.00,35.305
571.00,35.387
572.00,35.357
573.00,35.349
574.00,35.463
575.00,35.437
576.00,35.445
577.00,35.488
578.00,35.609
579.00,35.663
580.00,35.693
581.00,35.867
582.00,35.932
583.00,35.920
584.00,36.034
585.00,36.100
586.00,36.132
587.00,36.184
588.00,36.198
589.00,36.172
590.00,36.316
591.00,36.347
592.00,36.174
593.00,36.290
594.00,36.502
595.00,36.579
596.00,36.603
597.00,36.616
598.00,36.734
599.00,36.695
600.00,36.737
601.00,36.861
602.00,36.859
603.00,36.858
604.00,36.937
605.00,37.011
606.00,36.980
607.00,36.960
608.00,37.088
609.00,37.282
610.00,37.130
611.00,37.215
612.00,37.291
613.00,37.365
614.00,37.425
615.00,37.443
616.00,37.563
617.00,37.608
618.00,37.580
619.00,37.689
620.00,37.687
621.00,37.745
622.00,37.776
623.00,37.886
624.00,37.973
625.00,38.021
626.00,38.096
627.00,38.169
628.00,38.171
629.00,38.212
630.00,38.263
631.00,38.375
632.00,38.432
633.00,38.530
634.00,38.676
635.00,38.709
636.00,38.828
637.00,38.849
638.00,38.883
639.00,38.941
640.00,39.025
641.00,39.043
642.00,39.196
643.00,39.231
644.00,39.332
645.00,39.431
646.00,39.541
647.00,39.600
648.00,39.743
649.00,39.742
650.00,39.781
651.00,39.928
652.00,39.996
653.00,39.997
654.00,40.065
655.00,40.271
656.00,40.577
657.00,40.455
658.00,40.637
659.00,40.696
660.00,40.640
661.00,40.741
662.00,40.849
663.00,40.956
664.00,41.249
665.00,41.331
666.00,41.271
667.00,41.323
668.00,41.382
669.00,41.607
670.00,41.823
671.00,41.741
672.00,41.978
673.00,42.004
674.00,42.055
675.00,42.211
676.00,42.273
677.00,42.540
678.00,42.361
679.00,42.310
680.00,42.507
681.00,43.000
682.00,42.961
683.00,42.807
684.00,42.968
685.00,43.213
686.00,43.108
687.00,43.266
688.00,43.332
689.00,43.412
690.00,43.693
691.00,43.952
692.00,43.778
693.00,43.728
694.00,43.881
695.00,44.056
696.00,44.221
697.00,44.279
698.00,44.388
699.00,44.616
700.00,44.666
701.00,44.606
702.00,44.733
703.00,44.959
704.00,44.948
705.00,45.033
706.00,45.082
707.00,45.223
708.00,45.138
709.00,45.460
710.00,45.825
711.00,45.467
712.00,45.456
713.00,45.692
714.00,45.801
715.00,45.796
716.00,45.800
717.00,45.929
718.00,46.064
719.00,46.132
720.00,46.251
721.00,50.653
722.00,50.666
723.00,50.789
724.00,50.673
725.00,50.813
726.00,50.729
727.00,50.787
728.00,50.875
729.00,50.834
730.00,50.993
731.00,50.876
732.00,51.006
733.00,51.062
734.00,51.152
735.00,51.147
736.00,51.148
737.00,51.211
738.00,51.302
739.00,51.244
740.00,51.312
741.00,51.419
742.00,51.333
743.00,51.493
744.00,51.390
745.00,51.496
746.00,51.478
747.00,51.488
748.00,51.489
749.00,51.428
750.00,51.512
751.00,51.554
752.00,51.543
753.00,51.543
754.00,51.555
755.00,51.593
756.00,51.632
757.00,51.581
758.00,51.715
759.00,51.652
760.00,51.749
761.00,51.669
762.00,51.722
763.00,51.784
764.00,51.730
765.00,51.761
766.00,51.805
767.00,51.840
768.00,51.871
769.00,51.907
770.00,51.888
771.00,51.915
772.00,51.932
773.00,51.945
774.00,51.962
775.00,52.002
776.00,51.964
777.00,51.964
778.00,52.019
779.00,52.030
780.00,51.990
781.00,52.005
782.00,51.976
783.00,52.013
784.00,52.029
785.00,51.995
786.00,52.053
787.00,52.015
788.00,52.053
789.00,52.028
790.00,52.012
791.00,52.141
792.00,52.008
793.00,52.008
794.00,51.972
795.00,52.036
796.00,52.039
797.00,51.911
798.00,52.014
799.00,51.883
800.00,51.962
801.00,51.983
802.00,51.964
803.00,51.867
804.00,51.965
805.00,51.925
806.00,51.899
807.00,51.902
808.00,51.864
809.00,51.946
810.00,51.783
811.00,51.891
812.00,51.846
813.00,51.865
814.00,51.821
815.00,51.849
816.00,51.896
817.00,51.756
818.00,51.790
819.00,51.737
820.00,51.777
821.00,51.794
822.00,51.769
823.00,51.759
824.00,51.739
825.00,51.699
826.00,51.729
827.00,51.793
828.00,51.731
829.00,51.709
830.00,51.751
831.00,53.883
832.00,53.873
833.00,53.825
834.00,53.852
835.00,53.814
836.00,53.818
837.00,53.771
838.00,53.757
839.00,53.720
840.00,53.685
841.00,53.732
842.00,53.678
843.00,53.685
844.00,53.673
845.00,53.652
846.00,53.672
847.00,53.633
848.00,53.583
849.00,53.546
850.00,53.548
851.00,53.476
852.00,53.479
853.00,53.454
854.00,53.453
855.00,53.367
856.00,53.404
857.00,53.359
858.00,53.350
859.00,53.290
860.00,53.326
861.00,53.337
862.00,53.239
863.00,53.269
864.00,53.217
865.00,53.276
866.00,52.989
867.00,53.238
868.00,53.202
869.00,53.159
870.00,53.203
871.00,53.174
872.00,53.172
873.00,53.167
874.00,53.123
875.00,53.117
876.00,53.119
877.00,53.120
878.00,53.105
879.00,53.086
880.00,53.056
881.00,53.041
882.00,53.078
883.00,53.017
884.00,52.993
885.00,52.986
886.00,52.979
887.00,52.902
888.00,52.967
889.00,52.915
890.00,52.926
891.00,52.885
892.00,52.852
893.00,52.815
894.00,52.825
895.00,52.791
896.00,52.773
897.00,52.778
898.00,52.724
899.00,52.750
900.00,52.738
901.00,52.723
902.00,52.736
903.00,52.695
904.00,52.693
905.00,52.666
906.00,52.645
907.00,52.629
908.00,52.600
909.00,52.582
910.00,52.562
911.00,52.536
912.00,52.562
913.00,52.525
914.00,52.495
915.00,52.477
916.00,52.444
917.00,52.421
918.00,52.438
919.00,52.394
920.00,52.340
921.00,52.353
922.00,52.381
923.00,52.322
924.00,52.277
925.00,52.300
926.00,52.285
927.00,52.243
928.00,52.347
929.00,52.244
930.00,52.193
931.00,52.175
932.00,52.152
933.00,52.152
934.00,52.125
935.00,52.106
936.00,52.069
937.00,52.082
938.00,52.045
939.00,52.048
940.00,52.025
941.00,52.022
942.00,51.983
943.00,52.007
944.00,51.952
945.00,51.965
946.00,51.944
947.00,51.900
948.00,51.879
949.00,51.862
950.00,51.836
951.00,51.829
952.00,51.817
953.00,51.769
954.00,51.762
955.00,51.711
956.00,51.710
957.00,51.656
958.00,51.657
959.00,51.620
960.00,51.613
961.00,51.602
962.00,51.611
963.00,51.561
964.00,51.552
965.00,51.562
966.00,51.545
967.00,51.537
968.00,51.508
969.00,51.523
970.00,51.515
971.00,51.529
972.00,51.492
973.00,51.533
974.00,51.567
975.00,51.486
976.00,51.526
977.00,51.496
978.00,51.536
979.00,51.496
980.00,51.505
981.00,51.529
982.00,51.478
983.00,51.504
984.00,51.488
985.00,51.507
986.00,51.470
987.00,51.471
988.00,51.429
989.00,51.451
990.00,51.438
991.00,51.409
992.00,51.445
993.00,51.410
994.00,51.386
995.00,51.395
996.00,51.389
997.00,51.371
998.00,51.347
999.00,51.366
1000.00,51.320
1001.00,51.319
1002.00,51.283
1003.00,51.273
1004.00,51.311
1005.00,51.231
1006.00,51.267
1007.00,51.238
1008.00,51.221
1009.00,51.209
1010.00,51.187
1011.00,51.196
1012.00,51.154
1013.00,51.156
1014.00,51.125
1015.00,51.128
1016.00,51.081
1017.00,51.084
1018.00,51.076
1019.00,51.026
1020.00,51.035
1021.00,51.021
1022.00,51.015
1023.00,50.984
1024.00,50.973
1025.00,50.970
1026.00,50.960
1027.00,50.923
1028.00,50.919
1029.00,50.914
1030.00,50.871
1031.00,50.884
1032.00,50.857
1033.00,50.842
1034.00,50.816
1035.00,50.790
1036.00,50.761
1037.00,50.746
1038.00,50.719
1039.00,50.703
1040.00,50.708
1041.00,50.669
1042.00,50.668
1043.00,50.639
1044.00,50.661
1045.00,50.654
1046.00,50.620
1047.00,50.648
1048.00,50.655
1049.00,50.654
1050.00,50.659
1051.00,50.701
1052.00,50.697
1053.00,50.714
1054.00,50.720
1055.00,50.726
1056.00,50.748
1057.00,50.733
1058.00,50.727
1059.00,50.733
1060.00,50.749
1061.00,50.747
1062.00,50.717
1063.00,50.711
1064.00,50.706
1065.00,50.684
1066.00,50.676
1067.00,50.658
1068.00,50.670
1069.00,50.643
1070.00,50.636
1071.00,50.618
1072.00,50.637
1073.00,50.617
1074.00,50.608
1075.00,50.596
1076.00,50.588
1077.00,50.583
1078.00,50.561
1079.00,50.553
1080.00,50.568
1081.00,50.560
1082.00,50.521
1083.00,50.535
1084.00,50.525
1085.00,50.512
1086.00,50.503
1087.00,50.506
1088.00,50.477
1089.00,50.473
1090.00,50.460
1091.00,50.457
1092.00,50.445
1093.00,50.419
1094.00,50.425
1095.00,50.410
1096.00,50.392
1097.00,50.434
1098.00,50.394
1099.00,50.384
1100.00,50.377
1101.00,50.356
1102.00,50.361
1103.00,50.364
1104.00,50.336
1105.00,50.326
1106.00,50.311
1107.00,50.305
1108.00,50.312
1109.00,50.289
1110.00,50.277
1111.00,50.271
1112.00,50.243
1113.00,50.245
1114.00,50.245
1115.00,50.244
1116.00,50.249
1117.00,50.239
1118.00,50.219
1119.00,50.227
1120.00,50.208
1121.00,50.193
1122.00,50.182
1123.00,50.164
1124.00,50.153
1125.00,50.130
1126.00,50.131
1127.00,50.156
1128.00,50.133
1129.00,50.120
1130.00,50.115
1131.00,50.105
1132.00,50.094
1133.00,50.084
1134.00,50.092
1135.00,50.071
1136.00,50.084
1137.00,50.068
1138.00,50.070
1139.00,50.069
1140.00,50.050
1141.00,50.067
1142.00,50.051
1143.00,50.058
1144.00,50.038
1145.00,50.025
1146.00,50.037
1147.00,50.032
1148.00,50.020
1149.00,50.031
1150.00,50.031
1151.00,50.008
1152.00,50.017
1153.00,50.015
1154.00,50.012
1155.00,50.024
1156.00,49.998
1157.00,49.990
1158.00,49.983
1159.00,49.970
1160.00,49.980
1161.00,49.990
1162.00,49.975
1163.00,49.986
1164.00,49.999
1165.00,49.990
1166.00,49.994
1167.00,49.961
1168.00,49.985
1169.00,49.986
1170.00,49.971
1171.00,49.952
1172.00,49.959
1173.00,49.952
1174.00,49.962
1175.00,49.960
1176.00,49.954
1177.00,49.946
1178.00,49.933
1179.00,49.953
1180.00,49.947
1181.00,49.950
1182.00,49.949
1183.00,49.947
1184.00,49.932
1185.00,49.946
1186.00,49.935
1187.00,49.924
1188.00,49.929
1189.00,49.916
1190.00,49.919
1191.00,49.915
1192.00,49.928
1193.00,49.934
1194.00,49.933
1195.00,49.893
1196.00,49.930
1197.00,49.920
1198.00,49.905
1199.00,49.890
1200.00,49.894
1201.00,49.902
1202.00,49.903
1203.00,49.901
1204.00,49.894
1205.00,49.900
1206.00,49.886
1207.00,49.911
1208.00,49.894
1209.00,49.902
1210.00,49.895
1211.00,49.887
1212.00,49.920
1213.00,49.893
1214.00,49.896
1215.00,49.889
1216.00,49.895
1217.00,49.892
1218.00,49.883
1219.00,49.895
1220.00,49.871
1221.00,49.879
1222.00,49.869
1223.00,49.901
1224.00,49.898
1225.00,49.870
1226.00,49.891
1227.00,49.894
1228.00,49.902
1229.00,49.914
1230.00,49.938
1231.00,49.924
1232.00,49.931
1233.00,49.931
1234.00,49.930
1235.00,49.936
1236.00,49.929
1237.00,49.937
1238.00,49.924
1239.00,49.924
1240.00,49.925
1241.00,49.926
1242.00,49.931
1243.00,49.945
1244.00,49.915
1245.00,49.943
1246.00,49.952
1247.00,49.936
1248.00,49.944
1249.00,49.955
1250.00,49.944
1251.00,49.944
1252.00,49.952
1253.00,49.945
1254.00,49.973
1255.00,49.960
1256.00,49.941
1257.00,49.944
1258.00,49.970
1259.00,49.976
1260.00,49.990
1261.00,49.980
1262.00,49.973
1263.00,49.996
1264.00,49.980
1265.00,49.972
1266.00,49.973
1267.00,49.989
1268.00,50.001
1269.00,49.992
1270.00,50.009
1271.00,50.007
1272.00,50.016
1273.00,50.029
1274.00,50.018
1275.00,50.024
1276.00,50.030
1277.00,50.020
1278.00,50.039
1279.00,50.042
1280.00,50.031
1281.00,50.053
1282.00,50.063
1283.00,50.036
1284.00,50.061
1285.00,50.056
1286.00,50.063
1287.00,50.052
1288.00,50.049
1289.00,50.057
1290.00,50.076
1291.00,50.049
1292.00,50.038
1293.00,50.050
1294.00,50.088
1295.00,50.095
1296.00,50.088
1297.00,50.103
1298.00,50.119
1299.00,50.101
1300.00,50.117
1301.00,50.110
1302.00,50.124
1303.00,50.159
1304.00,50.146
1305.00,50.143
1306.00,50.152
1307.00,50.157
1308.00,50.154
1309.00,50.154
1310.00,50.155
1311.00,50.166
1312.00,50.187
1313.00,50.188
1314.00,50.218
1315.00,50.230
1316.00,50.223
1317.00,50.250
1318.00,50.225
1319.00,50.231
1320.00,50.239
1321.00,50.371
1322.00,50.390
1323.00,50.365
1324.00,50.349
1325.00,50.352
1326.00,50.380
1327.00,50.373
1328.00,50.370
1329.00,50.359
1330.00,50.361
1331.00,50.377
1332.00,50.362
1333.00,50.373
1334.00,50.402
1335.00,50.419
1336.00,50.439
1337.00,50.471
1338.00,50.510
1339.00,50.570
1340.00,50.603
1341.00,50.670
1342.00,50.738
1343.00,50.786
1344.00,50.847
1345.00,50.897
1346.00,50.947
1347.00,50.960
1348.00,50.972
1349.00,51.024
1350.00,51.012
1351.00,51.053
1352.00,50.993
1353.00,51.234
1354.00,51.077
1355.00,50.997
1356.00,51.093
1357.00,51.072
1358.00,51.108
1359.00,51.135
1360.00,51.068
1361.00,51.023
1362.00,51.018
1363.00,51.072
1364.00,51.175
1365.00,51.116
1366.00,51.362
1367.00,51.305
1368.00,51.049
1369.00,51.066
1370.00,51.034
1371.00,50.959
1372.00,51.039
1373.00,51.054
1374.00,51.047
1375.00,51.061
1376.00,51.024
1377.00,51.019
1378.00,51.059
1379.00,51.085
1380.00,51.057
1381.00,51.116
1382.00,51.055
1383.00,51.054
1384.00,50.980
1385.00,50.938
1386.00,51.064
1387.00,51.010
1388.00,50.991
1389.00,50.915
1390.00,51.064
1391.00,51.022
1392.00,51.041
1393.00,50.985
1394.00,51.019
1395.00,51.033
1396.00,50.970
1397.00,50.982
1398.00,51.053
1399.00,51.046
1400.00,51.036
1401.00,51.007
1402.00,51.042
1403.00,51.048
1404.00,51.033
1405.00,51.079
1406.00,51.070
1407.00,51.088
1408.00,51.088
1409.00,51.041
1410.00,51.101
1411.00,51.057
1412.00,51.123
1413.00,51.107
1414.00,51.097
1415.00,51.111
1416.00,51.161
1417.00,51.199
1418.00,51.155
1419.00,51.151
1420.00,51.172
1421.00,51.205
1422.00,51.213
1423.00,51.204
1424.00,51.226
1425.00,51.231
1426.00,51.224
1427.00,51.271
1428.00,51.260
1429.00,51.279
1430.00,51.288
1431.00,51.300
1432.00,51.331
1433.00,51.335
1434.00,51.330
1435.00,51.381
1436.00,51.386
1437.00,51.370
1438.00,51.413
1439.00,51.424
1440.00,51.427
1441.00,51.437
1442.00,51.443
1443.00,51.471
1444.00,51.496
1445.00,51.510
1446.00,51.502
1447.00,51.529
1448.00,51.536
1449.00,51.573
1450.00,51.562
1451.00,51.572
1452.00,51.593
1453.00,51.596
1454.00,51.625
1455.00,51.654
1456.00,51.664
1457.00,51.682
1458.00,51.693
1459.00,51.690
1460.00,51.716
1461.00,51.718
1462.00,51.751
1463.00,51.773
1464.00,51.767
1465.00,51.790
1466.00,51.789
1467.00,51.795
1468.00,51.845
1469.00,51.841
1470.00,51.848
1471.00,51.880
1472.00,51.875
1473.00,51.901
1474.00,51.917
1475.00,51.943
1476.00,51.949
1477.00,51.935
1478.00,51.948
1479.00,51.969
1480.00,51.968
1481.00,51.972
1482.00,52.014
1483.00,52.012
1484.00,52.016
1485.00,52.033
1486.00,52.033
1487.00,52.074
1488.00,52.095
1489.00,52.066
1490.00,52.107
1491.00,52.121
1492.00,52.123
1493.00,52.128
1494.00,52.145
1495.00,52.143
1496.00,52.159
1497.00,52.163
1498.00,52.171
1499.00,52.188
1500.00,52.196
1501.00, 
1502.00, 
1503.00, 
1504.00, 
1505.00, 
1506.00, 
1507.00, 
1508.00, 
1509.00, 
1510.00, 
1511.00, 
1512.00, 
1513.00, 
1514.00, 
1515.00, 
1516.00, 
1517.00, 
1518.00, 
1519.00, 
1520.00, 
1521.00, 
1522.00, 
1523.00, 
1524.00, 
1525.00, 
1526.00, 
1527.00, 
1528.00, 
1529.00, 
1530.00, 
1531.00, 
1532.00, 
1533.00, 
1534.00, 
1535.00, 
1536.00, 
1537.00, 
1538.00, 
1539.00, 
1540.00, 
1541.00, 
1542.00, 
1543.00, 
1544.00, 
1545.00, 
1546.00, 
1547.00, 
1548.00, 
1549.00, 
1550.00, 
1551.00, 
1552.00, 
1553.00, 
1554.00, 
1555.00, 
1556.00, 
1557.00, 
1558.00, 
1559.00, 
1560.00, 
1561.00, 
1562.00, 
1563.00, 
1564.00, 
1565.00, 
1566.00, 
1567.00, 
1568.00, 
1569.00, 
1570.00, 
1571.00, 
1572.00, 
1573.00, 
1574.00, 
1575.00, 
1576.00, 
1577.00, 
1578.00, 
1579.00, 
1580.00, 
1581.00, 
1582.00, 
1583.00, 
1584.00, 
1585.00, 
1586.00, 
1587.00, 
1588.00, 
1589.00, 
1590.00, 
1591.00, 
1592.00, 
1593.00, 
1594.00, 
1595.00, 
1596.00, 
1597.00, 
1598.00, 
1599.00, 
1600.00, 
1601.00, 
1602.00, 
1603.00, 
1604.00, 
1605.00, 
1606.00, 
1607.00, 
1608.00, 
1609.00, 
1610.00, 
1611.00, 
1612.00, 
1613.00, 
1614.00, 
1615.00, 
1616.00, 
1617.00, 
1618.00, 
1619.00, 
1620.00, 
1621.00, 
1622.00, 
1623.00, 
1624.00, 
1625.00, 
1626.00, 
1627.00, 
1628.00, 
1629.00, 
1630.00, 
1631.00, 
1632.00, 
1633.00, 
1634.00, 
1635.00, 
1636.00, 
1637.00, 
1638.00, 
1639.00, 
1640.00, 
1641.00, 
1642.00, 
1643.00, 
1644.00, 
1645.00, 
1646.00, 
1647.00, 
1648.00, 
1649.00, 
1650.00, 
1651.00, 
1652.00, 
1653.00, 
1654.00, 
1655.00, 
1656.00, 
1657.00, 
1658.00, 
1659.00, 
1660.00, 
1661.00, 
1662.00, 
1663.00, 
1664.00, 
1665.00, 
1666.00, 
1667.00, 
1668.00, 
1669.00, 
1670.00, 
1671.00, 
1672.00, 
1673.00, 
1674.00, 
1675.00, 
1676.00, 
1677.00, 
1678.00, 
1679.00, 
1680.00, 
1681.00, 
1682.00, 
1683.00, 
1684.00, 
1685.00, 
1686.00, 
1687.00, 
1688.00, 
1689.00, 
1690.00, 
1691.00, 
1692.00, 
1693.00, 
1694.00, 
1695.00, 
1696.00, 
1697.00, 
1698.00, 
1699.00, 
1700.00, 
1701.00, 
1702.00, 
1703.00, 
1704.00, 
1705.00, 
1706.00, 
1707.00, 
1708.00, 
1709.00, 
1710.00, 
1711.00, 
1712.00, 
1713.00, 
1714.00, 
1715.00, 
1716.00, 
1717.00, 
1718.00, 
1719.00, 
1720.00, 
1721.00, 
1722.00, 
1723.00, 
1724.00, 
1725.00, 
1726.00, 
1727.00, 
1728.00, 
1729.00, 
1730.00, 
1731.00, 
1732.00, 
1733.00, 
1734.00, 
1735.00, 
1736.00, 
1737.00, 
1738.00, 
1739.00, 
1740.00, 
1741.00, 
1742.00, 
1743.00, 
1744.00, 
1745.00, 
1746.00, 
1747.00, 
1748.00, 
1749.00, 
1750.00, 
1751.00, 
1752.00, 
1753.00, 
1754.00, 
1755.00, 
1756.00, 
1757.00, 
1758.00, 
1759.00, 
1760.00, 
1761.00, 
1762.00, 
1763.00, 
1764.00, 
1765.00, 
1766.00, 
1767.00, 
1768.00, 
1769.00, 
1770.00, 
1771.00, 
1772.00, 
1773.00, 
1774.00, 
1775.00, 
1776.00, 
1777.00, 
1778.00, 
1779.00, 
1780.00, 
1781.00, 
1782.00, 
1783.00, 
1784.00, 
1785.00, 
1786.00, 
1787.00, 
1788.00, 
1789.00, 
1790.00, 
1791.00, 
1792.00, 
1793.00, 
1794.00, 
1795.00, 
1796.00, 
1797.00, 
1798.00, 
1799.00, 
1800.00, 
1801.00, 
1802.00, 
1803.00, 
1804.00, 
1805.00, 
1806.00, 
1807.00, 
1808.00, 
1809.00, 
1810.00, 
1811.00, 
1812.00, 
1813.00, 
1814.00, 
1815.00, 
1816.00, 
1817.00, 
1818.00, 
1819.00, 
1820.00, 
1821.00, 
1822.00, 
1823.00, 
1824.00, 
1825.00, 
1826.00, 
1827.00, 
1828.00, 
1829.00, 
1830.00, 
1831.00, 
1832.00, 
1833.00, 
1834.00, 
1835.00, 
1836.00, 
1837.00, 
1838.00, 
1839.00, 
1840.00, 
1841.00, 
1842.00, 
1843.00, 
1844.00, 
1845.00, 
1846.00, 
1847.00, 
1848.00, 
1849.00, 
1850.00, 
1851.00, 
1852.00, 
1853.00, 
1854.00, 
1855.00, 
1856.00, 
1857.00, 
1858.00, 
1859.00, 
1860.00, 
1861.00, 
1862.00, 
1863.00, 
1864.00, 
1865.00, 
1866.00, 
1867.00, 
1868.00, 
1869.00, 
1870.00, 
1871.00, 
1872.00, 
1873.00, 
1874.00, 
1875.00, 
1876.00, 
1877.00, 
1878.00, 
1879.00, 
1880.00, 
1881.00, 
1882.00, 
1883.00, 
1884.00, 
1885.00, 
1886.00, 
1887.00, 
1888.00, 
1889.00, 
1890.00, 
1891.00, 
1892.00, 
1893.00, 
1894.00, 
1895.00, 
1896.00, 
1897.00, 
1898.00, 
1899.00, 
1900.00, 
1901.00, 
1902.00, 
1903.00, 
1904.00, 
1905.00, 
1906.00, 
1907.00, 
1908.00, 
1909.00, 
1910.00, 
1911.00, 
1912.00, 
1913.00, 
1914.00, 
1915.00, 
1916.00, 
1917.00, 
1918.00, 
1919.00, 
1920.00, 
1921.00, 
1922.00, 
1923.00, 
1924.00, 
1925.00, 
1926.00, 
1927.00, 
1928.00, 
1929.00, 
1930.00, 
1931.00, 
1932.00, 
1933.00, 
1934.00, 
1935.00, 
1936.00, 
1937.00, 
1938.00, 
1939.00, 
1940.00, 
1941.00, 
1942.00, 
1943.00, 
1944.00, 
1945.00, 
1946.00, 
1947.00, 
1948.00, 
1949.00, 
1950.00, 
1951.00, 
1952.00, 
1953.00, 
1954.00, 
1955.00, 
1956.00, 
1957.00, 
1958.00, 
1959.00, 
1960.00, 
1961.00, 
1962.00, 
1963.00, 
1964.00, 
1965.00, 
1966.00, 
1967.00, 
1968.00, 
1969.00, 
1970.00, 
1971.00, 
1972.00, 
1973.00, 
1974.00, 
1975.00, 
1976.00, 
1977.00, 
1978.00, 
1979.00, 
1980.00, 
1981.00, 
1982.00, 
1983.00, 
1984.00, 
1985.00, 
1986.00, 
1987.00, 
1988.00, 
1989.00, 
1990.00, 
1991.00, 
1992.00, 
1993.00, 
1994.00, 
1995.00, 
1996.00, 
1997.00, 
1998.00, 
1999.00, 
2000.00, 
2001.00, 
2002.00, 
2003.00, 
2004.00, 
2005.00, 
2006.00, 
2007.00, 
2008.00, 
2009.00, 
2010.00, 
2011.00, 
2012.00, 
2013.00, 
2014.00, 
2015.00, 
2016.00, 
2017.00, 
2018.00, 
2019.00, 
2020.00, 
2021.00, 
2022.00, 
2023.00, 
2024.00, 
2025.00, 
2026.00, 
2027.00, 
2028.00, 
2029.00, 
2030.00, 
2031.00, 
2032.00, 
2033.00, 
2034.00, 
2035.00, 
2036.00, 
2037.00, 
2038.00, 
2039.00, 
2040.00, 
2041.00, 
2042.00, 
2043.00, 
2044.00, 
2045.00, 
2046.00, 
2047.00, 
2048.00, 
2049.00, 
2050.00, 
2051.00, 
2052.00, 
2053.00, 
2054.00, 
2055.00, 
2056.00, 
2057.00, 
2058.00, 
2059.00, 
2060.00, 
2061.00, 
2062.00, 
2063.00, 
2064.00, 
2065.00, 
2066.00, 
2067.00, 
2068.00, 
2069.00, 
2070.00, 
2071.00, 
2072.00, 
2073.00, 
2074.00, 
2075.00, 
2076.00, 
2077.00, 
2078.00, 
2079.00, 
2080.00, 
2081.00, 
2082.00, 
2083.00, 
2084.00, 
2085.00, 
2086.00, 
2087.00, 
2088.00, 
2089.00, 
2090.00, 
2091.00, 
2092.00, 
2093.00, 
2094.00, 
2095.00, 
2096.00, 
2097.00, 
2098.00, 
2099.00, 
2100.00, 
2101.00, 
2102.00, 
2103.00, 
2104.00, 
2105.00, 
2106.00, 
2107.00, 
2108.00, 
2109.00, 
2110.00, 
2111.00, 
2112.00, 
2113.00, 
2114.00, 
2115.00, 
2116.00, 
2117.00, 
2118.00, 
2119.00, 
2120.00, 
2121.00, 
2122.00, 
2123.00, 
2124.00, 
2125.00, 
2126.00, 
2127.00, 
2128.00, 
2129.00, 
2130.00, 
2131.00, 
2132.00, 
2133.00, 
2134.00, 
2135.00, 
2136.00, 
2137.00, 
2138.00, 
2139.00, 
2140.00, 
2141.00, 
2142.00, 
2143.00, 
2144.00, 
2145.00, 
2146.00, 
2147.00, 
2148.00, 
2149.00, 
2150.00, 
2151.00, 
2152.00, 
2153.00, 
2154.00, 
2155.00, 
2156.00, 
2157.00, 
2158.00, 
2159.00, 
2160.00, 
2161.00, 
2162.00, 
2163.00, 
2164.00, 
2165.00, 
2166.00, 
2167.00, 
2168.00, 
2169.00, 
2170.00, 
2171.00, 
2172.00, 
2173.00, 
2174.00, 
2175.00, 
2176.00, 
2177.00, 
2178.00, 
2179.00, 
2180.00, 
2181.00, 
2182.00, 
2183.00, 
2184.00, 
2185.00, 
2186.00, 
2187.00, 
2188.00, 
2189.00, 
2190.00, 
2191.00, 
2192.00, 
2193.00, 
2194.00, 
2195.00, 
2196.00, 
2197.00, 
2198.00, 
2199.00, 
2200.00, 
2201.00, 
2202.00, 
2203.00, 
2204.00, 
2205.00, 
2206.00, 
2207.00, 
2208.00, 
2209.00, 
2210.00, 
2211.00, 
2212.00, 
2213.00, 
2214.00, 
2215.00, 
2216.00, 
2217.00, 
2218.00, 
2219.00, 
2220.00, 
2221.00, 
2222.00, 
2223.00, 
2224.00, 
2225.00, 
2226.00, 
2227.00, 
2228.00, 
2229.00, 
2230.00, 
2231.00, 
2232.00, 
2233.00, 
2234.00, 
2235.00, 
2236.00, 
2237.00, 
2238.00, 
2239.00, 
2240.00, 
2241.00, 
2242.00, 
2243.00, 
2244.00, 
2245.00, 
2246.00, 
2247.00, 
2248.00, 
2249.00, 
2250.00, 
2251.00, 
2252.00, 
2253.00, 
2254.00, 
2255.00, 
2256.00, 
2257.00, 
2258.00, 
2259.00, 
2260.00, 
2261.00, 
2262.00, 
2263.00, 
2264.00, 
2265.00, 
2266.00, 
2267.00, 
2268.00, 
2269.00, 
2270.00, 
2271.00, 
2272.00, 
2273.00, 
2274.00, 
2275.00, 
2276.00, 
2277.00, 
2278.00, 
2279.00, 
2280.00, 
2281.00, 
2282.00, 
2283.00, 
2284.00, 
2285.00, 
2286.00, 
2287.00, 
2288.00, 
2289.00, 
2290.00, 
2291.00, 
2292.00, 
2293.00, 
2294.00, 
2295.00, 
2296.00, 
2297.00, 
2298.00, 
2299.00, 
2300.00, 
2301.00, 
2302.00, 
2303.00, 
2304.00, 
2305.00, 
2306.00, 
2307.00, 
2308.00, 
2309.00, 
2310.00, 
2311.00, 
2312.00, 
2313.00, 
2314.00, 
2315.00, 
2316.00, 
2317.00, 
2318.00, 
2319.00, 
2320.00, 
2321.00, 
2322.00, 
2323.00, 
2324.00, 
2325.00, 
2326.00, 
2327.00, 
2328.00, 
2329.00, 
2330.00, 
2331.00, 
2332.00, 
2333.00, 
2334.00, 
2335.00, 
2336.00, 
2337.00, 
2338.00, 
2339.00, 
2340.00, 
2341.00, 
2342.00, 
2343.00, 
2344.00, 
2345.00, 
2346.00, 
2347.00, 
2348.00, 
2349.00, 
2350.00, 
2351.00, 
2352.00, 
2353.00, 
2354.00, 
2355.00, 
2356.00, 
2357.00, 
2358.00, 
2359.00, 
2360.00, 
2361.00, 
2362.00, 
2363.00, 
2364.00, 
2365.00, 
2366.00, 
2367.00, 
2368.00, 
2369.00, 
2370.00, 
2371.00, 
2372.00, 
2373.00, 
2374.00, 
2375.00, 
2376.00, 
2377.00, 
2378.00, 
2379.00, 
2380.00, 
2381.00, 
2382.00, 
2383.00, 
2384.00, 
2385.00, 
2386.00, 
2387.00, 
2388.00, 
2389.00, 
2390.00, 
2391.00, 
2392.00, 
2393.00, 
2394.00, 
2395.00, 
2396.00, 
2397.00, 
2398.00, 
2399.00, 
2400.00, 
2401.00, 
2402.00, 
2403.00, 
2404.00, 
2405.00, 
2406.00, 
2407.00, 
2408.00, 
2409.00, 
2410.00, 
2411.00, 
2412.00, 
2413.00, 
2414.00, 
2415.00, 
2416.00, 
2417.00, 
2418.00, 
2419.00, 
2420.00, 
2421.00, 
2422.00, 
2423.00, 
2424.00, 
2425.00, 
2426.00, 
2427.00, 
2428.00, 
2429.00, 
2430.00, 
2431.00, 
2432.00, 
2433.00, 
2434.00, 
2435.00, 
2436.00, 
2437.00, 
2438.00, 
2439.00, 
2440.00, 
2441.00, 
2442.00, 
2443.00, 
2444.00, 
2445.00, 
2446.00, 
2447.00, 
2448.00, 
2449.00, 
2450.00, 
2451.00, 
2452.00, 
2453.00, 
2454.00, 
2455.00, 
2456.00, 
2457.00, 
2458.00, 
2459.00, 
2460.00, 
2461.00, 
2462.00, 
2463.00, 
2464.00, 
2465.00, 
2466.00, 
2467.00, 
2468.00, 
2469.00, 
2470.00, 
2471.00, 
2472.00, 
2473.00, 
2474.00, 
2475.00, 
2476.00, 
2477.00, 
2478.00, 
2479.00, 
2480.00, 
2481.00, 
2482.00, 
2483.00, 
2484.00, 
2485.00, 
2486.00, 
2487.00, 
2488.00, 
2489.00, 
2490.00, 
2491.00, 
2492.00, 
2493.00, 
2494.00, 
2495.00, 
2496.00, 
2497.00, 
2498.00, 
2499.00, 
2500.00, 
2501.00, 
2502.00, 
2503.00, 
2504.00, 
2505.00, 
2506.00, 
2507.00, 
2508.00, 
2509.00, 
2510.00, 
2511.00, 
2512.00, 
2513.00, 
2514.00, 
2515.00, 
2516.00, 
2517.00, 
2518.00, 
2519.00, 
2520.00, 
2521.00, 
2522.00, 
2523.00, 
2524.00, 
2525.00, 
2526.00, 
2527.00, 
2528.00, 
2529.00, 
2530.00, 
2531.00, 
2532.00, 
2533.00, 
2534.00, 
2535.00, 
2536.00, 
2537.00, 
2538.00, 
2539.00, 
2540.00, 
2541.00, 
2542.00, 
2543.00, 
2544.00, 
2545.00, 
2546.00, 
2547.00, 
2548.00, 
2549.00, 
2550.00, 
2551.00, 
2552.00, 
2553.00, 
2554.00, 
2555.00, 
2556.00, 
2557.00, 
2558.00, 
2559.00, 
2560.00, 
2561.00, 
2562.00, 
2563.00, 
2564.00, 
2565.00, 
2566.00, 
2567.00, 
2568.00, 
2569.00, 
2570.00, 
2571.00, 
2572.00, 
2573.00, 
2574.00, 
2575.00, 
2576.00, 
2577.00, 
2578.00, 
2579.00, 
2580.00, 
2581.00, 
2582.00, 
2583.00, 
2584.00, 
2585.00, 
2586.00, 
2587.00, 
2588.00, 
2589.00, 
2590.00, 
2591.00, 
2592.00, 
2593.00, 
2594.00, 
2595.00, 
2596.00, 
2597.00, 
2598.00, 
2599.00, 
2600.00, 
