"1bP2 - RawData"
"Wavelength nm.","T%"
200.00,0.001
201.00,-0.002
202.00,0.001
203.00,0.002
204.00,0.003
205.00,0.004
206.00,-0.002
207.00,0.006
208.00,-0.001
209.00,-0.002
210.00,0.000
211.00,0.003
212.00,0.001
213.00,0.001
214.00,0.000
215.00,-0.001
216.00,-0.001
217.00,0.001
218.00,-0.000
219.00,0.002
220.00,-0.002
221.00,0.002
222.00,0.002
223.00,-0.001
224.00,0.002
225.00,-0.001
226.00,0.001
227.00,0.001
228.00,0.002
229.00,-0.000
230.00,-0.000
231.00,0.000
232.00,0.001
233.00,-0.000
234.00,0.001
235.00,-0.001
236.00,-0.001
237.00,0.001
238.00,0.001
239.00,0.000
240.00,0.002
241.00,0.002
242.00,-0.000
243.00,-0.000
244.00,0.002
245.00,0.000
246.00,0.002
247.00,-0.001
248.00,-0.001
249.00,0.001
250.00,0.001
251.00,0.002
252.00,0.001
253.00,-0.002
254.00,-0.001
255.00,-0.000
256.00,-0.002
257.00,-0.001
258.00,-0.000
259.00,0.001
260.00,-0.001
261.00,0.000
262.00,0.000
263.00,0.001
264.00,-0.001
265.00,-0.001
266.00,0.000
267.00,0.000
268.00,0.001
269.00,0.000
270.00,-0.001
271.00,0.000
272.00,0.001
273.00,-0.000
274.00,-0.001
275.00,-0.001
276.00,0.001
277.00,-0.000
278.00,0.001
279.00,-0.000
280.00,-0.001
281.00,-0.000
282.00,-0.001
283.00,0.002
284.00,0.002
285.00,0.000
286.00,-0.001
287.00,-0.002
288.00,0.002
289.00,0.001
290.00,0.000
291.00,-0.001
292.00,-0.000
293.00,0.000
294.00,0.001
295.00,-0.001
296.00,0.000
297.00,0.001
298.00,0.000
299.00,0.002
300.00,0.003
301.00,0.006
302.00,0.010
303.00,0.013
304.00,0.021
305.00,0.033
306.00,0.050
307.00,0.074
308.00,0.117
309.00,0.180
310.00,0.249
311.00,0.346
312.00,0.466
313.00,0.620
314.00,0.812
315.00,1.037
316.00,1.304
317.00,1.645
318.00,1.997
319.00,2.442
320.00,2.962
321.00,3.500
322.00,4.100
323.00,4.781
324.00,5.494
325.00,6.218
326.00,6.958
327.00,7.797
328.00,8.672
329.00,9.489
330.00,10.413
331.00,11.266
332.00,12.158
333.00,13.086
334.00,13.946
335.00,14.854
336.00,15.718
337.00,16.643
338.00,17.489
339.00,18.266
340.00,19.092
341.00,19.897
342.00,20.580
343.00,21.221
344.00,21.868
345.00,22.617
346.00,23.222
347.00,23.589
348.00,24.256
349.00,24.720
350.00,25.166
351.00,25.604
352.00,25.957
353.00,26.379
354.00,26.652
355.00,26.994
356.00,27.303
357.00,27.483
358.00,27.799
359.00,28.136
360.00,28.398
361.00,28.560
362.00,28.765
363.00,28.936
364.00,29.006
365.00,29.101
366.00,29.263
367.00,29.316
368.00,29.374
369.00,29.425
370.00,29.505
371.00,29.540
372.00,29.480
373.00,29.505
374.00,29.530
375.00,29.535
376.00,29.401
377.00,29.374
378.00,29.285
379.00,29.145
380.00,29.144
381.00,29.161
382.00,29.151
383.00,29.192
384.00,29.235
385.00,29.225
386.00,29.206
387.00,29.282
388.00,29.431
389.00,29.431
390.00,29.486
391.00,29.509
392.00,29.559
393.00,29.554
394.00,29.588
395.00,29.665
396.00,29.594
397.00,29.595
398.00,29.609
399.00,29.615
400.00,29.653
401.00,29.605
402.00,29.636
403.00,29.585
404.00,29.597
405.00,29.560
406.00,29.579
407.00,29.513
408.00,29.518
409.00,29.455
410.00,29.405
411.00,29.447
412.00,29.333
413.00,29.382
414.00,29.322
415.00,29.345
416.00,29.397
417.00,29.365
418.00,29.388
419.00,29.502
420.00,29.533
421.00,29.556
422.00,29.510
423.00,29.572
424.00,29.611
425.00,29.642
426.00,29.680
427.00,29.775
428.00,29.808
429.00,29.804
430.00,29.881
431.00,29.931
432.00,29.920
433.00,29.971
434.00,30.037
435.00,30.112
436.00,30.169
437.00,30.178
438.00,30.235
439.00,30.298
440.00,30.393
441.00,30.470
442.00,30.535
443.00,30.605
444.00,30.711
445.00,30.784
446.00,30.890
447.00,30.922
448.00,31.042
449.00,31.142
450.00,31.264
451.00,31.317
452.00,31.399
453.00,31.499
454.00,31.575
455.00,31.676
456.00,31.815
457.00,31.895
458.00,31.988
459.00,32.140
460.00,32.259
461.00,32.372
462.00,32.434
463.00,32.578
464.00,32.708
465.00,32.805
466.00,32.924
467.00,33.046
468.00,33.138
469.00,33.193
470.00,33.298
471.00,33.331
472.00,33.477
473.00,33.523
474.00,33.619
475.00,33.719
476.00,33.787
477.00,33.903
478.00,34.039
479.00,34.204
480.00,34.269
481.00,34.378
482.00,34.563
483.00,34.662
484.00,34.826
485.00,34.961
486.00,35.074
487.00,35.215
488.00,35.384
489.00,35.455
490.00,35.537
491.00,35.728
492.00,35.922
493.00,36.110
494.00,36.035
495.00,36.207
496.00,36.299
497.00,36.401
498.00,36.566
499.00,36.685
500.00,36.803
501.00,36.874
502.00,36.987
503.00,37.136
504.00,37.131
505.00,37.224
506.00,37.334
507.00,37.435
508.00,37.521
509.00,37.677
510.00,37.797
511.00,37.847
512.00,38.000
513.00,38.142
514.00,38.276
515.00,38.331
516.00,38.424
517.00,38.463
518.00,38.643
519.00,38.601
520.00,38.604
521.00,38.773
522.00,38.830
523.00,38.842
524.00,38.921
525.00,39.016
526.00,39.112
527.00,39.174
528.00,39.242
529.00,39.415
530.00,39.574
531.00,39.643
532.00,39.675
533.00,39.798
534.00,39.886
535.00,39.947
536.00,39.988
537.00,40.081
538.00,40.094
539.00,40.136
540.00,40.208
541.00,40.236
542.00,40.270
543.00,40.279
544.00,40.404
545.00,40.443
546.00,40.447
547.00,40.572
548.00,40.654
549.00,40.696
550.00,40.711
551.00,40.851
552.00,40.926
553.00,40.881
554.00,40.960
555.00,41.002
556.00,40.971
557.00,41.133
558.00,41.175
559.00,41.106
560.00,41.156
561.00,41.269
562.00,41.294
563.00,41.392
564.00,41.450
565.00,41.533
566.00,41.466
567.00,41.485
568.00,41.548
569.00,41.584
570.00,41.594
571.00,41.633
572.00,41.684
573.00,41.600
574.00,41.655
575.00,41.617
576.00,41.596
577.00,41.674
578.00,41.787
579.00,41.864
580.00,41.818
581.00,42.005
582.00,42.137
583.00,42.120
584.00,42.195
585.00,42.261
586.00,42.294
587.00,42.258
588.00,42.272
589.00,42.258
590.00,42.351
591.00,42.426
592.00,42.325
593.00,42.349
594.00,42.426
595.00,42.500
596.00,42.591
597.00,42.631
598.00,42.709
599.00,42.685
600.00,42.735
601.00,42.716
602.00,42.693
603.00,42.718
604.00,42.762
605.00,42.841
606.00,42.825
607.00,42.868
608.00,43.040
609.00,43.103
610.00,42.909
611.00,42.987
612.00,42.988
613.00,43.084
614.00,43.133
615.00,43.149
616.00,43.319
617.00,43.245
618.00,43.170
619.00,43.240
620.00,43.371
621.00,43.336
622.00,43.370
623.00,43.488
624.00,43.587
625.00,43.571
626.00,43.582
627.00,43.650
628.00,43.622
629.00,43.649
630.00,43.683
631.00,43.719
632.00,43.784
633.00,43.908
634.00,43.980
635.00,44.079
636.00,44.110
637.00,44.127
638.00,44.134
639.00,44.270
640.00,44.329
641.00,44.315
642.00,44.391
643.00,44.388
644.00,44.477
645.00,44.511
646.00,44.684
647.00,44.692
648.00,44.683
649.00,44.705
650.00,44.657
651.00,44.873
652.00,44.937
653.00,44.913
654.00,44.933
655.00,45.155
656.00,45.352
657.00,45.368
658.00,45.301
659.00,45.243
660.00,45.287
661.00,45.370
662.00,45.412
663.00,45.487
664.00,45.704
665.00,45.862
666.00,45.856
667.00,45.862
668.00,45.751
669.00,45.968
670.00,46.236
671.00,45.921
672.00,46.234
673.00,46.208
674.00,46.271
675.00,46.322
676.00,46.502
677.00,46.641
678.00,46.320
679.00,46.578
680.00,46.712
681.00,46.727
682.00,46.804
683.00,46.664
684.00,46.890
685.00,46.960
686.00,46.825
687.00,46.939
688.00,46.954
689.00,46.858
690.00,47.197
691.00,47.438
692.00,47.192
693.00,47.225
694.00,47.393
695.00,47.483
696.00,47.441
697.00,47.437
698.00,47.525
699.00,47.704
700.00,47.834
701.00,47.742
702.00,47.809
703.00,47.930
704.00,48.002
705.00,47.917
706.00,47.988
707.00,48.020
708.00,47.865
709.00,48.312
710.00,48.576
711.00,48.188
712.00,48.139
713.00,48.327
714.00,48.376
715.00,48.385
716.00,48.375
717.00,48.437
718.00,48.600
719.00,48.465
720.00,48.490
721.00,53.276
722.00,53.260
723.00,53.189
724.00,53.250
725.00,53.295
726.00,53.282
727.00,53.170
728.00,53.203
729.00,53.304
730.00,53.186
731.00,53.318
732.00,53.219
733.00,53.333
734.00,53.286
735.00,53.305
736.00,53.213
737.00,53.316
738.00,53.380
739.00,53.357
740.00,53.373
741.00,53.372
742.00,53.380
743.00,53.353
744.00,53.338
745.00,53.368
746.00,53.274
747.00,53.349
748.00,53.229
749.00,53.252
750.00,53.259
751.00,53.159
752.00,53.251
753.00,53.260
754.00,53.219
755.00,53.182
756.00,53.228
757.00,53.183
758.00,53.176
759.00,53.146
760.00,53.178
761.00,53.190
762.00,53.194
763.00,53.185
764.00,53.192
765.00,53.128
766.00,53.151
767.00,53.069
768.00,53.167
769.00,53.157
770.00,53.170
771.00,53.110
772.00,53.169
773.00,53.054
774.00,53.164
775.00,53.143
776.00,53.054
777.00,53.135
778.00,53.108
779.00,53.159
780.00,53.037
781.00,53.085
782.00,53.174
783.00,52.955
784.00,53.135
785.00,52.956
786.00,53.086
787.00,53.041
788.00,53.006
789.00,52.970
790.00,52.893
791.00,52.961
792.00,52.883
793.00,52.860
794.00,52.940
795.00,52.884
796.00,52.841
797.00,52.796
798.00,52.816
799.00,52.733
800.00,52.765
801.00,52.769
802.00,52.766
803.00,52.655
804.00,52.715
805.00,52.696
806.00,52.685
807.00,52.677
808.00,52.607
809.00,52.652
810.00,52.555
811.00,52.560
812.00,52.612
813.00,52.450
814.00,52.620
815.00,52.529
816.00,52.512
817.00,52.478
818.00,52.424
819.00,52.498
820.00,52.374
821.00,52.384
822.00,52.348
823.00,52.333
824.00,52.362
825.00,52.279
826.00,52.342
827.00,52.253
828.00,52.308
829.00,52.282
830.00,52.365
831.00,54.880
832.00,54.875
833.00,54.838
834.00,54.822
835.00,54.804
836.00,54.839
837.00,54.766
838.00,54.758
839.00,54.764
840.00,54.686
841.00,54.680
842.00,54.684
843.00,54.674
844.00,54.663
845.00,54.613
846.00,54.649
847.00,54.574
848.00,54.587
849.00,54.526
850.00,54.494
851.00,54.430
852.00,54.462
853.00,54.413
854.00,54.375
855.00,54.327
856.00,54.353
857.00,54.329
858.00,54.267
859.00,54.281
860.00,54.261
861.00,54.285
862.00,54.223
863.00,54.243
864.00,54.193
865.00,54.214
866.00,54.179
867.00,54.187
868.00,54.162
869.00,54.125
870.00,54.154
871.00,54.114
872.00,54.145
873.00,54.107
874.00,54.154
875.00,54.064
876.00,54.113
877.00,54.055
878.00,54.085
879.00,54.053
880.00,54.049
881.00,53.969
882.00,54.020
883.00,53.965
884.00,53.929
885.00,53.917
886.00,53.917
887.00,53.861
888.00,53.839
889.00,53.828
890.00,53.810
891.00,53.795
892.00,53.783
893.00,53.765
894.00,53.761
895.00,53.746
896.00,53.724
897.00,53.700
898.00,53.655
899.00,53.656
900.00,53.662
901.00,53.657
902.00,53.683
903.00,53.633
904.00,53.644
905.00,53.524
906.00,53.615
907.00,53.578
908.00,53.483
909.00,53.551
910.00,53.506
911.00,53.536
912.00,53.473
913.00,53.434
914.00,53.430
915.00,53.398
916.00,53.383
917.00,53.379
918.00,53.379
919.00,53.314
920.00,53.295
921.00,53.303
922.00,53.280
923.00,53.284
924.00,53.243
925.00,53.244
926.00,53.205
927.00,53.185
928.00,53.176
929.00,53.199
930.00,53.130
931.00,53.108
932.00,53.078
933.00,53.124
934.00,53.090
935.00,53.019
936.00,53.137
937.00,53.022
938.00,53.024
939.00,53.013
940.00,52.986
941.00,52.979
942.00,52.943
943.00,52.953
944.00,52.887
945.00,52.918
946.00,52.894
947.00,52.854
948.00,52.844
949.00,52.811
950.00,52.789
951.00,52.852
952.00,52.761
953.00,52.728
954.00,52.728
955.00,52.674
956.00,52.682
957.00,52.643
958.00,52.652
959.00,52.585
960.00,52.582
961.00,52.585
962.00,52.587
963.00,52.523
964.00,52.533
965.00,52.532
966.00,52.482
967.00,52.488
968.00,52.475
969.00,52.516
970.00,52.471
971.00,52.519
972.00,52.463
973.00,52.504
974.00,52.516
975.00,52.487
976.00,52.526
977.00,52.494
978.00,52.538
979.00,52.489
980.00,52.521
981.00,52.529
982.00,52.482
983.00,52.504
984.00,52.488
985.00,52.490
986.00,52.462
987.00,52.463
988.00,52.435
989.00,52.441
990.00,52.430
991.00,52.417
992.00,52.428
993.00,52.377
994.00,52.386
995.00,52.378
996.00,52.358
997.00,52.356
998.00,52.320
999.00,52.350
1000.00,52.315
1001.00,52.309
1002.00,52.301
1003.00,52.300
1004.00,52.277
1005.00,52.239
1006.00,52.281
1007.00,52.231
1008.00,52.225
1009.00,52.194
1010.00,52.186
1011.00,52.192
1012.00,52.157
1013.00,52.175
1014.00,52.140
1015.00,52.156
1016.00,52.116
1017.00,52.091
1018.00,52.087
1019.00,52.058
1020.00,52.068
1021.00,52.050
1022.00,52.052
1023.00,51.998
1024.00,52.014
1025.00,52.001
1026.00,51.979
1027.00,51.977
1028.00,51.969
1029.00,51.939
1030.00,51.905
1031.00,51.922
1032.00,51.869
1033.00,51.885
1034.00,51.864
1035.00,51.807
1036.00,51.791
1037.00,51.770
1038.00,51.776
1039.00,51.752
1040.00,51.737
1041.00,51.724
1042.00,51.709
1043.00,51.670
1044.00,51.722
1045.00,51.696
1046.00,51.675
1047.00,51.708
1048.00,51.694
1049.00,51.704
1050.00,51.704
1051.00,51.770
1052.00,51.765
1053.00,51.770
1054.00,51.754
1055.00,51.808
1056.00,51.810
1057.00,51.816
1058.00,51.803
1059.00,51.780
1060.00,51.803
1061.00,51.794
1062.00,51.761
1063.00,51.766
1064.00,51.775
1065.00,51.762
1066.00,51.762
1067.00,51.757
1068.00,51.784
1069.00,51.737
1070.00,51.715
1071.00,51.713
1072.00,51.744
1073.00,51.712
1074.00,51.724
1075.00,51.698
1076.00,51.703
1077.00,51.684
1078.00,51.658
1079.00,51.670
1080.00,51.687
1081.00,51.672
1082.00,51.668
1083.00,51.662
1084.00,51.645
1085.00,51.655
1086.00,51.640
1087.00,51.623
1088.00,51.623
1089.00,51.616
1090.00,51.624
1091.00,51.631
1092.00,51.602
1093.00,51.594
1094.00,51.560
1095.00,51.550
1096.00,51.532
1097.00,51.542
1098.00,51.524
1099.00,51.519
1100.00,51.504
1101.00,51.507
1102.00,51.491
1103.00,51.491
1104.00,51.488
1105.00,51.480
1106.00,51.432
1107.00,51.464
1108.00,51.447
1109.00,51.450
1110.00,51.428
1111.00,51.422
1112.00,51.406
1113.00,51.419
1114.00,51.396
1115.00,51.412
1116.00,51.413
1117.00,51.387
1118.00,51.390
1119.00,51.389
1120.00,51.365
1121.00,51.380
1122.00,51.344
1123.00,51.334
1124.00,51.336
1125.00,51.350
1126.00,51.326
1127.00,51.334
1128.00,51.312
1129.00,51.278
1130.00,51.276
1131.00,51.292
1132.00,51.268
1133.00,51.277
1134.00,51.268
1135.00,51.271
1136.00,51.268
1137.00,51.276
1138.00,51.262
1139.00,51.253
1140.00,51.259
1141.00,51.272
1142.00,51.250
1143.00,51.280
1144.00,51.238
1145.00,51.237
1146.00,51.237
1147.00,51.240
1148.00,51.233
1149.00,51.244
1150.00,51.231
1151.00,51.247
1152.00,51.225
1153.00,51.228
1154.00,51.225
1155.00,51.228
1156.00,51.220
1157.00,51.238
1158.00,51.225
1159.00,51.230
1160.00,51.225
1161.00,51.238
1162.00,51.218
1163.00,51.217
1164.00,51.207
1165.00,51.214
1166.00,51.226
1167.00,51.192
1168.00,51.218
1169.00,51.186
1170.00,51.198
1171.00,51.177
1172.00,51.172
1173.00,51.191
1174.00,51.186
1175.00,51.172
1176.00,51.179
1177.00,51.162
1178.00,51.174
1179.00,51.173
1180.00,51.177
1181.00,51.239
1182.00,51.199
1183.00,51.197
1184.00,51.199
1185.00,51.194
1186.00,51.172
1187.00,51.192
1188.00,51.195
1189.00,51.195
1190.00,51.195
1191.00,51.182
1192.00,51.213
1193.00,51.204
1194.00,51.192
1195.00,51.182
1196.00,51.221
1197.00,51.200
1198.00,51.203
1199.00,51.207
1200.00,51.210
1201.00,51.224
1202.00,51.188
1203.00,51.194
1204.00,51.185
1205.00,51.196
1206.00,51.177
1207.00,51.185
1208.00,51.177
1209.00,51.195
1210.00,51.195
1211.00,51.188
1212.00,51.225
1213.00,51.167
1214.00,51.211
1215.00,51.183
1216.00,51.175
1217.00,51.192
1218.00,51.171
1219.00,51.176
1220.00,51.176
1221.00,51.214
1222.00,51.187
1223.00,51.213
1224.00,51.197
1225.00,51.212
1226.00,51.195
1227.00,51.180
1228.00,51.222
1229.00,51.209
1230.00,51.214
1231.00,51.208
1232.00,51.223
1233.00,51.205
1234.00,51.219
1235.00,51.228
1236.00,51.222
1237.00,51.227
1238.00,51.213
1239.00,51.231
1240.00,51.218
1241.00,51.229
1242.00,51.233
1243.00,51.249
1244.00,51.220
1245.00,51.271
1246.00,51.264
1247.00,51.260
1248.00,51.264
1249.00,51.263
1250.00,51.294
1251.00,51.260
1252.00,51.287
1253.00,51.264
1254.00,51.298
1255.00,51.251
1256.00,51.245
1257.00,51.270
1258.00,51.341
1259.00,51.303
1260.00,51.316
1261.00,51.314
1262.00,51.320
1263.00,51.304
1264.00,51.324
1265.00,51.328
1266.00,51.323
1267.00,51.344
1268.00,51.333
1269.00,51.347
1270.00,51.365
1271.00,51.345
1272.00,51.357
1273.00,51.386
1274.00,51.366
1275.00,51.391
1276.00,51.376
1277.00,51.366
1278.00,51.378
1279.00,51.387
1280.00,51.377
1281.00,51.406
1282.00,51.401
1283.00,51.384
1284.00,51.395
1285.00,51.400
1286.00,51.409
1287.00,51.418
1288.00,51.439
1289.00,51.430
1290.00,51.457
1291.00,51.452
1292.00,51.453
1293.00,51.468
1294.00,51.487
1295.00,51.483
1296.00,51.465
1297.00,51.485
1298.00,51.522
1299.00,51.490
1300.00,51.518
1301.00,51.497
1302.00,51.527
1303.00,51.515
1304.00,51.491
1305.00,51.528
1306.00,51.510
1307.00,51.539
1308.00,51.538
1309.00,51.555
1310.00,51.538
1311.00,51.529
1312.00,51.536
1313.00,51.566
1314.00,51.586
1315.00,51.576
1316.00,51.581
1317.00,51.612
1318.00,51.607
1319.00,51.610
1320.00,51.605
1321.00,51.766
1322.00,51.758
1323.00,51.736
1324.00,51.721
1325.00,51.722
1326.00,51.747
1327.00,51.735
1328.00,51.757
1329.00,51.729
1330.00,51.733
1331.00,51.749
1332.00,51.705
1333.00,51.769
1334.00,51.781
1335.00,51.788
1336.00,51.829
1337.00,51.845
1338.00,51.916
1339.00,51.964
1340.00,52.020
1341.00,52.084
1342.00,52.158
1343.00,52.171
1344.00,52.238
1345.00,52.305
1346.00,52.318
1347.00,52.347
1348.00,52.387
1349.00,52.403
1350.00,52.428
1351.00,52.411
1352.00,52.452
1353.00,52.416
1354.00,52.409
1355.00,52.373
1356.00,52.442
1357.00,52.438
1358.00,52.478
1359.00,52.505
1360.00,52.522
1361.00,52.465
1362.00,52.396
1363.00,52.625
1364.00,52.539
1365.00,52.470
1366.00,52.566
1367.00,52.479
1368.00,52.383
1369.00,52.465
1370.00,52.432
1371.00,52.372
1372.00,52.429
1373.00,52.440
1374.00,52.464
1375.00,52.446
1376.00,52.418
1377.00,52.427
1378.00,52.527
1379.00,52.435
1380.00,52.473
1381.00,52.491
1382.00,52.485
1383.00,52.486
1384.00,52.405
1385.00,52.435
1386.00,52.452
1387.00,52.423
1388.00,52.371
1389.00,52.445
1390.00,52.222
1391.00,52.404
1392.00,52.393
1393.00,52.382
1394.00,52.452
1395.00,52.398
1396.00,52.366
1397.00,52.416
1398.00,52.448
1399.00,52.463
1400.00,52.357
1401.00,52.358
1402.00,52.492
1403.00,52.416
1404.00,52.447
1405.00,52.470
1406.00,52.467
1407.00,52.461
1408.00,52.516
1409.00,52.454
1410.00,52.493
1411.00,52.470
1412.00,52.522
1413.00,52.448
1414.00,52.488
1415.00,52.504
1416.00,52.513
1417.00,52.536
1418.00,52.508
1419.00,52.550
1420.00,52.533
1421.00,52.601
1422.00,52.586
1423.00,52.637
1424.00,52.609
1425.00,52.624
1426.00,52.600
1427.00,52.635
1428.00,52.616
1429.00,52.640
1430.00,52.626
1431.00,52.661
1432.00,52.697
1433.00,52.699
1434.00,52.687
1435.00,52.755
1436.00,52.758
1437.00,52.734
1438.00,52.748
1439.00,52.790
1440.00,52.798
1441.00,52.806
1442.00,52.818
1443.00,52.849
1444.00,52.902
1445.00,52.853
1446.00,52.898
1447.00,52.906
1448.00,52.947
1449.00,52.937
1450.00,52.937
1451.00,52.954
1452.00,52.981
1453.00,52.956
1454.00,52.999
1455.00,53.030
1456.00,53.020
1457.00,53.017
1458.00,53.052
1459.00,53.045
1460.00,53.095
1461.00,53.079
1462.00,53.121
1463.00,53.117
1464.00,53.109
1465.00,53.151
1466.00,53.129
1467.00,53.148
1468.00,53.206
1469.00,53.165
1470.00,53.200
1471.00,53.209
1472.00,53.211
1473.00,53.226
1474.00,53.280
1475.00,53.276
1476.00,53.311
1477.00,53.280
1478.00,53.294
1479.00,53.314
1480.00,53.293
1481.00,53.297
1482.00,53.335
1483.00,53.357
1484.00,53.378
1485.00,53.361
1486.00,53.364
1487.00,53.399
1488.00,53.417
1489.00,53.384
1490.00,53.428
1491.00,53.439
1492.00,53.459
1493.00,53.428
1494.00,53.462
1495.00,53.457
1496.00,53.512
1497.00,53.471
1498.00,53.506
1499.00,53.505
1500.00,53.502
1501.00, 
1502.00, 
1503.00, 
1504.00, 
1505.00, 
1506.00, 
1507.00, 
1508.00, 
1509.00, 
1510.00, 
1511.00, 
1512.00, 
1513.00, 
1514.00, 
1515.00, 
1516.00, 
1517.00, 
1518.00, 
1519.00, 
1520.00, 
1521.00, 
1522.00, 
1523.00, 
1524.00, 
1525.00, 
1526.00, 
1527.00, 
1528.00, 
1529.00, 
1530.00, 
1531.00, 
1532.00, 
1533.00, 
1534.00, 
1535.00, 
1536.00, 
1537.00, 
1538.00, 
1539.00, 
1540.00, 
1541.00, 
1542.00, 
1543.00, 
1544.00, 
1545.00, 
1546.00, 
1547.00, 
1548.00, 
1549.00, 
1550.00, 
1551.00, 
1552.00, 
1553.00, 
1554.00, 
1555.00, 
1556.00, 
1557.00, 
1558.00, 
1559.00, 
1560.00, 
1561.00, 
1562.00, 
1563.00, 
1564.00, 
1565.00, 
1566.00, 
1567.00, 
1568.00, 
1569.00, 
1570.00, 
1571.00, 
1572.00, 
1573.00, 
1574.00, 
1575.00, 
1576.00, 
1577.00, 
1578.00, 
1579.00, 
1580.00, 
1581.00, 
1582.00, 
1583.00, 
1584.00, 
1585.00, 
1586.00, 
1587.00, 
1588.00, 
1589.00, 
1590.00, 
1591.00, 
1592.00, 
1593.00, 
1594.00, 
1595.00, 
1596.00, 
1597.00, 
1598.00, 
1599.00, 
1600.00, 
1601.00, 
1602.00, 
1603.00, 
1604.00, 
1605.00, 
1606.00, 
1607.00, 
1608.00, 
1609.00, 
1610.00, 
1611.00, 
1612.00, 
1613.00, 
1614.00, 
1615.00, 
1616.00, 
1617.00, 
1618.00, 
1619.00, 
1620.00, 
1621.00, 
1622.00, 
1623.00, 
1624.00, 
1625.00, 
1626.00, 
1627.00, 
1628.00, 
1629.00, 
1630.00, 
1631.00, 
1632.00, 
1633.00, 
1634.00, 
1635.00, 
1636.00, 
1637.00, 
1638.00, 
1639.00, 
1640.00, 
1641.00, 
1642.00, 
1643.00, 
1644.00, 
1645.00, 
1646.00, 
1647.00, 
1648.00, 
1649.00, 
1650.00, 
1651.00, 
1652.00, 
1653.00, 
1654.00, 
1655.00, 
1656.00, 
1657.00, 
1658.00, 
1659.00, 
1660.00, 
1661.00, 
1662.00, 
1663.00, 
1664.00, 
1665.00, 
1666.00, 
1667.00, 
1668.00, 
1669.00, 
1670.00, 
1671.00, 
1672.00, 
1673.00, 
1674.00, 
1675.00, 
1676.00, 
1677.00, 
1678.00, 
1679.00, 
1680.00, 
1681.00, 
1682.00, 
1683.00, 
1684.00, 
1685.00, 
1686.00, 
1687.00, 
1688.00, 
1689.00, 
1690.00, 
1691.00, 
1692.00, 
1693.00, 
1694.00, 
1695.00, 
1696.00, 
1697.00, 
1698.00, 
1699.00, 
1700.00, 
1701.00, 
1702.00, 
1703.00, 
1704.00, 
1705.00, 
1706.00, 
1707.00, 
1708.00, 
1709.00, 
1710.00, 
1711.00, 
1712.00, 
1713.00, 
1714.00, 
1715.00, 
1716.00, 
1717.00, 
1718.00, 
1719.00, 
1720.00, 
1721.00, 
1722.00, 
1723.00, 
1724.00, 
1725.00, 
1726.00, 
1727.00, 
1728.00, 
1729.00, 
1730.00, 
1731.00, 
1732.00, 
1733.00, 
1734.00, 
1735.00, 
1736.00, 
1737.00, 
1738.00, 
1739.00, 
1740.00, 
1741.00, 
1742.00, 
1743.00, 
1744.00, 
1745.00, 
1746.00, 
1747.00, 
1748.00, 
1749.00, 
1750.00, 
1751.00, 
1752.00, 
1753.00, 
1754.00, 
1755.00, 
1756.00, 
1757.00, 
1758.00, 
1759.00, 
1760.00, 
1761.00, 
1762.00, 
1763.00, 
1764.00, 
1765.00, 
1766.00, 
1767.00, 
1768.00, 
1769.00, 
1770.00, 
1771.00, 
1772.00, 
1773.00, 
1774.00, 
1775.00, 
1776.00, 
1777.00, 
1778.00, 
1779.00, 
1780.00, 
1781.00, 
1782.00, 
1783.00, 
1784.00, 
1785.00, 
1786.00, 
1787.00, 
1788.00, 
1789.00, 
1790.00, 
1791.00, 
1792.00, 
1793.00, 
1794.00, 
1795.00, 
1796.00, 
1797.00, 
1798.00, 
1799.00, 
1800.00, 
1801.00, 
1802.00, 
1803.00, 
1804.00, 
1805.00, 
1806.00, 
1807.00, 
1808.00, 
1809.00, 
1810.00, 
1811.00, 
1812.00, 
1813.00, 
1814.00, 
1815.00, 
1816.00, 
1817.00, 
1818.00, 
1819.00, 
1820.00, 
1821.00, 
1822.00, 
1823.00, 
1824.00, 
1825.00, 
1826.00, 
1827.00, 
1828.00, 
1829.00, 
1830.00, 
1831.00, 
1832.00, 
1833.00, 
1834.00, 
1835.00, 
1836.00, 
1837.00, 
1838.00, 
1839.00, 
1840.00, 
1841.00, 
1842.00, 
1843.00, 
1844.00, 
1845.00, 
1846.00, 
1847.00, 
1848.00, 
1849.00, 
1850.00, 
1851.00, 
1852.00, 
1853.00, 
1854.00, 
1855.00, 
1856.00, 
1857.00, 
1858.00, 
1859.00, 
1860.00, 
1861.00, 
1862.00, 
1863.00, 
1864.00, 
1865.00, 
1866.00, 
1867.00, 
1868.00, 
1869.00, 
1870.00, 
1871.00, 
1872.00, 
1873.00, 
1874.00, 
1875.00, 
1876.00, 
1877.00, 
1878.00, 
1879.00, 
1880.00, 
1881.00, 
1882.00, 
1883.00, 
1884.00, 
1885.00, 
1886.00, 
1887.00, 
1888.00, 
1889.00, 
1890.00, 
1891.00, 
1892.00, 
1893.00, 
1894.00, 
1895.00, 
1896.00, 
1897.00, 
1898.00, 
1899.00, 
1900.00, 
1901.00, 
1902.00, 
1903.00, 
1904.00, 
1905.00, 
1906.00, 
1907.00, 
1908.00, 
1909.00, 
1910.00, 
1911.00, 
1912.00, 
1913.00, 
1914.00, 
1915.00, 
1916.00, 
1917.00, 
1918.00, 
1919.00, 
1920.00, 
1921.00, 
1922.00, 
1923.00, 
1924.00, 
1925.00, 
1926.00, 
1927.00, 
1928.00, 
1929.00, 
1930.00, 
1931.00, 
1932.00, 
1933.00, 
1934.00, 
1935.00, 
1936.00, 
1937.00, 
1938.00, 
1939.00, 
1940.00, 
1941.00, 
1942.00, 
1943.00, 
1944.00, 
1945.00, 
1946.00, 
1947.00, 
1948.00, 
1949.00, 
1950.00, 
1951.00, 
1952.00, 
1953.00, 
1954.00, 
1955.00, 
1956.00, 
1957.00, 
1958.00, 
1959.00, 
1960.00, 
1961.00, 
1962.00, 
1963.00, 
1964.00, 
1965.00, 
1966.00, 
1967.00, 
1968.00, 
1969.00, 
1970.00, 
1971.00, 
1972.00, 
1973.00, 
1974.00, 
1975.00, 
1976.00, 
1977.00, 
1978.00, 
1979.00, 
1980.00, 
1981.00, 
1982.00, 
1983.00, 
1984.00, 
1985.00, 
1986.00, 
1987.00, 
1988.00, 
1989.00, 
1990.00, 
1991.00, 
1992.00, 
1993.00, 
1994.00, 
1995.00, 
1996.00, 
1997.00, 
1998.00, 
1999.00, 
2000.00, 
2001.00, 
2002.00, 
2003.00, 
2004.00, 
2005.00, 
2006.00, 
2007.00, 
2008.00, 
2009.00, 
2010.00, 
2011.00, 
2012.00, 
2013.00, 
2014.00, 
2015.00, 
2016.00, 
2017.00, 
2018.00, 
2019.00, 
2020.00, 
2021.00, 
2022.00, 
2023.00, 
2024.00, 
2025.00, 
2026.00, 
2027.00, 
2028.00, 
2029.00, 
2030.00, 
2031.00, 
2032.00, 
2033.00, 
2034.00, 
2035.00, 
2036.00, 
2037.00, 
2038.00, 
2039.00, 
2040.00, 
2041.00, 
2042.00, 
2043.00, 
2044.00, 
2045.00, 
2046.00, 
2047.00, 
2048.00, 
2049.00, 
2050.00, 
2051.00, 
2052.00, 
2053.00, 
2054.00, 
2055.00, 
2056.00, 
2057.00, 
2058.00, 
2059.00, 
2060.00, 
2061.00, 
2062.00, 
2063.00, 
2064.00, 
2065.00, 
2066.00, 
2067.00, 
2068.00, 
2069.00, 
2070.00, 
2071.00, 
2072.00, 
2073.00, 
2074.00, 
2075.00, 
2076.00, 
2077.00, 
2078.00, 
2079.00, 
2080.00, 
2081.00, 
2082.00, 
2083.00, 
2084.00, 
2085.00, 
2086.00, 
2087.00, 
2088.00, 
2089.00, 
2090.00, 
2091.00, 
2092.00, 
2093.00, 
2094.00, 
2095.00, 
2096.00, 
2097.00, 
2098.00, 
2099.00, 
2100.00, 
2101.00, 
2102.00, 
2103.00, 
2104.00, 
2105.00, 
2106.00, 
2107.00, 
2108.00, 
2109.00, 
2110.00, 
2111.00, 
2112.00, 
2113.00, 
2114.00, 
2115.00, 
2116.00, 
2117.00, 
2118.00, 
2119.00, 
2120.00, 
2121.00, 
2122.00, 
2123.00, 
2124.00, 
2125.00, 
2126.00, 
2127.00, 
2128.00, 
2129.00, 
2130.00, 
2131.00, 
2132.00, 
2133.00, 
2134.00, 
2135.00, 
2136.00, 
2137.00, 
2138.00, 
2139.00, 
2140.00, 
2141.00, 
2142.00, 
2143.00, 
2144.00, 
2145.00, 
2146.00, 
2147.00, 
2148.00, 
2149.00, 
2150.00, 
2151.00, 
2152.00, 
2153.00, 
2154.00, 
2155.00, 
2156.00, 
2157.00, 
2158.00, 
2159.00, 
2160.00, 
2161.00, 
2162.00, 
2163.00, 
2164.00, 
2165.00, 
2166.00, 
2167.00, 
2168.00, 
2169.00, 
2170.00, 
2171.00, 
2172.00, 
2173.00, 
2174.00, 
2175.00, 
2176.00, 
2177.00, 
2178.00, 
2179.00, 
2180.00, 
2181.00, 
2182.00, 
2183.00, 
2184.00, 
2185.00, 
2186.00, 
2187.00, 
2188.00, 
2189.00, 
2190.00, 
2191.00, 
2192.00, 
2193.00, 
2194.00, 
2195.00, 
2196.00, 
2197.00, 
2198.00, 
2199.00, 
2200.00, 
2201.00, 
2202.00, 
2203.00, 
2204.00, 
2205.00, 
2206.00, 
2207.00, 
2208.00, 
2209.00, 
2210.00, 
2211.00, 
2212.00, 
2213.00, 
2214.00, 
2215.00, 
2216.00, 
2217.00, 
2218.00, 
2219.00, 
2220.00, 
2221.00, 
2222.00, 
2223.00, 
2224.00, 
2225.00, 
2226.00, 
2227.00, 
2228.00, 
2229.00, 
2230.00, 
2231.00, 
2232.00, 
2233.00, 
2234.00, 
2235.00, 
2236.00, 
2237.00, 
2238.00, 
2239.00, 
2240.00, 
2241.00, 
2242.00, 
2243.00, 
2244.00, 
2245.00, 
2246.00, 
2247.00, 
2248.00, 
2249.00, 
2250.00, 
2251.00, 
2252.00, 
2253.00, 
2254.00, 
2255.00, 
2256.00, 
2257.00, 
2258.00, 
2259.00, 
2260.00, 
2261.00, 
2262.00, 
2263.00, 
2264.00, 
2265.00, 
2266.00, 
2267.00, 
2268.00, 
2269.00, 
2270.00, 
2271.00, 
2272.00, 
2273.00, 
2274.00, 
2275.00, 
2276.00, 
2277.00, 
2278.00, 
2279.00, 
2280.00, 
2281.00, 
2282.00, 
2283.00, 
2284.00, 
2285.00, 
2286.00, 
2287.00, 
2288.00, 
2289.00, 
2290.00, 
2291.00, 
2292.00, 
2293.00, 
2294.00, 
2295.00, 
2296.00, 
2297.00, 
2298.00, 
2299.00, 
2300.00, 
2301.00, 
2302.00, 
2303.00, 
2304.00, 
2305.00, 
2306.00, 
2307.00, 
2308.00, 
2309.00, 
2310.00, 
2311.00, 
2312.00, 
2313.00, 
2314.00, 
2315.00, 
2316.00, 
2317.00, 
2318.00, 
2319.00, 
2320.00, 
2321.00, 
2322.00, 
2323.00, 
2324.00, 
2325.00, 
2326.00, 
2327.00, 
2328.00, 
2329.00, 
2330.00, 
2331.00, 
2332.00, 
2333.00, 
2334.00, 
2335.00, 
2336.00, 
2337.00, 
2338.00, 
2339.00, 
2340.00, 
2341.00, 
2342.00, 
2343.00, 
2344.00, 
2345.00, 
2346.00, 
2347.00, 
2348.00, 
2349.00, 
2350.00, 
2351.00, 
2352.00, 
2353.00, 
2354.00, 
2355.00, 
2356.00, 
2357.00, 
2358.00, 
2359.00, 
2360.00, 
2361.00, 
2362.00, 
2363.00, 
2364.00, 
2365.00, 
2366.00, 
2367.00, 
2368.00, 
2369.00, 
2370.00, 
2371.00, 
2372.00, 
2373.00, 
2374.00, 
2375.00, 
2376.00, 
2377.00, 
2378.00, 
2379.00, 
2380.00, 
2381.00, 
2382.00, 
2383.00, 
2384.00, 
2385.00, 
2386.00, 
2387.00, 
2388.00, 
2389.00, 
2390.00, 
2391.00, 
2392.00, 
2393.00, 
2394.00, 
2395.00, 
2396.00, 
2397.00, 
2398.00, 
2399.00, 
2400.00, 
2401.00, 
2402.00, 
2403.00, 
2404.00, 
2405.00, 
2406.00, 
2407.00, 
2408.00, 
2409.00, 
2410.00, 
2411.00, 
2412.00, 
2413.00, 
2414.00, 
2415.00, 
2416.00, 
2417.00, 
2418.00, 
2419.00, 
2420.00, 
2421.00, 
2422.00, 
2423.00, 
2424.00, 
2425.00, 
2426.00, 
2427.00, 
2428.00, 
2429.00, 
2430.00, 
2431.00, 
2432.00, 
2433.00, 
2434.00, 
2435.00, 
2436.00, 
2437.00, 
2438.00, 
2439.00, 
2440.00, 
2441.00, 
2442.00, 
2443.00, 
2444.00, 
2445.00, 
2446.00, 
2447.00, 
2448.00, 
2449.00, 
2450.00, 
2451.00, 
2452.00, 
2453.00, 
2454.00, 
2455.00, 
2456.00, 
2457.00, 
2458.00, 
2459.00, 
2460.00, 
2461.00, 
2462.00, 
2463.00, 
2464.00, 
2465.00, 
2466.00, 
2467.00, 
2468.00, 
2469.00, 
2470.00, 
2471.00, 
2472.00, 
2473.00, 
2474.00, 
2475.00, 
2476.00, 
2477.00, 
2478.00, 
2479.00, 
2480.00, 
2481.00, 
2482.00, 
2483.00, 
2484.00, 
2485.00, 
2486.00, 
2487.00, 
2488.00, 
2489.00, 
2490.00, 
2491.00, 
2492.00, 
2493.00, 
2494.00, 
2495.00, 
2496.00, 
2497.00, 
2498.00, 
2499.00, 
2500.00, 
2501.00, 
2502.00, 
2503.00, 
2504.00, 
2505.00, 
2506.00, 
2507.00, 
2508.00, 
2509.00, 
2510.00, 
2511.00, 
2512.00, 
2513.00, 
2514.00, 
2515.00, 
2516.00, 
2517.00, 
2518.00, 
2519.00, 
2520.00, 
2521.00, 
2522.00, 
2523.00, 
2524.00, 
2525.00, 
2526.00, 
2527.00, 
2528.00, 
2529.00, 
2530.00, 
2531.00, 
2532.00, 
2533.00, 
2534.00, 
2535.00, 
2536.00, 
2537.00, 
2538.00, 
2539.00, 
2540.00, 
2541.00, 
2542.00, 
2543.00, 
2544.00, 
2545.00, 
2546.00, 
2547.00, 
2548.00, 
2549.00, 
2550.00, 
2551.00, 
2552.00, 
2553.00, 
2554.00, 
2555.00, 
2556.00, 
2557.00, 
2558.00, 
2559.00, 
2560.00, 
2561.00, 
2562.00, 
2563.00, 
2564.00, 
2565.00, 
2566.00, 
2567.00, 
2568.00, 
2569.00, 
2570.00, 
2571.00, 
2572.00, 
2573.00, 
2574.00, 
2575.00, 
2576.00, 
2577.00, 
2578.00, 
2579.00, 
2580.00, 
2581.00, 
2582.00, 
2583.00, 
2584.00, 
2585.00, 
2586.00, 
2587.00, 
2588.00, 
2589.00, 
2590.00, 
2591.00, 
2592.00, 
2593.00, 
2594.00, 
2595.00, 
2596.00, 
2597.00, 
2598.00, 
2599.00, 
2600.00, 
