"1cP1 - RawData"
"Wavelength nm.","T%"
200.00,0.003
201.00,0.003
202.00,-0.001
203.00,0.001
204.00,0.001
205.00,0.000
206.00,0.002
207.00,0.002
208.00,0.000
209.00,0.003
210.00,0.002
211.00,0.001
212.00,-0.000
213.00,0.001
214.00,0.002
215.00,0.002
216.00,-0.002
217.00,0.001
218.00,0.001
219.00,0.000
220.00,0.002
221.00,0.000
222.00,0.002
223.00,-0.000
224.00,0.001
225.00,0.001
226.00,-0.000
227.00,-0.000
228.00,0.001
229.00,0.002
230.00,-0.002
231.00,0.000
232.00,-0.002
233.00,0.000
234.00,0.001
235.00,-0.001
236.00,-0.000
237.00,0.001
238.00,0.003
239.00,0.000
240.00,-0.001
241.00,-0.000
242.00,-0.000
243.00,0.001
244.00,-0.000
245.00,-0.000
246.00,0.001
247.00,-0.001
248.00,0.001
249.00,0.001
250.00,0.000
251.00,0.001
252.00,0.002
253.00,0.001
254.00,0.001
255.00,0.001
256.00,0.002
257.00,-0.001
258.00,-0.000
259.00,-0.000
260.00,0.002
261.00,-0.001
262.00,0.001
263.00,0.000
264.00,0.001
265.00,-0.000
266.00,-0.001
267.00,0.001
268.00,-0.000
269.00,-0.000
270.00,-0.000
271.00,0.001
272.00,-0.000
273.00,0.001
274.00,-0.001
275.00,0.001
276.00,0.000
277.00,0.001
278.00,0.000
279.00,0.001
280.00,-0.001
281.00,0.001
282.00,0.001
283.00,-0.002
284.00,-0.000
285.00,0.001
286.00,0.001
287.00,-0.001
288.00,-0.000
289.00,0.000
290.00,0.001
291.00,0.000
292.00,-0.000
293.00,-0.001
294.00,0.001
295.00,0.000
296.00,-0.000
297.00,-0.001
298.00,0.001
299.00,-0.000
300.00,-0.002
301.00,-0.000
302.00,0.004
303.00,0.000
304.00,0.001
305.00,0.002
306.00,0.001
307.00,0.003
308.00,0.005
309.00,0.011
310.00,0.015
311.00,0.027
312.00,0.042
313.00,0.067
314.00,0.098
315.00,0.149
316.00,0.209
317.00,0.297
318.00,0.405
319.00,0.550
320.00,0.727
321.00,0.939
322.00,1.198
323.00,1.528
324.00,1.874
325.00,2.260
326.00,2.673
327.00,3.187
328.00,3.725
329.00,4.299
330.00,4.934
331.00,5.581
332.00,6.286
333.00,7.025
334.00,7.716
335.00,8.491
336.00,9.278
337.00,10.079
338.00,10.854
339.00,11.597
340.00,12.394
341.00,13.179
342.00,13.871
343.00,14.537
344.00,15.209
345.00,15.950
346.00,16.518
347.00,17.042
348.00,17.731
349.00,18.124
350.00,18.684
351.00,19.173
352.00,19.606
353.00,20.038
354.00,20.410
355.00,20.807
356.00,21.110
357.00,21.428
358.00,21.770
359.00,22.090
360.00,22.374
361.00,22.626
362.00,22.823
363.00,23.041
364.00,23.169
365.00,23.285
366.00,23.435
367.00,23.544
368.00,23.636
369.00,23.700
370.00,23.774
371.00,23.834
372.00,23.796
373.00,23.781
374.00,23.792
375.00,23.789
376.00,23.678
377.00,23.605
378.00,23.491
379.00,23.415
380.00,23.398
381.00,23.398
382.00,23.400
383.00,23.456
384.00,23.466
385.00,23.595
386.00,23.589
387.00,23.743
388.00,23.834
389.00,23.835
390.00,23.918
391.00,23.964
392.00,24.014
393.00,24.050
394.00,24.096
395.00,24.166
396.00,24.148
397.00,24.186
398.00,24.187
399.00,24.191
400.00,24.199
401.00,24.214
402.00,24.187
403.00,24.186
404.00,24.209
405.00,24.170
406.00,24.185
407.00,24.109
408.00,24.104
409.00,24.053
410.00,24.002
411.00,24.049
412.00,23.944
413.00,23.987
414.00,23.918
415.00,23.958
416.00,23.983
417.00,23.973
418.00,23.968
419.00,24.102
420.00,24.103
421.00,24.129
422.00,24.090
423.00,24.151
424.00,24.195
425.00,24.213
426.00,24.218
427.00,24.304
428.00,24.357
429.00,24.393
430.00,24.480
431.00,24.442
432.00,24.460
433.00,24.519
434.00,24.599
435.00,24.676
436.00,24.688
437.00,24.730
438.00,24.813
439.00,24.875
440.00,24.925
441.00,25.038
442.00,25.111
443.00,25.168
444.00,25.304
445.00,25.331
446.00,25.481
447.00,25.529
448.00,25.612
449.00,25.741
450.00,25.837
451.00,25.936
452.00,26.013
453.00,26.108
454.00,26.198
455.00,26.293
456.00,26.428
457.00,26.544
458.00,26.622
459.00,26.806
460.00,26.915
461.00,27.035
462.00,27.124
463.00,27.248
464.00,27.409
465.00,27.523
466.00,27.623
467.00,27.750
468.00,27.891
469.00,27.938
470.00,28.038
471.00,28.093
472.00,28.225
473.00,28.291
474.00,28.411
475.00,28.521
476.00,28.568
477.00,28.703
478.00,28.815
479.00,29.009
480.00,29.120
481.00,29.221
482.00,29.394
483.00,29.510
484.00,29.686
485.00,29.799
486.00,29.973
487.00,30.138
488.00,30.261
489.00,30.429
490.00,30.548
491.00,30.697
492.00,30.892
493.00,31.047
494.00,31.030
495.00,31.196
496.00,31.307
497.00,31.441
498.00,31.563
499.00,31.697
500.00,31.819
501.00,31.939
502.00,32.118
503.00,32.200
504.00,32.289
505.00,32.386
506.00,32.490
507.00,32.615
508.00,32.719
509.00,32.845
510.00,32.983
511.00,33.075
512.00,33.254
513.00,33.389
514.00,33.549
515.00,33.592
516.00,33.693
517.00,33.744
518.00,33.932
519.00,33.931
520.00,33.963
521.00,34.120
522.00,34.175
523.00,34.204
524.00,34.305
525.00,34.439
526.00,34.549
527.00,34.629
528.00,34.721
529.00,34.872
530.00,35.029
531.00,35.083
532.00,35.238
533.00,35.268
534.00,35.399
535.00,35.475
536.00,35.548
537.00,35.637
538.00,35.696
539.00,35.759
540.00,35.850
541.00,35.914
542.00,35.953
543.00,36.023
544.00,36.123
545.00,36.210
546.00,36.278
547.00,36.350
548.00,36.420
549.00,36.511
550.00,36.561
551.00,36.670
552.00,36.762
553.00,36.784
554.00,36.838
555.00,36.893
556.00,36.988
557.00,37.047
558.00,37.102
559.00,37.168
560.00,37.221
561.00,37.255
562.00,37.340
563.00,37.389
564.00,37.462
565.00,37.504
566.00,37.501
567.00,37.545
568.00,37.564
569.00,37.632
570.00,37.672
571.00,37.703
572.00,37.744
573.00,37.710
574.00,37.782
575.00,37.769
576.00,37.738
577.00,37.852
578.00,37.926
579.00,38.011
580.00,38.020
581.00,38.194
582.00,38.276
583.00,38.267
584.00,38.362
585.00,38.417
586.00,38.482
587.00,38.550
588.00,38.505
589.00,38.470
590.00,38.593
591.00,38.659
592.00,38.489
593.00,38.625
594.00,38.760
595.00,38.786
596.00,38.872
597.00,38.926
598.00,38.956
599.00,39.046
600.00,39.126
601.00,39.135
602.00,39.102
603.00,39.101
604.00,39.147
605.00,39.278
606.00,39.263
607.00,39.337
608.00,39.476
609.00,39.559
610.00,39.439
611.00,39.484
612.00,39.411
613.00,39.502
614.00,39.563
615.00,39.624
616.00,39.833
617.00,39.710
618.00,39.669
619.00,39.674
620.00,39.921
621.00,40.087
622.00,40.002
623.00,40.086
624.00,40.149
625.00,40.218
626.00,40.238
627.00,40.253
628.00,40.270
629.00,40.260
630.00,40.290
631.00,40.400
632.00,40.462
633.00,40.531
634.00,40.677
635.00,40.778
636.00,40.786
637.00,40.791
638.00,40.814
639.00,40.930
640.00,40.951
641.00,41.034
642.00,41.043
643.00,41.147
644.00,41.221
645.00,41.196
646.00,41.383
647.00,41.459
648.00,41.453
649.00,41.573
650.00,41.530
651.00,41.682
652.00,41.736
653.00,41.756
654.00,41.794
655.00,41.933
656.00,42.231
657.00,41.800
658.00,42.255
659.00,42.204
660.00,42.174
661.00,42.242
662.00,42.492
663.00,42.456
664.00,42.734
665.00,42.923
666.00,42.796
667.00,42.977
668.00,42.801
669.00,43.091
670.00,43.326
671.00,43.147
672.00,43.297
673.00,43.349
674.00,43.488
675.00,43.474
676.00,43.711
677.00,43.913
678.00,43.619
679.00,43.717
680.00,43.930
681.00,44.126
682.00,44.116
683.00,44.101
684.00,44.248
685.00,44.208
686.00,44.214
687.00,44.410
688.00,44.479
689.00,44.415
690.00,44.654
691.00,44.921
692.00,44.670
693.00,44.734
694.00,44.951
695.00,45.159
696.00,45.126
697.00,45.008
698.00,45.124
699.00,45.297
700.00,45.206
701.00,45.242
702.00,45.452
703.00,45.645
704.00,45.547
705.00,45.435
706.00,45.408
707.00,45.726
708.00,45.943
709.00,46.068
710.00,46.392
711.00,45.913
712.00,46.023
713.00,46.139
714.00,46.144
715.00,46.190
716.00,46.196
717.00,46.345
718.00,46.466
719.00,46.451
720.00,46.507
721.00,50.993
722.00,51.013
723.00,50.950
724.00,51.074
725.00,51.056
726.00,51.132
727.00,51.053
728.00,51.068
729.00,51.178
730.00,51.071
731.00,51.215
732.00,51.137
733.00,51.163
734.00,51.200
735.00,51.226
736.00,51.170
737.00,51.284
738.00,51.283
739.00,51.275
740.00,51.338
741.00,51.327
742.00,51.390
743.00,51.341
744.00,51.362
745.00,51.407
746.00,51.362
747.00,51.377
748.00,51.296
749.00,51.310
750.00,51.367
751.00,51.339
752.00,51.317
753.00,51.294
754.00,51.318
755.00,51.280
756.00,51.358
757.00,51.302
758.00,51.297
759.00,51.236
760.00,51.292
761.00,51.288
762.00,51.396
763.00,51.318
764.00,51.383
765.00,51.363
766.00,51.391
767.00,51.380
768.00,51.387
769.00,51.342
770.00,51.367
771.00,51.389
772.00,51.390
773.00,51.332
774.00,51.378
775.00,51.344
776.00,51.308
777.00,51.350
778.00,51.366
779.00,51.419
780.00,51.336
781.00,51.356
782.00,51.409
783.00,51.272
784.00,51.386
785.00,51.261
786.00,51.363
787.00,51.331
788.00,51.263
789.00,51.265
790.00,51.174
791.00,51.257
792.00,51.219
793.00,51.129
794.00,51.239
795.00,51.214
796.00,51.130
797.00,51.106
798.00,51.151
799.00,51.085
800.00,51.062
801.00,51.052
802.00,51.069
803.00,51.023
804.00,51.036
805.00,51.067
806.00,50.981
807.00,50.936
808.00,50.937
809.00,50.974
810.00,50.827
811.00,50.924
812.00,50.943
813.00,50.808
814.00,50.865
815.00,50.853
816.00,50.834
817.00,50.784
818.00,50.775
819.00,50.743
820.00,50.693
821.00,50.687
822.00,50.668
823.00,50.653
824.00,50.755
825.00,50.593
826.00,50.687
827.00,50.623
828.00,50.732
829.00,50.590
830.00,50.652
831.00,52.886
832.00,52.918
833.00,52.834
834.00,52.834
835.00,52.790
836.00,52.799
837.00,52.799
838.00,52.757
839.00,52.747
840.00,52.694
841.00,52.676
842.00,52.579
843.00,52.678
844.00,52.625
845.00,52.575
846.00,52.570
847.00,52.572
848.00,52.559
849.00,52.462
850.00,52.465
851.00,52.415
852.00,52.403
853.00,52.298
854.00,52.344
855.00,52.254
856.00,52.291
857.00,52.260
858.00,52.227
859.00,52.211
860.00,52.225
861.00,52.188
862.00,52.173
863.00,52.185
864.00,52.094
865.00,52.164
866.00,52.113
867.00,52.120
868.00,52.086
869.00,52.048
870.00,52.076
871.00,52.047
872.00,52.063
873.00,52.051
874.00,52.050
875.00,51.980
876.00,52.001
877.00,51.957
878.00,51.984
879.00,51.970
880.00,51.955
881.00,51.896
882.00,51.941
883.00,51.859
884.00,51.839
885.00,51.809
886.00,51.815
887.00,51.793
888.00,51.766
889.00,51.733
890.00,51.730
891.00,51.707
892.00,51.686
893.00,51.675
894.00,51.671
895.00,51.628
896.00,51.604
897.00,51.586
898.00,51.554
899.00,51.552
900.00,51.529
901.00,51.503
902.00,51.523
903.00,51.468
904.00,51.492
905.00,51.386
906.00,51.473
907.00,51.446
908.00,51.411
909.00,51.385
910.00,51.354
911.00,51.346
912.00,51.350
913.00,51.283
914.00,51.282
915.00,51.248
916.00,51.225
917.00,51.223
918.00,51.193
919.00,51.167
920.00,51.150
921.00,51.126
922.00,51.127
923.00,51.091
924.00,51.044
925.00,51.058
926.00,51.041
927.00,51.009
928.00,50.989
929.00,51.016
930.00,50.959
931.00,50.959
932.00,50.904
933.00,50.951
934.00,50.898
935.00,50.870
936.00,50.857
937.00,50.876
938.00,50.820
939.00,50.791
940.00,50.889
941.00,50.804
942.00,50.767
943.00,50.774
944.00,50.717
945.00,50.721
946.00,50.686
947.00,50.660
948.00,50.636
949.00,50.615
950.00,50.623
951.00,50.580
952.00,50.564
953.00,50.521
954.00,50.498
955.00,50.444
956.00,50.449
957.00,50.401
958.00,50.416
959.00,50.362
960.00,50.366
961.00,50.362
962.00,50.346
963.00,50.295
964.00,50.307
965.00,50.303
966.00,50.273
967.00,50.272
968.00,50.243
969.00,50.288
970.00,50.227
971.00,50.280
972.00,50.229
973.00,50.274
974.00,50.277
975.00,50.240
976.00,50.263
977.00,50.250
978.00,50.285
979.00,50.230
980.00,50.271
981.00,50.268
982.00,50.225
983.00,50.247
984.00,50.211
985.00,50.229
986.00,50.212
987.00,50.216
988.00,50.175
989.00,50.167
990.00,50.160
991.00,50.140
992.00,50.161
993.00,50.112
994.00,50.123
995.00,50.115
996.00,50.091
997.00,50.094
998.00,50.079
999.00,50.083
1000.00,50.021
1001.00,50.036
1002.00,50.031
1003.00,50.022
1004.00,50.005
1005.00,49.972
1006.00,50.015
1007.00,49.967
1008.00,49.958
1009.00,49.928
1010.00,49.944
1011.00,49.931
1012.00,49.886
1013.00,49.903
1014.00,49.857
1015.00,49.870
1016.00,49.834
1017.00,49.817
1018.00,49.819
1019.00,49.780
1020.00,49.772
1021.00,49.744
1022.00,49.753
1023.00,49.704
1024.00,49.727
1025.00,49.718
1026.00,49.703
1027.00,49.697
1028.00,49.689
1029.00,49.669
1030.00,49.630
1031.00,49.633
1032.00,49.599
1033.00,49.602
1034.00,49.572
1035.00,49.531
1036.00,49.521
1037.00,49.484
1038.00,49.494
1039.00,49.458
1040.00,49.446
1041.00,49.429
1042.00,49.409
1043.00,49.395
1044.00,49.427
1045.00,49.402
1046.00,49.400
1047.00,49.430
1048.00,49.432
1049.00,49.448
1050.00,49.433
1051.00,49.481
1052.00,49.472
1053.00,49.469
1054.00,49.461
1055.00,49.498
1056.00,49.504
1057.00,49.511
1058.00,49.496
1059.00,49.490
1060.00,49.515
1061.00,49.487
1062.00,49.473
1063.00,49.484
1064.00,49.474
1065.00,49.466
1066.00,49.462
1067.00,49.447
1068.00,49.478
1069.00,49.433
1070.00,49.408
1071.00,49.408
1072.00,49.428
1073.00,49.398
1074.00,49.432
1075.00,49.408
1076.00,49.392
1077.00,49.365
1078.00,49.338
1079.00,49.344
1080.00,49.335
1081.00,49.329
1082.00,49.329
1083.00,49.328
1084.00,49.302
1085.00,49.311
1086.00,49.290
1087.00,49.287
1088.00,49.271
1089.00,49.252
1090.00,49.256
1091.00,49.256
1092.00,49.238
1093.00,49.234
1094.00,49.201
1095.00,49.200
1096.00,49.188
1097.00,49.185
1098.00,49.185
1099.00,49.180
1100.00,49.168
1101.00,49.169
1102.00,49.143
1103.00,49.137
1104.00,49.143
1105.00,49.145
1106.00,49.103
1107.00,49.123
1108.00,49.084
1109.00,49.096
1110.00,49.078
1111.00,49.080
1112.00,49.076
1113.00,49.080
1114.00,49.050
1115.00,49.069
1116.00,49.046
1117.00,49.026
1118.00,49.031
1119.00,49.037
1120.00,49.008
1121.00,49.016
1122.00,48.992
1123.00,48.996
1124.00,48.984
1125.00,48.996
1126.00,48.990
1127.00,48.995
1128.00,48.964
1129.00,48.968
1130.00,48.946
1131.00,48.942
1132.00,48.956
1133.00,48.940
1134.00,48.944
1135.00,48.957
1136.00,48.923
1137.00,48.907
1138.00,48.896
1139.00,48.900
1140.00,48.893
1141.00,48.873
1142.00,48.875
1143.00,48.906
1144.00,48.866
1145.00,48.872
1146.00,48.869
1147.00,48.864
1148.00,48.859
1149.00,48.875
1150.00,48.863
1151.00,48.868
1152.00,48.848
1153.00,48.860
1154.00,48.847
1155.00,48.843
1156.00,48.844
1157.00,48.858
1158.00,48.846
1159.00,48.859
1160.00,48.849
1161.00,48.850
1162.00,48.846
1163.00,48.851
1164.00,48.843
1165.00,48.840
1166.00,48.862
1167.00,48.830
1168.00,48.854
1169.00,48.824
1170.00,48.845
1171.00,48.819
1172.00,48.819
1173.00,48.832
1174.00,48.820
1175.00,48.812
1176.00,48.815
1177.00,48.813
1178.00,48.822
1179.00,48.836
1180.00,48.814
1181.00,48.865
1182.00,48.833
1183.00,48.828
1184.00,48.833
1185.00,48.831
1186.00,48.809
1187.00,48.837
1188.00,48.833
1189.00,48.829
1190.00,48.827
1191.00,48.809
1192.00,48.842
1193.00,48.815
1194.00,48.810
1195.00,48.805
1196.00,48.834
1197.00,48.829
1198.00,48.813
1199.00,48.812
1200.00,48.824
1201.00,48.843
1202.00,48.807
1203.00,48.822
1204.00,48.807
1205.00,48.813
1206.00,48.821
1207.00,48.813
1208.00,48.814
1209.00,48.817
1210.00,48.821
1211.00,48.809
1212.00,48.835
1213.00,48.788
1214.00,48.834
1215.00,48.804
1216.00,48.807
1217.00,48.828
1218.00,48.801
1219.00,48.823
1220.00,48.804
1221.00,48.831
1222.00,48.825
1223.00,48.846
1224.00,48.847
1225.00,48.822
1226.00,48.833
1227.00,48.836
1228.00,48.846
1229.00,48.840
1230.00,48.880
1231.00,48.871
1232.00,48.886
1233.00,48.887
1234.00,48.870
1235.00,48.871
1236.00,48.875
1237.00,48.884
1238.00,48.870
1239.00,48.893
1240.00,48.886
1241.00,48.897
1242.00,48.901
1243.00,48.926
1244.00,48.896
1245.00,48.931
1246.00,48.926
1247.00,48.926
1248.00,48.926
1249.00,48.928
1250.00,48.961
1251.00,48.911
1252.00,48.939
1253.00,48.930
1254.00,48.956
1255.00,48.931
1256.00,48.918
1257.00,48.923
1258.00,48.984
1259.00,48.961
1260.00,48.989
1261.00,49.005
1262.00,48.983
1263.00,48.981
1264.00,48.985
1265.00,48.981
1266.00,48.995
1267.00,49.016
1268.00,49.004
1269.00,49.013
1270.00,49.020
1271.00,49.022
1272.00,49.035
1273.00,49.049
1274.00,49.047
1275.00,49.062
1276.00,49.047
1277.00,49.069
1278.00,49.069
1279.00,49.059
1280.00,49.068
1281.00,49.081
1282.00,49.080
1283.00,49.069
1284.00,49.075
1285.00,49.094
1286.00,49.110
1287.00,49.102
1288.00,49.131
1289.00,49.123
1290.00,49.140
1291.00,49.137
1292.00,49.136
1293.00,49.135
1294.00,49.165
1295.00,49.152
1296.00,49.156
1297.00,49.170
1298.00,49.199
1299.00,49.182
1300.00,49.208
1301.00,49.195
1302.00,49.227
1303.00,49.223
1304.00,49.210
1305.00,49.244
1306.00,49.221
1307.00,49.249
1308.00,49.242
1309.00,49.247
1310.00,49.239
1311.00,49.238
1312.00,49.247
1313.00,49.281
1314.00,49.290
1315.00,49.292
1316.00,49.299
1317.00,49.329
1318.00,49.339
1319.00,49.336
1320.00,49.337
1321.00,49.502
1322.00,49.494
1323.00,49.477
1324.00,49.466
1325.00,49.461
1326.00,49.463
1327.00,49.468
1328.00,49.504
1329.00,49.468
1330.00,49.491
1331.00,49.497
1332.00,49.493
1333.00,49.515
1334.00,49.536
1335.00,49.538
1336.00,49.562
1337.00,49.593
1338.00,49.671
1339.00,49.703
1340.00,49.764
1341.00,49.829
1342.00,49.887
1343.00,49.934
1344.00,49.978
1345.00,50.030
1346.00,50.072
1347.00,50.110
1348.00,50.132
1349.00,50.141
1350.00,50.172
1351.00,50.172
1352.00,50.199
1353.00,50.204
1354.00,50.213
1355.00,50.175
1356.00,50.227
1357.00,50.224
1358.00,50.277
1359.00,50.271
1360.00,50.317
1361.00,50.295
1362.00,50.186
1363.00,50.352
1364.00,50.343
1365.00,50.272
1366.00,50.346
1367.00,50.298
1368.00,50.217
1369.00,50.287
1370.00,50.263
1371.00,50.216
1372.00,50.253
1373.00,50.270
1374.00,50.286
1375.00,50.265
1376.00,50.257
1377.00,50.250
1378.00,50.261
1379.00,50.300
1380.00,50.314
1381.00,50.378
1382.00,50.252
1383.00,50.270
1384.00,50.205
1385.00,50.282
1386.00,50.272
1387.00,50.303
1388.00,50.208
1389.00,50.286
1390.00,49.989
1391.00,50.228
1392.00,50.209
1393.00,50.185
1394.00,50.249
1395.00,50.214
1396.00,50.183
1397.00,50.226
1398.00,50.277
1399.00,50.292
1400.00,50.228
1401.00,50.240
1402.00,50.053
1403.00,50.273
1404.00,50.303
1405.00,50.306
1406.00,50.314
1407.00,50.300
1408.00,50.353
1409.00,50.283
1410.00,50.329
1411.00,50.314
1412.00,50.366
1413.00,50.330
1414.00,50.352
1415.00,50.362
1416.00,50.368
1417.00,50.400
1418.00,50.384
1419.00,50.406
1420.00,50.418
1421.00,50.474
1422.00,50.454
1423.00,50.499
1424.00,50.495
1425.00,50.513
1426.00,50.510
1427.00,50.546
1428.00,50.520
1429.00,50.578
1430.00,50.567
1431.00,50.609
1432.00,50.636
1433.00,50.625
1434.00,50.676
1435.00,50.708
1436.00,50.698
1437.00,50.701
1438.00,50.701
1439.00,50.733
1440.00,50.750
1441.00,50.762
1442.00,50.779
1443.00,50.809
1444.00,50.847
1445.00,50.804
1446.00,50.849
1447.00,50.871
1448.00,50.911
1449.00,50.914
1450.00,50.933
1451.00,50.960
1452.00,50.975
1453.00,50.959
1454.00,50.992
1455.00,51.023
1456.00,51.023
1457.00,51.025
1458.00,51.060
1459.00,51.066
1460.00,51.110
1461.00,51.105
1462.00,51.150
1463.00,51.144
1464.00,51.150
1465.00,51.187
1466.00,51.177
1467.00,51.213
1468.00,51.260
1469.00,51.224
1470.00,51.270
1471.00,51.278
1472.00,51.286
1473.00,51.301
1474.00,51.335
1475.00,51.342
1476.00,51.367
1477.00,51.347
1478.00,51.385
1479.00,51.395
1480.00,51.381
1481.00,51.409
1482.00,51.450
1483.00,51.453
1484.00,51.469
1485.00,51.473
1486.00,51.479
1487.00,51.504
1488.00,51.529
1489.00,51.512
1490.00,51.557
1491.00,51.543
1492.00,51.575
1493.00,51.559
1494.00,51.592
1495.00,51.585
1496.00,51.607
1497.00,51.585
1498.00,51.614
1499.00,51.613
1500.00,51.616
1501.00, 
1502.00, 
1503.00, 
1504.00, 
1505.00, 
1506.00, 
1507.00, 
1508.00, 
1509.00, 
1510.00, 
1511.00, 
1512.00, 
1513.00, 
1514.00, 
1515.00, 
1516.00, 
1517.00, 
1518.00, 
1519.00, 
1520.00, 
1521.00, 
1522.00, 
1523.00, 
1524.00, 
1525.00, 
1526.00, 
1527.00, 
1528.00, 
1529.00, 
1530.00, 
1531.00, 
1532.00, 
1533.00, 
1534.00, 
1535.00, 
1536.00, 
1537.00, 
1538.00, 
1539.00, 
1540.00, 
1541.00, 
1542.00, 
1543.00, 
1544.00, 
1545.00, 
1546.00, 
1547.00, 
1548.00, 
1549.00, 
1550.00, 
1551.00, 
1552.00, 
1553.00, 
1554.00, 
1555.00, 
1556.00, 
1557.00, 
1558.00, 
1559.00, 
1560.00, 
1561.00, 
1562.00, 
1563.00, 
1564.00, 
1565.00, 
1566.00, 
1567.00, 
1568.00, 
1569.00, 
1570.00, 
1571.00, 
1572.00, 
1573.00, 
1574.00, 
1575.00, 
1576.00, 
1577.00, 
1578.00, 
1579.00, 
1580.00, 
1581.00, 
1582.00, 
1583.00, 
1584.00, 
1585.00, 
1586.00, 
1587.00, 
1588.00, 
1589.00, 
1590.00, 
1591.00, 
1592.00, 
1593.00, 
1594.00, 
1595.00, 
1596.00, 
1597.00, 
1598.00, 
1599.00, 
1600.00, 
1601.00, 
1602.00, 
1603.00, 
1604.00, 
1605.00, 
1606.00, 
1607.00, 
1608.00, 
1609.00, 
1610.00, 
1611.00, 
1612.00, 
1613.00, 
1614.00, 
1615.00, 
1616.00, 
1617.00, 
1618.00, 
1619.00, 
1620.00, 
1621.00, 
1622.00, 
1623.00, 
1624.00, 
1625.00, 
1626.00, 
1627.00, 
1628.00, 
1629.00, 
1630.00, 
1631.00, 
1632.00, 
1633.00, 
1634.00, 
1635.00, 
1636.00, 
1637.00, 
1638.00, 
1639.00, 
1640.00, 
1641.00, 
1642.00, 
1643.00, 
1644.00, 
1645.00, 
1646.00, 
1647.00, 
1648.00, 
1649.00, 
1650.00, 
1651.00, 
1652.00, 
1653.00, 
1654.00, 
1655.00, 
1656.00, 
1657.00, 
1658.00, 
1659.00, 
1660.00, 
1661.00, 
1662.00, 
1663.00, 
1664.00, 
1665.00, 
1666.00, 
1667.00, 
1668.00, 
1669.00, 
1670.00, 
1671.00, 
1672.00, 
1673.00, 
1674.00, 
1675.00, 
1676.00, 
1677.00, 
1678.00, 
1679.00, 
1680.00, 
1681.00, 
1682.00, 
1683.00, 
1684.00, 
1685.00, 
1686.00, 
1687.00, 
1688.00, 
1689.00, 
1690.00, 
1691.00, 
1692.00, 
1693.00, 
1694.00, 
1695.00, 
1696.00, 
1697.00, 
1698.00, 
1699.00, 
1700.00, 
1701.00, 
1702.00, 
1703.00, 
1704.00, 
1705.00, 
1706.00, 
1707.00, 
1708.00, 
1709.00, 
1710.00, 
1711.00, 
1712.00, 
1713.00, 
1714.00, 
1715.00, 
1716.00, 
1717.00, 
1718.00, 
1719.00, 
1720.00, 
1721.00, 
1722.00, 
1723.00, 
1724.00, 
1725.00, 
1726.00, 
1727.00, 
1728.00, 
1729.00, 
1730.00, 
1731.00, 
1732.00, 
1733.00, 
1734.00, 
1735.00, 
1736.00, 
1737.00, 
1738.00, 
1739.00, 
1740.00, 
1741.00, 
1742.00, 
1743.00, 
1744.00, 
1745.00, 
1746.00, 
1747.00, 
1748.00, 
1749.00, 
1750.00, 
1751.00, 
1752.00, 
1753.00, 
1754.00, 
1755.00, 
1756.00, 
1757.00, 
1758.00, 
1759.00, 
1760.00, 
1761.00, 
1762.00, 
1763.00, 
1764.00, 
1765.00, 
1766.00, 
1767.00, 
1768.00, 
1769.00, 
1770.00, 
1771.00, 
1772.00, 
1773.00, 
1774.00, 
1775.00, 
1776.00, 
1777.00, 
1778.00, 
1779.00, 
1780.00, 
1781.00, 
1782.00, 
1783.00, 
1784.00, 
1785.00, 
1786.00, 
1787.00, 
1788.00, 
1789.00, 
1790.00, 
1791.00, 
1792.00, 
1793.00, 
1794.00, 
1795.00, 
1796.00, 
1797.00, 
1798.00, 
1799.00, 
1800.00, 
1801.00, 
1802.00, 
1803.00, 
1804.00, 
1805.00, 
1806.00, 
1807.00, 
1808.00, 
1809.00, 
1810.00, 
1811.00, 
1812.00, 
1813.00, 
1814.00, 
1815.00, 
1816.00, 
1817.00, 
1818.00, 
1819.00, 
1820.00, 
1821.00, 
1822.00, 
1823.00, 
1824.00, 
1825.00, 
1826.00, 
1827.00, 
1828.00, 
1829.00, 
1830.00, 
1831.00, 
1832.00, 
1833.00, 
1834.00, 
1835.00, 
1836.00, 
1837.00, 
1838.00, 
1839.00, 
1840.00, 
1841.00, 
1842.00, 
1843.00, 
1844.00, 
1845.00, 
1846.00, 
1847.00, 
1848.00, 
1849.00, 
1850.00, 
1851.00, 
1852.00, 
1853.00, 
1854.00, 
1855.00, 
1856.00, 
1857.00, 
1858.00, 
1859.00, 
1860.00, 
1861.00, 
1862.00, 
1863.00, 
1864.00, 
1865.00, 
1866.00, 
1867.00, 
1868.00, 
1869.00, 
1870.00, 
1871.00, 
1872.00, 
1873.00, 
1874.00, 
1875.00, 
1876.00, 
1877.00, 
1878.00, 
1879.00, 
1880.00, 
1881.00, 
1882.00, 
1883.00, 
1884.00, 
1885.00, 
1886.00, 
1887.00, 
1888.00, 
1889.00, 
1890.00, 
1891.00, 
1892.00, 
1893.00, 
1894.00, 
1895.00, 
1896.00, 
1897.00, 
1898.00, 
1899.00, 
1900.00, 
1901.00, 
1902.00, 
1903.00, 
1904.00, 
1905.00, 
1906.00, 
1907.00, 
1908.00, 
1909.00, 
1910.00, 
1911.00, 
1912.00, 
1913.00, 
1914.00, 
1915.00, 
1916.00, 
1917.00, 
1918.00, 
1919.00, 
1920.00, 
1921.00, 
1922.00, 
1923.00, 
1924.00, 
1925.00, 
1926.00, 
1927.00, 
1928.00, 
1929.00, 
1930.00, 
1931.00, 
1932.00, 
1933.00, 
1934.00, 
1935.00, 
1936.00, 
1937.00, 
1938.00, 
1939.00, 
1940.00, 
1941.00, 
1942.00, 
1943.00, 
1944.00, 
1945.00, 
1946.00, 
1947.00, 
1948.00, 
1949.00, 
1950.00, 
1951.00, 
1952.00, 
1953.00, 
1954.00, 
1955.00, 
1956.00, 
1957.00, 
1958.00, 
1959.00, 
1960.00, 
1961.00, 
1962.00, 
1963.00, 
1964.00, 
1965.00, 
1966.00, 
1967.00, 
1968.00, 
1969.00, 
1970.00, 
1971.00, 
1972.00, 
1973.00, 
1974.00, 
1975.00, 
1976.00, 
1977.00, 
1978.00, 
1979.00, 
1980.00, 
1981.00, 
1982.00, 
1983.00, 
1984.00, 
1985.00, 
1986.00, 
1987.00, 
1988.00, 
1989.00, 
1990.00, 
1991.00, 
1992.00, 
1993.00, 
1994.00, 
1995.00, 
1996.00, 
1997.00, 
1998.00, 
1999.00, 
2000.00, 
2001.00, 
2002.00, 
2003.00, 
2004.00, 
2005.00, 
2006.00, 
2007.00, 
2008.00, 
2009.00, 
2010.00, 
2011.00, 
2012.00, 
2013.00, 
2014.00, 
2015.00, 
2016.00, 
2017.00, 
2018.00, 
2019.00, 
2020.00, 
2021.00, 
2022.00, 
2023.00, 
2024.00, 
2025.00, 
2026.00, 
2027.00, 
2028.00, 
2029.00, 
2030.00, 
2031.00, 
2032.00, 
2033.00, 
2034.00, 
2035.00, 
2036.00, 
2037.00, 
2038.00, 
2039.00, 
2040.00, 
2041.00, 
2042.00, 
2043.00, 
2044.00, 
2045.00, 
2046.00, 
2047.00, 
2048.00, 
2049.00, 
2050.00, 
2051.00, 
2052.00, 
2053.00, 
2054.00, 
2055.00, 
2056.00, 
2057.00, 
2058.00, 
2059.00, 
2060.00, 
2061.00, 
2062.00, 
2063.00, 
2064.00, 
2065.00, 
2066.00, 
2067.00, 
2068.00, 
2069.00, 
2070.00, 
2071.00, 
2072.00, 
2073.00, 
2074.00, 
2075.00, 
2076.00, 
2077.00, 
2078.00, 
2079.00, 
2080.00, 
2081.00, 
2082.00, 
2083.00, 
2084.00, 
2085.00, 
2086.00, 
2087.00, 
2088.00, 
2089.00, 
2090.00, 
2091.00, 
2092.00, 
2093.00, 
2094.00, 
2095.00, 
2096.00, 
2097.00, 
2098.00, 
2099.00, 
2100.00, 
2101.00, 
2102.00, 
2103.00, 
2104.00, 
2105.00, 
2106.00, 
2107.00, 
2108.00, 
2109.00, 
2110.00, 
2111.00, 
2112.00, 
2113.00, 
2114.00, 
2115.00, 
2116.00, 
2117.00, 
2118.00, 
2119.00, 
2120.00, 
2121.00, 
2122.00, 
2123.00, 
2124.00, 
2125.00, 
2126.00, 
2127.00, 
2128.00, 
2129.00, 
2130.00, 
2131.00, 
2132.00, 
2133.00, 
2134.00, 
2135.00, 
2136.00, 
2137.00, 
2138.00, 
2139.00, 
2140.00, 
2141.00, 
2142.00, 
2143.00, 
2144.00, 
2145.00, 
2146.00, 
2147.00, 
2148.00, 
2149.00, 
2150.00, 
2151.00, 
2152.00, 
2153.00, 
2154.00, 
2155.00, 
2156.00, 
2157.00, 
2158.00, 
2159.00, 
2160.00, 
2161.00, 
2162.00, 
2163.00, 
2164.00, 
2165.00, 
2166.00, 
2167.00, 
2168.00, 
2169.00, 
2170.00, 
2171.00, 
2172.00, 
2173.00, 
2174.00, 
2175.00, 
2176.00, 
2177.00, 
2178.00, 
2179.00, 
2180.00, 
2181.00, 
2182.00, 
2183.00, 
2184.00, 
2185.00, 
2186.00, 
2187.00, 
2188.00, 
2189.00, 
2190.00, 
2191.00, 
2192.00, 
2193.00, 
2194.00, 
2195.00, 
2196.00, 
2197.00, 
2198.00, 
2199.00, 
2200.00, 
2201.00, 
2202.00, 
2203.00, 
2204.00, 
2205.00, 
2206.00, 
2207.00, 
2208.00, 
2209.00, 
2210.00, 
2211.00, 
2212.00, 
2213.00, 
2214.00, 
2215.00, 
2216.00, 
2217.00, 
2218.00, 
2219.00, 
2220.00, 
2221.00, 
2222.00, 
2223.00, 
2224.00, 
2225.00, 
2226.00, 
2227.00, 
2228.00, 
2229.00, 
2230.00, 
2231.00, 
2232.00, 
2233.00, 
2234.00, 
2235.00, 
2236.00, 
2237.00, 
2238.00, 
2239.00, 
2240.00, 
2241.00, 
2242.00, 
2243.00, 
2244.00, 
2245.00, 
2246.00, 
2247.00, 
2248.00, 
2249.00, 
2250.00, 
2251.00, 
2252.00, 
2253.00, 
2254.00, 
2255.00, 
2256.00, 
2257.00, 
2258.00, 
2259.00, 
2260.00, 
2261.00, 
2262.00, 
2263.00, 
2264.00, 
2265.00, 
2266.00, 
2267.00, 
2268.00, 
2269.00, 
2270.00, 
2271.00, 
2272.00, 
2273.00, 
2274.00, 
2275.00, 
2276.00, 
2277.00, 
2278.00, 
2279.00, 
2280.00, 
2281.00, 
2282.00, 
2283.00, 
2284.00, 
2285.00, 
2286.00, 
2287.00, 
2288.00, 
2289.00, 
2290.00, 
2291.00, 
2292.00, 
2293.00, 
2294.00, 
2295.00, 
2296.00, 
2297.00, 
2298.00, 
2299.00, 
2300.00, 
2301.00, 
2302.00, 
2303.00, 
2304.00, 
2305.00, 
2306.00, 
2307.00, 
2308.00, 
2309.00, 
2310.00, 
2311.00, 
2312.00, 
2313.00, 
2314.00, 
2315.00, 
2316.00, 
2317.00, 
2318.00, 
2319.00, 
2320.00, 
2321.00, 
2322.00, 
2323.00, 
2324.00, 
2325.00, 
2326.00, 
2327.00, 
2328.00, 
2329.00, 
2330.00, 
2331.00, 
2332.00, 
2333.00, 
2334.00, 
2335.00, 
2336.00, 
2337.00, 
2338.00, 
2339.00, 
2340.00, 
2341.00, 
2342.00, 
2343.00, 
2344.00, 
2345.00, 
2346.00, 
2347.00, 
2348.00, 
2349.00, 
2350.00, 
2351.00, 
2352.00, 
2353.00, 
2354.00, 
2355.00, 
2356.00, 
2357.00, 
2358.00, 
2359.00, 
2360.00, 
2361.00, 
2362.00, 
2363.00, 
2364.00, 
2365.00, 
2366.00, 
2367.00, 
2368.00, 
2369.00, 
2370.00, 
2371.00, 
2372.00, 
2373.00, 
2374.00, 
2375.00, 
2376.00, 
2377.00, 
2378.00, 
2379.00, 
2380.00, 
2381.00, 
2382.00, 
2383.00, 
2384.00, 
2385.00, 
2386.00, 
2387.00, 
2388.00, 
2389.00, 
2390.00, 
2391.00, 
2392.00, 
2393.00, 
2394.00, 
2395.00, 
2396.00, 
2397.00, 
2398.00, 
2399.00, 
2400.00, 
2401.00, 
2402.00, 
2403.00, 
2404.00, 
2405.00, 
2406.00, 
2407.00, 
2408.00, 
2409.00, 
2410.00, 
2411.00, 
2412.00, 
2413.00, 
2414.00, 
2415.00, 
2416.00, 
2417.00, 
2418.00, 
2419.00, 
2420.00, 
2421.00, 
2422.00, 
2423.00, 
2424.00, 
2425.00, 
2426.00, 
2427.00, 
2428.00, 
2429.00, 
2430.00, 
2431.00, 
2432.00, 
2433.00, 
2434.00, 
2435.00, 
2436.00, 
2437.00, 
2438.00, 
2439.00, 
2440.00, 
2441.00, 
2442.00, 
2443.00, 
2444.00, 
2445.00, 
2446.00, 
2447.00, 
2448.00, 
2449.00, 
2450.00, 
2451.00, 
2452.00, 
2453.00, 
2454.00, 
2455.00, 
2456.00, 
2457.00, 
2458.00, 
2459.00, 
2460.00, 
2461.00, 
2462.00, 
2463.00, 
2464.00, 
2465.00, 
2466.00, 
2467.00, 
2468.00, 
2469.00, 
2470.00, 
2471.00, 
2472.00, 
2473.00, 
2474.00, 
2475.00, 
2476.00, 
2477.00, 
2478.00, 
2479.00, 
2480.00, 
2481.00, 
2482.00, 
2483.00, 
2484.00, 
2485.00, 
2486.00, 
2487.00, 
2488.00, 
2489.00, 
2490.00, 
2491.00, 
2492.00, 
2493.00, 
2494.00, 
2495.00, 
2496.00, 
2497.00, 
2498.00, 
2499.00, 
2500.00, 
2501.00, 
2502.00, 
2503.00, 
2504.00, 
2505.00, 
2506.00, 
2507.00, 
2508.00, 
2509.00, 
2510.00, 
2511.00, 
2512.00, 
2513.00, 
2514.00, 
2515.00, 
2516.00, 
2517.00, 
2518.00, 
2519.00, 
2520.00, 
2521.00, 
2522.00, 
2523.00, 
2524.00, 
2525.00, 
2526.00, 
2527.00, 
2528.00, 
2529.00, 
2530.00, 
2531.00, 
2532.00, 
2533.00, 
2534.00, 
2535.00, 
2536.00, 
2537.00, 
2538.00, 
2539.00, 
2540.00, 
2541.00, 
2542.00, 
2543.00, 
2544.00, 
2545.00, 
2546.00, 
2547.00, 
2548.00, 
2549.00, 
2550.00, 
2551.00, 
2552.00, 
2553.00, 
2554.00, 
2555.00, 
2556.00, 
2557.00, 
2558.00, 
2559.00, 
2560.00, 
2561.00, 
2562.00, 
2563.00, 
2564.00, 
2565.00, 
2566.00, 
2567.00, 
2568.00, 
2569.00, 
2570.00, 
2571.00, 
2572.00, 
2573.00, 
2574.00, 
2575.00, 
2576.00, 
2577.00, 
2578.00, 
2579.00, 
2580.00, 
2581.00, 
2582.00, 
2583.00, 
2584.00, 
2585.00, 
2586.00, 
2587.00, 
2588.00, 
2589.00, 
2590.00, 
2591.00, 
2592.00, 
2593.00, 
2594.00, 
2595.00, 
2596.00, 
2597.00, 
2598.00, 
2599.00, 
2600.00, 
