"1cP2 - RawData"
"Wavelength nm.","T%"
200.00,0.004
201.00,0.005
202.00,0.003
203.00,-0.000
204.00,0.000
205.00,0.002
206.00,0.001
207.00,0.001
208.00,0.000
209.00,0.000
210.00,0.001
211.00,0.002
212.00,0.002
213.00,-0.000
214.00,0.000
215.00,0.001
216.00,-0.001
217.00,0.001
218.00,0.003
219.00,0.003
220.00,0.002
221.00,-0.001
222.00,0.002
223.00,0.000
224.00,0.003
225.00,-0.000
226.00,0.003
227.00,0.001
228.00,-0.000
229.00,0.001
230.00,-0.000
231.00,0.000
232.00,-0.000
233.00,0.000
234.00,0.002
235.00,-0.003
236.00,0.001
237.00,0.002
238.00,0.000
239.00,-0.001
240.00,-0.000
241.00,0.000
242.00,0.002
243.00,0.002
244.00,-0.001
245.00,0.000
246.00,0.001
247.00,0.002
248.00,-0.001
249.00,-0.001
250.00,0.000
251.00,0.002
252.00,0.002
253.00,-0.000
254.00,-0.000
255.00,0.000
256.00,-0.000
257.00,0.001
258.00,-0.000
259.00,0.002
260.00,0.000
261.00,-0.000
262.00,0.000
263.00,0.001
264.00,-0.000
265.00,-0.000
266.00,-0.000
267.00,0.001
268.00,0.000
269.00,-0.001
270.00,0.000
271.00,-0.001
272.00,0.000
273.00,-0.000
274.00,0.001
275.00,0.000
276.00,0.001
277.00,-0.001
278.00,-0.001
279.00,-0.001
280.00,0.000
281.00,0.000
282.00,-0.001
283.00,-0.001
284.00,0.002
285.00,0.002
286.00,-0.000
287.00,-0.000
288.00,-0.001
289.00,0.000
290.00,0.001
291.00,0.003
292.00,-0.001
293.00,0.000
294.00,0.002
295.00,0.001
296.00,-0.001
297.00,0.001
298.00,0.000
299.00,-0.000
300.00,-0.001
301.00,0.000
302.00,0.002
303.00,-0.000
304.00,0.000
305.00,0.004
306.00,0.005
307.00,0.005
308.00,0.010
309.00,0.018
310.00,0.029
311.00,0.041
312.00,0.067
313.00,0.103
314.00,0.153
315.00,0.227
316.00,0.323
317.00,0.465
318.00,0.625
319.00,0.842
320.00,1.138
321.00,1.463
322.00,1.881
323.00,2.369
324.00,2.951
325.00,3.572
326.00,4.245
327.00,5.056
328.00,5.904
329.00,6.820
330.00,7.818
331.00,8.868
332.00,9.945
333.00,11.193
334.00,12.335
335.00,13.579
336.00,14.829
337.00,16.178
338.00,17.410
339.00,18.583
340.00,19.858
341.00,21.140
342.00,22.304
343.00,23.416
344.00,24.615
345.00,25.676
346.00,26.732
347.00,27.721
348.00,28.686
349.00,29.491
350.00,30.379
351.00,31.106
352.00,31.946
353.00,32.735
354.00,33.359
355.00,34.029
356.00,34.587
357.00,35.210
358.00,35.816
359.00,36.413
360.00,36.914
361.00,37.293
362.00,37.730
363.00,38.058
364.00,38.284
365.00,38.600
366.00,39.031
367.00,38.978
368.00,39.347
369.00,39.554
370.00,39.759
371.00,39.874
372.00,39.855
373.00,39.932
374.00,40.017
375.00,40.098
376.00,39.942
377.00,39.876
378.00,39.782
379.00,39.678
380.00,39.706
381.00,39.717
382.00,39.839
383.00,39.957
384.00,40.082
385.00,40.293
386.00,40.349
387.00,40.674
388.00,40.911
389.00,41.038
390.00,41.220
391.00,41.214
392.00,41.432
393.00,41.521
394.00,41.674
395.00,41.785
396.00,41.797
397.00,41.931
398.00,41.977
399.00,42.071
400.00,42.097
401.00,42.079
402.00,42.130
403.00,42.163
404.00,42.200
405.00,42.143
406.00,42.219
407.00,42.136
408.00,42.144
409.00,42.016
410.00,41.937
411.00,41.990
412.00,41.913
413.00,41.910
414.00,41.780
415.00,41.881
416.00,41.929
417.00,41.843
418.00,41.900
419.00,41.987
420.00,42.063
421.00,42.033
422.00,42.016
423.00,42.052
424.00,42.096
425.00,42.118
426.00,42.121
427.00,42.228
428.00,42.239
429.00,42.254
430.00,42.349
431.00,42.244
432.00,42.248
433.00,42.252
434.00,42.325
435.00,42.387
436.00,42.354
437.00,42.379
438.00,42.406
439.00,42.458
440.00,42.536
441.00,42.577
442.00,42.614
443.00,42.592
444.00,42.741
445.00,42.769
446.00,42.854
447.00,42.855
448.00,42.977
449.00,43.070
450.00,43.131
451.00,43.182
452.00,43.235
453.00,43.287
454.00,43.293
455.00,43.354
456.00,43.471
457.00,43.512
458.00,43.565
459.00,43.700
460.00,43.791
461.00,43.863
462.00,43.904
463.00,44.017
464.00,44.073
465.00,44.133
466.00,44.212
467.00,44.270
468.00,44.319
469.00,44.348
470.00,44.368
471.00,44.352
472.00,44.444
473.00,44.406
474.00,44.472
475.00,44.494
476.00,44.486
477.00,44.550
478.00,44.610
479.00,44.775
480.00,44.826
481.00,44.746
482.00,44.973
483.00,44.959
484.00,45.160
485.00,45.194
486.00,45.322
487.00,45.450
488.00,45.504
489.00,45.645
490.00,45.718
491.00,45.793
492.00,45.965
493.00,46.057
494.00,45.872
495.00,46.022
496.00,46.060
497.00,46.130
498.00,46.245
499.00,46.297
500.00,46.352
501.00,46.446
502.00,46.476
503.00,46.534
504.00,46.557
505.00,46.606
506.00,46.645
507.00,46.636
508.00,46.706
509.00,46.807
510.00,46.908
511.00,46.973
512.00,47.094
513.00,47.237
514.00,47.341
515.00,47.301
516.00,47.331
517.00,47.369
518.00,47.516
519.00,47.451
520.00,47.406
521.00,47.489
522.00,47.463
523.00,47.441
524.00,47.516
525.00,47.575
526.00,47.671
527.00,47.663
528.00,47.702
529.00,47.883
530.00,48.009
531.00,48.042
532.00,48.057
533.00,48.176
534.00,48.269
535.00,48.246
536.00,48.202
537.00,48.348
538.00,48.305
539.00,48.362
540.00,48.392
541.00,48.432
542.00,48.403
543.00,48.454
544.00,48.544
545.00,48.557
546.00,48.558
547.00,48.616
548.00,48.681
549.00,48.725
550.00,48.778
551.00,48.896
552.00,48.920
553.00,48.916
554.00,49.015
555.00,49.007
556.00,49.029
557.00,49.102
558.00,49.092
559.00,49.170
560.00,49.245
561.00,49.242
562.00,49.300
563.00,49.280
564.00,49.323
565.00,49.337
566.00,49.254
567.00,49.315
568.00,49.288
569.00,49.310
570.00,49.351
571.00,49.336
572.00,49.329
573.00,49.213
574.00,49.274
575.00,49.213
576.00,49.163
577.00,49.244
578.00,49.312
579.00,49.456
580.00,49.414
581.00,49.518
582.00,49.546
583.00,49.535
584.00,49.705
585.00,49.797
586.00,49.794
587.00,49.857
588.00,49.864
589.00,49.704
590.00,49.774
591.00,49.849
592.00,49.718
593.00,49.756
594.00,49.798
595.00,49.965
596.00,49.983
597.00,50.006
598.00,50.062
599.00,49.971
600.00,50.008
601.00,50.033
602.00,49.997
603.00,49.979
604.00,49.995
605.00,50.039
606.00,49.983
607.00,50.050
608.00,50.138
609.00,50.240
610.00,50.041
611.00,50.126
612.00,50.077
613.00,50.088
614.00,50.111
615.00,50.189
616.00,50.290
617.00,50.212
618.00,50.088
619.00,50.191
620.00,50.239
621.00,50.274
622.00,50.174
623.00,50.192
624.00,50.298
625.00,50.300
626.00,50.318
627.00,50.343
628.00,50.305
629.00,50.260
630.00,50.208
631.00,50.279
632.00,50.306
633.00,50.355
634.00,50.401
635.00,50.483
636.00,50.448
637.00,50.379
638.00,50.383
639.00,50.467
640.00,50.449
641.00,50.408
642.00,50.457
643.00,50.434
644.00,50.493
645.00,50.492
646.00,50.608
647.00,50.555
648.00,50.493
649.00,50.511
650.00,50.443
651.00,50.571
652.00,50.552
653.00,50.475
654.00,50.490
655.00,50.645
656.00,50.871
657.00,50.671
658.00,50.785
659.00,50.667
660.00,50.696
661.00,50.674
662.00,50.628
663.00,50.645
664.00,50.874
665.00,50.920
666.00,50.802
667.00,50.807
668.00,50.745
669.00,50.970
670.00,51.086
671.00,50.851
672.00,50.965
673.00,50.870
674.00,50.875
675.00,50.953
676.00,51.114
677.00,51.118
678.00,50.694
679.00,50.968
680.00,50.803
681.00,51.005
682.00,50.898
683.00,50.659
684.00,50.679
685.00,51.091
686.00,51.147
687.00,50.790
688.00,50.818
689.00,50.783
690.00,51.100
691.00,51.258
692.00,50.851
693.00,50.840
694.00,50.951
695.00,51.086
696.00,51.050
697.00,50.950
698.00,50.889
699.00,51.124
700.00,51.046
701.00,50.968
702.00,51.011
703.00,51.173
704.00,51.035
705.00,50.920
706.00,51.030
707.00,50.984
708.00,50.749
709.00,51.119
710.00,51.431
711.00,50.945
712.00,50.855
713.00,50.994
714.00,50.933
715.00,50.937
716.00,50.860
717.00,50.905
718.00,50.992
719.00,50.807
720.00,50.889
721.00,55.674
722.00,55.610
723.00,55.450
724.00,55.500
725.00,55.452
726.00,55.443
727.00,55.287
728.00,55.238
729.00,55.227
730.00,55.151
731.00,55.223
732.00,55.046
733.00,55.113
734.00,55.074
735.00,55.121
736.00,54.901
737.00,54.949
738.00,54.941
739.00,54.841
740.00,54.884
741.00,54.729
742.00,54.761
743.00,54.756
744.00,54.696
745.00,54.642
746.00,54.620
747.00,54.502
748.00,54.434
749.00,54.385
750.00,54.345
751.00,54.209
752.00,54.216
753.00,54.204
754.00,54.134
755.00,54.156
756.00,54.103
757.00,54.045
758.00,54.039
759.00,53.963
760.00,53.950
761.00,53.958
762.00,53.871
763.00,53.803
764.00,53.819
765.00,53.720
766.00,53.657
767.00,53.665
768.00,53.638
769.00,53.651
770.00,53.622
771.00,53.601
772.00,53.596
773.00,53.511
774.00,53.526
775.00,53.466
776.00,53.356
777.00,53.352
778.00,53.364
779.00,53.405
780.00,53.307
781.00,53.290
782.00,53.274
783.00,53.195
784.00,53.166
785.00,53.088
786.00,53.164
787.00,53.093
788.00,52.986
789.00,52.997
790.00,52.863
791.00,52.910
792.00,52.858
793.00,52.770
794.00,52.805
795.00,52.721
796.00,52.671
797.00,52.641
798.00,52.673
799.00,52.578
800.00,52.463
801.00,52.513
802.00,52.515
803.00,52.435
804.00,52.435
805.00,52.372
806.00,52.326
807.00,52.308
808.00,52.290
809.00,52.264
810.00,52.115
811.00,52.178
812.00,52.161
813.00,52.040
814.00,52.091
815.00,52.083
816.00,52.093
817.00,52.071
818.00,51.929
819.00,51.937
820.00,51.870
821.00,51.822
822.00,51.797
823.00,51.723
824.00,51.742
825.00,51.694
826.00,51.734
827.00,51.676
828.00,51.692
829.00,51.610
830.00,51.622
831.00,53.946
832.00,53.963
833.00,53.881
834.00,53.866
835.00,53.826
836.00,53.822
837.00,53.807
838.00,53.753
839.00,53.707
840.00,53.630
841.00,53.651
842.00,53.608
843.00,53.593
844.00,53.585
845.00,53.524
846.00,53.516
847.00,53.501
848.00,53.495
849.00,53.370
850.00,53.348
851.00,53.343
852.00,53.301
853.00,53.203
854.00,53.179
855.00,53.119
856.00,53.120
857.00,53.090
858.00,53.025
859.00,53.019
860.00,52.995
861.00,53.021
862.00,52.936
863.00,52.968
864.00,52.885
865.00,52.925
866.00,52.931
867.00,52.865
868.00,52.822
869.00,52.783
870.00,52.823
871.00,52.775
872.00,52.787
873.00,52.771
874.00,52.773
875.00,52.693
876.00,52.718
877.00,52.679
878.00,52.679
879.00,52.652
880.00,52.649
881.00,52.534
882.00,52.766
883.00,52.550
884.00,52.484
885.00,52.474
886.00,52.452
887.00,52.435
888.00,52.411
889.00,52.396
890.00,52.354
891.00,52.361
892.00,52.297
893.00,52.280
894.00,52.281
895.00,52.241
896.00,52.210
897.00,52.188
898.00,52.150
899.00,52.183
900.00,52.131
901.00,52.144
902.00,52.141
903.00,52.083
904.00,52.086
905.00,51.934
906.00,52.030
907.00,51.998
908.00,51.956
909.00,51.933
910.00,51.940
911.00,51.911
912.00,51.907
913.00,51.830
914.00,51.848
915.00,51.814
916.00,51.783
917.00,51.765
918.00,51.747
919.00,51.699
920.00,51.636
921.00,51.662
922.00,51.656
923.00,51.625
924.00,51.584
925.00,51.599
926.00,51.585
927.00,51.545
928.00,51.516
929.00,51.538
930.00,51.470
931.00,51.453
932.00,51.436
933.00,51.463
934.00,51.472
935.00,51.321
936.00,51.447
937.00,51.343
938.00,51.313
939.00,51.301
940.00,51.269
941.00,51.269
942.00,51.223
943.00,51.217
944.00,51.157
945.00,51.173
946.00,51.146
947.00,51.106
948.00,51.088
949.00,51.068
950.00,51.061
951.00,51.019
952.00,51.017
953.00,50.981
954.00,50.970
955.00,50.910
956.00,50.904
957.00,50.868
958.00,50.870
959.00,50.815
960.00,50.820
961.00,50.808
962.00,50.802
963.00,50.751
964.00,50.763
965.00,50.751
966.00,50.706
967.00,50.724
968.00,50.692
969.00,50.736
970.00,50.673
971.00,50.715
972.00,50.672
973.00,50.718
974.00,50.721
975.00,50.685
976.00,50.714
977.00,50.689
978.00,50.719
979.00,50.667
980.00,50.679
981.00,50.667
982.00,50.621
983.00,50.663
984.00,50.649
985.00,50.654
986.00,50.626
987.00,50.643
988.00,50.604
989.00,50.616
990.00,50.618
991.00,50.585
992.00,50.603
993.00,50.543
994.00,50.540
995.00,50.533
996.00,50.515
997.00,50.511
998.00,50.471
999.00,50.496
1000.00,50.442
1001.00,50.446
1002.00,50.430
1003.00,50.426
1004.00,50.396
1005.00,50.372
1006.00,50.413
1007.00,50.358
1008.00,50.346
1009.00,50.318
1010.00,50.313
1011.00,50.312
1012.00,50.272
1013.00,50.287
1014.00,50.252
1015.00,50.270
1016.00,50.230
1017.00,50.219
1018.00,50.223
1019.00,50.181
1020.00,50.186
1021.00,50.153
1022.00,50.168
1023.00,50.114
1024.00,50.118
1025.00,50.109
1026.00,50.081
1027.00,50.053
1028.00,50.064
1029.00,50.044
1030.00,50.002
1031.00,50.017
1032.00,49.965
1033.00,49.969
1034.00,49.946
1035.00,49.890
1036.00,49.894
1037.00,49.870
1038.00,49.867
1039.00,49.834
1040.00,49.813
1041.00,49.803
1042.00,49.807
1043.00,49.778
1044.00,49.798
1045.00,49.768
1046.00,49.751
1047.00,49.787
1048.00,49.782
1049.00,49.798
1050.00,49.799
1051.00,49.845
1052.00,49.831
1053.00,49.838
1054.00,49.828
1055.00,49.881
1056.00,49.892
1057.00,49.895
1058.00,49.870
1059.00,49.855
1060.00,49.873
1061.00,49.844
1062.00,49.829
1063.00,49.845
1064.00,49.847
1065.00,49.827
1066.00,49.827
1067.00,49.816
1068.00,49.829
1069.00,49.803
1070.00,49.776
1071.00,49.772
1072.00,49.796
1073.00,49.762
1074.00,49.767
1075.00,49.740
1076.00,49.748
1077.00,49.731
1078.00,49.699
1079.00,49.710
1080.00,49.727
1081.00,49.717
1082.00,49.700
1083.00,49.711
1084.00,49.694
1085.00,49.703
1086.00,49.684
1087.00,49.671
1088.00,49.648
1089.00,49.630
1090.00,49.622
1091.00,49.636
1092.00,49.617
1093.00,49.610
1094.00,49.585
1095.00,49.573
1096.00,49.530
1097.00,49.547
1098.00,49.552
1099.00,49.547
1100.00,49.531
1101.00,49.531
1102.00,49.525
1103.00,49.522
1104.00,49.516
1105.00,49.514
1106.00,49.473
1107.00,49.497
1108.00,49.483
1109.00,49.489
1110.00,49.465
1111.00,49.470
1112.00,49.447
1113.00,49.450
1114.00,49.428
1115.00,49.441
1116.00,49.431
1117.00,49.406
1118.00,49.394
1119.00,49.398
1120.00,49.381
1121.00,49.389
1122.00,49.368
1123.00,49.365
1124.00,49.358
1125.00,49.368
1126.00,49.361
1127.00,49.375
1128.00,49.347
1129.00,49.347
1130.00,49.334
1131.00,49.326
1132.00,49.312
1133.00,49.317
1134.00,49.301
1135.00,49.307
1136.00,49.292
1137.00,49.296
1138.00,49.286
1139.00,49.295
1140.00,49.288
1141.00,49.285
1142.00,49.273
1143.00,49.289
1144.00,49.257
1145.00,49.264
1146.00,49.258
1147.00,49.259
1148.00,49.234
1149.00,49.262
1150.00,49.257
1151.00,49.250
1152.00,49.250
1153.00,49.237
1154.00,49.235
1155.00,49.258
1156.00,49.227
1157.00,49.246
1158.00,49.231
1159.00,49.233
1160.00,49.232
1161.00,49.238
1162.00,49.224
1163.00,49.221
1164.00,49.221
1165.00,49.220
1166.00,49.236
1167.00,49.209
1168.00,49.251
1169.00,49.227
1170.00,49.237
1171.00,49.210
1172.00,49.203
1173.00,49.207
1174.00,49.205
1175.00,49.200
1176.00,49.209
1177.00,49.202
1178.00,49.183
1179.00,49.209
1180.00,49.199
1181.00,49.235
1182.00,49.214
1183.00,49.212
1184.00,49.209
1185.00,49.213
1186.00,49.204
1187.00,49.204
1188.00,49.209
1189.00,49.207
1190.00,49.213
1191.00,49.195
1192.00,49.220
1193.00,49.211
1194.00,49.206
1195.00,49.183
1196.00,49.213
1197.00,49.197
1198.00,49.194
1199.00,49.203
1200.00,49.210
1201.00,49.238
1202.00,49.203
1203.00,49.217
1204.00,49.205
1205.00,49.214
1206.00,49.203
1207.00,49.199
1208.00,49.189
1209.00,49.189
1210.00,49.205
1211.00,49.190
1212.00,49.234
1213.00,49.207
1214.00,49.242
1215.00,49.221
1216.00,49.213
1217.00,49.228
1218.00,49.203
1219.00,49.209
1220.00,49.186
1221.00,49.223
1222.00,49.206
1223.00,49.243
1224.00,49.221
1225.00,49.196
1226.00,49.223
1227.00,49.216
1228.00,49.242
1229.00,49.228
1230.00,49.262
1231.00,49.262
1232.00,49.274
1233.00,49.276
1234.00,49.281
1235.00,49.277
1236.00,49.273
1237.00,49.290
1238.00,49.261
1239.00,49.279
1240.00,49.264
1241.00,49.294
1242.00,49.292
1243.00,49.298
1244.00,49.282
1245.00,49.327
1246.00,49.320
1247.00,49.320
1248.00,49.317
1249.00,49.327
1250.00,49.361
1251.00,49.320
1252.00,49.335
1253.00,49.320
1254.00,49.363
1255.00,49.352
1256.00,49.346
1257.00,49.345
1258.00,49.395
1259.00,49.388
1260.00,49.411
1261.00,49.417
1262.00,49.432
1263.00,49.410
1264.00,49.394
1265.00,49.394
1266.00,49.393
1267.00,49.427
1268.00,49.421
1269.00,49.422
1270.00,49.435
1271.00,49.433
1272.00,49.438
1273.00,49.464
1274.00,49.457
1275.00,49.477
1276.00,49.463
1277.00,49.469
1278.00,49.482
1279.00,49.483
1280.00,49.474
1281.00,49.494
1282.00,49.496
1283.00,49.491
1284.00,49.504
1285.00,49.497
1286.00,49.517
1287.00,49.512
1288.00,49.521
1289.00,49.515
1290.00,49.540
1291.00,49.530
1292.00,49.534
1293.00,49.532
1294.00,49.570
1295.00,49.566
1296.00,49.562
1297.00,49.576
1298.00,49.615
1299.00,49.598
1300.00,49.625
1301.00,49.618
1302.00,49.633
1303.00,49.634
1304.00,49.624
1305.00,49.639
1306.00,49.643
1307.00,49.658
1308.00,49.665
1309.00,49.679
1310.00,49.645
1311.00,49.648
1312.00,49.660
1313.00,49.693
1314.00,49.706
1315.00,49.712
1316.00,49.709
1317.00,49.741
1318.00,49.737
1319.00,49.737
1320.00,49.744
1321.00,49.913
1322.00,49.899
1323.00,49.867
1324.00,49.863
1325.00,49.871
1326.00,49.899
1327.00,49.881
1328.00,49.895
1329.00,49.890
1330.00,49.893
1331.00,49.897
1332.00,49.889
1333.00,49.908
1334.00,49.945
1335.00,49.957
1336.00,50.007
1337.00,50.037
1338.00,50.108
1339.00,50.154
1340.00,50.206
1341.00,50.268
1342.00,50.336
1343.00,50.381
1344.00,50.419
1345.00,50.485
1346.00,50.516
1347.00,50.546
1348.00,50.563
1349.00,50.568
1350.00,50.598
1351.00,50.599
1352.00,50.633
1353.00,50.626
1354.00,50.626
1355.00,50.592
1356.00,50.652
1357.00,50.631
1358.00,50.659
1359.00,50.688
1360.00,50.787
1361.00,51.109
1362.00,50.626
1363.00,50.727
1364.00,50.730
1365.00,50.678
1366.00,50.745
1367.00,50.684
1368.00,50.648
1369.00,50.725
1370.00,50.678
1371.00,50.643
1372.00,50.683
1373.00,50.685
1374.00,50.718
1375.00,50.694
1376.00,50.690
1377.00,50.695
1378.00,50.732
1379.00,50.670
1380.00,50.699
1381.00,50.683
1382.00,50.661
1383.00,50.692
1384.00,50.634
1385.00,50.662
1386.00,50.625
1387.00,50.657
1388.00,50.626
1389.00,50.620
1390.00,50.704
1391.00,50.649
1392.00,50.669
1393.00,50.633
1394.00,50.699
1395.00,50.654
1396.00,50.610
1397.00,50.648
1398.00,50.695
1399.00,50.692
1400.00,50.622
1401.00,50.638
1402.00,50.768
1403.00,50.689
1404.00,50.718
1405.00,50.714
1406.00,50.731
1407.00,50.595
1408.00,50.750
1409.00,50.718
1410.00,50.763
1411.00,50.782
1412.00,50.783
1413.00,50.738
1414.00,50.794
1415.00,50.799
1416.00,50.801
1417.00,50.818
1418.00,50.827
1419.00,50.879
1420.00,50.867
1421.00,50.947
1422.00,50.908
1423.00,50.936
1424.00,50.922
1425.00,50.951
1426.00,50.939
1427.00,50.984
1428.00,50.950
1429.00,50.984
1430.00,50.991
1431.00,51.012
1432.00,51.036
1433.00,51.056
1434.00,51.040
1435.00,51.112
1436.00,51.119
1437.00,51.118
1438.00,51.135
1439.00,51.160
1440.00,51.173
1441.00,51.186
1442.00,51.205
1443.00,51.236
1444.00,51.268
1445.00,51.232
1446.00,51.278
1447.00,51.291
1448.00,51.334
1449.00,51.322
1450.00,51.355
1451.00,51.369
1452.00,51.397
1453.00,51.374
1454.00,51.422
1455.00,51.437
1456.00,51.444
1457.00,51.451
1458.00,51.490
1459.00,51.493
1460.00,51.538
1461.00,51.527
1462.00,51.581
1463.00,51.591
1464.00,51.592
1465.00,51.626
1466.00,51.620
1467.00,51.644
1468.00,51.710
1469.00,51.669
1470.00,51.698
1471.00,51.717
1472.00,51.724
1473.00,51.723
1474.00,51.764
1475.00,51.759
1476.00,51.790
1477.00,51.775
1478.00,51.808
1479.00,51.826
1480.00,51.819
1481.00,51.829
1482.00,51.854
1483.00,51.863
1484.00,51.880
1485.00,51.893
1486.00,51.906
1487.00,51.938
1488.00,51.963
1489.00,51.926
1490.00,51.978
1491.00,51.997
1492.00,52.025
1493.00,51.982
1494.00,52.034
1495.00,52.012
1496.00,52.050
1497.00,52.026
1498.00,52.040
1499.00,52.044
1500.00,52.068
1501.00, 
1502.00, 
1503.00, 
1504.00, 
1505.00, 
1506.00, 
1507.00, 
1508.00, 
1509.00, 
1510.00, 
1511.00, 
1512.00, 
1513.00, 
1514.00, 
1515.00, 
1516.00, 
1517.00, 
1518.00, 
1519.00, 
1520.00, 
1521.00, 
1522.00, 
1523.00, 
1524.00, 
1525.00, 
1526.00, 
1527.00, 
1528.00, 
1529.00, 
1530.00, 
1531.00, 
1532.00, 
1533.00, 
1534.00, 
1535.00, 
1536.00, 
1537.00, 
1538.00, 
1539.00, 
1540.00, 
1541.00, 
1542.00, 
1543.00, 
1544.00, 
1545.00, 
1546.00, 
1547.00, 
1548.00, 
1549.00, 
1550.00, 
1551.00, 
1552.00, 
1553.00, 
1554.00, 
1555.00, 
1556.00, 
1557.00, 
1558.00, 
1559.00, 
1560.00, 
1561.00, 
1562.00, 
1563.00, 
1564.00, 
1565.00, 
1566.00, 
1567.00, 
1568.00, 
1569.00, 
1570.00, 
1571.00, 
1572.00, 
1573.00, 
1574.00, 
1575.00, 
1576.00, 
1577.00, 
1578.00, 
1579.00, 
1580.00, 
1581.00, 
1582.00, 
1583.00, 
1584.00, 
1585.00, 
1586.00, 
1587.00, 
1588.00, 
1589.00, 
1590.00, 
1591.00, 
1592.00, 
1593.00, 
1594.00, 
1595.00, 
1596.00, 
1597.00, 
1598.00, 
1599.00, 
1600.00, 
1601.00, 
1602.00, 
1603.00, 
1604.00, 
1605.00, 
1606.00, 
1607.00, 
1608.00, 
1609.00, 
1610.00, 
1611.00, 
1612.00, 
1613.00, 
1614.00, 
1615.00, 
1616.00, 
1617.00, 
1618.00, 
1619.00, 
1620.00, 
1621.00, 
1622.00, 
1623.00, 
1624.00, 
1625.00, 
1626.00, 
1627.00, 
1628.00, 
1629.00, 
1630.00, 
1631.00, 
1632.00, 
1633.00, 
1634.00, 
1635.00, 
1636.00, 
1637.00, 
1638.00, 
1639.00, 
1640.00, 
1641.00, 
1642.00, 
1643.00, 
1644.00, 
1645.00, 
1646.00, 
1647.00, 
1648.00, 
1649.00, 
1650.00, 
1651.00, 
1652.00, 
1653.00, 
1654.00, 
1655.00, 
1656.00, 
1657.00, 
1658.00, 
1659.00, 
1660.00, 
1661.00, 
1662.00, 
1663.00, 
1664.00, 
1665.00, 
1666.00, 
1667.00, 
1668.00, 
1669.00, 
1670.00, 
1671.00, 
1672.00, 
1673.00, 
1674.00, 
1675.00, 
1676.00, 
1677.00, 
1678.00, 
1679.00, 
1680.00, 
1681.00, 
1682.00, 
1683.00, 
1684.00, 
1685.00, 
1686.00, 
1687.00, 
1688.00, 
1689.00, 
1690.00, 
1691.00, 
1692.00, 
1693.00, 
1694.00, 
1695.00, 
1696.00, 
1697.00, 
1698.00, 
1699.00, 
1700.00, 
1701.00, 
1702.00, 
1703.00, 
1704.00, 
1705.00, 
1706.00, 
1707.00, 
1708.00, 
1709.00, 
1710.00, 
1711.00, 
1712.00, 
1713.00, 
1714.00, 
1715.00, 
1716.00, 
1717.00, 
1718.00, 
1719.00, 
1720.00, 
1721.00, 
1722.00, 
1723.00, 
1724.00, 
1725.00, 
1726.00, 
1727.00, 
1728.00, 
1729.00, 
1730.00, 
1731.00, 
1732.00, 
1733.00, 
1734.00, 
1735.00, 
1736.00, 
1737.00, 
1738.00, 
1739.00, 
1740.00, 
1741.00, 
1742.00, 
1743.00, 
1744.00, 
1745.00, 
1746.00, 
1747.00, 
1748.00, 
1749.00, 
1750.00, 
1751.00, 
1752.00, 
1753.00, 
1754.00, 
1755.00, 
1756.00, 
1757.00, 
1758.00, 
1759.00, 
1760.00, 
1761.00, 
1762.00, 
1763.00, 
1764.00, 
1765.00, 
1766.00, 
1767.00, 
1768.00, 
1769.00, 
1770.00, 
1771.00, 
1772.00, 
1773.00, 
1774.00, 
1775.00, 
1776.00, 
1777.00, 
1778.00, 
1779.00, 
1780.00, 
1781.00, 
1782.00, 
1783.00, 
1784.00, 
1785.00, 
1786.00, 
1787.00, 
1788.00, 
1789.00, 
1790.00, 
1791.00, 
1792.00, 
1793.00, 
1794.00, 
1795.00, 
1796.00, 
1797.00, 
1798.00, 
1799.00, 
1800.00, 
1801.00, 
1802.00, 
1803.00, 
1804.00, 
1805.00, 
1806.00, 
1807.00, 
1808.00, 
1809.00, 
1810.00, 
1811.00, 
1812.00, 
1813.00, 
1814.00, 
1815.00, 
1816.00, 
1817.00, 
1818.00, 
1819.00, 
1820.00, 
1821.00, 
1822.00, 
1823.00, 
1824.00, 
1825.00, 
1826.00, 
1827.00, 
1828.00, 
1829.00, 
1830.00, 
1831.00, 
1832.00, 
1833.00, 
1834.00, 
1835.00, 
1836.00, 
1837.00, 
1838.00, 
1839.00, 
1840.00, 
1841.00, 
1842.00, 
1843.00, 
1844.00, 
1845.00, 
1846.00, 
1847.00, 
1848.00, 
1849.00, 
1850.00, 
1851.00, 
1852.00, 
1853.00, 
1854.00, 
1855.00, 
1856.00, 
1857.00, 
1858.00, 
1859.00, 
1860.00, 
1861.00, 
1862.00, 
1863.00, 
1864.00, 
1865.00, 
1866.00, 
1867.00, 
1868.00, 
1869.00, 
1870.00, 
1871.00, 
1872.00, 
1873.00, 
1874.00, 
1875.00, 
1876.00, 
1877.00, 
1878.00, 
1879.00, 
1880.00, 
1881.00, 
1882.00, 
1883.00, 
1884.00, 
1885.00, 
1886.00, 
1887.00, 
1888.00, 
1889.00, 
1890.00, 
1891.00, 
1892.00, 
1893.00, 
1894.00, 
1895.00, 
1896.00, 
1897.00, 
1898.00, 
1899.00, 
1900.00, 
1901.00, 
1902.00, 
1903.00, 
1904.00, 
1905.00, 
1906.00, 
1907.00, 
1908.00, 
1909.00, 
1910.00, 
1911.00, 
1912.00, 
1913.00, 
1914.00, 
1915.00, 
1916.00, 
1917.00, 
1918.00, 
1919.00, 
1920.00, 
1921.00, 
1922.00, 
1923.00, 
1924.00, 
1925.00, 
1926.00, 
1927.00, 
1928.00, 
1929.00, 
1930.00, 
1931.00, 
1932.00, 
1933.00, 
1934.00, 
1935.00, 
1936.00, 
1937.00, 
1938.00, 
1939.00, 
1940.00, 
1941.00, 
1942.00, 
1943.00, 
1944.00, 
1945.00, 
1946.00, 
1947.00, 
1948.00, 
1949.00, 
1950.00, 
1951.00, 
1952.00, 
1953.00, 
1954.00, 
1955.00, 
1956.00, 
1957.00, 
1958.00, 
1959.00, 
1960.00, 
1961.00, 
1962.00, 
1963.00, 
1964.00, 
1965.00, 
1966.00, 
1967.00, 
1968.00, 
1969.00, 
1970.00, 
1971.00, 
1972.00, 
1973.00, 
1974.00, 
1975.00, 
1976.00, 
1977.00, 
1978.00, 
1979.00, 
1980.00, 
1981.00, 
1982.00, 
1983.00, 
1984.00, 
1985.00, 
1986.00, 
1987.00, 
1988.00, 
1989.00, 
1990.00, 
1991.00, 
1992.00, 
1993.00, 
1994.00, 
1995.00, 
1996.00, 
1997.00, 
1998.00, 
1999.00, 
2000.00, 
2001.00, 
2002.00, 
2003.00, 
2004.00, 
2005.00, 
2006.00, 
2007.00, 
2008.00, 
2009.00, 
2010.00, 
2011.00, 
2012.00, 
2013.00, 
2014.00, 
2015.00, 
2016.00, 
2017.00, 
2018.00, 
2019.00, 
2020.00, 
2021.00, 
2022.00, 
2023.00, 
2024.00, 
2025.00, 
2026.00, 
2027.00, 
2028.00, 
2029.00, 
2030.00, 
2031.00, 
2032.00, 
2033.00, 
2034.00, 
2035.00, 
2036.00, 
2037.00, 
2038.00, 
2039.00, 
2040.00, 
2041.00, 
2042.00, 
2043.00, 
2044.00, 
2045.00, 
2046.00, 
2047.00, 
2048.00, 
2049.00, 
2050.00, 
2051.00, 
2052.00, 
2053.00, 
2054.00, 
2055.00, 
2056.00, 
2057.00, 
2058.00, 
2059.00, 
2060.00, 
2061.00, 
2062.00, 
2063.00, 
2064.00, 
2065.00, 
2066.00, 
2067.00, 
2068.00, 
2069.00, 
2070.00, 
2071.00, 
2072.00, 
2073.00, 
2074.00, 
2075.00, 
2076.00, 
2077.00, 
2078.00, 
2079.00, 
2080.00, 
2081.00, 
2082.00, 
2083.00, 
2084.00, 
2085.00, 
2086.00, 
2087.00, 
2088.00, 
2089.00, 
2090.00, 
2091.00, 
2092.00, 
2093.00, 
2094.00, 
2095.00, 
2096.00, 
2097.00, 
2098.00, 
2099.00, 
2100.00, 
2101.00, 
2102.00, 
2103.00, 
2104.00, 
2105.00, 
2106.00, 
2107.00, 
2108.00, 
2109.00, 
2110.00, 
2111.00, 
2112.00, 
2113.00, 
2114.00, 
2115.00, 
2116.00, 
2117.00, 
2118.00, 
2119.00, 
2120.00, 
2121.00, 
2122.00, 
2123.00, 
2124.00, 
2125.00, 
2126.00, 
2127.00, 
2128.00, 
2129.00, 
2130.00, 
2131.00, 
2132.00, 
2133.00, 
2134.00, 
2135.00, 
2136.00, 
2137.00, 
2138.00, 
2139.00, 
2140.00, 
2141.00, 
2142.00, 
2143.00, 
2144.00, 
2145.00, 
2146.00, 
2147.00, 
2148.00, 
2149.00, 
2150.00, 
2151.00, 
2152.00, 
2153.00, 
2154.00, 
2155.00, 
2156.00, 
2157.00, 
2158.00, 
2159.00, 
2160.00, 
2161.00, 
2162.00, 
2163.00, 
2164.00, 
2165.00, 
2166.00, 
2167.00, 
2168.00, 
2169.00, 
2170.00, 
2171.00, 
2172.00, 
2173.00, 
2174.00, 
2175.00, 
2176.00, 
2177.00, 
2178.00, 
2179.00, 
2180.00, 
2181.00, 
2182.00, 
2183.00, 
2184.00, 
2185.00, 
2186.00, 
2187.00, 
2188.00, 
2189.00, 
2190.00, 
2191.00, 
2192.00, 
2193.00, 
2194.00, 
2195.00, 
2196.00, 
2197.00, 
2198.00, 
2199.00, 
2200.00, 
2201.00, 
2202.00, 
2203.00, 
2204.00, 
2205.00, 
2206.00, 
2207.00, 
2208.00, 
2209.00, 
2210.00, 
2211.00, 
2212.00, 
2213.00, 
2214.00, 
2215.00, 
2216.00, 
2217.00, 
2218.00, 
2219.00, 
2220.00, 
2221.00, 
2222.00, 
2223.00, 
2224.00, 
2225.00, 
2226.00, 
2227.00, 
2228.00, 
2229.00, 
2230.00, 
2231.00, 
2232.00, 
2233.00, 
2234.00, 
2235.00, 
2236.00, 
2237.00, 
2238.00, 
2239.00, 
2240.00, 
2241.00, 
2242.00, 
2243.00, 
2244.00, 
2245.00, 
2246.00, 
2247.00, 
2248.00, 
2249.00, 
2250.00, 
2251.00, 
2252.00, 
2253.00, 
2254.00, 
2255.00, 
2256.00, 
2257.00, 
2258.00, 
2259.00, 
2260.00, 
2261.00, 
2262.00, 
2263.00, 
2264.00, 
2265.00, 
2266.00, 
2267.00, 
2268.00, 
2269.00, 
2270.00, 
2271.00, 
2272.00, 
2273.00, 
2274.00, 
2275.00, 
2276.00, 
2277.00, 
2278.00, 
2279.00, 
2280.00, 
2281.00, 
2282.00, 
2283.00, 
2284.00, 
2285.00, 
2286.00, 
2287.00, 
2288.00, 
2289.00, 
2290.00, 
2291.00, 
2292.00, 
2293.00, 
2294.00, 
2295.00, 
2296.00, 
2297.00, 
2298.00, 
2299.00, 
2300.00, 
2301.00, 
2302.00, 
2303.00, 
2304.00, 
2305.00, 
2306.00, 
2307.00, 
2308.00, 
2309.00, 
2310.00, 
2311.00, 
2312.00, 
2313.00, 
2314.00, 
2315.00, 
2316.00, 
2317.00, 
2318.00, 
2319.00, 
2320.00, 
2321.00, 
2322.00, 
2323.00, 
2324.00, 
2325.00, 
2326.00, 
2327.00, 
2328.00, 
2329.00, 
2330.00, 
2331.00, 
2332.00, 
2333.00, 
2334.00, 
2335.00, 
2336.00, 
2337.00, 
2338.00, 
2339.00, 
2340.00, 
2341.00, 
2342.00, 
2343.00, 
2344.00, 
2345.00, 
2346.00, 
2347.00, 
2348.00, 
2349.00, 
2350.00, 
2351.00, 
2352.00, 
2353.00, 
2354.00, 
2355.00, 
2356.00, 
2357.00, 
2358.00, 
2359.00, 
2360.00, 
2361.00, 
2362.00, 
2363.00, 
2364.00, 
2365.00, 
2366.00, 
2367.00, 
2368.00, 
2369.00, 
2370.00, 
2371.00, 
2372.00, 
2373.00, 
2374.00, 
2375.00, 
2376.00, 
2377.00, 
2378.00, 
2379.00, 
2380.00, 
2381.00, 
2382.00, 
2383.00, 
2384.00, 
2385.00, 
2386.00, 
2387.00, 
2388.00, 
2389.00, 
2390.00, 
2391.00, 
2392.00, 
2393.00, 
2394.00, 
2395.00, 
2396.00, 
2397.00, 
2398.00, 
2399.00, 
2400.00, 
2401.00, 
2402.00, 
2403.00, 
2404.00, 
2405.00, 
2406.00, 
2407.00, 
2408.00, 
2409.00, 
2410.00, 
2411.00, 
2412.00, 
2413.00, 
2414.00, 
2415.00, 
2416.00, 
2417.00, 
2418.00, 
2419.00, 
2420.00, 
2421.00, 
2422.00, 
2423.00, 
2424.00, 
2425.00, 
2426.00, 
2427.00, 
2428.00, 
2429.00, 
2430.00, 
2431.00, 
2432.00, 
2433.00, 
2434.00, 
2435.00, 
2436.00, 
2437.00, 
2438.00, 
2439.00, 
2440.00, 
2441.00, 
2442.00, 
2443.00, 
2444.00, 
2445.00, 
2446.00, 
2447.00, 
2448.00, 
2449.00, 
2450.00, 
2451.00, 
2452.00, 
2453.00, 
2454.00, 
2455.00, 
2456.00, 
2457.00, 
2458.00, 
2459.00, 
2460.00, 
2461.00, 
2462.00, 
2463.00, 
2464.00, 
2465.00, 
2466.00, 
2467.00, 
2468.00, 
2469.00, 
2470.00, 
2471.00, 
2472.00, 
2473.00, 
2474.00, 
2475.00, 
2476.00, 
2477.00, 
2478.00, 
2479.00, 
2480.00, 
2481.00, 
2482.00, 
2483.00, 
2484.00, 
2485.00, 
2486.00, 
2487.00, 
2488.00, 
2489.00, 
2490.00, 
2491.00, 
2492.00, 
2493.00, 
2494.00, 
2495.00, 
2496.00, 
2497.00, 
2498.00, 
2499.00, 
2500.00, 
2501.00, 
2502.00, 
2503.00, 
2504.00, 
2505.00, 
2506.00, 
2507.00, 
2508.00, 
2509.00, 
2510.00, 
2511.00, 
2512.00, 
2513.00, 
2514.00, 
2515.00, 
2516.00, 
2517.00, 
2518.00, 
2519.00, 
2520.00, 
2521.00, 
2522.00, 
2523.00, 
2524.00, 
2525.00, 
2526.00, 
2527.00, 
2528.00, 
2529.00, 
2530.00, 
2531.00, 
2532.00, 
2533.00, 
2534.00, 
2535.00, 
2536.00, 
2537.00, 
2538.00, 
2539.00, 
2540.00, 
2541.00, 
2542.00, 
2543.00, 
2544.00, 
2545.00, 
2546.00, 
2547.00, 
2548.00, 
2549.00, 
2550.00, 
2551.00, 
2552.00, 
2553.00, 
2554.00, 
2555.00, 
2556.00, 
2557.00, 
2558.00, 
2559.00, 
2560.00, 
2561.00, 
2562.00, 
2563.00, 
2564.00, 
2565.00, 
2566.00, 
2567.00, 
2568.00, 
2569.00, 
2570.00, 
2571.00, 
2572.00, 
2573.00, 
2574.00, 
2575.00, 
2576.00, 
2577.00, 
2578.00, 
2579.00, 
2580.00, 
2581.00, 
2582.00, 
2583.00, 
2584.00, 
2585.00, 
2586.00, 
2587.00, 
2588.00, 
2589.00, 
2590.00, 
2591.00, 
2592.00, 
2593.00, 
2594.00, 
2595.00, 
2596.00, 
2597.00, 
2598.00, 
2599.00, 
2600.00, 
