"1aP2 - RawData"
"Wavelength nm.","T%"
200.00,-0.001
201.00,0.002
202.00,0.001
203.00,0.003
204.00,0.003
205.00,-0.001
206.00,0.000
207.00,-0.001
208.00,-0.000
209.00,-0.003
210.00,0.001
211.00,0.004
212.00,0.001
213.00,0.002
214.00,-0.001
215.00,0.002
216.00,-0.001
217.00,0.001
218.00,0.000
219.00,0.001
220.00,0.001
221.00,0.002
222.00,0.001
223.00,-0.002
224.00,0.002
225.00,-0.001
226.00,0.003
227.00,-0.001
228.00,0.001
229.00,0.002
230.00,0.000
231.00,-0.000
232.00,0.001
233.00,0.002
234.00,0.003
235.00,0.004
236.00,-0.001
237.00,0.001
238.00,0.000
239.00,0.000
240.00,-0.000
241.00,0.000
242.00,0.000
243.00,0.000
244.00,0.000
245.00,-0.001
246.00,0.001
247.00,-0.000
248.00,-0.001
249.00,-0.001
250.00,0.001
251.00,-0.000
252.00,0.002
253.00,-0.001
254.00,-0.002
255.00,0.001
256.00,-0.001
257.00,-0.001
258.00,0.001
259.00,0.000
260.00,0.000
261.00,0.000
262.00,-0.000
263.00,0.000
264.00,-0.000
265.00,0.002
266.00,-0.001
267.00,-0.000
268.00,-0.000
269.00,0.001
270.00,-0.000
271.00,0.000
272.00,0.001
273.00,0.000
274.00,0.001
275.00,-0.001
276.00,-0.001
277.00,0.000
278.00,-0.001
279.00,0.001
280.00,-0.001
281.00,0.001
282.00,0.001
283.00,0.000
284.00,0.001
285.00,-0.000
286.00,0.002
287.00,-0.000
288.00,0.002
289.00,-0.001
290.00,0.000
291.00,0.001
292.00,-0.002
293.00,0.001
294.00,0.000
295.00,-0.001
296.00,0.001
297.00,0.000
298.00,0.002
299.00,0.004
300.00,0.004
301.00,0.006
302.00,0.007
303.00,0.011
304.00,0.018
305.00,0.030
306.00,0.042
307.00,0.063
308.00,0.096
309.00,0.148
310.00,0.202
311.00,0.281
312.00,0.376
313.00,0.511
314.00,0.666
315.00,0.857
316.00,1.076
317.00,1.360
318.00,1.668
319.00,2.018
320.00,2.416
321.00,2.898
322.00,3.410
323.00,3.886
324.00,4.570
325.00,5.161
326.00,5.767
327.00,6.471
328.00,7.158
329.00,7.887
330.00,8.586
331.00,9.347
332.00,10.094
333.00,10.887
334.00,11.583
335.00,12.389
336.00,13.120
337.00,13.858
338.00,14.548
339.00,15.184
340.00,15.864
341.00,16.504
342.00,17.162
343.00,17.688
344.00,18.202
345.00,18.806
346.00,19.268
347.00,19.685
348.00,20.137
349.00,20.496
350.00,20.908
351.00,21.198
352.00,21.533
353.00,21.855
354.00,22.107
355.00,22.393
356.00,22.628
357.00,22.824
358.00,23.073
359.00,23.316
360.00,23.537
361.00,23.578
362.00,23.726
363.00,23.849
364.00,23.922
365.00,24.054
366.00,24.111
367.00,24.176
368.00,24.172
369.00,24.269
370.00,24.304
371.00,24.310
372.00,24.267
373.00,24.289
374.00,24.293
375.00,24.263
376.00,24.163
377.00,24.065
378.00,24.025
379.00,23.919
380.00,23.920
381.00,23.878
382.00,23.864
383.00,23.861
384.00,23.876
385.00,23.912
386.00,23.871
387.00,23.955
388.00,24.034
389.00,23.962
390.00,24.029
391.00,24.042
392.00,24.036
393.00,24.063
394.00,24.075
395.00,24.101
396.00,24.074
397.00,24.076
398.00,24.048
399.00,24.059
400.00,24.063
401.00,24.061
402.00,24.020
403.00,24.029
404.00,24.007
405.00,23.996
406.00,23.989
407.00,23.938
408.00,23.956
409.00,23.881
410.00,23.834
411.00,23.857
412.00,23.781
413.00,23.842
414.00,23.780
415.00,23.799
416.00,23.898
417.00,23.874
418.00,23.858
419.00,24.003
420.00,24.031
421.00,24.001
422.00,24.008
423.00,24.062
424.00,24.104
425.00,24.147
426.00,24.159
427.00,24.242
428.00,24.245
429.00,24.292
430.00,24.323
431.00,24.420
432.00,24.411
433.00,24.532
434.00,24.548
435.00,24.617
436.00,24.706
437.00,24.765
438.00,24.819
439.00,24.866
440.00,24.909
441.00,25.020
442.00,25.105
443.00,25.211
444.00,25.318
445.00,25.366
446.00,25.447
447.00,25.469
448.00,25.642
449.00,25.762
450.00,25.873
451.00,25.985
452.00,26.072
453.00,26.193
454.00,26.267
455.00,26.423
456.00,26.519
457.00,26.629
458.00,26.743
459.00,26.876
460.00,27.022
461.00,27.119
462.00,27.235
463.00,27.386
464.00,27.520
465.00,27.660
466.00,27.777
467.00,27.931
468.00,28.008
469.00,28.154
470.00,28.212
471.00,28.313
472.00,28.486
473.00,28.537
474.00,28.639
475.00,28.788
476.00,28.899
477.00,28.952
478.00,29.143
479.00,29.321
480.00,29.482
481.00,29.569
482.00,29.712
483.00,29.889
484.00,30.039
485.00,30.199
486.00,30.339
487.00,30.533
488.00,30.675
489.00,30.824
490.00,30.987
491.00,31.142
492.00,31.388
493.00,31.543
494.00,31.588
495.00,31.604
496.00,31.764
497.00,31.864
498.00,32.004
499.00,32.144
500.00,32.294
501.00,32.412
502.00,32.539
503.00,32.651
504.00,32.676
505.00,32.862
506.00,32.939
507.00,33.021
508.00,33.185
509.00,33.365
510.00,33.464
511.00,33.523
512.00,33.729
513.00,33.866
514.00,33.959
515.00,34.121
516.00,34.249
517.00,34.321
518.00,34.448
519.00,34.509
520.00,34.513
521.00,34.673
522.00,34.827
523.00,34.797
524.00,34.942
525.00,35.098
526.00,35.173
527.00,35.198
528.00,35.302
529.00,35.525
530.00,35.642
531.00,35.728
532.00,35.666
533.00,35.907
534.00,35.970
535.00,36.053
536.00,36.140
537.00,36.242
538.00,36.274
539.00,36.335
540.00,36.398
541.00,36.438
542.00,36.487
543.00,36.537
544.00,36.685
545.00,36.753
546.00,36.732
547.00,36.847
548.00,36.944
549.00,36.976
550.00,37.069
551.00,37.147
552.00,37.247
553.00,37.248
554.00,37.287
555.00,37.325
556.00,37.389
557.00,37.459
558.00,37.534
559.00,37.622
560.00,37.665
561.00,37.746
562.00,37.797
563.00,37.814
564.00,37.879
565.00,37.902
566.00,37.891
567.00,37.897
568.00,37.957
569.00,38.016
570.00,38.083
571.00,38.148
572.00,38.157
573.00,38.160
574.00,38.185
575.00,38.192
576.00,38.181
577.00,38.240
578.00,38.357
579.00,38.417
580.00,38.391
581.00,38.630
582.00,38.650
583.00,38.640
584.00,38.744
585.00,38.896
586.00,38.855
587.00,38.887
588.00,38.954
589.00,38.856
590.00,38.903
591.00,39.019
592.00,38.933
593.00,38.880
594.00,39.148
595.00,39.293
596.00,39.209
597.00,39.323
598.00,39.389
599.00,39.388
600.00,39.456
601.00,39.539
602.00,39.533
603.00,39.595
604.00,39.619
605.00,39.669
606.00,39.708
607.00,39.730
608.00,39.891
609.00,39.959
610.00,39.769
611.00,39.827
612.00,39.833
613.00,39.890
614.00,39.968
615.00,40.036
616.00,40.175
617.00,40.194
618.00,40.106
619.00,40.150
620.00,40.278
621.00,40.399
622.00,40.428
623.00,40.477
624.00,40.554
625.00,40.650
626.00,40.663
627.00,40.685
628.00,40.729
629.00,40.724
630.00,40.815
631.00,40.846
632.00,40.942
633.00,41.083
634.00,41.159
635.00,41.255
636.00,41.312
637.00,41.310
638.00,41.365
639.00,41.443
640.00,41.523
641.00,41.595
642.00,41.599
643.00,41.729
644.00,41.824
645.00,41.845
646.00,42.054
647.00,42.026
648.00,42.019
649.00,41.952
650.00,42.220
651.00,42.549
652.00,42.371
653.00,42.457
654.00,42.535
655.00,42.659
656.00,42.993
657.00,42.708
658.00,42.918
659.00,42.999
660.00,43.064
661.00,43.198
662.00,43.222
663.00,43.326
664.00,43.579
665.00,43.716
666.00,43.569
667.00,43.789
668.00,43.651
669.00,44.019
670.00,44.297
671.00,44.209
672.00,44.190
673.00,44.350
674.00,44.561
675.00,44.487
676.00,44.684
677.00,44.859
678.00,44.523
679.00,44.620
680.00,44.960
681.00,45.166
682.00,45.073
683.00,45.101
684.00,45.331
685.00,45.389
686.00,45.226
687.00,45.460
688.00,45.540
689.00,45.481
690.00,45.755
691.00,46.108
692.00,45.709
693.00,45.861
694.00,45.985
695.00,46.126
696.00,46.234
697.00,46.108
698.00,46.340
699.00,46.625
700.00,46.569
701.00,46.625
702.00,46.726
703.00,47.005
704.00,46.999
705.00,46.854
706.00,46.981
707.00,46.951
708.00,47.064
709.00,47.708
710.00,47.389
711.00,47.180
712.00,47.289
713.00,47.603
714.00,47.501
715.00,47.691
716.00,47.331
717.00,47.765
718.00,47.613
719.00,47.796
720.00,48.013
721.00,52.428
722.00,52.431
723.00,52.515
724.00,52.416
725.00,52.511
726.00,52.568
727.00,52.602
728.00,52.624
729.00,52.632
730.00,52.657
731.00,52.745
732.00,52.708
733.00,52.811
734.00,52.817
735.00,52.867
736.00,52.912
737.00,52.892
738.00,52.987
739.00,52.987
740.00,52.998
741.00,53.171
742.00,53.177
743.00,53.089
744.00,53.011
745.00,53.092
746.00,53.187
747.00,53.197
748.00,53.093
749.00,53.136
750.00,53.188
751.00,53.107
752.00,53.134
753.00,53.198
754.00,53.250
755.00,53.190
756.00,53.235
757.00,53.223
758.00,53.280
759.00,53.255
760.00,53.273
761.00,53.241
762.00,53.220
763.00,53.320
764.00,53.324
765.00,53.296
766.00,53.306
767.00,53.345
768.00,53.377
769.00,53.382
770.00,53.491
771.00,53.361
772.00,53.409
773.00,53.447
774.00,53.506
775.00,53.477
776.00,53.405
777.00,53.507
778.00,53.380
779.00,53.541
780.00,53.480
781.00,53.494
782.00,53.528
783.00,53.462
784.00,53.524
785.00,53.462
786.00,53.545
787.00,53.535
788.00,53.416
789.00,53.513
790.00,53.361
791.00,53.553
792.00,53.439
793.00,53.499
794.00,53.421
795.00,53.490
796.00,53.519
797.00,53.376
798.00,53.489
799.00,53.365
800.00,53.388
801.00,53.413
802.00,53.396
803.00,53.418
804.00,53.283
805.00,53.406
806.00,53.302
807.00,53.340
808.00,53.374
809.00,53.254
810.00,53.266
811.00,53.269
812.00,53.253
813.00,53.240
814.00,53.274
815.00,53.263
816.00,53.163
817.00,53.171
818.00,53.170
819.00,53.199
820.00,53.178
821.00,53.257
822.00,53.194
823.00,53.090
824.00,53.180
825.00,53.027
826.00,53.005
827.00,53.112
828.00,53.159
829.00,53.021
830.00,53.079
831.00,55.686
832.00,55.664
833.00,55.575
834.00,55.603
835.00,55.600
836.00,55.619
837.00,55.610
838.00,55.586
839.00,55.568
840.00,55.499
841.00,55.545
842.00,55.485
843.00,55.527
844.00,55.490
845.00,55.404
846.00,55.464
847.00,55.421
848.00,55.482
849.00,55.389
850.00,55.381
851.00,55.224
852.00,55.441
853.00,55.218
854.00,55.263
855.00,55.196
856.00,55.219
857.00,55.198
858.00,55.153
859.00,55.192
860.00,55.144
861.00,55.180
862.00,55.046
863.00,55.123
864.00,55.049
865.00,55.122
866.00,54.995
867.00,55.030
868.00,55.087
869.00,54.997
870.00,55.083
871.00,55.005
872.00,55.054
873.00,55.001
874.00,55.080
875.00,54.959
876.00,55.037
877.00,54.949
878.00,54.974
879.00,54.944
880.00,54.950
881.00,54.942
882.00,54.996
883.00,54.903
884.00,54.889
885.00,54.853
886.00,54.879
887.00,54.852
888.00,54.836
889.00,54.836
890.00,54.840
891.00,54.816
892.00,54.804
893.00,54.791
894.00,54.778
895.00,54.735
896.00,54.711
897.00,54.686
898.00,54.688
899.00,54.714
900.00,54.636
901.00,54.624
902.00,54.659
903.00,54.626
904.00,54.600
905.00,54.599
906.00,54.602
907.00,54.565
908.00,54.530
909.00,54.559
910.00,54.428
911.00,54.568
912.00,54.466
913.00,54.432
914.00,54.437
915.00,54.405
916.00,54.415
917.00,54.416
918.00,54.337
919.00,54.379
920.00,54.359
921.00,54.305
922.00,54.280
923.00,54.311
924.00,54.225
925.00,54.289
926.00,54.217
927.00,54.234
928.00,54.159
929.00,54.190
930.00,54.134
931.00,54.157
932.00,54.071
933.00,54.118
934.00,54.105
935.00,54.092
936.00,54.044
937.00,54.029
938.00,54.176
939.00,54.049
940.00,53.989
941.00,54.017
942.00,53.972
943.00,53.956
944.00,53.930
945.00,53.957
946.00,53.949
947.00,53.866
948.00,53.862
949.00,53.827
950.00,53.867
951.00,53.799
952.00,53.803
953.00,53.828
954.00,53.745
955.00,53.674
956.00,53.709
957.00,53.620
958.00,53.658
959.00,53.584
960.00,53.609
961.00,53.603
962.00,53.585
963.00,53.546
964.00,53.546
965.00,53.572
966.00,53.530
967.00,53.541
968.00,53.546
969.00,53.559
970.00,53.520
971.00,53.534
972.00,53.480
973.00,53.545
974.00,53.572
975.00,53.520
976.00,53.541
977.00,53.537
978.00,53.592
979.00,53.552
980.00,53.546
981.00,53.584
982.00,53.503
983.00,53.552
984.00,53.498
985.00,53.539
986.00,53.494
987.00,53.523
988.00,53.470
989.00,53.489
990.00,53.464
991.00,53.445
992.00,53.477
993.00,53.423
994.00,53.432
995.00,53.418
996.00,53.405
997.00,53.393
998.00,53.359
999.00,53.376
1000.00,53.327
1001.00,53.348
1002.00,53.326
1003.00,53.333
1004.00,53.300
1005.00,53.261
1006.00,53.319
1007.00,53.276
1008.00,53.266
1009.00,53.249
1010.00,53.259
1011.00,53.257
1012.00,53.213
1013.00,53.237
1014.00,53.194
1015.00,53.210
1016.00,53.172
1017.00,53.153
1018.00,53.176
1019.00,53.122
1020.00,53.154
1021.00,53.110
1022.00,53.135
1023.00,53.075
1024.00,53.095
1025.00,53.075
1026.00,53.035
1027.00,53.034
1028.00,53.049
1029.00,53.008
1030.00,52.979
1031.00,53.004
1032.00,52.949
1033.00,52.960
1034.00,52.930
1035.00,52.887
1036.00,52.881
1037.00,52.846
1038.00,52.836
1039.00,52.774
1040.00,52.784
1041.00,52.744
1042.00,52.758
1043.00,52.730
1044.00,52.784
1045.00,52.751
1046.00,52.737
1047.00,52.775
1048.00,52.759
1049.00,52.783
1050.00,52.772
1051.00,52.840
1052.00,52.799
1053.00,52.820
1054.00,52.802
1055.00,52.850
1056.00,52.838
1057.00,52.840
1058.00,52.819
1059.00,52.813
1060.00,52.847
1061.00,52.806
1062.00,52.809
1063.00,52.811
1064.00,52.848
1065.00,52.803
1066.00,52.823
1067.00,52.811
1068.00,52.837
1069.00,52.787
1070.00,52.778
1071.00,52.765
1072.00,52.799
1073.00,52.769
1074.00,52.784
1075.00,52.779
1076.00,52.754
1077.00,52.747
1078.00,52.719
1079.00,52.742
1080.00,52.754
1081.00,52.734
1082.00,52.718
1083.00,52.717
1084.00,52.720
1085.00,52.727
1086.00,52.687
1087.00,52.698
1088.00,52.694
1089.00,52.685
1090.00,52.667
1091.00,52.684
1092.00,52.656
1093.00,52.668
1094.00,52.633
1095.00,52.645
1096.00,52.615
1097.00,52.632
1098.00,52.610
1099.00,52.611
1100.00,52.571
1101.00,52.581
1102.00,52.556
1103.00,52.564
1104.00,52.554
1105.00,52.562
1106.00,52.544
1107.00,52.532
1108.00,52.525
1109.00,52.517
1110.00,52.490
1111.00,52.501
1112.00,52.495
1113.00,52.505
1114.00,52.462
1115.00,52.493
1116.00,52.460
1117.00,52.447
1118.00,52.449
1119.00,52.461
1120.00,52.445
1121.00,52.467
1122.00,52.443
1123.00,52.441
1124.00,52.427
1125.00,52.439
1126.00,52.416
1127.00,52.424
1128.00,52.393
1129.00,52.385
1130.00,52.350
1131.00,52.351
1132.00,52.348
1133.00,52.346
1134.00,52.333
1135.00,52.345
1136.00,52.339
1137.00,52.356
1138.00,52.338
1139.00,52.362
1140.00,52.357
1141.00,52.358
1142.00,52.329
1143.00,52.364
1144.00,52.316
1145.00,52.313
1146.00,52.305
1147.00,52.305
1148.00,52.289
1149.00,52.330
1150.00,52.319
1151.00,52.320
1152.00,52.305
1153.00,52.304
1154.00,52.299
1155.00,52.308
1156.00,52.286
1157.00,52.302
1158.00,52.281
1159.00,52.285
1160.00,52.275
1161.00,52.281
1162.00,52.281
1163.00,52.283
1164.00,52.288
1165.00,52.282
1166.00,52.292
1167.00,52.261
1168.00,52.306
1169.00,52.298
1170.00,52.299
1171.00,52.267
1172.00,52.265
1173.00,52.270
1174.00,52.286
1175.00,52.271
1176.00,52.283
1177.00,52.261
1178.00,52.273
1179.00,52.294
1180.00,52.272
1181.00,52.307
1182.00,52.262
1183.00,52.275
1184.00,52.274
1185.00,52.288
1186.00,52.270
1187.00,52.281
1188.00,52.282
1189.00,52.260
1190.00,52.255
1191.00,52.249
1192.00,52.271
1193.00,52.243
1194.00,52.269
1195.00,52.249
1196.00,52.273
1197.00,52.273
1198.00,52.276
1199.00,52.259
1200.00,52.269
1201.00,52.305
1202.00,52.266
1203.00,52.271
1204.00,52.258
1205.00,52.295
1206.00,52.274
1207.00,52.269
1208.00,52.248
1209.00,52.270
1210.00,52.271
1211.00,52.262
1212.00,52.305
1213.00,52.241
1214.00,52.280
1215.00,52.245
1216.00,52.266
1217.00,52.282
1218.00,52.248
1219.00,52.267
1220.00,52.256
1221.00,52.299
1222.00,52.283
1223.00,52.294
1224.00,52.271
1225.00,52.290
1226.00,52.278
1227.00,52.296
1228.00,52.340
1229.00,52.280
1230.00,52.294
1231.00,52.303
1232.00,52.323
1233.00,52.311
1234.00,52.315
1235.00,52.329
1236.00,52.329
1237.00,52.330
1238.00,52.320
1239.00,52.337
1240.00,52.316
1241.00,52.337
1242.00,52.342
1243.00,52.369
1244.00,52.328
1245.00,52.373
1246.00,52.364
1247.00,52.345
1248.00,52.341
1249.00,52.351
1250.00,52.374
1251.00,52.351
1252.00,52.368
1253.00,52.354
1254.00,52.393
1255.00,52.369
1256.00,52.374
1257.00,52.354
1258.00,52.404
1259.00,52.394
1260.00,52.420
1261.00,52.411
1262.00,52.407
1263.00,52.402
1264.00,52.414
1265.00,52.415
1266.00,52.417
1267.00,52.435
1268.00,52.442
1269.00,52.445
1270.00,52.457
1271.00,52.464
1272.00,52.460
1273.00,52.486
1274.00,52.481
1275.00,52.476
1276.00,52.453
1277.00,52.477
1278.00,52.502
1279.00,52.487
1280.00,52.481
1281.00,52.508
1282.00,52.514
1283.00,52.510
1284.00,52.522
1285.00,52.492
1286.00,52.520
1287.00,52.524
1288.00,52.554
1289.00,52.530
1290.00,52.561
1291.00,52.537
1292.00,52.548
1293.00,52.547
1294.00,52.573
1295.00,52.562
1296.00,52.566
1297.00,52.574
1298.00,52.611
1299.00,52.580
1300.00,52.630
1301.00,52.598
1302.00,52.636
1303.00,52.612
1304.00,52.588
1305.00,52.630
1306.00,52.642
1307.00,52.628
1308.00,52.637
1309.00,52.643
1310.00,52.625
1311.00,52.619
1312.00,52.627
1313.00,52.665
1314.00,52.663
1315.00,52.676
1316.00,52.679
1317.00,52.718
1318.00,52.711
1319.00,52.719
1320.00,52.721
1321.00,52.891
1322.00,52.863
1323.00,52.845
1324.00,52.850
1325.00,52.824
1326.00,52.868
1327.00,52.856
1328.00,52.842
1329.00,52.842
1330.00,52.864
1331.00,52.853
1332.00,52.853
1333.00,52.887
1334.00,52.888
1335.00,52.901
1336.00,52.923
1337.00,52.921
1338.00,53.012
1339.00,53.026
1340.00,53.094
1341.00,53.172
1342.00,53.230
1343.00,53.272
1344.00,53.342
1345.00,53.396
1346.00,53.440
1347.00,53.441
1348.00,53.516
1349.00,53.501
1350.00,53.513
1351.00,53.517
1352.00,53.539
1353.00,53.544
1354.00,53.549
1355.00,53.479
1356.00,53.580
1357.00,53.543
1358.00,53.543
1359.00,53.566
1360.00,53.546
1361.00,53.605
1362.00,53.548
1363.00,53.665
1364.00,53.718
1365.00,53.568
1366.00,53.640
1367.00,53.624
1368.00,53.538
1369.00,53.575
1370.00,53.581
1371.00,53.558
1372.00,53.562
1373.00,53.568
1374.00,53.582
1375.00,53.533
1376.00,53.535
1377.00,53.574
1378.00,53.589
1379.00,53.652
1380.00,53.673
1381.00,53.599
1382.00,53.527
1383.00,53.621
1384.00,53.497
1385.00,53.551
1386.00,53.591
1387.00,53.598
1388.00,53.487
1389.00,53.484
1390.00,53.551
1391.00,53.618
1392.00,53.522
1393.00,53.537
1394.00,53.542
1395.00,53.463
1396.00,53.482
1397.00,53.544
1398.00,53.528
1399.00,53.550
1400.00,53.617
1401.00,53.510
1402.00,53.536
1403.00,53.571
1404.00,53.582
1405.00,53.590
1406.00,53.618
1407.00,53.618
1408.00,53.625
1409.00,53.591
1410.00,53.661
1411.00,53.601
1412.00,53.681
1413.00,53.652
1414.00,53.623
1415.00,53.645
1416.00,53.633
1417.00,53.654
1418.00,53.634
1419.00,53.683
1420.00,53.688
1421.00,53.753
1422.00,53.694
1423.00,53.750
1424.00,53.732
1425.00,53.790
1426.00,53.742
1427.00,53.781
1428.00,53.765
1429.00,53.808
1430.00,53.785
1431.00,53.843
1432.00,53.839
1433.00,53.871
1434.00,53.858
1435.00,53.918
1436.00,53.905
1437.00,53.892
1438.00,53.938
1439.00,53.961
1440.00,53.994
1441.00,53.980
1442.00,54.002
1443.00,54.045
1444.00,54.087
1445.00,54.041
1446.00,54.081
1447.00,54.067
1448.00,54.114
1449.00,54.094
1450.00,54.109
1451.00,54.101
1452.00,54.140
1453.00,54.135
1454.00,54.169
1455.00,54.180
1456.00,54.219
1457.00,54.193
1458.00,54.246
1459.00,54.261
1460.00,54.281
1461.00,54.257
1462.00,54.295
1463.00,54.291
1464.00,54.286
1465.00,54.335
1466.00,54.338
1467.00,54.339
1468.00,54.422
1469.00,54.367
1470.00,54.411
1471.00,54.420
1472.00,54.437
1473.00,54.446
1474.00,54.431
1475.00,54.452
1476.00,54.482
1477.00,54.434
1478.00,54.484
1479.00,54.495
1480.00,54.486
1481.00,54.498
1482.00,54.534
1483.00,54.557
1484.00,54.572
1485.00,54.571
1486.00,54.583
1487.00,54.609
1488.00,54.621
1489.00,54.600
1490.00,54.641
1491.00,54.607
1492.00,54.661
1493.00,54.614
1494.00,54.678
1495.00,54.637
1496.00,54.679
1497.00,54.661
1498.00,54.686
1499.00,54.701
1500.00,54.727
1501.00, 
1502.00, 
1503.00, 
1504.00, 
1505.00, 
1506.00, 
1507.00, 
1508.00, 
1509.00, 
1510.00, 
1511.00, 
1512.00, 
1513.00, 
1514.00, 
1515.00, 
1516.00, 
1517.00, 
1518.00, 
1519.00, 
1520.00, 
1521.00, 
1522.00, 
1523.00, 
1524.00, 
1525.00, 
1526.00, 
1527.00, 
1528.00, 
1529.00, 
1530.00, 
1531.00, 
1532.00, 
1533.00, 
1534.00, 
1535.00, 
1536.00, 
1537.00, 
1538.00, 
1539.00, 
1540.00, 
1541.00, 
1542.00, 
1543.00, 
1544.00, 
1545.00, 
1546.00, 
1547.00, 
1548.00, 
1549.00, 
1550.00, 
1551.00, 
1552.00, 
1553.00, 
1554.00, 
1555.00, 
1556.00, 
1557.00, 
1558.00, 
1559.00, 
1560.00, 
1561.00, 
1562.00, 
1563.00, 
1564.00, 
1565.00, 
1566.00, 
1567.00, 
1568.00, 
1569.00, 
1570.00, 
1571.00, 
1572.00, 
1573.00, 
1574.00, 
1575.00, 
1576.00, 
1577.00, 
1578.00, 
1579.00, 
1580.00, 
1581.00, 
1582.00, 
1583.00, 
1584.00, 
1585.00, 
1586.00, 
1587.00, 
1588.00, 
1589.00, 
1590.00, 
1591.00, 
1592.00, 
1593.00, 
1594.00, 
1595.00, 
1596.00, 
1597.00, 
1598.00, 
1599.00, 
1600.00, 
1601.00, 
1602.00, 
1603.00, 
1604.00, 
1605.00, 
1606.00, 
1607.00, 
1608.00, 
1609.00, 
1610.00, 
1611.00, 
1612.00, 
1613.00, 
1614.00, 
1615.00, 
1616.00, 
1617.00, 
1618.00, 
1619.00, 
1620.00, 
1621.00, 
1622.00, 
1623.00, 
1624.00, 
1625.00, 
1626.00, 
1627.00, 
1628.00, 
1629.00, 
1630.00, 
1631.00, 
1632.00, 
1633.00, 
1634.00, 
1635.00, 
1636.00, 
1637.00, 
1638.00, 
1639.00, 
1640.00, 
1641.00, 
1642.00, 
1643.00, 
1644.00, 
1645.00, 
1646.00, 
1647.00, 
1648.00, 
1649.00, 
1650.00, 
1651.00, 
1652.00, 
1653.00, 
1654.00, 
1655.00, 
1656.00, 
1657.00, 
1658.00, 
1659.00, 
1660.00, 
1661.00, 
1662.00, 
1663.00, 
1664.00, 
1665.00, 
1666.00, 
1667.00, 
1668.00, 
1669.00, 
1670.00, 
1671.00, 
1672.00, 
1673.00, 
1674.00, 
1675.00, 
1676.00, 
1677.00, 
1678.00, 
1679.00, 
1680.00, 
1681.00, 
1682.00, 
1683.00, 
1684.00, 
1685.00, 
1686.00, 
1687.00, 
1688.00, 
1689.00, 
1690.00, 
1691.00, 
1692.00, 
1693.00, 
1694.00, 
1695.00, 
1696.00, 
1697.00, 
1698.00, 
1699.00, 
1700.00, 
1701.00, 
1702.00, 
1703.00, 
1704.00, 
1705.00, 
1706.00, 
1707.00, 
1708.00, 
1709.00, 
1710.00, 
1711.00, 
1712.00, 
1713.00, 
1714.00, 
1715.00, 
1716.00, 
1717.00, 
1718.00, 
1719.00, 
1720.00, 
1721.00, 
1722.00, 
1723.00, 
1724.00, 
1725.00, 
1726.00, 
1727.00, 
1728.00, 
1729.00, 
1730.00, 
1731.00, 
1732.00, 
1733.00, 
1734.00, 
1735.00, 
1736.00, 
1737.00, 
1738.00, 
1739.00, 
1740.00, 
1741.00, 
1742.00, 
1743.00, 
1744.00, 
1745.00, 
1746.00, 
1747.00, 
1748.00, 
1749.00, 
1750.00, 
1751.00, 
1752.00, 
1753.00, 
1754.00, 
1755.00, 
1756.00, 
1757.00, 
1758.00, 
1759.00, 
1760.00, 
1761.00, 
1762.00, 
1763.00, 
1764.00, 
1765.00, 
1766.00, 
1767.00, 
1768.00, 
1769.00, 
1770.00, 
1771.00, 
1772.00, 
1773.00, 
1774.00, 
1775.00, 
1776.00, 
1777.00, 
1778.00, 
1779.00, 
1780.00, 
1781.00, 
1782.00, 
1783.00, 
1784.00, 
1785.00, 
1786.00, 
1787.00, 
1788.00, 
1789.00, 
1790.00, 
1791.00, 
1792.00, 
1793.00, 
1794.00, 
1795.00, 
1796.00, 
1797.00, 
1798.00, 
1799.00, 
1800.00, 
1801.00, 
1802.00, 
1803.00, 
1804.00, 
1805.00, 
1806.00, 
1807.00, 
1808.00, 
1809.00, 
1810.00, 
1811.00, 
1812.00, 
1813.00, 
1814.00, 
1815.00, 
1816.00, 
1817.00, 
1818.00, 
1819.00, 
1820.00, 
1821.00, 
1822.00, 
1823.00, 
1824.00, 
1825.00, 
1826.00, 
1827.00, 
1828.00, 
1829.00, 
1830.00, 
1831.00, 
1832.00, 
1833.00, 
1834.00, 
1835.00, 
1836.00, 
1837.00, 
1838.00, 
1839.00, 
1840.00, 
1841.00, 
1842.00, 
1843.00, 
1844.00, 
1845.00, 
1846.00, 
1847.00, 
1848.00, 
1849.00, 
1850.00, 
1851.00, 
1852.00, 
1853.00, 
1854.00, 
1855.00, 
1856.00, 
1857.00, 
1858.00, 
1859.00, 
1860.00, 
1861.00, 
1862.00, 
1863.00, 
1864.00, 
1865.00, 
1866.00, 
1867.00, 
1868.00, 
1869.00, 
1870.00, 
1871.00, 
1872.00, 
1873.00, 
1874.00, 
1875.00, 
1876.00, 
1877.00, 
1878.00, 
1879.00, 
1880.00, 
1881.00, 
1882.00, 
1883.00, 
1884.00, 
1885.00, 
1886.00, 
1887.00, 
1888.00, 
1889.00, 
1890.00, 
1891.00, 
1892.00, 
1893.00, 
1894.00, 
1895.00, 
1896.00, 
1897.00, 
1898.00, 
1899.00, 
1900.00, 
1901.00, 
1902.00, 
1903.00, 
1904.00, 
1905.00, 
1906.00, 
1907.00, 
1908.00, 
1909.00, 
1910.00, 
1911.00, 
1912.00, 
1913.00, 
1914.00, 
1915.00, 
1916.00, 
1917.00, 
1918.00, 
1919.00, 
1920.00, 
1921.00, 
1922.00, 
1923.00, 
1924.00, 
1925.00, 
1926.00, 
1927.00, 
1928.00, 
1929.00, 
1930.00, 
1931.00, 
1932.00, 
1933.00, 
1934.00, 
1935.00, 
1936.00, 
1937.00, 
1938.00, 
1939.00, 
1940.00, 
1941.00, 
1942.00, 
1943.00, 
1944.00, 
1945.00, 
1946.00, 
1947.00, 
1948.00, 
1949.00, 
1950.00, 
1951.00, 
1952.00, 
1953.00, 
1954.00, 
1955.00, 
1956.00, 
1957.00, 
1958.00, 
1959.00, 
1960.00, 
1961.00, 
1962.00, 
1963.00, 
1964.00, 
1965.00, 
1966.00, 
1967.00, 
1968.00, 
1969.00, 
1970.00, 
1971.00, 
1972.00, 
1973.00, 
1974.00, 
1975.00, 
1976.00, 
1977.00, 
1978.00, 
1979.00, 
1980.00, 
1981.00, 
1982.00, 
1983.00, 
1984.00, 
1985.00, 
1986.00, 
1987.00, 
1988.00, 
1989.00, 
1990.00, 
1991.00, 
1992.00, 
1993.00, 
1994.00, 
1995.00, 
1996.00, 
1997.00, 
1998.00, 
1999.00, 
2000.00, 
2001.00, 
2002.00, 
2003.00, 
2004.00, 
2005.00, 
2006.00, 
2007.00, 
2008.00, 
2009.00, 
2010.00, 
2011.00, 
2012.00, 
2013.00, 
2014.00, 
2015.00, 
2016.00, 
2017.00, 
2018.00, 
2019.00, 
2020.00, 
2021.00, 
2022.00, 
2023.00, 
2024.00, 
2025.00, 
2026.00, 
2027.00, 
2028.00, 
2029.00, 
2030.00, 
2031.00, 
2032.00, 
2033.00, 
2034.00, 
2035.00, 
2036.00, 
2037.00, 
2038.00, 
2039.00, 
2040.00, 
2041.00, 
2042.00, 
2043.00, 
2044.00, 
2045.00, 
2046.00, 
2047.00, 
2048.00, 
2049.00, 
2050.00, 
2051.00, 
2052.00, 
2053.00, 
2054.00, 
2055.00, 
2056.00, 
2057.00, 
2058.00, 
2059.00, 
2060.00, 
2061.00, 
2062.00, 
2063.00, 
2064.00, 
2065.00, 
2066.00, 
2067.00, 
2068.00, 
2069.00, 
2070.00, 
2071.00, 
2072.00, 
2073.00, 
2074.00, 
2075.00, 
2076.00, 
2077.00, 
2078.00, 
2079.00, 
2080.00, 
2081.00, 
2082.00, 
2083.00, 
2084.00, 
2085.00, 
2086.00, 
2087.00, 
2088.00, 
2089.00, 
2090.00, 
2091.00, 
2092.00, 
2093.00, 
2094.00, 
2095.00, 
2096.00, 
2097.00, 
2098.00, 
2099.00, 
2100.00, 
2101.00, 
2102.00, 
2103.00, 
2104.00, 
2105.00, 
2106.00, 
2107.00, 
2108.00, 
2109.00, 
2110.00, 
2111.00, 
2112.00, 
2113.00, 
2114.00, 
2115.00, 
2116.00, 
2117.00, 
2118.00, 
2119.00, 
2120.00, 
2121.00, 
2122.00, 
2123.00, 
2124.00, 
2125.00, 
2126.00, 
2127.00, 
2128.00, 
2129.00, 
2130.00, 
2131.00, 
2132.00, 
2133.00, 
2134.00, 
2135.00, 
2136.00, 
2137.00, 
2138.00, 
2139.00, 
2140.00, 
2141.00, 
2142.00, 
2143.00, 
2144.00, 
2145.00, 
2146.00, 
2147.00, 
2148.00, 
2149.00, 
2150.00, 
2151.00, 
2152.00, 
2153.00, 
2154.00, 
2155.00, 
2156.00, 
2157.00, 
2158.00, 
2159.00, 
2160.00, 
2161.00, 
2162.00, 
2163.00, 
2164.00, 
2165.00, 
2166.00, 
2167.00, 
2168.00, 
2169.00, 
2170.00, 
2171.00, 
2172.00, 
2173.00, 
2174.00, 
2175.00, 
2176.00, 
2177.00, 
2178.00, 
2179.00, 
2180.00, 
2181.00, 
2182.00, 
2183.00, 
2184.00, 
2185.00, 
2186.00, 
2187.00, 
2188.00, 
2189.00, 
2190.00, 
2191.00, 
2192.00, 
2193.00, 
2194.00, 
2195.00, 
2196.00, 
2197.00, 
2198.00, 
2199.00, 
2200.00, 
2201.00, 
2202.00, 
2203.00, 
2204.00, 
2205.00, 
2206.00, 
2207.00, 
2208.00, 
2209.00, 
2210.00, 
2211.00, 
2212.00, 
2213.00, 
2214.00, 
2215.00, 
2216.00, 
2217.00, 
2218.00, 
2219.00, 
2220.00, 
2221.00, 
2222.00, 
2223.00, 
2224.00, 
2225.00, 
2226.00, 
2227.00, 
2228.00, 
2229.00, 
2230.00, 
2231.00, 
2232.00, 
2233.00, 
2234.00, 
2235.00, 
2236.00, 
2237.00, 
2238.00, 
2239.00, 
2240.00, 
2241.00, 
2242.00, 
2243.00, 
2244.00, 
2245.00, 
2246.00, 
2247.00, 
2248.00, 
2249.00, 
2250.00, 
2251.00, 
2252.00, 
2253.00, 
2254.00, 
2255.00, 
2256.00, 
2257.00, 
2258.00, 
2259.00, 
2260.00, 
2261.00, 
2262.00, 
2263.00, 
2264.00, 
2265.00, 
2266.00, 
2267.00, 
2268.00, 
2269.00, 
2270.00, 
2271.00, 
2272.00, 
2273.00, 
2274.00, 
2275.00, 
2276.00, 
2277.00, 
2278.00, 
2279.00, 
2280.00, 
2281.00, 
2282.00, 
2283.00, 
2284.00, 
2285.00, 
2286.00, 
2287.00, 
2288.00, 
2289.00, 
2290.00, 
2291.00, 
2292.00, 
2293.00, 
2294.00, 
2295.00, 
2296.00, 
2297.00, 
2298.00, 
2299.00, 
2300.00, 
2301.00, 
2302.00, 
2303.00, 
2304.00, 
2305.00, 
2306.00, 
2307.00, 
2308.00, 
2309.00, 
2310.00, 
2311.00, 
2312.00, 
2313.00, 
2314.00, 
2315.00, 
2316.00, 
2317.00, 
2318.00, 
2319.00, 
2320.00, 
2321.00, 
2322.00, 
2323.00, 
2324.00, 
2325.00, 
2326.00, 
2327.00, 
2328.00, 
2329.00, 
2330.00, 
2331.00, 
2332.00, 
2333.00, 
2334.00, 
2335.00, 
2336.00, 
2337.00, 
2338.00, 
2339.00, 
2340.00, 
2341.00, 
2342.00, 
2343.00, 
2344.00, 
2345.00, 
2346.00, 
2347.00, 
2348.00, 
2349.00, 
2350.00, 
2351.00, 
2352.00, 
2353.00, 
2354.00, 
2355.00, 
2356.00, 
2357.00, 
2358.00, 
2359.00, 
2360.00, 
2361.00, 
2362.00, 
2363.00, 
2364.00, 
2365.00, 
2366.00, 
2367.00, 
2368.00, 
2369.00, 
2370.00, 
2371.00, 
2372.00, 
2373.00, 
2374.00, 
2375.00, 
2376.00, 
2377.00, 
2378.00, 
2379.00, 
2380.00, 
2381.00, 
2382.00, 
2383.00, 
2384.00, 
2385.00, 
2386.00, 
2387.00, 
2388.00, 
2389.00, 
2390.00, 
2391.00, 
2392.00, 
2393.00, 
2394.00, 
2395.00, 
2396.00, 
2397.00, 
2398.00, 
2399.00, 
2400.00, 
2401.00, 
2402.00, 
2403.00, 
2404.00, 
2405.00, 
2406.00, 
2407.00, 
2408.00, 
2409.00, 
2410.00, 
2411.00, 
2412.00, 
2413.00, 
2414.00, 
2415.00, 
2416.00, 
2417.00, 
2418.00, 
2419.00, 
2420.00, 
2421.00, 
2422.00, 
2423.00, 
2424.00, 
2425.00, 
2426.00, 
2427.00, 
2428.00, 
2429.00, 
2430.00, 
2431.00, 
2432.00, 
2433.00, 
2434.00, 
2435.00, 
2436.00, 
2437.00, 
2438.00, 
2439.00, 
2440.00, 
2441.00, 
2442.00, 
2443.00, 
2444.00, 
2445.00, 
2446.00, 
2447.00, 
2448.00, 
2449.00, 
2450.00, 
2451.00, 
2452.00, 
2453.00, 
2454.00, 
2455.00, 
2456.00, 
2457.00, 
2458.00, 
2459.00, 
2460.00, 
2461.00, 
2462.00, 
2463.00, 
2464.00, 
2465.00, 
2466.00, 
2467.00, 
2468.00, 
2469.00, 
2470.00, 
2471.00, 
2472.00, 
2473.00, 
2474.00, 
2475.00, 
2476.00, 
2477.00, 
2478.00, 
2479.00, 
2480.00, 
2481.00, 
2482.00, 
2483.00, 
2484.00, 
2485.00, 
2486.00, 
2487.00, 
2488.00, 
2489.00, 
2490.00, 
2491.00, 
2492.00, 
2493.00, 
2494.00, 
2495.00, 
2496.00, 
2497.00, 
2498.00, 
2499.00, 
2500.00, 
2501.00, 
2502.00, 
2503.00, 
2504.00, 
2505.00, 
2506.00, 
2507.00, 
2508.00, 
2509.00, 
2510.00, 
2511.00, 
2512.00, 
2513.00, 
2514.00, 
2515.00, 
2516.00, 
2517.00, 
2518.00, 
2519.00, 
2520.00, 
2521.00, 
2522.00, 
2523.00, 
2524.00, 
2525.00, 
2526.00, 
2527.00, 
2528.00, 
2529.00, 
2530.00, 
2531.00, 
2532.00, 
2533.00, 
2534.00, 
2535.00, 
2536.00, 
2537.00, 
2538.00, 
2539.00, 
2540.00, 
2541.00, 
2542.00, 
2543.00, 
2544.00, 
2545.00, 
2546.00, 
2547.00, 
2548.00, 
2549.00, 
2550.00, 
2551.00, 
2552.00, 
2553.00, 
2554.00, 
2555.00, 
2556.00, 
2557.00, 
2558.00, 
2559.00, 
2560.00, 
2561.00, 
2562.00, 
2563.00, 
2564.00, 
2565.00, 
2566.00, 
2567.00, 
2568.00, 
2569.00, 
2570.00, 
2571.00, 
2572.00, 
2573.00, 
2574.00, 
2575.00, 
2576.00, 
2577.00, 
2578.00, 
2579.00, 
2580.00, 
2581.00, 
2582.00, 
2583.00, 
2584.00, 
2585.00, 
2586.00, 
2587.00, 
2588.00, 
2589.00, 
2590.00, 
2591.00, 
2592.00, 
2593.00, 
2594.00, 
2595.00, 
2596.00, 
2597.00, 
2598.00, 
2599.00, 
2600.00, 
