"1cP2 - RawData"
"Wavelength nm.","T%"
200.00,0.000
201.00,0.002
202.00,0.003
203.00,-0.002
204.00,0.004
205.00,0.001
206.00,0.002
207.00,-0.001
208.00,-0.000
209.00,0.001
210.00,0.000
211.00,-0.000
212.00,-0.001
213.00,0.001
214.00,0.001
215.00,0.001
216.00,0.001
217.00,0.002
218.00,0.000
219.00,0.000
220.00,0.002
221.00,0.001
222.00,-0.001
223.00,-0.002
224.00,-0.000
225.00,0.000
226.00,-0.001
227.00,0.002
228.00,0.002
229.00,-0.001
230.00,-0.000
231.00,0.000
232.00,-0.000
233.00,0.001
234.00,0.001
235.00,0.002
236.00,0.000
237.00,-0.002
238.00,0.001
239.00,0.000
240.00,0.001
241.00,-0.001
242.00,0.000
243.00,-0.001
244.00,0.000
245.00,0.001
246.00,0.002
247.00,0.001
248.00,0.001
249.00,0.000
250.00,0.003
251.00,0.000
252.00,-0.001
253.00,-0.000
254.00,-0.002
255.00,0.001
256.00,-0.001
257.00,0.000
258.00,0.000
259.00,0.002
260.00,0.000
261.00,-0.001
262.00,0.002
263.00,-0.000
264.00,0.002
265.00,0.001
266.00,0.001
267.00,0.001
268.00,-0.000
269.00,-0.000
270.00,-0.001
271.00,-0.000
272.00,0.000
273.00,0.002
274.00,-0.000
275.00,0.001
276.00,0.001
277.00,0.001
278.00,0.000
279.00,0.000
280.00,0.001
281.00,-0.001
282.00,0.000
283.00,0.001
284.00,0.001
285.00,0.000
286.00,-0.001
287.00,0.001
288.00,0.001
289.00,0.002
290.00,0.001
291.00,-0.001
292.00,0.001
293.00,0.002
294.00,0.000
295.00,-0.000
296.00,0.000
297.00,0.000
298.00,0.000
299.00,0.002
300.00,0.001
301.00,0.001
302.00,-0.000
303.00,0.001
304.00,-0.001
305.00,0.003
306.00,0.003
307.00,0.006
308.00,0.007
309.00,0.015
310.00,0.024
311.00,0.036
312.00,0.055
313.00,0.086
314.00,0.126
315.00,0.190
316.00,0.270
317.00,0.386
318.00,0.524
319.00,0.717
320.00,0.913
321.00,1.222
322.00,1.565
323.00,1.989
324.00,2.458
325.00,2.963
326.00,3.511
327.00,4.188
328.00,4.931
329.00,5.677
330.00,6.508
331.00,7.365
332.00,8.295
333.00,9.308
334.00,10.203
335.00,11.272
336.00,12.293
337.00,13.403
338.00,14.466
339.00,15.459
340.00,16.523
341.00,17.538
342.00,18.505
343.00,19.449
344.00,20.349
345.00,21.389
346.00,22.189
347.00,22.977
348.00,23.752
349.00,24.434
350.00,25.178
351.00,25.802
352.00,26.427
353.00,27.043
354.00,27.592
355.00,28.160
356.00,28.687
357.00,29.103
358.00,29.588
359.00,30.063
360.00,30.448
361.00,30.699
362.00,31.057
363.00,31.342
364.00,31.551
365.00,31.833
366.00,32.059
367.00,32.126
368.00,32.268
369.00,32.408
370.00,32.571
371.00,32.726
372.00,32.693
373.00,32.716
374.00,32.757
375.00,32.726
376.00,32.585
377.00,32.505
378.00,32.393
379.00,32.268
380.00,32.272
381.00,32.288
382.00,32.320
383.00,32.397
384.00,32.495
385.00,32.644
386.00,32.694
387.00,32.856
388.00,33.067
389.00,33.068
390.00,33.229
391.00,33.328
392.00,33.421
393.00,33.472
394.00,33.559
395.00,33.595
396.00,33.556
397.00,33.637
398.00,33.636
399.00,33.671
400.00,33.729
401.00,33.709
402.00,33.745
403.00,33.688
404.00,33.704
405.00,33.678
406.00,33.638
407.00,33.595
408.00,33.585
409.00,33.539
410.00,33.403
411.00,33.394
412.00,33.297
413.00,33.335
414.00,33.336
415.00,33.346
416.00,33.421
417.00,33.353
418.00,33.357
419.00,33.478
420.00,33.485
421.00,33.451
422.00,33.435
423.00,33.453
424.00,33.472
425.00,33.482
426.00,33.515
427.00,33.570
428.00,33.570
429.00,33.543
430.00,33.639
431.00,33.725
432.00,33.684
433.00,33.719
434.00,33.762
435.00,33.789
436.00,33.845
437.00,33.865
438.00,33.898
439.00,33.905
440.00,33.966
441.00,34.040
442.00,34.103
443.00,34.121
444.00,34.232
445.00,34.276
446.00,34.346
447.00,34.396
448.00,34.515
449.00,34.609
450.00,34.652
451.00,34.719
452.00,34.831
453.00,34.911
454.00,34.946
455.00,35.107
456.00,35.180
457.00,35.275
458.00,35.266
459.00,35.439
460.00,35.502
461.00,35.653
462.00,35.727
463.00,35.828
464.00,35.949
465.00,36.032
466.00,36.100
467.00,36.191
468.00,36.234
469.00,36.341
470.00,36.373
471.00,36.410
472.00,36.498
473.00,36.488
474.00,36.647
475.00,36.733
476.00,36.792
477.00,36.871
478.00,36.989
479.00,37.167
480.00,37.258
481.00,37.294
482.00,37.413
483.00,37.537
484.00,37.680
485.00,37.789
486.00,37.897
487.00,38.038
488.00,38.161
489.00,38.318
490.00,38.448
491.00,38.550
492.00,38.783
493.00,38.851
494.00,38.855
495.00,38.866
496.00,38.921
497.00,39.033
498.00,39.221
499.00,39.254
500.00,39.328
501.00,39.417
502.00,39.442
503.00,39.635
504.00,39.621
505.00,39.718
506.00,39.867
507.00,39.896
508.00,39.978
509.00,40.131
510.00,40.248
511.00,40.289
512.00,40.415
513.00,40.478
514.00,40.662
515.00,40.757
516.00,40.803
517.00,40.924
518.00,41.034
519.00,41.028
520.00,41.047
521.00,41.102
522.00,41.212
523.00,41.200
524.00,41.345
525.00,41.456
526.00,41.523
527.00,41.549
528.00,41.629
529.00,41.757
530.00,41.955
531.00,42.038
532.00,42.009
533.00,42.076
534.00,42.199
535.00,42.295
536.00,42.279
537.00,42.372
538.00,42.418
539.00,42.412
540.00,42.500
541.00,42.558
542.00,42.570
543.00,42.565
544.00,42.801
545.00,42.845
546.00,42.760
547.00,42.887
548.00,42.937
549.00,43.048
550.00,43.118
551.00,43.175
552.00,43.234
553.00,43.266
554.00,43.326
555.00,43.381
556.00,43.415
557.00,43.451
558.00,43.465
559.00,43.607
560.00,43.636
561.00,43.723
562.00,43.765
563.00,43.770
564.00,43.854
565.00,43.815
566.00,43.810
567.00,43.808
568.00,43.819
569.00,43.870
570.00,43.910
571.00,43.960
572.00,43.952
573.00,43.913
574.00,43.987
575.00,43.993
576.00,43.918
577.00,44.053
578.00,44.172
579.00,44.193
580.00,44.203
581.00,44.427
582.00,44.435
583.00,44.426
584.00,44.540
585.00,44.571
586.00,44.586
587.00,44.630
588.00,44.668
589.00,44.553
590.00,44.711
591.00,44.737
592.00,44.627
593.00,44.704
594.00,44.816
595.00,44.821
596.00,44.920
597.00,44.967
598.00,45.033
599.00,45.027
600.00,45.069
601.00,45.068
602.00,45.002
603.00,45.115
604.00,45.185
605.00,45.268
606.00,45.223
607.00,45.246
608.00,45.439
609.00,45.452
610.00,45.121
611.00,45.298
612.00,45.199
613.00,45.357
614.00,45.387
615.00,45.284
616.00,45.338
617.00,45.492
618.00,45.550
619.00,45.505
620.00,45.553
621.00,45.547
622.00,45.593
623.00,45.668
624.00,45.675
625.00,45.669
626.00,45.683
627.00,45.755
628.00,45.792
629.00,45.710
630.00,45.686
631.00,45.633
632.00,45.929
633.00,46.046
634.00,46.056
635.00,45.993
636.00,46.026
637.00,46.082
638.00,46.064
639.00,46.220
640.00,46.200
641.00,46.184
642.00,46.206
643.00,46.319
644.00,46.382
645.00,46.354
646.00,46.447
647.00,46.482
648.00,46.454
649.00,46.494
650.00,46.440
651.00,46.696
652.00,46.702
653.00,46.660
654.00,46.664
655.00,46.877
656.00,47.120
657.00,46.890
658.00,46.843
659.00,46.922
660.00,46.991
661.00,47.071
662.00,47.030
663.00,47.055
664.00,47.325
665.00,47.399
666.00,47.211
667.00,47.256
668.00,47.264
669.00,47.481
670.00,47.793
671.00,47.689
672.00,47.666
673.00,47.618
674.00,47.691
675.00,47.639
676.00,47.841
677.00,47.978
678.00,47.671
679.00,47.867
680.00,48.011
681.00,48.046
682.00,47.900
683.00,47.891
684.00,48.127
685.00,48.133
686.00,47.940
687.00,48.068
688.00,48.094
689.00,47.951
690.00,48.348
691.00,48.561
692.00,48.121
693.00,48.145
694.00,48.289
695.00,48.265
696.00,48.257
697.00,48.284
698.00,48.271
699.00,48.633
700.00,48.522
701.00,48.364
702.00,48.416
703.00,48.737
704.00,48.861
705.00,48.568
706.00,48.638
707.00,48.661
708.00,48.655
709.00,49.220
710.00,48.773
711.00,48.706
712.00,48.635
713.00,48.801
714.00,48.625
715.00,49.027
716.00,48.806
717.00,48.997
718.00,48.989
719.00,48.941
720.00,48.949
721.00,53.742
722.00,53.689
723.00,53.625
724.00,53.627
725.00,53.595
726.00,53.526
727.00,53.552
728.00,53.521
729.00,53.500
730.00,53.502
731.00,53.476
732.00,53.460
733.00,53.483
734.00,53.439
735.00,53.450
736.00,53.448
737.00,53.432
738.00,53.461
739.00,53.434
740.00,53.419
741.00,53.427
742.00,53.440
743.00,53.328
744.00,53.234
745.00,53.234
746.00,53.262
747.00,53.231
748.00,53.090
749.00,53.086
750.00,53.090
751.00,53.093
752.00,53.052
753.00,53.018
754.00,53.083
755.00,52.994
756.00,52.946
757.00,52.959
758.00,52.968
759.00,52.930
760.00,52.859
761.00,52.800
762.00,52.840
763.00,52.857
764.00,52.796
765.00,52.748
766.00,52.810
767.00,52.718
768.00,52.703
769.00,52.703
770.00,52.773
771.00,52.641
772.00,52.696
773.00,52.574
774.00,52.686
775.00,52.641
776.00,52.564
777.00,52.626
778.00,52.541
779.00,52.618
780.00,52.445
781.00,52.491
782.00,52.522
783.00,52.434
784.00,52.510
785.00,52.333
786.00,52.425
787.00,52.416
788.00,52.282
789.00,52.304
790.00,52.171
791.00,52.289
792.00,52.177
793.00,52.208
794.00,52.097
795.00,52.111
796.00,52.080
797.00,52.029
798.00,52.073
799.00,51.940
800.00,51.934
801.00,51.988
802.00,51.930
803.00,51.876
804.00,51.796
805.00,51.900
806.00,51.811
807.00,51.761
808.00,51.787
809.00,51.721
810.00,51.711
811.00,51.668
812.00,51.681
813.00,51.573
814.00,51.660
815.00,51.463
816.00,51.551
817.00,51.506
818.00,51.464
819.00,51.527
820.00,51.392
821.00,51.427
822.00,51.420
823.00,51.265
824.00,51.407
825.00,51.233
826.00,51.185
827.00,51.300
828.00,51.301
829.00,51.240
830.00,51.142
831.00,53.642
832.00,53.590
833.00,53.560
834.00,53.552
835.00,53.519
836.00,53.475
837.00,53.572
838.00,53.414
839.00,53.415
840.00,53.324
841.00,53.382
842.00,53.312
843.00,53.323
844.00,53.305
845.00,53.194
846.00,53.249
847.00,53.212
848.00,53.175
849.00,53.110
850.00,53.093
851.00,53.013
852.00,53.064
853.00,52.934
854.00,52.917
855.00,52.864
856.00,52.899
857.00,52.873
858.00,52.810
859.00,52.830
860.00,52.766
861.00,52.911
862.00,52.707
863.00,52.736
864.00,52.668
865.00,52.718
866.00,52.638
867.00,52.627
868.00,52.651
869.00,52.572
870.00,52.623
871.00,52.567
872.00,52.603
873.00,52.519
874.00,52.565
875.00,52.474
876.00,52.520
877.00,52.454
878.00,52.468
879.00,52.432
880.00,52.424
881.00,52.381
882.00,52.420
883.00,52.332
884.00,52.301
885.00,52.286
886.00,52.288
887.00,52.182
888.00,52.220
889.00,52.204
890.00,52.228
891.00,52.192
892.00,52.148
893.00,52.067
894.00,52.205
895.00,52.067
896.00,52.032
897.00,52.011
898.00,51.995
899.00,52.007
900.00,51.963
901.00,51.978
902.00,52.003
903.00,51.924
904.00,51.896
905.00,51.946
906.00,51.996
907.00,51.849
908.00,51.794
909.00,51.812
910.00,51.747
911.00,51.765
912.00,51.746
913.00,51.684
914.00,51.673
915.00,51.643
916.00,51.613
917.00,51.600
918.00,51.657
919.00,51.598
920.00,51.550
921.00,51.538
922.00,51.536
923.00,51.500
924.00,51.455
925.00,51.480
926.00,51.433
927.00,51.425
928.00,51.350
929.00,51.399
930.00,51.325
931.00,51.361
932.00,51.250
933.00,51.341
934.00,51.279
935.00,51.234
936.00,51.197
937.00,51.199
938.00,51.165
939.00,51.169
940.00,51.124
941.00,51.159
942.00,51.110
943.00,51.099
944.00,51.046
945.00,51.065
946.00,51.056
947.00,50.961
948.00,50.953
949.00,50.991
950.00,50.947
951.00,50.896
952.00,50.887
953.00,50.842
954.00,50.837
955.00,50.779
956.00,50.794
957.00,50.709
958.00,50.742
959.00,50.671
960.00,50.685
961.00,50.671
962.00,50.675
963.00,50.622
964.00,50.617
965.00,50.633
966.00,50.600
967.00,50.626
968.00,50.568
969.00,50.620
970.00,50.575
971.00,50.597
972.00,50.539
973.00,50.591
974.00,50.609
975.00,50.567
976.00,50.591
977.00,50.568
978.00,50.613
979.00,50.610
980.00,50.560
981.00,50.592
982.00,50.519
983.00,50.566
984.00,50.522
985.00,50.573
986.00,50.522
987.00,50.538
988.00,50.491
989.00,50.502
990.00,50.480
991.00,50.457
992.00,50.483
993.00,50.419
994.00,50.421
995.00,50.423
996.00,50.413
997.00,50.416
998.00,50.363
999.00,50.381
1000.00,50.332
1001.00,50.337
1002.00,50.322
1003.00,50.315
1004.00,50.293
1005.00,50.241
1006.00,50.300
1007.00,50.275
1008.00,50.240
1009.00,50.227
1010.00,50.252
1011.00,50.213
1012.00,50.149
1013.00,50.183
1014.00,50.154
1015.00,50.182
1016.00,50.144
1017.00,50.123
1018.00,50.143
1019.00,50.083
1020.00,50.090
1021.00,50.047
1022.00,50.056
1023.00,49.998
1024.00,50.008
1025.00,49.991
1026.00,49.965
1027.00,49.951
1028.00,49.943
1029.00,49.933
1030.00,49.901
1031.00,49.919
1032.00,49.870
1033.00,49.884
1034.00,49.855
1035.00,49.817
1036.00,49.812
1037.00,49.777
1038.00,49.765
1039.00,49.715
1040.00,49.712
1041.00,49.671
1042.00,49.678
1043.00,49.646
1044.00,49.694
1045.00,49.661
1046.00,49.644
1047.00,49.700
1048.00,49.683
1049.00,49.705
1050.00,49.694
1051.00,49.752
1052.00,49.727
1053.00,49.747
1054.00,49.734
1055.00,49.774
1056.00,49.762
1057.00,49.748
1058.00,49.750
1059.00,49.737
1060.00,49.760
1061.00,49.727
1062.00,49.726
1063.00,49.728
1064.00,49.745
1065.00,49.713
1066.00,49.728
1067.00,49.710
1068.00,49.737
1069.00,49.665
1070.00,49.656
1071.00,49.646
1072.00,49.690
1073.00,49.643
1074.00,49.650
1075.00,49.630
1076.00,49.630
1077.00,49.611
1078.00,49.590
1079.00,49.604
1080.00,49.600
1081.00,49.580
1082.00,49.586
1083.00,49.585
1084.00,49.586
1085.00,49.595
1086.00,49.567
1087.00,49.569
1088.00,49.550
1089.00,49.533
1090.00,49.511
1091.00,49.537
1092.00,49.497
1093.00,49.499
1094.00,49.469
1095.00,49.474
1096.00,49.452
1097.00,49.464
1098.00,49.456
1099.00,49.460
1100.00,49.435
1101.00,49.444
1102.00,49.414
1103.00,49.425
1104.00,49.401
1105.00,49.398
1106.00,49.371
1107.00,49.396
1108.00,49.372
1109.00,49.363
1110.00,49.345
1111.00,49.349
1112.00,49.332
1113.00,49.333
1114.00,49.315
1115.00,49.323
1116.00,49.306
1117.00,49.314
1118.00,49.276
1119.00,49.284
1120.00,49.256
1121.00,49.269
1122.00,49.234
1123.00,49.242
1124.00,49.251
1125.00,49.251
1126.00,49.233
1127.00,49.262
1128.00,49.237
1129.00,49.230
1130.00,49.204
1131.00,49.216
1132.00,49.216
1133.00,49.211
1134.00,49.188
1135.00,49.201
1136.00,49.170
1137.00,49.197
1138.00,49.192
1139.00,49.206
1140.00,49.193
1141.00,49.189
1142.00,49.167
1143.00,49.192
1144.00,49.162
1145.00,49.158
1146.00,49.148
1147.00,49.164
1148.00,49.127
1149.00,49.157
1150.00,49.137
1151.00,49.150
1152.00,49.126
1153.00,49.133
1154.00,49.126
1155.00,49.128
1156.00,49.100
1157.00,49.129
1158.00,49.104
1159.00,49.113
1160.00,49.112
1161.00,49.117
1162.00,49.111
1163.00,49.102
1164.00,49.114
1165.00,49.108
1166.00,49.114
1167.00,49.087
1168.00,49.128
1169.00,49.096
1170.00,49.100
1171.00,49.081
1172.00,49.086
1173.00,49.085
1174.00,49.086
1175.00,49.085
1176.00,49.096
1177.00,49.065
1178.00,49.075
1179.00,49.110
1180.00,49.065
1181.00,49.103
1182.00,49.073
1183.00,49.081
1184.00,49.079
1185.00,49.094
1186.00,49.073
1187.00,49.083
1188.00,49.079
1189.00,49.070
1190.00,49.083
1191.00,49.065
1192.00,49.087
1193.00,49.064
1194.00,49.072
1195.00,49.051
1196.00,49.083
1197.00,49.075
1198.00,49.065
1199.00,49.049
1200.00,49.058
1201.00,49.094
1202.00,49.059
1203.00,49.080
1204.00,49.067
1205.00,49.107
1206.00,49.081
1207.00,49.092
1208.00,49.081
1209.00,49.079
1210.00,49.077
1211.00,49.061
1212.00,49.108
1213.00,49.052
1214.00,49.086
1215.00,49.062
1216.00,49.070
1217.00,49.082
1218.00,49.057
1219.00,49.074
1220.00,49.060
1221.00,49.083
1222.00,49.074
1223.00,49.115
1224.00,49.083
1225.00,49.068
1226.00,49.085
1227.00,49.082
1228.00,49.110
1229.00,49.098
1230.00,49.132
1231.00,49.130
1232.00,49.155
1233.00,49.146
1234.00,49.143
1235.00,49.141
1236.00,49.139
1237.00,49.156
1238.00,49.132
1239.00,49.144
1240.00,49.122
1241.00,49.142
1242.00,49.147
1243.00,49.167
1244.00,49.138
1245.00,49.189
1246.00,49.174
1247.00,49.155
1248.00,49.167
1249.00,49.171
1250.00,49.194
1251.00,49.171
1252.00,49.185
1253.00,49.176
1254.00,49.227
1255.00,49.199
1256.00,49.195
1257.00,49.178
1258.00,49.237
1259.00,49.219
1260.00,49.247
1261.00,49.230
1262.00,49.219
1263.00,49.221
1264.00,49.246
1265.00,49.250
1266.00,49.247
1267.00,49.274
1268.00,49.268
1269.00,49.293
1270.00,49.313
1271.00,49.300
1272.00,49.291
1273.00,49.312
1274.00,49.324
1275.00,49.316
1276.00,49.296
1277.00,49.321
1278.00,49.329
1279.00,49.328
1280.00,49.322
1281.00,49.347
1282.00,49.348
1283.00,49.357
1284.00,49.383
1285.00,49.345
1286.00,49.361
1287.00,49.346
1288.00,49.374
1289.00,49.371
1290.00,49.404
1291.00,49.385
1292.00,49.404
1293.00,49.413
1294.00,49.437
1295.00,49.420
1296.00,49.425
1297.00,49.452
1298.00,49.474
1299.00,49.431
1300.00,49.483
1301.00,49.439
1302.00,49.478
1303.00,49.475
1304.00,49.457
1305.00,49.489
1306.00,49.478
1307.00,49.490
1308.00,49.492
1309.00,49.513
1310.00,49.497
1311.00,49.502
1312.00,49.501
1313.00,49.542
1314.00,49.543
1315.00,49.547
1316.00,49.544
1317.00,49.584
1318.00,49.561
1319.00,49.587
1320.00,49.585
1321.00,49.767
1322.00,49.752
1323.00,49.729
1324.00,49.744
1325.00,49.723
1326.00,49.730
1327.00,49.733
1328.00,49.761
1329.00,49.662
1330.00,49.752
1331.00,49.744
1332.00,49.751
1333.00,49.762
1334.00,49.794
1335.00,49.808
1336.00,49.848
1337.00,49.848
1338.00,49.927
1339.00,49.953
1340.00,50.024
1341.00,50.101
1342.00,50.154
1343.00,50.203
1344.00,50.263
1345.00,50.314
1346.00,50.355
1347.00,50.383
1348.00,50.423
1349.00,50.431
1350.00,50.457
1351.00,50.448
1352.00,50.464
1353.00,50.464
1354.00,50.472
1355.00,50.403
1356.00,50.483
1357.00,50.481
1358.00,50.494
1359.00,50.500
1360.00,50.519
1361.00,50.500
1362.00,50.456
1363.00,50.583
1364.00,50.640
1365.00,50.501
1366.00,50.589
1367.00,50.547
1368.00,50.461
1369.00,50.535
1370.00,50.535
1371.00,50.523
1372.00,50.527
1373.00,50.534
1374.00,50.546
1375.00,50.504
1376.00,50.531
1377.00,50.525
1378.00,50.546
1379.00,50.527
1380.00,50.563
1381.00,50.568
1382.00,50.460
1383.00,50.546
1384.00,50.447
1385.00,50.513
1386.00,50.577
1387.00,50.540
1388.00,50.427
1389.00,50.479
1390.00,50.505
1391.00,50.517
1392.00,50.465
1393.00,50.524
1394.00,50.507
1395.00,50.509
1396.00,50.477
1397.00,50.503
1398.00,50.496
1399.00,50.488
1400.00,50.483
1401.00,50.472
1402.00,50.521
1403.00,50.559
1404.00,50.549
1405.00,50.509
1406.00,50.602
1407.00,50.581
1408.00,50.604
1409.00,50.563
1410.00,50.625
1411.00,50.582
1412.00,50.662
1413.00,50.612
1414.00,50.601
1415.00,50.643
1416.00,50.647
1417.00,50.678
1418.00,50.659
1419.00,50.677
1420.00,50.685
1421.00,50.757
1422.00,50.718
1423.00,50.774
1424.00,50.767
1425.00,50.799
1426.00,50.791
1427.00,50.821
1428.00,50.801
1429.00,50.839
1430.00,50.840
1431.00,50.883
1432.00,50.882
1433.00,50.903
1434.00,50.892
1435.00,50.972
1436.00,50.963
1437.00,50.959
1438.00,50.973
1439.00,51.007
1440.00,51.027
1441.00,51.014
1442.00,51.054
1443.00,51.090
1444.00,51.114
1445.00,51.085
1446.00,51.149
1447.00,51.146
1448.00,51.216
1449.00,51.195
1450.00,51.202
1451.00,51.208
1452.00,51.248
1453.00,51.244
1454.00,51.278
1455.00,51.285
1456.00,51.306
1457.00,51.296
1458.00,51.331
1459.00,51.327
1460.00,51.369
1461.00,51.355
1462.00,51.414
1463.00,51.390
1464.00,51.409
1465.00,51.446
1466.00,51.438
1467.00,51.476
1468.00,51.539
1469.00,51.492
1470.00,51.531
1471.00,51.545
1472.00,51.569
1473.00,51.586
1474.00,51.597
1475.00,51.612
1476.00,51.635
1477.00,51.599
1478.00,51.636
1479.00,51.673
1480.00,51.663
1481.00,51.693
1482.00,51.713
1483.00,51.721
1484.00,51.748
1485.00,51.736
1486.00,51.763
1487.00,51.784
1488.00,51.802
1489.00,51.784
1490.00,51.834
1491.00,51.801
1492.00,51.856
1493.00,51.811
1494.00,51.858
1495.00,51.850
1496.00,51.871
1497.00,51.860
1498.00,51.890
1499.00,51.900
1500.00,51.939
1501.00, 
1502.00, 
1503.00, 
1504.00, 
1505.00, 
1506.00, 
1507.00, 
1508.00, 
1509.00, 
1510.00, 
1511.00, 
1512.00, 
1513.00, 
1514.00, 
1515.00, 
1516.00, 
1517.00, 
1518.00, 
1519.00, 
1520.00, 
1521.00, 
1522.00, 
1523.00, 
1524.00, 
1525.00, 
1526.00, 
1527.00, 
1528.00, 
1529.00, 
1530.00, 
1531.00, 
1532.00, 
1533.00, 
1534.00, 
1535.00, 
1536.00, 
1537.00, 
1538.00, 
1539.00, 
1540.00, 
1541.00, 
1542.00, 
1543.00, 
1544.00, 
1545.00, 
1546.00, 
1547.00, 
1548.00, 
1549.00, 
1550.00, 
1551.00, 
1552.00, 
1553.00, 
1554.00, 
1555.00, 
1556.00, 
1557.00, 
1558.00, 
1559.00, 
1560.00, 
1561.00, 
1562.00, 
1563.00, 
1564.00, 
1565.00, 
1566.00, 
1567.00, 
1568.00, 
1569.00, 
1570.00, 
1571.00, 
1572.00, 
1573.00, 
1574.00, 
1575.00, 
1576.00, 
1577.00, 
1578.00, 
1579.00, 
1580.00, 
1581.00, 
1582.00, 
1583.00, 
1584.00, 
1585.00, 
1586.00, 
1587.00, 
1588.00, 
1589.00, 
1590.00, 
1591.00, 
1592.00, 
1593.00, 
1594.00, 
1595.00, 
1596.00, 
1597.00, 
1598.00, 
1599.00, 
1600.00, 
1601.00, 
1602.00, 
1603.00, 
1604.00, 
1605.00, 
1606.00, 
1607.00, 
1608.00, 
1609.00, 
1610.00, 
1611.00, 
1612.00, 
1613.00, 
1614.00, 
1615.00, 
1616.00, 
1617.00, 
1618.00, 
1619.00, 
1620.00, 
1621.00, 
1622.00, 
1623.00, 
1624.00, 
1625.00, 
1626.00, 
1627.00, 
1628.00, 
1629.00, 
1630.00, 
1631.00, 
1632.00, 
1633.00, 
1634.00, 
1635.00, 
1636.00, 
1637.00, 
1638.00, 
1639.00, 
1640.00, 
1641.00, 
1642.00, 
1643.00, 
1644.00, 
1645.00, 
1646.00, 
1647.00, 
1648.00, 
1649.00, 
1650.00, 
1651.00, 
1652.00, 
1653.00, 
1654.00, 
1655.00, 
1656.00, 
1657.00, 
1658.00, 
1659.00, 
1660.00, 
1661.00, 
1662.00, 
1663.00, 
1664.00, 
1665.00, 
1666.00, 
1667.00, 
1668.00, 
1669.00, 
1670.00, 
1671.00, 
1672.00, 
1673.00, 
1674.00, 
1675.00, 
1676.00, 
1677.00, 
1678.00, 
1679.00, 
1680.00, 
1681.00, 
1682.00, 
1683.00, 
1684.00, 
1685.00, 
1686.00, 
1687.00, 
1688.00, 
1689.00, 
1690.00, 
1691.00, 
1692.00, 
1693.00, 
1694.00, 
1695.00, 
1696.00, 
1697.00, 
1698.00, 
1699.00, 
1700.00, 
1701.00, 
1702.00, 
1703.00, 
1704.00, 
1705.00, 
1706.00, 
1707.00, 
1708.00, 
1709.00, 
1710.00, 
1711.00, 
1712.00, 
1713.00, 
1714.00, 
1715.00, 
1716.00, 
1717.00, 
1718.00, 
1719.00, 
1720.00, 
1721.00, 
1722.00, 
1723.00, 
1724.00, 
1725.00, 
1726.00, 
1727.00, 
1728.00, 
1729.00, 
1730.00, 
1731.00, 
1732.00, 
1733.00, 
1734.00, 
1735.00, 
1736.00, 
1737.00, 
1738.00, 
1739.00, 
1740.00, 
1741.00, 
1742.00, 
1743.00, 
1744.00, 
1745.00, 
1746.00, 
1747.00, 
1748.00, 
1749.00, 
1750.00, 
1751.00, 
1752.00, 
1753.00, 
1754.00, 
1755.00, 
1756.00, 
1757.00, 
1758.00, 
1759.00, 
1760.00, 
1761.00, 
1762.00, 
1763.00, 
1764.00, 
1765.00, 
1766.00, 
1767.00, 
1768.00, 
1769.00, 
1770.00, 
1771.00, 
1772.00, 
1773.00, 
1774.00, 
1775.00, 
1776.00, 
1777.00, 
1778.00, 
1779.00, 
1780.00, 
1781.00, 
1782.00, 
1783.00, 
1784.00, 
1785.00, 
1786.00, 
1787.00, 
1788.00, 
1789.00, 
1790.00, 
1791.00, 
1792.00, 
1793.00, 
1794.00, 
1795.00, 
1796.00, 
1797.00, 
1798.00, 
1799.00, 
1800.00, 
1801.00, 
1802.00, 
1803.00, 
1804.00, 
1805.00, 
1806.00, 
1807.00, 
1808.00, 
1809.00, 
1810.00, 
1811.00, 
1812.00, 
1813.00, 
1814.00, 
1815.00, 
1816.00, 
1817.00, 
1818.00, 
1819.00, 
1820.00, 
1821.00, 
1822.00, 
1823.00, 
1824.00, 
1825.00, 
1826.00, 
1827.00, 
1828.00, 
1829.00, 
1830.00, 
1831.00, 
1832.00, 
1833.00, 
1834.00, 
1835.00, 
1836.00, 
1837.00, 
1838.00, 
1839.00, 
1840.00, 
1841.00, 
1842.00, 
1843.00, 
1844.00, 
1845.00, 
1846.00, 
1847.00, 
1848.00, 
1849.00, 
1850.00, 
1851.00, 
1852.00, 
1853.00, 
1854.00, 
1855.00, 
1856.00, 
1857.00, 
1858.00, 
1859.00, 
1860.00, 
1861.00, 
1862.00, 
1863.00, 
1864.00, 
1865.00, 
1866.00, 
1867.00, 
1868.00, 
1869.00, 
1870.00, 
1871.00, 
1872.00, 
1873.00, 
1874.00, 
1875.00, 
1876.00, 
1877.00, 
1878.00, 
1879.00, 
1880.00, 
1881.00, 
1882.00, 
1883.00, 
1884.00, 
1885.00, 
1886.00, 
1887.00, 
1888.00, 
1889.00, 
1890.00, 
1891.00, 
1892.00, 
1893.00, 
1894.00, 
1895.00, 
1896.00, 
1897.00, 
1898.00, 
1899.00, 
1900.00, 
1901.00, 
1902.00, 
1903.00, 
1904.00, 
1905.00, 
1906.00, 
1907.00, 
1908.00, 
1909.00, 
1910.00, 
1911.00, 
1912.00, 
1913.00, 
1914.00, 
1915.00, 
1916.00, 
1917.00, 
1918.00, 
1919.00, 
1920.00, 
1921.00, 
1922.00, 
1923.00, 
1924.00, 
1925.00, 
1926.00, 
1927.00, 
1928.00, 
1929.00, 
1930.00, 
1931.00, 
1932.00, 
1933.00, 
1934.00, 
1935.00, 
1936.00, 
1937.00, 
1938.00, 
1939.00, 
1940.00, 
1941.00, 
1942.00, 
1943.00, 
1944.00, 
1945.00, 
1946.00, 
1947.00, 
1948.00, 
1949.00, 
1950.00, 
1951.00, 
1952.00, 
1953.00, 
1954.00, 
1955.00, 
1956.00, 
1957.00, 
1958.00, 
1959.00, 
1960.00, 
1961.00, 
1962.00, 
1963.00, 
1964.00, 
1965.00, 
1966.00, 
1967.00, 
1968.00, 
1969.00, 
1970.00, 
1971.00, 
1972.00, 
1973.00, 
1974.00, 
1975.00, 
1976.00, 
1977.00, 
1978.00, 
1979.00, 
1980.00, 
1981.00, 
1982.00, 
1983.00, 
1984.00, 
1985.00, 
1986.00, 
1987.00, 
1988.00, 
1989.00, 
1990.00, 
1991.00, 
1992.00, 
1993.00, 
1994.00, 
1995.00, 
1996.00, 
1997.00, 
1998.00, 
1999.00, 
2000.00, 
2001.00, 
2002.00, 
2003.00, 
2004.00, 
2005.00, 
2006.00, 
2007.00, 
2008.00, 
2009.00, 
2010.00, 
2011.00, 
2012.00, 
2013.00, 
2014.00, 
2015.00, 
2016.00, 
2017.00, 
2018.00, 
2019.00, 
2020.00, 
2021.00, 
2022.00, 
2023.00, 
2024.00, 
2025.00, 
2026.00, 
2027.00, 
2028.00, 
2029.00, 
2030.00, 
2031.00, 
2032.00, 
2033.00, 
2034.00, 
2035.00, 
2036.00, 
2037.00, 
2038.00, 
2039.00, 
2040.00, 
2041.00, 
2042.00, 
2043.00, 
2044.00, 
2045.00, 
2046.00, 
2047.00, 
2048.00, 
2049.00, 
2050.00, 
2051.00, 
2052.00, 
2053.00, 
2054.00, 
2055.00, 
2056.00, 
2057.00, 
2058.00, 
2059.00, 
2060.00, 
2061.00, 
2062.00, 
2063.00, 
2064.00, 
2065.00, 
2066.00, 
2067.00, 
2068.00, 
2069.00, 
2070.00, 
2071.00, 
2072.00, 
2073.00, 
2074.00, 
2075.00, 
2076.00, 
2077.00, 
2078.00, 
2079.00, 
2080.00, 
2081.00, 
2082.00, 
2083.00, 
2084.00, 
2085.00, 
2086.00, 
2087.00, 
2088.00, 
2089.00, 
2090.00, 
2091.00, 
2092.00, 
2093.00, 
2094.00, 
2095.00, 
2096.00, 
2097.00, 
2098.00, 
2099.00, 
2100.00, 
2101.00, 
2102.00, 
2103.00, 
2104.00, 
2105.00, 
2106.00, 
2107.00, 
2108.00, 
2109.00, 
2110.00, 
2111.00, 
2112.00, 
2113.00, 
2114.00, 
2115.00, 
2116.00, 
2117.00, 
2118.00, 
2119.00, 
2120.00, 
2121.00, 
2122.00, 
2123.00, 
2124.00, 
2125.00, 
2126.00, 
2127.00, 
2128.00, 
2129.00, 
2130.00, 
2131.00, 
2132.00, 
2133.00, 
2134.00, 
2135.00, 
2136.00, 
2137.00, 
2138.00, 
2139.00, 
2140.00, 
2141.00, 
2142.00, 
2143.00, 
2144.00, 
2145.00, 
2146.00, 
2147.00, 
2148.00, 
2149.00, 
2150.00, 
2151.00, 
2152.00, 
2153.00, 
2154.00, 
2155.00, 
2156.00, 
2157.00, 
2158.00, 
2159.00, 
2160.00, 
2161.00, 
2162.00, 
2163.00, 
2164.00, 
2165.00, 
2166.00, 
2167.00, 
2168.00, 
2169.00, 
2170.00, 
2171.00, 
2172.00, 
2173.00, 
2174.00, 
2175.00, 
2176.00, 
2177.00, 
2178.00, 
2179.00, 
2180.00, 
2181.00, 
2182.00, 
2183.00, 
2184.00, 
2185.00, 
2186.00, 
2187.00, 
2188.00, 
2189.00, 
2190.00, 
2191.00, 
2192.00, 
2193.00, 
2194.00, 
2195.00, 
2196.00, 
2197.00, 
2198.00, 
2199.00, 
2200.00, 
2201.00, 
2202.00, 
2203.00, 
2204.00, 
2205.00, 
2206.00, 
2207.00, 
2208.00, 
2209.00, 
2210.00, 
2211.00, 
2212.00, 
2213.00, 
2214.00, 
2215.00, 
2216.00, 
2217.00, 
2218.00, 
2219.00, 
2220.00, 
2221.00, 
2222.00, 
2223.00, 
2224.00, 
2225.00, 
2226.00, 
2227.00, 
2228.00, 
2229.00, 
2230.00, 
2231.00, 
2232.00, 
2233.00, 
2234.00, 
2235.00, 
2236.00, 
2237.00, 
2238.00, 
2239.00, 
2240.00, 
2241.00, 
2242.00, 
2243.00, 
2244.00, 
2245.00, 
2246.00, 
2247.00, 
2248.00, 
2249.00, 
2250.00, 
2251.00, 
2252.00, 
2253.00, 
2254.00, 
2255.00, 
2256.00, 
2257.00, 
2258.00, 
2259.00, 
2260.00, 
2261.00, 
2262.00, 
2263.00, 
2264.00, 
2265.00, 
2266.00, 
2267.00, 
2268.00, 
2269.00, 
2270.00, 
2271.00, 
2272.00, 
2273.00, 
2274.00, 
2275.00, 
2276.00, 
2277.00, 
2278.00, 
2279.00, 
2280.00, 
2281.00, 
2282.00, 
2283.00, 
2284.00, 
2285.00, 
2286.00, 
2287.00, 
2288.00, 
2289.00, 
2290.00, 
2291.00, 
2292.00, 
2293.00, 
2294.00, 
2295.00, 
2296.00, 
2297.00, 
2298.00, 
2299.00, 
2300.00, 
2301.00, 
2302.00, 
2303.00, 
2304.00, 
2305.00, 
2306.00, 
2307.00, 
2308.00, 
2309.00, 
2310.00, 
2311.00, 
2312.00, 
2313.00, 
2314.00, 
2315.00, 
2316.00, 
2317.00, 
2318.00, 
2319.00, 
2320.00, 
2321.00, 
2322.00, 
2323.00, 
2324.00, 
2325.00, 
2326.00, 
2327.00, 
2328.00, 
2329.00, 
2330.00, 
2331.00, 
2332.00, 
2333.00, 
2334.00, 
2335.00, 
2336.00, 
2337.00, 
2338.00, 
2339.00, 
2340.00, 
2341.00, 
2342.00, 
2343.00, 
2344.00, 
2345.00, 
2346.00, 
2347.00, 
2348.00, 
2349.00, 
2350.00, 
2351.00, 
2352.00, 
2353.00, 
2354.00, 
2355.00, 
2356.00, 
2357.00, 
2358.00, 
2359.00, 
2360.00, 
2361.00, 
2362.00, 
2363.00, 
2364.00, 
2365.00, 
2366.00, 
2367.00, 
2368.00, 
2369.00, 
2370.00, 
2371.00, 
2372.00, 
2373.00, 
2374.00, 
2375.00, 
2376.00, 
2377.00, 
2378.00, 
2379.00, 
2380.00, 
2381.00, 
2382.00, 
2383.00, 
2384.00, 
2385.00, 
2386.00, 
2387.00, 
2388.00, 
2389.00, 
2390.00, 
2391.00, 
2392.00, 
2393.00, 
2394.00, 
2395.00, 
2396.00, 
2397.00, 
2398.00, 
2399.00, 
2400.00, 
2401.00, 
2402.00, 
2403.00, 
2404.00, 
2405.00, 
2406.00, 
2407.00, 
2408.00, 
2409.00, 
2410.00, 
2411.00, 
2412.00, 
2413.00, 
2414.00, 
2415.00, 
2416.00, 
2417.00, 
2418.00, 
2419.00, 
2420.00, 
2421.00, 
2422.00, 
2423.00, 
2424.00, 
2425.00, 
2426.00, 
2427.00, 
2428.00, 
2429.00, 
2430.00, 
2431.00, 
2432.00, 
2433.00, 
2434.00, 
2435.00, 
2436.00, 
2437.00, 
2438.00, 
2439.00, 
2440.00, 
2441.00, 
2442.00, 
2443.00, 
2444.00, 
2445.00, 
2446.00, 
2447.00, 
2448.00, 
2449.00, 
2450.00, 
2451.00, 
2452.00, 
2453.00, 
2454.00, 
2455.00, 
2456.00, 
2457.00, 
2458.00, 
2459.00, 
2460.00, 
2461.00, 
2462.00, 
2463.00, 
2464.00, 
2465.00, 
2466.00, 
2467.00, 
2468.00, 
2469.00, 
2470.00, 
2471.00, 
2472.00, 
2473.00, 
2474.00, 
2475.00, 
2476.00, 
2477.00, 
2478.00, 
2479.00, 
2480.00, 
2481.00, 
2482.00, 
2483.00, 
2484.00, 
2485.00, 
2486.00, 
2487.00, 
2488.00, 
2489.00, 
2490.00, 
2491.00, 
2492.00, 
2493.00, 
2494.00, 
2495.00, 
2496.00, 
2497.00, 
2498.00, 
2499.00, 
2500.00, 
2501.00, 
2502.00, 
2503.00, 
2504.00, 
2505.00, 
2506.00, 
2507.00, 
2508.00, 
2509.00, 
2510.00, 
2511.00, 
2512.00, 
2513.00, 
2514.00, 
2515.00, 
2516.00, 
2517.00, 
2518.00, 
2519.00, 
2520.00, 
2521.00, 
2522.00, 
2523.00, 
2524.00, 
2525.00, 
2526.00, 
2527.00, 
2528.00, 
2529.00, 
2530.00, 
2531.00, 
2532.00, 
2533.00, 
2534.00, 
2535.00, 
2536.00, 
2537.00, 
2538.00, 
2539.00, 
2540.00, 
2541.00, 
2542.00, 
2543.00, 
2544.00, 
2545.00, 
2546.00, 
2547.00, 
2548.00, 
2549.00, 
2550.00, 
2551.00, 
2552.00, 
2553.00, 
2554.00, 
2555.00, 
2556.00, 
2557.00, 
2558.00, 
2559.00, 
2560.00, 
2561.00, 
2562.00, 
2563.00, 
2564.00, 
2565.00, 
2566.00, 
2567.00, 
2568.00, 
2569.00, 
2570.00, 
2571.00, 
2572.00, 
2573.00, 
2574.00, 
2575.00, 
2576.00, 
2577.00, 
2578.00, 
2579.00, 
2580.00, 
2581.00, 
2582.00, 
2583.00, 
2584.00, 
2585.00, 
2586.00, 
2587.00, 
2588.00, 
2589.00, 
2590.00, 
2591.00, 
2592.00, 
2593.00, 
2594.00, 
2595.00, 
2596.00, 
2597.00, 
2598.00, 
2599.00, 
2600.00, 
