"1cP3 - RawData"
"Wavelength nm.","T%"
200.00,0.002
201.00,0.001
202.00,0.002
203.00,0.001
204.00,0.001
205.00,0.002
206.00,0.001
207.00,0.002
208.00,-0.001
209.00,0.002
210.00,-0.000
211.00,0.001
212.00,0.002
213.00,-0.001
214.00,-0.001
215.00,0.002
216.00,-0.002
217.00,-0.001
218.00,0.001
219.00,-0.002
220.00,0.000
221.00,0.001
222.00,0.001
223.00,0.001
224.00,-0.002
225.00,0.002
226.00,0.002
227.00,-0.000
228.00,0.000
229.00,0.001
230.00,0.001
231.00,0.002
232.00,-0.003
233.00,0.001
234.00,-0.000
235.00,0.001
236.00,0.002
237.00,0.001
238.00,0.001
239.00,0.001
240.00,0.001
241.00,-0.000
242.00,0.002
243.00,0.000
244.00,0.003
245.00,-0.001
246.00,-0.000
247.00,0.002
248.00,0.001
249.00,0.001
250.00,-0.000
251.00,0.000
252.00,-0.001
253.00,-0.000
254.00,0.001
255.00,-0.000
256.00,0.000
257.00,-0.000
258.00,0.000
259.00,-0.002
260.00,0.000
261.00,0.000
262.00,0.001
263.00,-0.001
264.00,0.000
265.00,0.001
266.00,-0.001
267.00,-0.000
268.00,-0.001
269.00,0.000
270.00,-0.000
271.00,0.002
272.00,-0.001
273.00,-0.001
274.00,0.000
275.00,0.001
276.00,0.001
277.00,0.000
278.00,-0.000
279.00,-0.002
280.00,0.001
281.00,0.001
282.00,0.002
283.00,-0.001
284.00,0.002
285.00,-0.001
286.00,-0.001
287.00,-0.000
288.00,0.001
289.00,0.001
290.00,-0.000
291.00,-0.002
292.00,0.000
293.00,0.001
294.00,0.001
295.00,-0.000
296.00,-0.001
297.00,0.000
298.00,0.000
299.00,0.001
300.00,-0.000
301.00,0.001
302.00,0.001
303.00,-0.001
304.00,0.002
305.00,0.002
306.00,0.001
307.00,0.002
308.00,0.005
309.00,0.011
310.00,0.017
311.00,0.026
312.00,0.040
313.00,0.063
314.00,0.096
315.00,0.138
316.00,0.197
317.00,0.285
318.00,0.373
319.00,0.505
320.00,0.685
321.00,0.858
322.00,1.130
323.00,1.425
324.00,1.762
325.00,2.118
326.00,2.520
327.00,2.984
328.00,3.495
329.00,4.030
330.00,4.609
331.00,5.227
332.00,5.871
333.00,6.573
334.00,7.229
335.00,7.970
336.00,8.654
337.00,9.388
338.00,10.125
339.00,10.828
340.00,11.591
341.00,12.255
342.00,12.920
343.00,13.619
344.00,14.219
345.00,14.903
346.00,15.473
347.00,15.983
348.00,16.526
349.00,16.978
350.00,17.450
351.00,17.888
352.00,18.273
353.00,18.694
354.00,19.064
355.00,19.420
356.00,19.752
357.00,20.025
358.00,20.309
359.00,20.657
360.00,20.933
361.00,21.013
362.00,21.268
363.00,21.405
364.00,21.566
365.00,21.678
366.00,21.809
367.00,21.915
368.00,21.983
369.00,22.039
370.00,22.121
371.00,22.158
372.00,22.145
373.00,22.141
374.00,22.200
375.00,22.145
376.00,22.005
377.00,21.906
378.00,21.877
379.00,21.708
380.00,21.715
381.00,21.706
382.00,21.716
383.00,21.715
384.00,21.815
385.00,21.814
386.00,21.906
387.00,21.896
388.00,22.079
389.00,22.090
390.00,22.190
391.00,22.223
392.00,22.282
393.00,22.273
394.00,22.335
395.00,22.353
396.00,22.308
397.00,22.353
398.00,22.343
399.00,22.349
400.00,22.335
401.00,22.374
402.00,22.328
403.00,22.331
404.00,22.314
405.00,22.300
406.00,22.281
407.00,22.220
408.00,22.224
409.00,22.178
410.00,22.064
411.00,22.155
412.00,22.070
413.00,22.034
414.00,22.051
415.00,22.023
416.00,22.150
417.00,22.155
418.00,22.131
419.00,22.248
420.00,22.259
421.00,22.228
422.00,22.213
423.00,22.241
424.00,22.298
425.00,22.295
426.00,22.314
427.00,22.411
428.00,22.422
429.00,22.467
430.00,22.465
431.00,22.537
432.00,22.567
433.00,22.607
434.00,22.656
435.00,22.712
436.00,22.780
437.00,22.815
438.00,22.862
439.00,22.936
440.00,22.988
441.00,23.052
442.00,23.154
443.00,23.204
444.00,23.305
445.00,23.367
446.00,23.455
447.00,23.520
448.00,23.620
449.00,23.706
450.00,23.817
451.00,23.893
452.00,23.947
453.00,24.124
454.00,24.182
455.00,24.304
456.00,24.387
457.00,24.513
458.00,24.627
459.00,24.708
460.00,24.863
461.00,24.961
462.00,25.059
463.00,25.199
464.00,25.324
465.00,25.444
466.00,25.538
467.00,25.688
468.00,25.769
469.00,25.889
470.00,25.956
471.00,26.068
472.00,26.197
473.00,26.237
474.00,26.362
475.00,26.487
476.00,26.591
477.00,26.679
478.00,26.811
479.00,27.007
480.00,27.107
481.00,27.192
482.00,27.349
483.00,27.513
484.00,27.626
485.00,27.805
486.00,27.941
487.00,28.094
488.00,28.248
489.00,28.411
490.00,28.504
491.00,28.685
492.00,28.874
493.00,29.092
494.00,29.112
495.00,29.155
496.00,29.277
497.00,29.362
498.00,29.528
499.00,29.701
500.00,29.783
501.00,29.886
502.00,30.034
503.00,30.123
504.00,30.181
505.00,30.344
506.00,30.478
507.00,30.568
508.00,30.689
509.00,30.864
510.00,30.989
511.00,31.056
512.00,31.230
513.00,31.338
514.00,31.441
515.00,31.619
516.00,31.714
517.00,31.826
518.00,31.945
519.00,32.021
520.00,32.106
521.00,32.205
522.00,32.330
523.00,32.344
524.00,32.490
525.00,32.597
526.00,32.723
527.00,32.807
528.00,32.914
529.00,33.114
530.00,33.263
531.00,33.318
532.00,33.316
533.00,33.471
534.00,33.608
535.00,33.660
536.00,33.712
537.00,33.866
538.00,33.925
539.00,33.959
540.00,34.046
541.00,34.087
542.00,34.194
543.00,34.244
544.00,34.419
545.00,34.429
546.00,34.427
547.00,34.558
548.00,34.677
549.00,34.754
550.00,34.823
551.00,34.949
552.00,35.027
553.00,35.035
554.00,35.138
555.00,35.186
556.00,35.243
557.00,35.365
558.00,35.398
559.00,35.532
560.00,35.578
561.00,35.640
562.00,35.738
563.00,35.750
564.00,35.858
565.00,35.844
566.00,35.850
567.00,35.886
568.00,35.908
569.00,35.976
570.00,36.028
571.00,36.087
572.00,36.127
573.00,36.127
574.00,36.191
575.00,36.217
576.00,36.212
577.00,36.302
578.00,36.416
579.00,36.457
580.00,36.496
581.00,36.699
582.00,36.748
583.00,36.761
584.00,36.844
585.00,36.922
586.00,36.984
587.00,37.015
588.00,37.027
589.00,36.989
590.00,37.070
591.00,37.171
592.00,37.084
593.00,37.151
594.00,37.314
595.00,37.348
596.00,37.343
597.00,37.428
598.00,37.569
599.00,37.544
600.00,37.573
601.00,37.689
602.00,37.614
603.00,37.710
604.00,37.808
605.00,37.809
606.00,37.774
607.00,37.930
608.00,38.158
609.00,38.212
610.00,37.949
611.00,38.012
612.00,38.087
613.00,38.151
614.00,38.190
615.00,38.297
616.00,38.361
617.00,38.381
618.00,38.374
619.00,38.445
620.00,38.531
621.00,38.585
622.00,38.688
623.00,38.728
624.00,38.854
625.00,38.903
626.00,38.926
627.00,38.976
628.00,38.962
629.00,39.004
630.00,39.069
631.00,39.132
632.00,39.191
633.00,39.325
634.00,39.356
635.00,39.468
636.00,39.581
637.00,39.561
638.00,39.630
639.00,39.777
640.00,39.803
641.00,39.812
642.00,39.907
643.00,40.010
644.00,40.052
645.00,40.162
646.00,40.308
647.00,40.332
648.00,40.334
649.00,40.396
650.00,40.415
651.00,40.580
652.00,40.661
653.00,40.679
654.00,40.693
655.00,40.910
656.00,41.130
657.00,41.092
658.00,41.244
659.00,40.672
660.00,41.351
661.00,41.378
662.00,41.417
663.00,41.519
664.00,41.788
665.00,41.923
666.00,41.815
667.00,41.938
668.00,41.977
669.00,42.152
670.00,42.436
671.00,42.278
672.00,42.380
673.00,42.604
674.00,42.658
675.00,42.678
676.00,42.856
677.00,43.004
678.00,42.665
679.00,42.898
680.00,43.029
681.00,43.234
682.00,43.102
683.00,43.057
684.00,43.312
685.00,43.408
686.00,43.215
687.00,43.439
688.00,43.605
689.00,43.415
690.00,43.857
691.00,44.061
692.00,43.723
693.00,43.800
694.00,43.958
695.00,44.081
696.00,44.163
697.00,44.176
698.00,44.207
699.00,44.445
700.00,44.588
701.00,44.496
702.00,44.650
703.00,44.944
704.00,44.876
705.00,44.728
706.00,44.874
707.00,44.890
708.00,45.049
709.00,45.504
710.00,45.145
711.00,45.087
712.00,45.180
713.00,45.316
714.00,45.307
715.00,45.564
716.00,45.229
717.00,45.635
718.00,45.713
719.00,45.567
720.00,45.761
721.00,50.354
722.00,50.370
723.00,50.415
724.00,50.405
725.00,50.366
726.00,50.507
727.00,50.474
728.00,50.458
729.00,50.535
730.00,50.592
731.00,50.592
732.00,50.625
733.00,50.682
734.00,50.714
735.00,50.705
736.00,50.785
737.00,50.757
738.00,50.895
739.00,50.855
740.00,50.869
741.00,51.019
742.00,51.019
743.00,50.946
744.00,50.876
745.00,50.878
746.00,50.970
747.00,50.941
748.00,50.887
749.00,50.852
750.00,50.914
751.00,50.930
752.00,50.931
753.00,50.913
754.00,50.954
755.00,50.942
756.00,50.960
757.00,51.002
758.00,50.982
759.00,51.018
760.00,50.967
761.00,50.964
762.00,50.963
763.00,50.960
764.00,50.985
765.00,50.964
766.00,50.996
767.00,51.041
768.00,51.034
769.00,51.035
770.00,51.154
771.00,51.032
772.00,51.141
773.00,51.104
774.00,51.125
775.00,51.126
776.00,51.069
777.00,51.131
778.00,51.057
779.00,51.121
780.00,51.095
781.00,51.112
782.00,51.165
783.00,51.109
784.00,51.137
785.00,51.044
786.00,51.087
787.00,51.121
788.00,51.031
789.00,51.079
790.00,50.925
791.00,51.078
792.00,50.977
793.00,51.032
794.00,50.992
795.00,50.934
796.00,51.008
797.00,50.940
798.00,50.965
799.00,50.917
800.00,50.902
801.00,50.950
802.00,50.895
803.00,50.839
804.00,50.801
805.00,50.863
806.00,50.798
807.00,50.812
808.00,50.802
809.00,50.715
810.00,50.802
811.00,50.713
812.00,50.757
813.00,50.711
814.00,50.722
815.00,50.711
816.00,50.679
817.00,50.617
818.00,50.616
819.00,50.639
820.00,50.591
821.00,50.609
822.00,50.611
823.00,50.436
824.00,50.570
825.00,50.486
826.00,50.459
827.00,50.586
828.00,50.595
829.00,50.508
830.00,50.530
831.00,52.920
832.00,52.903
833.00,52.843
834.00,52.855
835.00,52.851
836.00,52.872
837.00,52.819
838.00,52.793
839.00,52.808
840.00,52.718
841.00,52.751
842.00,52.728
843.00,52.701
844.00,52.687
845.00,52.592
846.00,52.654
847.00,52.622
848.00,52.592
849.00,52.530
850.00,52.474
851.00,52.518
852.00,52.520
853.00,52.412
854.00,52.383
855.00,52.357
856.00,52.370
857.00,52.326
858.00,52.285
859.00,52.318
860.00,52.264
861.00,52.251
862.00,52.194
863.00,52.235
864.00,52.145
865.00,52.183
866.00,52.336
867.00,52.147
868.00,52.168
869.00,52.112
870.00,52.157
871.00,52.116
872.00,52.139
873.00,52.077
874.00,52.115
875.00,52.053
876.00,52.113
877.00,52.050
878.00,52.070
879.00,52.017
880.00,52.021
881.00,52.001
882.00,52.035
883.00,51.972
884.00,51.951
885.00,51.909
886.00,51.928
887.00,51.881
888.00,51.854
889.00,51.851
890.00,51.837
891.00,51.807
892.00,51.789
893.00,51.776
894.00,51.782
895.00,51.735
896.00,51.692
897.00,51.672
898.00,51.667
899.00,51.669
900.00,51.633
901.00,51.645
902.00,51.640
903.00,51.632
904.00,51.591
905.00,51.576
906.00,51.577
907.00,51.551
908.00,51.501
909.00,51.525
910.00,51.446
911.00,51.494
912.00,51.463
913.00,51.391
914.00,51.406
915.00,51.389
916.00,51.352
917.00,51.345
918.00,51.335
919.00,51.307
920.00,51.260
921.00,51.258
922.00,51.253
923.00,51.248
924.00,51.173
925.00,51.206
926.00,51.179
927.00,51.166
928.00,51.118
929.00,51.157
930.00,51.087
931.00,51.091
932.00,51.043
933.00,51.053
934.00,50.945
935.00,50.944
936.00,50.932
937.00,50.956
938.00,50.937
939.00,50.939
940.00,50.897
941.00,50.919
942.00,50.862
943.00,50.861
944.00,50.827
945.00,50.831
946.00,50.806
947.00,50.758
948.00,50.746
949.00,50.712
950.00,50.728
951.00,50.697
952.00,50.667
953.00,50.629
954.00,50.641
955.00,50.575
956.00,50.579
957.00,50.507
958.00,50.541
959.00,50.471
960.00,50.487
961.00,50.488
962.00,50.480
963.00,50.434
964.00,50.437
965.00,50.449
966.00,50.408
967.00,50.422
968.00,50.384
969.00,50.428
970.00,50.382
971.00,50.397
972.00,50.337
973.00,50.401
974.00,50.423
975.00,50.374
976.00,50.405
977.00,50.377
978.00,50.434
979.00,50.373
980.00,50.390
981.00,50.417
982.00,50.351
983.00,50.387
984.00,50.345
985.00,50.376
986.00,50.326
987.00,50.356
988.00,50.308
989.00,50.323
990.00,50.303
991.00,50.283
992.00,50.308
993.00,50.259
994.00,50.253
995.00,50.244
996.00,50.224
997.00,50.224
998.00,50.205
999.00,50.216
1000.00,50.155
1001.00,50.178
1002.00,50.152
1003.00,50.148
1004.00,50.123
1005.00,50.091
1006.00,50.147
1007.00,50.089
1008.00,50.071
1009.00,50.060
1010.00,50.050
1011.00,50.054
1012.00,50.018
1013.00,50.034
1014.00,49.971
1015.00,49.985
1016.00,49.940
1017.00,49.945
1018.00,49.963
1019.00,49.888
1020.00,49.923
1021.00,49.881
1022.00,49.905
1023.00,49.841
1024.00,49.835
1025.00,49.826
1026.00,49.808
1027.00,49.787
1028.00,49.776
1029.00,49.776
1030.00,49.745
1031.00,49.761
1032.00,49.709
1033.00,49.708
1034.00,49.687
1035.00,49.637
1036.00,49.634
1037.00,49.614
1038.00,49.609
1039.00,49.568
1040.00,49.570
1041.00,49.539
1042.00,49.551
1043.00,49.506
1044.00,49.546
1045.00,49.512
1046.00,49.478
1047.00,49.528
1048.00,49.520
1049.00,49.538
1050.00,49.526
1051.00,49.590
1052.00,49.565
1053.00,49.584
1054.00,49.569
1055.00,49.619
1056.00,49.614
1057.00,49.605
1058.00,49.606
1059.00,49.613
1060.00,49.631
1061.00,49.603
1062.00,49.599
1063.00,49.594
1064.00,49.617
1065.00,49.581
1066.00,49.594
1067.00,49.584
1068.00,49.603
1069.00,49.544
1070.00,49.531
1071.00,49.530
1072.00,49.554
1073.00,49.512
1074.00,49.517
1075.00,49.489
1076.00,49.496
1077.00,49.475
1078.00,49.450
1079.00,49.467
1080.00,49.472
1081.00,49.455
1082.00,49.448
1083.00,49.454
1084.00,49.440
1085.00,49.433
1086.00,49.420
1087.00,49.424
1088.00,49.406
1089.00,49.391
1090.00,49.373
1091.00,49.394
1092.00,49.378
1093.00,49.366
1094.00,49.334
1095.00,49.332
1096.00,49.303
1097.00,49.319
1098.00,49.306
1099.00,49.312
1100.00,49.284
1101.00,49.283
1102.00,49.268
1103.00,49.276
1104.00,49.264
1105.00,49.260
1106.00,49.230
1107.00,49.251
1108.00,49.225
1109.00,49.225
1110.00,49.207
1111.00,49.215
1112.00,49.206
1113.00,49.220
1114.00,49.195
1115.00,49.205
1116.00,49.191
1117.00,49.181
1118.00,49.159
1119.00,49.175
1120.00,49.150
1121.00,49.157
1122.00,49.126
1123.00,49.130
1124.00,49.116
1125.00,49.129
1126.00,49.109
1127.00,49.140
1128.00,49.113
1129.00,49.105
1130.00,49.082
1131.00,49.085
1132.00,49.083
1133.00,49.066
1134.00,49.046
1135.00,49.107
1136.00,49.033
1137.00,49.052
1138.00,49.041
1139.00,49.054
1140.00,49.042
1141.00,49.049
1142.00,49.027
1143.00,49.044
1144.00,49.005
1145.00,49.009
1146.00,49.006
1147.00,49.005
1148.00,48.979
1149.00,49.021
1150.00,49.012
1151.00,49.014
1152.00,49.004
1153.00,49.008
1154.00,48.988
1155.00,48.999
1156.00,48.970
1157.00,48.997
1158.00,48.971
1159.00,48.979
1160.00,48.971
1161.00,48.971
1162.00,48.969
1163.00,48.974
1164.00,48.981
1165.00,48.958
1166.00,48.971
1167.00,48.942
1168.00,48.985
1169.00,48.967
1170.00,48.966
1171.00,48.956
1172.00,48.960
1173.00,48.963
1174.00,48.978
1175.00,48.962
1176.00,48.954
1177.00,48.937
1178.00,48.942
1179.00,48.962
1180.00,48.933
1181.00,48.979
1182.00,48.958
1183.00,48.960
1184.00,48.931
1185.00,48.956
1186.00,48.938
1187.00,48.952
1188.00,48.947
1189.00,48.943
1190.00,48.952
1191.00,48.934
1192.00,48.959
1193.00,48.948
1194.00,48.946
1195.00,48.924
1196.00,48.984
1197.00,48.960
1198.00,48.944
1199.00,48.947
1200.00,48.950
1201.00,48.990
1202.00,48.947
1203.00,48.962
1204.00,48.938
1205.00,48.958
1206.00,48.945
1207.00,48.946
1208.00,48.950
1209.00,48.953
1210.00,48.949
1211.00,48.918
1212.00,48.957
1213.00,48.900
1214.00,48.933
1215.00,48.923
1216.00,48.929
1217.00,48.942
1218.00,48.912
1219.00,48.948
1220.00,48.935
1221.00,48.957
1222.00,48.932
1223.00,48.962
1224.00,48.960
1225.00,48.929
1226.00,48.950
1227.00,48.936
1228.00,48.959
1229.00,48.964
1230.00,48.995
1231.00,48.983
1232.00,49.000
1233.00,49.006
1234.00,49.016
1235.00,49.019
1236.00,49.005
1237.00,49.023
1238.00,49.002
1239.00,49.007
1240.00,49.005
1241.00,49.035
1242.00,49.009
1243.00,49.019
1244.00,48.978
1245.00,49.031
1246.00,49.022
1247.00,49.020
1248.00,49.037
1249.00,49.036
1250.00,49.058
1251.00,49.050
1252.00,49.062
1253.00,49.030
1254.00,49.081
1255.00,49.051
1256.00,49.080
1257.00,49.069
1258.00,49.076
1259.00,49.062
1260.00,49.095
1261.00,49.083
1262.00,49.098
1263.00,49.087
1264.00,49.101
1265.00,49.117
1266.00,49.114
1267.00,49.134
1268.00,49.123
1269.00,49.117
1270.00,49.137
1271.00,49.139
1272.00,49.130
1273.00,49.169
1274.00,49.167
1275.00,49.162
1276.00,49.156
1277.00,49.175
1278.00,49.201
1279.00,49.189
1280.00,49.172
1281.00,49.204
1282.00,49.210
1283.00,49.219
1284.00,49.232
1285.00,49.211
1286.00,49.230
1287.00,49.228
1288.00,49.242
1289.00,49.229
1290.00,49.274
1291.00,49.247
1292.00,49.253
1293.00,49.237
1294.00,49.264
1295.00,49.275
1296.00,49.293
1297.00,49.297
1298.00,49.345
1299.00,49.285
1300.00,49.306
1301.00,49.297
1302.00,49.341
1303.00,49.329
1304.00,49.306
1305.00,49.341
1306.00,49.341
1307.00,49.351
1308.00,49.353
1309.00,49.378
1310.00,49.384
1311.00,49.378
1312.00,49.408
1313.00,49.438
1314.00,49.419
1315.00,49.431
1316.00,49.427
1317.00,49.471
1318.00,49.454
1319.00,49.466
1320.00,49.470
1321.00,49.632
1322.00,49.608
1323.00,49.597
1324.00,49.609
1325.00,49.595
1326.00,49.622
1327.00,49.590
1328.00,49.605
1329.00,49.581
1330.00,49.629
1331.00,49.593
1332.00,49.617
1333.00,49.610
1334.00,49.651
1335.00,49.676
1336.00,49.718
1337.00,49.726
1338.00,49.806
1339.00,49.839
1340.00,49.897
1341.00,49.951
1342.00,50.013
1343.00,50.057
1344.00,50.107
1345.00,50.159
1346.00,50.226
1347.00,50.301
1348.00,50.248
1349.00,50.259
1350.00,50.290
1351.00,50.292
1352.00,50.337
1353.00,50.322
1354.00,50.352
1355.00,50.275
1356.00,50.349
1357.00,50.342
1358.00,50.374
1359.00,50.358
1360.00,50.417
1361.00,50.364
1362.00,50.211
1363.00,50.432
1364.00,50.438
1365.00,50.353
1366.00,50.440
1367.00,50.383
1368.00,50.343
1369.00,50.387
1370.00,50.395
1371.00,50.354
1372.00,50.368
1373.00,50.381
1374.00,50.380
1375.00,50.368
1376.00,50.360
1377.00,50.390
1378.00,50.534
1379.00,50.408
1380.00,50.427
1381.00,50.428
1382.00,50.302
1383.00,50.408
1384.00,50.310
1385.00,50.357
1386.00,50.417
1387.00,50.368
1388.00,50.310
1389.00,50.374
1390.00,50.330
1391.00,50.374
1392.00,50.330
1393.00,50.452
1394.00,50.372
1395.00,50.336
1396.00,50.330
1397.00,50.429
1398.00,50.382
1399.00,50.349
1400.00,50.375
1401.00,50.349
1402.00,50.394
1403.00,50.372
1404.00,50.402
1405.00,50.408
1406.00,50.443
1407.00,50.438
1408.00,50.489
1409.00,50.611
1410.00,50.481
1411.00,50.444
1412.00,50.547
1413.00,50.498
1414.00,50.448
1415.00,50.506
1416.00,50.521
1417.00,50.551
1418.00,50.520
1419.00,50.550
1420.00,50.554
1421.00,50.622
1422.00,50.591
1423.00,50.623
1424.00,50.615
1425.00,50.673
1426.00,50.650
1427.00,50.675
1428.00,50.660
1429.00,50.710
1430.00,50.686
1431.00,50.734
1432.00,50.731
1433.00,50.756
1434.00,50.745
1435.00,50.824
1436.00,50.828
1437.00,50.819
1438.00,50.836
1439.00,50.868
1440.00,50.877
1441.00,50.873
1442.00,50.917
1443.00,50.955
1444.00,50.991
1445.00,50.942
1446.00,50.998
1447.00,51.008
1448.00,51.056
1449.00,51.042
1450.00,51.052
1451.00,51.053
1452.00,51.105
1453.00,51.088
1454.00,51.116
1455.00,51.143
1456.00,51.155
1457.00,51.153
1458.00,51.206
1459.00,51.200
1460.00,51.243
1461.00,51.229
1462.00,51.287
1463.00,51.274
1464.00,51.288
1465.00,51.303
1466.00,51.302
1467.00,51.343
1468.00,51.397
1469.00,51.372
1470.00,51.406
1471.00,51.408
1472.00,51.410
1473.00,51.420
1474.00,51.458
1475.00,51.469
1476.00,51.497
1477.00,51.467
1478.00,51.514
1479.00,51.518
1480.00,51.527
1481.00,51.532
1482.00,51.560
1483.00,51.580
1484.00,51.593
1485.00,51.601
1486.00,51.634
1487.00,51.651
1488.00,51.687
1489.00,51.647
1490.00,51.704
1491.00,51.689
1492.00,51.735
1493.00,51.700
1494.00,51.757
1495.00,51.735
1496.00,51.770
1497.00,51.755
1498.00,51.775
1499.00,51.787
1500.00,51.806
1501.00, 
1502.00, 
1503.00, 
1504.00, 
1505.00, 
1506.00, 
1507.00, 
1508.00, 
1509.00, 
1510.00, 
1511.00, 
1512.00, 
1513.00, 
1514.00, 
1515.00, 
1516.00, 
1517.00, 
1518.00, 
1519.00, 
1520.00, 
1521.00, 
1522.00, 
1523.00, 
1524.00, 
1525.00, 
1526.00, 
1527.00, 
1528.00, 
1529.00, 
1530.00, 
1531.00, 
1532.00, 
1533.00, 
1534.00, 
1535.00, 
1536.00, 
1537.00, 
1538.00, 
1539.00, 
1540.00, 
1541.00, 
1542.00, 
1543.00, 
1544.00, 
1545.00, 
1546.00, 
1547.00, 
1548.00, 
1549.00, 
1550.00, 
1551.00, 
1552.00, 
1553.00, 
1554.00, 
1555.00, 
1556.00, 
1557.00, 
1558.00, 
1559.00, 
1560.00, 
1561.00, 
1562.00, 
1563.00, 
1564.00, 
1565.00, 
1566.00, 
1567.00, 
1568.00, 
1569.00, 
1570.00, 
1571.00, 
1572.00, 
1573.00, 
1574.00, 
1575.00, 
1576.00, 
1577.00, 
1578.00, 
1579.00, 
1580.00, 
1581.00, 
1582.00, 
1583.00, 
1584.00, 
1585.00, 
1586.00, 
1587.00, 
1588.00, 
1589.00, 
1590.00, 
1591.00, 
1592.00, 
1593.00, 
1594.00, 
1595.00, 
1596.00, 
1597.00, 
1598.00, 
1599.00, 
1600.00, 
1601.00, 
1602.00, 
1603.00, 
1604.00, 
1605.00, 
1606.00, 
1607.00, 
1608.00, 
1609.00, 
1610.00, 
1611.00, 
1612.00, 
1613.00, 
1614.00, 
1615.00, 
1616.00, 
1617.00, 
1618.00, 
1619.00, 
1620.00, 
1621.00, 
1622.00, 
1623.00, 
1624.00, 
1625.00, 
1626.00, 
1627.00, 
1628.00, 
1629.00, 
1630.00, 
1631.00, 
1632.00, 
1633.00, 
1634.00, 
1635.00, 
1636.00, 
1637.00, 
1638.00, 
1639.00, 
1640.00, 
1641.00, 
1642.00, 
1643.00, 
1644.00, 
1645.00, 
1646.00, 
1647.00, 
1648.00, 
1649.00, 
1650.00, 
1651.00, 
1652.00, 
1653.00, 
1654.00, 
1655.00, 
1656.00, 
1657.00, 
1658.00, 
1659.00, 
1660.00, 
1661.00, 
1662.00, 
1663.00, 
1664.00, 
1665.00, 
1666.00, 
1667.00, 
1668.00, 
1669.00, 
1670.00, 
1671.00, 
1672.00, 
1673.00, 
1674.00, 
1675.00, 
1676.00, 
1677.00, 
1678.00, 
1679.00, 
1680.00, 
1681.00, 
1682.00, 
1683.00, 
1684.00, 
1685.00, 
1686.00, 
1687.00, 
1688.00, 
1689.00, 
1690.00, 
1691.00, 
1692.00, 
1693.00, 
1694.00, 
1695.00, 
1696.00, 
1697.00, 
1698.00, 
1699.00, 
1700.00, 
1701.00, 
1702.00, 
1703.00, 
1704.00, 
1705.00, 
1706.00, 
1707.00, 
1708.00, 
1709.00, 
1710.00, 
1711.00, 
1712.00, 
1713.00, 
1714.00, 
1715.00, 
1716.00, 
1717.00, 
1718.00, 
1719.00, 
1720.00, 
1721.00, 
1722.00, 
1723.00, 
1724.00, 
1725.00, 
1726.00, 
1727.00, 
1728.00, 
1729.00, 
1730.00, 
1731.00, 
1732.00, 
1733.00, 
1734.00, 
1735.00, 
1736.00, 
1737.00, 
1738.00, 
1739.00, 
1740.00, 
1741.00, 
1742.00, 
1743.00, 
1744.00, 
1745.00, 
1746.00, 
1747.00, 
1748.00, 
1749.00, 
1750.00, 
1751.00, 
1752.00, 
1753.00, 
1754.00, 
1755.00, 
1756.00, 
1757.00, 
1758.00, 
1759.00, 
1760.00, 
1761.00, 
1762.00, 
1763.00, 
1764.00, 
1765.00, 
1766.00, 
1767.00, 
1768.00, 
1769.00, 
1770.00, 
1771.00, 
1772.00, 
1773.00, 
1774.00, 
1775.00, 
1776.00, 
1777.00, 
1778.00, 
1779.00, 
1780.00, 
1781.00, 
1782.00, 
1783.00, 
1784.00, 
1785.00, 
1786.00, 
1787.00, 
1788.00, 
1789.00, 
1790.00, 
1791.00, 
1792.00, 
1793.00, 
1794.00, 
1795.00, 
1796.00, 
1797.00, 
1798.00, 
1799.00, 
1800.00, 
1801.00, 
1802.00, 
1803.00, 
1804.00, 
1805.00, 
1806.00, 
1807.00, 
1808.00, 
1809.00, 
1810.00, 
1811.00, 
1812.00, 
1813.00, 
1814.00, 
1815.00, 
1816.00, 
1817.00, 
1818.00, 
1819.00, 
1820.00, 
1821.00, 
1822.00, 
1823.00, 
1824.00, 
1825.00, 
1826.00, 
1827.00, 
1828.00, 
1829.00, 
1830.00, 
1831.00, 
1832.00, 
1833.00, 
1834.00, 
1835.00, 
1836.00, 
1837.00, 
1838.00, 
1839.00, 
1840.00, 
1841.00, 
1842.00, 
1843.00, 
1844.00, 
1845.00, 
1846.00, 
1847.00, 
1848.00, 
1849.00, 
1850.00, 
1851.00, 
1852.00, 
1853.00, 
1854.00, 
1855.00, 
1856.00, 
1857.00, 
1858.00, 
1859.00, 
1860.00, 
1861.00, 
1862.00, 
1863.00, 
1864.00, 
1865.00, 
1866.00, 
1867.00, 
1868.00, 
1869.00, 
1870.00, 
1871.00, 
1872.00, 
1873.00, 
1874.00, 
1875.00, 
1876.00, 
1877.00, 
1878.00, 
1879.00, 
1880.00, 
1881.00, 
1882.00, 
1883.00, 
1884.00, 
1885.00, 
1886.00, 
1887.00, 
1888.00, 
1889.00, 
1890.00, 
1891.00, 
1892.00, 
1893.00, 
1894.00, 
1895.00, 
1896.00, 
1897.00, 
1898.00, 
1899.00, 
1900.00, 
1901.00, 
1902.00, 
1903.00, 
1904.00, 
1905.00, 
1906.00, 
1907.00, 
1908.00, 
1909.00, 
1910.00, 
1911.00, 
1912.00, 
1913.00, 
1914.00, 
1915.00, 
1916.00, 
1917.00, 
1918.00, 
1919.00, 
1920.00, 
1921.00, 
1922.00, 
1923.00, 
1924.00, 
1925.00, 
1926.00, 
1927.00, 
1928.00, 
1929.00, 
1930.00, 
1931.00, 
1932.00, 
1933.00, 
1934.00, 
1935.00, 
1936.00, 
1937.00, 
1938.00, 
1939.00, 
1940.00, 
1941.00, 
1942.00, 
1943.00, 
1944.00, 
1945.00, 
1946.00, 
1947.00, 
1948.00, 
1949.00, 
1950.00, 
1951.00, 
1952.00, 
1953.00, 
1954.00, 
1955.00, 
1956.00, 
1957.00, 
1958.00, 
1959.00, 
1960.00, 
1961.00, 
1962.00, 
1963.00, 
1964.00, 
1965.00, 
1966.00, 
1967.00, 
1968.00, 
1969.00, 
1970.00, 
1971.00, 
1972.00, 
1973.00, 
1974.00, 
1975.00, 
1976.00, 
1977.00, 
1978.00, 
1979.00, 
1980.00, 
1981.00, 
1982.00, 
1983.00, 
1984.00, 
1985.00, 
1986.00, 
1987.00, 
1988.00, 
1989.00, 
1990.00, 
1991.00, 
1992.00, 
1993.00, 
1994.00, 
1995.00, 
1996.00, 
1997.00, 
1998.00, 
1999.00, 
2000.00, 
2001.00, 
2002.00, 
2003.00, 
2004.00, 
2005.00, 
2006.00, 
2007.00, 
2008.00, 
2009.00, 
2010.00, 
2011.00, 
2012.00, 
2013.00, 
2014.00, 
2015.00, 
2016.00, 
2017.00, 
2018.00, 
2019.00, 
2020.00, 
2021.00, 
2022.00, 
2023.00, 
2024.00, 
2025.00, 
2026.00, 
2027.00, 
2028.00, 
2029.00, 
2030.00, 
2031.00, 
2032.00, 
2033.00, 
2034.00, 
2035.00, 
2036.00, 
2037.00, 
2038.00, 
2039.00, 
2040.00, 
2041.00, 
2042.00, 
2043.00, 
2044.00, 
2045.00, 
2046.00, 
2047.00, 
2048.00, 
2049.00, 
2050.00, 
2051.00, 
2052.00, 
2053.00, 
2054.00, 
2055.00, 
2056.00, 
2057.00, 
2058.00, 
2059.00, 
2060.00, 
2061.00, 
2062.00, 
2063.00, 
2064.00, 
2065.00, 
2066.00, 
2067.00, 
2068.00, 
2069.00, 
2070.00, 
2071.00, 
2072.00, 
2073.00, 
2074.00, 
2075.00, 
2076.00, 
2077.00, 
2078.00, 
2079.00, 
2080.00, 
2081.00, 
2082.00, 
2083.00, 
2084.00, 
2085.00, 
2086.00, 
2087.00, 
2088.00, 
2089.00, 
2090.00, 
2091.00, 
2092.00, 
2093.00, 
2094.00, 
2095.00, 
2096.00, 
2097.00, 
2098.00, 
2099.00, 
2100.00, 
2101.00, 
2102.00, 
2103.00, 
2104.00, 
2105.00, 
2106.00, 
2107.00, 
2108.00, 
2109.00, 
2110.00, 
2111.00, 
2112.00, 
2113.00, 
2114.00, 
2115.00, 
2116.00, 
2117.00, 
2118.00, 
2119.00, 
2120.00, 
2121.00, 
2122.00, 
2123.00, 
2124.00, 
2125.00, 
2126.00, 
2127.00, 
2128.00, 
2129.00, 
2130.00, 
2131.00, 
2132.00, 
2133.00, 
2134.00, 
2135.00, 
2136.00, 
2137.00, 
2138.00, 
2139.00, 
2140.00, 
2141.00, 
2142.00, 
2143.00, 
2144.00, 
2145.00, 
2146.00, 
2147.00, 
2148.00, 
2149.00, 
2150.00, 
2151.00, 
2152.00, 
2153.00, 
2154.00, 
2155.00, 
2156.00, 
2157.00, 
2158.00, 
2159.00, 
2160.00, 
2161.00, 
2162.00, 
2163.00, 
2164.00, 
2165.00, 
2166.00, 
2167.00, 
2168.00, 
2169.00, 
2170.00, 
2171.00, 
2172.00, 
2173.00, 
2174.00, 
2175.00, 
2176.00, 
2177.00, 
2178.00, 
2179.00, 
2180.00, 
2181.00, 
2182.00, 
2183.00, 
2184.00, 
2185.00, 
2186.00, 
2187.00, 
2188.00, 
2189.00, 
2190.00, 
2191.00, 
2192.00, 
2193.00, 
2194.00, 
2195.00, 
2196.00, 
2197.00, 
2198.00, 
2199.00, 
2200.00, 
2201.00, 
2202.00, 
2203.00, 
2204.00, 
2205.00, 
2206.00, 
2207.00, 
2208.00, 
2209.00, 
2210.00, 
2211.00, 
2212.00, 
2213.00, 
2214.00, 
2215.00, 
2216.00, 
2217.00, 
2218.00, 
2219.00, 
2220.00, 
2221.00, 
2222.00, 
2223.00, 
2224.00, 
2225.00, 
2226.00, 
2227.00, 
2228.00, 
2229.00, 
2230.00, 
2231.00, 
2232.00, 
2233.00, 
2234.00, 
2235.00, 
2236.00, 
2237.00, 
2238.00, 
2239.00, 
2240.00, 
2241.00, 
2242.00, 
2243.00, 
2244.00, 
2245.00, 
2246.00, 
2247.00, 
2248.00, 
2249.00, 
2250.00, 
2251.00, 
2252.00, 
2253.00, 
2254.00, 
2255.00, 
2256.00, 
2257.00, 
2258.00, 
2259.00, 
2260.00, 
2261.00, 
2262.00, 
2263.00, 
2264.00, 
2265.00, 
2266.00, 
2267.00, 
2268.00, 
2269.00, 
2270.00, 
2271.00, 
2272.00, 
2273.00, 
2274.00, 
2275.00, 
2276.00, 
2277.00, 
2278.00, 
2279.00, 
2280.00, 
2281.00, 
2282.00, 
2283.00, 
2284.00, 
2285.00, 
2286.00, 
2287.00, 
2288.00, 
2289.00, 
2290.00, 
2291.00, 
2292.00, 
2293.00, 
2294.00, 
2295.00, 
2296.00, 
2297.00, 
2298.00, 
2299.00, 
2300.00, 
2301.00, 
2302.00, 
2303.00, 
2304.00, 
2305.00, 
2306.00, 
2307.00, 
2308.00, 
2309.00, 
2310.00, 
2311.00, 
2312.00, 
2313.00, 
2314.00, 
2315.00, 
2316.00, 
2317.00, 
2318.00, 
2319.00, 
2320.00, 
2321.00, 
2322.00, 
2323.00, 
2324.00, 
2325.00, 
2326.00, 
2327.00, 
2328.00, 
2329.00, 
2330.00, 
2331.00, 
2332.00, 
2333.00, 
2334.00, 
2335.00, 
2336.00, 
2337.00, 
2338.00, 
2339.00, 
2340.00, 
2341.00, 
2342.00, 
2343.00, 
2344.00, 
2345.00, 
2346.00, 
2347.00, 
2348.00, 
2349.00, 
2350.00, 
2351.00, 
2352.00, 
2353.00, 
2354.00, 
2355.00, 
2356.00, 
2357.00, 
2358.00, 
2359.00, 
2360.00, 
2361.00, 
2362.00, 
2363.00, 
2364.00, 
2365.00, 
2366.00, 
2367.00, 
2368.00, 
2369.00, 
2370.00, 
2371.00, 
2372.00, 
2373.00, 
2374.00, 
2375.00, 
2376.00, 
2377.00, 
2378.00, 
2379.00, 
2380.00, 
2381.00, 
2382.00, 
2383.00, 
2384.00, 
2385.00, 
2386.00, 
2387.00, 
2388.00, 
2389.00, 
2390.00, 
2391.00, 
2392.00, 
2393.00, 
2394.00, 
2395.00, 
2396.00, 
2397.00, 
2398.00, 
2399.00, 
2400.00, 
2401.00, 
2402.00, 
2403.00, 
2404.00, 
2405.00, 
2406.00, 
2407.00, 
2408.00, 
2409.00, 
2410.00, 
2411.00, 
2412.00, 
2413.00, 
2414.00, 
2415.00, 
2416.00, 
2417.00, 
2418.00, 
2419.00, 
2420.00, 
2421.00, 
2422.00, 
2423.00, 
2424.00, 
2425.00, 
2426.00, 
2427.00, 
2428.00, 
2429.00, 
2430.00, 
2431.00, 
2432.00, 
2433.00, 
2434.00, 
2435.00, 
2436.00, 
2437.00, 
2438.00, 
2439.00, 
2440.00, 
2441.00, 
2442.00, 
2443.00, 
2444.00, 
2445.00, 
2446.00, 
2447.00, 
2448.00, 
2449.00, 
2450.00, 
2451.00, 
2452.00, 
2453.00, 
2454.00, 
2455.00, 
2456.00, 
2457.00, 
2458.00, 
2459.00, 
2460.00, 
2461.00, 
2462.00, 
2463.00, 
2464.00, 
2465.00, 
2466.00, 
2467.00, 
2468.00, 
2469.00, 
2470.00, 
2471.00, 
2472.00, 
2473.00, 
2474.00, 
2475.00, 
2476.00, 
2477.00, 
2478.00, 
2479.00, 
2480.00, 
2481.00, 
2482.00, 
2483.00, 
2484.00, 
2485.00, 
2486.00, 
2487.00, 
2488.00, 
2489.00, 
2490.00, 
2491.00, 
2492.00, 
2493.00, 
2494.00, 
2495.00, 
2496.00, 
2497.00, 
2498.00, 
2499.00, 
2500.00, 
2501.00, 
2502.00, 
2503.00, 
2504.00, 
2505.00, 
2506.00, 
2507.00, 
2508.00, 
2509.00, 
2510.00, 
2511.00, 
2512.00, 
2513.00, 
2514.00, 
2515.00, 
2516.00, 
2517.00, 
2518.00, 
2519.00, 
2520.00, 
2521.00, 
2522.00, 
2523.00, 
2524.00, 
2525.00, 
2526.00, 
2527.00, 
2528.00, 
2529.00, 
2530.00, 
2531.00, 
2532.00, 
2533.00, 
2534.00, 
2535.00, 
2536.00, 
2537.00, 
2538.00, 
2539.00, 
2540.00, 
2541.00, 
2542.00, 
2543.00, 
2544.00, 
2545.00, 
2546.00, 
2547.00, 
2548.00, 
2549.00, 
2550.00, 
2551.00, 
2552.00, 
2553.00, 
2554.00, 
2555.00, 
2556.00, 
2557.00, 
2558.00, 
2559.00, 
2560.00, 
2561.00, 
2562.00, 
2563.00, 
2564.00, 
2565.00, 
2566.00, 
2567.00, 
2568.00, 
2569.00, 
2570.00, 
2571.00, 
2572.00, 
2573.00, 
2574.00, 
2575.00, 
2576.00, 
2577.00, 
2578.00, 
2579.00, 
2580.00, 
2581.00, 
2582.00, 
2583.00, 
2584.00, 
2585.00, 
2586.00, 
2587.00, 
2588.00, 
2589.00, 
2590.00, 
2591.00, 
2592.00, 
2593.00, 
2594.00, 
2595.00, 
2596.00, 
2597.00, 
2598.00, 
2599.00, 
2600.00, 
