"1cP4 - RawData"
"Wavelength nm.","T%"
200.00,0.001
201.00,-0.000
202.00,-0.000
203.00,0.000
204.00,0.001
205.00,0.002
206.00,0.001
207.00,-0.001
208.00,-0.000
209.00,0.003
210.00,0.002
211.00,-0.000
212.00,-0.000
213.00,-0.002
214.00,0.002
215.00,0.001
216.00,0.003
217.00,0.003
218.00,0.002
219.00,-0.001
220.00,0.000
221.00,0.003
222.00,0.001
223.00,0.001
224.00,0.000
225.00,-0.001
226.00,-0.000
227.00,0.000
228.00,0.001
229.00,0.002
230.00,0.000
231.00,0.002
232.00,0.001
233.00,-0.002
234.00,-0.001
235.00,0.001
236.00,0.002
237.00,0.002
238.00,0.001
239.00,0.002
240.00,-0.002
241.00,0.001
242.00,0.000
243.00,0.001
244.00,-0.000
245.00,0.001
246.00,-0.001
247.00,0.001
248.00,0.001
249.00,0.001
250.00,0.001
251.00,-0.001
252.00,0.000
253.00,0.000
254.00,-0.000
255.00,-0.001
256.00,0.001
257.00,0.000
258.00,-0.001
259.00,0.001
260.00,0.001
261.00,0.001
262.00,0.000
263.00,0.000
264.00,-0.000
265.00,-0.001
266.00,-0.000
267.00,0.001
268.00,-0.000
269.00,0.001
270.00,-0.000
271.00,-0.000
272.00,-0.002
273.00,-0.000
274.00,0.001
275.00,0.001
276.00,0.000
277.00,0.001
278.00,-0.000
279.00,0.000
280.00,0.001
281.00,-0.000
282.00,0.001
283.00,0.001
284.00,0.000
285.00,-0.003
286.00,0.000
287.00,-0.000
288.00,0.001
289.00,-0.000
290.00,0.001
291.00,0.001
292.00,-0.002
293.00,-0.000
294.00,0.000
295.00,0.000
296.00,-0.001
297.00,0.003
298.00,-0.000
299.00,0.000
300.00,-0.001
301.00,-0.000
302.00,0.001
303.00,0.002
304.00,0.001
305.00,0.001
306.00,0.002
307.00,0.004
308.00,0.005
309.00,0.009
310.00,0.015
311.00,0.026
312.00,0.035
313.00,0.054
314.00,0.083
315.00,0.125
316.00,0.177
317.00,0.253
318.00,0.335
319.00,0.450
320.00,0.596
321.00,0.772
322.00,1.001
323.00,1.257
324.00,1.547
325.00,1.869
326.00,2.195
327.00,2.605
328.00,3.067
329.00,3.521
330.00,4.012
331.00,4.533
332.00,5.088
333.00,5.718
334.00,6.302
335.00,6.921
336.00,7.521
337.00,8.159
338.00,8.811
339.00,9.348
340.00,9.975
341.00,10.576
342.00,11.182
343.00,11.717
344.00,12.239
345.00,12.803
346.00,13.284
347.00,13.719
348.00,14.176
349.00,14.538
350.00,14.963
351.00,15.279
352.00,15.630
353.00,15.909
354.00,16.259
355.00,16.548
356.00,16.820
357.00,17.050
358.00,17.263
359.00,17.520
360.00,17.724
361.00,17.837
362.00,18.014
363.00,18.134
364.00,18.210
365.00,18.321
366.00,18.415
367.00,18.434
368.00,18.469
369.00,18.558
370.00,18.589
371.00,18.612
372.00,18.539
373.00,18.558
374.00,18.523
375.00,18.498
376.00,18.388
377.00,18.302
378.00,18.199
379.00,18.100
380.00,18.112
381.00,18.049
382.00,18.073
383.00,18.060
384.00,18.086
385.00,18.120
386.00,18.152
387.00,18.217
388.00,18.270
389.00,18.277
390.00,18.345
391.00,18.287
392.00,18.366
393.00,18.321
394.00,18.386
395.00,18.417
396.00,18.392
397.00,18.415
398.00,18.408
399.00,18.407
400.00,18.420
401.00,18.375
402.00,18.397
403.00,18.345
404.00,18.319
405.00,18.321
406.00,18.309
407.00,18.257
408.00,18.277
409.00,18.229
410.00,18.164
411.00,18.178
412.00,18.105
413.00,18.141
414.00,18.118
415.00,18.119
416.00,18.200
417.00,18.161
418.00,18.178
419.00,18.291
420.00,18.294
421.00,18.246
422.00,18.280
423.00,18.304
424.00,18.374
425.00,18.380
426.00,18.386
427.00,18.465
428.00,18.497
429.00,18.550
430.00,18.571
431.00,18.658
432.00,18.656
433.00,18.718
434.00,18.758
435.00,18.848
436.00,18.913
437.00,18.959
438.00,19.020
439.00,19.087
440.00,19.150
441.00,19.231
442.00,19.321
443.00,19.391
444.00,19.482
445.00,19.578
446.00,19.691
447.00,19.720
448.00,19.862
449.00,19.979
450.00,20.068
451.00,20.160
452.00,20.225
453.00,20.375
454.00,20.470
455.00,20.613
456.00,20.703
457.00,20.810
458.00,20.917
459.00,21.050
460.00,21.172
461.00,21.302
462.00,21.414
463.00,21.571
464.00,21.693
465.00,21.799
466.00,21.996
467.00,22.075
468.00,22.200
469.00,22.337
470.00,22.407
471.00,22.534
472.00,22.663
473.00,22.759
474.00,22.863
475.00,22.991
476.00,23.103
477.00,23.245
478.00,23.364
479.00,23.576
480.00,23.687
481.00,23.792
482.00,23.960
483.00,24.127
484.00,24.253
485.00,24.410
486.00,24.581
487.00,24.763
488.00,24.912
489.00,25.095
490.00,25.235
491.00,25.377
492.00,25.638
493.00,25.800
494.00,25.818
495.00,25.921
496.00,26.031
497.00,26.173
498.00,26.332
499.00,26.471
500.00,26.617
501.00,26.727
502.00,26.850
503.00,27.029
504.00,27.048
505.00,27.214
506.00,27.351
507.00,27.422
508.00,27.550
509.00,27.765
510.00,27.892
511.00,27.992
512.00,28.167
513.00,28.287
514.00,28.418
515.00,28.513
516.00,28.670
517.00,28.801
518.00,28.876
519.00,28.981
520.00,29.035
521.00,29.097
522.00,29.213
523.00,29.287
524.00,29.435
525.00,29.609
526.00,29.693
527.00,29.766
528.00,29.853
529.00,30.039
530.00,30.206
531.00,30.278
532.00,30.334
533.00,30.464
534.00,30.576
535.00,30.619
536.00,30.670
537.00,30.861
538.00,30.849
539.00,30.975
540.00,31.006
541.00,31.119
542.00,31.199
543.00,31.222
544.00,31.376
545.00,31.462
546.00,31.421
547.00,31.555
548.00,31.645
549.00,31.720
550.00,31.786
551.00,31.871
552.00,31.983
553.00,32.018
554.00,32.058
555.00,32.112
556.00,32.171
557.00,32.208
558.00,32.325
559.00,32.431
560.00,32.411
561.00,32.502
562.00,32.683
563.00,32.611
564.00,32.719
565.00,32.735
566.00,32.755
567.00,32.759
568.00,32.819
569.00,32.932
570.00,32.918
571.00,33.003
572.00,33.004
573.00,32.976
574.00,33.055
575.00,33.118
576.00,33.030
577.00,33.165
578.00,33.223
579.00,33.329
580.00,33.366
581.00,33.456
582.00,33.467
583.00,33.558
584.00,33.647
585.00,33.755
586.00,33.795
587.00,33.835
588.00,33.884
589.00,33.799
590.00,33.875
591.00,33.957
592.00,33.854
593.00,33.997
594.00,34.113
595.00,34.065
596.00,34.122
597.00,34.286
598.00,34.366
599.00,34.368
600.00,34.393
601.00,34.481
602.00,34.522
603.00,34.636
604.00,34.678
605.00,34.720
606.00,34.734
607.00,34.789
608.00,34.965
609.00,35.005
610.00,34.876
611.00,34.946
612.00,34.993
613.00,35.101
614.00,35.080
615.00,35.178
616.00,35.288
617.00,35.305
618.00,35.327
619.00,35.439
620.00,35.507
621.00,35.531
622.00,35.557
623.00,35.662
624.00,35.761
625.00,35.810
626.00,35.878
627.00,35.970
628.00,35.990
629.00,36.014
630.00,36.031
631.00,36.141
632.00,36.193
633.00,36.317
634.00,36.441
635.00,36.463
636.00,36.627
637.00,36.706
638.00,36.672
639.00,36.822
640.00,36.868
641.00,36.901
642.00,37.025
643.00,37.156
644.00,37.256
645.00,37.307
646.00,37.464
647.00,37.480
648.00,37.555
649.00,37.639
650.00,37.665
651.00,37.882
652.00,37.937
653.00,37.962
654.00,38.100
655.00,38.319
656.00,38.576
657.00,38.449
658.00,38.489
659.00,38.727
660.00,38.766
661.00,38.889
662.00,38.863
663.00,39.030
664.00,39.355
665.00,39.420
666.00,39.344
667.00,39.531
668.00,39.554
669.00,39.761
670.00,40.059
671.00,39.951
672.00,39.995
673.00,40.181
674.00,40.369
675.00,40.412
676.00,40.641
677.00,40.787
678.00,40.550
679.00,40.779
680.00,40.917
681.00,41.089
682.00,41.121
683.00,41.122
684.00,41.428
685.00,41.487
686.00,41.341
687.00,41.569
688.00,41.651
689.00,41.733
690.00,42.033
691.00,42.342
692.00,42.075
693.00,42.136
694.00,42.285
695.00,42.380
696.00,42.537
697.00,42.552
698.00,42.672
699.00,43.022
700.00,43.001
701.00,42.979
702.00,43.150
703.00,43.400
704.00,43.483
705.00,43.372
706.00,43.471
707.00,43.487
708.00,43.703
709.00,44.298
710.00,43.951
711.00,43.973
712.00,43.965
713.00,44.233
714.00,44.266
715.00,44.482
716.00,44.215
717.00,44.586
718.00,44.596
719.00,44.568
720.00,44.829
721.00,49.205
722.00,49.179
723.00,49.204
724.00,49.213
725.00,49.230
726.00,49.316
727.00,49.325
728.00,49.390
729.00,49.477
730.00,49.536
731.00,49.592
732.00,49.636
733.00,49.706
734.00,49.721
735.00,49.794
736.00,49.834
737.00,49.906
738.00,49.933
739.00,49.983
740.00,50.038
741.00,50.080
742.00,50.122
743.00,50.131
744.00,50.089
745.00,50.187
746.00,50.233
747.00,50.239
748.00,50.167
749.00,50.230
750.00,50.273
751.00,50.311
752.00,50.295
753.00,50.361
754.00,50.388
755.00,50.401
756.00,50.376
757.00,50.415
758.00,50.506
759.00,50.518
760.00,50.449
761.00,50.444
762.00,50.456
763.00,50.610
764.00,50.521
765.00,50.621
766.00,50.580
767.00,50.561
768.00,50.683
769.00,50.692
770.00,50.787
771.00,50.695
772.00,50.732
773.00,50.771
774.00,50.810
775.00,50.882
776.00,50.762
777.00,50.903
778.00,50.858
779.00,50.869
780.00,50.857
781.00,50.928
782.00,50.973
783.00,50.901
784.00,50.935
785.00,50.862
786.00,50.892
787.00,50.960
788.00,50.868
789.00,50.953
790.00,50.820
791.00,50.963
792.00,50.901
793.00,50.881
794.00,50.880
795.00,50.875
796.00,50.956
797.00,50.818
798.00,50.966
799.00,50.839
800.00,50.848
801.00,50.919
802.00,50.897
803.00,50.853
804.00,50.772
805.00,50.885
806.00,50.813
807.00,50.805
808.00,50.848
809.00,50.792
810.00,50.779
811.00,50.770
812.00,50.841
813.00,50.770
814.00,50.841
815.00,50.746
816.00,50.776
817.00,50.748
818.00,50.735
819.00,50.769
820.00,50.671
821.00,50.659
822.00,50.684
823.00,50.591
824.00,50.753
825.00,50.562
826.00,50.608
827.00,50.670
828.00,50.680
829.00,50.653
830.00,50.589
831.00,52.975
832.00,52.981
833.00,52.887
834.00,52.931
835.00,52.909
836.00,52.921
837.00,52.922
838.00,52.887
839.00,52.905
840.00,52.829
841.00,52.878
842.00,52.814
843.00,52.827
844.00,52.820
845.00,52.699
846.00,52.806
847.00,52.732
848.00,52.715
849.00,52.675
850.00,52.693
851.00,52.552
852.00,52.641
853.00,52.537
854.00,52.572
855.00,52.509
856.00,52.511
857.00,52.623
858.00,52.443
859.00,52.492
860.00,52.433
861.00,52.464
862.00,52.377
863.00,52.430
864.00,52.368
865.00,52.419
866.00,52.389
867.00,52.350
868.00,52.386
869.00,52.326
870.00,52.386
871.00,52.303
872.00,52.388
873.00,52.318
874.00,52.373
875.00,52.285
876.00,52.330
877.00,52.280
878.00,52.317
879.00,52.255
880.00,52.253
881.00,52.236
882.00,52.262
883.00,52.200
884.00,52.162
885.00,52.131
886.00,52.160
887.00,52.136
888.00,52.118
889.00,52.103
890.00,52.103
891.00,52.083
892.00,52.051
893.00,52.038
894.00,52.048
895.00,52.000
896.00,51.954
897.00,51.969
898.00,51.930
899.00,51.966
900.00,51.915
901.00,51.915
902.00,51.912
903.00,51.887
904.00,51.867
905.00,51.860
906.00,51.849
907.00,51.809
908.00,51.779
909.00,51.779
910.00,51.726
911.00,51.735
912.00,51.711
913.00,51.700
914.00,51.711
915.00,51.674
916.00,51.624
917.00,51.627
918.00,51.612
919.00,51.595
920.00,51.549
921.00,51.560
922.00,51.528
923.00,51.536
924.00,51.475
925.00,51.492
926.00,51.454
927.00,51.446
928.00,51.396
929.00,51.434
930.00,51.385
931.00,51.402
932.00,51.323
933.00,51.351
934.00,51.329
935.00,51.317
936.00,51.263
937.00,51.293
938.00,51.263
939.00,51.268
940.00,51.237
941.00,51.248
942.00,51.185
943.00,51.177
944.00,51.134
945.00,51.157
946.00,51.143
947.00,51.057
948.00,51.080
949.00,51.031
950.00,51.064
951.00,51.008
952.00,51.017
953.00,50.945
954.00,50.961
955.00,50.913
956.00,50.924
957.00,50.828
958.00,50.904
959.00,50.820
960.00,50.837
961.00,50.821
962.00,50.819
963.00,50.773
964.00,50.764
965.00,50.778
966.00,50.741
967.00,50.768
968.00,50.719
969.00,50.748
970.00,50.728
971.00,50.728
972.00,50.688
973.00,50.765
974.00,50.754
975.00,50.689
976.00,50.733
977.00,50.711
978.00,50.755
979.00,50.718
980.00,50.731
981.00,50.773
982.00,50.705
983.00,50.757
984.00,50.713
985.00,50.739
986.00,50.677
987.00,50.725
988.00,50.656
989.00,50.664
990.00,50.660
991.00,50.638
992.00,50.668
993.00,50.601
994.00,50.610
995.00,50.593
996.00,50.585
997.00,50.581
998.00,50.557
999.00,50.567
1000.00,50.511
1001.00,50.546
1002.00,50.506
1003.00,50.499
1004.00,50.512
1005.00,50.443
1006.00,50.512
1007.00,50.443
1008.00,50.441
1009.00,50.442
1010.00,50.422
1011.00,50.416
1012.00,50.367
1013.00,50.393
1014.00,50.355
1015.00,50.365
1016.00,50.341
1017.00,50.315
1018.00,50.303
1019.00,50.277
1020.00,50.309
1021.00,50.251
1022.00,50.264
1023.00,50.208
1024.00,50.208
1025.00,50.190
1026.00,50.166
1027.00,50.149
1028.00,50.158
1029.00,50.143
1030.00,50.104
1031.00,50.138
1032.00,50.077
1033.00,50.083
1034.00,50.063
1035.00,50.014
1036.00,50.020
1037.00,49.986
1038.00,49.986
1039.00,49.953
1040.00,49.930
1041.00,49.893
1042.00,49.898
1043.00,49.863
1044.00,49.907
1045.00,49.887
1046.00,49.875
1047.00,49.919
1048.00,49.912
1049.00,49.930
1050.00,49.923
1051.00,49.980
1052.00,49.955
1053.00,49.981
1054.00,49.957
1055.00,50.011
1056.00,50.012
1057.00,49.997
1058.00,49.994
1059.00,49.980
1060.00,50.000
1061.00,49.963
1062.00,49.955
1063.00,49.966
1064.00,49.983
1065.00,49.941
1066.00,49.963
1067.00,49.961
1068.00,49.972
1069.00,49.933
1070.00,49.918
1071.00,49.903
1072.00,49.947
1073.00,49.904
1074.00,49.900
1075.00,49.879
1076.00,49.886
1077.00,49.871
1078.00,49.848
1079.00,49.851
1080.00,49.867
1081.00,49.849
1082.00,49.840
1083.00,49.844
1084.00,49.829
1085.00,49.835
1086.00,49.817
1087.00,49.825
1088.00,49.810
1089.00,49.801
1090.00,49.775
1091.00,49.801
1092.00,49.773
1093.00,49.765
1094.00,49.730
1095.00,49.728
1096.00,49.705
1097.00,49.726
1098.00,49.696
1099.00,49.700
1100.00,49.680
1101.00,49.682
1102.00,49.669
1103.00,49.674
1104.00,49.645
1105.00,49.647
1106.00,49.615
1107.00,49.625
1108.00,49.608
1109.00,49.614
1110.00,49.611
1111.00,49.599
1112.00,49.582
1113.00,49.596
1114.00,49.559
1115.00,49.577
1116.00,49.570
1117.00,49.564
1118.00,49.554
1119.00,49.559
1120.00,49.533
1121.00,49.530
1122.00,49.499
1123.00,49.503
1124.00,49.510
1125.00,49.531
1126.00,49.505
1127.00,49.516
1128.00,49.489
1129.00,49.484
1130.00,49.460
1131.00,49.467
1132.00,49.456
1133.00,49.462
1134.00,49.442
1135.00,49.455
1136.00,49.403
1137.00,49.426
1138.00,49.432
1139.00,49.453
1140.00,49.449
1141.00,49.448
1142.00,49.421
1143.00,49.451
1144.00,49.404
1145.00,49.404
1146.00,49.406
1147.00,49.410
1148.00,49.381
1149.00,49.422
1150.00,49.394
1151.00,49.403
1152.00,49.403
1153.00,49.394
1154.00,49.373
1155.00,49.380
1156.00,49.359
1157.00,49.387
1158.00,49.365
1159.00,49.370
1160.00,49.385
1161.00,49.395
1162.00,49.393
1163.00,49.402
1164.00,49.396
1165.00,49.377
1166.00,49.380
1167.00,49.355
1168.00,49.399
1169.00,49.368
1170.00,49.376
1171.00,49.351
1172.00,49.359
1173.00,49.358
1174.00,49.359
1175.00,49.335
1176.00,49.334
1177.00,49.321
1178.00,49.319
1179.00,49.366
1180.00,49.328
1181.00,49.352
1182.00,49.347
1183.00,49.354
1184.00,49.338
1185.00,49.359
1186.00,49.342
1187.00,49.349
1188.00,49.352
1189.00,49.343
1190.00,49.358
1191.00,49.339
1192.00,49.369
1193.00,49.356
1194.00,49.350
1195.00,49.330
1196.00,49.374
1197.00,49.351
1198.00,49.341
1199.00,49.329
1200.00,49.336
1201.00,49.367
1202.00,49.327
1203.00,49.342
1204.00,49.338
1205.00,49.370
1206.00,49.358
1207.00,49.364
1208.00,49.343
1209.00,49.355
1210.00,49.360
1211.00,49.333
1212.00,49.376
1213.00,49.317
1214.00,49.358
1215.00,49.336
1216.00,49.349
1217.00,49.372
1218.00,49.339
1219.00,49.360
1220.00,49.339
1221.00,49.367
1222.00,49.343
1223.00,49.385
1224.00,49.377
1225.00,49.351
1226.00,49.380
1227.00,49.359
1228.00,49.380
1229.00,49.375
1230.00,49.389
1231.00,49.391
1232.00,49.423
1233.00,49.419
1234.00,49.427
1235.00,49.427
1236.00,49.430
1237.00,49.445
1238.00,49.423
1239.00,49.426
1240.00,49.418
1241.00,49.425
1242.00,49.413
1243.00,49.441
1244.00,49.406
1245.00,49.473
1246.00,49.459
1247.00,49.455
1248.00,49.463
1249.00,49.459
1250.00,49.484
1251.00,49.461
1252.00,49.475
1253.00,49.458
1254.00,49.507
1255.00,49.471
1256.00,49.467
1257.00,49.452
1258.00,49.505
1259.00,49.493
1260.00,49.513
1261.00,49.512
1262.00,49.540
1263.00,49.529
1264.00,49.534
1265.00,49.544
1266.00,49.529
1267.00,49.553
1268.00,49.543
1269.00,49.544
1270.00,49.563
1271.00,49.562
1272.00,49.549
1273.00,49.595
1274.00,49.588
1275.00,49.576
1276.00,49.574
1277.00,49.596
1278.00,49.622
1279.00,49.608
1280.00,49.601
1281.00,49.626
1282.00,49.641
1283.00,49.648
1284.00,49.670
1285.00,49.634
1286.00,49.664
1287.00,49.653
1288.00,49.644
1289.00,49.643
1290.00,49.679
1291.00,49.650
1292.00,49.675
1293.00,49.672
1294.00,49.705
1295.00,49.711
1296.00,49.711
1297.00,49.713
1298.00,49.765
1299.00,49.716
1300.00,49.757
1301.00,49.731
1302.00,49.763
1303.00,49.759
1304.00,49.743
1305.00,49.785
1306.00,49.788
1307.00,49.789
1308.00,49.808
1309.00,49.823
1310.00,49.801
1311.00,49.819
1312.00,49.820
1313.00,49.841
1314.00,49.842
1315.00,49.848
1316.00,49.841
1317.00,49.885
1318.00,49.866
1319.00,49.870
1320.00,49.879
1321.00,50.068
1322.00,50.039
1323.00,50.020
1324.00,50.015
1325.00,50.013
1326.00,50.035
1327.00,50.009
1328.00,50.012
1329.00,50.001
1330.00,50.075
1331.00,50.001
1332.00,50.024
1333.00,50.022
1334.00,50.048
1335.00,50.082
1336.00,50.150
1337.00,50.107
1338.00,50.200
1339.00,50.240
1340.00,50.297
1341.00,50.372
1342.00,50.439
1343.00,50.474
1344.00,50.536
1345.00,50.581
1346.00,50.622
1347.00,50.640
1348.00,50.689
1349.00,50.701
1350.00,50.742
1351.00,50.714
1352.00,50.752
1353.00,50.789
1354.00,50.763
1355.00,50.694
1356.00,50.785
1357.00,50.753
1358.00,50.769
1359.00,50.773
1360.00,50.793
1361.00,50.794
1362.00,50.735
1363.00,50.856
1364.00,50.921
1365.00,50.799
1366.00,50.875
1367.00,50.845
1368.00,50.773
1369.00,50.836
1370.00,50.811
1371.00,50.803
1372.00,50.828
1373.00,50.813
1374.00,50.862
1375.00,50.820
1376.00,50.821
1377.00,50.827
1378.00,50.856
1379.00,50.818
1380.00,50.864
1381.00,50.845
1382.00,50.734
1383.00,50.851
1384.00,50.741
1385.00,50.797
1386.00,50.875
1387.00,50.849
1388.00,50.757
1389.00,50.777
1390.00,50.796
1391.00,50.861
1392.00,50.773
1393.00,50.812
1394.00,50.808
1395.00,50.783
1396.00,50.740
1397.00,50.824
1398.00,50.814
1399.00,50.791
1400.00,50.800
1401.00,50.790
1402.00,50.828
1403.00,50.825
1404.00,50.841
1405.00,50.866
1406.00,50.882
1407.00,50.868
1408.00,50.894
1409.00,50.875
1410.00,50.923
1411.00,50.882
1412.00,50.936
1413.00,50.883
1414.00,50.910
1415.00,50.938
1416.00,50.975
1417.00,50.981
1418.00,50.951
1419.00,51.008
1420.00,50.990
1421.00,51.049
1422.00,51.023
1423.00,51.053
1424.00,51.042
1425.00,51.090
1426.00,51.097
1427.00,51.129
1428.00,51.106
1429.00,51.141
1430.00,51.139
1431.00,51.170
1432.00,51.166
1433.00,51.204
1434.00,51.182
1435.00,51.267
1436.00,51.263
1437.00,51.264
1438.00,51.299
1439.00,51.318
1440.00,51.336
1441.00,51.332
1442.00,51.374
1443.00,51.396
1444.00,51.420
1445.00,51.384
1446.00,51.447
1447.00,51.446
1448.00,51.498
1449.00,51.502
1450.00,51.512
1451.00,51.504
1452.00,51.554
1453.00,51.532
1454.00,51.573
1455.00,51.587
1456.00,51.595
1457.00,51.627
1458.00,51.627
1459.00,51.658
1460.00,51.706
1461.00,51.662
1462.00,51.727
1463.00,51.717
1464.00,51.724
1465.00,51.745
1466.00,51.752
1467.00,51.770
1468.00,51.852
1469.00,51.799
1470.00,51.835
1471.00,51.848
1472.00,51.858
1473.00,51.891
1474.00,51.909
1475.00,51.912
1476.00,51.942
1477.00,51.905
1478.00,51.948
1479.00,51.975
1480.00,51.973
1481.00,51.970
1482.00,52.012
1483.00,52.018
1484.00,52.040
1485.00,52.047
1486.00,52.063
1487.00,52.089
1488.00,52.107
1489.00,52.093
1490.00,52.171
1491.00,52.146
1492.00,52.185
1493.00,52.143
1494.00,52.200
1495.00,52.176
1496.00,52.224
1497.00,52.197
1498.00,52.219
1499.00,52.227
1500.00,52.249
1501.00, 
1502.00, 
1503.00, 
1504.00, 
1505.00, 
1506.00, 
1507.00, 
1508.00, 
1509.00, 
1510.00, 
1511.00, 
1512.00, 
1513.00, 
1514.00, 
1515.00, 
1516.00, 
1517.00, 
1518.00, 
1519.00, 
1520.00, 
1521.00, 
1522.00, 
1523.00, 
1524.00, 
1525.00, 
1526.00, 
1527.00, 
1528.00, 
1529.00, 
1530.00, 
1531.00, 
1532.00, 
1533.00, 
1534.00, 
1535.00, 
1536.00, 
1537.00, 
1538.00, 
1539.00, 
1540.00, 
1541.00, 
1542.00, 
1543.00, 
1544.00, 
1545.00, 
1546.00, 
1547.00, 
1548.00, 
1549.00, 
1550.00, 
1551.00, 
1552.00, 
1553.00, 
1554.00, 
1555.00, 
1556.00, 
1557.00, 
1558.00, 
1559.00, 
1560.00, 
1561.00, 
1562.00, 
1563.00, 
1564.00, 
1565.00, 
1566.00, 
1567.00, 
1568.00, 
1569.00, 
1570.00, 
1571.00, 
1572.00, 
1573.00, 
1574.00, 
1575.00, 
1576.00, 
1577.00, 
1578.00, 
1579.00, 
1580.00, 
1581.00, 
1582.00, 
1583.00, 
1584.00, 
1585.00, 
1586.00, 
1587.00, 
1588.00, 
1589.00, 
1590.00, 
1591.00, 
1592.00, 
1593.00, 
1594.00, 
1595.00, 
1596.00, 
1597.00, 
1598.00, 
1599.00, 
1600.00, 
1601.00, 
1602.00, 
1603.00, 
1604.00, 
1605.00, 
1606.00, 
1607.00, 
1608.00, 
1609.00, 
1610.00, 
1611.00, 
1612.00, 
1613.00, 
1614.00, 
1615.00, 
1616.00, 
1617.00, 
1618.00, 
1619.00, 
1620.00, 
1621.00, 
1622.00, 
1623.00, 
1624.00, 
1625.00, 
1626.00, 
1627.00, 
1628.00, 
1629.00, 
1630.00, 
1631.00, 
1632.00, 
1633.00, 
1634.00, 
1635.00, 
1636.00, 
1637.00, 
1638.00, 
1639.00, 
1640.00, 
1641.00, 
1642.00, 
1643.00, 
1644.00, 
1645.00, 
1646.00, 
1647.00, 
1648.00, 
1649.00, 
1650.00, 
1651.00, 
1652.00, 
1653.00, 
1654.00, 
1655.00, 
1656.00, 
1657.00, 
1658.00, 
1659.00, 
1660.00, 
1661.00, 
1662.00, 
1663.00, 
1664.00, 
1665.00, 
1666.00, 
1667.00, 
1668.00, 
1669.00, 
1670.00, 
1671.00, 
1672.00, 
1673.00, 
1674.00, 
1675.00, 
1676.00, 
1677.00, 
1678.00, 
1679.00, 
1680.00, 
1681.00, 
1682.00, 
1683.00, 
1684.00, 
1685.00, 
1686.00, 
1687.00, 
1688.00, 
1689.00, 
1690.00, 
1691.00, 
1692.00, 
1693.00, 
1694.00, 
1695.00, 
1696.00, 
1697.00, 
1698.00, 
1699.00, 
1700.00, 
1701.00, 
1702.00, 
1703.00, 
1704.00, 
1705.00, 
1706.00, 
1707.00, 
1708.00, 
1709.00, 
1710.00, 
1711.00, 
1712.00, 
1713.00, 
1714.00, 
1715.00, 
1716.00, 
1717.00, 
1718.00, 
1719.00, 
1720.00, 
1721.00, 
1722.00, 
1723.00, 
1724.00, 
1725.00, 
1726.00, 
1727.00, 
1728.00, 
1729.00, 
1730.00, 
1731.00, 
1732.00, 
1733.00, 
1734.00, 
1735.00, 
1736.00, 
1737.00, 
1738.00, 
1739.00, 
1740.00, 
1741.00, 
1742.00, 
1743.00, 
1744.00, 
1745.00, 
1746.00, 
1747.00, 
1748.00, 
1749.00, 
1750.00, 
1751.00, 
1752.00, 
1753.00, 
1754.00, 
1755.00, 
1756.00, 
1757.00, 
1758.00, 
1759.00, 
1760.00, 
1761.00, 
1762.00, 
1763.00, 
1764.00, 
1765.00, 
1766.00, 
1767.00, 
1768.00, 
1769.00, 
1770.00, 
1771.00, 
1772.00, 
1773.00, 
1774.00, 
1775.00, 
1776.00, 
1777.00, 
1778.00, 
1779.00, 
1780.00, 
1781.00, 
1782.00, 
1783.00, 
1784.00, 
1785.00, 
1786.00, 
1787.00, 
1788.00, 
1789.00, 
1790.00, 
1791.00, 
1792.00, 
1793.00, 
1794.00, 
1795.00, 
1796.00, 
1797.00, 
1798.00, 
1799.00, 
1800.00, 
1801.00, 
1802.00, 
1803.00, 
1804.00, 
1805.00, 
1806.00, 
1807.00, 
1808.00, 
1809.00, 
1810.00, 
1811.00, 
1812.00, 
1813.00, 
1814.00, 
1815.00, 
1816.00, 
1817.00, 
1818.00, 
1819.00, 
1820.00, 
1821.00, 
1822.00, 
1823.00, 
1824.00, 
1825.00, 
1826.00, 
1827.00, 
1828.00, 
1829.00, 
1830.00, 
1831.00, 
1832.00, 
1833.00, 
1834.00, 
1835.00, 
1836.00, 
1837.00, 
1838.00, 
1839.00, 
1840.00, 
1841.00, 
1842.00, 
1843.00, 
1844.00, 
1845.00, 
1846.00, 
1847.00, 
1848.00, 
1849.00, 
1850.00, 
1851.00, 
1852.00, 
1853.00, 
1854.00, 
1855.00, 
1856.00, 
1857.00, 
1858.00, 
1859.00, 
1860.00, 
1861.00, 
1862.00, 
1863.00, 
1864.00, 
1865.00, 
1866.00, 
1867.00, 
1868.00, 
1869.00, 
1870.00, 
1871.00, 
1872.00, 
1873.00, 
1874.00, 
1875.00, 
1876.00, 
1877.00, 
1878.00, 
1879.00, 
1880.00, 
1881.00, 
1882.00, 
1883.00, 
1884.00, 
1885.00, 
1886.00, 
1887.00, 
1888.00, 
1889.00, 
1890.00, 
1891.00, 
1892.00, 
1893.00, 
1894.00, 
1895.00, 
1896.00, 
1897.00, 
1898.00, 
1899.00, 
1900.00, 
1901.00, 
1902.00, 
1903.00, 
1904.00, 
1905.00, 
1906.00, 
1907.00, 
1908.00, 
1909.00, 
1910.00, 
1911.00, 
1912.00, 
1913.00, 
1914.00, 
1915.00, 
1916.00, 
1917.00, 
1918.00, 
1919.00, 
1920.00, 
1921.00, 
1922.00, 
1923.00, 
1924.00, 
1925.00, 
1926.00, 
1927.00, 
1928.00, 
1929.00, 
1930.00, 
1931.00, 
1932.00, 
1933.00, 
1934.00, 
1935.00, 
1936.00, 
1937.00, 
1938.00, 
1939.00, 
1940.00, 
1941.00, 
1942.00, 
1943.00, 
1944.00, 
1945.00, 
1946.00, 
1947.00, 
1948.00, 
1949.00, 
1950.00, 
1951.00, 
1952.00, 
1953.00, 
1954.00, 
1955.00, 
1956.00, 
1957.00, 
1958.00, 
1959.00, 
1960.00, 
1961.00, 
1962.00, 
1963.00, 
1964.00, 
1965.00, 
1966.00, 
1967.00, 
1968.00, 
1969.00, 
1970.00, 
1971.00, 
1972.00, 
1973.00, 
1974.00, 
1975.00, 
1976.00, 
1977.00, 
1978.00, 
1979.00, 
1980.00, 
1981.00, 
1982.00, 
1983.00, 
1984.00, 
1985.00, 
1986.00, 
1987.00, 
1988.00, 
1989.00, 
1990.00, 
1991.00, 
1992.00, 
1993.00, 
1994.00, 
1995.00, 
1996.00, 
1997.00, 
1998.00, 
1999.00, 
2000.00, 
2001.00, 
2002.00, 
2003.00, 
2004.00, 
2005.00, 
2006.00, 
2007.00, 
2008.00, 
2009.00, 
2010.00, 
2011.00, 
2012.00, 
2013.00, 
2014.00, 
2015.00, 
2016.00, 
2017.00, 
2018.00, 
2019.00, 
2020.00, 
2021.00, 
2022.00, 
2023.00, 
2024.00, 
2025.00, 
2026.00, 
2027.00, 
2028.00, 
2029.00, 
2030.00, 
2031.00, 
2032.00, 
2033.00, 
2034.00, 
2035.00, 
2036.00, 
2037.00, 
2038.00, 
2039.00, 
2040.00, 
2041.00, 
2042.00, 
2043.00, 
2044.00, 
2045.00, 
2046.00, 
2047.00, 
2048.00, 
2049.00, 
2050.00, 
2051.00, 
2052.00, 
2053.00, 
2054.00, 
2055.00, 
2056.00, 
2057.00, 
2058.00, 
2059.00, 
2060.00, 
2061.00, 
2062.00, 
2063.00, 
2064.00, 
2065.00, 
2066.00, 
2067.00, 
2068.00, 
2069.00, 
2070.00, 
2071.00, 
2072.00, 
2073.00, 
2074.00, 
2075.00, 
2076.00, 
2077.00, 
2078.00, 
2079.00, 
2080.00, 
2081.00, 
2082.00, 
2083.00, 
2084.00, 
2085.00, 
2086.00, 
2087.00, 
2088.00, 
2089.00, 
2090.00, 
2091.00, 
2092.00, 
2093.00, 
2094.00, 
2095.00, 
2096.00, 
2097.00, 
2098.00, 
2099.00, 
2100.00, 
2101.00, 
2102.00, 
2103.00, 
2104.00, 
2105.00, 
2106.00, 
2107.00, 
2108.00, 
2109.00, 
2110.00, 
2111.00, 
2112.00, 
2113.00, 
2114.00, 
2115.00, 
2116.00, 
2117.00, 
2118.00, 
2119.00, 
2120.00, 
2121.00, 
2122.00, 
2123.00, 
2124.00, 
2125.00, 
2126.00, 
2127.00, 
2128.00, 
2129.00, 
2130.00, 
2131.00, 
2132.00, 
2133.00, 
2134.00, 
2135.00, 
2136.00, 
2137.00, 
2138.00, 
2139.00, 
2140.00, 
2141.00, 
2142.00, 
2143.00, 
2144.00, 
2145.00, 
2146.00, 
2147.00, 
2148.00, 
2149.00, 
2150.00, 
2151.00, 
2152.00, 
2153.00, 
2154.00, 
2155.00, 
2156.00, 
2157.00, 
2158.00, 
2159.00, 
2160.00, 
2161.00, 
2162.00, 
2163.00, 
2164.00, 
2165.00, 
2166.00, 
2167.00, 
2168.00, 
2169.00, 
2170.00, 
2171.00, 
2172.00, 
2173.00, 
2174.00, 
2175.00, 
2176.00, 
2177.00, 
2178.00, 
2179.00, 
2180.00, 
2181.00, 
2182.00, 
2183.00, 
2184.00, 
2185.00, 
2186.00, 
2187.00, 
2188.00, 
2189.00, 
2190.00, 
2191.00, 
2192.00, 
2193.00, 
2194.00, 
2195.00, 
2196.00, 
2197.00, 
2198.00, 
2199.00, 
2200.00, 
2201.00, 
2202.00, 
2203.00, 
2204.00, 
2205.00, 
2206.00, 
2207.00, 
2208.00, 
2209.00, 
2210.00, 
2211.00, 
2212.00, 
2213.00, 
2214.00, 
2215.00, 
2216.00, 
2217.00, 
2218.00, 
2219.00, 
2220.00, 
2221.00, 
2222.00, 
2223.00, 
2224.00, 
2225.00, 
2226.00, 
2227.00, 
2228.00, 
2229.00, 
2230.00, 
2231.00, 
2232.00, 
2233.00, 
2234.00, 
2235.00, 
2236.00, 
2237.00, 
2238.00, 
2239.00, 
2240.00, 
2241.00, 
2242.00, 
2243.00, 
2244.00, 
2245.00, 
2246.00, 
2247.00, 
2248.00, 
2249.00, 
2250.00, 
2251.00, 
2252.00, 
2253.00, 
2254.00, 
2255.00, 
2256.00, 
2257.00, 
2258.00, 
2259.00, 
2260.00, 
2261.00, 
2262.00, 
2263.00, 
2264.00, 
2265.00, 
2266.00, 
2267.00, 
2268.00, 
2269.00, 
2270.00, 
2271.00, 
2272.00, 
2273.00, 
2274.00, 
2275.00, 
2276.00, 
2277.00, 
2278.00, 
2279.00, 
2280.00, 
2281.00, 
2282.00, 
2283.00, 
2284.00, 
2285.00, 
2286.00, 
2287.00, 
2288.00, 
2289.00, 
2290.00, 
2291.00, 
2292.00, 
2293.00, 
2294.00, 
2295.00, 
2296.00, 
2297.00, 
2298.00, 
2299.00, 
2300.00, 
2301.00, 
2302.00, 
2303.00, 
2304.00, 
2305.00, 
2306.00, 
2307.00, 
2308.00, 
2309.00, 
2310.00, 
2311.00, 
2312.00, 
2313.00, 
2314.00, 
2315.00, 
2316.00, 
2317.00, 
2318.00, 
2319.00, 
2320.00, 
2321.00, 
2322.00, 
2323.00, 
2324.00, 
2325.00, 
2326.00, 
2327.00, 
2328.00, 
2329.00, 
2330.00, 
2331.00, 
2332.00, 
2333.00, 
2334.00, 
2335.00, 
2336.00, 
2337.00, 
2338.00, 
2339.00, 
2340.00, 
2341.00, 
2342.00, 
2343.00, 
2344.00, 
2345.00, 
2346.00, 
2347.00, 
2348.00, 
2349.00, 
2350.00, 
2351.00, 
2352.00, 
2353.00, 
2354.00, 
2355.00, 
2356.00, 
2357.00, 
2358.00, 
2359.00, 
2360.00, 
2361.00, 
2362.00, 
2363.00, 
2364.00, 
2365.00, 
2366.00, 
2367.00, 
2368.00, 
2369.00, 
2370.00, 
2371.00, 
2372.00, 
2373.00, 
2374.00, 
2375.00, 
2376.00, 
2377.00, 
2378.00, 
2379.00, 
2380.00, 
2381.00, 
2382.00, 
2383.00, 
2384.00, 
2385.00, 
2386.00, 
2387.00, 
2388.00, 
2389.00, 
2390.00, 
2391.00, 
2392.00, 
2393.00, 
2394.00, 
2395.00, 
2396.00, 
2397.00, 
2398.00, 
2399.00, 
2400.00, 
2401.00, 
2402.00, 
2403.00, 
2404.00, 
2405.00, 
2406.00, 
2407.00, 
2408.00, 
2409.00, 
2410.00, 
2411.00, 
2412.00, 
2413.00, 
2414.00, 
2415.00, 
2416.00, 
2417.00, 
2418.00, 
2419.00, 
2420.00, 
2421.00, 
2422.00, 
2423.00, 
2424.00, 
2425.00, 
2426.00, 
2427.00, 
2428.00, 
2429.00, 
2430.00, 
2431.00, 
2432.00, 
2433.00, 
2434.00, 
2435.00, 
2436.00, 
2437.00, 
2438.00, 
2439.00, 
2440.00, 
2441.00, 
2442.00, 
2443.00, 
2444.00, 
2445.00, 
2446.00, 
2447.00, 
2448.00, 
2449.00, 
2450.00, 
2451.00, 
2452.00, 
2453.00, 
2454.00, 
2455.00, 
2456.00, 
2457.00, 
2458.00, 
2459.00, 
2460.00, 
2461.00, 
2462.00, 
2463.00, 
2464.00, 
2465.00, 
2466.00, 
2467.00, 
2468.00, 
2469.00, 
2470.00, 
2471.00, 
2472.00, 
2473.00, 
2474.00, 
2475.00, 
2476.00, 
2477.00, 
2478.00, 
2479.00, 
2480.00, 
2481.00, 
2482.00, 
2483.00, 
2484.00, 
2485.00, 
2486.00, 
2487.00, 
2488.00, 
2489.00, 
2490.00, 
2491.00, 
2492.00, 
2493.00, 
2494.00, 
2495.00, 
2496.00, 
2497.00, 
2498.00, 
2499.00, 
2500.00, 
2501.00, 
2502.00, 
2503.00, 
2504.00, 
2505.00, 
2506.00, 
2507.00, 
2508.00, 
2509.00, 
2510.00, 
2511.00, 
2512.00, 
2513.00, 
2514.00, 
2515.00, 
2516.00, 
2517.00, 
2518.00, 
2519.00, 
2520.00, 
2521.00, 
2522.00, 
2523.00, 
2524.00, 
2525.00, 
2526.00, 
2527.00, 
2528.00, 
2529.00, 
2530.00, 
2531.00, 
2532.00, 
2533.00, 
2534.00, 
2535.00, 
2536.00, 
2537.00, 
2538.00, 
2539.00, 
2540.00, 
2541.00, 
2542.00, 
2543.00, 
2544.00, 
2545.00, 
2546.00, 
2547.00, 
2548.00, 
2549.00, 
2550.00, 
2551.00, 
2552.00, 
2553.00, 
2554.00, 
2555.00, 
2556.00, 
2557.00, 
2558.00, 
2559.00, 
2560.00, 
2561.00, 
2562.00, 
2563.00, 
2564.00, 
2565.00, 
2566.00, 
2567.00, 
2568.00, 
2569.00, 
2570.00, 
2571.00, 
2572.00, 
2573.00, 
2574.00, 
2575.00, 
2576.00, 
2577.00, 
2578.00, 
2579.00, 
2580.00, 
2581.00, 
2582.00, 
2583.00, 
2584.00, 
2585.00, 
2586.00, 
2587.00, 
2588.00, 
2589.00, 
2590.00, 
2591.00, 
2592.00, 
2593.00, 
2594.00, 
2595.00, 
2596.00, 
2597.00, 
2598.00, 
2599.00, 
2600.00, 
