"1cP5 - RawData"
"Wavelength nm.","T%"
200.00,0.005
201.00,-0.001
202.00,0.005
203.00,0.003
204.00,-0.000
205.00,0.001
206.00,-0.002
207.00,0.001
208.00,-0.004
209.00,0.000
210.00,-0.001
211.00,0.002
212.00,-0.002
213.00,0.001
214.00,0.001
215.00,0.001
216.00,-0.001
217.00,0.001
218.00,-0.000
219.00,0.002
220.00,0.003
221.00,0.004
222.00,0.001
223.00,0.003
224.00,0.002
225.00,0.001
226.00,0.001
227.00,0.001
228.00,0.001
229.00,-0.002
230.00,0.002
231.00,0.000
232.00,0.000
233.00,0.002
234.00,0.001
235.00,-0.001
236.00,0.002
237.00,0.003
238.00,-0.000
239.00,0.000
240.00,-0.001
241.00,0.001
242.00,0.001
243.00,0.001
244.00,0.001
245.00,0.001
246.00,0.000
247.00,-0.001
248.00,0.000
249.00,-0.001
250.00,0.002
251.00,0.001
252.00,0.000
253.00,-0.000
254.00,-0.000
255.00,0.001
256.00,0.002
257.00,-0.001
258.00,0.001
259.00,0.000
260.00,0.000
261.00,-0.001
262.00,0.001
263.00,0.001
264.00,-0.001
265.00,0.000
266.00,0.001
267.00,-0.001
268.00,0.001
269.00,-0.001
270.00,0.001
271.00,-0.000
272.00,0.001
273.00,0.001
274.00,-0.000
275.00,0.000
276.00,0.000
277.00,0.000
278.00,0.000
279.00,-0.001
280.00,0.000
281.00,0.000
282.00,-0.000
283.00,-0.000
284.00,0.001
285.00,0.000
286.00,0.002
287.00,-0.000
288.00,0.002
289.00,-0.001
290.00,-0.001
291.00,0.000
292.00,0.000
293.00,-0.002
294.00,-0.000
295.00,0.001
296.00,-0.001
297.00,0.000
298.00,0.001
299.00,0.000
300.00,0.001
301.00,0.001
302.00,0.002
303.00,0.002
304.00,0.001
305.00,0.002
306.00,0.000
307.00,0.001
308.00,0.004
309.00,0.008
310.00,0.015
311.00,0.019
312.00,0.037
313.00,0.052
314.00,0.080
315.00,0.121
316.00,0.169
317.00,0.240
318.00,0.326
319.00,0.439
320.00,0.575
321.00,0.741
322.00,0.959
323.00,1.206
324.00,1.489
325.00,1.778
326.00,2.116
327.00,2.510
328.00,2.931
329.00,3.388
330.00,3.865
331.00,4.344
332.00,4.913
333.00,5.498
334.00,6.050
335.00,6.637
336.00,7.207
337.00,7.839
338.00,8.439
339.00,9.008
340.00,9.579
341.00,10.153
342.00,10.739
343.00,11.261
344.00,11.734
345.00,12.288
346.00,12.734
347.00,13.152
348.00,13.567
349.00,13.963
350.00,14.344
351.00,14.663
352.00,14.952
353.00,15.300
354.00,15.557
355.00,15.863
356.00,16.106
357.00,16.324
358.00,16.572
359.00,16.772
360.00,16.969
361.00,17.049
362.00,17.188
363.00,17.349
364.00,17.424
365.00,17.530
366.00,17.611
367.00,17.635
368.00,17.651
369.00,17.712
370.00,17.784
371.00,17.744
372.00,17.744
373.00,17.732
374.00,17.681
375.00,17.652
376.00,17.564
377.00,17.470
378.00,17.396
379.00,17.273
380.00,17.248
381.00,17.237
382.00,17.225
383.00,17.222
384.00,17.267
385.00,17.299
386.00,17.290
387.00,17.362
388.00,17.436
389.00,17.424
390.00,17.456
391.00,17.464
392.00,17.494
393.00,17.500
394.00,17.528
395.00,17.521
396.00,17.470
397.00,17.522
398.00,17.469
399.00,17.492
400.00,17.465
401.00,17.470
402.00,17.471
403.00,17.433
404.00,17.420
405.00,17.390
406.00,17.371
407.00,17.340
408.00,17.361
409.00,17.284
410.00,17.243
411.00,17.212
412.00,17.190
413.00,17.219
414.00,17.217
415.00,17.178
416.00,17.241
417.00,17.229
418.00,17.248
419.00,17.302
420.00,17.355
421.00,17.339
422.00,17.358
423.00,17.387
424.00,17.437
425.00,17.445
426.00,17.469
427.00,17.522
428.00,17.556
429.00,17.589
430.00,17.640
431.00,17.705
432.00,17.697
433.00,17.764
434.00,17.840
435.00,17.882
436.00,17.960
437.00,18.004
438.00,18.069
439.00,18.126
440.00,18.190
441.00,18.279
442.00,18.357
443.00,18.414
444.00,18.514
445.00,18.622
446.00,18.704
447.00,18.751
448.00,18.894
449.00,18.969
450.00,19.058
451.00,19.171
452.00,19.238
453.00,19.411
454.00,19.472
455.00,19.584
456.00,19.735
457.00,19.806
458.00,19.953
459.00,20.087
460.00,20.202
461.00,20.348
462.00,20.452
463.00,20.608
464.00,20.737
465.00,20.858
466.00,20.978
467.00,21.130
468.00,21.217
469.00,21.359
470.00,21.431
471.00,21.546
472.00,21.708
473.00,21.778
474.00,21.903
475.00,22.051
476.00,22.142
477.00,22.275
478.00,22.411
479.00,22.606
480.00,22.695
481.00,22.824
482.00,23.000
483.00,23.151
484.00,23.327
485.00,23.468
486.00,23.609
487.00,23.800
488.00,23.921
489.00,24.116
490.00,24.266
491.00,24.398
492.00,24.682
493.00,24.832
494.00,24.851
495.00,24.964
496.00,25.080
497.00,25.166
498.00,25.384
499.00,25.456
500.00,25.637
501.00,25.801
502.00,25.943
503.00,26.082
504.00,26.120
505.00,26.298
506.00,26.410
507.00,26.502
508.00,26.639
509.00,26.845
510.00,26.960
511.00,27.032
512.00,27.234
513.00,27.358
514.00,27.523
515.00,27.657
516.00,27.756
517.00,27.865
518.00,28.006
519.00,28.087
520.00,28.172
521.00,28.248
522.00,28.383
523.00,28.420
524.00,28.561
525.00,28.711
526.00,28.822
527.00,28.890
528.00,28.993
529.00,29.202
530.00,29.319
531.00,29.426
532.00,29.489
533.00,29.558
534.00,29.689
535.00,29.806
536.00,29.831
537.00,29.998
538.00,30.051
539.00,30.083
540.00,30.130
541.00,30.226
542.00,30.306
543.00,30.378
544.00,30.532
545.00,30.611
546.00,30.591
547.00,30.734
548.00,30.827
549.00,30.847
550.00,30.940
551.00,31.070
552.00,31.116
553.00,31.176
554.00,31.238
555.00,31.237
556.00,31.240
557.00,31.457
558.00,31.527
559.00,31.559
560.00,31.646
561.00,31.753
562.00,31.824
563.00,31.826
564.00,31.868
565.00,31.941
566.00,31.946
567.00,31.965
568.00,31.992
569.00,32.061
570.00,32.036
571.00,32.172
572.00,32.209
573.00,32.174
574.00,32.236
575.00,32.283
576.00,32.266
577.00,32.379
578.00,32.457
579.00,32.524
580.00,32.530
581.00,32.686
582.00,32.758
583.00,32.771
584.00,32.890
585.00,32.972
586.00,32.967
587.00,33.037
588.00,33.084
589.00,33.034
590.00,33.091
591.00,33.133
592.00,33.070
593.00,33.188
594.00,33.336
595.00,33.352
596.00,33.317
597.00,33.476
598.00,33.553
599.00,33.569
600.00,33.601
601.00,33.684
602.00,33.713
603.00,33.779
604.00,33.839
605.00,33.898
606.00,33.906
607.00,33.963
608.00,34.131
609.00,34.206
610.00,34.084
611.00,34.119
612.00,34.155
613.00,34.235
614.00,34.268
615.00,34.410
616.00,34.475
617.00,34.480
618.00,34.497
619.00,34.610
620.00,34.654
621.00,34.701
622.00,34.763
623.00,34.827
624.00,34.974
625.00,35.031
626.00,35.032
627.00,35.157
628.00,35.177
629.00,35.166
630.00,35.242
631.00,35.323
632.00,35.438
633.00,35.505
634.00,35.641
635.00,35.702
636.00,35.764
637.00,35.808
638.00,35.894
639.00,36.006
640.00,36.057
641.00,36.102
642.00,36.163
643.00,36.231
644.00,36.433
645.00,36.504
646.00,36.646
647.00,36.687
648.00,36.744
649.00,36.804
650.00,36.880
651.00,37.109
652.00,37.109
653.00,37.178
654.00,37.275
655.00,37.499
656.00,37.746
657.00,37.652
658.00,37.770
659.00,37.870
660.00,38.020
661.00,38.082
662.00,38.117
663.00,38.204
664.00,38.498
665.00,38.665
666.00,38.512
667.00,38.722
668.00,38.811
669.00,39.079
670.00,39.295
671.00,39.333
672.00,39.309
673.00,39.428
674.00,39.603
675.00,39.656
676.00,39.917
677.00,40.055
678.00,39.859
679.00,40.111
680.00,40.259
681.00,40.393
682.00,40.358
683.00,40.433
684.00,40.706
685.00,40.784
686.00,40.624
687.00,40.792
688.00,41.018
689.00,41.057
690.00,41.317
691.00,41.634
692.00,41.285
693.00,41.351
694.00,41.559
695.00,41.631
696.00,41.859
697.00,41.794
698.00,41.948
699.00,42.238
700.00,42.377
701.00,42.473
702.00,42.569
703.00,42.825
704.00,42.827
705.00,42.691
706.00,42.892
707.00,42.945
708.00,43.066
709.00,43.689
710.00,43.325
711.00,43.298
712.00,43.400
713.00,43.523
714.00,43.547
715.00,43.877
716.00,43.592
717.00,43.952
718.00,44.038
719.00,43.898
720.00,44.137
721.00,48.571
722.00,48.575
723.00,48.642
724.00,48.682
725.00,48.661
726.00,48.782
727.00,48.719
728.00,48.846
729.00,48.952
730.00,49.007
731.00,49.074
732.00,49.043
733.00,49.226
734.00,49.259
735.00,49.317
736.00,49.320
737.00,49.399
738.00,49.419
739.00,49.466
740.00,49.531
741.00,49.695
742.00,49.674
743.00,49.630
744.00,49.696
745.00,49.753
746.00,49.809
747.00,49.789
748.00,49.735
749.00,49.820
750.00,49.882
751.00,49.841
752.00,49.924
753.00,49.944
754.00,49.987
755.00,49.986
756.00,50.033
757.00,50.067
758.00,50.086
759.00,50.051
760.00,50.077
761.00,50.102
762.00,50.153
763.00,50.198
764.00,50.188
765.00,50.157
766.00,50.273
767.00,50.266
768.00,50.310
769.00,50.406
770.00,50.428
771.00,50.364
772.00,50.410
773.00,50.420
774.00,50.476
775.00,50.535
776.00,50.401
777.00,50.520
778.00,50.527
779.00,50.590
780.00,50.535
781.00,50.586
782.00,50.625
783.00,50.574
784.00,50.675
785.00,50.577
786.00,50.636
787.00,50.635
788.00,50.573
789.00,50.552
790.00,50.542
791.00,50.655
792.00,50.588
793.00,50.726
794.00,50.581
795.00,50.623
796.00,50.690
797.00,50.582
798.00,50.653
799.00,50.573
800.00,50.566
801.00,50.613
802.00,50.608
803.00,50.549
804.00,50.534
805.00,50.640
806.00,50.539
807.00,50.538
808.00,50.561
809.00,50.503
810.00,50.481
811.00,50.537
812.00,50.537
813.00,50.456
814.00,50.516
815.00,50.486
816.00,50.512
817.00,50.485
818.00,50.471
819.00,50.533
820.00,50.424
821.00,50.473
822.00,50.529
823.00,50.311
824.00,50.498
825.00,50.387
826.00,50.335
827.00,50.365
828.00,50.460
829.00,50.457
830.00,50.405
831.00,52.817
832.00,52.799
833.00,52.668
834.00,52.787
835.00,52.736
836.00,52.789
837.00,52.711
838.00,52.705
839.00,52.738
840.00,52.643
841.00,52.693
842.00,52.682
843.00,52.687
844.00,52.650
845.00,52.531
846.00,52.606
847.00,52.566
848.00,52.609
849.00,52.547
850.00,52.546
851.00,52.432
852.00,52.516
853.00,52.389
854.00,52.400
855.00,52.361
856.00,52.390
857.00,52.348
858.00,52.289
859.00,52.308
860.00,52.286
861.00,52.311
862.00,52.225
863.00,52.264
864.00,52.227
865.00,52.279
866.00,52.198
867.00,52.199
868.00,52.248
869.00,52.182
870.00,52.245
871.00,52.188
872.00,52.233
873.00,52.150
874.00,52.190
875.00,52.201
876.00,52.199
877.00,52.105
878.00,52.167
879.00,52.113
880.00,52.123
881.00,52.087
882.00,52.120
883.00,52.054
884.00,52.028
885.00,51.995
886.00,52.029
887.00,52.005
888.00,52.005
889.00,51.994
890.00,51.955
891.00,52.098
892.00,51.924
893.00,51.913
894.00,51.914
895.00,51.873
896.00,51.829
897.00,51.812
898.00,51.802
899.00,51.824
900.00,51.775
901.00,51.772
902.00,51.766
903.00,51.684
904.00,51.710
905.00,51.721
906.00,51.734
907.00,51.701
908.00,51.659
909.00,51.689
910.00,51.613
911.00,51.632
912.00,51.611
913.00,51.582
914.00,51.569
915.00,51.583
916.00,51.521
917.00,51.520
918.00,51.521
919.00,51.504
920.00,51.432
921.00,51.462
922.00,51.432
923.00,51.440
924.00,51.353
925.00,51.400
926.00,51.335
927.00,51.363
928.00,51.293
929.00,51.315
930.00,51.251
931.00,51.324
932.00,51.206
933.00,51.239
934.00,51.215
935.00,51.179
936.00,51.144
937.00,51.172
938.00,51.160
939.00,51.152
940.00,51.125
941.00,51.138
942.00,51.080
943.00,51.061
944.00,51.021
945.00,51.029
946.00,51.029
947.00,50.953
948.00,50.966
949.00,50.926
950.00,50.955
951.00,50.903
952.00,50.898
953.00,50.845
954.00,50.858
955.00,50.784
956.00,50.810
957.00,50.730
958.00,50.773
959.00,50.700
960.00,50.712
961.00,50.702
962.00,50.691
963.00,50.656
964.00,50.654
965.00,50.672
966.00,50.645
967.00,50.653
968.00,50.612
969.00,50.651
970.00,50.605
971.00,50.625
972.00,50.559
973.00,50.634
974.00,50.630
975.00,50.558
976.00,50.622
977.00,50.601
978.00,50.647
979.00,50.611
980.00,50.611
981.00,50.639
982.00,50.555
983.00,50.618
984.00,50.574
985.00,50.608
986.00,50.556
987.00,50.601
988.00,50.546
989.00,50.563
990.00,50.542
991.00,50.538
992.00,50.549
993.00,50.498
994.00,50.500
995.00,50.476
996.00,50.455
997.00,50.463
998.00,50.440
999.00,50.461
1000.00,50.404
1001.00,50.426
1002.00,50.406
1003.00,50.405
1004.00,50.377
1005.00,50.330
1006.00,50.385
1007.00,50.339
1008.00,50.319
1009.00,50.307
1010.00,50.303
1011.00,50.296
1012.00,50.253
1013.00,50.286
1014.00,50.252
1015.00,50.259
1016.00,50.214
1017.00,50.202
1018.00,50.208
1019.00,50.148
1020.00,50.184
1021.00,50.137
1022.00,50.142
1023.00,50.089
1024.00,50.121
1025.00,50.111
1026.00,50.087
1027.00,50.059
1028.00,50.055
1029.00,50.046
1030.00,50.000
1031.00,50.033
1032.00,49.972
1033.00,49.969
1034.00,49.949
1035.00,49.898
1036.00,49.901
1037.00,49.883
1038.00,49.861
1039.00,49.826
1040.00,49.822
1041.00,49.783
1042.00,49.800
1043.00,49.766
1044.00,49.797
1045.00,49.782
1046.00,49.768
1047.00,49.819
1048.00,49.807
1049.00,49.806
1050.00,49.822
1051.00,49.869
1052.00,49.832
1053.00,49.875
1054.00,49.856
1055.00,49.905
1056.00,49.903
1057.00,49.903
1058.00,49.892
1059.00,49.887
1060.00,49.901
1061.00,49.875
1062.00,49.875
1063.00,49.867
1064.00,49.885
1065.00,49.850
1066.00,49.855
1067.00,49.835
1068.00,49.855
1069.00,49.813
1070.00,49.806
1071.00,49.789
1072.00,49.828
1073.00,49.783
1074.00,49.777
1075.00,49.762
1076.00,49.764
1077.00,49.742
1078.00,49.716
1079.00,49.734
1080.00,49.739
1081.00,49.722
1082.00,49.721
1083.00,49.729
1084.00,49.711
1085.00,49.708
1086.00,49.692
1087.00,49.689
1088.00,49.684
1089.00,49.684
1090.00,49.670
1091.00,49.697
1092.00,49.657
1093.00,49.656
1094.00,49.621
1095.00,49.612
1096.00,49.589
1097.00,49.601
1098.00,49.580
1099.00,49.609
1100.00,49.557
1101.00,49.551
1102.00,49.541
1103.00,49.558
1104.00,49.531
1105.00,49.538
1106.00,49.504
1107.00,49.511
1108.00,49.496
1109.00,49.495
1110.00,49.485
1111.00,49.489
1112.00,49.500
1113.00,49.524
1114.00,49.466
1115.00,49.471
1116.00,49.464
1117.00,49.451
1118.00,49.426
1119.00,49.440
1120.00,49.424
1121.00,49.428
1122.00,49.406
1123.00,49.415
1124.00,49.394
1125.00,49.408
1126.00,49.391
1127.00,49.411
1128.00,49.378
1129.00,49.369
1130.00,49.367
1131.00,49.364
1132.00,49.339
1133.00,49.334
1134.00,49.314
1135.00,49.339
1136.00,49.299
1137.00,49.314
1138.00,49.304
1139.00,49.319
1140.00,49.312
1141.00,49.318
1142.00,49.292
1143.00,49.321
1144.00,49.290
1145.00,49.290
1146.00,49.282
1147.00,49.282
1148.00,49.265
1149.00,49.295
1150.00,49.276
1151.00,49.285
1152.00,49.281
1153.00,49.280
1154.00,49.265
1155.00,49.281
1156.00,49.252
1157.00,49.275
1158.00,49.267
1159.00,49.270
1160.00,49.269
1161.00,49.279
1162.00,49.267
1163.00,49.269
1164.00,49.275
1165.00,49.254
1166.00,49.276
1167.00,49.255
1168.00,49.292
1169.00,49.267
1170.00,49.268
1171.00,49.245
1172.00,49.246
1173.00,49.246
1174.00,49.264
1175.00,49.250
1176.00,49.247
1177.00,49.244
1178.00,49.240
1179.00,49.267
1180.00,49.239
1181.00,49.255
1182.00,49.241
1183.00,49.250
1184.00,49.229
1185.00,49.248
1186.00,49.228
1187.00,49.242
1188.00,49.243
1189.00,49.234
1190.00,49.240
1191.00,49.221
1192.00,49.238
1193.00,49.232
1194.00,49.240
1195.00,49.204
1196.00,49.250
1197.00,49.249
1198.00,49.236
1199.00,49.230
1200.00,49.233
1201.00,49.262
1202.00,49.219
1203.00,49.237
1204.00,49.228
1205.00,49.269
1206.00,49.254
1207.00,49.248
1208.00,49.239
1209.00,49.256
1210.00,49.267
1211.00,49.237
1212.00,49.273
1213.00,49.220
1214.00,49.250
1215.00,49.222
1216.00,49.233
1217.00,49.246
1218.00,49.235
1219.00,49.253
1220.00,49.233
1221.00,49.265
1222.00,49.245
1223.00,49.276
1224.00,49.269
1225.00,49.247
1226.00,49.256
1227.00,49.253
1228.00,49.274
1229.00,49.272
1230.00,49.295
1231.00,49.299
1232.00,49.323
1233.00,49.312
1234.00,49.316
1235.00,49.321
1236.00,49.320
1237.00,49.322
1238.00,49.297
1239.00,49.306
1240.00,49.299
1241.00,49.324
1242.00,49.319
1243.00,49.332
1244.00,49.311
1245.00,49.367
1246.00,49.357
1247.00,49.342
1248.00,49.349
1249.00,49.372
1250.00,49.368
1251.00,49.358
1252.00,49.378
1253.00,49.341
1254.00,49.386
1255.00,49.362
1256.00,49.351
1257.00,49.341
1258.00,49.397
1259.00,49.395
1260.00,49.417
1261.00,49.397
1262.00,49.411
1263.00,49.401
1264.00,49.417
1265.00,49.425
1266.00,49.414
1267.00,49.446
1268.00,49.436
1269.00,49.436
1270.00,49.465
1271.00,49.465
1272.00,49.443
1273.00,49.478
1274.00,49.478
1275.00,49.469
1276.00,49.455
1277.00,49.480
1278.00,49.508
1279.00,49.496
1280.00,49.498
1281.00,49.516
1282.00,49.516
1283.00,49.521
1284.00,49.541
1285.00,49.525
1286.00,49.539
1287.00,49.534
1288.00,49.540
1289.00,49.537
1290.00,49.571
1291.00,49.550
1292.00,49.563
1293.00,49.557
1294.00,49.571
1295.00,49.594
1296.00,49.607
1297.00,49.595
1298.00,49.646
1299.00,49.617
1300.00,49.648
1301.00,49.628
1302.00,49.659
1303.00,49.639
1304.00,49.634
1305.00,49.655
1306.00,49.649
1307.00,49.654
1308.00,49.642
1309.00,49.685
1310.00,49.673
1311.00,49.674
1312.00,49.685
1313.00,49.705
1314.00,49.701
1315.00,49.719
1316.00,49.730
1317.00,49.782
1318.00,49.765
1319.00,49.776
1320.00,49.773
1321.00,49.962
1322.00,49.928
1323.00,49.942
1324.00,49.939
1325.00,49.914
1326.00,49.935
1327.00,49.922
1328.00,49.930
1329.00,49.895
1330.00,49.928
1331.00,49.915
1332.00,49.927
1333.00,49.922
1334.00,49.954
1335.00,49.977
1336.00,50.004
1337.00,50.024
1338.00,50.088
1339.00,50.132
1340.00,50.204
1341.00,50.274
1342.00,50.344
1343.00,50.369
1344.00,50.438
1345.00,50.497
1346.00,50.528
1347.00,50.555
1348.00,50.603
1349.00,50.603
1350.00,50.610
1351.00,50.614
1352.00,50.627
1353.00,50.639
1354.00,50.646
1355.00,50.570
1356.00,50.685
1357.00,50.657
1358.00,50.656
1359.00,50.673
1360.00,50.690
1361.00,50.733
1362.00,50.655
1363.00,50.663
1364.00,50.797
1365.00,50.667
1366.00,50.701
1367.00,50.723
1368.00,50.656
1369.00,50.729
1370.00,50.698
1371.00,50.546
1372.00,50.669
1373.00,50.696
1374.00,50.706
1375.00,50.686
1376.00,50.692
1377.00,50.670
1378.00,50.752
1379.00,50.714
1380.00,50.711
1381.00,50.733
1382.00,50.627
1383.00,50.723
1384.00,50.618
1385.00,50.663
1386.00,50.729
1387.00,50.727
1388.00,50.624
1389.00,50.646
1390.00,50.693
1391.00,50.720
1392.00,50.660
1393.00,50.683
1394.00,50.702
1395.00,50.710
1396.00,50.643
1397.00,50.728
1398.00,50.653
1399.00,50.677
1400.00,50.690
1401.00,50.676
1402.00,50.704
1403.00,50.715
1404.00,50.722
1405.00,50.740
1406.00,50.773
1407.00,50.730
1408.00,50.750
1409.00,50.743
1410.00,50.788
1411.00,50.764
1412.00,50.822
1413.00,50.796
1414.00,50.796
1415.00,50.811
1416.00,50.840
1417.00,50.869
1418.00,50.837
1419.00,50.892
1420.00,50.885
1421.00,50.930
1422.00,50.912
1423.00,50.962
1424.00,50.949
1425.00,50.986
1426.00,50.984
1427.00,51.011
1428.00,50.983
1429.00,51.029
1430.00,51.038
1431.00,51.079
1432.00,51.069
1433.00,51.101
1434.00,51.097
1435.00,51.161
1436.00,51.149
1437.00,51.144
1438.00,51.175
1439.00,51.182
1440.00,51.184
1441.00,51.189
1442.00,51.209
1443.00,51.231
1444.00,51.284
1445.00,51.258
1446.00,51.318
1447.00,51.334
1448.00,51.427
1449.00,51.374
1450.00,51.396
1451.00,51.393
1452.00,51.443
1453.00,51.433
1454.00,51.464
1455.00,51.480
1456.00,51.500
1457.00,51.488
1458.00,51.531
1459.00,51.542
1460.00,51.574
1461.00,51.564
1462.00,51.624
1463.00,51.617
1464.00,51.643
1465.00,51.652
1466.00,51.639
1467.00,51.659
1468.00,51.709
1469.00,51.669
1470.00,51.697
1471.00,51.723
1472.00,51.740
1473.00,51.762
1474.00,51.787
1475.00,51.810
1476.00,51.832
1477.00,51.791
1478.00,51.831
1479.00,51.846
1480.00,51.838
1481.00,51.852
1482.00,51.901
1483.00,51.906
1484.00,51.924
1485.00,51.941
1486.00,51.962
1487.00,51.983
1488.00,52.014
1489.00,51.985
1490.00,52.030
1491.00,52.021
1492.00,52.067
1493.00,52.015
1494.00,52.060
1495.00,52.046
1496.00,52.092
1497.00,52.076
1498.00,52.110
1499.00,52.127
1500.00,52.139
1501.00, 
1502.00, 
1503.00, 
1504.00, 
1505.00, 
1506.00, 
1507.00, 
1508.00, 
1509.00, 
1510.00, 
1511.00, 
1512.00, 
1513.00, 
1514.00, 
1515.00, 
1516.00, 
1517.00, 
1518.00, 
1519.00, 
1520.00, 
1521.00, 
1522.00, 
1523.00, 
1524.00, 
1525.00, 
1526.00, 
1527.00, 
1528.00, 
1529.00, 
1530.00, 
1531.00, 
1532.00, 
1533.00, 
1534.00, 
1535.00, 
1536.00, 
1537.00, 
1538.00, 
1539.00, 
1540.00, 
1541.00, 
1542.00, 
1543.00, 
1544.00, 
1545.00, 
1546.00, 
1547.00, 
1548.00, 
1549.00, 
1550.00, 
1551.00, 
1552.00, 
1553.00, 
1554.00, 
1555.00, 
1556.00, 
1557.00, 
1558.00, 
1559.00, 
1560.00, 
1561.00, 
1562.00, 
1563.00, 
1564.00, 
1565.00, 
1566.00, 
1567.00, 
1568.00, 
1569.00, 
1570.00, 
1571.00, 
1572.00, 
1573.00, 
1574.00, 
1575.00, 
1576.00, 
1577.00, 
1578.00, 
1579.00, 
1580.00, 
1581.00, 
1582.00, 
1583.00, 
1584.00, 
1585.00, 
1586.00, 
1587.00, 
1588.00, 
1589.00, 
1590.00, 
1591.00, 
1592.00, 
1593.00, 
1594.00, 
1595.00, 
1596.00, 
1597.00, 
1598.00, 
1599.00, 
1600.00, 
1601.00, 
1602.00, 
1603.00, 
1604.00, 
1605.00, 
1606.00, 
1607.00, 
1608.00, 
1609.00, 
1610.00, 
1611.00, 
1612.00, 
1613.00, 
1614.00, 
1615.00, 
1616.00, 
1617.00, 
1618.00, 
1619.00, 
1620.00, 
1621.00, 
1622.00, 
1623.00, 
1624.00, 
1625.00, 
1626.00, 
1627.00, 
1628.00, 
1629.00, 
1630.00, 
1631.00, 
1632.00, 
1633.00, 
1634.00, 
1635.00, 
1636.00, 
1637.00, 
1638.00, 
1639.00, 
1640.00, 
1641.00, 
1642.00, 
1643.00, 
1644.00, 
1645.00, 
1646.00, 
1647.00, 
1648.00, 
1649.00, 
1650.00, 
1651.00, 
1652.00, 
1653.00, 
1654.00, 
1655.00, 
1656.00, 
1657.00, 
1658.00, 
1659.00, 
1660.00, 
1661.00, 
1662.00, 
1663.00, 
1664.00, 
1665.00, 
1666.00, 
1667.00, 
1668.00, 
1669.00, 
1670.00, 
1671.00, 
1672.00, 
1673.00, 
1674.00, 
1675.00, 
1676.00, 
1677.00, 
1678.00, 
1679.00, 
1680.00, 
1681.00, 
1682.00, 
1683.00, 
1684.00, 
1685.00, 
1686.00, 
1687.00, 
1688.00, 
1689.00, 
1690.00, 
1691.00, 
1692.00, 
1693.00, 
1694.00, 
1695.00, 
1696.00, 
1697.00, 
1698.00, 
1699.00, 
1700.00, 
1701.00, 
1702.00, 
1703.00, 
1704.00, 
1705.00, 
1706.00, 
1707.00, 
1708.00, 
1709.00, 
1710.00, 
1711.00, 
1712.00, 
1713.00, 
1714.00, 
1715.00, 
1716.00, 
1717.00, 
1718.00, 
1719.00, 
1720.00, 
1721.00, 
1722.00, 
1723.00, 
1724.00, 
1725.00, 
1726.00, 
1727.00, 
1728.00, 
1729.00, 
1730.00, 
1731.00, 
1732.00, 
1733.00, 
1734.00, 
1735.00, 
1736.00, 
1737.00, 
1738.00, 
1739.00, 
1740.00, 
1741.00, 
1742.00, 
1743.00, 
1744.00, 
1745.00, 
1746.00, 
1747.00, 
1748.00, 
1749.00, 
1750.00, 
1751.00, 
1752.00, 
1753.00, 
1754.00, 
1755.00, 
1756.00, 
1757.00, 
1758.00, 
1759.00, 
1760.00, 
1761.00, 
1762.00, 
1763.00, 
1764.00, 
1765.00, 
1766.00, 
1767.00, 
1768.00, 
1769.00, 
1770.00, 
1771.00, 
1772.00, 
1773.00, 
1774.00, 
1775.00, 
1776.00, 
1777.00, 
1778.00, 
1779.00, 
1780.00, 
1781.00, 
1782.00, 
1783.00, 
1784.00, 
1785.00, 
1786.00, 
1787.00, 
1788.00, 
1789.00, 
1790.00, 
1791.00, 
1792.00, 
1793.00, 
1794.00, 
1795.00, 
1796.00, 
1797.00, 
1798.00, 
1799.00, 
1800.00, 
1801.00, 
1802.00, 
1803.00, 
1804.00, 
1805.00, 
1806.00, 
1807.00, 
1808.00, 
1809.00, 
1810.00, 
1811.00, 
1812.00, 
1813.00, 
1814.00, 
1815.00, 
1816.00, 
1817.00, 
1818.00, 
1819.00, 
1820.00, 
1821.00, 
1822.00, 
1823.00, 
1824.00, 
1825.00, 
1826.00, 
1827.00, 
1828.00, 
1829.00, 
1830.00, 
1831.00, 
1832.00, 
1833.00, 
1834.00, 
1835.00, 
1836.00, 
1837.00, 
1838.00, 
1839.00, 
1840.00, 
1841.00, 
1842.00, 
1843.00, 
1844.00, 
1845.00, 
1846.00, 
1847.00, 
1848.00, 
1849.00, 
1850.00, 
1851.00, 
1852.00, 
1853.00, 
1854.00, 
1855.00, 
1856.00, 
1857.00, 
1858.00, 
1859.00, 
1860.00, 
1861.00, 
1862.00, 
1863.00, 
1864.00, 
1865.00, 
1866.00, 
1867.00, 
1868.00, 
1869.00, 
1870.00, 
1871.00, 
1872.00, 
1873.00, 
1874.00, 
1875.00, 
1876.00, 
1877.00, 
1878.00, 
1879.00, 
1880.00, 
1881.00, 
1882.00, 
1883.00, 
1884.00, 
1885.00, 
1886.00, 
1887.00, 
1888.00, 
1889.00, 
1890.00, 
1891.00, 
1892.00, 
1893.00, 
1894.00, 
1895.00, 
1896.00, 
1897.00, 
1898.00, 
1899.00, 
1900.00, 
1901.00, 
1902.00, 
1903.00, 
1904.00, 
1905.00, 
1906.00, 
1907.00, 
1908.00, 
1909.00, 
1910.00, 
1911.00, 
1912.00, 
1913.00, 
1914.00, 
1915.00, 
1916.00, 
1917.00, 
1918.00, 
1919.00, 
1920.00, 
1921.00, 
1922.00, 
1923.00, 
1924.00, 
1925.00, 
1926.00, 
1927.00, 
1928.00, 
1929.00, 
1930.00, 
1931.00, 
1932.00, 
1933.00, 
1934.00, 
1935.00, 
1936.00, 
1937.00, 
1938.00, 
1939.00, 
1940.00, 
1941.00, 
1942.00, 
1943.00, 
1944.00, 
1945.00, 
1946.00, 
1947.00, 
1948.00, 
1949.00, 
1950.00, 
1951.00, 
1952.00, 
1953.00, 
1954.00, 
1955.00, 
1956.00, 
1957.00, 
1958.00, 
1959.00, 
1960.00, 
1961.00, 
1962.00, 
1963.00, 
1964.00, 
1965.00, 
1966.00, 
1967.00, 
1968.00, 
1969.00, 
1970.00, 
1971.00, 
1972.00, 
1973.00, 
1974.00, 
1975.00, 
1976.00, 
1977.00, 
1978.00, 
1979.00, 
1980.00, 
1981.00, 
1982.00, 
1983.00, 
1984.00, 
1985.00, 
1986.00, 
1987.00, 
1988.00, 
1989.00, 
1990.00, 
1991.00, 
1992.00, 
1993.00, 
1994.00, 
1995.00, 
1996.00, 
1997.00, 
1998.00, 
1999.00, 
2000.00, 
2001.00, 
2002.00, 
2003.00, 
2004.00, 
2005.00, 
2006.00, 
2007.00, 
2008.00, 
2009.00, 
2010.00, 
2011.00, 
2012.00, 
2013.00, 
2014.00, 
2015.00, 
2016.00, 
2017.00, 
2018.00, 
2019.00, 
2020.00, 
2021.00, 
2022.00, 
2023.00, 
2024.00, 
2025.00, 
2026.00, 
2027.00, 
2028.00, 
2029.00, 
2030.00, 
2031.00, 
2032.00, 
2033.00, 
2034.00, 
2035.00, 
2036.00, 
2037.00, 
2038.00, 
2039.00, 
2040.00, 
2041.00, 
2042.00, 
2043.00, 
2044.00, 
2045.00, 
2046.00, 
2047.00, 
2048.00, 
2049.00, 
2050.00, 
2051.00, 
2052.00, 
2053.00, 
2054.00, 
2055.00, 
2056.00, 
2057.00, 
2058.00, 
2059.00, 
2060.00, 
2061.00, 
2062.00, 
2063.00, 
2064.00, 
2065.00, 
2066.00, 
2067.00, 
2068.00, 
2069.00, 
2070.00, 
2071.00, 
2072.00, 
2073.00, 
2074.00, 
2075.00, 
2076.00, 
2077.00, 
2078.00, 
2079.00, 
2080.00, 
2081.00, 
2082.00, 
2083.00, 
2084.00, 
2085.00, 
2086.00, 
2087.00, 
2088.00, 
2089.00, 
2090.00, 
2091.00, 
2092.00, 
2093.00, 
2094.00, 
2095.00, 
2096.00, 
2097.00, 
2098.00, 
2099.00, 
2100.00, 
2101.00, 
2102.00, 
2103.00, 
2104.00, 
2105.00, 
2106.00, 
2107.00, 
2108.00, 
2109.00, 
2110.00, 
2111.00, 
2112.00, 
2113.00, 
2114.00, 
2115.00, 
2116.00, 
2117.00, 
2118.00, 
2119.00, 
2120.00, 
2121.00, 
2122.00, 
2123.00, 
2124.00, 
2125.00, 
2126.00, 
2127.00, 
2128.00, 
2129.00, 
2130.00, 
2131.00, 
2132.00, 
2133.00, 
2134.00, 
2135.00, 
2136.00, 
2137.00, 
2138.00, 
2139.00, 
2140.00, 
2141.00, 
2142.00, 
2143.00, 
2144.00, 
2145.00, 
2146.00, 
2147.00, 
2148.00, 
2149.00, 
2150.00, 
2151.00, 
2152.00, 
2153.00, 
2154.00, 
2155.00, 
2156.00, 
2157.00, 
2158.00, 
2159.00, 
2160.00, 
2161.00, 
2162.00, 
2163.00, 
2164.00, 
2165.00, 
2166.00, 
2167.00, 
2168.00, 
2169.00, 
2170.00, 
2171.00, 
2172.00, 
2173.00, 
2174.00, 
2175.00, 
2176.00, 
2177.00, 
2178.00, 
2179.00, 
2180.00, 
2181.00, 
2182.00, 
2183.00, 
2184.00, 
2185.00, 
2186.00, 
2187.00, 
2188.00, 
2189.00, 
2190.00, 
2191.00, 
2192.00, 
2193.00, 
2194.00, 
2195.00, 
2196.00, 
2197.00, 
2198.00, 
2199.00, 
2200.00, 
2201.00, 
2202.00, 
2203.00, 
2204.00, 
2205.00, 
2206.00, 
2207.00, 
2208.00, 
2209.00, 
2210.00, 
2211.00, 
2212.00, 
2213.00, 
2214.00, 
2215.00, 
2216.00, 
2217.00, 
2218.00, 
2219.00, 
2220.00, 
2221.00, 
2222.00, 
2223.00, 
2224.00, 
2225.00, 
2226.00, 
2227.00, 
2228.00, 
2229.00, 
2230.00, 
2231.00, 
2232.00, 
2233.00, 
2234.00, 
2235.00, 
2236.00, 
2237.00, 
2238.00, 
2239.00, 
2240.00, 
2241.00, 
2242.00, 
2243.00, 
2244.00, 
2245.00, 
2246.00, 
2247.00, 
2248.00, 
2249.00, 
2250.00, 
2251.00, 
2252.00, 
2253.00, 
2254.00, 
2255.00, 
2256.00, 
2257.00, 
2258.00, 
2259.00, 
2260.00, 
2261.00, 
2262.00, 
2263.00, 
2264.00, 
2265.00, 
2266.00, 
2267.00, 
2268.00, 
2269.00, 
2270.00, 
2271.00, 
2272.00, 
2273.00, 
2274.00, 
2275.00, 
2276.00, 
2277.00, 
2278.00, 
2279.00, 
2280.00, 
2281.00, 
2282.00, 
2283.00, 
2284.00, 
2285.00, 
2286.00, 
2287.00, 
2288.00, 
2289.00, 
2290.00, 
2291.00, 
2292.00, 
2293.00, 
2294.00, 
2295.00, 
2296.00, 
2297.00, 
2298.00, 
2299.00, 
2300.00, 
2301.00, 
2302.00, 
2303.00, 
2304.00, 
2305.00, 
2306.00, 
2307.00, 
2308.00, 
2309.00, 
2310.00, 
2311.00, 
2312.00, 
2313.00, 
2314.00, 
2315.00, 
2316.00, 
2317.00, 
2318.00, 
2319.00, 
2320.00, 
2321.00, 
2322.00, 
2323.00, 
2324.00, 
2325.00, 
2326.00, 
2327.00, 
2328.00, 
2329.00, 
2330.00, 
2331.00, 
2332.00, 
2333.00, 
2334.00, 
2335.00, 
2336.00, 
2337.00, 
2338.00, 
2339.00, 
2340.00, 
2341.00, 
2342.00, 
2343.00, 
2344.00, 
2345.00, 
2346.00, 
2347.00, 
2348.00, 
2349.00, 
2350.00, 
2351.00, 
2352.00, 
2353.00, 
2354.00, 
2355.00, 
2356.00, 
2357.00, 
2358.00, 
2359.00, 
2360.00, 
2361.00, 
2362.00, 
2363.00, 
2364.00, 
2365.00, 
2366.00, 
2367.00, 
2368.00, 
2369.00, 
2370.00, 
2371.00, 
2372.00, 
2373.00, 
2374.00, 
2375.00, 
2376.00, 
2377.00, 
2378.00, 
2379.00, 
2380.00, 
2381.00, 
2382.00, 
2383.00, 
2384.00, 
2385.00, 
2386.00, 
2387.00, 
2388.00, 
2389.00, 
2390.00, 
2391.00, 
2392.00, 
2393.00, 
2394.00, 
2395.00, 
2396.00, 
2397.00, 
2398.00, 
2399.00, 
2400.00, 
2401.00, 
2402.00, 
2403.00, 
2404.00, 
2405.00, 
2406.00, 
2407.00, 
2408.00, 
2409.00, 
2410.00, 
2411.00, 
2412.00, 
2413.00, 
2414.00, 
2415.00, 
2416.00, 
2417.00, 
2418.00, 
2419.00, 
2420.00, 
2421.00, 
2422.00, 
2423.00, 
2424.00, 
2425.00, 
2426.00, 
2427.00, 
2428.00, 
2429.00, 
2430.00, 
2431.00, 
2432.00, 
2433.00, 
2434.00, 
2435.00, 
2436.00, 
2437.00, 
2438.00, 
2439.00, 
2440.00, 
2441.00, 
2442.00, 
2443.00, 
2444.00, 
2445.00, 
2446.00, 
2447.00, 
2448.00, 
2449.00, 
2450.00, 
2451.00, 
2452.00, 
2453.00, 
2454.00, 
2455.00, 
2456.00, 
2457.00, 
2458.00, 
2459.00, 
2460.00, 
2461.00, 
2462.00, 
2463.00, 
2464.00, 
2465.00, 
2466.00, 
2467.00, 
2468.00, 
2469.00, 
2470.00, 
2471.00, 
2472.00, 
2473.00, 
2474.00, 
2475.00, 
2476.00, 
2477.00, 
2478.00, 
2479.00, 
2480.00, 
2481.00, 
2482.00, 
2483.00, 
2484.00, 
2485.00, 
2486.00, 
2487.00, 
2488.00, 
2489.00, 
2490.00, 
2491.00, 
2492.00, 
2493.00, 
2494.00, 
2495.00, 
2496.00, 
2497.00, 
2498.00, 
2499.00, 
2500.00, 
2501.00, 
2502.00, 
2503.00, 
2504.00, 
2505.00, 
2506.00, 
2507.00, 
2508.00, 
2509.00, 
2510.00, 
2511.00, 
2512.00, 
2513.00, 
2514.00, 
2515.00, 
2516.00, 
2517.00, 
2518.00, 
2519.00, 
2520.00, 
2521.00, 
2522.00, 
2523.00, 
2524.00, 
2525.00, 
2526.00, 
2527.00, 
2528.00, 
2529.00, 
2530.00, 
2531.00, 
2532.00, 
2533.00, 
2534.00, 
2535.00, 
2536.00, 
2537.00, 
2538.00, 
2539.00, 
2540.00, 
2541.00, 
2542.00, 
2543.00, 
2544.00, 
2545.00, 
2546.00, 
2547.00, 
2548.00, 
2549.00, 
2550.00, 
2551.00, 
2552.00, 
2553.00, 
2554.00, 
2555.00, 
2556.00, 
2557.00, 
2558.00, 
2559.00, 
2560.00, 
2561.00, 
2562.00, 
2563.00, 
2564.00, 
2565.00, 
2566.00, 
2567.00, 
2568.00, 
2569.00, 
2570.00, 
2571.00, 
2572.00, 
2573.00, 
2574.00, 
2575.00, 
2576.00, 
2577.00, 
2578.00, 
2579.00, 
2580.00, 
2581.00, 
2582.00, 
2583.00, 
2584.00, 
2585.00, 
2586.00, 
2587.00, 
2588.00, 
2589.00, 
2590.00, 
2591.00, 
2592.00, 
2593.00, 
2594.00, 
2595.00, 
2596.00, 
2597.00, 
2598.00, 
2599.00, 
2600.00, 
