"2bP2 - RawData"
"Wavelength nm.","T%"
200.00,-0.001
201.00,0.003
202.00,0.002
203.00,0.004
204.00,0.000
205.00,-0.001
206.00,0.002
207.00,0.002
208.00,0.001
209.00,0.002
210.00,-0.001
211.00,0.001
212.00,-0.000
213.00,0.002
214.00,0.000
215.00,0.000
216.00,-0.000
217.00,0.001
218.00,0.004
219.00,-0.000
220.00,0.000
221.00,0.000
222.00,-0.000
223.00,0.000
224.00,0.001
225.00,0.000
226.00,-0.000
227.00,0.000
228.00,-0.003
229.00,0.002
230.00,0.000
231.00,0.001
232.00,0.001
233.00,0.001
234.00,0.001
235.00,-0.001
236.00,-0.000
237.00,0.000
238.00,0.000
239.00,-0.002
240.00,-0.000
241.00,-0.000
242.00,-0.000
243.00,0.001
244.00,-0.001
245.00,0.001
246.00,-0.001
247.00,0.000
248.00,-0.000
249.00,0.003
250.00,-0.001
251.00,-0.001
252.00,0.001
253.00,-0.002
254.00,-0.000
255.00,0.000
256.00,0.000
257.00,-0.002
258.00,-0.000
259.00,-0.002
260.00,-0.000
261.00,0.001
262.00,0.003
263.00,-0.001
264.00,-0.000
265.00,0.001
266.00,0.001
267.00,-0.000
268.00,0.001
269.00,0.000
270.00,0.002
271.00,-0.000
272.00,-0.000
273.00,0.001
274.00,-0.000
275.00,0.000
276.00,0.000
277.00,0.000
278.00,-0.000
279.00,-0.000
280.00,0.001
281.00,0.001
282.00,0.000
283.00,0.001
284.00,-0.001
285.00,0.000
286.00,0.001
287.00,-0.000
288.00,0.001
289.00,0.000
290.00,-0.000
291.00,-0.001
292.00,-0.001
293.00,-0.001
294.00,-0.001
295.00,0.000
296.00,0.001
297.00,0.000
298.00,0.002
299.00,0.001
300.00,0.003
301.00,0.002
302.00,0.005
303.00,0.006
304.00,0.010
305.00,0.018
306.00,0.029
307.00,0.043
308.00,0.065
309.00,0.098
310.00,0.136
311.00,0.176
312.00,0.246
313.00,0.331
314.00,0.437
315.00,0.559
316.00,0.710
317.00,0.889
318.00,1.081
319.00,1.326
320.00,1.600
321.00,1.902
322.00,2.246
323.00,2.614
324.00,3.026
325.00,3.423
326.00,3.848
327.00,4.318
328.00,4.830
329.00,5.313
330.00,5.819
331.00,6.328
332.00,6.878
333.00,7.471
334.00,7.946
335.00,8.480
336.00,9.022
337.00,9.521
338.00,10.078
339.00,10.539
340.00,11.037
341.00,11.502
342.00,11.955
343.00,12.427
344.00,12.796
345.00,13.231
346.00,13.557
347.00,13.914
348.00,14.223
349.00,14.536
350.00,14.801
351.00,15.049
352.00,15.293
353.00,15.549
354.00,15.720
355.00,15.950
356.00,16.157
357.00,16.307
358.00,16.485
359.00,16.606
360.00,16.750
361.00,16.830
362.00,16.897
363.00,17.058
364.00,17.127
365.00,17.200
366.00,17.256
367.00,17.273
368.00,17.270
369.00,17.342
370.00,17.347
371.00,17.369
372.00,17.357
373.00,17.337
374.00,17.303
375.00,17.284
376.00,17.240
377.00,17.154
378.00,17.122
379.00,17.031
380.00,17.038
381.00,16.986
382.00,16.981
383.00,16.961
384.00,16.947
385.00,16.961
386.00,16.934
387.00,16.957
388.00,16.973
389.00,16.964
390.00,16.987
391.00,16.967
392.00,16.989
393.00,16.951
394.00,16.988
395.00,16.943
396.00,16.908
397.00,16.932
398.00,16.904
399.00,16.917
400.00,16.890
401.00,16.907
402.00,16.888
403.00,16.855
404.00,16.846
405.00,16.850
406.00,16.822
407.00,16.780
408.00,16.778
409.00,16.730
410.00,16.701
411.00,16.675
412.00,16.642
413.00,16.677
414.00,16.676
415.00,16.688
416.00,16.733
417.00,16.760
418.00,16.734
419.00,16.769
420.00,16.804
421.00,16.861
422.00,16.864
423.00,16.898
424.00,16.917
425.00,16.940
426.00,16.975
427.00,17.010
428.00,17.067
429.00,17.079
430.00,17.138
431.00,17.185
432.00,17.225
433.00,17.308
434.00,17.344
435.00,17.401
436.00,17.468
437.00,17.514
438.00,17.573
439.00,17.648
440.00,17.701
441.00,17.777
442.00,17.885
443.00,17.951
444.00,18.065
445.00,18.086
446.00,18.222
447.00,18.299
448.00,18.416
449.00,18.511
450.00,18.597
451.00,18.718
452.00,18.794
453.00,18.921
454.00,19.016
455.00,19.139
456.00,19.235
457.00,19.358
458.00,19.489
459.00,19.563
460.00,19.702
461.00,19.770
462.00,19.963
463.00,20.100
464.00,20.218
465.00,20.357
466.00,20.474
467.00,20.623
468.00,20.733
469.00,20.877
470.00,20.962
471.00,21.073
472.00,21.212
473.00,21.297
474.00,21.406
475.00,21.555
476.00,21.676
477.00,21.791
478.00,21.922
479.00,22.100
480.00,22.230
481.00,22.371
482.00,22.536
483.00,22.665
484.00,22.808
485.00,23.011
486.00,23.129
487.00,23.307
488.00,23.466
489.00,23.644
490.00,23.817
491.00,23.952
492.00,24.163
493.00,24.295
494.00,24.403
495.00,24.471
496.00,24.607
497.00,24.750
498.00,24.903
499.00,25.075
500.00,25.192
501.00,25.327
502.00,25.456
503.00,25.584
504.00,25.690
505.00,25.849
506.00,25.970
507.00,26.086
508.00,26.232
509.00,26.375
510.00,26.500
511.00,26.667
512.00,26.745
513.00,26.885
514.00,27.099
515.00,27.137
516.00,27.248
517.00,27.392
518.00,27.518
519.00,27.680
520.00,27.781
521.00,27.849
522.00,27.984
523.00,28.053
524.00,28.163
525.00,28.252
526.00,28.408
527.00,28.499
528.00,28.587
529.00,28.738
530.00,28.859
531.00,29.001
532.00,29.082
533.00,29.164
534.00,29.311
535.00,29.350
536.00,29.467
537.00,29.541
538.00,29.648
539.00,29.723
540.00,29.731
541.00,29.839
542.00,29.933
543.00,30.013
544.00,30.150
545.00,30.168
546.00,30.149
547.00,30.306
548.00,30.374
549.00,30.490
550.00,30.596
551.00,30.670
552.00,30.737
553.00,30.851
554.00,30.946
555.00,30.982
556.00,31.014
557.00,31.101
558.00,31.186
559.00,31.293
560.00,31.307
561.00,31.432
562.00,31.458
563.00,31.510
564.00,31.566
565.00,31.582
566.00,31.608
567.00,31.641
568.00,31.701
569.00,31.743
570.00,31.802
571.00,31.904
572.00,31.915
573.00,31.925
574.00,32.012
575.00,32.045
576.00,32.003
577.00,32.118
578.00,32.162
579.00,32.212
580.00,32.298
581.00,32.423
582.00,32.516
583.00,32.567
584.00,32.650
585.00,32.740
586.00,32.691
587.00,32.804
588.00,32.871
589.00,32.871
590.00,32.884
591.00,32.915
592.00,32.862
593.00,33.056
594.00,33.130
595.00,33.162
596.00,33.226
597.00,33.299
598.00,33.409
599.00,33.419
600.00,33.501
601.00,33.594
602.00,33.598
603.00,33.656
604.00,33.697
605.00,33.729
606.00,33.848
607.00,33.880
608.00,34.004
609.00,33.998
610.00,33.972
611.00,34.060
612.00,34.099
613.00,34.143
614.00,34.166
615.00,34.260
616.00,34.389
617.00,34.465
618.00,34.511
619.00,34.603
620.00,34.627
621.00,34.625
622.00,34.706
623.00,34.813
624.00,34.913
625.00,34.988
626.00,35.017
627.00,35.113
628.00,35.152
629.00,35.207
630.00,35.248
631.00,35.367
632.00,35.447
633.00,35.543
634.00,35.674
635.00,35.706
636.00,35.860
637.00,35.930
638.00,35.980
639.00,36.136
640.00,36.139
641.00,36.245
642.00,36.306
643.00,36.404
644.00,36.543
645.00,36.628
646.00,36.698
647.00,36.782
648.00,36.841
649.00,36.934
650.00,37.085
651.00,37.208
652.00,37.287
653.00,37.423
654.00,37.545
655.00,37.640
656.00,37.824
657.00,37.920
658.00,38.010
659.00,38.207
660.00,38.048
661.00,38.344
662.00,38.423
663.00,38.545
664.00,38.714
665.00,38.799
666.00,38.841
667.00,39.103
668.00,39.142
669.00,39.277
670.00,39.493
671.00,39.501
672.00,39.577
673.00,39.850
674.00,39.915
675.00,40.029
676.00,40.180
677.00,40.185
678.00,40.039
679.00,40.525
680.00,40.579
681.00,40.689
682.00,40.744
683.00,40.902
684.00,41.113
685.00,41.210
686.00,41.047
687.00,41.331
688.00,41.507
689.00,41.558
690.00,41.730
691.00,42.010
692.00,41.870
693.00,41.949
694.00,42.101
695.00,42.209
696.00,42.394
697.00,42.454
698.00,42.683
699.00,42.822
700.00,42.910
701.00,43.030
702.00,43.158
703.00,43.314
704.00,43.327
705.00,43.369
706.00,43.646
707.00,43.685
708.00,43.651
709.00,44.099
710.00,44.078
711.00,44.078
712.00,44.105
713.00,44.376
714.00,44.279
715.00,44.580
716.00,44.432
717.00,44.634
718.00,44.737
719.00,44.840
720.00,45.017
721.00,49.135
722.00,49.167
723.00,49.287
724.00,49.299
725.00,49.338
726.00,49.438
727.00,49.458
728.00,49.522
729.00,49.601
730.00,49.694
731.00,49.801
732.00,49.790
733.00,49.872
734.00,49.911
735.00,50.016
736.00,50.054
737.00,50.132
738.00,50.254
739.00,50.283
740.00,50.322
741.00,50.427
742.00,50.431
743.00,50.449
744.00,50.424
745.00,50.439
746.00,50.569
747.00,50.615
748.00,50.479
749.00,50.626
750.00,50.699
751.00,50.719
752.00,50.693
753.00,50.776
754.00,50.853
755.00,50.846
756.00,50.906
757.00,50.922
758.00,51.014
759.00,50.989
760.00,50.998
761.00,51.028
762.00,51.037
763.00,51.153
764.00,51.172
765.00,51.164
766.00,51.228
767.00,51.222
768.00,51.308
769.00,51.375
770.00,51.431
771.00,51.333
772.00,51.333
773.00,51.372
774.00,51.484
775.00,51.490
776.00,51.486
777.00,51.532
778.00,51.512
779.00,51.539
780.00,51.590
781.00,51.579
782.00,51.615
783.00,51.586
784.00,51.683
785.00,51.663
786.00,51.698
787.00,51.792
788.00,51.675
789.00,51.738
790.00,51.659
791.00,51.768
792.00,51.749
793.00,51.749
794.00,51.701
795.00,51.737
796.00,51.866
797.00,51.730
798.00,51.767
799.00,51.751
800.00,51.699
801.00,51.769
802.00,51.778
803.00,51.831
804.00,51.730
805.00,51.689
806.00,51.704
807.00,51.738
808.00,51.758
809.00,51.762
810.00,51.705
811.00,51.762
812.00,51.742
813.00,51.745
814.00,51.737
815.00,51.748
816.00,51.739
817.00,51.690
818.00,51.710
819.00,51.741
820.00,51.676
821.00,51.733
822.00,51.680
823.00,51.619
824.00,51.719
825.00,51.610
826.00,51.649
827.00,51.742
828.00,51.664
829.00,51.633
830.00,51.685
831.00,54.097
832.00,54.100
833.00,54.070
834.00,54.089
835.00,54.096
836.00,54.109
837.00,54.106
838.00,54.037
839.00,54.058
840.00,54.004
841.00,54.017
842.00,54.013
843.00,54.014
844.00,54.002
845.00,53.878
846.00,53.954
847.00,53.956
848.00,53.894
849.00,53.904
850.00,53.883
851.00,53.812
852.00,53.867
853.00,53.752
854.00,53.750
855.00,53.745
856.00,53.756
857.00,53.719
858.00,53.664
859.00,53.679
860.00,53.693
861.00,53.694
862.00,53.610
863.00,53.666
864.00,53.615
865.00,53.625
866.00,53.594
867.00,53.559
868.00,53.613
869.00,53.543
870.00,53.612
871.00,53.575
872.00,53.605
873.00,53.492
874.00,53.758
875.00,53.531
876.00,53.587
877.00,53.529
878.00,53.562
879.00,53.534
880.00,53.513
881.00,53.497
882.00,53.522
883.00,53.467
884.00,53.462
885.00,53.435
886.00,53.460
887.00,53.445
888.00,53.430
889.00,53.419
890.00,53.413
891.00,53.374
892.00,53.359
893.00,53.345
894.00,53.331
895.00,53.288
896.00,53.240
897.00,53.242
898.00,53.243
899.00,53.243
900.00,53.210
901.00,53.215
902.00,53.199
903.00,53.189
904.00,53.177
905.00,53.176
906.00,53.157
907.00,53.130
908.00,53.093
909.00,53.118
910.00,53.045
911.00,53.070
912.00,53.071
913.00,53.006
914.00,53.019
915.00,52.977
916.00,52.965
917.00,52.957
918.00,52.931
919.00,52.917
920.00,52.894
921.00,52.856
922.00,52.858
923.00,52.857
924.00,52.797
925.00,52.825
926.00,52.802
927.00,52.790
928.00,52.842
929.00,52.768
930.00,52.723
931.00,52.753
932.00,52.669
933.00,52.718
934.00,52.791
935.00,52.650
936.00,52.605
937.00,52.625
938.00,52.608
939.00,52.600
940.00,52.561
941.00,52.589
942.00,52.527
943.00,52.509
944.00,52.509
945.00,52.525
946.00,52.477
947.00,52.369
948.00,52.493
949.00,52.403
950.00,52.426
951.00,52.381
952.00,52.354
953.00,52.301
954.00,52.316
955.00,52.254
956.00,52.283
957.00,52.208
958.00,52.243
959.00,52.183
960.00,52.193
961.00,52.170
962.00,52.168
963.00,52.131
964.00,52.121
965.00,52.131
966.00,52.107
967.00,52.125
968.00,52.078
969.00,52.130
970.00,52.082
971.00,52.104
972.00,52.047
973.00,52.109
974.00,52.147
975.00,52.090
976.00,52.123
977.00,52.089
978.00,52.139
979.00,52.087
980.00,52.089
981.00,52.123
982.00,52.048
983.00,52.095
984.00,52.051
985.00,52.099
986.00,52.043
987.00,52.069
988.00,52.031
989.00,52.045
990.00,52.031
991.00,52.004
992.00,52.039
993.00,51.987
994.00,51.978
995.00,51.989
996.00,51.972
997.00,51.978
998.00,51.946
999.00,51.970
1000.00,51.894
1001.00,51.915
1002.00,51.894
1003.00,51.882
1004.00,51.863
1005.00,51.828
1006.00,51.891
1007.00,51.847
1008.00,51.835
1009.00,51.829
1010.00,51.813
1011.00,51.810
1012.00,51.758
1013.00,51.786
1014.00,51.741
1015.00,51.753
1016.00,51.722
1017.00,51.697
1018.00,51.711
1019.00,51.645
1020.00,51.670
1021.00,51.634
1022.00,51.641
1023.00,51.599
1024.00,51.591
1025.00,51.579
1026.00,51.575
1027.00,51.549
1028.00,51.535
1029.00,51.532
1030.00,51.508
1031.00,51.525
1032.00,51.475
1033.00,51.470
1034.00,51.424
1035.00,51.391
1036.00,51.387
1037.00,51.360
1038.00,51.345
1039.00,51.304
1040.00,51.316
1041.00,51.278
1042.00,51.272
1043.00,51.234
1044.00,51.291
1045.00,51.266
1046.00,51.255
1047.00,51.295
1048.00,51.285
1049.00,51.305
1050.00,51.292
1051.00,51.348
1052.00,51.322
1053.00,51.350
1054.00,51.346
1055.00,51.360
1056.00,51.355
1057.00,51.362
1058.00,51.339
1059.00,51.328
1060.00,51.350
1061.00,51.328
1062.00,51.316
1063.00,51.321
1064.00,51.341
1065.00,51.319
1066.00,51.324
1067.00,51.306
1068.00,51.328
1069.00,51.286
1070.00,51.264
1071.00,51.259
1072.00,51.294
1073.00,51.229
1074.00,51.246
1075.00,51.226
1076.00,51.218
1077.00,51.214
1078.00,51.198
1079.00,51.201
1080.00,51.197
1081.00,51.191
1082.00,51.180
1083.00,51.178
1084.00,51.171
1085.00,51.154
1086.00,51.146
1087.00,51.159
1088.00,51.121
1089.00,51.112
1090.00,51.087
1091.00,51.105
1092.00,51.082
1093.00,51.082
1094.00,51.058
1095.00,51.051
1096.00,51.033
1097.00,51.032
1098.00,51.019
1099.00,51.022
1100.00,50.985
1101.00,50.988
1102.00,50.979
1103.00,50.992
1104.00,50.962
1105.00,50.950
1106.00,50.934
1107.00,50.952
1108.00,50.934
1109.00,50.942
1110.00,50.927
1111.00,50.926
1112.00,50.906
1113.00,50.900
1114.00,50.879
1115.00,50.893
1116.00,50.861
1117.00,50.849
1118.00,50.855
1119.00,50.854
1120.00,50.843
1121.00,50.857
1122.00,50.842
1123.00,50.843
1124.00,50.824
1125.00,50.827
1126.00,50.809
1127.00,50.821
1128.00,50.792
1129.00,50.779
1130.00,50.758
1131.00,50.757
1132.00,50.736
1133.00,50.748
1134.00,50.734
1135.00,50.748
1136.00,50.729
1137.00,50.748
1138.00,50.749
1139.00,50.756
1140.00,50.746
1141.00,50.732
1142.00,50.718
1143.00,50.742
1144.00,50.699
1145.00,50.695
1146.00,50.681
1147.00,50.696
1148.00,50.671
1149.00,50.682
1150.00,50.671
1151.00,50.668
1152.00,50.647
1153.00,50.655
1154.00,50.656
1155.00,50.657
1156.00,50.616
1157.00,50.643
1158.00,50.628
1159.00,50.643
1160.00,50.633
1161.00,50.644
1162.00,50.634
1163.00,50.638
1164.00,50.635
1165.00,50.616
1166.00,50.626
1167.00,50.595
1168.00,50.618
1169.00,50.606
1170.00,50.606
1171.00,50.578
1172.00,50.587
1173.00,50.596
1174.00,50.609
1175.00,50.603
1176.00,50.600
1177.00,50.577
1178.00,50.571
1179.00,50.603
1180.00,50.571
1181.00,50.600
1182.00,50.583
1183.00,50.579
1184.00,50.564
1185.00,50.580
1186.00,50.557
1187.00,50.576
1188.00,50.565
1189.00,50.560
1190.00,50.564
1191.00,50.558
1192.00,50.569
1193.00,50.543
1194.00,50.547
1195.00,50.517
1196.00,50.558
1197.00,50.554
1198.00,50.551
1199.00,50.543
1200.00,50.540
1201.00,50.572
1202.00,50.539
1203.00,50.547
1204.00,50.526
1205.00,50.555
1206.00,50.547
1207.00,50.539
1208.00,50.537
1209.00,50.550
1210.00,50.546
1211.00,50.529
1212.00,50.564
1213.00,50.516
1214.00,50.554
1215.00,50.532
1216.00,50.531
1217.00,50.548
1218.00,50.523
1219.00,50.550
1220.00,50.532
1221.00,50.568
1222.00,50.534
1223.00,50.532
1224.00,50.542
1225.00,50.522
1226.00,50.536
1227.00,50.515
1228.00,50.525
1229.00,50.527
1230.00,50.567
1231.00,50.571
1232.00,50.569
1233.00,50.578
1234.00,50.584
1235.00,50.576
1236.00,50.576
1237.00,50.568
1238.00,50.555
1239.00,50.583
1240.00,50.565
1241.00,50.569
1242.00,50.553
1243.00,50.575
1244.00,50.551
1245.00,50.588
1246.00,50.590
1247.00,50.582
1248.00,50.581
1249.00,50.581
1250.00,50.596
1251.00,50.583
1252.00,50.587
1253.00,50.592
1254.00,50.647
1255.00,50.568
1256.00,50.585
1257.00,50.568
1258.00,50.615
1259.00,50.605
1260.00,50.634
1261.00,50.622
1262.00,50.619
1263.00,50.627
1264.00,50.635
1265.00,50.629
1266.00,50.621
1267.00,50.646
1268.00,50.653
1269.00,50.658
1270.00,50.675
1271.00,50.668
1272.00,50.666
1273.00,50.683
1274.00,50.693
1275.00,50.678
1276.00,50.651
1277.00,50.675
1278.00,50.694
1279.00,50.690
1280.00,50.691
1281.00,50.702
1282.00,50.707
1283.00,50.697
1284.00,50.713
1285.00,50.701
1286.00,50.716
1287.00,50.696
1288.00,50.708
1289.00,50.710
1290.00,50.730
1291.00,50.726
1292.00,50.739
1293.00,50.742
1294.00,50.760
1295.00,50.755
1296.00,50.749
1297.00,50.749
1298.00,50.778
1299.00,50.741
1300.00,50.771
1301.00,50.749
1302.00,50.770
1303.00,50.783
1304.00,50.757
1305.00,50.788
1306.00,50.786
1307.00,50.791
1308.00,50.802
1309.00,50.811
1310.00,50.810
1311.00,50.818
1312.00,50.811
1313.00,50.817
1314.00,50.814
1315.00,50.828
1316.00,50.839
1317.00,50.864
1318.00,50.848
1319.00,50.870
1320.00,50.870
1321.00,51.039
1322.00,51.028
1323.00,51.010
1324.00,51.018
1325.00,51.000
1326.00,51.024
1327.00,50.994
1328.00,50.992
1329.00,50.985
1330.00,51.018
1331.00,51.000
1332.00,51.009
1333.00,51.004
1334.00,51.037
1335.00,51.055
1336.00,51.085
1337.00,51.099
1338.00,51.161
1339.00,51.202
1340.00,51.250
1341.00,51.329
1342.00,51.388
1343.00,51.416
1344.00,51.457
1345.00,51.529
1346.00,51.574
1347.00,51.589
1348.00,51.630
1349.00,51.650
1350.00,51.664
1351.00,51.681
1352.00,51.695
1353.00,51.714
1354.00,51.705
1355.00,51.644
1356.00,51.718
1357.00,51.702
1358.00,51.707
1359.00,51.722
1360.00,51.782
1361.00,51.727
1362.00,51.715
1363.00,51.802
1364.00,51.760
1365.00,51.695
1366.00,51.767
1367.00,51.715
1368.00,51.664
1369.00,51.693
1370.00,51.722
1371.00,51.704
1372.00,51.697
1373.00,51.704
1374.00,51.729
1375.00,51.655
1376.00,51.680
1377.00,51.673
1378.00,51.694
1379.00,51.699
1380.00,51.693
1381.00,51.709
1382.00,51.578
1383.00,51.679
1384.00,51.595
1385.00,51.663
1386.00,51.714
1387.00,51.719
1388.00,51.612
1389.00,51.627
1390.00,51.650
1391.00,51.674
1392.00,51.641
1393.00,51.653
1394.00,51.644
1395.00,51.615
1396.00,51.612
1397.00,51.704
1398.00,51.690
1399.00,51.650
1400.00,51.625
1401.00,51.651
1402.00,51.650
1403.00,51.689
1404.00,51.717
1405.00,51.679
1406.00,51.722
1407.00,51.735
1408.00,51.750
1409.00,51.696
1410.00,51.755
1411.00,51.732
1412.00,51.795
1413.00,51.748
1414.00,51.705
1415.00,51.759
1416.00,51.782
1417.00,51.795
1418.00,51.772
1419.00,51.784
1420.00,51.803
1421.00,51.852
1422.00,51.826
1423.00,51.853
1424.00,51.852
1425.00,51.883
1426.00,51.875
1427.00,51.897
1428.00,51.881
1429.00,51.932
1430.00,51.910
1431.00,51.951
1432.00,51.959
1433.00,51.978
1434.00,51.966
1435.00,52.016
1436.00,52.018
1437.00,52.010
1438.00,52.026
1439.00,52.059
1440.00,52.069
1441.00,52.059
1442.00,52.081
1443.00,52.138
1444.00,52.169
1445.00,52.136
1446.00,52.142
1447.00,52.154
1448.00,52.205
1449.00,52.200
1450.00,52.217
1451.00,52.218
1452.00,52.243
1453.00,52.259
1454.00,52.274
1455.00,52.287
1456.00,52.296
1457.00,52.283
1458.00,52.326
1459.00,52.329
1460.00,52.341
1461.00,52.343
1462.00,52.388
1463.00,52.388
1464.00,52.390
1465.00,52.414
1466.00,52.404
1467.00,52.438
1468.00,52.473
1469.00,52.463
1470.00,52.467
1471.00,52.472
1472.00,52.509
1473.00,52.531
1474.00,52.545
1475.00,52.548
1476.00,52.572
1477.00,52.542
1478.00,52.593
1479.00,52.599
1480.00,52.580
1481.00,52.607
1482.00,52.618
1483.00,52.638
1484.00,52.653
1485.00,52.660
1486.00,52.680
1487.00,52.699
1488.00,52.711
1489.00,52.692
1490.00,52.727
1491.00,52.707
1492.00,52.744
1493.00,52.716
1494.00,52.762
1495.00,52.761
1496.00,52.763
1497.00,52.760
1498.00,52.772
1499.00,52.790
1500.00,52.809
1501.00, 
1502.00, 
1503.00, 
1504.00, 
1505.00, 
1506.00, 
1507.00, 
1508.00, 
1509.00, 
1510.00, 
1511.00, 
1512.00, 
1513.00, 
1514.00, 
1515.00, 
1516.00, 
1517.00, 
1518.00, 
1519.00, 
1520.00, 
1521.00, 
1522.00, 
1523.00, 
1524.00, 
1525.00, 
1526.00, 
1527.00, 
1528.00, 
1529.00, 
1530.00, 
1531.00, 
1532.00, 
1533.00, 
1534.00, 
1535.00, 
1536.00, 
1537.00, 
1538.00, 
1539.00, 
1540.00, 
1541.00, 
1542.00, 
1543.00, 
1544.00, 
1545.00, 
1546.00, 
1547.00, 
1548.00, 
1549.00, 
1550.00, 
1551.00, 
1552.00, 
1553.00, 
1554.00, 
1555.00, 
1556.00, 
1557.00, 
1558.00, 
1559.00, 
1560.00, 
1561.00, 
1562.00, 
1563.00, 
1564.00, 
1565.00, 
1566.00, 
1567.00, 
1568.00, 
1569.00, 
1570.00, 
1571.00, 
1572.00, 
1573.00, 
1574.00, 
1575.00, 
1576.00, 
1577.00, 
1578.00, 
1579.00, 
1580.00, 
1581.00, 
1582.00, 
1583.00, 
1584.00, 
1585.00, 
1586.00, 
1587.00, 
1588.00, 
1589.00, 
1590.00, 
1591.00, 
1592.00, 
1593.00, 
1594.00, 
1595.00, 
1596.00, 
1597.00, 
1598.00, 
1599.00, 
1600.00, 
1601.00, 
1602.00, 
1603.00, 
1604.00, 
1605.00, 
1606.00, 
1607.00, 
1608.00, 
1609.00, 
1610.00, 
1611.00, 
1612.00, 
1613.00, 
1614.00, 
1615.00, 
1616.00, 
1617.00, 
1618.00, 
1619.00, 
1620.00, 
1621.00, 
1622.00, 
1623.00, 
1624.00, 
1625.00, 
1626.00, 
1627.00, 
1628.00, 
1629.00, 
1630.00, 
1631.00, 
1632.00, 
1633.00, 
1634.00, 
1635.00, 
1636.00, 
1637.00, 
1638.00, 
1639.00, 
1640.00, 
1641.00, 
1642.00, 
1643.00, 
1644.00, 
1645.00, 
1646.00, 
1647.00, 
1648.00, 
1649.00, 
1650.00, 
1651.00, 
1652.00, 
1653.00, 
1654.00, 
1655.00, 
1656.00, 
1657.00, 
1658.00, 
1659.00, 
1660.00, 
1661.00, 
1662.00, 
1663.00, 
1664.00, 
1665.00, 
1666.00, 
1667.00, 
1668.00, 
1669.00, 
1670.00, 
1671.00, 
1672.00, 
1673.00, 
1674.00, 
1675.00, 
1676.00, 
1677.00, 
1678.00, 
1679.00, 
1680.00, 
1681.00, 
1682.00, 
1683.00, 
1684.00, 
1685.00, 
1686.00, 
1687.00, 
1688.00, 
1689.00, 
1690.00, 
1691.00, 
1692.00, 
1693.00, 
1694.00, 
1695.00, 
1696.00, 
1697.00, 
1698.00, 
1699.00, 
1700.00, 
1701.00, 
1702.00, 
1703.00, 
1704.00, 
1705.00, 
1706.00, 
1707.00, 
1708.00, 
1709.00, 
1710.00, 
1711.00, 
1712.00, 
1713.00, 
1714.00, 
1715.00, 
1716.00, 
1717.00, 
1718.00, 
1719.00, 
1720.00, 
1721.00, 
1722.00, 
1723.00, 
1724.00, 
1725.00, 
1726.00, 
1727.00, 
1728.00, 
1729.00, 
1730.00, 
1731.00, 
1732.00, 
1733.00, 
1734.00, 
1735.00, 
1736.00, 
1737.00, 
1738.00, 
1739.00, 
1740.00, 
1741.00, 
1742.00, 
1743.00, 
1744.00, 
1745.00, 
1746.00, 
1747.00, 
1748.00, 
1749.00, 
1750.00, 
1751.00, 
1752.00, 
1753.00, 
1754.00, 
1755.00, 
1756.00, 
1757.00, 
1758.00, 
1759.00, 
1760.00, 
1761.00, 
1762.00, 
1763.00, 
1764.00, 
1765.00, 
1766.00, 
1767.00, 
1768.00, 
1769.00, 
1770.00, 
1771.00, 
1772.00, 
1773.00, 
1774.00, 
1775.00, 
1776.00, 
1777.00, 
1778.00, 
1779.00, 
1780.00, 
1781.00, 
1782.00, 
1783.00, 
1784.00, 
1785.00, 
1786.00, 
1787.00, 
1788.00, 
1789.00, 
1790.00, 
1791.00, 
1792.00, 
1793.00, 
1794.00, 
1795.00, 
1796.00, 
1797.00, 
1798.00, 
1799.00, 
1800.00, 
1801.00, 
1802.00, 
1803.00, 
1804.00, 
1805.00, 
1806.00, 
1807.00, 
1808.00, 
1809.00, 
1810.00, 
1811.00, 
1812.00, 
1813.00, 
1814.00, 
1815.00, 
1816.00, 
1817.00, 
1818.00, 
1819.00, 
1820.00, 
1821.00, 
1822.00, 
1823.00, 
1824.00, 
1825.00, 
1826.00, 
1827.00, 
1828.00, 
1829.00, 
1830.00, 
1831.00, 
1832.00, 
1833.00, 
1834.00, 
1835.00, 
1836.00, 
1837.00, 
1838.00, 
1839.00, 
1840.00, 
1841.00, 
1842.00, 
1843.00, 
1844.00, 
1845.00, 
1846.00, 
1847.00, 
1848.00, 
1849.00, 
1850.00, 
1851.00, 
1852.00, 
1853.00, 
1854.00, 
1855.00, 
1856.00, 
1857.00, 
1858.00, 
1859.00, 
1860.00, 
1861.00, 
1862.00, 
1863.00, 
1864.00, 
1865.00, 
1866.00, 
1867.00, 
1868.00, 
1869.00, 
1870.00, 
1871.00, 
1872.00, 
1873.00, 
1874.00, 
1875.00, 
1876.00, 
1877.00, 
1878.00, 
1879.00, 
1880.00, 
1881.00, 
1882.00, 
1883.00, 
1884.00, 
1885.00, 
1886.00, 
1887.00, 
1888.00, 
1889.00, 
1890.00, 
1891.00, 
1892.00, 
1893.00, 
1894.00, 
1895.00, 
1896.00, 
1897.00, 
1898.00, 
1899.00, 
1900.00, 
1901.00, 
1902.00, 
1903.00, 
1904.00, 
1905.00, 
1906.00, 
1907.00, 
1908.00, 
1909.00, 
1910.00, 
1911.00, 
1912.00, 
1913.00, 
1914.00, 
1915.00, 
1916.00, 
1917.00, 
1918.00, 
1919.00, 
1920.00, 
1921.00, 
1922.00, 
1923.00, 
1924.00, 
1925.00, 
1926.00, 
1927.00, 
1928.00, 
1929.00, 
1930.00, 
1931.00, 
1932.00, 
1933.00, 
1934.00, 
1935.00, 
1936.00, 
1937.00, 
1938.00, 
1939.00, 
1940.00, 
1941.00, 
1942.00, 
1943.00, 
1944.00, 
1945.00, 
1946.00, 
1947.00, 
1948.00, 
1949.00, 
1950.00, 
1951.00, 
1952.00, 
1953.00, 
1954.00, 
1955.00, 
1956.00, 
1957.00, 
1958.00, 
1959.00, 
1960.00, 
1961.00, 
1962.00, 
1963.00, 
1964.00, 
1965.00, 
1966.00, 
1967.00, 
1968.00, 
1969.00, 
1970.00, 
1971.00, 
1972.00, 
1973.00, 
1974.00, 
1975.00, 
1976.00, 
1977.00, 
1978.00, 
1979.00, 
1980.00, 
1981.00, 
1982.00, 
1983.00, 
1984.00, 
1985.00, 
1986.00, 
1987.00, 
1988.00, 
1989.00, 
1990.00, 
1991.00, 
1992.00, 
1993.00, 
1994.00, 
1995.00, 
1996.00, 
1997.00, 
1998.00, 
1999.00, 
2000.00, 
2001.00, 
2002.00, 
2003.00, 
2004.00, 
2005.00, 
2006.00, 
2007.00, 
2008.00, 
2009.00, 
2010.00, 
2011.00, 
2012.00, 
2013.00, 
2014.00, 
2015.00, 
2016.00, 
2017.00, 
2018.00, 
2019.00, 
2020.00, 
2021.00, 
2022.00, 
2023.00, 
2024.00, 
2025.00, 
2026.00, 
2027.00, 
2028.00, 
2029.00, 
2030.00, 
2031.00, 
2032.00, 
2033.00, 
2034.00, 
2035.00, 
2036.00, 
2037.00, 
2038.00, 
2039.00, 
2040.00, 
2041.00, 
2042.00, 
2043.00, 
2044.00, 
2045.00, 
2046.00, 
2047.00, 
2048.00, 
2049.00, 
2050.00, 
2051.00, 
2052.00, 
2053.00, 
2054.00, 
2055.00, 
2056.00, 
2057.00, 
2058.00, 
2059.00, 
2060.00, 
2061.00, 
2062.00, 
2063.00, 
2064.00, 
2065.00, 
2066.00, 
2067.00, 
2068.00, 
2069.00, 
2070.00, 
2071.00, 
2072.00, 
2073.00, 
2074.00, 
2075.00, 
2076.00, 
2077.00, 
2078.00, 
2079.00, 
2080.00, 
2081.00, 
2082.00, 
2083.00, 
2084.00, 
2085.00, 
2086.00, 
2087.00, 
2088.00, 
2089.00, 
2090.00, 
2091.00, 
2092.00, 
2093.00, 
2094.00, 
2095.00, 
2096.00, 
2097.00, 
2098.00, 
2099.00, 
2100.00, 
2101.00, 
2102.00, 
2103.00, 
2104.00, 
2105.00, 
2106.00, 
2107.00, 
2108.00, 
2109.00, 
2110.00, 
2111.00, 
2112.00, 
2113.00, 
2114.00, 
2115.00, 
2116.00, 
2117.00, 
2118.00, 
2119.00, 
2120.00, 
2121.00, 
2122.00, 
2123.00, 
2124.00, 
2125.00, 
2126.00, 
2127.00, 
2128.00, 
2129.00, 
2130.00, 
2131.00, 
2132.00, 
2133.00, 
2134.00, 
2135.00, 
2136.00, 
2137.00, 
2138.00, 
2139.00, 
2140.00, 
2141.00, 
2142.00, 
2143.00, 
2144.00, 
2145.00, 
2146.00, 
2147.00, 
2148.00, 
2149.00, 
2150.00, 
2151.00, 
2152.00, 
2153.00, 
2154.00, 
2155.00, 
2156.00, 
2157.00, 
2158.00, 
2159.00, 
2160.00, 
2161.00, 
2162.00, 
2163.00, 
2164.00, 
2165.00, 
2166.00, 
2167.00, 
2168.00, 
2169.00, 
2170.00, 
2171.00, 
2172.00, 
2173.00, 
2174.00, 
2175.00, 
2176.00, 
2177.00, 
2178.00, 
2179.00, 
2180.00, 
2181.00, 
2182.00, 
2183.00, 
2184.00, 
2185.00, 
2186.00, 
2187.00, 
2188.00, 
2189.00, 
2190.00, 
2191.00, 
2192.00, 
2193.00, 
2194.00, 
2195.00, 
2196.00, 
2197.00, 
2198.00, 
2199.00, 
2200.00, 
2201.00, 
2202.00, 
2203.00, 
2204.00, 
2205.00, 
2206.00, 
2207.00, 
2208.00, 
2209.00, 
2210.00, 
2211.00, 
2212.00, 
2213.00, 
2214.00, 
2215.00, 
2216.00, 
2217.00, 
2218.00, 
2219.00, 
2220.00, 
2221.00, 
2222.00, 
2223.00, 
2224.00, 
2225.00, 
2226.00, 
2227.00, 
2228.00, 
2229.00, 
2230.00, 
2231.00, 
2232.00, 
2233.00, 
2234.00, 
2235.00, 
2236.00, 
2237.00, 
2238.00, 
2239.00, 
2240.00, 
2241.00, 
2242.00, 
2243.00, 
2244.00, 
2245.00, 
2246.00, 
2247.00, 
2248.00, 
2249.00, 
2250.00, 
2251.00, 
2252.00, 
2253.00, 
2254.00, 
2255.00, 
2256.00, 
2257.00, 
2258.00, 
2259.00, 
2260.00, 
2261.00, 
2262.00, 
2263.00, 
2264.00, 
2265.00, 
2266.00, 
2267.00, 
2268.00, 
2269.00, 
2270.00, 
2271.00, 
2272.00, 
2273.00, 
2274.00, 
2275.00, 
2276.00, 
2277.00, 
2278.00, 
2279.00, 
2280.00, 
2281.00, 
2282.00, 
2283.00, 
2284.00, 
2285.00, 
2286.00, 
2287.00, 
2288.00, 
2289.00, 
2290.00, 
2291.00, 
2292.00, 
2293.00, 
2294.00, 
2295.00, 
2296.00, 
2297.00, 
2298.00, 
2299.00, 
2300.00, 
2301.00, 
2302.00, 
2303.00, 
2304.00, 
2305.00, 
2306.00, 
2307.00, 
2308.00, 
2309.00, 
2310.00, 
2311.00, 
2312.00, 
2313.00, 
2314.00, 
2315.00, 
2316.00, 
2317.00, 
2318.00, 
2319.00, 
2320.00, 
2321.00, 
2322.00, 
2323.00, 
2324.00, 
2325.00, 
2326.00, 
2327.00, 
2328.00, 
2329.00, 
2330.00, 
2331.00, 
2332.00, 
2333.00, 
2334.00, 
2335.00, 
2336.00, 
2337.00, 
2338.00, 
2339.00, 
2340.00, 
2341.00, 
2342.00, 
2343.00, 
2344.00, 
2345.00, 
2346.00, 
2347.00, 
2348.00, 
2349.00, 
2350.00, 
2351.00, 
2352.00, 
2353.00, 
2354.00, 
2355.00, 
2356.00, 
2357.00, 
2358.00, 
2359.00, 
2360.00, 
2361.00, 
2362.00, 
2363.00, 
2364.00, 
2365.00, 
2366.00, 
2367.00, 
2368.00, 
2369.00, 
2370.00, 
2371.00, 
2372.00, 
2373.00, 
2374.00, 
2375.00, 
2376.00, 
2377.00, 
2378.00, 
2379.00, 
2380.00, 
2381.00, 
2382.00, 
2383.00, 
2384.00, 
2385.00, 
2386.00, 
2387.00, 
2388.00, 
2389.00, 
2390.00, 
2391.00, 
2392.00, 
2393.00, 
2394.00, 
2395.00, 
2396.00, 
2397.00, 
2398.00, 
2399.00, 
2400.00, 
2401.00, 
2402.00, 
2403.00, 
2404.00, 
2405.00, 
2406.00, 
2407.00, 
2408.00, 
2409.00, 
2410.00, 
2411.00, 
2412.00, 
2413.00, 
2414.00, 
2415.00, 
2416.00, 
2417.00, 
2418.00, 
2419.00, 
2420.00, 
2421.00, 
2422.00, 
2423.00, 
2424.00, 
2425.00, 
2426.00, 
2427.00, 
2428.00, 
2429.00, 
2430.00, 
2431.00, 
2432.00, 
2433.00, 
2434.00, 
2435.00, 
2436.00, 
2437.00, 
2438.00, 
2439.00, 
2440.00, 
2441.00, 
2442.00, 
2443.00, 
2444.00, 
2445.00, 
2446.00, 
2447.00, 
2448.00, 
2449.00, 
2450.00, 
2451.00, 
2452.00, 
2453.00, 
2454.00, 
2455.00, 
2456.00, 
2457.00, 
2458.00, 
2459.00, 
2460.00, 
2461.00, 
2462.00, 
2463.00, 
2464.00, 
2465.00, 
2466.00, 
2467.00, 
2468.00, 
2469.00, 
2470.00, 
2471.00, 
2472.00, 
2473.00, 
2474.00, 
2475.00, 
2476.00, 
2477.00, 
2478.00, 
2479.00, 
2480.00, 
2481.00, 
2482.00, 
2483.00, 
2484.00, 
2485.00, 
2486.00, 
2487.00, 
2488.00, 
2489.00, 
2490.00, 
2491.00, 
2492.00, 
2493.00, 
2494.00, 
2495.00, 
2496.00, 
2497.00, 
2498.00, 
2499.00, 
2500.00, 
2501.00, 
2502.00, 
2503.00, 
2504.00, 
2505.00, 
2506.00, 
2507.00, 
2508.00, 
2509.00, 
2510.00, 
2511.00, 
2512.00, 
2513.00, 
2514.00, 
2515.00, 
2516.00, 
2517.00, 
2518.00, 
2519.00, 
2520.00, 
2521.00, 
2522.00, 
2523.00, 
2524.00, 
2525.00, 
2526.00, 
2527.00, 
2528.00, 
2529.00, 
2530.00, 
2531.00, 
2532.00, 
2533.00, 
2534.00, 
2535.00, 
2536.00, 
2537.00, 
2538.00, 
2539.00, 
2540.00, 
2541.00, 
2542.00, 
2543.00, 
2544.00, 
2545.00, 
2546.00, 
2547.00, 
2548.00, 
2549.00, 
2550.00, 
2551.00, 
2552.00, 
2553.00, 
2554.00, 
2555.00, 
2556.00, 
2557.00, 
2558.00, 
2559.00, 
2560.00, 
2561.00, 
2562.00, 
2563.00, 
2564.00, 
2565.00, 
2566.00, 
2567.00, 
2568.00, 
2569.00, 
2570.00, 
2571.00, 
2572.00, 
2573.00, 
2574.00, 
2575.00, 
2576.00, 
2577.00, 
2578.00, 
2579.00, 
2580.00, 
2581.00, 
2582.00, 
2583.00, 
2584.00, 
2585.00, 
2586.00, 
2587.00, 
2588.00, 
2589.00, 
2590.00, 
2591.00, 
2592.00, 
2593.00, 
2594.00, 
2595.00, 
2596.00, 
2597.00, 
2598.00, 
2599.00, 
2600.00, 
