"2cP1 - RawData"
"Wavelength nm.","T%"
200.00,0.004
201.00,0.003
202.00,0.005
203.00,0.002
204.00,0.002
205.00,-0.001
206.00,-0.000
207.00,0.002
208.00,0.001
209.00,0.004
210.00,0.001
211.00,0.000
212.00,0.001
213.00,-0.001
214.00,0.002
215.00,-0.001
216.00,0.004
217.00,0.001
218.00,0.002
219.00,0.002
220.00,0.004
221.00,0.001
222.00,0.002
223.00,-0.001
224.00,0.002
225.00,0.001
226.00,0.001
227.00,0.000
228.00,0.001
229.00,-0.002
230.00,0.001
231.00,-0.000
232.00,0.003
233.00,0.000
234.00,0.001
235.00,-0.001
236.00,-0.001
237.00,-0.000
238.00,-0.001
239.00,-0.000
240.00,0.000
241.00,-0.000
242.00,-0.001
243.00,0.001
244.00,-0.000
245.00,0.001
246.00,0.000
247.00,-0.000
248.00,0.001
249.00,0.000
250.00,-0.000
251.00,-0.000
252.00,0.001
253.00,-0.001
254.00,0.000
255.00,0.001
256.00,0.001
257.00,0.002
258.00,-0.001
259.00,-0.000
260.00,-0.002
261.00,-0.001
262.00,-0.001
263.00,-0.001
264.00,0.002
265.00,0.000
266.00,0.000
267.00,0.001
268.00,0.001
269.00,-0.001
270.00,-0.000
271.00,0.001
272.00,-0.001
273.00,-0.001
274.00,0.001
275.00,-0.000
276.00,0.001
277.00,0.001
278.00,0.001
279.00,0.000
280.00,0.001
281.00,-0.000
282.00,-0.001
283.00,-0.000
284.00,0.001
285.00,0.001
286.00,-0.001
287.00,0.001
288.00,-0.000
289.00,0.000
290.00,-0.001
291.00,-0.002
292.00,-0.000
293.00,0.001
294.00,0.001
295.00,-0.000
296.00,0.001
297.00,-0.000
298.00,-0.000
299.00,0.002
300.00,0.001
301.00,0.003
302.00,0.005
303.00,0.006
304.00,0.010
305.00,0.016
306.00,0.021
307.00,0.035
308.00,0.055
309.00,0.085
310.00,0.118
311.00,0.157
312.00,0.214
313.00,0.292
314.00,0.381
315.00,0.509
316.00,0.645
317.00,0.811
318.00,1.001
319.00,1.242
320.00,1.488
321.00,1.789
322.00,2.126
323.00,2.513
324.00,2.890
325.00,3.306
326.00,3.717
327.00,4.222
328.00,4.706
329.00,5.219
330.00,5.730
331.00,6.264
332.00,6.801
333.00,7.383
334.00,7.914
335.00,8.483
336.00,9.026
337.00,9.587
338.00,10.135
339.00,10.633
340.00,11.140
341.00,11.609
342.00,12.094
343.00,12.571
344.00,13.029
345.00,13.427
346.00,13.795
347.00,14.193
348.00,14.534
349.00,14.840
350.00,15.161
351.00,15.445
352.00,15.720
353.00,16.003
354.00,16.182
355.00,16.419
356.00,16.635
357.00,16.873
358.00,17.012
359.00,17.172
360.00,17.301
361.00,17.429
362.00,17.569
363.00,17.670
364.00,17.787
365.00,17.870
366.00,17.982
367.00,18.002
368.00,18.006
369.00,18.075
370.00,18.101
371.00,18.137
372.00,18.138
373.00,18.109
374.00,18.102
375.00,18.065
376.00,18.032
377.00,17.994
378.00,17.942
379.00,17.895
380.00,17.847
381.00,17.836
382.00,17.827
383.00,17.814
384.00,17.818
385.00,17.838
386.00,17.857
387.00,17.875
388.00,17.898
389.00,17.902
390.00,17.941
391.00,17.958
392.00,17.964
393.00,17.942
394.00,17.963
395.00,17.946
396.00,17.948
397.00,17.966
398.00,17.940
399.00,17.924
400.00,17.954
401.00,17.921
402.00,17.926
403.00,17.918
404.00,17.875
405.00,17.872
406.00,17.854
407.00,17.844
408.00,17.842
409.00,17.801
410.00,17.765
411.00,17.738
412.00,17.725
413.00,17.735
414.00,17.733
415.00,17.741
416.00,17.779
417.00,17.769
418.00,17.772
419.00,17.795
420.00,17.792
421.00,17.890
422.00,17.892
423.00,17.912
424.00,17.931
425.00,17.954
426.00,17.996
427.00,18.037
428.00,18.073
429.00,18.113
430.00,18.122
431.00,18.178
432.00,18.229
433.00,18.294
434.00,18.302
435.00,18.378
436.00,18.456
437.00,18.516
438.00,18.568
439.00,18.629
440.00,18.684
441.00,18.759
442.00,18.867
443.00,18.955
444.00,19.006
445.00,19.098
446.00,19.189
447.00,19.265
448.00,19.372
449.00,19.440
450.00,19.563
451.00,19.659
452.00,19.744
453.00,19.862
454.00,19.965
455.00,20.094
456.00,20.199
457.00,20.299
458.00,20.402
459.00,20.506
460.00,20.645
461.00,20.734
462.00,20.868
463.00,20.990
464.00,21.132
465.00,21.229
466.00,21.337
467.00,21.472
468.00,21.559
469.00,21.726
470.00,21.769
471.00,21.917
472.00,22.028
473.00,22.126
474.00,22.225
475.00,22.370
476.00,22.519
477.00,22.611
478.00,22.764
479.00,22.912
480.00,23.038
481.00,23.172
482.00,23.331
483.00,23.471
484.00,23.623
485.00,23.777
486.00,23.912
487.00,24.067
488.00,24.202
489.00,24.396
490.00,24.537
491.00,24.645
492.00,24.808
493.00,24.975
494.00,25.090
495.00,25.125
496.00,25.279
497.00,25.441
498.00,25.575
499.00,25.743
500.00,25.853
501.00,25.986
502.00,26.127
503.00,26.236
504.00,26.391
505.00,26.526
506.00,26.657
507.00,26.763
508.00,26.892
509.00,27.050
510.00,27.156
511.00,27.308
512.00,27.444
513.00,27.542
514.00,27.693
515.00,27.816
516.00,27.909
517.00,28.058
518.00,28.187
519.00,28.298
520.00,28.366
521.00,28.455
522.00,28.572
523.00,28.668
524.00,28.770
525.00,28.855
526.00,28.976
527.00,29.068
528.00,29.171
529.00,29.241
530.00,29.367
531.00,29.507
532.00,29.566
533.00,29.712
534.00,29.803
535.00,29.844
536.00,30.018
537.00,30.096
538.00,30.215
539.00,30.280
540.00,30.378
541.00,30.447
542.00,30.521
543.00,30.595
544.00,30.739
545.00,30.818
546.00,30.823
547.00,30.929
548.00,30.995
549.00,31.098
550.00,31.173
551.00,31.251
552.00,31.343
553.00,31.431
554.00,31.507
555.00,31.565
556.00,31.607
557.00,31.663
558.00,31.740
559.00,31.836
560.00,31.899
561.00,31.981
562.00,32.036
563.00,32.103
564.00,32.124
565.00,32.167
566.00,32.212
567.00,32.225
568.00,32.289
569.00,32.336
570.00,32.384
571.00,32.475
572.00,32.503
573.00,32.551
574.00,32.607
575.00,32.677
576.00,32.676
577.00,32.790
578.00,32.838
579.00,32.880
580.00,32.986
581.00,33.085
582.00,33.156
583.00,33.217
584.00,33.317
585.00,33.385
586.00,33.419
587.00,33.518
588.00,33.573
589.00,33.621
590.00,33.652
591.00,33.711
592.00,33.710
593.00,33.782
594.00,33.858
595.00,33.905
596.00,33.983
597.00,34.032
598.00,34.113
599.00,34.093
600.00,34.170
601.00,34.288
602.00,34.353
603.00,34.378
604.00,34.436
605.00,34.483
606.00,34.529
607.00,34.566
608.00,34.670
609.00,34.665
610.00,34.693
611.00,34.739
612.00,34.804
613.00,34.831
614.00,34.864
615.00,34.931
616.00,35.040
617.00,35.031
618.00,35.160
619.00,35.205
620.00,35.166
621.00,35.171
622.00,35.190
623.00,35.396
624.00,35.582
625.00,35.621
626.00,35.692
627.00,35.821
628.00,35.840
629.00,35.880
630.00,35.999
631.00,36.042
632.00,36.113
633.00,36.221
634.00,36.271
635.00,36.366
636.00,36.467
637.00,36.578
638.00,36.625
639.00,36.759
640.00,36.789
641.00,36.858
642.00,36.927
643.00,37.057
644.00,37.158
645.00,37.218
646.00,37.311
647.00,37.396
648.00,37.460
649.00,37.635
650.00,37.660
651.00,37.801
652.00,37.816
653.00,37.940
654.00,38.037
655.00,38.136
656.00,38.282
657.00,38.346
658.00,38.391
659.00,38.516
660.00,38.641
661.00,38.773
662.00,38.892
663.00,38.978
664.00,39.088
665.00,39.158
666.00,39.276
667.00,39.457
668.00,39.590
669.00,39.641
670.00,39.780
671.00,39.837
672.00,39.853
673.00,40.165
674.00,40.254
675.00,40.257
676.00,40.478
677.00,40.457
678.00,40.540
679.00,40.684
680.00,40.851
681.00,40.970
682.00,40.936
683.00,41.056
684.00,41.365
685.00,41.322
686.00,41.308
687.00,41.502
688.00,41.667
689.00,41.644
690.00,41.849
691.00,42.024
692.00,42.058
693.00,42.074
694.00,42.124
695.00,42.337
696.00,42.463
697.00,42.485
698.00,42.697
699.00,42.893
700.00,42.895
701.00,42.984
702.00,43.131
703.00,43.240
704.00,43.354
705.00,43.396
706.00,43.539
707.00,43.569
708.00,43.550
709.00,43.839
710.00,43.943
711.00,43.962
712.00,43.925
713.00,44.177
714.00,44.173
715.00,44.445
716.00,44.304
717.00,44.449
718.00,44.530
719.00,44.529
720.00,44.694
721.00,48.697
722.00,48.748
723.00,48.766
724.00,48.766
725.00,48.769
726.00,48.928
727.00,48.964
728.00,48.940
729.00,49.045
730.00,49.112
731.00,49.151
732.00,49.218
733.00,49.219
734.00,49.270
735.00,49.313
736.00,49.489
737.00,49.421
738.00,49.522
739.00,49.562
740.00,49.631
741.00,49.690
742.00,49.761
743.00,49.801
744.00,49.781
745.00,49.778
746.00,49.782
747.00,49.769
748.00,49.799
749.00,49.843
750.00,49.863
751.00,49.902
752.00,49.883
753.00,49.906
754.00,50.088
755.00,49.982
756.00,50.052
757.00,50.098
758.00,50.041
759.00,50.127
760.00,50.121
761.00,50.096
762.00,50.152
763.00,50.190
764.00,50.236
765.00,50.213
766.00,50.305
767.00,50.286
768.00,50.353
769.00,50.392
770.00,50.440
771.00,50.383
772.00,50.387
773.00,50.459
774.00,50.485
775.00,50.481
776.00,50.504
777.00,50.557
778.00,50.546
779.00,50.517
780.00,50.490
781.00,50.580
782.00,50.579
783.00,50.561
784.00,50.602
785.00,50.594
786.00,50.573
787.00,50.598
788.00,50.568
789.00,50.568
790.00,50.591
791.00,50.639
792.00,50.573
793.00,50.692
794.00,50.557
795.00,50.568
796.00,50.616
797.00,50.654
798.00,50.635
799.00,50.581
800.00,50.626
801.00,50.586
802.00,50.547
803.00,50.608
804.00,50.558
805.00,50.585
806.00,50.580
807.00,50.487
808.00,50.571
809.00,50.540
810.00,50.493
811.00,50.484
812.00,50.485
813.00,50.522
814.00,50.552
815.00,50.461
816.00,50.551
817.00,50.444
818.00,50.553
819.00,50.472
820.00,50.425
821.00,50.425
822.00,50.438
823.00,50.379
824.00,50.477
825.00,50.363
826.00,50.401
827.00,50.481
828.00,50.449
829.00,50.386
830.00,50.359
831.00,52.872
832.00,52.836
833.00,52.837
834.00,52.788
835.00,52.821
836.00,52.826
837.00,52.812
838.00,52.798
839.00,52.802
840.00,52.740
841.00,52.759
842.00,52.733
843.00,52.753
844.00,52.731
845.00,52.644
846.00,52.682
847.00,52.717
848.00,52.611
849.00,52.626
850.00,52.597
851.00,52.545
852.00,52.564
853.00,52.473
854.00,52.469
855.00,52.455
856.00,52.449
857.00,52.399
858.00,52.369
859.00,52.399
860.00,52.364
861.00,52.335
862.00,52.278
863.00,52.329
864.00,52.292
865.00,52.308
866.00,52.281
867.00,52.292
868.00,52.206
869.00,52.199
870.00,52.283
871.00,52.235
872.00,52.236
873.00,52.200
874.00,52.235
875.00,52.198
876.00,52.195
877.00,52.169
878.00,52.195
879.00,52.160
880.00,52.142
881.00,52.177
882.00,52.160
883.00,52.013
884.00,52.047
885.00,52.038
886.00,52.054
887.00,52.036
888.00,52.026
889.00,52.010
890.00,52.021
891.00,51.964
892.00,51.955
893.00,51.925
894.00,51.909
895.00,51.893
896.00,51.854
897.00,51.864
898.00,51.852
899.00,51.853
900.00,51.824
901.00,51.825
902.00,51.806
903.00,51.800
904.00,51.784
905.00,51.752
906.00,51.760
907.00,51.735
908.00,51.689
909.00,51.715
910.00,51.636
911.00,51.643
912.00,51.677
913.00,51.594
914.00,51.591
915.00,51.564
916.00,51.555
917.00,51.526
918.00,51.511
919.00,51.519
920.00,51.476
921.00,51.452
922.00,51.450
923.00,51.438
924.00,51.425
925.00,51.394
926.00,51.372
927.00,51.362
928.00,51.327
929.00,51.326
930.00,51.301
931.00,51.316
932.00,51.258
933.00,51.263
934.00,51.252
935.00,51.214
936.00,51.197
937.00,51.193
938.00,51.169
939.00,51.169
940.00,51.133
941.00,51.164
942.00,51.094
943.00,51.082
944.00,51.054
945.00,51.054
946.00,51.034
947.00,51.002
948.00,50.995
949.00,50.948
950.00,50.951
951.00,50.936
952.00,50.889
953.00,50.843
954.00,50.889
955.00,50.818
956.00,50.816
957.00,50.755
958.00,50.783
959.00,50.720
960.00,50.720
961.00,50.695
962.00,50.718
963.00,50.680
964.00,50.669
965.00,50.660
966.00,50.647
967.00,50.656
968.00,50.627
969.00,50.657
970.00,50.623
971.00,50.644
972.00,50.604
973.00,50.616
974.00,50.645
975.00,50.614
976.00,50.651
977.00,50.610
978.00,50.655
979.00,50.624
980.00,50.630
981.00,50.661
982.00,50.604
983.00,50.635
984.00,50.592
985.00,50.622
986.00,50.580
987.00,50.599
988.00,50.573
989.00,50.567
990.00,50.576
991.00,50.539
992.00,50.557
993.00,50.517
994.00,50.513
995.00,50.512
996.00,50.488
997.00,50.484
998.00,50.461
999.00,50.468
1000.00,50.414
1001.00,50.443
1002.00,50.407
1003.00,50.398
1004.00,50.387
1005.00,50.349
1006.00,50.385
1007.00,50.350
1008.00,50.332
1009.00,50.332
1010.00,50.301
1011.00,50.315
1012.00,50.272
1013.00,50.295
1014.00,50.248
1015.00,50.264
1016.00,50.220
1017.00,50.218
1018.00,50.218
1019.00,50.164
1020.00,50.190
1021.00,50.151
1022.00,50.151
1023.00,50.102
1024.00,50.106
1025.00,50.099
1026.00,50.083
1027.00,50.069
1028.00,50.056
1029.00,50.051
1030.00,50.022
1031.00,50.032
1032.00,49.982
1033.00,49.985
1034.00,49.963
1035.00,49.922
1036.00,49.917
1037.00,49.881
1038.00,49.869
1039.00,49.829
1040.00,49.837
1041.00,49.799
1042.00,49.795
1043.00,49.752
1044.00,49.783
1045.00,49.772
1046.00,49.760
1047.00,49.779
1048.00,49.774
1049.00,49.783
1050.00,49.791
1051.00,49.829
1052.00,49.830
1053.00,49.852
1054.00,49.838
1055.00,49.866
1056.00,49.867
1057.00,49.870
1058.00,49.857
1059.00,49.856
1060.00,49.856
1061.00,49.850
1062.00,49.839
1063.00,49.840
1064.00,49.833
1065.00,49.815
1066.00,49.814
1067.00,49.801
1068.00,49.809
1069.00,49.779
1070.00,49.770
1071.00,49.747
1072.00,49.761
1073.00,49.732
1074.00,49.735
1075.00,49.719
1076.00,49.710
1077.00,49.694
1078.00,49.702
1079.00,49.678
1080.00,49.685
1081.00,49.668
1082.00,49.663
1083.00,49.658
1084.00,49.641
1085.00,49.630
1086.00,49.630
1087.00,49.613
1088.00,49.606
1089.00,49.589
1090.00,49.571
1091.00,49.578
1092.00,49.559
1093.00,49.544
1094.00,49.531
1095.00,49.519
1096.00,49.507
1097.00,49.512
1098.00,49.508
1099.00,49.496
1100.00,49.482
1101.00,49.460
1102.00,49.465
1103.00,49.442
1104.00,49.439
1105.00,49.428
1106.00,49.419
1107.00,49.433
1108.00,49.410
1109.00,49.393
1110.00,49.385
1111.00,49.396
1112.00,49.385
1113.00,49.363
1114.00,49.362
1115.00,49.354
1116.00,49.351
1117.00,49.334
1118.00,49.334
1119.00,49.335
1120.00,49.321
1121.00,49.309
1122.00,49.299
1123.00,49.298
1124.00,49.290
1125.00,49.274
1126.00,49.266
1127.00,49.270
1128.00,49.265
1129.00,49.245
1130.00,49.243
1131.00,49.227
1132.00,49.214
1133.00,49.211
1134.00,49.196
1135.00,49.203
1136.00,49.175
1137.00,49.188
1138.00,49.190
1139.00,49.191
1140.00,49.198
1141.00,49.177
1142.00,49.176
1143.00,49.173
1144.00,49.161
1145.00,49.151
1146.00,49.156
1147.00,49.152
1148.00,49.125
1149.00,49.153
1150.00,49.137
1151.00,49.147
1152.00,49.136
1153.00,49.122
1154.00,49.113
1155.00,49.119
1156.00,49.095
1157.00,49.094
1158.00,49.094
1159.00,49.094
1160.00,49.098
1161.00,49.089
1162.00,49.083
1163.00,49.106
1164.00,49.081
1165.00,49.073
1166.00,49.078
1167.00,49.069
1168.00,49.082
1169.00,49.065
1170.00,49.076
1171.00,49.046
1172.00,49.049
1173.00,49.052
1174.00,49.067
1175.00,49.052
1176.00,49.053
1177.00,49.050
1178.00,49.041
1179.00,49.063
1180.00,49.032
1181.00,49.051
1182.00,49.045
1183.00,49.040
1184.00,49.028
1185.00,49.047
1186.00,49.022
1187.00,49.030
1188.00,49.026
1189.00,49.026
1190.00,49.026
1191.00,49.020
1192.00,49.015
1193.00,49.016
1194.00,49.034
1195.00,48.997
1196.00,49.015
1197.00,49.006
1198.00,48.995
1199.00,48.989
1200.00,48.979
1201.00,49.003
1202.00,48.977
1203.00,48.987
1204.00,48.976
1205.00,48.990
1206.00,48.986
1207.00,48.994
1208.00,48.980
1209.00,48.969
1210.00,48.986
1211.00,48.969
1212.00,48.995
1213.00,48.955
1214.00,48.972
1215.00,48.956
1216.00,48.958
1217.00,48.981
1218.00,48.958
1219.00,48.980
1220.00,48.964
1221.00,48.985
1222.00,48.961
1223.00,48.973
1224.00,48.972
1225.00,48.955
1226.00,48.969
1227.00,48.958
1228.00,48.983
1229.00,49.008
1230.00,48.999
1231.00,48.999
1232.00,49.008
1233.00,49.000
1234.00,49.019
1235.00,49.005
1236.00,49.015
1237.00,49.011
1238.00,49.011
1239.00,49.018
1240.00,49.011
1241.00,49.019
1242.00,49.003
1243.00,49.039
1244.00,49.005
1245.00,49.034
1246.00,49.026
1247.00,49.021
1248.00,49.025
1249.00,49.020
1250.00,49.034
1251.00,49.029
1252.00,49.039
1253.00,49.020
1254.00,49.059
1255.00,49.045
1256.00,49.026
1257.00,48.999
1258.00,49.045
1259.00,49.043
1260.00,49.059
1261.00,49.054
1262.00,49.062
1263.00,49.052
1264.00,49.071
1265.00,49.076
1266.00,49.065
1267.00,49.072
1268.00,49.097
1269.00,49.084
1270.00,49.097
1271.00,49.100
1272.00,49.100
1273.00,49.105
1274.00,49.120
1275.00,49.093
1276.00,49.098
1277.00,49.098
1278.00,49.123
1279.00,49.109
1280.00,49.122
1281.00,49.125
1282.00,49.140
1283.00,49.127
1284.00,49.134
1285.00,49.117
1286.00,49.124
1287.00,49.134
1288.00,49.139
1289.00,49.134
1290.00,49.161
1291.00,49.143
1292.00,49.165
1293.00,49.144
1294.00,49.164
1295.00,49.173
1296.00,49.178
1297.00,49.180
1298.00,49.201
1299.00,49.184
1300.00,49.201
1301.00,49.200
1302.00,49.198
1303.00,49.212
1304.00,49.193
1305.00,49.208
1306.00,49.223
1307.00,49.228
1308.00,49.220
1309.00,49.241
1310.00,49.241
1311.00,49.248
1312.00,49.231
1313.00,49.236
1314.00,49.249
1315.00,49.252
1316.00,49.255
1317.00,49.281
1318.00,49.270
1319.00,49.268
1320.00,49.298
1321.00,49.455
1322.00,49.471
1323.00,49.457
1324.00,49.467
1325.00,49.436
1326.00,49.472
1327.00,49.455
1328.00,49.453
1329.00,49.445
1330.00,49.476
1331.00,49.457
1332.00,49.456
1333.00,49.453
1334.00,49.495
1335.00,49.498
1336.00,49.526
1337.00,49.544
1338.00,49.614
1339.00,49.659
1340.00,49.731
1341.00,49.777
1342.00,49.860
1343.00,49.901
1344.00,49.949
1345.00,50.004
1346.00,50.042
1347.00,50.070
1348.00,50.098
1349.00,50.116
1350.00,50.122
1351.00,50.132
1352.00,50.136
1353.00,50.153
1354.00,50.165
1355.00,50.112
1356.00,50.165
1357.00,50.161
1358.00,50.153
1359.00,50.182
1360.00,50.221
1361.00,50.216
1362.00,50.179
1363.00,50.297
1364.00,50.202
1365.00,50.146
1366.00,50.212
1367.00,50.196
1368.00,50.129
1369.00,50.158
1370.00,50.140
1371.00,50.128
1372.00,50.143
1373.00,50.134
1374.00,50.158
1375.00,50.136
1376.00,50.128
1377.00,50.125
1378.00,50.157
1379.00,50.161
1380.00,50.140
1381.00,50.158
1382.00,50.104
1383.00,50.109
1384.00,50.049
1385.00,50.081
1386.00,50.159
1387.00,50.077
1388.00,50.049
1389.00,50.081
1390.00,50.148
1391.00,50.101
1392.00,50.079
1393.00,50.148
1394.00,50.069
1395.00,50.096
1396.00,50.063
1397.00,50.140
1398.00,50.136
1399.00,50.058
1400.00,50.057
1401.00,50.093
1402.00,50.131
1403.00,50.129
1404.00,50.100
1405.00,50.155
1406.00,50.120
1407.00,50.171
1408.00,50.146
1409.00,50.090
1410.00,50.169
1411.00,50.158
1412.00,50.192
1413.00,50.153
1414.00,50.130
1415.00,50.201
1416.00,50.220
1417.00,50.238
1418.00,50.210
1419.00,50.214
1420.00,50.250
1421.00,50.258
1422.00,50.285
1423.00,50.278
1424.00,50.284
1425.00,50.305
1426.00,50.316
1427.00,50.330
1428.00,50.337
1429.00,50.380
1430.00,50.367
1431.00,50.384
1432.00,50.386
1433.00,50.416
1434.00,50.413
1435.00,50.453
1436.00,50.451
1437.00,50.449
1438.00,50.466
1439.00,50.511
1440.00,50.518
1441.00,50.516
1442.00,50.521
1443.00,50.557
1444.00,50.579
1445.00,50.553
1446.00,50.566
1447.00,50.590
1448.00,50.627
1449.00,50.639
1450.00,50.634
1451.00,50.650
1452.00,50.673
1453.00,50.690
1454.00,50.689
1455.00,50.726
1456.00,50.739
1457.00,50.727
1458.00,50.746
1459.00,50.768
1460.00,50.784
1461.00,50.799
1462.00,50.814
1463.00,50.832
1464.00,50.845
1465.00,50.861
1466.00,50.868
1467.00,50.886
1468.00,50.918
1469.00,50.912
1470.00,50.924
1471.00,50.944
1472.00,50.949
1473.00,50.962
1474.00,50.987
1475.00,50.983
1476.00,50.998
1477.00,50.989
1478.00,51.018
1479.00,51.030
1480.00,51.038
1481.00,51.049
1482.00,51.063
1483.00,51.074
1484.00,51.084
1485.00,51.122
1486.00,51.126
1487.00,51.137
1488.00,51.150
1489.00,51.122
1490.00,51.162
1491.00,51.148
1492.00,51.185
1493.00,51.170
1494.00,51.194
1495.00,51.219
1496.00,51.211
1497.00,51.227
1498.00,51.219
1499.00,51.242
1500.00,51.277
1501.00, 
1502.00, 
1503.00, 
1504.00, 
1505.00, 
1506.00, 
1507.00, 
1508.00, 
1509.00, 
1510.00, 
1511.00, 
1512.00, 
1513.00, 
1514.00, 
1515.00, 
1516.00, 
1517.00, 
1518.00, 
1519.00, 
1520.00, 
1521.00, 
1522.00, 
1523.00, 
1524.00, 
1525.00, 
1526.00, 
1527.00, 
1528.00, 
1529.00, 
1530.00, 
1531.00, 
1532.00, 
1533.00, 
1534.00, 
1535.00, 
1536.00, 
1537.00, 
1538.00, 
1539.00, 
1540.00, 
1541.00, 
1542.00, 
1543.00, 
1544.00, 
1545.00, 
1546.00, 
1547.00, 
1548.00, 
1549.00, 
1550.00, 
1551.00, 
1552.00, 
1553.00, 
1554.00, 
1555.00, 
1556.00, 
1557.00, 
1558.00, 
1559.00, 
1560.00, 
1561.00, 
1562.00, 
1563.00, 
1564.00, 
1565.00, 
1566.00, 
1567.00, 
1568.00, 
1569.00, 
1570.00, 
1571.00, 
1572.00, 
1573.00, 
1574.00, 
1575.00, 
1576.00, 
1577.00, 
1578.00, 
1579.00, 
1580.00, 
1581.00, 
1582.00, 
1583.00, 
1584.00, 
1585.00, 
1586.00, 
1587.00, 
1588.00, 
1589.00, 
1590.00, 
1591.00, 
1592.00, 
1593.00, 
1594.00, 
1595.00, 
1596.00, 
1597.00, 
1598.00, 
1599.00, 
1600.00, 
1601.00, 
1602.00, 
1603.00, 
1604.00, 
1605.00, 
1606.00, 
1607.00, 
1608.00, 
1609.00, 
1610.00, 
1611.00, 
1612.00, 
1613.00, 
1614.00, 
1615.00, 
1616.00, 
1617.00, 
1618.00, 
1619.00, 
1620.00, 
1621.00, 
1622.00, 
1623.00, 
1624.00, 
1625.00, 
1626.00, 
1627.00, 
1628.00, 
1629.00, 
1630.00, 
1631.00, 
1632.00, 
1633.00, 
1634.00, 
1635.00, 
1636.00, 
1637.00, 
1638.00, 
1639.00, 
1640.00, 
1641.00, 
1642.00, 
1643.00, 
1644.00, 
1645.00, 
1646.00, 
1647.00, 
1648.00, 
1649.00, 
1650.00, 
1651.00, 
1652.00, 
1653.00, 
1654.00, 
1655.00, 
1656.00, 
1657.00, 
1658.00, 
1659.00, 
1660.00, 
1661.00, 
1662.00, 
1663.00, 
1664.00, 
1665.00, 
1666.00, 
1667.00, 
1668.00, 
1669.00, 
1670.00, 
1671.00, 
1672.00, 
1673.00, 
1674.00, 
1675.00, 
1676.00, 
1677.00, 
1678.00, 
1679.00, 
1680.00, 
1681.00, 
1682.00, 
1683.00, 
1684.00, 
1685.00, 
1686.00, 
1687.00, 
1688.00, 
1689.00, 
1690.00, 
1691.00, 
1692.00, 
1693.00, 
1694.00, 
1695.00, 
1696.00, 
1697.00, 
1698.00, 
1699.00, 
1700.00, 
1701.00, 
1702.00, 
1703.00, 
1704.00, 
1705.00, 
1706.00, 
1707.00, 
1708.00, 
1709.00, 
1710.00, 
1711.00, 
1712.00, 
1713.00, 
1714.00, 
1715.00, 
1716.00, 
1717.00, 
1718.00, 
1719.00, 
1720.00, 
1721.00, 
1722.00, 
1723.00, 
1724.00, 
1725.00, 
1726.00, 
1727.00, 
1728.00, 
1729.00, 
1730.00, 
1731.00, 
1732.00, 
1733.00, 
1734.00, 
1735.00, 
1736.00, 
1737.00, 
1738.00, 
1739.00, 
1740.00, 
1741.00, 
1742.00, 
1743.00, 
1744.00, 
1745.00, 
1746.00, 
1747.00, 
1748.00, 
1749.00, 
1750.00, 
1751.00, 
1752.00, 
1753.00, 
1754.00, 
1755.00, 
1756.00, 
1757.00, 
1758.00, 
1759.00, 
1760.00, 
1761.00, 
1762.00, 
1763.00, 
1764.00, 
1765.00, 
1766.00, 
1767.00, 
1768.00, 
1769.00, 
1770.00, 
1771.00, 
1772.00, 
1773.00, 
1774.00, 
1775.00, 
1776.00, 
1777.00, 
1778.00, 
1779.00, 
1780.00, 
1781.00, 
1782.00, 
1783.00, 
1784.00, 
1785.00, 
1786.00, 
1787.00, 
1788.00, 
1789.00, 
1790.00, 
1791.00, 
1792.00, 
1793.00, 
1794.00, 
1795.00, 
1796.00, 
1797.00, 
1798.00, 
1799.00, 
1800.00, 
1801.00, 
1802.00, 
1803.00, 
1804.00, 
1805.00, 
1806.00, 
1807.00, 
1808.00, 
1809.00, 
1810.00, 
1811.00, 
1812.00, 
1813.00, 
1814.00, 
1815.00, 
1816.00, 
1817.00, 
1818.00, 
1819.00, 
1820.00, 
1821.00, 
1822.00, 
1823.00, 
1824.00, 
1825.00, 
1826.00, 
1827.00, 
1828.00, 
1829.00, 
1830.00, 
1831.00, 
1832.00, 
1833.00, 
1834.00, 
1835.00, 
1836.00, 
1837.00, 
1838.00, 
1839.00, 
1840.00, 
1841.00, 
1842.00, 
1843.00, 
1844.00, 
1845.00, 
1846.00, 
1847.00, 
1848.00, 
1849.00, 
1850.00, 
1851.00, 
1852.00, 
1853.00, 
1854.00, 
1855.00, 
1856.00, 
1857.00, 
1858.00, 
1859.00, 
1860.00, 
1861.00, 
1862.00, 
1863.00, 
1864.00, 
1865.00, 
1866.00, 
1867.00, 
1868.00, 
1869.00, 
1870.00, 
1871.00, 
1872.00, 
1873.00, 
1874.00, 
1875.00, 
1876.00, 
1877.00, 
1878.00, 
1879.00, 
1880.00, 
1881.00, 
1882.00, 
1883.00, 
1884.00, 
1885.00, 
1886.00, 
1887.00, 
1888.00, 
1889.00, 
1890.00, 
1891.00, 
1892.00, 
1893.00, 
1894.00, 
1895.00, 
1896.00, 
1897.00, 
1898.00, 
1899.00, 
1900.00, 
1901.00, 
1902.00, 
1903.00, 
1904.00, 
1905.00, 
1906.00, 
1907.00, 
1908.00, 
1909.00, 
1910.00, 
1911.00, 
1912.00, 
1913.00, 
1914.00, 
1915.00, 
1916.00, 
1917.00, 
1918.00, 
1919.00, 
1920.00, 
1921.00, 
1922.00, 
1923.00, 
1924.00, 
1925.00, 
1926.00, 
1927.00, 
1928.00, 
1929.00, 
1930.00, 
1931.00, 
1932.00, 
1933.00, 
1934.00, 
1935.00, 
1936.00, 
1937.00, 
1938.00, 
1939.00, 
1940.00, 
1941.00, 
1942.00, 
1943.00, 
1944.00, 
1945.00, 
1946.00, 
1947.00, 
1948.00, 
1949.00, 
1950.00, 
1951.00, 
1952.00, 
1953.00, 
1954.00, 
1955.00, 
1956.00, 
1957.00, 
1958.00, 
1959.00, 
1960.00, 
1961.00, 
1962.00, 
1963.00, 
1964.00, 
1965.00, 
1966.00, 
1967.00, 
1968.00, 
1969.00, 
1970.00, 
1971.00, 
1972.00, 
1973.00, 
1974.00, 
1975.00, 
1976.00, 
1977.00, 
1978.00, 
1979.00, 
1980.00, 
1981.00, 
1982.00, 
1983.00, 
1984.00, 
1985.00, 
1986.00, 
1987.00, 
1988.00, 
1989.00, 
1990.00, 
1991.00, 
1992.00, 
1993.00, 
1994.00, 
1995.00, 
1996.00, 
1997.00, 
1998.00, 
1999.00, 
2000.00, 
2001.00, 
2002.00, 
2003.00, 
2004.00, 
2005.00, 
2006.00, 
2007.00, 
2008.00, 
2009.00, 
2010.00, 
2011.00, 
2012.00, 
2013.00, 
2014.00, 
2015.00, 
2016.00, 
2017.00, 
2018.00, 
2019.00, 
2020.00, 
2021.00, 
2022.00, 
2023.00, 
2024.00, 
2025.00, 
2026.00, 
2027.00, 
2028.00, 
2029.00, 
2030.00, 
2031.00, 
2032.00, 
2033.00, 
2034.00, 
2035.00, 
2036.00, 
2037.00, 
2038.00, 
2039.00, 
2040.00, 
2041.00, 
2042.00, 
2043.00, 
2044.00, 
2045.00, 
2046.00, 
2047.00, 
2048.00, 
2049.00, 
2050.00, 
2051.00, 
2052.00, 
2053.00, 
2054.00, 
2055.00, 
2056.00, 
2057.00, 
2058.00, 
2059.00, 
2060.00, 
2061.00, 
2062.00, 
2063.00, 
2064.00, 
2065.00, 
2066.00, 
2067.00, 
2068.00, 
2069.00, 
2070.00, 
2071.00, 
2072.00, 
2073.00, 
2074.00, 
2075.00, 
2076.00, 
2077.00, 
2078.00, 
2079.00, 
2080.00, 
2081.00, 
2082.00, 
2083.00, 
2084.00, 
2085.00, 
2086.00, 
2087.00, 
2088.00, 
2089.00, 
2090.00, 
2091.00, 
2092.00, 
2093.00, 
2094.00, 
2095.00, 
2096.00, 
2097.00, 
2098.00, 
2099.00, 
2100.00, 
2101.00, 
2102.00, 
2103.00, 
2104.00, 
2105.00, 
2106.00, 
2107.00, 
2108.00, 
2109.00, 
2110.00, 
2111.00, 
2112.00, 
2113.00, 
2114.00, 
2115.00, 
2116.00, 
2117.00, 
2118.00, 
2119.00, 
2120.00, 
2121.00, 
2122.00, 
2123.00, 
2124.00, 
2125.00, 
2126.00, 
2127.00, 
2128.00, 
2129.00, 
2130.00, 
2131.00, 
2132.00, 
2133.00, 
2134.00, 
2135.00, 
2136.00, 
2137.00, 
2138.00, 
2139.00, 
2140.00, 
2141.00, 
2142.00, 
2143.00, 
2144.00, 
2145.00, 
2146.00, 
2147.00, 
2148.00, 
2149.00, 
2150.00, 
2151.00, 
2152.00, 
2153.00, 
2154.00, 
2155.00, 
2156.00, 
2157.00, 
2158.00, 
2159.00, 
2160.00, 
2161.00, 
2162.00, 
2163.00, 
2164.00, 
2165.00, 
2166.00, 
2167.00, 
2168.00, 
2169.00, 
2170.00, 
2171.00, 
2172.00, 
2173.00, 
2174.00, 
2175.00, 
2176.00, 
2177.00, 
2178.00, 
2179.00, 
2180.00, 
2181.00, 
2182.00, 
2183.00, 
2184.00, 
2185.00, 
2186.00, 
2187.00, 
2188.00, 
2189.00, 
2190.00, 
2191.00, 
2192.00, 
2193.00, 
2194.00, 
2195.00, 
2196.00, 
2197.00, 
2198.00, 
2199.00, 
2200.00, 
2201.00, 
2202.00, 
2203.00, 
2204.00, 
2205.00, 
2206.00, 
2207.00, 
2208.00, 
2209.00, 
2210.00, 
2211.00, 
2212.00, 
2213.00, 
2214.00, 
2215.00, 
2216.00, 
2217.00, 
2218.00, 
2219.00, 
2220.00, 
2221.00, 
2222.00, 
2223.00, 
2224.00, 
2225.00, 
2226.00, 
2227.00, 
2228.00, 
2229.00, 
2230.00, 
2231.00, 
2232.00, 
2233.00, 
2234.00, 
2235.00, 
2236.00, 
2237.00, 
2238.00, 
2239.00, 
2240.00, 
2241.00, 
2242.00, 
2243.00, 
2244.00, 
2245.00, 
2246.00, 
2247.00, 
2248.00, 
2249.00, 
2250.00, 
2251.00, 
2252.00, 
2253.00, 
2254.00, 
2255.00, 
2256.00, 
2257.00, 
2258.00, 
2259.00, 
2260.00, 
2261.00, 
2262.00, 
2263.00, 
2264.00, 
2265.00, 
2266.00, 
2267.00, 
2268.00, 
2269.00, 
2270.00, 
2271.00, 
2272.00, 
2273.00, 
2274.00, 
2275.00, 
2276.00, 
2277.00, 
2278.00, 
2279.00, 
2280.00, 
2281.00, 
2282.00, 
2283.00, 
2284.00, 
2285.00, 
2286.00, 
2287.00, 
2288.00, 
2289.00, 
2290.00, 
2291.00, 
2292.00, 
2293.00, 
2294.00, 
2295.00, 
2296.00, 
2297.00, 
2298.00, 
2299.00, 
2300.00, 
2301.00, 
2302.00, 
2303.00, 
2304.00, 
2305.00, 
2306.00, 
2307.00, 
2308.00, 
2309.00, 
2310.00, 
2311.00, 
2312.00, 
2313.00, 
2314.00, 
2315.00, 
2316.00, 
2317.00, 
2318.00, 
2319.00, 
2320.00, 
2321.00, 
2322.00, 
2323.00, 
2324.00, 
2325.00, 
2326.00, 
2327.00, 
2328.00, 
2329.00, 
2330.00, 
2331.00, 
2332.00, 
2333.00, 
2334.00, 
2335.00, 
2336.00, 
2337.00, 
2338.00, 
2339.00, 
2340.00, 
2341.00, 
2342.00, 
2343.00, 
2344.00, 
2345.00, 
2346.00, 
2347.00, 
2348.00, 
2349.00, 
2350.00, 
2351.00, 
2352.00, 
2353.00, 
2354.00, 
2355.00, 
2356.00, 
2357.00, 
2358.00, 
2359.00, 
2360.00, 
2361.00, 
2362.00, 
2363.00, 
2364.00, 
2365.00, 
2366.00, 
2367.00, 
2368.00, 
2369.00, 
2370.00, 
2371.00, 
2372.00, 
2373.00, 
2374.00, 
2375.00, 
2376.00, 
2377.00, 
2378.00, 
2379.00, 
2380.00, 
2381.00, 
2382.00, 
2383.00, 
2384.00, 
2385.00, 
2386.00, 
2387.00, 
2388.00, 
2389.00, 
2390.00, 
2391.00, 
2392.00, 
2393.00, 
2394.00, 
2395.00, 
2396.00, 
2397.00, 
2398.00, 
2399.00, 
2400.00, 
2401.00, 
2402.00, 
2403.00, 
2404.00, 
2405.00, 
2406.00, 
2407.00, 
2408.00, 
2409.00, 
2410.00, 
2411.00, 
2412.00, 
2413.00, 
2414.00, 
2415.00, 
2416.00, 
2417.00, 
2418.00, 
2419.00, 
2420.00, 
2421.00, 
2422.00, 
2423.00, 
2424.00, 
2425.00, 
2426.00, 
2427.00, 
2428.00, 
2429.00, 
2430.00, 
2431.00, 
2432.00, 
2433.00, 
2434.00, 
2435.00, 
2436.00, 
2437.00, 
2438.00, 
2439.00, 
2440.00, 
2441.00, 
2442.00, 
2443.00, 
2444.00, 
2445.00, 
2446.00, 
2447.00, 
2448.00, 
2449.00, 
2450.00, 
2451.00, 
2452.00, 
2453.00, 
2454.00, 
2455.00, 
2456.00, 
2457.00, 
2458.00, 
2459.00, 
2460.00, 
2461.00, 
2462.00, 
2463.00, 
2464.00, 
2465.00, 
2466.00, 
2467.00, 
2468.00, 
2469.00, 
2470.00, 
2471.00, 
2472.00, 
2473.00, 
2474.00, 
2475.00, 
2476.00, 
2477.00, 
2478.00, 
2479.00, 
2480.00, 
2481.00, 
2482.00, 
2483.00, 
2484.00, 
2485.00, 
2486.00, 
2487.00, 
2488.00, 
2489.00, 
2490.00, 
2491.00, 
2492.00, 
2493.00, 
2494.00, 
2495.00, 
2496.00, 
2497.00, 
2498.00, 
2499.00, 
2500.00, 
2501.00, 
2502.00, 
2503.00, 
2504.00, 
2505.00, 
2506.00, 
2507.00, 
2508.00, 
2509.00, 
2510.00, 
2511.00, 
2512.00, 
2513.00, 
2514.00, 
2515.00, 
2516.00, 
2517.00, 
2518.00, 
2519.00, 
2520.00, 
2521.00, 
2522.00, 
2523.00, 
2524.00, 
2525.00, 
2526.00, 
2527.00, 
2528.00, 
2529.00, 
2530.00, 
2531.00, 
2532.00, 
2533.00, 
2534.00, 
2535.00, 
2536.00, 
2537.00, 
2538.00, 
2539.00, 
2540.00, 
2541.00, 
2542.00, 
2543.00, 
2544.00, 
2545.00, 
2546.00, 
2547.00, 
2548.00, 
2549.00, 
2550.00, 
2551.00, 
2552.00, 
2553.00, 
2554.00, 
2555.00, 
2556.00, 
2557.00, 
2558.00, 
2559.00, 
2560.00, 
2561.00, 
2562.00, 
2563.00, 
2564.00, 
2565.00, 
2566.00, 
2567.00, 
2568.00, 
2569.00, 
2570.00, 
2571.00, 
2572.00, 
2573.00, 
2574.00, 
2575.00, 
2576.00, 
2577.00, 
2578.00, 
2579.00, 
2580.00, 
2581.00, 
2582.00, 
2583.00, 
2584.00, 
2585.00, 
2586.00, 
2587.00, 
2588.00, 
2589.00, 
2590.00, 
2591.00, 
2592.00, 
2593.00, 
2594.00, 
2595.00, 
2596.00, 
2597.00, 
2598.00, 
2599.00, 
2600.00, 
