"2cP2 - RawData"
"Wavelength nm.","T%"
200.00,-0.001
201.00,0.001
202.00,0.001
203.00,0.004
204.00,0.004
205.00,0.002
206.00,0.000
207.00,-0.001
208.00,0.001
209.00,0.002
210.00,0.001
211.00,0.002
212.00,0.001
213.00,-0.000
214.00,0.002
215.00,-0.000
216.00,0.005
217.00,0.001
218.00,-0.004
219.00,-0.001
220.00,0.002
221.00,0.002
222.00,0.002
223.00,0.001
224.00,0.001
225.00,0.001
226.00,0.001
227.00,0.003
228.00,0.002
229.00,-0.000
230.00,-0.001
231.00,0.000
232.00,0.001
233.00,0.002
234.00,-0.000
235.00,-0.000
236.00,0.001
237.00,-0.001
238.00,0.001
239.00,0.001
240.00,0.002
241.00,0.001
242.00,-0.000
243.00,0.001
244.00,-0.000
245.00,0.001
246.00,0.001
247.00,0.001
248.00,-0.001
249.00,0.000
250.00,-0.001
251.00,0.001
252.00,0.000
253.00,-0.000
254.00,-0.000
255.00,0.001
256.00,0.000
257.00,0.001
258.00,0.001
259.00,-0.001
260.00,0.001
261.00,-0.000
262.00,0.000
263.00,0.001
264.00,0.001
265.00,0.001
266.00,-0.001
267.00,0.000
268.00,-0.000
269.00,0.001
270.00,0.001
271.00,0.001
272.00,0.000
273.00,0.002
274.00,0.001
275.00,0.001
276.00,-0.002
277.00,0.001
278.00,-0.001
279.00,-0.001
280.00,0.000
281.00,0.000
282.00,0.000
283.00,-0.001
284.00,0.002
285.00,0.001
286.00,-0.000
287.00,0.000
288.00,-0.001
289.00,-0.000
290.00,-0.000
291.00,-0.001
292.00,-0.001
293.00,0.001
294.00,-0.000
295.00,0.001
296.00,0.002
297.00,-0.000
298.00,0.001
299.00,0.003
300.00,0.003
301.00,0.004
302.00,0.005
303.00,0.010
304.00,0.016
305.00,0.025
306.00,0.037
307.00,0.057
308.00,0.089
309.00,0.140
310.00,0.195
311.00,0.267
312.00,0.367
313.00,0.500
314.00,0.652
315.00,0.827
316.00,1.084
317.00,1.369
318.00,1.702
319.00,2.107
320.00,2.563
321.00,3.062
322.00,3.637
323.00,4.287
324.00,4.968
325.00,5.651
326.00,6.284
327.00,7.245
328.00,8.086
329.00,8.978
330.00,9.883
331.00,10.824
332.00,11.755
333.00,12.790
334.00,13.697
335.00,14.709
336.00,15.659
337.00,16.659
338.00,17.647
339.00,18.544
340.00,19.446
341.00,20.353
342.00,21.214
343.00,22.048
344.00,22.850
345.00,23.607
346.00,24.303
347.00,25.040
348.00,25.680
349.00,26.252
350.00,26.862
351.00,27.375
352.00,27.902
353.00,28.437
354.00,28.853
355.00,29.335
356.00,29.756
357.00,30.147
358.00,30.537
359.00,30.851
360.00,31.129
361.00,31.438
362.00,31.727
363.00,31.998
364.00,32.207
365.00,32.481
366.00,32.651
367.00,32.791
368.00,32.881
369.00,33.004
370.00,33.137
371.00,33.229
372.00,33.263
373.00,33.305
374.00,33.351
375.00,33.266
376.00,33.289
377.00,33.112
378.00,33.233
379.00,33.188
380.00,33.189
381.00,33.239
382.00,33.254
383.00,33.278
384.00,33.342
385.00,33.397
386.00,33.475
387.00,33.567
388.00,33.668
389.00,33.745
390.00,33.774
391.00,33.850
392.00,33.850
393.00,33.975
394.00,34.058
395.00,34.049
396.00,34.077
397.00,34.117
398.00,34.076
399.00,34.118
400.00,34.185
401.00,34.170
402.00,34.169
403.00,34.178
404.00,34.146
405.00,34.183
406.00,34.092
407.00,34.016
408.00,34.003
409.00,34.072
410.00,34.029
411.00,33.973
412.00,33.915
413.00,33.925
414.00,33.933
415.00,33.947
416.00,33.986
417.00,33.985
418.00,33.937
419.00,33.972
420.00,33.988
421.00,34.087
422.00,34.128
423.00,34.120
424.00,34.086
425.00,34.110
426.00,34.202
427.00,34.204
428.00,34.206
429.00,34.247
430.00,34.224
431.00,34.295
432.00,34.275
433.00,34.363
434.00,34.350
435.00,34.379
436.00,34.373
437.00,34.524
438.00,34.559
439.00,34.603
440.00,34.634
441.00,34.708
442.00,34.785
443.00,34.862
444.00,34.925
445.00,34.918
446.00,35.012
447.00,35.080
448.00,35.186
449.00,35.206
450.00,35.286
451.00,35.320
452.00,35.501
453.00,35.575
454.00,35.641
455.00,35.756
456.00,35.811
457.00,35.928
458.00,36.012
459.00,36.046
460.00,36.174
461.00,36.218
462.00,36.340
463.00,36.440
464.00,36.540
465.00,36.651
466.00,36.675
467.00,36.815
468.00,36.864
469.00,36.997
470.00,36.974
471.00,37.041
472.00,37.149
473.00,37.136
474.00,37.238
475.00,37.364
476.00,37.397
477.00,37.473
478.00,37.553
479.00,37.706
480.00,37.760
481.00,37.800
482.00,37.861
483.00,38.155
484.00,38.264
485.00,38.412
486.00,38.487
487.00,38.639
488.00,38.722
489.00,38.855
490.00,38.961
491.00,39.066
492.00,39.212
493.00,39.275
494.00,39.384
495.00,39.335
496.00,39.444
497.00,39.558
498.00,39.658
499.00,39.800
500.00,39.857
501.00,39.946
502.00,40.025
503.00,40.118
504.00,40.193
505.00,40.305
506.00,40.397
507.00,40.451
508.00,40.561
509.00,40.663
510.00,40.735
511.00,40.820
512.00,40.973
513.00,40.992
514.00,41.123
515.00,41.261
516.00,41.240
517.00,41.429
518.00,41.496
519.00,41.528
520.00,41.580
521.00,41.622
522.00,41.721
523.00,41.771
524.00,41.775
525.00,41.876
526.00,41.983
527.00,41.978
528.00,42.057
529.00,42.164
530.00,42.188
531.00,42.350
532.00,42.376
533.00,42.445
534.00,42.527
535.00,42.552
536.00,42.589
537.00,42.603
538.00,42.845
539.00,42.920
540.00,42.908
541.00,42.949
542.00,43.044
543.00,43.040
544.00,43.165
545.00,43.202
546.00,43.157
547.00,43.264
548.00,43.232
549.00,43.238
550.00,43.289
551.00,43.331
552.00,43.525
553.00,43.714
554.00,43.763
555.00,43.872
556.00,43.837
557.00,43.899
558.00,43.951
559.00,43.984
560.00,44.028
561.00,44.093
562.00,44.175
563.00,44.133
564.00,44.202
565.00,44.211
566.00,44.193
567.00,44.225
568.00,44.180
569.00,44.262
570.00,44.276
571.00,44.349
572.00,44.362
573.00,44.384
574.00,44.416
575.00,44.401
576.00,44.380
577.00,44.440
578.00,44.632
579.00,44.650
580.00,44.726
581.00,44.833
582.00,44.877
583.00,44.982
584.00,45.073
585.00,45.073
586.00,45.091
587.00,45.147
588.00,45.234
589.00,45.217
590.00,45.245
591.00,45.295
592.00,45.193
593.00,45.265
594.00,45.336
595.00,45.272
596.00,45.306
597.00,45.387
598.00,45.462
599.00,45.592
600.00,45.618
601.00,45.694
602.00,45.708
603.00,45.738
604.00,45.756
605.00,45.771
606.00,45.880
607.00,45.825
608.00,45.910
609.00,45.821
610.00,45.860
611.00,45.911
612.00,45.980
613.00,45.971
614.00,45.965
615.00,45.988
616.00,46.070
617.00,46.098
618.00,46.133
619.00,46.159
620.00,46.194
621.00,46.195
622.00,46.220
623.00,46.258
624.00,46.340
625.00,46.348
626.00,46.348
627.00,46.458
628.00,46.430
629.00,46.468
630.00,46.467
631.00,46.539
632.00,46.566
633.00,46.528
634.00,46.613
635.00,46.653
636.00,46.662
637.00,46.776
638.00,46.745
639.00,46.879
640.00,46.930
641.00,46.897
642.00,47.003
643.00,47.020
644.00,47.029
645.00,47.122
646.00,47.162
647.00,47.153
648.00,47.144
649.00,47.262
650.00,47.221
651.00,47.331
652.00,47.339
653.00,47.350
654.00,47.429
655.00,47.475
656.00,47.538
657.00,47.577
658.00,47.483
659.00,47.540
660.00,47.745
661.00,47.784
662.00,47.891
663.00,47.819
664.00,47.897
665.00,47.857
666.00,47.960
667.00,48.016
668.00,48.022
669.00,47.991
670.00,48.164
671.00,48.083
672.00,47.975
673.00,48.164
674.00,48.300
675.00,48.381
676.00,48.445
677.00,48.388
678.00,48.464
679.00,48.444
680.00,48.562
681.00,48.630
682.00,48.484
683.00,48.580
684.00,48.792
685.00,48.733
686.00,48.589
687.00,48.862
688.00,48.791
689.00,48.599
690.00,48.808
691.00,48.903
692.00,48.684
693.00,48.835
694.00,48.965
695.00,48.987
696.00,48.960
697.00,49.035
698.00,49.217
699.00,49.329
700.00,49.291
701.00,49.260
702.00,49.347
703.00,49.329
704.00,49.292
705.00,49.297
706.00,49.469
707.00,49.395
708.00,49.346
709.00,49.531
710.00,49.585
711.00,49.239
712.00,49.298
713.00,49.485
714.00,49.355
715.00,49.504
716.00,49.272
717.00,49.778
718.00,49.551
719.00,49.553
720.00,49.696
721.00,53.923
722.00,53.872
723.00,53.890
724.00,53.778
725.00,53.702
726.00,53.757
727.00,53.631
728.00,53.610
729.00,53.655
730.00,53.643
731.00,53.669
732.00,53.674
733.00,53.675
734.00,53.657
735.00,53.628
736.00,53.640
737.00,53.561
738.00,53.648
739.00,53.608
740.00,53.540
741.00,53.645
742.00,53.555
743.00,53.535
744.00,53.448
745.00,53.413
746.00,53.397
747.00,53.359
748.00,53.285
749.00,53.302
750.00,53.271
751.00,53.230
752.00,53.209
753.00,53.204
754.00,53.245
755.00,53.138
756.00,53.169
757.00,53.131
758.00,53.058
759.00,53.116
760.00,53.055
761.00,52.981
762.00,52.972
763.00,52.985
764.00,53.022
765.00,52.992
766.00,52.909
767.00,52.909
768.00,52.905
769.00,52.998
770.00,52.977
771.00,52.862
772.00,52.863
773.00,52.849
774.00,52.856
775.00,52.837
776.00,52.787
777.00,52.758
778.00,52.780
779.00,52.762
780.00,52.726
781.00,52.696
782.00,52.722
783.00,52.674
784.00,52.675
785.00,52.606
786.00,52.561
787.00,52.689
788.00,52.497
789.00,52.507
790.00,52.429
791.00,52.478
792.00,52.384
793.00,52.423
794.00,52.300
795.00,52.343
796.00,52.376
797.00,52.322
798.00,52.291
799.00,52.286
800.00,52.163
801.00,52.266
802.00,52.183
803.00,52.139
804.00,52.081
805.00,52.109
806.00,52.063
807.00,52.020
808.00,52.034
809.00,51.998
810.00,51.915
811.00,51.931
812.00,51.917
813.00,51.820
814.00,51.866
815.00,51.877
816.00,51.826
817.00,51.691
818.00,51.833
819.00,51.733
820.00,51.687
821.00,51.586
822.00,51.727
823.00,51.585
824.00,51.654
825.00,51.566
826.00,51.597
827.00,51.727
828.00,51.564
829.00,51.522
830.00,51.449
831.00,54.060
832.00,54.031
833.00,53.974
834.00,53.982
835.00,54.000
836.00,53.950
837.00,53.951
838.00,53.887
839.00,53.874
840.00,53.828
841.00,53.819
842.00,53.795
843.00,53.780
844.00,53.730
845.00,53.645
846.00,53.684
847.00,53.669
848.00,53.603
849.00,53.575
850.00,53.538
851.00,53.451
852.00,53.495
853.00,53.378
854.00,53.338
855.00,53.398
856.00,53.324
857.00,53.276
858.00,53.235
859.00,53.253
860.00,53.228
861.00,53.221
862.00,53.096
863.00,53.159
864.00,53.108
865.00,53.109
866.00,53.064
867.00,53.065
868.00,53.075
869.00,53.003
870.00,53.035
871.00,52.985
872.00,52.995
873.00,52.938
874.00,52.974
875.00,52.947
876.00,52.935
877.00,52.926
878.00,52.928
879.00,52.830
880.00,52.916
881.00,52.813
882.00,52.821
883.00,52.798
884.00,52.761
885.00,52.695
886.00,52.718
887.00,52.689
888.00,52.684
889.00,52.651
890.00,52.654
891.00,52.634
892.00,52.588
893.00,52.563
894.00,52.574
895.00,52.518
896.00,52.479
897.00,52.488
898.00,52.461
899.00,52.449
900.00,52.416
901.00,52.408
902.00,52.385
903.00,52.399
904.00,52.358
905.00,52.336
906.00,52.325
907.00,52.292
908.00,52.263
909.00,52.260
910.00,52.205
911.00,52.214
912.00,52.224
913.00,52.138
914.00,52.116
915.00,52.094
916.00,52.067
917.00,52.059
918.00,52.064
919.00,52.027
920.00,52.021
921.00,52.011
922.00,51.975
923.00,51.892
924.00,51.955
925.00,51.881
926.00,51.854
927.00,51.858
928.00,51.823
929.00,51.844
930.00,51.791
931.00,51.813
932.00,51.745
933.00,51.747
934.00,51.741
935.00,51.699
936.00,51.647
937.00,51.655
938.00,51.628
939.00,51.622
940.00,51.596
941.00,51.620
942.00,51.547
943.00,51.540
944.00,51.512
945.00,51.511
946.00,51.502
947.00,51.449
948.00,51.429
949.00,51.398
950.00,51.400
951.00,51.373
952.00,51.330
953.00,51.326
954.00,51.296
955.00,51.215
956.00,51.274
957.00,51.189
958.00,51.218
959.00,51.161
960.00,51.159
961.00,51.119
962.00,51.135
963.00,51.091
964.00,51.084
965.00,51.085
966.00,51.066
967.00,51.071
968.00,51.029
969.00,51.062
970.00,51.021
971.00,51.033
972.00,51.005
973.00,51.035
974.00,51.049
975.00,51.007
976.00,51.039
977.00,51.003
978.00,51.054
979.00,51.011
980.00,51.017
981.00,51.043
982.00,50.991
983.00,51.021
984.00,50.982
985.00,51.005
986.00,50.966
987.00,50.987
988.00,50.950
989.00,50.949
990.00,50.931
991.00,50.900
992.00,50.931
993.00,50.888
994.00,50.868
995.00,50.873
996.00,50.848
997.00,50.854
998.00,50.807
999.00,50.828
1000.00,50.785
1001.00,50.813
1002.00,50.846
1003.00,50.775
1004.00,50.759
1005.00,50.722
1006.00,50.770
1007.00,50.725
1008.00,50.696
1009.00,50.694
1010.00,50.663
1011.00,50.676
1012.00,50.627
1013.00,50.628
1014.00,50.602
1015.00,50.608
1016.00,50.546
1017.00,50.548
1018.00,50.562
1019.00,50.513
1020.00,50.528
1021.00,50.489
1022.00,50.490
1023.00,50.435
1024.00,50.440
1025.00,50.434
1026.00,50.430
1027.00,50.390
1028.00,50.382
1029.00,50.372
1030.00,50.349
1031.00,50.360
1032.00,50.318
1033.00,50.321
1034.00,50.288
1035.00,50.252
1036.00,50.259
1037.00,50.207
1038.00,50.203
1039.00,50.165
1040.00,50.162
1041.00,50.124
1042.00,50.123
1043.00,50.072
1044.00,50.113
1045.00,50.096
1046.00,50.080
1047.00,50.113
1048.00,50.100
1049.00,50.115
1050.00,50.132
1051.00,50.162
1052.00,50.168
1053.00,50.188
1054.00,50.160
1055.00,50.194
1056.00,50.195
1057.00,50.196
1058.00,50.187
1059.00,50.178
1060.00,50.174
1061.00,50.173
1062.00,50.146
1063.00,50.157
1064.00,50.163
1065.00,50.137
1066.00,50.150
1067.00,50.122
1068.00,50.132
1069.00,50.107
1070.00,50.086
1071.00,50.065
1072.00,50.088
1073.00,50.041
1074.00,50.047
1075.00,50.034
1076.00,50.025
1077.00,50.020
1078.00,50.014
1079.00,49.985
1080.00,50.000
1081.00,49.978
1082.00,49.966
1083.00,49.976
1084.00,49.950
1085.00,49.944
1086.00,49.943
1087.00,49.925
1088.00,49.928
1089.00,49.900
1090.00,49.887
1091.00,49.931
1092.00,49.882
1093.00,49.854
1094.00,49.855
1095.00,49.838
1096.00,49.833
1097.00,49.831
1098.00,49.820
1099.00,49.818
1100.00,49.793
1101.00,49.777
1102.00,49.782
1103.00,49.761
1104.00,49.754
1105.00,49.745
1106.00,49.733
1107.00,49.741
1108.00,49.735
1109.00,49.708
1110.00,49.709
1111.00,49.715
1112.00,49.686
1113.00,49.683
1114.00,49.661
1115.00,49.664
1116.00,49.664
1117.00,49.640
1118.00,49.642
1119.00,49.639
1120.00,49.614
1121.00,49.615
1122.00,49.600
1123.00,49.605
1124.00,49.608
1125.00,49.586
1126.00,49.578
1127.00,49.594
1128.00,49.579
1129.00,49.567
1130.00,49.550
1131.00,49.531
1132.00,49.539
1133.00,49.528
1134.00,49.513
1135.00,49.524
1136.00,49.496
1137.00,49.502
1138.00,49.504
1139.00,49.506
1140.00,49.499
1141.00,49.493
1142.00,49.477
1143.00,49.505
1144.00,49.468
1145.00,49.449
1146.00,49.461
1147.00,49.451
1148.00,49.438
1149.00,49.466
1150.00,49.450
1151.00,49.444
1152.00,49.429
1153.00,49.425
1154.00,49.419
1155.00,49.419
1156.00,49.392
1157.00,49.416
1158.00,49.404
1159.00,49.398
1160.00,49.405
1161.00,49.390
1162.00,49.388
1163.00,49.406
1164.00,49.387
1165.00,49.378
1166.00,49.379
1167.00,49.373
1168.00,49.385
1169.00,49.380
1170.00,49.385
1171.00,49.368
1172.00,49.371
1173.00,49.370
1174.00,49.371
1175.00,49.354
1176.00,49.363
1177.00,49.353
1178.00,49.338
1179.00,49.373
1180.00,49.331
1181.00,49.351
1182.00,49.357
1183.00,49.342
1184.00,49.322
1185.00,49.346
1186.00,49.330
1187.00,49.339
1188.00,49.329
1189.00,49.321
1190.00,49.336
1191.00,49.319
1192.00,49.320
1193.00,49.320
1194.00,49.326
1195.00,49.302
1196.00,49.322
1197.00,49.307
1198.00,49.310
1199.00,49.298
1200.00,49.292
1201.00,49.322
1202.00,49.293
1203.00,49.299
1204.00,49.287
1205.00,49.297
1206.00,49.295
1207.00,49.302
1208.00,49.280
1209.00,49.292
1210.00,49.292
1211.00,49.262
1212.00,49.300
1213.00,49.252
1214.00,49.278
1215.00,49.265
1216.00,49.258
1217.00,49.285
1218.00,49.261
1219.00,49.277
1220.00,49.272
1221.00,49.284
1222.00,49.259
1223.00,49.288
1224.00,49.274
1225.00,49.253
1226.00,49.278
1227.00,49.253
1228.00,49.282
1229.00,49.280
1230.00,49.307
1231.00,49.316
1232.00,49.317
1233.00,49.317
1234.00,49.328
1235.00,49.324
1236.00,49.321
1237.00,49.331
1238.00,49.334
1239.00,49.333
1240.00,49.332
1241.00,49.326
1242.00,49.324
1243.00,49.337
1244.00,49.311
1245.00,49.358
1246.00,49.345
1247.00,49.339
1248.00,49.351
1249.00,49.337
1250.00,49.351
1251.00,49.350
1252.00,49.354
1253.00,49.355
1254.00,49.391
1255.00,49.359
1256.00,49.349
1257.00,49.324
1258.00,49.365
1259.00,49.372
1260.00,49.388
1261.00,49.381
1262.00,49.386
1263.00,49.363
1264.00,49.386
1265.00,49.379
1266.00,49.372
1267.00,49.391
1268.00,49.407
1269.00,49.391
1270.00,49.421
1271.00,49.417
1272.00,49.410
1273.00,49.426
1274.00,49.430
1275.00,49.426
1276.00,49.423
1277.00,49.415
1278.00,49.451
1279.00,49.430
1280.00,49.439
1281.00,49.458
1282.00,49.454
1283.00,49.442
1284.00,49.461
1285.00,49.422
1286.00,49.454
1287.00,49.449
1288.00,49.456
1289.00,49.462
1290.00,49.474
1291.00,49.471
1292.00,49.508
1293.00,49.477
1294.00,49.501
1295.00,49.506
1296.00,49.501
1297.00,49.507
1298.00,49.524
1299.00,49.503
1300.00,49.523
1301.00,49.515
1302.00,49.522
1303.00,49.550
1304.00,49.514
1305.00,49.546
1306.00,49.553
1307.00,49.552
1308.00,49.558
1309.00,49.565
1310.00,49.560
1311.00,49.570
1312.00,49.552
1313.00,49.558
1314.00,49.574
1315.00,49.571
1316.00,49.586
1317.00,49.604
1318.00,49.587
1319.00,49.599
1320.00,49.628
1321.00,49.766
1322.00,49.789
1323.00,49.766
1324.00,49.781
1325.00,49.761
1326.00,49.790
1327.00,49.777
1328.00,49.775
1329.00,49.761
1330.00,49.776
1331.00,49.775
1332.00,49.757
1333.00,49.759
1334.00,49.785
1335.00,49.819
1336.00,49.850
1337.00,49.855
1338.00,49.920
1339.00,49.970
1340.00,50.020
1341.00,50.087
1342.00,50.163
1343.00,50.207
1344.00,50.268
1345.00,50.340
1346.00,50.352
1347.00,50.376
1348.00,50.412
1349.00,50.425
1350.00,50.460
1351.00,50.455
1352.00,50.462
1353.00,50.486
1354.00,50.470
1355.00,50.425
1356.00,50.478
1357.00,50.475
1358.00,50.481
1359.00,50.497
1360.00,50.517
1361.00,50.477
1362.00,50.457
1363.00,50.545
1364.00,50.517
1365.00,50.475
1366.00,50.638
1367.00,50.493
1368.00,50.445
1369.00,50.487
1370.00,50.460
1371.00,50.457
1372.00,50.478
1373.00,50.452
1374.00,50.471
1375.00,50.438
1376.00,50.419
1377.00,50.454
1378.00,50.521
1379.00,50.435
1380.00,50.476
1381.00,50.492
1382.00,50.264
1383.00,50.439
1384.00,50.364
1385.00,50.401
1386.00,50.476
1387.00,50.412
1388.00,50.396
1389.00,50.389
1390.00,50.430
1391.00,50.439
1392.00,50.398
1393.00,50.453
1394.00,50.406
1395.00,50.406
1396.00,50.393
1397.00,50.472
1398.00,50.444
1399.00,50.398
1400.00,50.366
1401.00,50.414
1402.00,50.457
1403.00,50.458
1404.00,50.441
1405.00,50.483
1406.00,50.453
1407.00,50.493
1408.00,50.492
1409.00,50.444
1410.00,50.499
1411.00,50.493
1412.00,50.525
1413.00,50.489
1414.00,50.465
1415.00,50.526
1416.00,50.555
1417.00,50.569
1418.00,50.547
1419.00,50.544
1420.00,50.548
1421.00,50.635
1422.00,50.604
1423.00,50.596
1424.00,50.613
1425.00,50.624
1426.00,50.640
1427.00,50.667
1428.00,50.653
1429.00,50.691
1430.00,50.689
1431.00,50.710
1432.00,50.727
1433.00,50.760
1434.00,50.737
1435.00,50.781
1436.00,50.785
1437.00,50.791
1438.00,50.810
1439.00,50.829
1440.00,50.847
1441.00,50.835
1442.00,50.847
1443.00,50.897
1444.00,50.905
1445.00,50.887
1446.00,50.902
1447.00,50.930
1448.00,50.959
1449.00,50.974
1450.00,50.966
1451.00,50.984
1452.00,51.009
1453.00,51.006
1454.00,51.017
1455.00,51.040
1456.00,51.068
1457.00,51.066
1458.00,51.086
1459.00,51.100
1460.00,51.127
1461.00,51.130
1462.00,51.152
1463.00,51.170
1464.00,51.168
1465.00,51.201
1466.00,51.211
1467.00,51.229
1468.00,51.257
1469.00,51.240
1470.00,51.250
1471.00,51.288
1472.00,51.293
1473.00,51.311
1474.00,51.333
1475.00,51.315
1476.00,51.348
1477.00,51.333
1478.00,51.349
1479.00,51.376
1480.00,51.377
1481.00,51.368
1482.00,51.407
1483.00,51.415
1484.00,51.429
1485.00,51.449
1486.00,51.436
1487.00,51.471
1488.00,51.482
1489.00,51.457
1490.00,51.501
1491.00,51.480
1492.00,51.507
1493.00,51.510
1494.00,51.530
1495.00,51.548
1496.00,51.544
1497.00,51.544
1498.00,51.562
1499.00,51.577
1500.00,51.596
1501.00, 
1502.00, 
1503.00, 
1504.00, 
1505.00, 
1506.00, 
1507.00, 
1508.00, 
1509.00, 
1510.00, 
1511.00, 
1512.00, 
1513.00, 
1514.00, 
1515.00, 
1516.00, 
1517.00, 
1518.00, 
1519.00, 
1520.00, 
1521.00, 
1522.00, 
1523.00, 
1524.00, 
1525.00, 
1526.00, 
1527.00, 
1528.00, 
1529.00, 
1530.00, 
1531.00, 
1532.00, 
1533.00, 
1534.00, 
1535.00, 
1536.00, 
1537.00, 
1538.00, 
1539.00, 
1540.00, 
1541.00, 
1542.00, 
1543.00, 
1544.00, 
1545.00, 
1546.00, 
1547.00, 
1548.00, 
1549.00, 
1550.00, 
1551.00, 
1552.00, 
1553.00, 
1554.00, 
1555.00, 
1556.00, 
1557.00, 
1558.00, 
1559.00, 
1560.00, 
1561.00, 
1562.00, 
1563.00, 
1564.00, 
1565.00, 
1566.00, 
1567.00, 
1568.00, 
1569.00, 
1570.00, 
1571.00, 
1572.00, 
1573.00, 
1574.00, 
1575.00, 
1576.00, 
1577.00, 
1578.00, 
1579.00, 
1580.00, 
1581.00, 
1582.00, 
1583.00, 
1584.00, 
1585.00, 
1586.00, 
1587.00, 
1588.00, 
1589.00, 
1590.00, 
1591.00, 
1592.00, 
1593.00, 
1594.00, 
1595.00, 
1596.00, 
1597.00, 
1598.00, 
1599.00, 
1600.00, 
1601.00, 
1602.00, 
1603.00, 
1604.00, 
1605.00, 
1606.00, 
1607.00, 
1608.00, 
1609.00, 
1610.00, 
1611.00, 
1612.00, 
1613.00, 
1614.00, 
1615.00, 
1616.00, 
1617.00, 
1618.00, 
1619.00, 
1620.00, 
1621.00, 
1622.00, 
1623.00, 
1624.00, 
1625.00, 
1626.00, 
1627.00, 
1628.00, 
1629.00, 
1630.00, 
1631.00, 
1632.00, 
1633.00, 
1634.00, 
1635.00, 
1636.00, 
1637.00, 
1638.00, 
1639.00, 
1640.00, 
1641.00, 
1642.00, 
1643.00, 
1644.00, 
1645.00, 
1646.00, 
1647.00, 
1648.00, 
1649.00, 
1650.00, 
1651.00, 
1652.00, 
1653.00, 
1654.00, 
1655.00, 
1656.00, 
1657.00, 
1658.00, 
1659.00, 
1660.00, 
1661.00, 
1662.00, 
1663.00, 
1664.00, 
1665.00, 
1666.00, 
1667.00, 
1668.00, 
1669.00, 
1670.00, 
1671.00, 
1672.00, 
1673.00, 
1674.00, 
1675.00, 
1676.00, 
1677.00, 
1678.00, 
1679.00, 
1680.00, 
1681.00, 
1682.00, 
1683.00, 
1684.00, 
1685.00, 
1686.00, 
1687.00, 
1688.00, 
1689.00, 
1690.00, 
1691.00, 
1692.00, 
1693.00, 
1694.00, 
1695.00, 
1696.00, 
1697.00, 
1698.00, 
1699.00, 
1700.00, 
1701.00, 
1702.00, 
1703.00, 
1704.00, 
1705.00, 
1706.00, 
1707.00, 
1708.00, 
1709.00, 
1710.00, 
1711.00, 
1712.00, 
1713.00, 
1714.00, 
1715.00, 
1716.00, 
1717.00, 
1718.00, 
1719.00, 
1720.00, 
1721.00, 
1722.00, 
1723.00, 
1724.00, 
1725.00, 
1726.00, 
1727.00, 
1728.00, 
1729.00, 
1730.00, 
1731.00, 
1732.00, 
1733.00, 
1734.00, 
1735.00, 
1736.00, 
1737.00, 
1738.00, 
1739.00, 
1740.00, 
1741.00, 
1742.00, 
1743.00, 
1744.00, 
1745.00, 
1746.00, 
1747.00, 
1748.00, 
1749.00, 
1750.00, 
1751.00, 
1752.00, 
1753.00, 
1754.00, 
1755.00, 
1756.00, 
1757.00, 
1758.00, 
1759.00, 
1760.00, 
1761.00, 
1762.00, 
1763.00, 
1764.00, 
1765.00, 
1766.00, 
1767.00, 
1768.00, 
1769.00, 
1770.00, 
1771.00, 
1772.00, 
1773.00, 
1774.00, 
1775.00, 
1776.00, 
1777.00, 
1778.00, 
1779.00, 
1780.00, 
1781.00, 
1782.00, 
1783.00, 
1784.00, 
1785.00, 
1786.00, 
1787.00, 
1788.00, 
1789.00, 
1790.00, 
1791.00, 
1792.00, 
1793.00, 
1794.00, 
1795.00, 
1796.00, 
1797.00, 
1798.00, 
1799.00, 
1800.00, 
1801.00, 
1802.00, 
1803.00, 
1804.00, 
1805.00, 
1806.00, 
1807.00, 
1808.00, 
1809.00, 
1810.00, 
1811.00, 
1812.00, 
1813.00, 
1814.00, 
1815.00, 
1816.00, 
1817.00, 
1818.00, 
1819.00, 
1820.00, 
1821.00, 
1822.00, 
1823.00, 
1824.00, 
1825.00, 
1826.00, 
1827.00, 
1828.00, 
1829.00, 
1830.00, 
1831.00, 
1832.00, 
1833.00, 
1834.00, 
1835.00, 
1836.00, 
1837.00, 
1838.00, 
1839.00, 
1840.00, 
1841.00, 
1842.00, 
1843.00, 
1844.00, 
1845.00, 
1846.00, 
1847.00, 
1848.00, 
1849.00, 
1850.00, 
1851.00, 
1852.00, 
1853.00, 
1854.00, 
1855.00, 
1856.00, 
1857.00, 
1858.00, 
1859.00, 
1860.00, 
1861.00, 
1862.00, 
1863.00, 
1864.00, 
1865.00, 
1866.00, 
1867.00, 
1868.00, 
1869.00, 
1870.00, 
1871.00, 
1872.00, 
1873.00, 
1874.00, 
1875.00, 
1876.00, 
1877.00, 
1878.00, 
1879.00, 
1880.00, 
1881.00, 
1882.00, 
1883.00, 
1884.00, 
1885.00, 
1886.00, 
1887.00, 
1888.00, 
1889.00, 
1890.00, 
1891.00, 
1892.00, 
1893.00, 
1894.00, 
1895.00, 
1896.00, 
1897.00, 
1898.00, 
1899.00, 
1900.00, 
1901.00, 
1902.00, 
1903.00, 
1904.00, 
1905.00, 
1906.00, 
1907.00, 
1908.00, 
1909.00, 
1910.00, 
1911.00, 
1912.00, 
1913.00, 
1914.00, 
1915.00, 
1916.00, 
1917.00, 
1918.00, 
1919.00, 
1920.00, 
1921.00, 
1922.00, 
1923.00, 
1924.00, 
1925.00, 
1926.00, 
1927.00, 
1928.00, 
1929.00, 
1930.00, 
1931.00, 
1932.00, 
1933.00, 
1934.00, 
1935.00, 
1936.00, 
1937.00, 
1938.00, 
1939.00, 
1940.00, 
1941.00, 
1942.00, 
1943.00, 
1944.00, 
1945.00, 
1946.00, 
1947.00, 
1948.00, 
1949.00, 
1950.00, 
1951.00, 
1952.00, 
1953.00, 
1954.00, 
1955.00, 
1956.00, 
1957.00, 
1958.00, 
1959.00, 
1960.00, 
1961.00, 
1962.00, 
1963.00, 
1964.00, 
1965.00, 
1966.00, 
1967.00, 
1968.00, 
1969.00, 
1970.00, 
1971.00, 
1972.00, 
1973.00, 
1974.00, 
1975.00, 
1976.00, 
1977.00, 
1978.00, 
1979.00, 
1980.00, 
1981.00, 
1982.00, 
1983.00, 
1984.00, 
1985.00, 
1986.00, 
1987.00, 
1988.00, 
1989.00, 
1990.00, 
1991.00, 
1992.00, 
1993.00, 
1994.00, 
1995.00, 
1996.00, 
1997.00, 
1998.00, 
1999.00, 
2000.00, 
2001.00, 
2002.00, 
2003.00, 
2004.00, 
2005.00, 
2006.00, 
2007.00, 
2008.00, 
2009.00, 
2010.00, 
2011.00, 
2012.00, 
2013.00, 
2014.00, 
2015.00, 
2016.00, 
2017.00, 
2018.00, 
2019.00, 
2020.00, 
2021.00, 
2022.00, 
2023.00, 
2024.00, 
2025.00, 
2026.00, 
2027.00, 
2028.00, 
2029.00, 
2030.00, 
2031.00, 
2032.00, 
2033.00, 
2034.00, 
2035.00, 
2036.00, 
2037.00, 
2038.00, 
2039.00, 
2040.00, 
2041.00, 
2042.00, 
2043.00, 
2044.00, 
2045.00, 
2046.00, 
2047.00, 
2048.00, 
2049.00, 
2050.00, 
2051.00, 
2052.00, 
2053.00, 
2054.00, 
2055.00, 
2056.00, 
2057.00, 
2058.00, 
2059.00, 
2060.00, 
2061.00, 
2062.00, 
2063.00, 
2064.00, 
2065.00, 
2066.00, 
2067.00, 
2068.00, 
2069.00, 
2070.00, 
2071.00, 
2072.00, 
2073.00, 
2074.00, 
2075.00, 
2076.00, 
2077.00, 
2078.00, 
2079.00, 
2080.00, 
2081.00, 
2082.00, 
2083.00, 
2084.00, 
2085.00, 
2086.00, 
2087.00, 
2088.00, 
2089.00, 
2090.00, 
2091.00, 
2092.00, 
2093.00, 
2094.00, 
2095.00, 
2096.00, 
2097.00, 
2098.00, 
2099.00, 
2100.00, 
2101.00, 
2102.00, 
2103.00, 
2104.00, 
2105.00, 
2106.00, 
2107.00, 
2108.00, 
2109.00, 
2110.00, 
2111.00, 
2112.00, 
2113.00, 
2114.00, 
2115.00, 
2116.00, 
2117.00, 
2118.00, 
2119.00, 
2120.00, 
2121.00, 
2122.00, 
2123.00, 
2124.00, 
2125.00, 
2126.00, 
2127.00, 
2128.00, 
2129.00, 
2130.00, 
2131.00, 
2132.00, 
2133.00, 
2134.00, 
2135.00, 
2136.00, 
2137.00, 
2138.00, 
2139.00, 
2140.00, 
2141.00, 
2142.00, 
2143.00, 
2144.00, 
2145.00, 
2146.00, 
2147.00, 
2148.00, 
2149.00, 
2150.00, 
2151.00, 
2152.00, 
2153.00, 
2154.00, 
2155.00, 
2156.00, 
2157.00, 
2158.00, 
2159.00, 
2160.00, 
2161.00, 
2162.00, 
2163.00, 
2164.00, 
2165.00, 
2166.00, 
2167.00, 
2168.00, 
2169.00, 
2170.00, 
2171.00, 
2172.00, 
2173.00, 
2174.00, 
2175.00, 
2176.00, 
2177.00, 
2178.00, 
2179.00, 
2180.00, 
2181.00, 
2182.00, 
2183.00, 
2184.00, 
2185.00, 
2186.00, 
2187.00, 
2188.00, 
2189.00, 
2190.00, 
2191.00, 
2192.00, 
2193.00, 
2194.00, 
2195.00, 
2196.00, 
2197.00, 
2198.00, 
2199.00, 
2200.00, 
2201.00, 
2202.00, 
2203.00, 
2204.00, 
2205.00, 
2206.00, 
2207.00, 
2208.00, 
2209.00, 
2210.00, 
2211.00, 
2212.00, 
2213.00, 
2214.00, 
2215.00, 
2216.00, 
2217.00, 
2218.00, 
2219.00, 
2220.00, 
2221.00, 
2222.00, 
2223.00, 
2224.00, 
2225.00, 
2226.00, 
2227.00, 
2228.00, 
2229.00, 
2230.00, 
2231.00, 
2232.00, 
2233.00, 
2234.00, 
2235.00, 
2236.00, 
2237.00, 
2238.00, 
2239.00, 
2240.00, 
2241.00, 
2242.00, 
2243.00, 
2244.00, 
2245.00, 
2246.00, 
2247.00, 
2248.00, 
2249.00, 
2250.00, 
2251.00, 
2252.00, 
2253.00, 
2254.00, 
2255.00, 
2256.00, 
2257.00, 
2258.00, 
2259.00, 
2260.00, 
2261.00, 
2262.00, 
2263.00, 
2264.00, 
2265.00, 
2266.00, 
2267.00, 
2268.00, 
2269.00, 
2270.00, 
2271.00, 
2272.00, 
2273.00, 
2274.00, 
2275.00, 
2276.00, 
2277.00, 
2278.00, 
2279.00, 
2280.00, 
2281.00, 
2282.00, 
2283.00, 
2284.00, 
2285.00, 
2286.00, 
2287.00, 
2288.00, 
2289.00, 
2290.00, 
2291.00, 
2292.00, 
2293.00, 
2294.00, 
2295.00, 
2296.00, 
2297.00, 
2298.00, 
2299.00, 
2300.00, 
2301.00, 
2302.00, 
2303.00, 
2304.00, 
2305.00, 
2306.00, 
2307.00, 
2308.00, 
2309.00, 
2310.00, 
2311.00, 
2312.00, 
2313.00, 
2314.00, 
2315.00, 
2316.00, 
2317.00, 
2318.00, 
2319.00, 
2320.00, 
2321.00, 
2322.00, 
2323.00, 
2324.00, 
2325.00, 
2326.00, 
2327.00, 
2328.00, 
2329.00, 
2330.00, 
2331.00, 
2332.00, 
2333.00, 
2334.00, 
2335.00, 
2336.00, 
2337.00, 
2338.00, 
2339.00, 
2340.00, 
2341.00, 
2342.00, 
2343.00, 
2344.00, 
2345.00, 
2346.00, 
2347.00, 
2348.00, 
2349.00, 
2350.00, 
2351.00, 
2352.00, 
2353.00, 
2354.00, 
2355.00, 
2356.00, 
2357.00, 
2358.00, 
2359.00, 
2360.00, 
2361.00, 
2362.00, 
2363.00, 
2364.00, 
2365.00, 
2366.00, 
2367.00, 
2368.00, 
2369.00, 
2370.00, 
2371.00, 
2372.00, 
2373.00, 
2374.00, 
2375.00, 
2376.00, 
2377.00, 
2378.00, 
2379.00, 
2380.00, 
2381.00, 
2382.00, 
2383.00, 
2384.00, 
2385.00, 
2386.00, 
2387.00, 
2388.00, 
2389.00, 
2390.00, 
2391.00, 
2392.00, 
2393.00, 
2394.00, 
2395.00, 
2396.00, 
2397.00, 
2398.00, 
2399.00, 
2400.00, 
2401.00, 
2402.00, 
2403.00, 
2404.00, 
2405.00, 
2406.00, 
2407.00, 
2408.00, 
2409.00, 
2410.00, 
2411.00, 
2412.00, 
2413.00, 
2414.00, 
2415.00, 
2416.00, 
2417.00, 
2418.00, 
2419.00, 
2420.00, 
2421.00, 
2422.00, 
2423.00, 
2424.00, 
2425.00, 
2426.00, 
2427.00, 
2428.00, 
2429.00, 
2430.00, 
2431.00, 
2432.00, 
2433.00, 
2434.00, 
2435.00, 
2436.00, 
2437.00, 
2438.00, 
2439.00, 
2440.00, 
2441.00, 
2442.00, 
2443.00, 
2444.00, 
2445.00, 
2446.00, 
2447.00, 
2448.00, 
2449.00, 
2450.00, 
2451.00, 
2452.00, 
2453.00, 
2454.00, 
2455.00, 
2456.00, 
2457.00, 
2458.00, 
2459.00, 
2460.00, 
2461.00, 
2462.00, 
2463.00, 
2464.00, 
2465.00, 
2466.00, 
2467.00, 
2468.00, 
2469.00, 
2470.00, 
2471.00, 
2472.00, 
2473.00, 
2474.00, 
2475.00, 
2476.00, 
2477.00, 
2478.00, 
2479.00, 
2480.00, 
2481.00, 
2482.00, 
2483.00, 
2484.00, 
2485.00, 
2486.00, 
2487.00, 
2488.00, 
2489.00, 
2490.00, 
2491.00, 
2492.00, 
2493.00, 
2494.00, 
2495.00, 
2496.00, 
2497.00, 
2498.00, 
2499.00, 
2500.00, 
2501.00, 
2502.00, 
2503.00, 
2504.00, 
2505.00, 
2506.00, 
2507.00, 
2508.00, 
2509.00, 
2510.00, 
2511.00, 
2512.00, 
2513.00, 
2514.00, 
2515.00, 
2516.00, 
2517.00, 
2518.00, 
2519.00, 
2520.00, 
2521.00, 
2522.00, 
2523.00, 
2524.00, 
2525.00, 
2526.00, 
2527.00, 
2528.00, 
2529.00, 
2530.00, 
2531.00, 
2532.00, 
2533.00, 
2534.00, 
2535.00, 
2536.00, 
2537.00, 
2538.00, 
2539.00, 
2540.00, 
2541.00, 
2542.00, 
2543.00, 
2544.00, 
2545.00, 
2546.00, 
2547.00, 
2548.00, 
2549.00, 
2550.00, 
2551.00, 
2552.00, 
2553.00, 
2554.00, 
2555.00, 
2556.00, 
2557.00, 
2558.00, 
2559.00, 
2560.00, 
2561.00, 
2562.00, 
2563.00, 
2564.00, 
2565.00, 
2566.00, 
2567.00, 
2568.00, 
2569.00, 
2570.00, 
2571.00, 
2572.00, 
2573.00, 
2574.00, 
2575.00, 
2576.00, 
2577.00, 
2578.00, 
2579.00, 
2580.00, 
2581.00, 
2582.00, 
2583.00, 
2584.00, 
2585.00, 
2586.00, 
2587.00, 
2588.00, 
2589.00, 
2590.00, 
2591.00, 
2592.00, 
2593.00, 
2594.00, 
2595.00, 
2596.00, 
2597.00, 
2598.00, 
2599.00, 
2600.00, 
