"2cP3 - RawData"
"Wavelength nm.","T%"
200.00,0.003
201.00,0.000
202.00,0.002
203.00,0.001
204.00,0.001
205.00,0.003
206.00,0.002
207.00,0.001
208.00,0.003
209.00,0.002
210.00,0.003
211.00,0.003
212.00,0.001
213.00,-0.001
214.00,0.000
215.00,0.002
216.00,0.001
217.00,-0.000
218.00,0.003
219.00,0.000
220.00,0.001
221.00,0.002
222.00,-0.002
223.00,0.001
224.00,-0.001
225.00,-0.001
226.00,-0.002
227.00,-0.001
228.00,-0.001
229.00,0.002
230.00,-0.002
231.00,-0.000
232.00,-0.001
233.00,0.000
234.00,0.001
235.00,-0.000
236.00,0.001
237.00,0.003
238.00,0.001
239.00,-0.001
240.00,-0.001
241.00,0.001
242.00,0.002
243.00,0.002
244.00,0.000
245.00,-0.000
246.00,0.000
247.00,-0.001
248.00,0.001
249.00,0.000
250.00,0.000
251.00,0.002
252.00,0.002
253.00,-0.000
254.00,-0.000
255.00,0.002
256.00,-0.001
257.00,0.000
258.00,-0.000
259.00,-0.001
260.00,0.001
261.00,-0.000
262.00,0.000
263.00,0.002
264.00,0.000
265.00,-0.001
266.00,0.000
267.00,0.000
268.00,-0.000
269.00,-0.000
270.00,0.000
271.00,-0.001
272.00,0.001
273.00,-0.001
274.00,0.001
275.00,0.001
276.00,-0.001
277.00,0.001
278.00,-0.001
279.00,-0.001
280.00,-0.000
281.00,0.000
282.00,0.001
283.00,-0.001
284.00,-0.000
285.00,0.001
286.00,0.001
287.00,0.002
288.00,0.002
289.00,-0.000
290.00,0.000
291.00,0.001
292.00,-0.001
293.00,0.000
294.00,0.001
295.00,-0.000
296.00,-0.000
297.00,0.000
298.00,0.001
299.00,0.002
300.00,0.001
301.00,0.003
302.00,0.004
303.00,0.008
304.00,0.010
305.00,0.017
306.00,0.027
307.00,0.040
308.00,0.057
309.00,0.095
310.00,0.129
311.00,0.168
312.00,0.241
313.00,0.323
314.00,0.432
315.00,0.555
316.00,0.719
317.00,0.904
318.00,1.121
319.00,1.367
320.00,1.655
321.00,1.996
322.00,2.357
323.00,2.789
324.00,3.224
325.00,3.655
326.00,4.158
327.00,4.680
328.00,5.221
329.00,5.795
330.00,6.349
331.00,6.946
332.00,7.557
333.00,8.216
334.00,8.722
335.00,9.465
336.00,10.067
337.00,10.672
338.00,11.285
339.00,11.841
340.00,12.421
341.00,12.988
342.00,13.538
343.00,14.074
344.00,14.551
345.00,15.044
346.00,15.432
347.00,15.881
348.00,16.286
349.00,16.644
350.00,16.993
351.00,17.291
352.00,17.631
353.00,17.967
354.00,18.214
355.00,18.445
356.00,18.741
357.00,18.947
358.00,19.161
359.00,19.346
360.00,19.521
361.00,19.660
362.00,19.799
363.00,19.947
364.00,20.083
365.00,20.224
366.00,20.306
367.00,20.348
368.00,20.398
369.00,20.485
370.00,20.530
371.00,20.569
372.00,20.592
373.00,20.601
374.00,20.562
375.00,20.566
376.00,20.560
377.00,20.509
378.00,20.464
379.00,20.393
380.00,20.396
381.00,20.379
382.00,20.377
383.00,20.358
384.00,20.413
385.00,20.401
386.00,20.430
387.00,20.477
388.00,20.516
389.00,20.526
390.00,20.576
391.00,20.602
392.00,20.604
393.00,20.626
394.00,20.627
395.00,20.618
396.00,20.575
397.00,20.630
398.00,20.599
399.00,20.605
400.00,20.634
401.00,20.588
402.00,20.629
403.00,20.585
404.00,20.610
405.00,20.590
406.00,20.574
407.00,20.560
408.00,20.551
409.00,20.499
410.00,20.468
411.00,20.453
412.00,20.392
413.00,20.449
414.00,20.441
415.00,20.447
416.00,20.477
417.00,20.510
418.00,20.497
419.00,20.531
420.00,20.536
421.00,20.634
422.00,20.632
423.00,20.631
424.00,20.674
425.00,20.694
426.00,20.737
427.00,20.756
428.00,20.822
429.00,20.849
430.00,20.857
431.00,20.941
432.00,20.960
433.00,21.013
434.00,21.056
435.00,21.101
436.00,21.160
437.00,21.229
438.00,21.262
439.00,21.325
440.00,21.384
441.00,21.443
442.00,21.543
443.00,21.603
444.00,21.684
445.00,21.664
446.00,21.860
447.00,21.933
448.00,22.053
449.00,22.147
450.00,22.216
451.00,22.323
452.00,22.411
453.00,22.532
454.00,22.616
455.00,22.731
456.00,22.834
457.00,22.946
458.00,23.037
459.00,23.102
460.00,23.256
461.00,23.326
462.00,23.446
463.00,23.566
464.00,23.716
465.00,23.790
466.00,23.855
467.00,24.004
468.00,24.122
469.00,24.247
470.00,24.306
471.00,24.464
472.00,24.536
473.00,24.622
474.00,24.715
475.00,24.807
476.00,24.985
477.00,25.100
478.00,25.217
479.00,25.383
480.00,25.501
481.00,25.608
482.00,25.760
483.00,25.898
484.00,26.045
485.00,26.210
486.00,26.345
487.00,26.489
488.00,26.628
489.00,26.786
490.00,26.919
491.00,27.082
492.00,27.249
493.00,27.374
494.00,27.469
495.00,27.509
496.00,27.662
497.00,27.770
498.00,27.923
499.00,28.069
500.00,28.159
501.00,28.293
502.00,28.452
503.00,28.534
504.00,28.635
505.00,28.792
506.00,28.924
507.00,29.015
508.00,29.128
509.00,29.270
510.00,29.387
511.00,29.510
512.00,29.664
513.00,29.741
514.00,29.899
515.00,29.999
516.00,30.123
517.00,30.240
518.00,30.347
519.00,30.441
520.00,30.548
521.00,30.649
522.00,30.713
523.00,30.816
524.00,30.922
525.00,31.008
526.00,31.124
527.00,31.230
528.00,31.316
529.00,31.433
530.00,31.513
531.00,31.682
532.00,31.746
533.00,31.849
534.00,31.968
535.00,32.042
536.00,32.131
537.00,32.225
538.00,32.344
539.00,32.379
540.00,32.435
541.00,32.549
542.00,32.590
543.00,32.694
544.00,32.818
545.00,32.891
546.00,32.885
547.00,33.022
548.00,33.102
549.00,33.174
550.00,33.263
551.00,33.350
552.00,33.432
553.00,33.516
554.00,33.616
555.00,33.656
556.00,33.697
557.00,33.761
558.00,33.828
559.00,33.925
560.00,33.981
561.00,34.086
562.00,34.165
563.00,34.170
564.00,34.270
565.00,34.265
566.00,34.300
567.00,34.355
568.00,34.350
569.00,34.405
570.00,34.459
571.00,34.577
572.00,34.597
573.00,34.658
574.00,34.725
575.00,34.737
576.00,34.753
577.00,34.836
578.00,34.917
579.00,34.974
580.00,35.071
581.00,35.216
582.00,35.215
583.00,35.311
584.00,35.427
585.00,35.425
586.00,35.523
587.00,35.576
588.00,35.611
589.00,35.648
590.00,35.617
591.00,35.715
592.00,35.724
593.00,35.807
594.00,35.951
595.00,35.908
596.00,35.954
597.00,36.031
598.00,36.093
599.00,36.056
600.00,36.146
601.00,36.240
602.00,36.364
603.00,36.439
604.00,36.481
605.00,36.434
606.00,36.517
607.00,36.560
608.00,36.741
609.00,36.733
610.00,36.725
611.00,36.807
612.00,36.758
613.00,36.881
614.00,36.856
615.00,36.861
616.00,36.958
617.00,36.984
618.00,37.180
619.00,37.269
620.00,37.313
621.00,37.356
622.00,37.413
623.00,37.481
624.00,37.612
625.00,37.642
626.00,37.676
627.00,37.803
628.00,37.826
629.00,37.823
630.00,37.915
631.00,38.003
632.00,38.076
633.00,38.097
634.00,38.203
635.00,38.274
636.00,38.353
637.00,38.477
638.00,38.568
639.00,38.613
640.00,38.685
641.00,38.675
642.00,38.690
643.00,38.878
644.00,38.976
645.00,39.008
646.00,39.171
647.00,39.159
648.00,39.220
649.00,39.399
650.00,39.405
651.00,39.532
652.00,39.597
653.00,39.662
654.00,39.764
655.00,39.765
656.00,39.896
657.00,40.056
658.00,40.151
659.00,40.152
660.00,40.347
661.00,40.367
662.00,40.457
663.00,40.537
664.00,40.652
665.00,40.784
666.00,40.491
667.00,40.692
668.00,41.106
669.00,41.395
670.00,41.261
671.00,41.283
672.00,41.297
673.00,41.573
674.00,41.705
675.00,41.740
676.00,41.775
677.00,41.880
678.00,41.794
679.00,41.976
680.00,42.138
681.00,42.263
682.00,42.196
683.00,42.339
684.00,42.549
685.00,42.590
686.00,42.539
687.00,42.697
688.00,42.805
689.00,42.805
690.00,42.986
691.00,43.110
692.00,43.051
693.00,43.135
694.00,43.193
695.00,43.324
696.00,43.392
697.00,43.452
698.00,43.581
699.00,43.800
700.00,43.923
701.00,43.843
702.00,44.071
703.00,44.105
704.00,44.242
705.00,44.273
706.00,44.325
707.00,44.360
708.00,44.415
709.00,44.634
710.00,44.668
711.00,44.676
712.00,44.681
713.00,44.809
714.00,44.785
715.00,45.026
716.00,44.914
717.00,45.134
718.00,45.111
719.00,45.155
720.00,45.293
721.00,49.504
722.00,49.467
723.00,49.467
724.00,49.525
725.00,49.493
726.00,49.546
727.00,49.555
728.00,49.502
729.00,49.650
730.00,49.668
731.00,49.741
732.00,49.777
733.00,49.806
734.00,49.837
735.00,49.847
736.00,49.885
737.00,49.917
738.00,49.964
739.00,49.979
740.00,50.019
741.00,50.110
742.00,50.066
743.00,50.131
744.00,50.063
745.00,50.044
746.00,50.105
747.00,50.123
748.00,50.047
749.00,50.038
750.00,50.136
751.00,50.081
752.00,50.114
753.00,50.161
754.00,50.205
755.00,50.158
756.00,50.195
757.00,50.186
758.00,50.228
759.00,50.225
760.00,50.146
761.00,50.286
762.00,50.237
763.00,50.239
764.00,50.327
765.00,50.312
766.00,50.292
767.00,50.320
768.00,50.330
769.00,50.419
770.00,50.394
771.00,50.330
772.00,50.408
773.00,50.456
774.00,50.512
775.00,50.429
776.00,50.389
777.00,50.408
778.00,50.416
779.00,50.415
780.00,50.456
781.00,50.503
782.00,50.513
783.00,50.493
784.00,50.476
785.00,50.464
786.00,50.492
787.00,50.551
788.00,50.383
789.00,50.466
790.00,50.394
791.00,50.456
792.00,50.491
793.00,50.448
794.00,50.417
795.00,50.448
796.00,50.427
797.00,50.460
798.00,50.440
799.00,50.398
800.00,50.342
801.00,50.364
802.00,50.397
803.00,50.371
804.00,50.269
805.00,50.325
806.00,50.324
807.00,50.332
808.00,50.258
809.00,50.259
810.00,50.245
811.00,50.207
812.00,50.281
813.00,50.190
814.00,50.244
815.00,50.227
816.00,50.250
817.00,50.113
818.00,50.230
819.00,50.191
820.00,50.140
821.00,50.118
822.00,50.059
823.00,50.035
824.00,50.148
825.00,50.062
826.00,50.064
827.00,50.153
828.00,50.099
829.00,50.008
830.00,50.030
831.00,52.649
832.00,52.646
833.00,52.604
834.00,52.625
835.00,52.577
836.00,52.559
837.00,52.656
838.00,52.508
839.00,52.533
840.00,52.453
841.00,52.491
842.00,52.466
843.00,52.443
844.00,52.445
845.00,52.355
846.00,52.418
847.00,52.377
848.00,52.325
849.00,52.303
850.00,52.277
851.00,52.176
852.00,52.245
853.00,52.137
854.00,52.137
855.00,52.121
856.00,52.136
857.00,52.020
858.00,52.061
859.00,52.042
860.00,52.053
861.00,52.008
862.00,51.971
863.00,51.991
864.00,51.986
865.00,51.972
866.00,51.913
867.00,51.906
868.00,51.917
869.00,51.875
870.00,51.890
871.00,51.888
872.00,51.912
873.00,51.869
874.00,51.853
875.00,51.869
876.00,51.901
877.00,51.847
878.00,51.829
879.00,51.959
880.00,51.829
881.00,51.807
882.00,51.811
883.00,51.732
884.00,51.715
885.00,51.674
886.00,51.679
887.00,51.685
888.00,51.646
889.00,51.657
890.00,51.646
891.00,51.610
892.00,51.581
893.00,51.549
894.00,51.559
895.00,51.521
896.00,51.468
897.00,51.469
898.00,51.451
899.00,51.445
900.00,51.416
901.00,51.375
902.00,51.502
903.00,51.396
904.00,51.382
905.00,51.361
906.00,51.371
907.00,51.342
908.00,51.305
909.00,51.321
910.00,51.261
911.00,51.277
912.00,51.269
913.00,51.209
914.00,51.218
915.00,51.170
916.00,51.156
917.00,51.119
918.00,51.146
919.00,51.110
920.00,51.063
921.00,51.063
922.00,51.052
923.00,51.028
924.00,50.993
925.00,50.968
926.00,50.973
927.00,50.966
928.00,50.925
929.00,50.935
930.00,50.902
931.00,50.910
932.00,50.844
933.00,50.860
934.00,50.840
935.00,50.796
936.00,50.765
937.00,50.781
938.00,50.757
939.00,50.750
940.00,50.716
941.00,50.731
942.00,50.674
943.00,50.667
944.00,50.628
945.00,50.644
946.00,50.623
947.00,50.594
948.00,50.566
949.00,50.522
950.00,50.511
951.00,50.496
952.00,50.467
953.00,50.435
954.00,50.437
955.00,50.382
956.00,50.396
957.00,50.328
958.00,50.355
959.00,50.363
960.00,50.299
961.00,50.267
962.00,50.272
963.00,50.233
964.00,50.226
965.00,50.231
966.00,50.218
967.00,50.226
968.00,50.188
969.00,50.224
970.00,50.203
971.00,50.209
972.00,50.169
973.00,50.203
974.00,50.222
975.00,50.194
976.00,50.211
977.00,50.195
978.00,50.237
979.00,50.206
980.00,50.173
981.00,50.202
982.00,50.174
983.00,50.198
984.00,50.164
985.00,50.190
986.00,50.135
987.00,50.160
988.00,50.132
989.00,50.122
990.00,50.114
991.00,50.082
992.00,50.116
993.00,50.057
994.00,50.048
995.00,50.112
996.00,50.019
997.00,50.025
998.00,49.997
999.00,50.005
1000.00,49.950
1001.00,49.969
1002.00,49.960
1003.00,49.948
1004.00,49.936
1005.00,49.890
1006.00,49.930
1007.00,49.898
1008.00,49.878
1009.00,49.890
1010.00,49.852
1011.00,49.859
1012.00,49.808
1013.00,49.836
1014.00,49.796
1015.00,49.804
1016.00,49.767
1017.00,49.761
1018.00,49.761
1019.00,49.702
1020.00,49.727
1021.00,49.694
1022.00,49.687
1023.00,49.639
1024.00,49.650
1025.00,49.654
1026.00,49.623
1027.00,49.602
1028.00,49.586
1029.00,49.587
1030.00,49.544
1031.00,49.560
1032.00,49.506
1033.00,49.515
1034.00,49.494
1035.00,49.449
1036.00,49.452
1037.00,49.409
1038.00,49.400
1039.00,49.365
1040.00,49.377
1041.00,49.317
1042.00,49.321
1043.00,49.287
1044.00,49.320
1045.00,49.306
1046.00,49.292
1047.00,49.320
1048.00,49.326
1049.00,49.330
1050.00,49.336
1051.00,49.370
1052.00,49.360
1053.00,49.374
1054.00,49.387
1055.00,49.399
1056.00,49.397
1057.00,49.399
1058.00,49.396
1059.00,49.394
1060.00,49.389
1061.00,49.382
1062.00,49.361
1063.00,49.374
1064.00,49.375
1065.00,49.339
1066.00,49.340
1067.00,49.326
1068.00,49.348
1069.00,49.315
1070.00,49.301
1071.00,49.280
1072.00,49.295
1073.00,49.253
1074.00,49.264
1075.00,49.254
1076.00,49.243
1077.00,49.226
1078.00,49.219
1079.00,49.211
1080.00,49.223
1081.00,49.207
1082.00,49.190
1083.00,49.187
1084.00,49.172
1085.00,49.152
1086.00,49.159
1087.00,49.134
1088.00,49.129
1089.00,49.110
1090.00,49.101
1091.00,49.104
1092.00,49.093
1093.00,49.074
1094.00,49.065
1095.00,49.044
1096.00,49.036
1097.00,49.045
1098.00,49.046
1099.00,49.034
1100.00,49.012
1101.00,48.993
1102.00,48.993
1103.00,48.994
1104.00,48.978
1105.00,48.957
1106.00,48.946
1107.00,48.958
1108.00,48.957
1109.00,48.935
1110.00,48.925
1111.00,48.925
1112.00,48.904
1113.00,48.899
1114.00,48.889
1115.00,48.895
1116.00,48.889
1117.00,48.870
1118.00,48.864
1119.00,48.860
1120.00,48.839
1121.00,48.831
1122.00,48.818
1123.00,48.811
1124.00,48.810
1125.00,48.796
1126.00,48.791
1127.00,48.806
1128.00,48.786
1129.00,48.770
1130.00,48.766
1131.00,48.757
1132.00,48.749
1133.00,48.741
1134.00,48.726
1135.00,48.731
1136.00,48.721
1137.00,48.723
1138.00,48.729
1139.00,48.723
1140.00,48.711
1141.00,48.699
1142.00,48.696
1143.00,48.707
1144.00,48.686
1145.00,48.677
1146.00,48.680
1147.00,48.677
1148.00,48.662
1149.00,48.680
1150.00,48.659
1151.00,48.671
1152.00,48.654
1153.00,48.650
1154.00,48.642
1155.00,48.648
1156.00,48.625
1157.00,48.638
1158.00,48.622
1159.00,48.619
1160.00,48.619
1161.00,48.616
1162.00,48.605
1163.00,48.624
1164.00,48.610
1165.00,48.591
1166.00,48.593
1167.00,48.579
1168.00,48.596
1169.00,48.587
1170.00,48.593
1171.00,48.570
1172.00,48.565
1173.00,48.560
1174.00,48.577
1175.00,48.570
1176.00,48.567
1177.00,48.567
1178.00,48.557
1179.00,48.581
1180.00,48.556
1181.00,48.564
1182.00,48.560
1183.00,48.554
1184.00,48.537
1185.00,48.556
1186.00,48.533
1187.00,48.544
1188.00,48.534
1189.00,48.528
1190.00,48.530
1191.00,48.523
1192.00,48.537
1193.00,48.540
1194.00,48.542
1195.00,48.517
1196.00,48.543
1197.00,48.534
1198.00,48.522
1199.00,48.521
1200.00,48.512
1201.00,48.531
1202.00,48.505
1203.00,48.512
1204.00,48.500
1205.00,48.514
1206.00,48.501
1207.00,48.514
1208.00,48.497
1209.00,48.487
1210.00,48.498
1211.00,48.476
1212.00,48.510
1213.00,48.469
1214.00,48.494
1215.00,48.480
1216.00,48.473
1217.00,48.488
1218.00,48.482
1219.00,48.498
1220.00,48.491
1221.00,48.512
1222.00,48.483
1223.00,48.503
1224.00,48.504
1225.00,48.484
1226.00,48.504
1227.00,48.480
1228.00,48.484
1229.00,48.475
1230.00,48.497
1231.00,48.509
1232.00,48.528
1233.00,48.515
1234.00,48.515
1235.00,48.514
1236.00,48.511
1237.00,48.514
1238.00,48.513
1239.00,48.524
1240.00,48.520
1241.00,48.533
1242.00,48.525
1243.00,48.549
1244.00,48.514
1245.00,48.548
1246.00,48.549
1247.00,48.534
1248.00,48.544
1249.00,48.543
1250.00,48.545
1251.00,48.542
1252.00,48.554
1253.00,48.542
1254.00,48.582
1255.00,48.549
1256.00,48.557
1257.00,48.526
1258.00,48.559
1259.00,48.571
1260.00,48.582
1261.00,48.568
1262.00,48.573
1263.00,48.570
1264.00,48.586
1265.00,48.579
1266.00,48.590
1267.00,48.584
1268.00,48.610
1269.00,48.598
1270.00,48.617
1271.00,48.613
1272.00,48.603
1273.00,48.625
1274.00,48.627
1275.00,48.611
1276.00,48.615
1277.00,48.614
1278.00,48.646
1279.00,48.628
1280.00,48.643
1281.00,48.646
1282.00,48.653
1283.00,48.635
1284.00,48.660
1285.00,48.629
1286.00,48.647
1287.00,48.646
1288.00,48.645
1289.00,48.656
1290.00,48.681
1291.00,48.667
1292.00,48.681
1293.00,48.667
1294.00,48.692
1295.00,48.692
1296.00,48.690
1297.00,48.700
1298.00,48.714
1299.00,48.702
1300.00,48.720
1301.00,48.712
1302.00,48.710
1303.00,48.739
1304.00,48.713
1305.00,48.724
1306.00,48.739
1307.00,48.745
1308.00,48.729
1309.00,48.746
1310.00,48.746
1311.00,48.756
1312.00,48.743
1313.00,48.745
1314.00,48.758
1315.00,48.762
1316.00,48.760
1317.00,48.790
1318.00,48.778
1319.00,48.789
1320.00,48.817
1321.00,48.955
1322.00,48.966
1323.00,48.937
1324.00,48.945
1325.00,48.932
1326.00,48.960
1327.00,48.945
1328.00,48.952
1329.00,48.935
1330.00,48.964
1331.00,48.945
1332.00,48.962
1333.00,48.943
1334.00,48.982
1335.00,48.983
1336.00,49.025
1337.00,49.044
1338.00,49.097
1339.00,49.153
1340.00,49.194
1341.00,49.276
1342.00,49.343
1343.00,49.364
1344.00,49.388
1345.00,49.478
1346.00,49.534
1347.00,49.545
1348.00,49.575
1349.00,49.593
1350.00,49.615
1351.00,49.623
1352.00,49.621
1353.00,49.640
1354.00,49.648
1355.00,49.583
1356.00,49.642
1357.00,49.644
1358.00,49.652
1359.00,49.674
1360.00,49.745
1361.00,49.677
1362.00,49.613
1363.00,49.730
1364.00,49.690
1365.00,49.643
1366.00,49.726
1367.00,49.665
1368.00,49.572
1369.00,49.628
1370.00,49.649
1371.00,49.609
1372.00,49.631
1373.00,49.620
1374.00,49.660
1375.00,49.594
1376.00,49.605
1377.00,49.608
1378.00,49.671
1379.00,49.642
1380.00,49.608
1381.00,49.648
1382.00,49.554
1383.00,49.597
1384.00,49.531
1385.00,49.552
1386.00,49.622
1387.00,49.573
1388.00,49.531
1389.00,49.573
1390.00,49.619
1391.00,49.565
1392.00,49.577
1393.00,49.635
1394.00,49.560
1395.00,49.553
1396.00,49.518
1397.00,49.608
1398.00,49.606
1399.00,49.572
1400.00,49.530
1401.00,49.538
1402.00,49.581
1403.00,49.615
1404.00,49.558
1405.00,49.587
1406.00,49.611
1407.00,49.642
1408.00,49.661
1409.00,49.625
1410.00,49.664
1411.00,49.646
1412.00,49.711
1413.00,49.658
1414.00,49.645
1415.00,49.682
1416.00,49.715
1417.00,49.730
1418.00,49.710
1419.00,49.701
1420.00,49.720
1421.00,49.770
1422.00,49.753
1423.00,49.761
1424.00,49.777
1425.00,49.797
1426.00,49.805
1427.00,49.826
1428.00,49.810
1429.00,49.852
1430.00,49.844
1431.00,49.865
1432.00,49.868
1433.00,49.902
1434.00,49.881
1435.00,49.925
1436.00,49.942
1437.00,49.932
1438.00,49.949
1439.00,49.978
1440.00,49.996
1441.00,49.996
1442.00,50.008
1443.00,50.055
1444.00,50.077
1445.00,50.043
1446.00,50.051
1447.00,50.086
1448.00,50.112
1449.00,50.132
1450.00,50.134
1451.00,50.154
1452.00,50.160
1453.00,50.171
1454.00,50.179
1455.00,50.198
1456.00,50.213
1457.00,50.214
1458.00,50.242
1459.00,50.245
1460.00,50.257
1461.00,50.273
1462.00,50.288
1463.00,50.307
1464.00,50.307
1465.00,50.336
1466.00,50.339
1467.00,50.351
1468.00,50.405
1469.00,50.382
1470.00,50.402
1471.00,50.416
1472.00,50.432
1473.00,50.440
1474.00,50.475
1475.00,50.471
1476.00,50.484
1477.00,50.483
1478.00,50.505
1479.00,50.515
1480.00,50.522
1481.00,50.521
1482.00,50.554
1483.00,50.561
1484.00,50.568
1485.00,50.596
1486.00,50.588
1487.00,50.604
1488.00,50.618
1489.00,50.602
1490.00,50.633
1491.00,50.619
1492.00,50.656
1493.00,50.636
1494.00,50.663
1495.00,50.670
1496.00,50.679
1497.00,50.691
1498.00,50.686
1499.00,50.707
1500.00,50.734
1501.00, 
1502.00, 
1503.00, 
1504.00, 
1505.00, 
1506.00, 
1507.00, 
1508.00, 
1509.00, 
1510.00, 
1511.00, 
1512.00, 
1513.00, 
1514.00, 
1515.00, 
1516.00, 
1517.00, 
1518.00, 
1519.00, 
1520.00, 
1521.00, 
1522.00, 
1523.00, 
1524.00, 
1525.00, 
1526.00, 
1527.00, 
1528.00, 
1529.00, 
1530.00, 
1531.00, 
1532.00, 
1533.00, 
1534.00, 
1535.00, 
1536.00, 
1537.00, 
1538.00, 
1539.00, 
1540.00, 
1541.00, 
1542.00, 
1543.00, 
1544.00, 
1545.00, 
1546.00, 
1547.00, 
1548.00, 
1549.00, 
1550.00, 
1551.00, 
1552.00, 
1553.00, 
1554.00, 
1555.00, 
1556.00, 
1557.00, 
1558.00, 
1559.00, 
1560.00, 
1561.00, 
1562.00, 
1563.00, 
1564.00, 
1565.00, 
1566.00, 
1567.00, 
1568.00, 
1569.00, 
1570.00, 
1571.00, 
1572.00, 
1573.00, 
1574.00, 
1575.00, 
1576.00, 
1577.00, 
1578.00, 
1579.00, 
1580.00, 
1581.00, 
1582.00, 
1583.00, 
1584.00, 
1585.00, 
1586.00, 
1587.00, 
1588.00, 
1589.00, 
1590.00, 
1591.00, 
1592.00, 
1593.00, 
1594.00, 
1595.00, 
1596.00, 
1597.00, 
1598.00, 
1599.00, 
1600.00, 
1601.00, 
1602.00, 
1603.00, 
1604.00, 
1605.00, 
1606.00, 
1607.00, 
1608.00, 
1609.00, 
1610.00, 
1611.00, 
1612.00, 
1613.00, 
1614.00, 
1615.00, 
1616.00, 
1617.00, 
1618.00, 
1619.00, 
1620.00, 
1621.00, 
1622.00, 
1623.00, 
1624.00, 
1625.00, 
1626.00, 
1627.00, 
1628.00, 
1629.00, 
1630.00, 
1631.00, 
1632.00, 
1633.00, 
1634.00, 
1635.00, 
1636.00, 
1637.00, 
1638.00, 
1639.00, 
1640.00, 
1641.00, 
1642.00, 
1643.00, 
1644.00, 
1645.00, 
1646.00, 
1647.00, 
1648.00, 
1649.00, 
1650.00, 
1651.00, 
1652.00, 
1653.00, 
1654.00, 
1655.00, 
1656.00, 
1657.00, 
1658.00, 
1659.00, 
1660.00, 
1661.00, 
1662.00, 
1663.00, 
1664.00, 
1665.00, 
1666.00, 
1667.00, 
1668.00, 
1669.00, 
1670.00, 
1671.00, 
1672.00, 
1673.00, 
1674.00, 
1675.00, 
1676.00, 
1677.00, 
1678.00, 
1679.00, 
1680.00, 
1681.00, 
1682.00, 
1683.00, 
1684.00, 
1685.00, 
1686.00, 
1687.00, 
1688.00, 
1689.00, 
1690.00, 
1691.00, 
1692.00, 
1693.00, 
1694.00, 
1695.00, 
1696.00, 
1697.00, 
1698.00, 
1699.00, 
1700.00, 
1701.00, 
1702.00, 
1703.00, 
1704.00, 
1705.00, 
1706.00, 
1707.00, 
1708.00, 
1709.00, 
1710.00, 
1711.00, 
1712.00, 
1713.00, 
1714.00, 
1715.00, 
1716.00, 
1717.00, 
1718.00, 
1719.00, 
1720.00, 
1721.00, 
1722.00, 
1723.00, 
1724.00, 
1725.00, 
1726.00, 
1727.00, 
1728.00, 
1729.00, 
1730.00, 
1731.00, 
1732.00, 
1733.00, 
1734.00, 
1735.00, 
1736.00, 
1737.00, 
1738.00, 
1739.00, 
1740.00, 
1741.00, 
1742.00, 
1743.00, 
1744.00, 
1745.00, 
1746.00, 
1747.00, 
1748.00, 
1749.00, 
1750.00, 
1751.00, 
1752.00, 
1753.00, 
1754.00, 
1755.00, 
1756.00, 
1757.00, 
1758.00, 
1759.00, 
1760.00, 
1761.00, 
1762.00, 
1763.00, 
1764.00, 
1765.00, 
1766.00, 
1767.00, 
1768.00, 
1769.00, 
1770.00, 
1771.00, 
1772.00, 
1773.00, 
1774.00, 
1775.00, 
1776.00, 
1777.00, 
1778.00, 
1779.00, 
1780.00, 
1781.00, 
1782.00, 
1783.00, 
1784.00, 
1785.00, 
1786.00, 
1787.00, 
1788.00, 
1789.00, 
1790.00, 
1791.00, 
1792.00, 
1793.00, 
1794.00, 
1795.00, 
1796.00, 
1797.00, 
1798.00, 
1799.00, 
1800.00, 
1801.00, 
1802.00, 
1803.00, 
1804.00, 
1805.00, 
1806.00, 
1807.00, 
1808.00, 
1809.00, 
1810.00, 
1811.00, 
1812.00, 
1813.00, 
1814.00, 
1815.00, 
1816.00, 
1817.00, 
1818.00, 
1819.00, 
1820.00, 
1821.00, 
1822.00, 
1823.00, 
1824.00, 
1825.00, 
1826.00, 
1827.00, 
1828.00, 
1829.00, 
1830.00, 
1831.00, 
1832.00, 
1833.00, 
1834.00, 
1835.00, 
1836.00, 
1837.00, 
1838.00, 
1839.00, 
1840.00, 
1841.00, 
1842.00, 
1843.00, 
1844.00, 
1845.00, 
1846.00, 
1847.00, 
1848.00, 
1849.00, 
1850.00, 
1851.00, 
1852.00, 
1853.00, 
1854.00, 
1855.00, 
1856.00, 
1857.00, 
1858.00, 
1859.00, 
1860.00, 
1861.00, 
1862.00, 
1863.00, 
1864.00, 
1865.00, 
1866.00, 
1867.00, 
1868.00, 
1869.00, 
1870.00, 
1871.00, 
1872.00, 
1873.00, 
1874.00, 
1875.00, 
1876.00, 
1877.00, 
1878.00, 
1879.00, 
1880.00, 
1881.00, 
1882.00, 
1883.00, 
1884.00, 
1885.00, 
1886.00, 
1887.00, 
1888.00, 
1889.00, 
1890.00, 
1891.00, 
1892.00, 
1893.00, 
1894.00, 
1895.00, 
1896.00, 
1897.00, 
1898.00, 
1899.00, 
1900.00, 
1901.00, 
1902.00, 
1903.00, 
1904.00, 
1905.00, 
1906.00, 
1907.00, 
1908.00, 
1909.00, 
1910.00, 
1911.00, 
1912.00, 
1913.00, 
1914.00, 
1915.00, 
1916.00, 
1917.00, 
1918.00, 
1919.00, 
1920.00, 
1921.00, 
1922.00, 
1923.00, 
1924.00, 
1925.00, 
1926.00, 
1927.00, 
1928.00, 
1929.00, 
1930.00, 
1931.00, 
1932.00, 
1933.00, 
1934.00, 
1935.00, 
1936.00, 
1937.00, 
1938.00, 
1939.00, 
1940.00, 
1941.00, 
1942.00, 
1943.00, 
1944.00, 
1945.00, 
1946.00, 
1947.00, 
1948.00, 
1949.00, 
1950.00, 
1951.00, 
1952.00, 
1953.00, 
1954.00, 
1955.00, 
1956.00, 
1957.00, 
1958.00, 
1959.00, 
1960.00, 
1961.00, 
1962.00, 
1963.00, 
1964.00, 
1965.00, 
1966.00, 
1967.00, 
1968.00, 
1969.00, 
1970.00, 
1971.00, 
1972.00, 
1973.00, 
1974.00, 
1975.00, 
1976.00, 
1977.00, 
1978.00, 
1979.00, 
1980.00, 
1981.00, 
1982.00, 
1983.00, 
1984.00, 
1985.00, 
1986.00, 
1987.00, 
1988.00, 
1989.00, 
1990.00, 
1991.00, 
1992.00, 
1993.00, 
1994.00, 
1995.00, 
1996.00, 
1997.00, 
1998.00, 
1999.00, 
2000.00, 
2001.00, 
2002.00, 
2003.00, 
2004.00, 
2005.00, 
2006.00, 
2007.00, 
2008.00, 
2009.00, 
2010.00, 
2011.00, 
2012.00, 
2013.00, 
2014.00, 
2015.00, 
2016.00, 
2017.00, 
2018.00, 
2019.00, 
2020.00, 
2021.00, 
2022.00, 
2023.00, 
2024.00, 
2025.00, 
2026.00, 
2027.00, 
2028.00, 
2029.00, 
2030.00, 
2031.00, 
2032.00, 
2033.00, 
2034.00, 
2035.00, 
2036.00, 
2037.00, 
2038.00, 
2039.00, 
2040.00, 
2041.00, 
2042.00, 
2043.00, 
2044.00, 
2045.00, 
2046.00, 
2047.00, 
2048.00, 
2049.00, 
2050.00, 
2051.00, 
2052.00, 
2053.00, 
2054.00, 
2055.00, 
2056.00, 
2057.00, 
2058.00, 
2059.00, 
2060.00, 
2061.00, 
2062.00, 
2063.00, 
2064.00, 
2065.00, 
2066.00, 
2067.00, 
2068.00, 
2069.00, 
2070.00, 
2071.00, 
2072.00, 
2073.00, 
2074.00, 
2075.00, 
2076.00, 
2077.00, 
2078.00, 
2079.00, 
2080.00, 
2081.00, 
2082.00, 
2083.00, 
2084.00, 
2085.00, 
2086.00, 
2087.00, 
2088.00, 
2089.00, 
2090.00, 
2091.00, 
2092.00, 
2093.00, 
2094.00, 
2095.00, 
2096.00, 
2097.00, 
2098.00, 
2099.00, 
2100.00, 
2101.00, 
2102.00, 
2103.00, 
2104.00, 
2105.00, 
2106.00, 
2107.00, 
2108.00, 
2109.00, 
2110.00, 
2111.00, 
2112.00, 
2113.00, 
2114.00, 
2115.00, 
2116.00, 
2117.00, 
2118.00, 
2119.00, 
2120.00, 
2121.00, 
2122.00, 
2123.00, 
2124.00, 
2125.00, 
2126.00, 
2127.00, 
2128.00, 
2129.00, 
2130.00, 
2131.00, 
2132.00, 
2133.00, 
2134.00, 
2135.00, 
2136.00, 
2137.00, 
2138.00, 
2139.00, 
2140.00, 
2141.00, 
2142.00, 
2143.00, 
2144.00, 
2145.00, 
2146.00, 
2147.00, 
2148.00, 
2149.00, 
2150.00, 
2151.00, 
2152.00, 
2153.00, 
2154.00, 
2155.00, 
2156.00, 
2157.00, 
2158.00, 
2159.00, 
2160.00, 
2161.00, 
2162.00, 
2163.00, 
2164.00, 
2165.00, 
2166.00, 
2167.00, 
2168.00, 
2169.00, 
2170.00, 
2171.00, 
2172.00, 
2173.00, 
2174.00, 
2175.00, 
2176.00, 
2177.00, 
2178.00, 
2179.00, 
2180.00, 
2181.00, 
2182.00, 
2183.00, 
2184.00, 
2185.00, 
2186.00, 
2187.00, 
2188.00, 
2189.00, 
2190.00, 
2191.00, 
2192.00, 
2193.00, 
2194.00, 
2195.00, 
2196.00, 
2197.00, 
2198.00, 
2199.00, 
2200.00, 
2201.00, 
2202.00, 
2203.00, 
2204.00, 
2205.00, 
2206.00, 
2207.00, 
2208.00, 
2209.00, 
2210.00, 
2211.00, 
2212.00, 
2213.00, 
2214.00, 
2215.00, 
2216.00, 
2217.00, 
2218.00, 
2219.00, 
2220.00, 
2221.00, 
2222.00, 
2223.00, 
2224.00, 
2225.00, 
2226.00, 
2227.00, 
2228.00, 
2229.00, 
2230.00, 
2231.00, 
2232.00, 
2233.00, 
2234.00, 
2235.00, 
2236.00, 
2237.00, 
2238.00, 
2239.00, 
2240.00, 
2241.00, 
2242.00, 
2243.00, 
2244.00, 
2245.00, 
2246.00, 
2247.00, 
2248.00, 
2249.00, 
2250.00, 
2251.00, 
2252.00, 
2253.00, 
2254.00, 
2255.00, 
2256.00, 
2257.00, 
2258.00, 
2259.00, 
2260.00, 
2261.00, 
2262.00, 
2263.00, 
2264.00, 
2265.00, 
2266.00, 
2267.00, 
2268.00, 
2269.00, 
2270.00, 
2271.00, 
2272.00, 
2273.00, 
2274.00, 
2275.00, 
2276.00, 
2277.00, 
2278.00, 
2279.00, 
2280.00, 
2281.00, 
2282.00, 
2283.00, 
2284.00, 
2285.00, 
2286.00, 
2287.00, 
2288.00, 
2289.00, 
2290.00, 
2291.00, 
2292.00, 
2293.00, 
2294.00, 
2295.00, 
2296.00, 
2297.00, 
2298.00, 
2299.00, 
2300.00, 
2301.00, 
2302.00, 
2303.00, 
2304.00, 
2305.00, 
2306.00, 
2307.00, 
2308.00, 
2309.00, 
2310.00, 
2311.00, 
2312.00, 
2313.00, 
2314.00, 
2315.00, 
2316.00, 
2317.00, 
2318.00, 
2319.00, 
2320.00, 
2321.00, 
2322.00, 
2323.00, 
2324.00, 
2325.00, 
2326.00, 
2327.00, 
2328.00, 
2329.00, 
2330.00, 
2331.00, 
2332.00, 
2333.00, 
2334.00, 
2335.00, 
2336.00, 
2337.00, 
2338.00, 
2339.00, 
2340.00, 
2341.00, 
2342.00, 
2343.00, 
2344.00, 
2345.00, 
2346.00, 
2347.00, 
2348.00, 
2349.00, 
2350.00, 
2351.00, 
2352.00, 
2353.00, 
2354.00, 
2355.00, 
2356.00, 
2357.00, 
2358.00, 
2359.00, 
2360.00, 
2361.00, 
2362.00, 
2363.00, 
2364.00, 
2365.00, 
2366.00, 
2367.00, 
2368.00, 
2369.00, 
2370.00, 
2371.00, 
2372.00, 
2373.00, 
2374.00, 
2375.00, 
2376.00, 
2377.00, 
2378.00, 
2379.00, 
2380.00, 
2381.00, 
2382.00, 
2383.00, 
2384.00, 
2385.00, 
2386.00, 
2387.00, 
2388.00, 
2389.00, 
2390.00, 
2391.00, 
2392.00, 
2393.00, 
2394.00, 
2395.00, 
2396.00, 
2397.00, 
2398.00, 
2399.00, 
2400.00, 
2401.00, 
2402.00, 
2403.00, 
2404.00, 
2405.00, 
2406.00, 
2407.00, 
2408.00, 
2409.00, 
2410.00, 
2411.00, 
2412.00, 
2413.00, 
2414.00, 
2415.00, 
2416.00, 
2417.00, 
2418.00, 
2419.00, 
2420.00, 
2421.00, 
2422.00, 
2423.00, 
2424.00, 
2425.00, 
2426.00, 
2427.00, 
2428.00, 
2429.00, 
2430.00, 
2431.00, 
2432.00, 
2433.00, 
2434.00, 
2435.00, 
2436.00, 
2437.00, 
2438.00, 
2439.00, 
2440.00, 
2441.00, 
2442.00, 
2443.00, 
2444.00, 
2445.00, 
2446.00, 
2447.00, 
2448.00, 
2449.00, 
2450.00, 
2451.00, 
2452.00, 
2453.00, 
2454.00, 
2455.00, 
2456.00, 
2457.00, 
2458.00, 
2459.00, 
2460.00, 
2461.00, 
2462.00, 
2463.00, 
2464.00, 
2465.00, 
2466.00, 
2467.00, 
2468.00, 
2469.00, 
2470.00, 
2471.00, 
2472.00, 
2473.00, 
2474.00, 
2475.00, 
2476.00, 
2477.00, 
2478.00, 
2479.00, 
2480.00, 
2481.00, 
2482.00, 
2483.00, 
2484.00, 
2485.00, 
2486.00, 
2487.00, 
2488.00, 
2489.00, 
2490.00, 
2491.00, 
2492.00, 
2493.00, 
2494.00, 
2495.00, 
2496.00, 
2497.00, 
2498.00, 
2499.00, 
2500.00, 
2501.00, 
2502.00, 
2503.00, 
2504.00, 
2505.00, 
2506.00, 
2507.00, 
2508.00, 
2509.00, 
2510.00, 
2511.00, 
2512.00, 
2513.00, 
2514.00, 
2515.00, 
2516.00, 
2517.00, 
2518.00, 
2519.00, 
2520.00, 
2521.00, 
2522.00, 
2523.00, 
2524.00, 
2525.00, 
2526.00, 
2527.00, 
2528.00, 
2529.00, 
2530.00, 
2531.00, 
2532.00, 
2533.00, 
2534.00, 
2535.00, 
2536.00, 
2537.00, 
2538.00, 
2539.00, 
2540.00, 
2541.00, 
2542.00, 
2543.00, 
2544.00, 
2545.00, 
2546.00, 
2547.00, 
2548.00, 
2549.00, 
2550.00, 
2551.00, 
2552.00, 
2553.00, 
2554.00, 
2555.00, 
2556.00, 
2557.00, 
2558.00, 
2559.00, 
2560.00, 
2561.00, 
2562.00, 
2563.00, 
2564.00, 
2565.00, 
2566.00, 
2567.00, 
2568.00, 
2569.00, 
2570.00, 
2571.00, 
2572.00, 
2573.00, 
2574.00, 
2575.00, 
2576.00, 
2577.00, 
2578.00, 
2579.00, 
2580.00, 
2581.00, 
2582.00, 
2583.00, 
2584.00, 
2585.00, 
2586.00, 
2587.00, 
2588.00, 
2589.00, 
2590.00, 
2591.00, 
2592.00, 
2593.00, 
2594.00, 
2595.00, 
2596.00, 
2597.00, 
2598.00, 
2599.00, 
2600.00, 
