"2cP5 - RawData"
"Wavelength nm.","T%"
200.00,-0.000
201.00,-0.000
202.00,-0.001
203.00,-0.000
204.00,0.001
205.00,-0.001
206.00,-0.000
207.00,0.000
208.00,0.001
209.00,0.003
210.00,0.001
211.00,0.001
212.00,0.001
213.00,0.001
214.00,0.002
215.00,0.000
216.00,0.000
217.00,0.000
218.00,0.004
219.00,0.002
220.00,0.001
221.00,0.002
222.00,0.000
223.00,0.002
224.00,0.002
225.00,-0.001
226.00,-0.002
227.00,-0.002
228.00,0.000
229.00,0.002
230.00,0.002
231.00,0.002
232.00,-0.000
233.00,-0.000
234.00,-0.000
235.00,0.000
236.00,-0.000
237.00,0.000
238.00,0.001
239.00,-0.001
240.00,-0.001
241.00,-0.000
242.00,0.000
243.00,0.001
244.00,0.001
245.00,0.001
246.00,-0.000
247.00,0.001
248.00,-0.001
249.00,0.000
250.00,0.002
251.00,0.002
252.00,0.000
253.00,0.001
254.00,0.000
255.00,-0.001
256.00,-0.000
257.00,0.000
258.00,-0.001
259.00,0.001
260.00,0.001
261.00,0.002
262.00,0.001
263.00,0.000
264.00,-0.002
265.00,-0.001
266.00,-0.001
267.00,0.001
268.00,0.001
269.00,0.000
270.00,0.001
271.00,0.001
272.00,0.001
273.00,0.001
274.00,0.000
275.00,-0.000
276.00,0.001
277.00,0.001
278.00,0.001
279.00,0.000
280.00,0.001
281.00,0.001
282.00,0.001
283.00,0.000
284.00,0.001
285.00,-0.000
286.00,-0.001
287.00,0.001
288.00,-0.001
289.00,0.001
290.00,-0.000
291.00,-0.001
292.00,0.000
293.00,-0.000
294.00,0.001
295.00,0.000
296.00,0.000
297.00,-0.000
298.00,0.000
299.00,0.001
300.00,0.001
301.00,0.001
302.00,0.003
303.00,0.004
304.00,0.009
305.00,0.014
306.00,0.020
307.00,0.031
308.00,0.049
309.00,0.075
310.00,0.105
311.00,0.136
312.00,0.190
313.00,0.257
314.00,0.341
315.00,0.443
316.00,0.566
317.00,0.717
318.00,0.873
319.00,1.077
320.00,1.313
321.00,1.566
322.00,1.854
323.00,2.199
324.00,2.544
325.00,2.882
326.00,3.249
327.00,3.671
328.00,4.090
329.00,4.535
330.00,4.962
331.00,5.442
332.00,5.910
333.00,6.416
334.00,6.850
335.00,7.361
336.00,7.815
337.00,8.307
338.00,8.750
339.00,9.160
340.00,9.638
341.00,10.106
342.00,10.508
343.00,10.890
344.00,11.254
345.00,11.594
346.00,11.936
347.00,12.239
348.00,12.547
349.00,12.806
350.00,13.059
351.00,13.304
352.00,13.499
353.00,13.747
354.00,13.911
355.00,14.107
356.00,14.289
357.00,14.449
358.00,14.596
359.00,14.719
360.00,14.845
361.00,14.919
362.00,15.011
363.00,15.105
364.00,15.158
365.00,15.255
366.00,15.300
367.00,15.321
368.00,15.343
369.00,15.388
370.00,15.421
371.00,15.431
372.00,15.392
373.00,15.414
374.00,15.389
375.00,15.335
376.00,15.314
377.00,15.244
378.00,15.199
379.00,15.130
380.00,15.107
381.00,15.085
382.00,15.066
383.00,15.019
384.00,15.046
385.00,15.058
386.00,15.043
387.00,15.047
388.00,15.068
389.00,15.060
390.00,15.096
391.00,15.091
392.00,15.099
393.00,15.078
394.00,15.097
395.00,15.063
396.00,15.056
397.00,15.074
398.00,15.044
399.00,15.037
400.00,15.029
401.00,15.022
402.00,15.009
403.00,14.995
404.00,14.991
405.00,14.977
406.00,14.964
407.00,14.925
408.00,14.923
409.00,14.883
410.00,14.874
411.00,14.859
412.00,14.828
413.00,14.865
414.00,14.864
415.00,14.878
416.00,14.906
417.00,14.949
418.00,14.926
419.00,14.977
420.00,14.993
421.00,15.024
422.00,15.058
423.00,15.079
424.00,15.112
425.00,15.127
426.00,15.175
427.00,15.238
428.00,15.262
429.00,15.301
430.00,15.340
431.00,15.385
432.00,15.423
433.00,15.491
434.00,15.535
435.00,15.592
436.00,15.662
437.00,15.716
438.00,15.790
439.00,15.859
440.00,15.913
441.00,16.001
442.00,16.092
443.00,16.151
444.00,16.258
445.00,16.333
446.00,16.433
447.00,16.515
448.00,16.627
449.00,16.728
450.00,16.818
451.00,16.907
452.00,17.010
453.00,17.126
454.00,17.240
455.00,17.353
456.00,17.456
457.00,17.565
458.00,17.701
459.00,17.806
460.00,17.926
461.00,18.038
462.00,18.198
463.00,18.319
464.00,18.431
465.00,18.570
466.00,18.675
467.00,18.787
468.00,18.927
469.00,19.077
470.00,19.160
471.00,19.275
472.00,19.406
473.00,19.465
474.00,19.635
475.00,19.792
476.00,19.893
477.00,20.022
478.00,20.134
479.00,20.313
480.00,20.462
481.00,20.571
482.00,20.741
483.00,20.883
484.00,21.043
485.00,21.229
486.00,21.363
487.00,21.509
488.00,21.686
489.00,21.861
490.00,22.032
491.00,22.174
492.00,22.358
493.00,22.486
494.00,22.535
495.00,22.676
496.00,22.821
497.00,22.970
498.00,23.128
499.00,23.316
500.00,23.402
501.00,23.560
502.00,23.714
503.00,23.837
504.00,23.960
505.00,24.081
506.00,24.242
507.00,24.375
508.00,24.477
509.00,24.671
510.00,24.746
511.00,24.890
512.00,25.050
513.00,25.161
514.00,25.282
515.00,25.452
516.00,25.593
517.00,25.736
518.00,25.800
519.00,25.937
520.00,26.052
521.00,26.082
522.00,26.209
523.00,26.260
524.00,26.352
525.00,26.557
526.00,26.688
527.00,26.792
528.00,26.910
529.00,27.001
530.00,27.128
531.00,27.273
532.00,27.353
533.00,27.437
534.00,27.592
535.00,27.640
536.00,27.754
537.00,27.851
538.00,27.952
539.00,28.036
540.00,28.096
541.00,28.185
542.00,28.252
543.00,28.333
544.00,28.492
545.00,28.570
546.00,28.575
547.00,28.681
548.00,28.719
549.00,28.842
550.00,28.905
551.00,28.994
552.00,29.091
553.00,29.128
554.00,29.227
555.00,29.287
556.00,29.338
557.00,29.366
558.00,29.430
559.00,29.525
560.00,29.664
561.00,29.698
562.00,29.795
563.00,29.809
564.00,29.889
565.00,29.890
566.00,29.953
567.00,29.977
568.00,29.947
569.00,30.079
570.00,30.116
571.00,30.090
572.00,30.236
573.00,30.274
574.00,30.234
575.00,30.394
576.00,30.372
577.00,30.486
578.00,30.535
579.00,30.595
580.00,30.654
581.00,30.779
582.00,30.824
583.00,30.886
584.00,31.040
585.00,31.048
586.00,31.058
587.00,31.151
588.00,31.116
589.00,31.157
590.00,31.316
591.00,31.377
592.00,31.353
593.00,31.410
594.00,31.538
595.00,31.529
596.00,31.592
597.00,31.648
598.00,31.764
599.00,31.825
600.00,31.885
601.00,31.968
602.00,31.986
603.00,32.010
604.00,32.075
605.00,32.155
606.00,32.259
607.00,32.307
608.00,32.402
609.00,32.349
610.00,32.374
611.00,32.431
612.00,32.506
613.00,32.572
614.00,32.568
615.00,32.675
616.00,32.767
617.00,32.833
618.00,32.891
619.00,32.939
620.00,33.020
621.00,33.054
622.00,33.075
623.00,33.201
624.00,33.306
625.00,33.268
626.00,33.412
627.00,33.484
628.00,33.493
629.00,33.519
630.00,33.557
631.00,33.774
632.00,33.898
633.00,33.952
634.00,34.084
635.00,34.128
636.00,34.269
637.00,34.360
638.00,34.387
639.00,34.549
640.00,34.561
641.00,34.637
642.00,34.772
643.00,34.893
644.00,34.961
645.00,35.090
646.00,35.181
647.00,35.278
648.00,35.372
649.00,35.519
650.00,35.562
651.00,35.718
652.00,35.809
653.00,35.936
654.00,36.057
655.00,36.166
656.00,36.307
657.00,36.479
658.00,36.506
659.00,36.618
660.00,36.724
661.00,36.885
662.00,36.968
663.00,37.073
664.00,37.183
665.00,37.310
666.00,37.257
667.00,37.461
668.00,37.564
669.00,37.981
670.00,37.984
671.00,38.113
672.00,38.167
673.00,38.406
674.00,38.596
675.00,38.606
676.00,38.744
677.00,38.862
678.00,38.813
679.00,39.027
680.00,39.198
681.00,39.313
682.00,39.372
683.00,39.528
684.00,39.739
685.00,39.848
686.00,39.850
687.00,40.095
688.00,40.188
689.00,40.247
690.00,40.402
691.00,40.575
692.00,40.608
693.00,40.781
694.00,40.894
695.00,40.985
696.00,41.225
697.00,41.259
698.00,41.426
699.00,41.665
700.00,41.772
701.00,41.842
702.00,42.059
703.00,42.144
704.00,42.214
705.00,42.340
706.00,42.485
707.00,42.564
708.00,42.545
709.00,42.823
710.00,42.886
711.00,42.966
712.00,42.999
713.00,43.173
714.00,43.191
715.00,43.506
716.00,43.415
717.00,43.659
718.00,43.646
719.00,43.752
720.00,43.978
721.00,48.070
722.00,48.078
723.00,48.179
724.00,48.138
725.00,48.206
726.00,48.366
727.00,48.378
728.00,48.467
729.00,48.549
730.00,48.655
731.00,48.745
732.00,48.773
733.00,48.845
734.00,48.884
735.00,48.978
736.00,49.067
737.00,49.175
738.00,49.176
739.00,49.314
740.00,49.358
741.00,49.472
742.00,49.513
743.00,49.503
744.00,49.536
745.00,49.573
746.00,49.689
747.00,49.712
748.00,49.641
749.00,49.676
750.00,49.712
751.00,49.758
752.00,49.868
753.00,49.891
754.00,50.004
755.00,49.932
756.00,50.008
757.00,50.024
758.00,50.089
759.00,50.161
760.00,50.181
761.00,50.156
762.00,50.200
763.00,50.319
764.00,50.352
765.00,50.285
766.00,50.361
767.00,50.381
768.00,50.489
769.00,50.541
770.00,50.599
771.00,50.492
772.00,50.597
773.00,50.608
774.00,50.723
775.00,50.716
776.00,50.730
777.00,50.779
778.00,50.784
779.00,50.803
780.00,50.877
781.00,50.871
782.00,50.937
783.00,50.857
784.00,51.015
785.00,50.895
786.00,50.926
787.00,51.019
788.00,50.876
789.00,50.974
790.00,50.903
791.00,51.020
792.00,51.015
793.00,51.033
794.00,50.961
795.00,51.045
796.00,51.058
797.00,50.967
798.00,51.080
799.00,50.961
800.00,51.010
801.00,51.055
802.00,51.107
803.00,51.085
804.00,50.987
805.00,51.044
806.00,51.042
807.00,51.080
808.00,51.081
809.00,51.022
810.00,51.117
811.00,51.028
812.00,51.022
813.00,51.027
814.00,51.022
815.00,51.045
816.00,51.080
817.00,50.993
818.00,51.051
819.00,51.037
820.00,51.020
821.00,50.983
822.00,51.047
823.00,50.948
824.00,51.040
825.00,50.889
826.00,51.025
827.00,51.038
828.00,51.137
829.00,50.991
830.00,50.959
831.00,53.209
832.00,53.202
833.00,53.140
834.00,53.155
835.00,53.129
836.00,53.166
837.00,53.159
838.00,53.117
839.00,53.120
840.00,53.062
841.00,53.123
842.00,53.067
843.00,53.089
844.00,53.086
845.00,52.999
846.00,53.064
847.00,53.038
848.00,53.014
849.00,52.962
850.00,52.965
851.00,52.877
852.00,52.935
853.00,52.845
854.00,52.865
855.00,52.823
856.00,52.854
857.00,52.956
858.00,52.784
859.00,52.809
860.00,52.779
861.00,52.777
862.00,52.692
863.00,52.766
864.00,52.698
865.00,52.752
866.00,52.699
867.00,52.704
868.00,52.727
869.00,52.662
870.00,52.737
871.00,52.682
872.00,52.728
873.00,52.671
874.00,52.709
875.00,52.671
876.00,52.687
877.00,52.645
878.00,52.645
879.00,52.613
880.00,52.622
881.00,52.585
882.00,52.592
883.00,52.571
884.00,52.560
885.00,52.517
886.00,52.535
887.00,52.527
888.00,52.502
889.00,52.511
890.00,52.510
891.00,52.471
892.00,52.444
893.00,52.425
894.00,52.418
895.00,52.383
896.00,52.347
897.00,52.349
898.00,52.340
899.00,52.362
900.00,52.317
901.00,52.327
902.00,52.318
903.00,52.288
904.00,52.283
905.00,52.266
906.00,52.260
907.00,52.228
908.00,52.199
909.00,52.208
910.00,52.147
911.00,52.170
912.00,52.185
913.00,52.138
914.00,52.116
915.00,52.089
916.00,52.071
917.00,52.041
918.00,52.058
919.00,52.033
920.00,52.006
921.00,52.010
922.00,51.976
923.00,51.973
924.00,51.918
925.00,51.946
926.00,51.907
927.00,51.918
928.00,51.865
929.00,51.905
930.00,51.834
931.00,51.845
932.00,51.861
933.00,51.811
934.00,51.791
935.00,51.764
936.00,51.719
937.00,51.741
938.00,51.691
939.00,51.706
940.00,51.670
941.00,51.682
942.00,51.629
943.00,51.631
944.00,51.604
945.00,51.608
946.00,51.599
947.00,51.541
948.00,51.546
949.00,51.499
950.00,51.511
951.00,51.468
952.00,51.451
953.00,51.416
954.00,51.415
955.00,51.364
956.00,51.382
957.00,51.305
958.00,51.336
959.00,51.276
960.00,51.290
961.00,51.260
962.00,51.290
963.00,51.257
964.00,51.238
965.00,51.246
966.00,51.224
967.00,51.242
968.00,51.195
969.00,51.237
970.00,51.199
971.00,51.217
972.00,51.168
973.00,51.210
974.00,51.230
975.00,51.173
976.00,51.216
977.00,51.171
978.00,51.264
979.00,51.188
980.00,51.200
981.00,51.237
982.00,51.167
983.00,51.201
984.00,51.167
985.00,51.214
986.00,51.152
987.00,51.179
988.00,51.139
989.00,51.139
990.00,51.138
991.00,51.111
992.00,51.145
993.00,51.103
994.00,51.081
995.00,51.091
996.00,51.060
997.00,51.062
998.00,51.034
999.00,51.048
1000.00,50.984
1001.00,51.023
1002.00,50.987
1003.00,50.993
1004.00,50.959
1005.00,50.918
1006.00,50.970
1007.00,50.913
1008.00,50.908
1009.00,50.905
1010.00,50.885
1011.00,50.894
1012.00,50.851
1013.00,50.879
1014.00,50.836
1015.00,50.846
1016.00,50.795
1017.00,50.789
1018.00,50.794
1019.00,50.736
1020.00,50.759
1021.00,50.720
1022.00,50.734
1023.00,50.684
1024.00,50.700
1025.00,50.691
1026.00,50.668
1027.00,50.639
1028.00,50.632
1029.00,50.624
1030.00,50.583
1031.00,50.605
1032.00,50.548
1033.00,50.554
1034.00,50.520
1035.00,50.477
1036.00,50.472
1037.00,50.436
1038.00,50.424
1039.00,50.395
1040.00,50.405
1041.00,50.360
1042.00,50.374
1043.00,50.333
1044.00,50.367
1045.00,50.350
1046.00,50.333
1047.00,50.367
1048.00,50.361
1049.00,50.372
1050.00,50.376
1051.00,50.416
1052.00,50.401
1053.00,50.426
1054.00,50.408
1055.00,50.446
1056.00,50.445
1057.00,50.436
1058.00,50.433
1059.00,50.426
1060.00,50.433
1061.00,50.428
1062.00,50.409
1063.00,50.412
1064.00,50.415
1065.00,50.378
1066.00,50.389
1067.00,50.371
1068.00,50.384
1069.00,50.336
1070.00,50.328
1071.00,50.317
1072.00,50.360
1073.00,50.323
1074.00,50.321
1075.00,50.303
1076.00,50.295
1077.00,50.286
1078.00,50.276
1079.00,50.271
1080.00,50.285
1081.00,50.255
1082.00,50.242
1083.00,50.247
1084.00,50.224
1085.00,50.213
1086.00,50.216
1087.00,50.219
1088.00,50.203
1089.00,50.192
1090.00,50.169
1091.00,50.185
1092.00,50.156
1093.00,50.136
1094.00,50.131
1095.00,50.126
1096.00,50.116
1097.00,50.124
1098.00,50.104
1099.00,50.110
1100.00,50.095
1101.00,50.077
1102.00,50.080
1103.00,50.077
1104.00,50.048
1105.00,50.044
1106.00,50.019
1107.00,50.021
1108.00,50.011
1109.00,50.003
1110.00,49.998
1111.00,49.999
1112.00,49.982
1113.00,49.974
1114.00,49.954
1115.00,49.968
1116.00,49.954
1117.00,49.938
1118.00,49.927
1119.00,49.925
1120.00,49.911
1121.00,49.908
1122.00,49.900
1123.00,49.890
1124.00,49.892
1125.00,49.877
1126.00,49.860
1127.00,49.887
1128.00,49.853
1129.00,49.846
1130.00,49.851
1131.00,49.846
1132.00,49.825
1133.00,49.822
1134.00,49.810
1135.00,49.815
1136.00,49.788
1137.00,49.789
1138.00,49.792
1139.00,49.796
1140.00,49.784
1141.00,49.788
1142.00,49.775
1143.00,49.797
1144.00,49.763
1145.00,49.759
1146.00,49.760
1147.00,49.757
1148.00,49.726
1149.00,49.759
1150.00,49.734
1151.00,49.728
1152.00,49.717
1153.00,49.731
1154.00,49.719
1155.00,49.733
1156.00,49.697
1157.00,49.719
1158.00,49.700
1159.00,49.693
1160.00,49.701
1161.00,49.704
1162.00,49.683
1163.00,49.707
1164.00,49.702
1165.00,49.682
1166.00,49.682
1167.00,49.663
1168.00,49.685
1169.00,49.666
1170.00,49.661
1171.00,49.650
1172.00,49.663
1173.00,49.654
1174.00,49.682
1175.00,49.664
1176.00,49.671
1177.00,49.682
1178.00,49.652
1179.00,49.677
1180.00,49.635
1181.00,49.660
1182.00,49.655
1183.00,49.645
1184.00,49.629
1185.00,49.658
1186.00,49.634
1187.00,49.644
1188.00,49.638
1189.00,49.628
1190.00,49.635
1191.00,49.619
1192.00,49.629
1193.00,49.620
1194.00,49.628
1195.00,49.601
1196.00,49.632
1197.00,49.618
1198.00,49.613
1199.00,49.603
1200.00,49.598
1201.00,49.623
1202.00,49.596
1203.00,49.606
1204.00,49.599
1205.00,49.619
1206.00,49.607
1207.00,49.619
1208.00,49.604
1209.00,49.609
1210.00,49.610
1211.00,49.581
1212.00,49.625
1213.00,49.566
1214.00,49.595
1215.00,49.582
1216.00,49.582
1217.00,49.589
1218.00,49.570
1219.00,49.586
1220.00,49.568
1221.00,49.602
1222.00,49.589
1223.00,49.606
1224.00,49.589
1225.00,49.569
1226.00,49.586
1227.00,49.559
1228.00,49.575
1229.00,49.570
1230.00,49.602
1231.00,49.601
1232.00,49.627
1233.00,49.618
1234.00,49.640
1235.00,49.623
1236.00,49.622
1237.00,49.656
1238.00,49.618
1239.00,49.628
1240.00,49.627
1241.00,49.638
1242.00,49.632
1243.00,49.648
1244.00,49.617
1245.00,49.650
1246.00,49.637
1247.00,49.632
1248.00,49.643
1249.00,49.639
1250.00,49.642
1251.00,49.639
1252.00,49.658
1253.00,49.644
1254.00,49.680
1255.00,49.656
1256.00,49.658
1257.00,49.632
1258.00,49.675
1259.00,49.665
1260.00,49.685
1261.00,49.674
1262.00,49.678
1263.00,49.672
1264.00,49.690
1265.00,49.691
1266.00,49.682
1267.00,49.694
1268.00,49.703
1269.00,49.689
1270.00,49.712
1271.00,49.718
1272.00,49.710
1273.00,49.727
1274.00,49.719
1275.00,49.717
1276.00,49.710
1277.00,49.725
1278.00,49.744
1279.00,49.733
1280.00,49.735
1281.00,49.762
1282.00,49.761
1283.00,49.745
1284.00,49.763
1285.00,49.742
1286.00,49.765
1287.00,49.763
1288.00,49.767
1289.00,49.763
1290.00,49.789
1291.00,49.771
1292.00,49.793
1293.00,49.785
1294.00,49.797
1295.00,49.794
1296.00,49.807
1297.00,49.809
1298.00,49.846
1299.00,49.811
1300.00,49.835
1301.00,49.828
1302.00,49.828
1303.00,49.843
1304.00,49.813
1305.00,49.840
1306.00,49.845
1307.00,49.843
1308.00,49.846
1309.00,49.860
1310.00,49.849
1311.00,49.863
1312.00,49.853
1313.00,49.861
1314.00,49.872
1315.00,49.886
1316.00,49.888
1317.00,49.922
1318.00,49.903
1319.00,49.913
1320.00,49.927
1321.00,50.073
1322.00,50.086
1323.00,50.076
1324.00,50.071
1325.00,50.058
1326.00,50.104
1327.00,50.045
1328.00,50.071
1329.00,50.052
1330.00,50.069
1331.00,50.057
1332.00,50.062
1333.00,50.069
1334.00,50.092
1335.00,50.098
1336.00,50.135
1337.00,50.150
1338.00,50.202
1339.00,50.243
1340.00,50.304
1341.00,50.378
1342.00,50.455
1343.00,50.503
1344.00,50.538
1345.00,50.585
1346.00,50.629
1347.00,50.650
1348.00,50.689
1349.00,50.698
1350.00,50.732
1351.00,50.737
1352.00,50.747
1353.00,50.760
1354.00,50.767
1355.00,50.710
1356.00,50.769
1357.00,50.763
1358.00,50.761
1359.00,50.775
1360.00,50.781
1361.00,50.775
1362.00,50.729
1363.00,50.856
1364.00,50.830
1365.00,50.739
1366.00,50.837
1367.00,50.796
1368.00,50.717
1369.00,50.765
1370.00,50.767
1371.00,50.737
1372.00,50.746
1373.00,50.743
1374.00,50.766
1375.00,50.739
1376.00,50.746
1377.00,50.740
1378.00,50.840
1379.00,50.758
1380.00,50.743
1381.00,50.726
1382.00,50.517
1383.00,50.775
1384.00,50.662
1385.00,50.693
1386.00,50.764
1387.00,50.719
1388.00,50.662
1389.00,50.673
1390.00,50.740
1391.00,50.735
1392.00,50.694
1393.00,50.757
1394.00,50.714
1395.00,50.716
1396.00,50.656
1397.00,50.711
1398.00,50.738
1399.00,50.731
1400.00,50.710
1401.00,50.705
1402.00,50.743
1403.00,50.757
1404.00,50.733
1405.00,50.771
1406.00,50.755
1407.00,50.773
1408.00,50.782
1409.00,50.742
1410.00,50.794
1411.00,50.791
1412.00,50.840
1413.00,50.810
1414.00,50.775
1415.00,50.804
1416.00,50.829
1417.00,50.853
1418.00,50.843
1419.00,50.858
1420.00,50.866
1421.00,50.912
1422.00,50.894
1423.00,50.904
1424.00,50.907
1425.00,50.936
1426.00,50.936
1427.00,50.974
1428.00,50.949
1429.00,50.978
1430.00,50.979
1431.00,51.011
1432.00,51.003
1433.00,51.041
1434.00,51.016
1435.00,51.061
1436.00,51.065
1437.00,51.065
1438.00,51.098
1439.00,51.120
1440.00,51.120
1441.00,51.117
1442.00,51.139
1443.00,51.175
1444.00,51.192
1445.00,51.178
1446.00,51.193
1447.00,51.220
1448.00,51.283
1449.00,51.273
1450.00,51.295
1451.00,51.265
1452.00,51.301
1453.00,51.298
1454.00,51.319
1455.00,51.341
1456.00,51.351
1457.00,51.346
1458.00,51.377
1459.00,51.383
1460.00,51.421
1461.00,51.412
1462.00,51.446
1463.00,51.446
1464.00,51.448
1465.00,51.468
1466.00,51.479
1467.00,51.502
1468.00,51.549
1469.00,51.520
1470.00,51.542
1471.00,51.563
1472.00,51.570
1473.00,51.573
1474.00,51.596
1475.00,51.611
1476.00,51.635
1477.00,51.616
1478.00,51.639
1479.00,51.666
1480.00,51.666
1481.00,51.671
1482.00,51.706
1483.00,51.712
1484.00,51.716
1485.00,51.745
1486.00,51.749
1487.00,51.785
1488.00,51.804
1489.00,51.773
1490.00,51.809
1491.00,51.791
1492.00,51.816
1493.00,51.797
1494.00,51.828
1495.00,51.829
1496.00,51.852
1497.00,51.849
1498.00,51.850
1499.00,51.873
1500.00,51.896
1501.00, 
1502.00, 
1503.00, 
1504.00, 
1505.00, 
1506.00, 
1507.00, 
1508.00, 
1509.00, 
1510.00, 
1511.00, 
1512.00, 
1513.00, 
1514.00, 
1515.00, 
1516.00, 
1517.00, 
1518.00, 
1519.00, 
1520.00, 
1521.00, 
1522.00, 
1523.00, 
1524.00, 
1525.00, 
1526.00, 
1527.00, 
1528.00, 
1529.00, 
1530.00, 
1531.00, 
1532.00, 
1533.00, 
1534.00, 
1535.00, 
1536.00, 
1537.00, 
1538.00, 
1539.00, 
1540.00, 
1541.00, 
1542.00, 
1543.00, 
1544.00, 
1545.00, 
1546.00, 
1547.00, 
1548.00, 
1549.00, 
1550.00, 
1551.00, 
1552.00, 
1553.00, 
1554.00, 
1555.00, 
1556.00, 
1557.00, 
1558.00, 
1559.00, 
1560.00, 
1561.00, 
1562.00, 
1563.00, 
1564.00, 
1565.00, 
1566.00, 
1567.00, 
1568.00, 
1569.00, 
1570.00, 
1571.00, 
1572.00, 
1573.00, 
1574.00, 
1575.00, 
1576.00, 
1577.00, 
1578.00, 
1579.00, 
1580.00, 
1581.00, 
1582.00, 
1583.00, 
1584.00, 
1585.00, 
1586.00, 
1587.00, 
1588.00, 
1589.00, 
1590.00, 
1591.00, 
1592.00, 
1593.00, 
1594.00, 
1595.00, 
1596.00, 
1597.00, 
1598.00, 
1599.00, 
1600.00, 
1601.00, 
1602.00, 
1603.00, 
1604.00, 
1605.00, 
1606.00, 
1607.00, 
1608.00, 
1609.00, 
1610.00, 
1611.00, 
1612.00, 
1613.00, 
1614.00, 
1615.00, 
1616.00, 
1617.00, 
1618.00, 
1619.00, 
1620.00, 
1621.00, 
1622.00, 
1623.00, 
1624.00, 
1625.00, 
1626.00, 
1627.00, 
1628.00, 
1629.00, 
1630.00, 
1631.00, 
1632.00, 
1633.00, 
1634.00, 
1635.00, 
1636.00, 
1637.00, 
1638.00, 
1639.00, 
1640.00, 
1641.00, 
1642.00, 
1643.00, 
1644.00, 
1645.00, 
1646.00, 
1647.00, 
1648.00, 
1649.00, 
1650.00, 
1651.00, 
1652.00, 
1653.00, 
1654.00, 
1655.00, 
1656.00, 
1657.00, 
1658.00, 
1659.00, 
1660.00, 
1661.00, 
1662.00, 
1663.00, 
1664.00, 
1665.00, 
1666.00, 
1667.00, 
1668.00, 
1669.00, 
1670.00, 
1671.00, 
1672.00, 
1673.00, 
1674.00, 
1675.00, 
1676.00, 
1677.00, 
1678.00, 
1679.00, 
1680.00, 
1681.00, 
1682.00, 
1683.00, 
1684.00, 
1685.00, 
1686.00, 
1687.00, 
1688.00, 
1689.00, 
1690.00, 
1691.00, 
1692.00, 
1693.00, 
1694.00, 
1695.00, 
1696.00, 
1697.00, 
1698.00, 
1699.00, 
1700.00, 
1701.00, 
1702.00, 
1703.00, 
1704.00, 
1705.00, 
1706.00, 
1707.00, 
1708.00, 
1709.00, 
1710.00, 
1711.00, 
1712.00, 
1713.00, 
1714.00, 
1715.00, 
1716.00, 
1717.00, 
1718.00, 
1719.00, 
1720.00, 
1721.00, 
1722.00, 
1723.00, 
1724.00, 
1725.00, 
1726.00, 
1727.00, 
1728.00, 
1729.00, 
1730.00, 
1731.00, 
1732.00, 
1733.00, 
1734.00, 
1735.00, 
1736.00, 
1737.00, 
1738.00, 
1739.00, 
1740.00, 
1741.00, 
1742.00, 
1743.00, 
1744.00, 
1745.00, 
1746.00, 
1747.00, 
1748.00, 
1749.00, 
1750.00, 
1751.00, 
1752.00, 
1753.00, 
1754.00, 
1755.00, 
1756.00, 
1757.00, 
1758.00, 
1759.00, 
1760.00, 
1761.00, 
1762.00, 
1763.00, 
1764.00, 
1765.00, 
1766.00, 
1767.00, 
1768.00, 
1769.00, 
1770.00, 
1771.00, 
1772.00, 
1773.00, 
1774.00, 
1775.00, 
1776.00, 
1777.00, 
1778.00, 
1779.00, 
1780.00, 
1781.00, 
1782.00, 
1783.00, 
1784.00, 
1785.00, 
1786.00, 
1787.00, 
1788.00, 
1789.00, 
1790.00, 
1791.00, 
1792.00, 
1793.00, 
1794.00, 
1795.00, 
1796.00, 
1797.00, 
1798.00, 
1799.00, 
1800.00, 
1801.00, 
1802.00, 
1803.00, 
1804.00, 
1805.00, 
1806.00, 
1807.00, 
1808.00, 
1809.00, 
1810.00, 
1811.00, 
1812.00, 
1813.00, 
1814.00, 
1815.00, 
1816.00, 
1817.00, 
1818.00, 
1819.00, 
1820.00, 
1821.00, 
1822.00, 
1823.00, 
1824.00, 
1825.00, 
1826.00, 
1827.00, 
1828.00, 
1829.00, 
1830.00, 
1831.00, 
1832.00, 
1833.00, 
1834.00, 
1835.00, 
1836.00, 
1837.00, 
1838.00, 
1839.00, 
1840.00, 
1841.00, 
1842.00, 
1843.00, 
1844.00, 
1845.00, 
1846.00, 
1847.00, 
1848.00, 
1849.00, 
1850.00, 
1851.00, 
1852.00, 
1853.00, 
1854.00, 
1855.00, 
1856.00, 
1857.00, 
1858.00, 
1859.00, 
1860.00, 
1861.00, 
1862.00, 
1863.00, 
1864.00, 
1865.00, 
1866.00, 
1867.00, 
1868.00, 
1869.00, 
1870.00, 
1871.00, 
1872.00, 
1873.00, 
1874.00, 
1875.00, 
1876.00, 
1877.00, 
1878.00, 
1879.00, 
1880.00, 
1881.00, 
1882.00, 
1883.00, 
1884.00, 
1885.00, 
1886.00, 
1887.00, 
1888.00, 
1889.00, 
1890.00, 
1891.00, 
1892.00, 
1893.00, 
1894.00, 
1895.00, 
1896.00, 
1897.00, 
1898.00, 
1899.00, 
1900.00, 
1901.00, 
1902.00, 
1903.00, 
1904.00, 
1905.00, 
1906.00, 
1907.00, 
1908.00, 
1909.00, 
1910.00, 
1911.00, 
1912.00, 
1913.00, 
1914.00, 
1915.00, 
1916.00, 
1917.00, 
1918.00, 
1919.00, 
1920.00, 
1921.00, 
1922.00, 
1923.00, 
1924.00, 
1925.00, 
1926.00, 
1927.00, 
1928.00, 
1929.00, 
1930.00, 
1931.00, 
1932.00, 
1933.00, 
1934.00, 
1935.00, 
1936.00, 
1937.00, 
1938.00, 
1939.00, 
1940.00, 
1941.00, 
1942.00, 
1943.00, 
1944.00, 
1945.00, 
1946.00, 
1947.00, 
1948.00, 
1949.00, 
1950.00, 
1951.00, 
1952.00, 
1953.00, 
1954.00, 
1955.00, 
1956.00, 
1957.00, 
1958.00, 
1959.00, 
1960.00, 
1961.00, 
1962.00, 
1963.00, 
1964.00, 
1965.00, 
1966.00, 
1967.00, 
1968.00, 
1969.00, 
1970.00, 
1971.00, 
1972.00, 
1973.00, 
1974.00, 
1975.00, 
1976.00, 
1977.00, 
1978.00, 
1979.00, 
1980.00, 
1981.00, 
1982.00, 
1983.00, 
1984.00, 
1985.00, 
1986.00, 
1987.00, 
1988.00, 
1989.00, 
1990.00, 
1991.00, 
1992.00, 
1993.00, 
1994.00, 
1995.00, 
1996.00, 
1997.00, 
1998.00, 
1999.00, 
2000.00, 
2001.00, 
2002.00, 
2003.00, 
2004.00, 
2005.00, 
2006.00, 
2007.00, 
2008.00, 
2009.00, 
2010.00, 
2011.00, 
2012.00, 
2013.00, 
2014.00, 
2015.00, 
2016.00, 
2017.00, 
2018.00, 
2019.00, 
2020.00, 
2021.00, 
2022.00, 
2023.00, 
2024.00, 
2025.00, 
2026.00, 
2027.00, 
2028.00, 
2029.00, 
2030.00, 
2031.00, 
2032.00, 
2033.00, 
2034.00, 
2035.00, 
2036.00, 
2037.00, 
2038.00, 
2039.00, 
2040.00, 
2041.00, 
2042.00, 
2043.00, 
2044.00, 
2045.00, 
2046.00, 
2047.00, 
2048.00, 
2049.00, 
2050.00, 
2051.00, 
2052.00, 
2053.00, 
2054.00, 
2055.00, 
2056.00, 
2057.00, 
2058.00, 
2059.00, 
2060.00, 
2061.00, 
2062.00, 
2063.00, 
2064.00, 
2065.00, 
2066.00, 
2067.00, 
2068.00, 
2069.00, 
2070.00, 
2071.00, 
2072.00, 
2073.00, 
2074.00, 
2075.00, 
2076.00, 
2077.00, 
2078.00, 
2079.00, 
2080.00, 
2081.00, 
2082.00, 
2083.00, 
2084.00, 
2085.00, 
2086.00, 
2087.00, 
2088.00, 
2089.00, 
2090.00, 
2091.00, 
2092.00, 
2093.00, 
2094.00, 
2095.00, 
2096.00, 
2097.00, 
2098.00, 
2099.00, 
2100.00, 
2101.00, 
2102.00, 
2103.00, 
2104.00, 
2105.00, 
2106.00, 
2107.00, 
2108.00, 
2109.00, 
2110.00, 
2111.00, 
2112.00, 
2113.00, 
2114.00, 
2115.00, 
2116.00, 
2117.00, 
2118.00, 
2119.00, 
2120.00, 
2121.00, 
2122.00, 
2123.00, 
2124.00, 
2125.00, 
2126.00, 
2127.00, 
2128.00, 
2129.00, 
2130.00, 
2131.00, 
2132.00, 
2133.00, 
2134.00, 
2135.00, 
2136.00, 
2137.00, 
2138.00, 
2139.00, 
2140.00, 
2141.00, 
2142.00, 
2143.00, 
2144.00, 
2145.00, 
2146.00, 
2147.00, 
2148.00, 
2149.00, 
2150.00, 
2151.00, 
2152.00, 
2153.00, 
2154.00, 
2155.00, 
2156.00, 
2157.00, 
2158.00, 
2159.00, 
2160.00, 
2161.00, 
2162.00, 
2163.00, 
2164.00, 
2165.00, 
2166.00, 
2167.00, 
2168.00, 
2169.00, 
2170.00, 
2171.00, 
2172.00, 
2173.00, 
2174.00, 
2175.00, 
2176.00, 
2177.00, 
2178.00, 
2179.00, 
2180.00, 
2181.00, 
2182.00, 
2183.00, 
2184.00, 
2185.00, 
2186.00, 
2187.00, 
2188.00, 
2189.00, 
2190.00, 
2191.00, 
2192.00, 
2193.00, 
2194.00, 
2195.00, 
2196.00, 
2197.00, 
2198.00, 
2199.00, 
2200.00, 
2201.00, 
2202.00, 
2203.00, 
2204.00, 
2205.00, 
2206.00, 
2207.00, 
2208.00, 
2209.00, 
2210.00, 
2211.00, 
2212.00, 
2213.00, 
2214.00, 
2215.00, 
2216.00, 
2217.00, 
2218.00, 
2219.00, 
2220.00, 
2221.00, 
2222.00, 
2223.00, 
2224.00, 
2225.00, 
2226.00, 
2227.00, 
2228.00, 
2229.00, 
2230.00, 
2231.00, 
2232.00, 
2233.00, 
2234.00, 
2235.00, 
2236.00, 
2237.00, 
2238.00, 
2239.00, 
2240.00, 
2241.00, 
2242.00, 
2243.00, 
2244.00, 
2245.00, 
2246.00, 
2247.00, 
2248.00, 
2249.00, 
2250.00, 
2251.00, 
2252.00, 
2253.00, 
2254.00, 
2255.00, 
2256.00, 
2257.00, 
2258.00, 
2259.00, 
2260.00, 
2261.00, 
2262.00, 
2263.00, 
2264.00, 
2265.00, 
2266.00, 
2267.00, 
2268.00, 
2269.00, 
2270.00, 
2271.00, 
2272.00, 
2273.00, 
2274.00, 
2275.00, 
2276.00, 
2277.00, 
2278.00, 
2279.00, 
2280.00, 
2281.00, 
2282.00, 
2283.00, 
2284.00, 
2285.00, 
2286.00, 
2287.00, 
2288.00, 
2289.00, 
2290.00, 
2291.00, 
2292.00, 
2293.00, 
2294.00, 
2295.00, 
2296.00, 
2297.00, 
2298.00, 
2299.00, 
2300.00, 
2301.00, 
2302.00, 
2303.00, 
2304.00, 
2305.00, 
2306.00, 
2307.00, 
2308.00, 
2309.00, 
2310.00, 
2311.00, 
2312.00, 
2313.00, 
2314.00, 
2315.00, 
2316.00, 
2317.00, 
2318.00, 
2319.00, 
2320.00, 
2321.00, 
2322.00, 
2323.00, 
2324.00, 
2325.00, 
2326.00, 
2327.00, 
2328.00, 
2329.00, 
2330.00, 
2331.00, 
2332.00, 
2333.00, 
2334.00, 
2335.00, 
2336.00, 
2337.00, 
2338.00, 
2339.00, 
2340.00, 
2341.00, 
2342.00, 
2343.00, 
2344.00, 
2345.00, 
2346.00, 
2347.00, 
2348.00, 
2349.00, 
2350.00, 
2351.00, 
2352.00, 
2353.00, 
2354.00, 
2355.00, 
2356.00, 
2357.00, 
2358.00, 
2359.00, 
2360.00, 
2361.00, 
2362.00, 
2363.00, 
2364.00, 
2365.00, 
2366.00, 
2367.00, 
2368.00, 
2369.00, 
2370.00, 
2371.00, 
2372.00, 
2373.00, 
2374.00, 
2375.00, 
2376.00, 
2377.00, 
2378.00, 
2379.00, 
2380.00, 
2381.00, 
2382.00, 
2383.00, 
2384.00, 
2385.00, 
2386.00, 
2387.00, 
2388.00, 
2389.00, 
2390.00, 
2391.00, 
2392.00, 
2393.00, 
2394.00, 
2395.00, 
2396.00, 
2397.00, 
2398.00, 
2399.00, 
2400.00, 
2401.00, 
2402.00, 
2403.00, 
2404.00, 
2405.00, 
2406.00, 
2407.00, 
2408.00, 
2409.00, 
2410.00, 
2411.00, 
2412.00, 
2413.00, 
2414.00, 
2415.00, 
2416.00, 
2417.00, 
2418.00, 
2419.00, 
2420.00, 
2421.00, 
2422.00, 
2423.00, 
2424.00, 
2425.00, 
2426.00, 
2427.00, 
2428.00, 
2429.00, 
2430.00, 
2431.00, 
2432.00, 
2433.00, 
2434.00, 
2435.00, 
2436.00, 
2437.00, 
2438.00, 
2439.00, 
2440.00, 
2441.00, 
2442.00, 
2443.00, 
2444.00, 
2445.00, 
2446.00, 
2447.00, 
2448.00, 
2449.00, 
2450.00, 
2451.00, 
2452.00, 
2453.00, 
2454.00, 
2455.00, 
2456.00, 
2457.00, 
2458.00, 
2459.00, 
2460.00, 
2461.00, 
2462.00, 
2463.00, 
2464.00, 
2465.00, 
2466.00, 
2467.00, 
2468.00, 
2469.00, 
2470.00, 
2471.00, 
2472.00, 
2473.00, 
2474.00, 
2475.00, 
2476.00, 
2477.00, 
2478.00, 
2479.00, 
2480.00, 
2481.00, 
2482.00, 
2483.00, 
2484.00, 
2485.00, 
2486.00, 
2487.00, 
2488.00, 
2489.00, 
2490.00, 
2491.00, 
2492.00, 
2493.00, 
2494.00, 
2495.00, 
2496.00, 
2497.00, 
2498.00, 
2499.00, 
2500.00, 
2501.00, 
2502.00, 
2503.00, 
2504.00, 
2505.00, 
2506.00, 
2507.00, 
2508.00, 
2509.00, 
2510.00, 
2511.00, 
2512.00, 
2513.00, 
2514.00, 
2515.00, 
2516.00, 
2517.00, 
2518.00, 
2519.00, 
2520.00, 
2521.00, 
2522.00, 
2523.00, 
2524.00, 
2525.00, 
2526.00, 
2527.00, 
2528.00, 
2529.00, 
2530.00, 
2531.00, 
2532.00, 
2533.00, 
2534.00, 
2535.00, 
2536.00, 
2537.00, 
2538.00, 
2539.00, 
2540.00, 
2541.00, 
2542.00, 
2543.00, 
2544.00, 
2545.00, 
2546.00, 
2547.00, 
2548.00, 
2549.00, 
2550.00, 
2551.00, 
2552.00, 
2553.00, 
2554.00, 
2555.00, 
2556.00, 
2557.00, 
2558.00, 
2559.00, 
2560.00, 
2561.00, 
2562.00, 
2563.00, 
2564.00, 
2565.00, 
2566.00, 
2567.00, 
2568.00, 
2569.00, 
2570.00, 
2571.00, 
2572.00, 
2573.00, 
2574.00, 
2575.00, 
2576.00, 
2577.00, 
2578.00, 
2579.00, 
2580.00, 
2581.00, 
2582.00, 
2583.00, 
2584.00, 
2585.00, 
2586.00, 
2587.00, 
2588.00, 
2589.00, 
2590.00, 
2591.00, 
2592.00, 
2593.00, 
2594.00, 
2595.00, 
2596.00, 
2597.00, 
2598.00, 
2599.00, 
2600.00, 
