"1aP2 - RawData"
"Wavelength nm.","T%"
200.00,0.001
201.00,0.002
202.00,0.002
203.00,0.000
204.00,-0.001
205.00,0.002
206.00,-0.000
207.00,0.005
208.00,-0.000
209.00,0.002
210.00,0.003
211.00,0.001
212.00,0.000
213.00,0.001
214.00,0.000
215.00,0.002
216.00,-0.002
217.00,-0.001
218.00,0.000
219.00,0.000
220.00,-0.001
221.00,0.000
222.00,0.003
223.00,-0.001
224.00,-0.000
225.00,0.001
226.00,-0.000
227.00,0.002
228.00,0.001
229.00,-0.002
230.00,-0.001
231.00,0.002
232.00,0.002
233.00,-0.001
234.00,0.001
235.00,0.002
236.00,-0.000
237.00,0.000
238.00,0.001
239.00,-0.000
240.00,-0.000
241.00,-0.000
242.00,-0.001
243.00,0.001
244.00,-0.000
245.00,0.000
246.00,0.001
247.00,0.001
248.00,0.000
249.00,-0.000
250.00,0.002
251.00,0.001
252.00,0.002
253.00,0.001
254.00,0.001
255.00,0.000
256.00,-0.001
257.00,-0.001
258.00,0.000
259.00,-0.000
260.00,-0.002
261.00,-0.000
262.00,-0.001
263.00,0.001
264.00,0.001
265.00,-0.001
266.00,0.000
267.00,0.001
268.00,0.001
269.00,-0.000
270.00,0.000
271.00,0.001
272.00,0.000
273.00,0.002
274.00,-0.001
275.00,-0.001
276.00,-0.001
277.00,0.000
278.00,0.002
279.00,-0.000
280.00,0.000
281.00,0.001
282.00,0.001
283.00,0.001
284.00,-0.001
285.00,0.003
286.00,0.000
287.00,-0.000
288.00,-0.001
289.00,0.000
290.00,0.000
291.00,0.001
292.00,-0.003
293.00,-0.001
294.00,-0.001
295.00,0.001
296.00,-0.000
297.00,0.001
298.00,0.002
299.00,0.003
300.00,0.003
301.00,0.003
302.00,0.006
303.00,0.007
304.00,0.014
305.00,0.021
306.00,0.032
307.00,0.047
308.00,0.070
309.00,0.113
310.00,0.154
311.00,0.207
312.00,0.281
313.00,0.378
314.00,0.489
315.00,0.627
316.00,0.804
317.00,0.984
318.00,1.200
319.00,1.476
320.00,1.759
321.00,2.056
322.00,2.459
323.00,2.873
324.00,3.274
325.00,3.695
326.00,4.129
327.00,4.625
328.00,5.112
329.00,5.616
330.00,6.149
331.00,6.626
332.00,7.169
333.00,7.715
334.00,8.211
335.00,8.741
336.00,9.222
337.00,9.747
338.00,10.203
339.00,10.634
340.00,11.117
341.00,11.514
342.00,11.943
343.00,12.335
344.00,12.731
345.00,13.070
346.00,13.389
347.00,13.636
348.00,13.948
349.00,14.202
350.00,14.452
351.00,14.677
352.00,14.874
353.00,15.023
354.00,15.243
355.00,15.402
356.00,15.530
357.00,15.648
358.00,15.770
359.00,15.899
360.00,16.001
361.00,16.061
362.00,16.139
363.00,16.177
364.00,16.275
365.00,16.280
366.00,16.325
367.00,16.323
368.00,16.335
369.00,16.319
370.00,16.324
371.00,16.334
372.00,16.247
373.00,16.246
374.00,16.209
375.00,16.134
376.00,16.086
377.00,16.007
378.00,15.960
379.00,15.890
380.00,15.849
381.00,15.791
382.00,15.767
383.00,15.756
384.00,15.737
385.00,15.723
386.00,15.684
387.00,15.690
388.00,15.698
389.00,15.703
390.00,15.697
391.00,15.670
392.00,15.668
393.00,15.633
394.00,15.648
395.00,15.601
396.00,15.591
397.00,15.618
398.00,15.551
399.00,15.536
400.00,15.539
401.00,15.463
402.00,15.519
403.00,15.506
404.00,15.483
405.00,15.481
406.00,15.449
407.00,15.392
408.00,15.379
409.00,15.350
410.00,15.329
411.00,15.293
412.00,15.278
413.00,15.287
414.00,15.275
415.00,15.255
416.00,15.277
417.00,15.262
418.00,15.337
419.00,15.363
420.00,15.359
421.00,15.333
422.00,15.320
423.00,15.374
424.00,15.397
425.00,15.424
426.00,15.462
427.00,15.487
428.00,15.536
429.00,15.546
430.00,15.601
431.00,15.661
432.00,15.685
433.00,15.752
434.00,15.774
435.00,15.841
436.00,15.908
437.00,15.954
438.00,16.019
439.00,16.084
440.00,16.150
441.00,16.205
442.00,16.312
443.00,16.348
444.00,16.440
445.00,16.498
446.00,16.625
447.00,16.725
448.00,16.801
449.00,16.899
450.00,16.977
451.00,17.063
452.00,17.157
453.00,17.280
454.00,17.384
455.00,17.472
456.00,17.577
457.00,17.645
458.00,17.798
459.00,17.936
460.00,18.061
461.00,18.194
462.00,18.306
463.00,18.409
464.00,18.544
465.00,18.673
466.00,18.787
467.00,18.922
468.00,19.034
469.00,19.170
470.00,19.278
471.00,19.413
472.00,19.457
473.00,19.614
474.00,19.743
475.00,19.896
476.00,19.993
477.00,20.133
478.00,20.253
479.00,20.458
480.00,20.576
481.00,20.714
482.00,20.906
483.00,21.046
484.00,21.182
485.00,21.393
486.00,21.504
487.00,21.661
488.00,21.803
489.00,21.967
490.00,22.095
491.00,22.266
492.00,22.393
493.00,22.645
494.00,22.757
495.00,22.855
496.00,22.950
497.00,23.087
498.00,23.193
499.00,23.410
500.00,23.524
501.00,23.651
502.00,23.844
503.00,23.956
504.00,24.078
505.00,24.201
506.00,24.352
507.00,24.452
508.00,24.587
509.00,24.777
510.00,24.884
511.00,25.001
512.00,25.164
513.00,25.315
514.00,25.457
515.00,25.583
516.00,25.748
517.00,25.830
518.00,25.979
519.00,26.060
520.00,26.177
521.00,26.292
522.00,26.402
523.00,26.509
524.00,26.566
525.00,26.742
526.00,26.855
527.00,26.944
528.00,27.057
529.00,27.195
530.00,27.335
531.00,27.446
532.00,27.533
533.00,27.623
534.00,27.753
535.00,27.853
536.00,27.915
537.00,28.039
538.00,28.144
539.00,28.193
540.00,28.277
541.00,28.344
542.00,28.364
543.00,28.471
544.00,28.589
545.00,28.628
546.00,28.691
547.00,28.819
548.00,28.876
549.00,28.965
550.00,29.046
551.00,29.129
552.00,29.241
553.00,29.327
554.00,29.387
555.00,29.463
556.00,29.499
557.00,29.566
558.00,29.664
559.00,29.722
560.00,29.842
561.00,29.886
562.00,29.940
563.00,29.974
564.00,30.036
565.00,30.117
566.00,30.137
567.00,30.178
568.00,30.254
569.00,30.301
570.00,30.325
571.00,30.403
572.00,30.464
573.00,30.472
574.00,30.530
575.00,30.548
576.00,30.542
577.00,30.633
578.00,30.724
579.00,30.796
580.00,30.857
581.00,30.964
582.00,31.041
583.00,31.061
584.00,31.199
585.00,31.260
586.00,31.296
587.00,31.358
588.00,31.403
589.00,31.396
590.00,31.457
591.00,31.511
592.00,31.550
593.00,31.598
594.00,31.664
595.00,31.687
596.00,31.739
597.00,31.872
598.00,31.934
599.00,31.972
600.00,32.062
601.00,32.123
602.00,32.160
603.00,32.242
604.00,32.192
605.00,32.287
606.00,32.371
607.00,32.419
608.00,32.465
609.00,32.463
610.00,32.606
611.00,32.595
612.00,32.620
613.00,32.697
614.00,32.716
615.00,32.816
616.00,32.936
617.00,32.985
618.00,33.024
619.00,33.072
620.00,33.143
621.00,33.203
622.00,33.290
623.00,33.383
624.00,33.418
625.00,33.525
626.00,33.555
627.00,33.649
628.00,33.624
629.00,33.717
630.00,33.850
631.00,33.940
632.00,34.051
633.00,34.140
634.00,34.229
635.00,34.364
636.00,34.457
637.00,34.598
638.00,34.651
639.00,34.739
640.00,34.729
641.00,34.878
642.00,34.972
643.00,35.011
644.00,35.160
645.00,35.246
646.00,35.458
647.00,35.482
648.00,35.567
649.00,35.719
650.00,35.741
651.00,35.906
652.00,35.974
653.00,36.126
654.00,36.239
655.00,36.337
656.00,36.521
657.00,36.695
658.00,36.826
659.00,36.970
660.00,36.919
661.00,36.880
662.00,37.220
663.00,37.253
664.00,37.453
665.00,37.606
666.00,37.401
667.00,37.818
668.00,37.898
669.00,38.020
670.00,38.270
671.00,38.212
672.00,38.418
673.00,38.566
674.00,38.697
675.00,38.827
676.00,38.954
677.00,39.122
678.00,39.101
679.00,39.234
680.00,39.428
681.00,39.623
682.00,39.738
683.00,39.884
684.00,39.983
685.00,40.115
686.00,40.188
687.00,40.361
688.00,40.479
689.00,40.543
690.00,40.749
691.00,40.977
692.00,40.937
693.00,41.060
694.00,41.080
695.00,41.262
696.00,41.475
697.00,41.585
698.00,41.740
699.00,41.833
700.00,42.027
701.00,42.091
702.00,42.274
703.00,42.427
704.00,42.560
705.00,42.650
706.00,42.623
707.00,42.911
708.00,42.836
709.00,43.085
710.00,43.413
711.00,43.228
712.00,43.328
713.00,43.413
714.00,43.589
715.00,43.793
716.00,43.665
717.00,43.882
718.00,44.007
719.00,43.993
720.00,44.128
721.00,48.405
722.00,48.435
723.00,48.547
724.00,48.560
725.00,48.615
726.00,48.686
727.00,48.736
728.00,48.849
729.00,48.859
730.00,48.990
731.00,48.998
732.00,49.167
733.00,49.217
734.00,49.285
735.00,49.307
736.00,49.409
737.00,49.492
738.00,49.513
739.00,49.636
740.00,49.737
741.00,49.797
742.00,49.882
743.00,49.900
744.00,49.921
745.00,50.029
746.00,50.038
747.00,50.024
748.00,50.040
749.00,50.210
750.00,50.124
751.00,50.215
752.00,50.250
753.00,50.230
754.00,50.284
755.00,50.353
756.00,50.370
757.00,50.442
758.00,50.540
759.00,50.537
760.00,50.655
761.00,50.684
762.00,50.680
763.00,50.746
764.00,50.772
765.00,50.810
766.00,50.808
767.00,50.886
768.00,50.965
769.00,50.942
770.00,51.101
771.00,51.070
772.00,51.061
773.00,51.131
774.00,51.097
775.00,51.218
776.00,51.220
777.00,51.246
778.00,51.226
779.00,51.396
780.00,51.321
781.00,51.329
782.00,51.338
783.00,51.362
784.00,51.407
785.00,51.333
786.00,51.538
787.00,51.444
788.00,51.420
789.00,51.494
790.00,51.505
791.00,51.520
792.00,51.493
793.00,51.546
794.00,51.546
795.00,51.459
796.00,51.627
797.00,51.574
798.00,51.599
799.00,51.522
800.00,51.516
801.00,51.594
802.00,51.560
803.00,51.619
804.00,51.541
805.00,51.567
806.00,51.556
807.00,51.630
808.00,51.645
809.00,51.605
810.00,51.553
811.00,51.554
812.00,51.707
813.00,51.591
814.00,51.694
815.00,51.593
816.00,51.606
817.00,51.618
818.00,51.557
819.00,51.644
820.00,51.605
821.00,51.544
822.00,51.582
823.00,51.640
824.00,51.647
825.00,51.589
826.00,51.642
827.00,51.687
828.00,51.709
829.00,51.570
830.00,51.644
831.00,54.273
832.00,54.273
833.00,54.206
834.00,54.343
835.00,54.265
836.00,54.245
837.00,54.263
838.00,54.241
839.00,54.169
840.00,54.201
841.00,54.249
842.00,54.229
843.00,54.242
844.00,54.220
845.00,54.196
846.00,54.212
847.00,54.152
848.00,54.206
849.00,54.125
850.00,54.114
851.00,54.065
852.00,54.118
853.00,54.063
854.00,54.080
855.00,54.043
856.00,54.060
857.00,54.061
858.00,54.031
859.00,54.003
860.00,53.999
861.00,54.020
862.00,53.932
863.00,53.971
864.00,53.886
865.00,53.985
866.00,53.984
867.00,53.922
868.00,53.963
869.00,53.950
870.00,53.944
871.00,53.953
872.00,53.939
873.00,53.952
874.00,53.963
875.00,53.936
876.00,53.963
877.00,53.930
878.00,53.931
879.00,53.921
880.00,53.924
881.00,53.877
882.00,53.946
883.00,53.772
884.00,53.832
885.00,53.849
886.00,53.860
887.00,53.835
888.00,53.806
889.00,53.831
890.00,53.828
891.00,53.797
892.00,53.787
893.00,53.774
894.00,53.765
895.00,53.729
896.00,53.715
897.00,53.714
898.00,53.669
899.00,53.686
900.00,53.660
901.00,53.635
902.00,53.669
903.00,53.632
904.00,53.644
905.00,53.621
906.00,53.615
907.00,53.604
908.00,53.562
909.00,53.590
910.00,53.532
911.00,53.552
912.00,53.539
913.00,53.508
914.00,53.517
915.00,53.486
916.00,53.478
917.00,53.472
918.00,53.468
919.00,53.422
920.00,53.382
921.00,53.416
922.00,53.417
923.00,53.373
924.00,53.325
925.00,53.341
926.00,53.308
927.00,53.314
928.00,53.297
929.00,53.303
930.00,53.272
931.00,53.247
932.00,53.240
933.00,53.267
934.00,53.254
935.00,53.228
936.00,53.218
937.00,53.174
938.00,53.188
939.00,53.146
940.00,53.128
941.00,53.135
942.00,53.099
943.00,53.076
944.00,53.069
945.00,53.063
946.00,53.082
947.00,53.028
948.00,52.998
949.00,53.004
950.00,53.004
951.00,52.961
952.00,52.963
953.00,52.927
954.00,52.907
955.00,52.883
956.00,52.852
957.00,52.823
958.00,52.847
959.00,52.786
960.00,52.797
961.00,52.792
962.00,52.799
963.00,52.753
964.00,52.735
965.00,52.743
966.00,52.732
967.00,52.709
968.00,52.696
969.00,52.725
970.00,52.688
971.00,52.701
972.00,52.674
973.00,52.711
974.00,52.736
975.00,52.711
976.00,52.716
977.00,52.727
978.00,52.751
979.00,52.727
980.00,52.745
981.00,52.718
982.00,52.713
983.00,52.728
984.00,52.715
985.00,52.724
986.00,52.689
987.00,52.718
988.00,52.678
989.00,52.677
990.00,52.679
991.00,52.687
992.00,52.671
993.00,52.654
994.00,52.654
995.00,52.634
996.00,52.651
997.00,52.594
998.00,52.575
999.00,52.644
1000.00,52.549
1001.00,52.555
1002.00,52.557
1003.00,52.550
1004.00,52.533
1005.00,52.497
1006.00,52.531
1007.00,52.499
1008.00,52.493
1009.00,52.482
1010.00,52.480
1011.00,52.446
1012.00,52.436
1013.00,52.442
1014.00,52.394
1015.00,52.405
1016.00,52.371
1017.00,52.377
1018.00,52.376
1019.00,52.359
1020.00,52.343
1021.00,52.323
1022.00,52.311
1023.00,52.282
1024.00,52.287
1025.00,52.248
1026.00,52.279
1027.00,52.249
1028.00,52.237
1029.00,52.225
1030.00,52.206
1031.00,52.206
1032.00,52.166
1033.00,52.167
1034.00,52.148
1035.00,52.119
1036.00,52.078
1037.00,52.086
1038.00,52.065
1039.00,52.030
1040.00,52.015
1041.00,51.974
1042.00,51.976
1043.00,51.969
1044.00,51.998
1045.00,51.981
1046.00,51.994
1047.00,51.996
1048.00,52.028
1049.00,52.034
1050.00,52.036
1051.00,52.082
1052.00,52.061
1053.00,52.060
1054.00,52.073
1055.00,52.081
1056.00,52.092
1057.00,52.096
1058.00,52.069
1059.00,52.091
1060.00,52.109
1061.00,52.094
1062.00,52.083
1063.00,52.075
1064.00,52.076
1065.00,52.073
1066.00,52.041
1067.00,52.036
1068.00,52.062
1069.00,52.018
1070.00,52.012
1071.00,51.997
1072.00,52.014
1073.00,52.006
1074.00,51.989
1075.00,51.988
1076.00,52.006
1077.00,51.962
1078.00,51.960
1079.00,51.980
1080.00,51.967
1081.00,51.949
1082.00,51.953
1083.00,51.942
1084.00,51.953
1085.00,51.941
1086.00,51.928
1087.00,51.933
1088.00,51.919
1089.00,51.917
1090.00,51.922
1091.00,51.902
1092.00,51.904
1093.00,51.890
1094.00,51.874
1095.00,51.874
1096.00,51.844
1097.00,51.831
1098.00,51.857
1099.00,51.830
1100.00,51.811
1101.00,51.821
1102.00,51.799
1103.00,51.821
1104.00,51.799
1105.00,51.777
1106.00,51.779
1107.00,51.748
1108.00,51.759
1109.00,51.783
1110.00,51.749
1111.00,51.737
1112.00,51.745
1113.00,51.717
1114.00,51.715
1115.00,51.719
1116.00,51.704
1117.00,51.684
1118.00,51.678
1119.00,51.689
1120.00,51.689
1121.00,51.681
1122.00,51.680
1123.00,51.665
1124.00,51.649
1125.00,51.658
1126.00,51.652
1127.00,51.649
1128.00,51.640
1129.00,51.610
1130.00,51.596
1131.00,51.607
1132.00,51.585
1133.00,51.600
1134.00,51.595
1135.00,51.574
1136.00,51.585
1137.00,51.585
1138.00,51.582
1139.00,51.597
1140.00,51.583
1141.00,51.580
1142.00,51.577
1143.00,51.577
1144.00,51.545
1145.00,51.545
1146.00,51.538
1147.00,51.550
1148.00,51.535
1149.00,51.543
1150.00,51.545
1151.00,51.546
1152.00,51.537
1153.00,51.542
1154.00,51.521
1155.00,51.538
1156.00,51.543
1157.00,51.530
1158.00,51.515
1159.00,51.519
1160.00,51.510
1161.00,51.532
1162.00,51.527
1163.00,51.526
1164.00,51.519
1165.00,51.518
1166.00,51.509
1167.00,51.518
1168.00,51.517
1169.00,51.519
1170.00,51.541
1171.00,51.516
1172.00,51.499
1173.00,51.487
1174.00,51.510
1175.00,51.512
1176.00,51.491
1177.00,51.491
1178.00,51.509
1179.00,51.511
1180.00,51.513
1181.00,51.537
1182.00,51.515
1183.00,51.533
1184.00,51.495
1185.00,51.513
1186.00,51.522
1187.00,51.508
1188.00,51.507
1189.00,51.522
1190.00,51.483
1191.00,51.497
1192.00,51.526
1193.00,51.506
1194.00,51.508
1195.00,51.490
1196.00,51.505
1197.00,51.512
1198.00,51.494
1199.00,51.488
1200.00,51.522
1201.00,51.514
1202.00,51.517
1203.00,51.525
1204.00,51.494
1205.00,51.517
1206.00,51.489
1207.00,51.508
1208.00,51.509
1209.00,51.507
1210.00,51.501
1211.00,51.513
1212.00,51.508
1213.00,51.484
1214.00,51.508
1215.00,51.481
1216.00,51.493
1217.00,51.504
1218.00,51.518
1219.00,51.515
1220.00,51.493
1221.00,51.534
1222.00,51.535
1223.00,51.544
1224.00,51.527
1225.00,51.515
1226.00,51.505
1227.00,51.514
1228.00,51.519
1229.00,51.511
1230.00,51.543
1231.00,51.517
1232.00,51.560
1233.00,51.566
1234.00,51.549
1235.00,51.566
1236.00,51.568
1237.00,51.535
1238.00,51.566
1239.00,51.553
1240.00,51.541
1241.00,51.565
1242.00,51.555
1243.00,51.566
1244.00,51.555
1245.00,51.568
1246.00,51.579
1247.00,51.573
1248.00,51.569
1249.00,51.592
1250.00,51.575
1251.00,51.582
1252.00,51.604
1253.00,51.590
1254.00,51.603
1255.00,51.608
1256.00,51.579
1257.00,51.578
1258.00,51.609
1259.00,51.604
1260.00,51.643
1261.00,51.617
1262.00,51.632
1263.00,51.642
1264.00,51.634
1265.00,51.655
1266.00,51.644
1267.00,51.639
1268.00,51.656
1269.00,51.664
1270.00,51.675
1271.00,51.676
1272.00,51.681
1273.00,51.701
1274.00,51.701
1275.00,51.693
1276.00,51.696
1277.00,51.701
1278.00,51.723
1279.00,51.739
1280.00,51.704
1281.00,51.719
1282.00,51.741
1283.00,51.740
1284.00,51.740
1285.00,51.741
1286.00,51.734
1287.00,51.738
1288.00,51.745
1289.00,51.729
1290.00,51.764
1291.00,51.767
1292.00,51.760
1293.00,51.783
1294.00,51.777
1295.00,51.784
1296.00,51.784
1297.00,51.785
1298.00,51.806
1299.00,51.798
1300.00,51.807
1301.00,51.819
1302.00,51.851
1303.00,51.832
1304.00,51.828
1305.00,51.839
1306.00,51.844
1307.00,51.837
1308.00,51.850
1309.00,51.857
1310.00,51.848
1311.00,51.825
1312.00,51.855
1313.00,51.877
1314.00,51.880
1315.00,51.898
1316.00,51.900
1317.00,51.922
1318.00,51.930
1319.00,51.916
1320.00,51.914
1321.00,52.120
1322.00,52.078
1323.00,52.074
1324.00,52.075
1325.00,52.028
1326.00,52.070
1327.00,52.057
1328.00,52.066
1329.00,52.044
1330.00,52.046
1331.00,52.065
1332.00,52.055
1333.00,52.076
1334.00,52.051
1335.00,52.153
1336.00,52.170
1337.00,52.153
1338.00,52.234
1339.00,52.244
1340.00,52.314
1341.00,52.378
1342.00,52.440
1343.00,52.493
1344.00,52.546
1345.00,52.611
1346.00,52.638
1347.00,52.636
1348.00,52.657
1349.00,52.694
1350.00,52.684
1351.00,52.734
1352.00,52.712
1353.00,52.705
1354.00,52.743
1355.00,52.706
1356.00,52.816
1357.00,52.765
1358.00,52.748
1359.00,52.775
1360.00,52.801
1361.00,52.775
1362.00,52.743
1363.00,52.796
1364.00,52.835
1365.00,52.800
1366.00,52.736
1367.00,52.756
1368.00,52.676
1369.00,52.763
1370.00,52.734
1371.00,52.735
1372.00,52.762
1373.00,52.752
1374.00,52.828
1375.00,52.738
1376.00,52.750
1377.00,52.726
1378.00,52.731
1379.00,52.755
1380.00,52.740
1381.00,52.737
1382.00,52.667
1383.00,52.779
1384.00,52.712
1385.00,52.748
1386.00,52.761
1387.00,52.771
1388.00,52.703
1389.00,52.750
1390.00,52.645
1391.00,52.811
1392.00,52.728
1393.00,52.697
1394.00,52.735
1395.00,52.731
1396.00,52.716
1397.00,52.754
1398.00,52.745
1399.00,52.709
1400.00,52.775
1401.00,52.756
1402.00,52.781
1403.00,52.759
1404.00,52.799
1405.00,52.761
1406.00,52.838
1407.00,52.793
1408.00,52.821
1409.00,52.805
1410.00,52.823
1411.00,52.802
1412.00,52.866
1413.00,52.709
1414.00,52.745
1415.00,52.825
1416.00,52.851
1417.00,52.902
1418.00,52.859
1419.00,52.867
1420.00,52.890
1421.00,52.914
1422.00,52.905
1423.00,52.924
1424.00,52.923
1425.00,52.952
1426.00,52.992
1427.00,52.945
1428.00,52.967
1429.00,53.010
1430.00,52.988
1431.00,53.018
1432.00,53.010
1433.00,53.034
1434.00,53.031
1435.00,53.071
1436.00,53.102
1437.00,53.091
1438.00,53.100
1439.00,53.149
1440.00,53.137
1441.00,53.144
1442.00,53.151
1443.00,53.198
1444.00,53.272
1445.00,53.197
1446.00,53.193
1447.00,53.238
1448.00,53.266
1449.00,53.273
1450.00,53.282
1451.00,53.283
1452.00,53.295
1453.00,53.314
1454.00,53.326
1455.00,53.364
1456.00,53.384
1457.00,53.367
1458.00,53.393
1459.00,53.424
1460.00,53.436
1461.00,53.451
1462.00,53.489
1463.00,53.472
1464.00,53.492
1465.00,53.507
1466.00,53.500
1467.00,53.526
1468.00,53.556
1469.00,53.545
1470.00,53.550
1471.00,53.552
1472.00,53.573
1473.00,53.590
1474.00,53.633
1475.00,53.643
1476.00,53.636
1477.00,53.613
1478.00,53.639
1479.00,53.653
1480.00,53.657
1481.00,53.665
1482.00,53.691
1483.00,53.717
1484.00,53.706
1485.00,53.713
1486.00,53.720
1487.00,53.755
1488.00,53.769
1489.00,53.792
1490.00,53.784
1491.00,53.813
1492.00,53.828
1493.00,53.807
1494.00,53.848
1495.00,53.827
1496.00,53.865
1497.00,53.885
1498.00,53.882
1499.00,53.915
1500.00,53.909
1501.00, 
1502.00, 
1503.00, 
1504.00, 
1505.00, 
1506.00, 
1507.00, 
1508.00, 
1509.00, 
1510.00, 
1511.00, 
1512.00, 
1513.00, 
1514.00, 
1515.00, 
1516.00, 
1517.00, 
1518.00, 
1519.00, 
1520.00, 
1521.00, 
1522.00, 
1523.00, 
1524.00, 
1525.00, 
1526.00, 
1527.00, 
1528.00, 
1529.00, 
1530.00, 
1531.00, 
1532.00, 
1533.00, 
1534.00, 
1535.00, 
1536.00, 
1537.00, 
1538.00, 
1539.00, 
1540.00, 
1541.00, 
1542.00, 
1543.00, 
1544.00, 
1545.00, 
1546.00, 
1547.00, 
1548.00, 
1549.00, 
1550.00, 
1551.00, 
1552.00, 
1553.00, 
1554.00, 
1555.00, 
1556.00, 
1557.00, 
1558.00, 
1559.00, 
1560.00, 
1561.00, 
1562.00, 
1563.00, 
1564.00, 
1565.00, 
1566.00, 
1567.00, 
1568.00, 
1569.00, 
1570.00, 
1571.00, 
1572.00, 
1573.00, 
1574.00, 
1575.00, 
1576.00, 
1577.00, 
1578.00, 
1579.00, 
1580.00, 
1581.00, 
1582.00, 
1583.00, 
1584.00, 
1585.00, 
1586.00, 
1587.00, 
1588.00, 
1589.00, 
1590.00, 
1591.00, 
1592.00, 
1593.00, 
1594.00, 
1595.00, 
1596.00, 
1597.00, 
1598.00, 
1599.00, 
1600.00, 
1601.00, 
1602.00, 
1603.00, 
1604.00, 
1605.00, 
1606.00, 
1607.00, 
1608.00, 
1609.00, 
1610.00, 
1611.00, 
1612.00, 
1613.00, 
1614.00, 
1615.00, 
1616.00, 
1617.00, 
1618.00, 
1619.00, 
1620.00, 
1621.00, 
1622.00, 
1623.00, 
1624.00, 
1625.00, 
1626.00, 
1627.00, 
1628.00, 
1629.00, 
1630.00, 
1631.00, 
1632.00, 
1633.00, 
1634.00, 
1635.00, 
1636.00, 
1637.00, 
1638.00, 
1639.00, 
1640.00, 
1641.00, 
1642.00, 
1643.00, 
1644.00, 
1645.00, 
1646.00, 
1647.00, 
1648.00, 
1649.00, 
1650.00, 
1651.00, 
1652.00, 
1653.00, 
1654.00, 
1655.00, 
1656.00, 
1657.00, 
1658.00, 
1659.00, 
1660.00, 
1661.00, 
1662.00, 
1663.00, 
1664.00, 
1665.00, 
1666.00, 
1667.00, 
1668.00, 
1669.00, 
1670.00, 
1671.00, 
1672.00, 
1673.00, 
1674.00, 
1675.00, 
1676.00, 
1677.00, 
1678.00, 
1679.00, 
1680.00, 
1681.00, 
1682.00, 
1683.00, 
1684.00, 
1685.00, 
1686.00, 
1687.00, 
1688.00, 
1689.00, 
1690.00, 
1691.00, 
1692.00, 
1693.00, 
1694.00, 
1695.00, 
1696.00, 
1697.00, 
1698.00, 
1699.00, 
1700.00, 
1701.00, 
1702.00, 
1703.00, 
1704.00, 
1705.00, 
1706.00, 
1707.00, 
1708.00, 
1709.00, 
1710.00, 
1711.00, 
1712.00, 
1713.00, 
1714.00, 
1715.00, 
1716.00, 
1717.00, 
1718.00, 
1719.00, 
1720.00, 
1721.00, 
1722.00, 
1723.00, 
1724.00, 
1725.00, 
1726.00, 
1727.00, 
1728.00, 
1729.00, 
1730.00, 
1731.00, 
1732.00, 
1733.00, 
1734.00, 
1735.00, 
1736.00, 
1737.00, 
1738.00, 
1739.00, 
1740.00, 
1741.00, 
1742.00, 
1743.00, 
1744.00, 
1745.00, 
1746.00, 
1747.00, 
1748.00, 
1749.00, 
1750.00, 
1751.00, 
1752.00, 
1753.00, 
1754.00, 
1755.00, 
1756.00, 
1757.00, 
1758.00, 
1759.00, 
1760.00, 
1761.00, 
1762.00, 
1763.00, 
1764.00, 
1765.00, 
1766.00, 
1767.00, 
1768.00, 
1769.00, 
1770.00, 
1771.00, 
1772.00, 
1773.00, 
1774.00, 
1775.00, 
1776.00, 
1777.00, 
1778.00, 
1779.00, 
1780.00, 
1781.00, 
1782.00, 
1783.00, 
1784.00, 
1785.00, 
1786.00, 
1787.00, 
1788.00, 
1789.00, 
1790.00, 
1791.00, 
1792.00, 
1793.00, 
1794.00, 
1795.00, 
1796.00, 
1797.00, 
1798.00, 
1799.00, 
1800.00, 
1801.00, 
1802.00, 
1803.00, 
1804.00, 
1805.00, 
1806.00, 
1807.00, 
1808.00, 
1809.00, 
1810.00, 
1811.00, 
1812.00, 
1813.00, 
1814.00, 
1815.00, 
1816.00, 
1817.00, 
1818.00, 
1819.00, 
1820.00, 
1821.00, 
1822.00, 
1823.00, 
1824.00, 
1825.00, 
1826.00, 
1827.00, 
1828.00, 
1829.00, 
1830.00, 
1831.00, 
1832.00, 
1833.00, 
1834.00, 
1835.00, 
1836.00, 
1837.00, 
1838.00, 
1839.00, 
1840.00, 
1841.00, 
1842.00, 
1843.00, 
1844.00, 
1845.00, 
1846.00, 
1847.00, 
1848.00, 
1849.00, 
1850.00, 
1851.00, 
1852.00, 
1853.00, 
1854.00, 
1855.00, 
1856.00, 
1857.00, 
1858.00, 
1859.00, 
1860.00, 
1861.00, 
1862.00, 
1863.00, 
1864.00, 
1865.00, 
1866.00, 
1867.00, 
1868.00, 
1869.00, 
1870.00, 
1871.00, 
1872.00, 
1873.00, 
1874.00, 
1875.00, 
1876.00, 
1877.00, 
1878.00, 
1879.00, 
1880.00, 
1881.00, 
1882.00, 
1883.00, 
1884.00, 
1885.00, 
1886.00, 
1887.00, 
1888.00, 
1889.00, 
1890.00, 
1891.00, 
1892.00, 
1893.00, 
1894.00, 
1895.00, 
1896.00, 
1897.00, 
1898.00, 
1899.00, 
1900.00, 
1901.00, 
1902.00, 
1903.00, 
1904.00, 
1905.00, 
1906.00, 
1907.00, 
1908.00, 
1909.00, 
1910.00, 
1911.00, 
1912.00, 
1913.00, 
1914.00, 
1915.00, 
1916.00, 
1917.00, 
1918.00, 
1919.00, 
1920.00, 
1921.00, 
1922.00, 
1923.00, 
1924.00, 
1925.00, 
1926.00, 
1927.00, 
1928.00, 
1929.00, 
1930.00, 
1931.00, 
1932.00, 
1933.00, 
1934.00, 
1935.00, 
1936.00, 
1937.00, 
1938.00, 
1939.00, 
1940.00, 
1941.00, 
1942.00, 
1943.00, 
1944.00, 
1945.00, 
1946.00, 
1947.00, 
1948.00, 
1949.00, 
1950.00, 
1951.00, 
1952.00, 
1953.00, 
1954.00, 
1955.00, 
1956.00, 
1957.00, 
1958.00, 
1959.00, 
1960.00, 
1961.00, 
1962.00, 
1963.00, 
1964.00, 
1965.00, 
1966.00, 
1967.00, 
1968.00, 
1969.00, 
1970.00, 
1971.00, 
1972.00, 
1973.00, 
1974.00, 
1975.00, 
1976.00, 
1977.00, 
1978.00, 
1979.00, 
1980.00, 
1981.00, 
1982.00, 
1983.00, 
1984.00, 
1985.00, 
1986.00, 
1987.00, 
1988.00, 
1989.00, 
1990.00, 
1991.00, 
1992.00, 
1993.00, 
1994.00, 
1995.00, 
1996.00, 
1997.00, 
1998.00, 
1999.00, 
2000.00, 
2001.00, 
2002.00, 
2003.00, 
2004.00, 
2005.00, 
2006.00, 
2007.00, 
2008.00, 
2009.00, 
2010.00, 
2011.00, 
2012.00, 
2013.00, 
2014.00, 
2015.00, 
2016.00, 
2017.00, 
2018.00, 
2019.00, 
2020.00, 
2021.00, 
2022.00, 
2023.00, 
2024.00, 
2025.00, 
2026.00, 
2027.00, 
2028.00, 
2029.00, 
2030.00, 
2031.00, 
2032.00, 
2033.00, 
2034.00, 
2035.00, 
2036.00, 
2037.00, 
2038.00, 
2039.00, 
2040.00, 
2041.00, 
2042.00, 
2043.00, 
2044.00, 
2045.00, 
2046.00, 
2047.00, 
2048.00, 
2049.00, 
2050.00, 
2051.00, 
2052.00, 
2053.00, 
2054.00, 
2055.00, 
2056.00, 
2057.00, 
2058.00, 
2059.00, 
2060.00, 
2061.00, 
2062.00, 
2063.00, 
2064.00, 
2065.00, 
2066.00, 
2067.00, 
2068.00, 
2069.00, 
2070.00, 
2071.00, 
2072.00, 
2073.00, 
2074.00, 
2075.00, 
2076.00, 
2077.00, 
2078.00, 
2079.00, 
2080.00, 
2081.00, 
2082.00, 
2083.00, 
2084.00, 
2085.00, 
2086.00, 
2087.00, 
2088.00, 
2089.00, 
2090.00, 
2091.00, 
2092.00, 
2093.00, 
2094.00, 
2095.00, 
2096.00, 
2097.00, 
2098.00, 
2099.00, 
2100.00, 
2101.00, 
2102.00, 
2103.00, 
2104.00, 
2105.00, 
2106.00, 
2107.00, 
2108.00, 
2109.00, 
2110.00, 
2111.00, 
2112.00, 
2113.00, 
2114.00, 
2115.00, 
2116.00, 
2117.00, 
2118.00, 
2119.00, 
2120.00, 
2121.00, 
2122.00, 
2123.00, 
2124.00, 
2125.00, 
2126.00, 
2127.00, 
2128.00, 
2129.00, 
2130.00, 
2131.00, 
2132.00, 
2133.00, 
2134.00, 
2135.00, 
2136.00, 
2137.00, 
2138.00, 
2139.00, 
2140.00, 
2141.00, 
2142.00, 
2143.00, 
2144.00, 
2145.00, 
2146.00, 
2147.00, 
2148.00, 
2149.00, 
2150.00, 
2151.00, 
2152.00, 
2153.00, 
2154.00, 
2155.00, 
2156.00, 
2157.00, 
2158.00, 
2159.00, 
2160.00, 
2161.00, 
2162.00, 
2163.00, 
2164.00, 
2165.00, 
2166.00, 
2167.00, 
2168.00, 
2169.00, 
2170.00, 
2171.00, 
2172.00, 
2173.00, 
2174.00, 
2175.00, 
2176.00, 
2177.00, 
2178.00, 
2179.00, 
2180.00, 
2181.00, 
2182.00, 
2183.00, 
2184.00, 
2185.00, 
2186.00, 
2187.00, 
2188.00, 
2189.00, 
2190.00, 
2191.00, 
2192.00, 
2193.00, 
2194.00, 
2195.00, 
2196.00, 
2197.00, 
2198.00, 
2199.00, 
2200.00, 
2201.00, 
2202.00, 
2203.00, 
2204.00, 
2205.00, 
2206.00, 
2207.00, 
2208.00, 
2209.00, 
2210.00, 
2211.00, 
2212.00, 
2213.00, 
2214.00, 
2215.00, 
2216.00, 
2217.00, 
2218.00, 
2219.00, 
2220.00, 
2221.00, 
2222.00, 
2223.00, 
2224.00, 
2225.00, 
2226.00, 
2227.00, 
2228.00, 
2229.00, 
2230.00, 
2231.00, 
2232.00, 
2233.00, 
2234.00, 
2235.00, 
2236.00, 
2237.00, 
2238.00, 
2239.00, 
2240.00, 
2241.00, 
2242.00, 
2243.00, 
2244.00, 
2245.00, 
2246.00, 
2247.00, 
2248.00, 
2249.00, 
2250.00, 
2251.00, 
2252.00, 
2253.00, 
2254.00, 
2255.00, 
2256.00, 
2257.00, 
2258.00, 
2259.00, 
2260.00, 
2261.00, 
2262.00, 
2263.00, 
2264.00, 
2265.00, 
2266.00, 
2267.00, 
2268.00, 
2269.00, 
2270.00, 
2271.00, 
2272.00, 
2273.00, 
2274.00, 
2275.00, 
2276.00, 
2277.00, 
2278.00, 
2279.00, 
2280.00, 
2281.00, 
2282.00, 
2283.00, 
2284.00, 
2285.00, 
2286.00, 
2287.00, 
2288.00, 
2289.00, 
2290.00, 
2291.00, 
2292.00, 
2293.00, 
2294.00, 
2295.00, 
2296.00, 
2297.00, 
2298.00, 
2299.00, 
2300.00, 
2301.00, 
2302.00, 
2303.00, 
2304.00, 
2305.00, 
2306.00, 
2307.00, 
2308.00, 
2309.00, 
2310.00, 
2311.00, 
2312.00, 
2313.00, 
2314.00, 
2315.00, 
2316.00, 
2317.00, 
2318.00, 
2319.00, 
2320.00, 
2321.00, 
2322.00, 
2323.00, 
2324.00, 
2325.00, 
2326.00, 
2327.00, 
2328.00, 
2329.00, 
2330.00, 
2331.00, 
2332.00, 
2333.00, 
2334.00, 
2335.00, 
2336.00, 
2337.00, 
2338.00, 
2339.00, 
2340.00, 
2341.00, 
2342.00, 
2343.00, 
2344.00, 
2345.00, 
2346.00, 
2347.00, 
2348.00, 
2349.00, 
2350.00, 
2351.00, 
2352.00, 
2353.00, 
2354.00, 
2355.00, 
2356.00, 
2357.00, 
2358.00, 
2359.00, 
2360.00, 
2361.00, 
2362.00, 
2363.00, 
2364.00, 
2365.00, 
2366.00, 
2367.00, 
2368.00, 
2369.00, 
2370.00, 
2371.00, 
2372.00, 
2373.00, 
2374.00, 
2375.00, 
2376.00, 
2377.00, 
2378.00, 
2379.00, 
2380.00, 
2381.00, 
2382.00, 
2383.00, 
2384.00, 
2385.00, 
2386.00, 
2387.00, 
2388.00, 
2389.00, 
2390.00, 
2391.00, 
2392.00, 
2393.00, 
2394.00, 
2395.00, 
2396.00, 
2397.00, 
2398.00, 
2399.00, 
2400.00, 
2401.00, 
2402.00, 
2403.00, 
2404.00, 
2405.00, 
2406.00, 
2407.00, 
2408.00, 
2409.00, 
2410.00, 
2411.00, 
2412.00, 
2413.00, 
2414.00, 
2415.00, 
2416.00, 
2417.00, 
2418.00, 
2419.00, 
2420.00, 
2421.00, 
2422.00, 
2423.00, 
2424.00, 
2425.00, 
2426.00, 
2427.00, 
2428.00, 
2429.00, 
2430.00, 
2431.00, 
2432.00, 
2433.00, 
2434.00, 
2435.00, 
2436.00, 
2437.00, 
2438.00, 
2439.00, 
2440.00, 
2441.00, 
2442.00, 
2443.00, 
2444.00, 
2445.00, 
2446.00, 
2447.00, 
2448.00, 
2449.00, 
2450.00, 
2451.00, 
2452.00, 
2453.00, 
2454.00, 
2455.00, 
2456.00, 
2457.00, 
2458.00, 
2459.00, 
2460.00, 
2461.00, 
2462.00, 
2463.00, 
2464.00, 
2465.00, 
2466.00, 
2467.00, 
2468.00, 
2469.00, 
2470.00, 
2471.00, 
2472.00, 
2473.00, 
2474.00, 
2475.00, 
2476.00, 
2477.00, 
2478.00, 
2479.00, 
2480.00, 
2481.00, 
2482.00, 
2483.00, 
2484.00, 
2485.00, 
2486.00, 
2487.00, 
2488.00, 
2489.00, 
2490.00, 
2491.00, 
2492.00, 
2493.00, 
2494.00, 
2495.00, 
2496.00, 
2497.00, 
2498.00, 
2499.00, 
2500.00, 
2501.00, 
2502.00, 
2503.00, 
2504.00, 
2505.00, 
2506.00, 
2507.00, 
2508.00, 
2509.00, 
2510.00, 
2511.00, 
2512.00, 
2513.00, 
2514.00, 
2515.00, 
2516.00, 
2517.00, 
2518.00, 
2519.00, 
2520.00, 
2521.00, 
2522.00, 
2523.00, 
2524.00, 
2525.00, 
2526.00, 
2527.00, 
2528.00, 
2529.00, 
2530.00, 
2531.00, 
2532.00, 
2533.00, 
2534.00, 
2535.00, 
2536.00, 
2537.00, 
2538.00, 
2539.00, 
2540.00, 
2541.00, 
2542.00, 
2543.00, 
2544.00, 
2545.00, 
2546.00, 
2547.00, 
2548.00, 
2549.00, 
2550.00, 
2551.00, 
2552.00, 
2553.00, 
2554.00, 
2555.00, 
2556.00, 
2557.00, 
2558.00, 
2559.00, 
2560.00, 
2561.00, 
2562.00, 
2563.00, 
2564.00, 
2565.00, 
2566.00, 
2567.00, 
2568.00, 
2569.00, 
2570.00, 
2571.00, 
2572.00, 
2573.00, 
2574.00, 
2575.00, 
2576.00, 
2577.00, 
2578.00, 
2579.00, 
2580.00, 
2581.00, 
2582.00, 
2583.00, 
2584.00, 
2585.00, 
2586.00, 
2587.00, 
2588.00, 
2589.00, 
2590.00, 
2591.00, 
2592.00, 
2593.00, 
2594.00, 
2595.00, 
2596.00, 
2597.00, 
2598.00, 
2599.00, 
2600.00, 
