"1bP2 - RawData"
"Wavelength nm.","T%"
200.00,0.004
201.00,0.001
202.00,0.000
203.00,0.002
204.00,0.001
205.00,-0.001
206.00,0.001
207.00,-0.000
208.00,0.004
209.00,0.001
210.00,-0.001
211.00,-0.002
212.00,0.001
213.00,0.001
214.00,0.002
215.00,0.000
216.00,-0.000
217.00,0.000
218.00,0.002
219.00,-0.000
220.00,-0.001
221.00,0.000
222.00,-0.003
223.00,0.002
224.00,-0.000
225.00,-0.001
226.00,-0.002
227.00,0.001
228.00,0.001
229.00,-0.001
230.00,0.001
231.00,0.002
232.00,-0.001
233.00,0.001
234.00,0.001
235.00,-0.000
236.00,0.001
237.00,0.000
238.00,-0.001
239.00,-0.001
240.00,-0.001
241.00,0.001
242.00,-0.001
243.00,0.001
244.00,0.000
245.00,0.001
246.00,-0.001
247.00,-0.000
248.00,0.000
249.00,0.001
250.00,-0.000
251.00,-0.000
252.00,0.000
253.00,0.000
254.00,0.002
255.00,0.001
256.00,-0.002
257.00,-0.000
258.00,0.001
259.00,0.000
260.00,-0.001
261.00,0.000
262.00,0.001
263.00,-0.001
264.00,0.000
265.00,-0.000
266.00,0.000
267.00,0.001
268.00,-0.001
269.00,0.001
270.00,0.000
271.00,0.000
272.00,0.001
273.00,0.000
274.00,0.001
275.00,0.001
276.00,0.001
277.00,-0.000
278.00,-0.000
279.00,-0.001
280.00,-0.001
281.00,0.000
282.00,-0.001
283.00,-0.001
284.00,0.002
285.00,-0.001
286.00,-0.001
287.00,-0.002
288.00,0.002
289.00,0.002
290.00,0.001
291.00,-0.001
292.00,-0.002
293.00,0.000
294.00,0.001
295.00,0.000
296.00,-0.000
297.00,0.000
298.00,0.002
299.00,0.001
300.00,0.002
301.00,0.005
302.00,0.006
303.00,0.010
304.00,0.013
305.00,0.023
306.00,0.033
307.00,0.053
308.00,0.079
309.00,0.124
310.00,0.172
311.00,0.232
312.00,0.306
313.00,0.407
314.00,0.535
315.00,0.676
316.00,0.856
317.00,1.061
318.00,1.305
319.00,1.591
320.00,1.921
321.00,2.267
322.00,2.669
323.00,3.078
324.00,3.537
325.00,3.924
326.00,4.446
327.00,4.982
328.00,5.533
329.00,6.043
330.00,6.603
331.00,7.129
332.00,7.688
333.00,8.268
334.00,8.789
335.00,9.382
336.00,9.877
337.00,10.424
338.00,10.968
339.00,11.423
340.00,11.930
341.00,12.373
342.00,12.771
343.00,13.229
344.00,13.643
345.00,14.020
346.00,14.300
347.00,14.626
348.00,14.927
349.00,15.203
350.00,15.485
351.00,15.696
352.00,15.923
353.00,16.085
354.00,16.263
355.00,16.466
356.00,16.666
357.00,16.731
358.00,16.862
359.00,17.027
360.00,17.170
361.00,17.205
362.00,17.268
363.00,17.369
364.00,17.407
365.00,17.416
366.00,17.447
367.00,17.476
368.00,17.493
369.00,17.488
370.00,17.500
371.00,17.472
372.00,17.432
373.00,17.423
374.00,17.417
375.00,17.330
376.00,17.286
377.00,17.198
378.00,17.114
379.00,17.031
380.00,17.004
381.00,16.954
382.00,16.949
383.00,16.928
384.00,16.895
385.00,16.895
386.00,16.871
387.00,16.907
388.00,16.904
389.00,16.886
390.00,16.892
391.00,16.849
392.00,16.880
393.00,16.828
394.00,16.856
395.00,16.808
396.00,16.778
397.00,16.830
398.00,16.705
399.00,16.750
400.00,16.706
401.00,16.692
402.00,16.751
403.00,16.724
404.00,16.690
405.00,16.672
406.00,16.627
407.00,16.592
408.00,16.579
409.00,16.550
410.00,16.518
411.00,16.503
412.00,16.468
413.00,16.458
414.00,16.447
415.00,16.441
416.00,16.451
417.00,16.455
418.00,16.504
419.00,16.559
420.00,16.533
421.00,16.481
422.00,16.491
423.00,16.535
424.00,16.525
425.00,16.595
426.00,16.630
427.00,16.661
428.00,16.693
429.00,16.718
430.00,16.766
431.00,16.831
432.00,16.837
433.00,16.900
434.00,16.934
435.00,17.002
436.00,17.083
437.00,17.139
438.00,17.162
439.00,17.234
440.00,17.287
441.00,17.404
442.00,17.471
443.00,17.532
444.00,17.631
445.00,17.693
446.00,17.795
447.00,17.877
448.00,17.949
449.00,18.044
450.00,18.131
451.00,18.261
452.00,18.309
453.00,18.445
454.00,18.530
455.00,18.605
456.00,18.746
457.00,18.857
458.00,18.953
459.00,19.099
460.00,19.222
461.00,19.362
462.00,19.428
463.00,19.577
464.00,19.708
465.00,19.827
466.00,19.957
467.00,20.083
468.00,20.157
469.00,20.295
470.00,20.400
471.00,20.522
472.00,20.650
473.00,20.757
474.00,20.880
475.00,21.019
476.00,21.096
477.00,21.244
478.00,21.360
479.00,21.582
480.00,21.676
481.00,21.805
482.00,22.029
483.00,22.099
484.00,22.318
485.00,22.464
486.00,22.602
487.00,22.749
488.00,22.877
489.00,23.042
490.00,23.212
491.00,23.368
492.00,23.499
493.00,23.743
494.00,23.891
495.00,23.894
496.00,23.999
497.00,24.133
498.00,24.303
499.00,24.472
500.00,24.616
501.00,24.708
502.00,24.868
503.00,24.988
504.00,25.067
505.00,25.259
506.00,25.353
507.00,25.457
508.00,25.584
509.00,25.783
510.00,25.890
511.00,25.953
512.00,26.133
513.00,26.316
514.00,26.429
515.00,26.571
516.00,26.712
517.00,26.794
518.00,26.922
519.00,26.983
520.00,27.084
521.00,27.204
522.00,27.367
523.00,27.416
524.00,27.514
525.00,27.679
526.00,27.785
527.00,27.865
528.00,27.932
529.00,28.131
530.00,28.287
531.00,28.368
532.00,28.467
533.00,28.552
534.00,28.664
535.00,28.752
536.00,28.851
537.00,28.936
538.00,28.981
539.00,29.053
540.00,29.170
541.00,29.241
542.00,29.281
543.00,29.356
544.00,29.471
545.00,29.529
546.00,29.557
547.00,29.671
548.00,29.787
549.00,29.822
550.00,29.915
551.00,30.002
552.00,30.073
553.00,30.110
554.00,30.233
555.00,30.332
556.00,30.343
557.00,30.386
558.00,30.465
559.00,30.540
560.00,30.609
561.00,30.683
562.00,30.751
563.00,30.775
564.00,30.838
565.00,30.879
566.00,30.920
567.00,30.968
568.00,31.043
569.00,31.049
570.00,31.143
571.00,31.058
572.00,31.229
573.00,31.230
574.00,31.279
575.00,31.295
576.00,31.317
577.00,31.391
578.00,31.486
579.00,31.567
580.00,31.599
581.00,31.717
582.00,31.836
583.00,31.825
584.00,31.951
585.00,32.032
586.00,32.029
587.00,32.110
588.00,32.164
589.00,32.115
590.00,32.219
591.00,32.283
592.00,32.258
593.00,32.281
594.00,32.389
595.00,32.450
596.00,32.523
597.00,32.618
598.00,32.706
599.00,32.698
600.00,32.784
601.00,32.822
602.00,32.835
603.00,32.891
604.00,32.884
605.00,32.990
606.00,33.079
607.00,33.094
608.00,33.144
609.00,33.204
610.00,33.364
611.00,33.278
612.00,33.293
613.00,33.394
614.00,33.449
615.00,33.511
616.00,33.617
617.00,33.620
618.00,33.616
619.00,33.711
620.00,33.772
621.00,33.861
622.00,33.977
623.00,34.022
624.00,34.123
625.00,34.191
626.00,34.188
627.00,34.288
628.00,34.323
629.00,34.392
630.00,34.503
631.00,34.503
632.00,34.669
633.00,34.761
634.00,34.753
635.00,34.922
636.00,34.967
637.00,35.067
638.00,35.200
639.00,35.286
640.00,35.328
641.00,35.292
642.00,35.465
643.00,35.578
644.00,35.744
645.00,35.797
646.00,35.974
647.00,36.060
648.00,36.103
649.00,36.156
650.00,36.193
651.00,36.389
652.00,36.526
653.00,36.526
654.00,36.709
655.00,36.880
656.00,37.059
657.00,37.108
658.00,37.234
659.00,37.236
660.00,37.311
661.00,37.399
662.00,37.562
663.00,37.598
664.00,37.872
665.00,38.044
666.00,37.892
667.00,38.212
668.00,38.156
669.00,38.390
670.00,38.704
671.00,38.635
672.00,38.804
673.00,38.906
674.00,38.951
675.00,39.071
676.00,39.315
677.00,39.478
678.00,39.367
679.00,39.545
680.00,39.740
681.00,39.899
682.00,40.017
683.00,40.002
684.00,40.252
685.00,40.367
686.00,40.296
687.00,40.525
688.00,40.634
689.00,40.535
690.00,40.885
691.00,41.220
692.00,40.745
693.00,41.125
694.00,41.404
695.00,41.461
696.00,41.562
697.00,41.609
698.00,41.730
699.00,41.936
700.00,42.139
701.00,42.180
702.00,42.276
703.00,42.521
704.00,42.614
705.00,42.450
706.00,42.587
707.00,42.841
708.00,42.734
709.00,43.142
710.00,43.463
711.00,43.127
712.00,43.164
713.00,43.351
714.00,43.498
715.00,43.657
716.00,43.684
717.00,43.845
718.00,43.855
719.00,43.967
720.00,44.129
721.00,48.577
722.00,48.661
723.00,48.695
724.00,48.742
725.00,48.790
726.00,48.794
727.00,48.890
728.00,48.982
729.00,48.952
730.00,49.037
731.00,49.110
732.00,49.142
733.00,49.249
734.00,49.378
735.00,49.382
736.00,49.345
737.00,49.505
738.00,49.649
739.00,49.648
740.00,49.722
741.00,49.754
742.00,49.921
743.00,49.852
744.00,49.886
745.00,49.967
746.00,50.006
747.00,49.956
748.00,50.036
749.00,50.118
750.00,50.086
751.00,50.229
752.00,50.186
753.00,50.088
754.00,50.216
755.00,50.287
756.00,50.293
757.00,50.252
758.00,50.423
759.00,50.363
760.00,50.514
761.00,50.496
762.00,50.546
763.00,50.618
764.00,50.613
765.00,50.614
766.00,50.650
767.00,50.699
768.00,50.757
769.00,50.818
770.00,50.920
771.00,50.839
772.00,50.765
773.00,50.886
774.00,50.927
775.00,50.974
776.00,50.956
777.00,51.051
778.00,51.009
779.00,51.148
780.00,51.078
781.00,51.157
782.00,51.075
783.00,51.121
784.00,51.230
785.00,51.086
786.00,51.226
787.00,51.152
788.00,51.166
789.00,51.265
790.00,51.234
791.00,51.279
792.00,51.158
793.00,51.314
794.00,51.261
795.00,51.244
796.00,51.302
797.00,51.156
798.00,51.327
799.00,51.258
800.00,51.244
801.00,51.262
802.00,51.236
803.00,51.279
804.00,51.225
805.00,51.201
806.00,51.252
807.00,51.304
808.00,51.274
809.00,51.218
810.00,51.271
811.00,51.244
812.00,51.366
813.00,51.243
814.00,51.388
815.00,51.285
816.00,51.235
817.00,51.207
818.00,51.173
819.00,51.322
820.00,51.198
821.00,51.120
822.00,51.228
823.00,51.211
824.00,51.233
825.00,51.260
826.00,51.213
827.00,51.212
828.00,51.328
829.00,51.160
830.00,51.230
831.00,53.911
832.00,53.872
833.00,53.891
834.00,53.900
835.00,53.872
836.00,53.896
837.00,53.866
838.00,53.862
839.00,53.841
840.00,53.819
841.00,53.885
842.00,53.825
843.00,53.864
844.00,53.853
845.00,53.789
846.00,53.827
847.00,53.782
848.00,53.766
849.00,53.755
850.00,53.740
851.00,53.687
852.00,53.762
853.00,53.675
854.00,53.692
855.00,53.630
856.00,53.621
857.00,53.622
858.00,53.593
859.00,53.569
860.00,53.574
861.00,53.613
862.00,53.496
863.00,53.548
864.00,53.679
865.00,53.581
866.00,53.555
867.00,53.503
868.00,53.525
869.00,53.537
870.00,53.528
871.00,53.528
872.00,53.558
873.00,53.500
874.00,53.551
875.00,53.492
876.00,53.576
877.00,53.519
878.00,53.523
879.00,53.484
880.00,53.502
881.00,53.453
882.00,53.513
883.00,53.453
884.00,53.416
885.00,53.433
886.00,53.437
887.00,53.410
888.00,53.391
889.00,53.398
890.00,53.377
891.00,53.357
892.00,53.360
893.00,53.331
894.00,53.328
895.00,53.295
896.00,53.292
897.00,53.275
898.00,53.236
899.00,53.240
900.00,53.220
901.00,53.222
902.00,53.252
903.00,53.210
904.00,53.213
905.00,53.229
906.00,53.198
907.00,53.172
908.00,53.143
909.00,53.164
910.00,53.114
911.00,53.121
912.00,53.105
913.00,53.054
914.00,53.071
915.00,53.023
916.00,53.022
917.00,53.016
918.00,53.004
919.00,52.969
920.00,52.933
921.00,52.974
922.00,52.975
923.00,52.950
924.00,52.883
925.00,52.915
926.00,52.874
927.00,52.853
928.00,52.764
929.00,52.945
930.00,52.814
931.00,52.778
932.00,52.784
933.00,52.797
934.00,52.783
935.00,52.765
936.00,52.760
937.00,52.719
938.00,52.725
939.00,52.700
940.00,52.662
941.00,52.674
942.00,52.639
943.00,52.617
944.00,52.612
945.00,52.593
946.00,52.630
947.00,52.575
948.00,52.542
949.00,52.505
950.00,52.606
951.00,52.508
952.00,52.505
953.00,52.460
954.00,52.452
955.00,52.420
956.00,52.408
957.00,52.363
958.00,52.376
959.00,52.312
960.00,52.329
961.00,52.318
962.00,52.314
963.00,52.273
964.00,52.268
965.00,52.359
966.00,52.264
967.00,52.250
968.00,52.240
969.00,52.270
970.00,52.224
971.00,52.239
972.00,52.189
973.00,52.228
974.00,52.266
975.00,52.230
976.00,52.249
977.00,52.300
978.00,52.354
979.00,52.226
980.00,52.257
981.00,52.254
982.00,52.237
983.00,52.252
984.00,52.230
985.00,52.268
986.00,52.221
987.00,52.254
988.00,52.207
989.00,52.212
990.00,52.208
991.00,52.200
992.00,52.199
993.00,52.177
994.00,52.190
995.00,52.165
996.00,52.164
997.00,52.131
998.00,52.123
999.00,52.140
1000.00,52.068
1001.00,52.086
1002.00,52.082
1003.00,52.069
1004.00,52.050
1005.00,52.019
1006.00,52.069
1007.00,52.041
1008.00,52.039
1009.00,52.017
1010.00,52.003
1011.00,52.016
1012.00,51.963
1013.00,51.977
1014.00,51.948
1015.00,51.973
1016.00,51.925
1017.00,51.923
1018.00,51.910
1019.00,51.882
1020.00,51.875
1021.00,51.858
1022.00,51.845
1023.00,51.812
1024.00,51.825
1025.00,51.777
1026.00,51.798
1027.00,51.764
1028.00,51.763
1029.00,51.765
1030.00,51.717
1031.00,51.739
1032.00,51.704
1033.00,51.702
1034.00,51.676
1035.00,51.649
1036.00,51.614
1037.00,51.612
1038.00,51.595
1039.00,51.556
1040.00,51.554
1041.00,51.505
1042.00,51.521
1043.00,51.504
1044.00,51.531
1045.00,51.519
1046.00,51.517
1047.00,51.528
1048.00,51.550
1049.00,51.561
1050.00,51.553
1051.00,51.600
1052.00,51.582
1053.00,51.600
1054.00,51.603
1055.00,51.625
1056.00,51.663
1057.00,51.637
1058.00,51.608
1059.00,51.616
1060.00,51.626
1061.00,51.600
1062.00,51.597
1063.00,51.587
1064.00,51.613
1065.00,51.601
1066.00,51.582
1067.00,51.574
1068.00,51.603
1069.00,51.577
1070.00,51.552
1071.00,51.537
1072.00,51.568
1073.00,51.527
1074.00,51.514
1075.00,51.506
1076.00,51.527
1077.00,51.498
1078.00,51.495
1079.00,51.502
1080.00,51.496
1081.00,51.498
1082.00,51.491
1083.00,51.476
1084.00,51.481
1085.00,51.459
1086.00,51.459
1087.00,51.489
1088.00,51.441
1089.00,51.442
1090.00,51.432
1091.00,51.426
1092.00,51.430
1093.00,51.409
1094.00,51.392
1095.00,51.392
1096.00,51.359
1097.00,51.361
1098.00,51.360
1099.00,51.337
1100.00,51.334
1101.00,51.339
1102.00,51.313
1103.00,51.341
1104.00,51.324
1105.00,51.304
1106.00,51.297
1107.00,51.288
1108.00,51.296
1109.00,51.290
1110.00,51.272
1111.00,51.265
1112.00,51.248
1113.00,51.235
1114.00,51.239
1115.00,51.240
1116.00,51.226
1117.00,51.227
1118.00,51.196
1119.00,51.203
1120.00,51.204
1121.00,51.192
1122.00,51.184
1123.00,51.167
1124.00,51.165
1125.00,51.182
1126.00,51.151
1127.00,51.160
1128.00,51.137
1129.00,51.129
1130.00,51.122
1131.00,51.133
1132.00,51.141
1133.00,51.122
1134.00,51.125
1135.00,51.117
1136.00,51.123
1137.00,51.132
1138.00,51.131
1139.00,51.138
1140.00,51.104
1141.00,51.112
1142.00,51.097
1143.00,51.106
1144.00,51.084
1145.00,51.066
1146.00,51.061
1147.00,51.084
1148.00,51.066
1149.00,51.087
1150.00,51.100
1151.00,51.082
1152.00,51.074
1153.00,51.083
1154.00,51.060
1155.00,51.087
1156.00,51.068
1157.00,51.075
1158.00,51.063
1159.00,51.065
1160.00,51.050
1161.00,51.073
1162.00,51.064
1163.00,51.056
1164.00,51.068
1165.00,51.054
1166.00,51.060
1167.00,51.043
1168.00,51.059
1169.00,51.047
1170.00,51.040
1171.00,51.016
1172.00,51.019
1173.00,51.019
1174.00,51.035
1175.00,51.027
1176.00,51.017
1177.00,51.018
1178.00,51.034
1179.00,51.012
1180.00,51.014
1181.00,51.044
1182.00,51.008
1183.00,51.021
1184.00,51.001
1185.00,51.020
1186.00,51.027
1187.00,51.016
1188.00,51.023
1189.00,51.021
1190.00,51.001
1191.00,51.031
1192.00,51.038
1193.00,51.028
1194.00,51.055
1195.00,51.011
1196.00,51.041
1197.00,51.053
1198.00,51.017
1199.00,51.019
1200.00,51.046
1201.00,51.054
1202.00,51.065
1203.00,51.042
1204.00,51.031
1205.00,51.063
1206.00,51.017
1207.00,51.054
1208.00,51.048
1209.00,51.029
1210.00,51.023
1211.00,51.014
1212.00,51.027
1213.00,50.992
1214.00,51.019
1215.00,50.980
1216.00,51.000
1217.00,51.003
1218.00,51.003
1219.00,51.022
1220.00,50.988
1221.00,51.026
1222.00,51.025
1223.00,51.052
1224.00,51.044
1225.00,51.027
1226.00,51.032
1227.00,51.026
1228.00,51.031
1229.00,51.045
1230.00,51.070
1231.00,51.035
1232.00,51.071
1233.00,51.068
1234.00,51.073
1235.00,51.080
1236.00,51.082
1237.00,51.054
1238.00,51.075
1239.00,51.077
1240.00,51.055
1241.00,51.080
1242.00,51.061
1243.00,51.093
1244.00,51.069
1245.00,51.074
1246.00,51.101
1247.00,51.088
1248.00,51.074
1249.00,51.100
1250.00,51.090
1251.00,51.095
1252.00,51.092
1253.00,51.082
1254.00,51.145
1255.00,51.081
1256.00,51.076
1257.00,51.070
1258.00,51.127
1259.00,51.110
1260.00,51.150
1261.00,51.133
1262.00,51.140
1263.00,51.138
1264.00,51.126
1265.00,51.155
1266.00,51.156
1267.00,51.162
1268.00,51.175
1269.00,51.171
1270.00,51.194
1271.00,51.196
1272.00,51.196
1273.00,51.210
1274.00,51.205
1275.00,51.199
1276.00,51.203
1277.00,51.204
1278.00,51.212
1279.00,51.227
1280.00,51.222
1281.00,51.244
1282.00,51.252
1283.00,51.259
1284.00,51.249
1285.00,51.250
1286.00,51.246
1287.00,51.257
1288.00,51.267
1289.00,51.235
1290.00,51.289
1291.00,51.281
1292.00,51.269
1293.00,51.292
1294.00,51.283
1295.00,51.307
1296.00,51.304
1297.00,51.306
1298.00,51.324
1299.00,51.301
1300.00,51.336
1301.00,51.303
1302.00,51.340
1303.00,51.334
1304.00,51.320
1305.00,51.353
1306.00,51.344
1307.00,51.361
1308.00,51.348
1309.00,51.365
1310.00,51.372
1311.00,51.339
1312.00,51.351
1313.00,51.370
1314.00,51.385
1315.00,51.407
1316.00,51.390
1317.00,51.425
1318.00,51.446
1319.00,51.442
1320.00,51.442
1321.00,51.610
1322.00,51.572
1323.00,51.590
1324.00,51.562
1325.00,51.511
1326.00,51.547
1327.00,51.554
1328.00,51.554
1329.00,51.537
1330.00,51.553
1331.00,51.550
1332.00,51.548
1333.00,51.544
1334.00,51.575
1335.00,51.596
1336.00,51.608
1337.00,51.661
1338.00,51.714
1339.00,51.748
1340.00,51.826
1341.00,51.887
1342.00,51.952
1343.00,51.996
1344.00,52.040
1345.00,52.109
1346.00,52.147
1347.00,52.161
1348.00,52.190
1349.00,52.200
1350.00,52.216
1351.00,52.244
1352.00,52.224
1353.00,52.225
1354.00,52.241
1355.00,52.211
1356.00,52.315
1357.00,52.265
1358.00,52.310
1359.00,52.316
1360.00,52.302
1361.00,52.302
1362.00,52.360
1363.00,52.304
1364.00,52.329
1365.00,52.303
1366.00,52.298
1367.00,52.284
1368.00,52.312
1369.00,52.222
1370.00,52.262
1371.00,52.200
1372.00,52.226
1373.00,52.258
1374.00,52.322
1375.00,52.253
1376.00,52.256
1377.00,52.224
1378.00,52.295
1379.00,52.278
1380.00,52.265
1381.00,52.284
1382.00,52.248
1383.00,52.279
1384.00,52.232
1385.00,52.231
1386.00,52.247
1387.00,52.257
1388.00,52.177
1389.00,52.250
1390.00,52.128
1391.00,52.281
1392.00,52.203
1393.00,52.196
1394.00,52.227
1395.00,52.264
1396.00,52.223
1397.00,52.255
1398.00,52.234
1399.00,52.222
1400.00,52.298
1401.00,52.235
1402.00,52.251
1403.00,52.192
1404.00,52.265
1405.00,52.223
1406.00,52.342
1407.00,52.254
1408.00,52.303
1409.00,52.305
1410.00,52.321
1411.00,52.272
1412.00,52.379
1413.00,52.280
1414.00,52.281
1415.00,52.308
1416.00,52.346
1417.00,52.402
1418.00,52.348
1419.00,52.358
1420.00,52.383
1421.00,52.402
1422.00,52.406
1423.00,52.416
1424.00,52.395
1425.00,52.444
1426.00,52.443
1427.00,52.457
1428.00,52.465
1429.00,52.475
1430.00,52.478
1431.00,52.508
1432.00,52.514
1433.00,52.536
1434.00,52.515
1435.00,52.565
1436.00,52.577
1437.00,52.560
1438.00,52.563
1439.00,52.609
1440.00,52.626
1441.00,52.642
1442.00,52.646
1443.00,52.677
1444.00,52.756
1445.00,52.672
1446.00,52.672
1447.00,52.706
1448.00,52.749
1449.00,52.756
1450.00,52.780
1451.00,52.796
1452.00,52.789
1453.00,52.781
1454.00,52.788
1455.00,52.810
1456.00,52.833
1457.00,52.823
1458.00,52.865
1459.00,52.889
1460.00,52.912
1461.00,52.920
1462.00,52.949
1463.00,52.938
1464.00,52.957
1465.00,52.964
1466.00,52.971
1467.00,52.968
1468.00,53.011
1469.00,53.007
1470.00,53.022
1471.00,53.031
1472.00,53.036
1473.00,53.051
1474.00,53.073
1475.00,53.094
1476.00,53.112
1477.00,53.097
1478.00,53.111
1479.00,53.122
1480.00,53.122
1481.00,53.122
1482.00,53.152
1483.00,53.173
1484.00,53.184
1485.00,53.192
1486.00,53.199
1487.00,53.224
1488.00,53.250
1489.00,53.255
1490.00,53.254
1491.00,53.267
1492.00,53.280
1493.00,53.244
1494.00,53.304
1495.00,53.278
1496.00,53.324
1497.00,53.323
1498.00,53.318
1499.00,53.348
1500.00,53.338
1501.00, 
1502.00, 
1503.00, 
1504.00, 
1505.00, 
1506.00, 
1507.00, 
1508.00, 
1509.00, 
1510.00, 
1511.00, 
1512.00, 
1513.00, 
1514.00, 
1515.00, 
1516.00, 
1517.00, 
1518.00, 
1519.00, 
1520.00, 
1521.00, 
1522.00, 
1523.00, 
1524.00, 
1525.00, 
1526.00, 
1527.00, 
1528.00, 
1529.00, 
1530.00, 
1531.00, 
1532.00, 
1533.00, 
1534.00, 
1535.00, 
1536.00, 
1537.00, 
1538.00, 
1539.00, 
1540.00, 
1541.00, 
1542.00, 
1543.00, 
1544.00, 
1545.00, 
1546.00, 
1547.00, 
1548.00, 
1549.00, 
1550.00, 
1551.00, 
1552.00, 
1553.00, 
1554.00, 
1555.00, 
1556.00, 
1557.00, 
1558.00, 
1559.00, 
1560.00, 
1561.00, 
1562.00, 
1563.00, 
1564.00, 
1565.00, 
1566.00, 
1567.00, 
1568.00, 
1569.00, 
1570.00, 
1571.00, 
1572.00, 
1573.00, 
1574.00, 
1575.00, 
1576.00, 
1577.00, 
1578.00, 
1579.00, 
1580.00, 
1581.00, 
1582.00, 
1583.00, 
1584.00, 
1585.00, 
1586.00, 
1587.00, 
1588.00, 
1589.00, 
1590.00, 
1591.00, 
1592.00, 
1593.00, 
1594.00, 
1595.00, 
1596.00, 
1597.00, 
1598.00, 
1599.00, 
1600.00, 
1601.00, 
1602.00, 
1603.00, 
1604.00, 
1605.00, 
1606.00, 
1607.00, 
1608.00, 
1609.00, 
1610.00, 
1611.00, 
1612.00, 
1613.00, 
1614.00, 
1615.00, 
1616.00, 
1617.00, 
1618.00, 
1619.00, 
1620.00, 
1621.00, 
1622.00, 
1623.00, 
1624.00, 
1625.00, 
1626.00, 
1627.00, 
1628.00, 
1629.00, 
1630.00, 
1631.00, 
1632.00, 
1633.00, 
1634.00, 
1635.00, 
1636.00, 
1637.00, 
1638.00, 
1639.00, 
1640.00, 
1641.00, 
1642.00, 
1643.00, 
1644.00, 
1645.00, 
1646.00, 
1647.00, 
1648.00, 
1649.00, 
1650.00, 
1651.00, 
1652.00, 
1653.00, 
1654.00, 
1655.00, 
1656.00, 
1657.00, 
1658.00, 
1659.00, 
1660.00, 
1661.00, 
1662.00, 
1663.00, 
1664.00, 
1665.00, 
1666.00, 
1667.00, 
1668.00, 
1669.00, 
1670.00, 
1671.00, 
1672.00, 
1673.00, 
1674.00, 
1675.00, 
1676.00, 
1677.00, 
1678.00, 
1679.00, 
1680.00, 
1681.00, 
1682.00, 
1683.00, 
1684.00, 
1685.00, 
1686.00, 
1687.00, 
1688.00, 
1689.00, 
1690.00, 
1691.00, 
1692.00, 
1693.00, 
1694.00, 
1695.00, 
1696.00, 
1697.00, 
1698.00, 
1699.00, 
1700.00, 
1701.00, 
1702.00, 
1703.00, 
1704.00, 
1705.00, 
1706.00, 
1707.00, 
1708.00, 
1709.00, 
1710.00, 
1711.00, 
1712.00, 
1713.00, 
1714.00, 
1715.00, 
1716.00, 
1717.00, 
1718.00, 
1719.00, 
1720.00, 
1721.00, 
1722.00, 
1723.00, 
1724.00, 
1725.00, 
1726.00, 
1727.00, 
1728.00, 
1729.00, 
1730.00, 
1731.00, 
1732.00, 
1733.00, 
1734.00, 
1735.00, 
1736.00, 
1737.00, 
1738.00, 
1739.00, 
1740.00, 
1741.00, 
1742.00, 
1743.00, 
1744.00, 
1745.00, 
1746.00, 
1747.00, 
1748.00, 
1749.00, 
1750.00, 
1751.00, 
1752.00, 
1753.00, 
1754.00, 
1755.00, 
1756.00, 
1757.00, 
1758.00, 
1759.00, 
1760.00, 
1761.00, 
1762.00, 
1763.00, 
1764.00, 
1765.00, 
1766.00, 
1767.00, 
1768.00, 
1769.00, 
1770.00, 
1771.00, 
1772.00, 
1773.00, 
1774.00, 
1775.00, 
1776.00, 
1777.00, 
1778.00, 
1779.00, 
1780.00, 
1781.00, 
1782.00, 
1783.00, 
1784.00, 
1785.00, 
1786.00, 
1787.00, 
1788.00, 
1789.00, 
1790.00, 
1791.00, 
1792.00, 
1793.00, 
1794.00, 
1795.00, 
1796.00, 
1797.00, 
1798.00, 
1799.00, 
1800.00, 
1801.00, 
1802.00, 
1803.00, 
1804.00, 
1805.00, 
1806.00, 
1807.00, 
1808.00, 
1809.00, 
1810.00, 
1811.00, 
1812.00, 
1813.00, 
1814.00, 
1815.00, 
1816.00, 
1817.00, 
1818.00, 
1819.00, 
1820.00, 
1821.00, 
1822.00, 
1823.00, 
1824.00, 
1825.00, 
1826.00, 
1827.00, 
1828.00, 
1829.00, 
1830.00, 
1831.00, 
1832.00, 
1833.00, 
1834.00, 
1835.00, 
1836.00, 
1837.00, 
1838.00, 
1839.00, 
1840.00, 
1841.00, 
1842.00, 
1843.00, 
1844.00, 
1845.00, 
1846.00, 
1847.00, 
1848.00, 
1849.00, 
1850.00, 
1851.00, 
1852.00, 
1853.00, 
1854.00, 
1855.00, 
1856.00, 
1857.00, 
1858.00, 
1859.00, 
1860.00, 
1861.00, 
1862.00, 
1863.00, 
1864.00, 
1865.00, 
1866.00, 
1867.00, 
1868.00, 
1869.00, 
1870.00, 
1871.00, 
1872.00, 
1873.00, 
1874.00, 
1875.00, 
1876.00, 
1877.00, 
1878.00, 
1879.00, 
1880.00, 
1881.00, 
1882.00, 
1883.00, 
1884.00, 
1885.00, 
1886.00, 
1887.00, 
1888.00, 
1889.00, 
1890.00, 
1891.00, 
1892.00, 
1893.00, 
1894.00, 
1895.00, 
1896.00, 
1897.00, 
1898.00, 
1899.00, 
1900.00, 
1901.00, 
1902.00, 
1903.00, 
1904.00, 
1905.00, 
1906.00, 
1907.00, 
1908.00, 
1909.00, 
1910.00, 
1911.00, 
1912.00, 
1913.00, 
1914.00, 
1915.00, 
1916.00, 
1917.00, 
1918.00, 
1919.00, 
1920.00, 
1921.00, 
1922.00, 
1923.00, 
1924.00, 
1925.00, 
1926.00, 
1927.00, 
1928.00, 
1929.00, 
1930.00, 
1931.00, 
1932.00, 
1933.00, 
1934.00, 
1935.00, 
1936.00, 
1937.00, 
1938.00, 
1939.00, 
1940.00, 
1941.00, 
1942.00, 
1943.00, 
1944.00, 
1945.00, 
1946.00, 
1947.00, 
1948.00, 
1949.00, 
1950.00, 
1951.00, 
1952.00, 
1953.00, 
1954.00, 
1955.00, 
1956.00, 
1957.00, 
1958.00, 
1959.00, 
1960.00, 
1961.00, 
1962.00, 
1963.00, 
1964.00, 
1965.00, 
1966.00, 
1967.00, 
1968.00, 
1969.00, 
1970.00, 
1971.00, 
1972.00, 
1973.00, 
1974.00, 
1975.00, 
1976.00, 
1977.00, 
1978.00, 
1979.00, 
1980.00, 
1981.00, 
1982.00, 
1983.00, 
1984.00, 
1985.00, 
1986.00, 
1987.00, 
1988.00, 
1989.00, 
1990.00, 
1991.00, 
1992.00, 
1993.00, 
1994.00, 
1995.00, 
1996.00, 
1997.00, 
1998.00, 
1999.00, 
2000.00, 
2001.00, 
2002.00, 
2003.00, 
2004.00, 
2005.00, 
2006.00, 
2007.00, 
2008.00, 
2009.00, 
2010.00, 
2011.00, 
2012.00, 
2013.00, 
2014.00, 
2015.00, 
2016.00, 
2017.00, 
2018.00, 
2019.00, 
2020.00, 
2021.00, 
2022.00, 
2023.00, 
2024.00, 
2025.00, 
2026.00, 
2027.00, 
2028.00, 
2029.00, 
2030.00, 
2031.00, 
2032.00, 
2033.00, 
2034.00, 
2035.00, 
2036.00, 
2037.00, 
2038.00, 
2039.00, 
2040.00, 
2041.00, 
2042.00, 
2043.00, 
2044.00, 
2045.00, 
2046.00, 
2047.00, 
2048.00, 
2049.00, 
2050.00, 
2051.00, 
2052.00, 
2053.00, 
2054.00, 
2055.00, 
2056.00, 
2057.00, 
2058.00, 
2059.00, 
2060.00, 
2061.00, 
2062.00, 
2063.00, 
2064.00, 
2065.00, 
2066.00, 
2067.00, 
2068.00, 
2069.00, 
2070.00, 
2071.00, 
2072.00, 
2073.00, 
2074.00, 
2075.00, 
2076.00, 
2077.00, 
2078.00, 
2079.00, 
2080.00, 
2081.00, 
2082.00, 
2083.00, 
2084.00, 
2085.00, 
2086.00, 
2087.00, 
2088.00, 
2089.00, 
2090.00, 
2091.00, 
2092.00, 
2093.00, 
2094.00, 
2095.00, 
2096.00, 
2097.00, 
2098.00, 
2099.00, 
2100.00, 
2101.00, 
2102.00, 
2103.00, 
2104.00, 
2105.00, 
2106.00, 
2107.00, 
2108.00, 
2109.00, 
2110.00, 
2111.00, 
2112.00, 
2113.00, 
2114.00, 
2115.00, 
2116.00, 
2117.00, 
2118.00, 
2119.00, 
2120.00, 
2121.00, 
2122.00, 
2123.00, 
2124.00, 
2125.00, 
2126.00, 
2127.00, 
2128.00, 
2129.00, 
2130.00, 
2131.00, 
2132.00, 
2133.00, 
2134.00, 
2135.00, 
2136.00, 
2137.00, 
2138.00, 
2139.00, 
2140.00, 
2141.00, 
2142.00, 
2143.00, 
2144.00, 
2145.00, 
2146.00, 
2147.00, 
2148.00, 
2149.00, 
2150.00, 
2151.00, 
2152.00, 
2153.00, 
2154.00, 
2155.00, 
2156.00, 
2157.00, 
2158.00, 
2159.00, 
2160.00, 
2161.00, 
2162.00, 
2163.00, 
2164.00, 
2165.00, 
2166.00, 
2167.00, 
2168.00, 
2169.00, 
2170.00, 
2171.00, 
2172.00, 
2173.00, 
2174.00, 
2175.00, 
2176.00, 
2177.00, 
2178.00, 
2179.00, 
2180.00, 
2181.00, 
2182.00, 
2183.00, 
2184.00, 
2185.00, 
2186.00, 
2187.00, 
2188.00, 
2189.00, 
2190.00, 
2191.00, 
2192.00, 
2193.00, 
2194.00, 
2195.00, 
2196.00, 
2197.00, 
2198.00, 
2199.00, 
2200.00, 
2201.00, 
2202.00, 
2203.00, 
2204.00, 
2205.00, 
2206.00, 
2207.00, 
2208.00, 
2209.00, 
2210.00, 
2211.00, 
2212.00, 
2213.00, 
2214.00, 
2215.00, 
2216.00, 
2217.00, 
2218.00, 
2219.00, 
2220.00, 
2221.00, 
2222.00, 
2223.00, 
2224.00, 
2225.00, 
2226.00, 
2227.00, 
2228.00, 
2229.00, 
2230.00, 
2231.00, 
2232.00, 
2233.00, 
2234.00, 
2235.00, 
2236.00, 
2237.00, 
2238.00, 
2239.00, 
2240.00, 
2241.00, 
2242.00, 
2243.00, 
2244.00, 
2245.00, 
2246.00, 
2247.00, 
2248.00, 
2249.00, 
2250.00, 
2251.00, 
2252.00, 
2253.00, 
2254.00, 
2255.00, 
2256.00, 
2257.00, 
2258.00, 
2259.00, 
2260.00, 
2261.00, 
2262.00, 
2263.00, 
2264.00, 
2265.00, 
2266.00, 
2267.00, 
2268.00, 
2269.00, 
2270.00, 
2271.00, 
2272.00, 
2273.00, 
2274.00, 
2275.00, 
2276.00, 
2277.00, 
2278.00, 
2279.00, 
2280.00, 
2281.00, 
2282.00, 
2283.00, 
2284.00, 
2285.00, 
2286.00, 
2287.00, 
2288.00, 
2289.00, 
2290.00, 
2291.00, 
2292.00, 
2293.00, 
2294.00, 
2295.00, 
2296.00, 
2297.00, 
2298.00, 
2299.00, 
2300.00, 
2301.00, 
2302.00, 
2303.00, 
2304.00, 
2305.00, 
2306.00, 
2307.00, 
2308.00, 
2309.00, 
2310.00, 
2311.00, 
2312.00, 
2313.00, 
2314.00, 
2315.00, 
2316.00, 
2317.00, 
2318.00, 
2319.00, 
2320.00, 
2321.00, 
2322.00, 
2323.00, 
2324.00, 
2325.00, 
2326.00, 
2327.00, 
2328.00, 
2329.00, 
2330.00, 
2331.00, 
2332.00, 
2333.00, 
2334.00, 
2335.00, 
2336.00, 
2337.00, 
2338.00, 
2339.00, 
2340.00, 
2341.00, 
2342.00, 
2343.00, 
2344.00, 
2345.00, 
2346.00, 
2347.00, 
2348.00, 
2349.00, 
2350.00, 
2351.00, 
2352.00, 
2353.00, 
2354.00, 
2355.00, 
2356.00, 
2357.00, 
2358.00, 
2359.00, 
2360.00, 
2361.00, 
2362.00, 
2363.00, 
2364.00, 
2365.00, 
2366.00, 
2367.00, 
2368.00, 
2369.00, 
2370.00, 
2371.00, 
2372.00, 
2373.00, 
2374.00, 
2375.00, 
2376.00, 
2377.00, 
2378.00, 
2379.00, 
2380.00, 
2381.00, 
2382.00, 
2383.00, 
2384.00, 
2385.00, 
2386.00, 
2387.00, 
2388.00, 
2389.00, 
2390.00, 
2391.00, 
2392.00, 
2393.00, 
2394.00, 
2395.00, 
2396.00, 
2397.00, 
2398.00, 
2399.00, 
2400.00, 
2401.00, 
2402.00, 
2403.00, 
2404.00, 
2405.00, 
2406.00, 
2407.00, 
2408.00, 
2409.00, 
2410.00, 
2411.00, 
2412.00, 
2413.00, 
2414.00, 
2415.00, 
2416.00, 
2417.00, 
2418.00, 
2419.00, 
2420.00, 
2421.00, 
2422.00, 
2423.00, 
2424.00, 
2425.00, 
2426.00, 
2427.00, 
2428.00, 
2429.00, 
2430.00, 
2431.00, 
2432.00, 
2433.00, 
2434.00, 
2435.00, 
2436.00, 
2437.00, 
2438.00, 
2439.00, 
2440.00, 
2441.00, 
2442.00, 
2443.00, 
2444.00, 
2445.00, 
2446.00, 
2447.00, 
2448.00, 
2449.00, 
2450.00, 
2451.00, 
2452.00, 
2453.00, 
2454.00, 
2455.00, 
2456.00, 
2457.00, 
2458.00, 
2459.00, 
2460.00, 
2461.00, 
2462.00, 
2463.00, 
2464.00, 
2465.00, 
2466.00, 
2467.00, 
2468.00, 
2469.00, 
2470.00, 
2471.00, 
2472.00, 
2473.00, 
2474.00, 
2475.00, 
2476.00, 
2477.00, 
2478.00, 
2479.00, 
2480.00, 
2481.00, 
2482.00, 
2483.00, 
2484.00, 
2485.00, 
2486.00, 
2487.00, 
2488.00, 
2489.00, 
2490.00, 
2491.00, 
2492.00, 
2493.00, 
2494.00, 
2495.00, 
2496.00, 
2497.00, 
2498.00, 
2499.00, 
2500.00, 
2501.00, 
2502.00, 
2503.00, 
2504.00, 
2505.00, 
2506.00, 
2507.00, 
2508.00, 
2509.00, 
2510.00, 
2511.00, 
2512.00, 
2513.00, 
2514.00, 
2515.00, 
2516.00, 
2517.00, 
2518.00, 
2519.00, 
2520.00, 
2521.00, 
2522.00, 
2523.00, 
2524.00, 
2525.00, 
2526.00, 
2527.00, 
2528.00, 
2529.00, 
2530.00, 
2531.00, 
2532.00, 
2533.00, 
2534.00, 
2535.00, 
2536.00, 
2537.00, 
2538.00, 
2539.00, 
2540.00, 
2541.00, 
2542.00, 
2543.00, 
2544.00, 
2545.00, 
2546.00, 
2547.00, 
2548.00, 
2549.00, 
2550.00, 
2551.00, 
2552.00, 
2553.00, 
2554.00, 
2555.00, 
2556.00, 
2557.00, 
2558.00, 
2559.00, 
2560.00, 
2561.00, 
2562.00, 
2563.00, 
2564.00, 
2565.00, 
2566.00, 
2567.00, 
2568.00, 
2569.00, 
2570.00, 
2571.00, 
2572.00, 
2573.00, 
2574.00, 
2575.00, 
2576.00, 
2577.00, 
2578.00, 
2579.00, 
2580.00, 
2581.00, 
2582.00, 
2583.00, 
2584.00, 
2585.00, 
2586.00, 
2587.00, 
2588.00, 
2589.00, 
2590.00, 
2591.00, 
2592.00, 
2593.00, 
2594.00, 
2595.00, 
2596.00, 
2597.00, 
2598.00, 
2599.00, 
2600.00, 
