"1cP1 - RawData"
"Wavelength nm.","T%"
200.00,0.000
201.00,0.002
202.00,0.001
203.00,0.002
204.00,-0.001
205.00,-0.000
206.00,-0.000
207.00,-0.001
208.00,0.001
209.00,0.003
210.00,0.002
211.00,-0.002
212.00,-0.000
213.00,0.002
214.00,0.001
215.00,0.001
216.00,0.002
217.00,0.001
218.00,-0.001
219.00,-0.000
220.00,0.000
221.00,0.000
222.00,-0.001
223.00,0.000
224.00,-0.001
225.00,0.002
226.00,0.002
227.00,-0.000
228.00,0.001
229.00,0.003
230.00,0.001
231.00,0.003
232.00,0.002
233.00,-0.001
234.00,0.000
235.00,0.000
236.00,0.001
237.00,0.001
238.00,0.000
239.00,-0.000
240.00,0.001
241.00,0.001
242.00,0.000
243.00,-0.001
244.00,-0.000
245.00,0.003
246.00,-0.001
247.00,-0.001
248.00,0.001
249.00,0.000
250.00,0.000
251.00,0.000
252.00,0.001
253.00,0.000
254.00,-0.001
255.00,0.001
256.00,0.002
257.00,0.000
258.00,0.001
259.00,0.001
260.00,0.001
261.00,0.001
262.00,-0.001
263.00,0.001
264.00,-0.001
265.00,0.000
266.00,-0.002
267.00,0.000
268.00,0.001
269.00,-0.000
270.00,0.000
271.00,-0.000
272.00,0.001
273.00,-0.000
274.00,-0.001
275.00,0.000
276.00,0.000
277.00,0.002
278.00,-0.000
279.00,-0.001
280.00,0.000
281.00,-0.001
282.00,-0.001
283.00,-0.001
284.00,0.001
285.00,0.001
286.00,-0.001
287.00,-0.002
288.00,0.002
289.00,0.001
290.00,0.001
291.00,0.001
292.00,-0.001
293.00,0.001
294.00,0.001
295.00,-0.000
296.00,0.000
297.00,0.001
298.00,0.001
299.00,0.001
300.00,0.001
301.00,0.001
302.00,0.001
303.00,-0.001
304.00,-0.000
305.00,0.001
306.00,-0.001
307.00,0.002
308.00,0.002
309.00,0.006
310.00,0.011
311.00,0.013
312.00,0.022
313.00,0.032
314.00,0.057
315.00,0.080
316.00,0.117
317.00,0.159
318.00,0.218
319.00,0.292
320.00,0.387
321.00,0.496
322.00,0.635
323.00,0.805
324.00,0.986
325.00,1.187
326.00,1.405
327.00,1.662
328.00,1.941
329.00,2.236
330.00,2.555
331.00,2.876
332.00,3.239
333.00,3.606
334.00,3.964
335.00,4.326
336.00,4.719
337.00,5.102
338.00,5.516
339.00,5.870
340.00,6.240
341.00,6.586
342.00,6.937
343.00,7.304
344.00,7.610
345.00,7.911
346.00,8.173
347.00,8.400
348.00,8.699
349.00,8.972
350.00,9.203
351.00,9.411
352.00,9.565
353.00,9.747
354.00,9.930
355.00,10.091
356.00,10.221
357.00,10.305
358.00,10.463
359.00,10.586
360.00,10.686
361.00,10.759
362.00,10.798
363.00,10.860
364.00,10.909
365.00,10.915
366.00,10.950
367.00,10.986
368.00,10.989
369.00,10.992
370.00,10.994
371.00,10.933
372.00,10.920
373.00,10.916
374.00,10.871
375.00,10.795
376.00,10.728
377.00,10.683
378.00,10.601
379.00,10.517
380.00,10.490
381.00,10.427
382.00,10.429
383.00,10.408
384.00,10.402
385.00,10.397
386.00,10.354
387.00,10.397
388.00,10.388
389.00,10.411
390.00,10.402
391.00,10.384
392.00,10.380
393.00,10.371
394.00,10.358
395.00,10.357
396.00,10.327
397.00,10.327
398.00,10.313
399.00,10.294
400.00,10.271
401.00,10.245
402.00,10.256
403.00,10.244
404.00,10.204
405.00,10.176
406.00,10.172
407.00,10.131
408.00,10.110
409.00,10.091
410.00,10.049
411.00,10.033
412.00,10.019
413.00,10.024
414.00,9.994
415.00,9.981
416.00,10.005
417.00,9.996
418.00,10.016
419.00,10.049
420.00,10.061
421.00,10.000
422.00,10.020
423.00,10.044
424.00,10.063
425.00,10.083
426.00,10.104
427.00,10.146
428.00,10.156
429.00,10.179
430.00,10.215
431.00,10.245
432.00,10.265
433.00,10.295
434.00,10.346
435.00,10.406
436.00,10.450
437.00,10.487
438.00,10.545
439.00,10.596
440.00,10.645
441.00,10.712
442.00,10.763
443.00,10.831
444.00,10.916
445.00,10.965
446.00,11.052
447.00,11.105
448.00,11.190
449.00,11.282
450.00,11.355
451.00,11.437
452.00,11.499
453.00,11.603
454.00,11.685
455.00,11.772
456.00,11.877
457.00,11.971
458.00,12.055
459.00,12.169
460.00,12.284
461.00,12.401
462.00,12.483
463.00,12.594
464.00,12.700
465.00,12.828
466.00,12.937
467.00,13.048
468.00,13.131
469.00,13.242
470.00,13.350
471.00,13.451
472.00,13.572
473.00,13.666
474.00,13.780
475.00,13.901
476.00,13.996
477.00,14.132
478.00,14.258
479.00,14.416
480.00,14.529
481.00,14.652
482.00,14.790
483.00,14.944
484.00,15.089
485.00,15.234
486.00,15.347
487.00,15.507
488.00,15.631
489.00,15.797
490.00,15.934
491.00,16.066
492.00,16.215
493.00,16.398
494.00,16.538
495.00,16.604
496.00,16.731
497.00,16.849
498.00,16.989
499.00,17.146
500.00,17.276
501.00,17.394
502.00,17.522
503.00,17.666
504.00,17.767
505.00,17.921
506.00,18.043
507.00,18.158
508.00,18.303
509.00,18.485
510.00,18.588
511.00,18.659
512.00,18.841
513.00,19.015
514.00,19.122
515.00,19.263
516.00,19.383
517.00,19.496
518.00,19.634
519.00,19.728
520.00,19.824
521.00,19.948
522.00,20.063
523.00,20.122
524.00,20.253
525.00,20.400
526.00,20.485
527.00,20.561
528.00,20.682
529.00,20.872
530.00,21.009
531.00,21.080
532.00,21.188
533.00,21.290
534.00,21.411
535.00,21.500
536.00,21.589
537.00,21.716
538.00,21.779
539.00,21.857
540.00,21.967
541.00,22.054
542.00,22.085
543.00,22.152
544.00,22.280
545.00,22.349
546.00,22.407
547.00,22.525
548.00,22.612
549.00,22.690
550.00,22.792
551.00,22.896
552.00,22.948
553.00,23.037
554.00,23.140
555.00,23.175
556.00,23.225
557.00,23.341
558.00,23.359
559.00,23.452
560.00,23.560
561.00,23.571
562.00,23.667
563.00,23.764
564.00,23.784
565.00,23.878
566.00,23.919
567.00,23.934
568.00,24.020
569.00,24.100
570.00,24.123
571.00,24.190
572.00,24.248
573.00,24.251
574.00,24.293
575.00,24.351
576.00,24.344
577.00,24.374
578.00,24.528
579.00,24.611
580.00,24.648
581.00,24.780
582.00,24.868
583.00,24.859
584.00,24.973
585.00,25.020
586.00,25.092
587.00,25.172
588.00,25.203
589.00,25.200
590.00,25.319
591.00,25.381
592.00,25.354
593.00,25.394
594.00,25.481
595.00,25.538
596.00,25.608
597.00,25.715
598.00,25.813
599.00,25.842
600.00,25.895
601.00,25.943
602.00,25.977
603.00,26.046
604.00,26.080
605.00,26.151
606.00,26.243
607.00,26.276
608.00,26.351
609.00,26.397
610.00,26.565
611.00,26.506
612.00,26.513
613.00,26.611
614.00,26.666
615.00,26.766
616.00,26.874
617.00,26.886
618.00,26.905
619.00,26.988
620.00,27.062
621.00,27.161
622.00,27.257
623.00,27.327
624.00,27.435
625.00,27.496
626.00,27.556
627.00,27.665
628.00,27.693
629.00,27.788
630.00,27.888
631.00,27.953
632.00,28.090
633.00,28.185
634.00,28.259
635.00,28.414
636.00,28.474
637.00,28.563
638.00,28.638
639.00,28.793
640.00,28.843
641.00,28.946
642.00,29.072
643.00,29.136
644.00,29.230
645.00,29.335
646.00,29.551
647.00,29.665
648.00,29.727
649.00,29.817
650.00,29.898
651.00,30.127
652.00,30.219
653.00,30.229
654.00,30.391
655.00,30.646
656.00,30.876
657.00,30.857
658.00,30.977
659.00,30.994
660.00,31.232
661.00,31.301
662.00,31.459
663.00,31.573
664.00,31.827
665.00,32.014
666.00,31.842
667.00,32.166
668.00,32.106
669.00,32.403
670.00,32.808
671.00,32.794
672.00,32.966
673.00,33.012
674.00,33.191
675.00,33.327
676.00,33.546
677.00,33.781
678.00,33.673
679.00,33.896
680.00,34.164
681.00,34.329
682.00,34.353
683.00,34.491
684.00,34.734
685.00,34.819
686.00,34.916
687.00,35.129
688.00,35.130
689.00,35.230
690.00,35.596
691.00,35.876
692.00,35.772
693.00,36.126
694.00,36.142
695.00,36.266
696.00,36.407
697.00,36.539
698.00,36.708
699.00,36.945
700.00,37.090
701.00,37.181
702.00,37.334
703.00,37.627
704.00,37.690
705.00,37.723
706.00,37.874
707.00,38.019
708.00,38.106
709.00,38.497
710.00,38.833
711.00,38.459
712.00,38.684
713.00,38.885
714.00,39.025
715.00,39.191
716.00,39.072
717.00,39.312
718.00,39.648
719.00,39.552
720.00,39.738
721.00,44.098
722.00,44.153
723.00,44.256
724.00,44.308
725.00,44.441
726.00,44.475
727.00,44.552
728.00,44.699
729.00,44.763
730.00,44.875
731.00,44.921
732.00,45.048
733.00,45.220
734.00,45.330
735.00,45.385
736.00,45.503
737.00,45.535
738.00,45.699
739.00,45.783
740.00,45.823
741.00,45.939
742.00,46.025
743.00,46.063
744.00,46.150
745.00,46.263
746.00,46.350
747.00,46.383
748.00,46.387
749.00,46.513
750.00,46.589
751.00,46.635
752.00,46.688
753.00,46.694
754.00,46.784
755.00,46.881
756.00,46.898
757.00,46.921
758.00,47.069
759.00,47.060
760.00,47.217
761.00,47.249
762.00,47.262
763.00,47.373
764.00,47.397
765.00,47.512
766.00,47.535
767.00,47.561
768.00,47.665
769.00,47.698
770.00,47.830
771.00,47.753
772.00,47.823
773.00,47.899
774.00,47.966
775.00,48.039
776.00,48.026
777.00,48.094
778.00,48.143
779.00,48.233
780.00,48.193
781.00,48.250
782.00,48.219
783.00,48.222
784.00,48.410
785.00,48.279
786.00,48.446
787.00,48.421
788.00,48.428
789.00,48.524
790.00,48.458
791.00,48.539
792.00,48.528
793.00,48.531
794.00,48.580
795.00,48.559
796.00,48.628
797.00,48.553
798.00,48.662
799.00,48.710
800.00,48.616
801.00,48.734
802.00,48.764
803.00,48.677
804.00,48.673
805.00,48.748
806.00,48.731
807.00,48.733
808.00,48.745
809.00,48.814
810.00,48.821
811.00,48.782
812.00,48.894
813.00,48.834
814.00,48.873
815.00,48.777
816.00,48.739
817.00,48.858
818.00,48.814
819.00,48.906
820.00,48.787
821.00,48.792
822.00,48.822
823.00,48.843
824.00,48.870
825.00,48.835
826.00,48.875
827.00,48.825
828.00,48.936
829.00,48.787
830.00,48.854
831.00,51.256
832.00,51.230
833.00,51.212
834.00,51.244
835.00,51.227
836.00,51.228
837.00,51.229
838.00,51.244
839.00,51.204
840.00,51.210
841.00,51.220
842.00,51.214
843.00,51.235
844.00,51.231
845.00,51.194
846.00,51.232
847.00,51.162
848.00,51.229
849.00,51.161
850.00,51.149
851.00,51.092
852.00,51.122
853.00,51.086
854.00,51.091
855.00,51.070
856.00,51.025
857.00,51.079
858.00,51.032
859.00,50.989
860.00,50.996
861.00,51.058
862.00,50.925
863.00,51.009
864.00,50.972
865.00,50.999
866.00,51.026
867.00,50.982
868.00,50.960
869.00,50.940
870.00,51.091
871.00,50.955
872.00,50.984
873.00,50.957
874.00,51.008
875.00,50.940
876.00,50.972
877.00,50.977
878.00,50.962
879.00,50.950
880.00,50.934
881.00,50.919
882.00,50.942
883.00,50.906
884.00,50.862
885.00,50.879
886.00,50.875
887.00,50.860
888.00,50.840
889.00,50.839
890.00,50.829
891.00,50.815
892.00,50.794
893.00,50.782
894.00,50.775
895.00,50.744
896.00,50.758
897.00,50.750
898.00,50.712
899.00,50.738
900.00,50.698
901.00,50.682
902.00,50.698
903.00,50.658
904.00,50.681
905.00,50.676
906.00,50.654
907.00,50.652
908.00,50.604
909.00,50.615
910.00,50.576
911.00,50.566
912.00,50.559
913.00,50.529
914.00,50.520
915.00,50.478
916.00,50.487
917.00,50.492
918.00,50.469
919.00,50.428
920.00,50.406
921.00,50.415
922.00,50.437
923.00,50.383
924.00,50.343
925.00,50.375
926.00,50.342
927.00,50.328
928.00,50.304
929.00,50.309
930.00,50.298
931.00,50.285
932.00,50.255
933.00,50.287
934.00,50.265
935.00,50.217
936.00,50.223
937.00,50.192
938.00,50.190
939.00,50.174
940.00,50.144
941.00,50.151
942.00,50.120
943.00,50.094
944.00,50.084
945.00,50.077
946.00,50.068
947.00,50.037
948.00,50.007
949.00,49.994
950.00,49.989
951.00,49.955
952.00,49.952
953.00,49.908
954.00,49.896
955.00,49.910
956.00,49.854
957.00,49.819
958.00,49.837
959.00,49.780
960.00,49.801
961.00,49.774
962.00,49.774
963.00,49.744
964.00,49.735
965.00,49.731
966.00,49.724
967.00,49.712
968.00,49.684
969.00,49.714
970.00,49.682
971.00,49.704
972.00,49.675
973.00,49.710
974.00,49.729
975.00,49.703
976.00,49.707
977.00,49.696
978.00,49.742
979.00,49.705
980.00,49.729
981.00,49.714
982.00,49.703
983.00,49.722
984.00,49.697
985.00,49.712
986.00,49.686
987.00,49.714
988.00,49.672
989.00,49.665
990.00,49.651
991.00,49.658
992.00,49.658
993.00,49.628
994.00,49.635
995.00,49.615
996.00,49.597
997.00,49.582
998.00,49.590
999.00,49.593
1000.00,49.510
1001.00,49.521
1002.00,49.526
1003.00,49.507
1004.00,49.495
1005.00,49.478
1006.00,49.511
1007.00,49.481
1008.00,49.473
1009.00,49.447
1010.00,49.457
1011.00,49.449
1012.00,49.438
1013.00,49.437
1014.00,49.386
1015.00,49.407
1016.00,49.389
1017.00,49.350
1018.00,49.330
1019.00,49.308
1020.00,49.311
1021.00,49.298
1022.00,49.284
1023.00,49.243
1024.00,49.262
1025.00,49.221
1026.00,49.236
1027.00,49.198
1028.00,49.192
1029.00,49.177
1030.00,49.129
1031.00,49.160
1032.00,49.130
1033.00,49.130
1034.00,49.105
1035.00,49.086
1036.00,49.060
1037.00,49.047
1038.00,49.034
1039.00,48.997
1040.00,48.989
1041.00,48.953
1042.00,48.952
1043.00,48.946
1044.00,48.958
1045.00,48.935
1046.00,48.957
1047.00,48.962
1048.00,48.968
1049.00,48.983
1050.00,48.980
1051.00,49.023
1052.00,49.017
1053.00,49.019
1054.00,49.022
1055.00,49.042
1056.00,49.047
1057.00,49.053
1058.00,49.026
1059.00,49.032
1060.00,49.049
1061.00,49.016
1062.00,49.010
1063.00,49.016
1064.00,49.027
1065.00,49.026
1066.00,48.995
1067.00,48.984
1068.00,49.004
1069.00,48.966
1070.00,48.977
1071.00,48.982
1072.00,48.962
1073.00,48.948
1074.00,48.936
1075.00,48.939
1076.00,48.966
1077.00,48.927
1078.00,48.897
1079.00,48.915
1080.00,48.915
1081.00,48.885
1082.00,48.888
1083.00,48.878
1084.00,48.876
1085.00,48.877
1086.00,48.855
1087.00,48.871
1088.00,48.859
1089.00,48.848
1090.00,48.872
1091.00,48.874
1092.00,48.875
1093.00,48.865
1094.00,48.797
1095.00,48.783
1096.00,48.754
1097.00,48.757
1098.00,48.759
1099.00,48.740
1100.00,48.729
1101.00,48.739
1102.00,48.720
1103.00,48.726
1104.00,48.720
1105.00,48.702
1106.00,48.686
1107.00,48.689
1108.00,48.680
1109.00,48.693
1110.00,48.680
1111.00,48.664
1112.00,48.665
1113.00,48.648
1114.00,48.643
1115.00,48.650
1116.00,48.628
1117.00,48.619
1118.00,48.616
1119.00,48.618
1120.00,48.620
1121.00,48.601
1122.00,48.588
1123.00,48.604
1124.00,48.581
1125.00,48.588
1126.00,48.587
1127.00,48.588
1128.00,48.565
1129.00,48.546
1130.00,48.530
1131.00,48.540
1132.00,48.520
1133.00,48.526
1134.00,48.515
1135.00,48.518
1136.00,48.508
1137.00,48.522
1138.00,48.511
1139.00,48.511
1140.00,48.492
1141.00,48.482
1142.00,48.473
1143.00,48.489
1144.00,48.465
1145.00,48.474
1146.00,48.462
1147.00,48.471
1148.00,48.457
1149.00,48.465
1150.00,48.459
1151.00,48.458
1152.00,48.446
1153.00,48.453
1154.00,48.435
1155.00,48.450
1156.00,48.446
1157.00,48.451
1158.00,48.443
1159.00,48.458
1160.00,48.433
1161.00,48.447
1162.00,48.446
1163.00,48.448
1164.00,48.449
1165.00,48.439
1166.00,48.432
1167.00,48.428
1168.00,48.447
1169.00,48.443
1170.00,48.456
1171.00,48.422
1172.00,48.427
1173.00,48.429
1174.00,48.446
1175.00,48.431
1176.00,48.428
1177.00,48.424
1178.00,48.425
1179.00,48.422
1180.00,48.404
1181.00,48.448
1182.00,48.433
1183.00,48.442
1184.00,48.432
1185.00,48.436
1186.00,48.428
1187.00,48.435
1188.00,48.429
1189.00,48.427
1190.00,48.406
1191.00,48.406
1192.00,48.437
1193.00,48.410
1194.00,48.428
1195.00,48.401
1196.00,48.420
1197.00,48.430
1198.00,48.402
1199.00,48.410
1200.00,48.438
1201.00,48.406
1202.00,48.398
1203.00,48.414
1204.00,48.400
1205.00,48.428
1206.00,48.414
1207.00,48.425
1208.00,48.418
1209.00,48.409
1210.00,48.403
1211.00,48.399
1212.00,48.410
1213.00,48.381
1214.00,48.405
1215.00,48.383
1216.00,48.406
1217.00,48.396
1218.00,48.385
1219.00,48.410
1220.00,48.386
1221.00,48.415
1222.00,48.413
1223.00,48.421
1224.00,48.409
1225.00,48.399
1226.00,48.404
1227.00,48.400
1228.00,48.413
1229.00,48.416
1230.00,48.449
1231.00,48.432
1232.00,48.457
1233.00,48.456
1234.00,48.467
1235.00,48.460
1236.00,48.481
1237.00,48.478
1238.00,48.477
1239.00,48.474
1240.00,48.464
1241.00,48.489
1242.00,48.482
1243.00,48.502
1244.00,48.496
1245.00,48.513
1246.00,48.513
1247.00,48.496
1248.00,48.490
1249.00,48.543
1250.00,48.522
1251.00,48.516
1252.00,48.543
1253.00,48.498
1254.00,48.528
1255.00,48.523
1256.00,48.496
1257.00,48.493
1258.00,48.550
1259.00,48.538
1260.00,48.558
1261.00,48.548
1262.00,48.571
1263.00,48.559
1264.00,48.580
1265.00,48.602
1266.00,48.579
1267.00,48.581
1268.00,48.593
1269.00,48.604
1270.00,48.607
1271.00,48.619
1272.00,48.617
1273.00,48.636
1274.00,48.658
1275.00,48.662
1276.00,48.659
1277.00,48.658
1278.00,48.658
1279.00,48.659
1280.00,48.652
1281.00,48.671
1282.00,48.674
1283.00,48.690
1284.00,48.678
1285.00,48.679
1286.00,48.691
1287.00,48.682
1288.00,48.707
1289.00,48.683
1290.00,48.714
1291.00,48.720
1292.00,48.714
1293.00,48.721
1294.00,48.724
1295.00,48.748
1296.00,48.737
1297.00,48.753
1298.00,48.797
1299.00,48.760
1300.00,48.771
1301.00,48.765
1302.00,48.804
1303.00,48.801
1304.00,48.792
1305.00,48.823
1306.00,48.817
1307.00,48.827
1308.00,48.820
1309.00,48.824
1310.00,48.823
1311.00,48.812
1312.00,48.820
1313.00,48.850
1314.00,48.852
1315.00,48.869
1316.00,48.883
1317.00,48.915
1318.00,48.936
1319.00,48.930
1320.00,48.926
1321.00,49.035
1322.00,48.996
1323.00,48.986
1324.00,48.994
1325.00,48.979
1326.00,49.047
1327.00,48.987
1328.00,49.005
1329.00,48.993
1330.00,49.003
1331.00,49.010
1332.00,49.018
1333.00,49.031
1334.00,49.034
1335.00,49.069
1336.00,49.115
1337.00,49.120
1338.00,49.188
1339.00,49.221
1340.00,49.288
1341.00,49.365
1342.00,49.424
1343.00,49.471
1344.00,49.528
1345.00,49.581
1346.00,49.622
1347.00,49.632
1348.00,49.639
1349.00,49.675
1350.00,49.679
1351.00,49.699
1352.00,49.719
1353.00,49.687
1354.00,49.723
1355.00,49.664
1356.00,49.783
1357.00,49.686
1358.00,49.775
1359.00,49.764
1360.00,49.778
1361.00,49.791
1362.00,49.801
1363.00,49.812
1364.00,49.789
1365.00,49.779
1366.00,49.772
1367.00,49.787
1368.00,49.801
1369.00,49.786
1370.00,49.747
1371.00,49.653
1372.00,49.720
1373.00,49.760
1374.00,49.830
1375.00,49.787
1376.00,49.795
1377.00,49.788
1378.00,49.835
1379.00,49.789
1380.00,49.807
1381.00,49.794
1382.00,49.786
1383.00,49.786
1384.00,49.756
1385.00,49.805
1386.00,49.808
1387.00,49.760
1388.00,49.735
1389.00,49.809
1390.00,49.710
1391.00,49.833
1392.00,49.739
1393.00,49.738
1394.00,49.762
1395.00,49.769
1396.00,49.744
1397.00,49.779
1398.00,49.833
1399.00,49.761
1400.00,49.804
1401.00,49.785
1402.00,49.953
1403.00,49.905
1404.00,49.839
1405.00,49.811
1406.00,49.882
1407.00,49.823
1408.00,49.851
1409.00,49.837
1410.00,49.892
1411.00,49.856
1412.00,49.918
1413.00,49.844
1414.00,49.885
1415.00,49.904
1416.00,49.915
1417.00,49.992
1418.00,50.007
1419.00,49.963
1420.00,49.990
1421.00,50.012
1422.00,49.995
1423.00,50.023
1424.00,50.023
1425.00,50.051
1426.00,50.056
1427.00,50.055
1428.00,50.085
1429.00,50.112
1430.00,50.111
1431.00,50.153
1432.00,50.132
1433.00,50.158
1434.00,50.164
1435.00,50.216
1436.00,50.213
1437.00,50.217
1438.00,50.225
1439.00,50.268
1440.00,50.290
1441.00,50.298
1442.00,50.331
1443.00,50.346
1444.00,50.383
1445.00,50.371
1446.00,50.392
1447.00,50.412
1448.00,50.442
1449.00,50.454
1450.00,50.453
1451.00,50.451
1452.00,50.491
1453.00,50.485
1454.00,50.497
1455.00,50.513
1456.00,50.559
1457.00,50.547
1458.00,50.579
1459.00,50.612
1460.00,50.629
1461.00,50.621
1462.00,50.667
1463.00,50.657
1464.00,50.682
1465.00,50.693
1466.00,50.708
1467.00,50.739
1468.00,50.786
1469.00,50.766
1470.00,50.797
1471.00,50.807
1472.00,50.808
1473.00,50.827
1474.00,50.844
1475.00,50.856
1476.00,50.871
1477.00,50.851
1478.00,50.889
1479.00,50.897
1480.00,50.911
1481.00,50.921
1482.00,50.961
1483.00,50.976
1484.00,50.994
1485.00,51.003
1486.00,51.021
1487.00,51.038
1488.00,51.060
1489.00,51.088
1490.00,51.093
1491.00,51.096
1492.00,51.134
1493.00,51.117
1494.00,51.169
1495.00,51.154
1496.00,51.174
1497.00,51.186
1498.00,51.183
1499.00,51.197
1500.00,51.226
1501.00, 
1502.00, 
1503.00, 
1504.00, 
1505.00, 
1506.00, 
1507.00, 
1508.00, 
1509.00, 
1510.00, 
1511.00, 
1512.00, 
1513.00, 
1514.00, 
1515.00, 
1516.00, 
1517.00, 
1518.00, 
1519.00, 
1520.00, 
1521.00, 
1522.00, 
1523.00, 
1524.00, 
1525.00, 
1526.00, 
1527.00, 
1528.00, 
1529.00, 
1530.00, 
1531.00, 
1532.00, 
1533.00, 
1534.00, 
1535.00, 
1536.00, 
1537.00, 
1538.00, 
1539.00, 
1540.00, 
1541.00, 
1542.00, 
1543.00, 
1544.00, 
1545.00, 
1546.00, 
1547.00, 
1548.00, 
1549.00, 
1550.00, 
1551.00, 
1552.00, 
1553.00, 
1554.00, 
1555.00, 
1556.00, 
1557.00, 
1558.00, 
1559.00, 
1560.00, 
1561.00, 
1562.00, 
1563.00, 
1564.00, 
1565.00, 
1566.00, 
1567.00, 
1568.00, 
1569.00, 
1570.00, 
1571.00, 
1572.00, 
1573.00, 
1574.00, 
1575.00, 
1576.00, 
1577.00, 
1578.00, 
1579.00, 
1580.00, 
1581.00, 
1582.00, 
1583.00, 
1584.00, 
1585.00, 
1586.00, 
1587.00, 
1588.00, 
1589.00, 
1590.00, 
1591.00, 
1592.00, 
1593.00, 
1594.00, 
1595.00, 
1596.00, 
1597.00, 
1598.00, 
1599.00, 
1600.00, 
1601.00, 
1602.00, 
1603.00, 
1604.00, 
1605.00, 
1606.00, 
1607.00, 
1608.00, 
1609.00, 
1610.00, 
1611.00, 
1612.00, 
1613.00, 
1614.00, 
1615.00, 
1616.00, 
1617.00, 
1618.00, 
1619.00, 
1620.00, 
1621.00, 
1622.00, 
1623.00, 
1624.00, 
1625.00, 
1626.00, 
1627.00, 
1628.00, 
1629.00, 
1630.00, 
1631.00, 
1632.00, 
1633.00, 
1634.00, 
1635.00, 
1636.00, 
1637.00, 
1638.00, 
1639.00, 
1640.00, 
1641.00, 
1642.00, 
1643.00, 
1644.00, 
1645.00, 
1646.00, 
1647.00, 
1648.00, 
1649.00, 
1650.00, 
1651.00, 
1652.00, 
1653.00, 
1654.00, 
1655.00, 
1656.00, 
1657.00, 
1658.00, 
1659.00, 
1660.00, 
1661.00, 
1662.00, 
1663.00, 
1664.00, 
1665.00, 
1666.00, 
1667.00, 
1668.00, 
1669.00, 
1670.00, 
1671.00, 
1672.00, 
1673.00, 
1674.00, 
1675.00, 
1676.00, 
1677.00, 
1678.00, 
1679.00, 
1680.00, 
1681.00, 
1682.00, 
1683.00, 
1684.00, 
1685.00, 
1686.00, 
1687.00, 
1688.00, 
1689.00, 
1690.00, 
1691.00, 
1692.00, 
1693.00, 
1694.00, 
1695.00, 
1696.00, 
1697.00, 
1698.00, 
1699.00, 
1700.00, 
1701.00, 
1702.00, 
1703.00, 
1704.00, 
1705.00, 
1706.00, 
1707.00, 
1708.00, 
1709.00, 
1710.00, 
1711.00, 
1712.00, 
1713.00, 
1714.00, 
1715.00, 
1716.00, 
1717.00, 
1718.00, 
1719.00, 
1720.00, 
1721.00, 
1722.00, 
1723.00, 
1724.00, 
1725.00, 
1726.00, 
1727.00, 
1728.00, 
1729.00, 
1730.00, 
1731.00, 
1732.00, 
1733.00, 
1734.00, 
1735.00, 
1736.00, 
1737.00, 
1738.00, 
1739.00, 
1740.00, 
1741.00, 
1742.00, 
1743.00, 
1744.00, 
1745.00, 
1746.00, 
1747.00, 
1748.00, 
1749.00, 
1750.00, 
1751.00, 
1752.00, 
1753.00, 
1754.00, 
1755.00, 
1756.00, 
1757.00, 
1758.00, 
1759.00, 
1760.00, 
1761.00, 
1762.00, 
1763.00, 
1764.00, 
1765.00, 
1766.00, 
1767.00, 
1768.00, 
1769.00, 
1770.00, 
1771.00, 
1772.00, 
1773.00, 
1774.00, 
1775.00, 
1776.00, 
1777.00, 
1778.00, 
1779.00, 
1780.00, 
1781.00, 
1782.00, 
1783.00, 
1784.00, 
1785.00, 
1786.00, 
1787.00, 
1788.00, 
1789.00, 
1790.00, 
1791.00, 
1792.00, 
1793.00, 
1794.00, 
1795.00, 
1796.00, 
1797.00, 
1798.00, 
1799.00, 
1800.00, 
1801.00, 
1802.00, 
1803.00, 
1804.00, 
1805.00, 
1806.00, 
1807.00, 
1808.00, 
1809.00, 
1810.00, 
1811.00, 
1812.00, 
1813.00, 
1814.00, 
1815.00, 
1816.00, 
1817.00, 
1818.00, 
1819.00, 
1820.00, 
1821.00, 
1822.00, 
1823.00, 
1824.00, 
1825.00, 
1826.00, 
1827.00, 
1828.00, 
1829.00, 
1830.00, 
1831.00, 
1832.00, 
1833.00, 
1834.00, 
1835.00, 
1836.00, 
1837.00, 
1838.00, 
1839.00, 
1840.00, 
1841.00, 
1842.00, 
1843.00, 
1844.00, 
1845.00, 
1846.00, 
1847.00, 
1848.00, 
1849.00, 
1850.00, 
1851.00, 
1852.00, 
1853.00, 
1854.00, 
1855.00, 
1856.00, 
1857.00, 
1858.00, 
1859.00, 
1860.00, 
1861.00, 
1862.00, 
1863.00, 
1864.00, 
1865.00, 
1866.00, 
1867.00, 
1868.00, 
1869.00, 
1870.00, 
1871.00, 
1872.00, 
1873.00, 
1874.00, 
1875.00, 
1876.00, 
1877.00, 
1878.00, 
1879.00, 
1880.00, 
1881.00, 
1882.00, 
1883.00, 
1884.00, 
1885.00, 
1886.00, 
1887.00, 
1888.00, 
1889.00, 
1890.00, 
1891.00, 
1892.00, 
1893.00, 
1894.00, 
1895.00, 
1896.00, 
1897.00, 
1898.00, 
1899.00, 
1900.00, 
1901.00, 
1902.00, 
1903.00, 
1904.00, 
1905.00, 
1906.00, 
1907.00, 
1908.00, 
1909.00, 
1910.00, 
1911.00, 
1912.00, 
1913.00, 
1914.00, 
1915.00, 
1916.00, 
1917.00, 
1918.00, 
1919.00, 
1920.00, 
1921.00, 
1922.00, 
1923.00, 
1924.00, 
1925.00, 
1926.00, 
1927.00, 
1928.00, 
1929.00, 
1930.00, 
1931.00, 
1932.00, 
1933.00, 
1934.00, 
1935.00, 
1936.00, 
1937.00, 
1938.00, 
1939.00, 
1940.00, 
1941.00, 
1942.00, 
1943.00, 
1944.00, 
1945.00, 
1946.00, 
1947.00, 
1948.00, 
1949.00, 
1950.00, 
1951.00, 
1952.00, 
1953.00, 
1954.00, 
1955.00, 
1956.00, 
1957.00, 
1958.00, 
1959.00, 
1960.00, 
1961.00, 
1962.00, 
1963.00, 
1964.00, 
1965.00, 
1966.00, 
1967.00, 
1968.00, 
1969.00, 
1970.00, 
1971.00, 
1972.00, 
1973.00, 
1974.00, 
1975.00, 
1976.00, 
1977.00, 
1978.00, 
1979.00, 
1980.00, 
1981.00, 
1982.00, 
1983.00, 
1984.00, 
1985.00, 
1986.00, 
1987.00, 
1988.00, 
1989.00, 
1990.00, 
1991.00, 
1992.00, 
1993.00, 
1994.00, 
1995.00, 
1996.00, 
1997.00, 
1998.00, 
1999.00, 
2000.00, 
2001.00, 
2002.00, 
2003.00, 
2004.00, 
2005.00, 
2006.00, 
2007.00, 
2008.00, 
2009.00, 
2010.00, 
2011.00, 
2012.00, 
2013.00, 
2014.00, 
2015.00, 
2016.00, 
2017.00, 
2018.00, 
2019.00, 
2020.00, 
2021.00, 
2022.00, 
2023.00, 
2024.00, 
2025.00, 
2026.00, 
2027.00, 
2028.00, 
2029.00, 
2030.00, 
2031.00, 
2032.00, 
2033.00, 
2034.00, 
2035.00, 
2036.00, 
2037.00, 
2038.00, 
2039.00, 
2040.00, 
2041.00, 
2042.00, 
2043.00, 
2044.00, 
2045.00, 
2046.00, 
2047.00, 
2048.00, 
2049.00, 
2050.00, 
2051.00, 
2052.00, 
2053.00, 
2054.00, 
2055.00, 
2056.00, 
2057.00, 
2058.00, 
2059.00, 
2060.00, 
2061.00, 
2062.00, 
2063.00, 
2064.00, 
2065.00, 
2066.00, 
2067.00, 
2068.00, 
2069.00, 
2070.00, 
2071.00, 
2072.00, 
2073.00, 
2074.00, 
2075.00, 
2076.00, 
2077.00, 
2078.00, 
2079.00, 
2080.00, 
2081.00, 
2082.00, 
2083.00, 
2084.00, 
2085.00, 
2086.00, 
2087.00, 
2088.00, 
2089.00, 
2090.00, 
2091.00, 
2092.00, 
2093.00, 
2094.00, 
2095.00, 
2096.00, 
2097.00, 
2098.00, 
2099.00, 
2100.00, 
2101.00, 
2102.00, 
2103.00, 
2104.00, 
2105.00, 
2106.00, 
2107.00, 
2108.00, 
2109.00, 
2110.00, 
2111.00, 
2112.00, 
2113.00, 
2114.00, 
2115.00, 
2116.00, 
2117.00, 
2118.00, 
2119.00, 
2120.00, 
2121.00, 
2122.00, 
2123.00, 
2124.00, 
2125.00, 
2126.00, 
2127.00, 
2128.00, 
2129.00, 
2130.00, 
2131.00, 
2132.00, 
2133.00, 
2134.00, 
2135.00, 
2136.00, 
2137.00, 
2138.00, 
2139.00, 
2140.00, 
2141.00, 
2142.00, 
2143.00, 
2144.00, 
2145.00, 
2146.00, 
2147.00, 
2148.00, 
2149.00, 
2150.00, 
2151.00, 
2152.00, 
2153.00, 
2154.00, 
2155.00, 
2156.00, 
2157.00, 
2158.00, 
2159.00, 
2160.00, 
2161.00, 
2162.00, 
2163.00, 
2164.00, 
2165.00, 
2166.00, 
2167.00, 
2168.00, 
2169.00, 
2170.00, 
2171.00, 
2172.00, 
2173.00, 
2174.00, 
2175.00, 
2176.00, 
2177.00, 
2178.00, 
2179.00, 
2180.00, 
2181.00, 
2182.00, 
2183.00, 
2184.00, 
2185.00, 
2186.00, 
2187.00, 
2188.00, 
2189.00, 
2190.00, 
2191.00, 
2192.00, 
2193.00, 
2194.00, 
2195.00, 
2196.00, 
2197.00, 
2198.00, 
2199.00, 
2200.00, 
2201.00, 
2202.00, 
2203.00, 
2204.00, 
2205.00, 
2206.00, 
2207.00, 
2208.00, 
2209.00, 
2210.00, 
2211.00, 
2212.00, 
2213.00, 
2214.00, 
2215.00, 
2216.00, 
2217.00, 
2218.00, 
2219.00, 
2220.00, 
2221.00, 
2222.00, 
2223.00, 
2224.00, 
2225.00, 
2226.00, 
2227.00, 
2228.00, 
2229.00, 
2230.00, 
2231.00, 
2232.00, 
2233.00, 
2234.00, 
2235.00, 
2236.00, 
2237.00, 
2238.00, 
2239.00, 
2240.00, 
2241.00, 
2242.00, 
2243.00, 
2244.00, 
2245.00, 
2246.00, 
2247.00, 
2248.00, 
2249.00, 
2250.00, 
2251.00, 
2252.00, 
2253.00, 
2254.00, 
2255.00, 
2256.00, 
2257.00, 
2258.00, 
2259.00, 
2260.00, 
2261.00, 
2262.00, 
2263.00, 
2264.00, 
2265.00, 
2266.00, 
2267.00, 
2268.00, 
2269.00, 
2270.00, 
2271.00, 
2272.00, 
2273.00, 
2274.00, 
2275.00, 
2276.00, 
2277.00, 
2278.00, 
2279.00, 
2280.00, 
2281.00, 
2282.00, 
2283.00, 
2284.00, 
2285.00, 
2286.00, 
2287.00, 
2288.00, 
2289.00, 
2290.00, 
2291.00, 
2292.00, 
2293.00, 
2294.00, 
2295.00, 
2296.00, 
2297.00, 
2298.00, 
2299.00, 
2300.00, 
2301.00, 
2302.00, 
2303.00, 
2304.00, 
2305.00, 
2306.00, 
2307.00, 
2308.00, 
2309.00, 
2310.00, 
2311.00, 
2312.00, 
2313.00, 
2314.00, 
2315.00, 
2316.00, 
2317.00, 
2318.00, 
2319.00, 
2320.00, 
2321.00, 
2322.00, 
2323.00, 
2324.00, 
2325.00, 
2326.00, 
2327.00, 
2328.00, 
2329.00, 
2330.00, 
2331.00, 
2332.00, 
2333.00, 
2334.00, 
2335.00, 
2336.00, 
2337.00, 
2338.00, 
2339.00, 
2340.00, 
2341.00, 
2342.00, 
2343.00, 
2344.00, 
2345.00, 
2346.00, 
2347.00, 
2348.00, 
2349.00, 
2350.00, 
2351.00, 
2352.00, 
2353.00, 
2354.00, 
2355.00, 
2356.00, 
2357.00, 
2358.00, 
2359.00, 
2360.00, 
2361.00, 
2362.00, 
2363.00, 
2364.00, 
2365.00, 
2366.00, 
2367.00, 
2368.00, 
2369.00, 
2370.00, 
2371.00, 
2372.00, 
2373.00, 
2374.00, 
2375.00, 
2376.00, 
2377.00, 
2378.00, 
2379.00, 
2380.00, 
2381.00, 
2382.00, 
2383.00, 
2384.00, 
2385.00, 
2386.00, 
2387.00, 
2388.00, 
2389.00, 
2390.00, 
2391.00, 
2392.00, 
2393.00, 
2394.00, 
2395.00, 
2396.00, 
2397.00, 
2398.00, 
2399.00, 
2400.00, 
2401.00, 
2402.00, 
2403.00, 
2404.00, 
2405.00, 
2406.00, 
2407.00, 
2408.00, 
2409.00, 
2410.00, 
2411.00, 
2412.00, 
2413.00, 
2414.00, 
2415.00, 
2416.00, 
2417.00, 
2418.00, 
2419.00, 
2420.00, 
2421.00, 
2422.00, 
2423.00, 
2424.00, 
2425.00, 
2426.00, 
2427.00, 
2428.00, 
2429.00, 
2430.00, 
2431.00, 
2432.00, 
2433.00, 
2434.00, 
2435.00, 
2436.00, 
2437.00, 
2438.00, 
2439.00, 
2440.00, 
2441.00, 
2442.00, 
2443.00, 
2444.00, 
2445.00, 
2446.00, 
2447.00, 
2448.00, 
2449.00, 
2450.00, 
2451.00, 
2452.00, 
2453.00, 
2454.00, 
2455.00, 
2456.00, 
2457.00, 
2458.00, 
2459.00, 
2460.00, 
2461.00, 
2462.00, 
2463.00, 
2464.00, 
2465.00, 
2466.00, 
2467.00, 
2468.00, 
2469.00, 
2470.00, 
2471.00, 
2472.00, 
2473.00, 
2474.00, 
2475.00, 
2476.00, 
2477.00, 
2478.00, 
2479.00, 
2480.00, 
2481.00, 
2482.00, 
2483.00, 
2484.00, 
2485.00, 
2486.00, 
2487.00, 
2488.00, 
2489.00, 
2490.00, 
2491.00, 
2492.00, 
2493.00, 
2494.00, 
2495.00, 
2496.00, 
2497.00, 
2498.00, 
2499.00, 
2500.00, 
2501.00, 
2502.00, 
2503.00, 
2504.00, 
2505.00, 
2506.00, 
2507.00, 
2508.00, 
2509.00, 
2510.00, 
2511.00, 
2512.00, 
2513.00, 
2514.00, 
2515.00, 
2516.00, 
2517.00, 
2518.00, 
2519.00, 
2520.00, 
2521.00, 
2522.00, 
2523.00, 
2524.00, 
2525.00, 
2526.00, 
2527.00, 
2528.00, 
2529.00, 
2530.00, 
2531.00, 
2532.00, 
2533.00, 
2534.00, 
2535.00, 
2536.00, 
2537.00, 
2538.00, 
2539.00, 
2540.00, 
2541.00, 
2542.00, 
2543.00, 
2544.00, 
2545.00, 
2546.00, 
2547.00, 
2548.00, 
2549.00, 
2550.00, 
2551.00, 
2552.00, 
2553.00, 
2554.00, 
2555.00, 
2556.00, 
2557.00, 
2558.00, 
2559.00, 
2560.00, 
2561.00, 
2562.00, 
2563.00, 
2564.00, 
2565.00, 
2566.00, 
2567.00, 
2568.00, 
2569.00, 
2570.00, 
2571.00, 
2572.00, 
2573.00, 
2574.00, 
2575.00, 
2576.00, 
2577.00, 
2578.00, 
2579.00, 
2580.00, 
2581.00, 
2582.00, 
2583.00, 
2584.00, 
2585.00, 
2586.00, 
2587.00, 
2588.00, 
2589.00, 
2590.00, 
2591.00, 
2592.00, 
2593.00, 
2594.00, 
2595.00, 
2596.00, 
2597.00, 
2598.00, 
2599.00, 
2600.00, 
