"1cP2 - RawData"
"Wavelength nm.","T%"
200.00,0.002
201.00,0.002
202.00,0.001
203.00,0.001
204.00,-0.002
205.00,-0.000
206.00,0.002
207.00,0.002
208.00,-0.002
209.00,0.002
210.00,0.001
211.00,0.002
212.00,0.000
213.00,-0.001
214.00,0.001
215.00,0.003
216.00,0.002
217.00,0.002
218.00,0.002
219.00,0.002
220.00,0.002
221.00,-0.001
222.00,-0.002
223.00,0.002
224.00,-0.003
225.00,0.000
226.00,0.002
227.00,-0.001
228.00,0.002
229.00,0.001
230.00,-0.001
231.00,0.001
232.00,0.001
233.00,-0.000
234.00,-0.000
235.00,-0.000
236.00,-0.001
237.00,0.002
238.00,0.002
239.00,-0.000
240.00,-0.000
241.00,0.004
242.00,0.001
243.00,-0.000
244.00,0.001
245.00,-0.001
246.00,0.001
247.00,0.001
248.00,0.001
249.00,0.001
250.00,-0.002
251.00,0.002
252.00,0.001
253.00,-0.002
254.00,-0.002
255.00,0.001
256.00,0.002
257.00,0.000
258.00,-0.001
259.00,0.000
260.00,-0.000
261.00,0.002
262.00,0.003
263.00,-0.001
264.00,0.000
265.00,0.000
266.00,-0.002
267.00,0.001
268.00,0.000
269.00,0.000
270.00,0.001
271.00,0.000
272.00,-0.001
273.00,0.001
274.00,0.000
275.00,0.000
276.00,-0.000
277.00,0.001
278.00,0.001
279.00,0.001
280.00,0.000
281.00,-0.001
282.00,-0.001
283.00,0.001
284.00,0.000
285.00,-0.000
286.00,-0.000
287.00,0.000
288.00,0.001
289.00,0.000
290.00,-0.002
291.00,0.000
292.00,-0.001
293.00,0.000
294.00,0.000
295.00,0.002
296.00,-0.001
297.00,0.001
298.00,0.001
299.00,0.001
300.00,0.001
301.00,0.001
302.00,0.000
303.00,-0.000
304.00,0.000
305.00,0.002
306.00,-0.000
307.00,-0.000
308.00,0.005
309.00,0.006
310.00,0.013
311.00,0.019
312.00,0.027
313.00,0.045
314.00,0.065
315.00,0.097
316.00,0.137
317.00,0.193
318.00,0.267
319.00,0.358
320.00,0.472
321.00,0.615
322.00,0.775
323.00,0.989
324.00,1.209
325.00,1.457
326.00,1.736
327.00,2.063
328.00,2.411
329.00,2.761
330.00,3.150
331.00,3.564
332.00,4.005
333.00,4.457
334.00,4.896
335.00,5.400
336.00,5.893
337.00,6.391
338.00,6.862
339.00,7.325
340.00,7.796
341.00,8.251
342.00,8.681
343.00,9.138
344.00,9.556
345.00,9.933
346.00,10.294
347.00,10.622
348.00,10.986
349.00,11.284
350.00,11.592
351.00,11.855
352.00,12.098
353.00,12.322
354.00,12.538
355.00,12.763
356.00,12.952
357.00,13.110
358.00,13.263
359.00,13.434
360.00,13.600
361.00,13.646
362.00,13.736
363.00,13.817
364.00,13.917
365.00,13.932
366.00,13.984
367.00,14.041
368.00,14.021
369.00,14.055
370.00,14.059
371.00,14.039
372.00,13.979
373.00,13.987
374.00,13.960
375.00,13.849
376.00,13.769
377.00,13.700
378.00,13.622
379.00,13.491
380.00,13.488
381.00,13.400
382.00,13.406
383.00,13.404
384.00,13.372
385.00,13.384
386.00,13.361
387.00,13.396
388.00,13.431
389.00,13.408
390.00,13.410
391.00,13.401
392.00,13.400
393.00,13.370
394.00,13.374
395.00,13.362
396.00,13.313
397.00,13.311
398.00,13.281
399.00,13.269
400.00,13.243
401.00,13.194
402.00,13.207
403.00,13.208
404.00,13.148
405.00,13.091
406.00,13.084
407.00,13.046
408.00,13.033
409.00,12.964
410.00,12.905
411.00,12.899
412.00,12.850
413.00,12.871
414.00,12.837
415.00,12.812
416.00,12.825
417.00,12.792
418.00,12.820
419.00,12.875
420.00,12.868
421.00,12.749
422.00,12.805
423.00,12.836
424.00,12.840
425.00,12.851
426.00,12.841
427.00,12.888
428.00,12.912
429.00,12.915
430.00,12.965
431.00,12.987
432.00,12.983
433.00,13.046
434.00,13.037
435.00,13.140
436.00,13.167
437.00,13.221
438.00,13.263
439.00,13.316
440.00,13.359
441.00,13.417
442.00,13.494
443.00,13.523
444.00,13.605
445.00,13.690
446.00,13.766
447.00,13.825
448.00,13.902
449.00,13.988
450.00,14.061
451.00,14.148
452.00,14.194
453.00,14.319
454.00,14.409
455.00,14.493
456.00,14.607
457.00,14.704
458.00,14.782
459.00,14.910
460.00,15.016
461.00,15.127
462.00,15.212
463.00,15.329
464.00,15.471
465.00,15.592
466.00,15.697
467.00,15.816
468.00,15.884
469.00,16.000
470.00,16.099
471.00,16.211
472.00,16.317
473.00,16.413
474.00,16.532
475.00,16.657
476.00,16.740
477.00,16.886
478.00,17.021
479.00,17.197
480.00,17.283
481.00,17.435
482.00,17.516
483.00,17.718
484.00,17.873
485.00,18.017
486.00,18.119
487.00,18.286
488.00,18.434
489.00,18.583
490.00,18.747
491.00,18.870
492.00,19.014
493.00,19.235
494.00,19.374
495.00,19.418
496.00,19.534
497.00,19.666
498.00,19.807
499.00,19.934
500.00,20.065
501.00,20.171
502.00,20.321
503.00,20.474
504.00,20.583
505.00,20.711
506.00,20.805
507.00,20.965
508.00,21.102
509.00,21.269
510.00,21.397
511.00,21.487
512.00,21.688
513.00,21.827
514.00,21.936
515.00,22.083
516.00,22.226
517.00,22.310
518.00,22.464
519.00,22.541
520.00,22.664
521.00,22.781
522.00,22.893
523.00,22.948
524.00,23.065
525.00,23.231
526.00,23.320
527.00,23.404
528.00,23.521
529.00,23.721
530.00,23.863
531.00,23.939
532.00,24.000
533.00,24.106
534.00,24.209
535.00,24.349
536.00,24.395
537.00,24.520
538.00,24.602
539.00,24.703
540.00,24.793
541.00,24.883
542.00,24.938
543.00,25.033
544.00,25.122
545.00,25.195
546.00,25.260
547.00,25.378
548.00,25.461
549.00,25.530
550.00,25.608
551.00,25.738
552.00,25.816
553.00,25.890
554.00,25.982
555.00,26.026
556.00,26.073
557.00,26.153
558.00,26.228
559.00,26.345
560.00,26.370
561.00,26.520
562.00,26.581
563.00,26.559
564.00,26.657
565.00,26.736
566.00,26.719
567.00,26.814
568.00,26.922
569.00,26.980
570.00,26.989
571.00,27.055
572.00,27.099
573.00,27.095
574.00,27.124
575.00,27.183
576.00,27.238
577.00,27.270
578.00,27.379
579.00,27.454
580.00,27.410
581.00,27.621
582.00,27.736
583.00,27.677
584.00,27.805
585.00,27.908
586.00,27.968
587.00,28.011
588.00,28.091
589.00,28.066
590.00,28.161
591.00,28.158
592.00,28.174
593.00,28.198
594.00,28.341
595.00,28.419
596.00,28.503
597.00,28.597
598.00,28.637
599.00,28.624
600.00,28.746
601.00,28.780
602.00,28.826
603.00,28.897
604.00,28.952
605.00,29.013
606.00,29.079
607.00,29.094
608.00,29.172
609.00,29.235
610.00,29.409
611.00,29.300
612.00,29.354
613.00,29.473
614.00,29.498
615.00,29.563
616.00,29.679
617.00,29.686
618.00,29.707
619.00,29.777
620.00,29.858
621.00,29.887
622.00,30.018
623.00,30.107
624.00,30.180
625.00,30.299
626.00,30.364
627.00,30.412
628.00,30.486
629.00,30.554
630.00,30.645
631.00,30.684
632.00,30.780
633.00,30.939
634.00,31.043
635.00,31.145
636.00,31.170
637.00,31.324
638.00,31.359
639.00,31.505
640.00,31.577
641.00,31.625
642.00,31.730
643.00,31.786
644.00,31.975
645.00,32.004
646.00,32.226
647.00,32.308
648.00,32.351
649.00,32.441
650.00,32.495
651.00,32.722
652.00,32.839
653.00,32.827
654.00,32.968
655.00,33.226
656.00,33.456
657.00,33.431
658.00,33.498
659.00,33.657
660.00,33.788
661.00,33.829
662.00,33.958
663.00,34.070
664.00,34.311
665.00,34.546
666.00,34.319
667.00,34.623
668.00,34.650
669.00,34.864
670.00,35.201
671.00,35.152
672.00,35.342
673.00,35.457
674.00,35.545
675.00,35.663
676.00,35.902
677.00,36.126
678.00,35.931
679.00,36.201
680.00,36.373
681.00,36.457
682.00,36.438
683.00,36.684
684.00,37.062
685.00,37.035
686.00,37.093
687.00,37.245
688.00,37.278
689.00,37.367
690.00,37.776
691.00,38.055
692.00,37.900
693.00,37.991
694.00,38.144
695.00,38.323
696.00,38.490
697.00,38.539
698.00,38.736
699.00,38.978
700.00,39.162
701.00,39.170
702.00,39.260
703.00,39.586
704.00,39.639
705.00,39.656
706.00,39.736
707.00,39.924
708.00,39.828
709.00,40.276
710.00,40.656
711.00,40.253
712.00,40.368
713.00,40.555
714.00,40.624
715.00,40.929
716.00,40.965
717.00,41.127
718.00,41.340
719.00,41.224
720.00,41.385
721.00,45.794
722.00,45.870
723.00,45.972
724.00,45.974
725.00,46.082
726.00,46.154
727.00,46.172
728.00,46.297
729.00,46.362
730.00,46.463
731.00,46.482
732.00,46.619
733.00,46.655
734.00,46.828
735.00,46.905
736.00,46.938
737.00,47.059
738.00,47.103
739.00,47.200
740.00,47.271
741.00,47.340
742.00,47.477
743.00,47.433
744.00,47.495
745.00,47.599
746.00,47.672
747.00,47.699
748.00,47.659
749.00,47.846
750.00,47.768
751.00,47.943
752.00,47.923
753.00,47.856
754.00,47.929
755.00,48.080
756.00,48.106
757.00,48.081
758.00,48.199
759.00,48.221
760.00,48.356
761.00,48.318
762.00,48.406
763.00,48.487
764.00,48.516
765.00,48.498
766.00,48.633
767.00,48.666
768.00,48.712
769.00,48.690
770.00,48.831
771.00,48.772
772.00,48.833
773.00,48.860
774.00,48.885
775.00,48.982
776.00,49.003
777.00,49.114
778.00,49.032
779.00,49.226
780.00,49.127
781.00,49.177
782.00,49.168
783.00,49.169
784.00,49.274
785.00,49.123
786.00,49.272
787.00,49.260
788.00,49.308
789.00,49.316
790.00,49.274
791.00,49.342
792.00,49.325
793.00,49.377
794.00,49.320
795.00,49.327
796.00,49.399
797.00,49.354
798.00,49.447
799.00,49.415
800.00,49.340
801.00,49.359
802.00,49.446
803.00,49.435
804.00,49.408
805.00,49.404
806.00,49.435
807.00,49.431
808.00,49.487
809.00,49.417
810.00,49.466
811.00,49.454
812.00,49.550
813.00,49.468
814.00,49.553
815.00,49.435
816.00,49.427
817.00,49.446
818.00,49.360
819.00,49.464
820.00,49.440
821.00,49.367
822.00,49.478
823.00,49.328
824.00,49.480
825.00,49.456
826.00,49.388
827.00,49.454
828.00,49.492
829.00,49.361
830.00,49.420
831.00,51.894
832.00,51.851
833.00,51.863
834.00,51.847
835.00,51.797
836.00,51.884
837.00,51.825
838.00,51.830
839.00,51.861
840.00,51.750
841.00,51.826
842.00,51.791
843.00,51.827
844.00,51.812
845.00,51.782
846.00,51.799
847.00,51.749
848.00,51.787
849.00,51.720
850.00,51.702
851.00,51.630
852.00,51.710
853.00,51.646
854.00,51.623
855.00,51.590
856.00,51.582
857.00,51.583
858.00,51.571
859.00,51.522
860.00,51.547
861.00,51.545
862.00,51.452
863.00,51.513
864.00,51.466
865.00,51.513
866.00,51.510
867.00,51.457
868.00,51.460
869.00,51.479
870.00,51.487
871.00,51.441
872.00,51.473
873.00,51.455
874.00,51.476
875.00,51.417
876.00,51.472
877.00,51.453
878.00,51.429
879.00,51.416
880.00,51.426
881.00,51.401
882.00,51.407
883.00,51.487
884.00,51.334
885.00,51.368
886.00,51.375
887.00,51.337
888.00,51.321
889.00,51.308
890.00,51.299
891.00,51.277
892.00,51.266
893.00,51.248
894.00,51.250
895.00,51.199
896.00,51.201
897.00,51.194
898.00,51.151
899.00,51.176
900.00,51.134
901.00,51.128
902.00,51.144
903.00,51.091
904.00,51.104
905.00,51.109
906.00,51.088
907.00,51.071
908.00,51.003
909.00,51.035
910.00,50.998
911.00,50.995
912.00,50.980
913.00,50.939
914.00,50.938
915.00,50.919
916.00,50.890
917.00,50.920
918.00,50.890
919.00,50.860
920.00,50.820
921.00,50.840
922.00,50.761
923.00,50.830
924.00,50.739
925.00,50.763
926.00,50.747
927.00,50.730
928.00,50.696
929.00,50.718
930.00,50.698
931.00,50.670
932.00,50.639
933.00,50.640
934.00,50.641
935.00,50.602
936.00,50.603
937.00,50.546
938.00,50.656
939.00,50.547
940.00,50.513
941.00,50.523
942.00,50.487
943.00,50.473
944.00,50.454
945.00,50.439
946.00,50.453
947.00,50.397
948.00,50.394
949.00,50.369
950.00,50.366
951.00,50.335
952.00,50.321
953.00,50.270
954.00,50.326
955.00,50.243
956.00,50.230
957.00,50.188
958.00,50.203
959.00,50.139
960.00,50.147
961.00,50.135
962.00,50.131
963.00,50.086
964.00,50.093
965.00,50.089
966.00,50.087
967.00,50.080
968.00,50.051
969.00,50.081
970.00,50.045
971.00,50.061
972.00,50.025
973.00,50.061
974.00,50.075
975.00,50.043
976.00,50.063
977.00,50.063
978.00,50.094
979.00,50.049
980.00,50.080
981.00,50.070
982.00,50.049
983.00,50.071
984.00,50.050
985.00,50.059
986.00,50.021
987.00,50.051
988.00,50.024
989.00,50.007
990.00,50.004
991.00,50.014
992.00,49.988
993.00,49.941
994.00,49.962
995.00,49.924
996.00,49.926
997.00,49.918
998.00,49.901
999.00,49.923
1000.00,49.870
1001.00,49.886
1002.00,49.884
1003.00,49.870
1004.00,49.851
1005.00,49.820
1006.00,49.848
1007.00,49.810
1008.00,49.793
1009.00,49.788
1010.00,49.782
1011.00,49.765
1012.00,49.746
1013.00,49.747
1014.00,49.705
1015.00,49.713
1016.00,49.684
1017.00,49.668
1018.00,49.656
1019.00,49.645
1020.00,49.636
1021.00,49.616
1022.00,49.608
1023.00,49.568
1024.00,49.581
1025.00,49.538
1026.00,49.562
1027.00,49.526
1028.00,49.519
1029.00,49.499
1030.00,49.465
1031.00,49.481
1032.00,49.443
1033.00,49.441
1034.00,49.411
1035.00,49.385
1036.00,49.351
1037.00,49.349
1038.00,49.338
1039.00,49.296
1040.00,49.320
1041.00,49.270
1042.00,49.271
1043.00,49.243
1044.00,49.261
1045.00,49.230
1046.00,49.248
1047.00,49.264
1048.00,49.272
1049.00,49.291
1050.00,49.281
1051.00,49.320
1052.00,49.312
1053.00,49.319
1054.00,49.330
1055.00,49.343
1056.00,49.402
1057.00,49.364
1058.00,49.340
1059.00,49.343
1060.00,49.355
1061.00,49.322
1062.00,49.314
1063.00,49.321
1064.00,49.331
1065.00,49.321
1066.00,49.296
1067.00,49.295
1068.00,49.317
1069.00,49.270
1070.00,49.283
1071.00,49.282
1072.00,49.258
1073.00,49.237
1074.00,49.231
1075.00,49.217
1076.00,49.235
1077.00,49.213
1078.00,49.188
1079.00,49.197
1080.00,49.194
1081.00,49.188
1082.00,49.186
1083.00,49.164
1084.00,49.170
1085.00,49.164
1086.00,49.142
1087.00,49.160
1088.00,49.136
1089.00,49.127
1090.00,49.125
1091.00,49.129
1092.00,49.114
1093.00,49.109
1094.00,49.095
1095.00,49.089
1096.00,49.067
1097.00,49.062
1098.00,49.069
1099.00,49.047
1100.00,49.029
1101.00,49.029
1102.00,48.994
1103.00,49.012
1104.00,49.007
1105.00,48.993
1106.00,48.976
1107.00,48.971
1108.00,48.979
1109.00,48.975
1110.00,48.958
1111.00,48.949
1112.00,48.950
1113.00,48.925
1114.00,48.923
1115.00,48.931
1116.00,48.919
1117.00,48.920
1118.00,48.888
1119.00,48.898
1120.00,48.896
1121.00,48.876
1122.00,48.853
1123.00,48.852
1124.00,48.853
1125.00,48.848
1126.00,48.839
1127.00,48.830
1128.00,48.805
1129.00,48.798
1130.00,48.779
1131.00,48.817
1132.00,48.782
1133.00,48.806
1134.00,48.798
1135.00,48.786
1136.00,48.793
1137.00,48.803
1138.00,48.791
1139.00,48.792
1140.00,48.776
1141.00,48.773
1142.00,48.765
1143.00,48.788
1144.00,48.753
1145.00,48.763
1146.00,48.749
1147.00,48.763
1148.00,48.753
1149.00,48.746
1150.00,48.751
1151.00,48.753
1152.00,48.751
1153.00,48.750
1154.00,48.726
1155.00,48.738
1156.00,48.727
1157.00,48.741
1158.00,48.723
1159.00,48.740
1160.00,48.716
1161.00,48.729
1162.00,48.719
1163.00,48.716
1164.00,48.738
1165.00,48.736
1166.00,48.740
1167.00,48.721
1168.00,48.723
1169.00,48.706
1170.00,48.715
1171.00,48.687
1172.00,48.685
1173.00,48.675
1174.00,48.685
1175.00,48.692
1176.00,48.678
1177.00,48.688
1178.00,48.719
1179.00,48.704
1180.00,48.691
1181.00,48.710
1182.00,48.681
1183.00,48.682
1184.00,48.666
1185.00,48.684
1186.00,48.675
1187.00,48.680
1188.00,48.681
1189.00,48.690
1190.00,48.667
1191.00,48.673
1192.00,48.719
1193.00,48.686
1194.00,48.689
1195.00,48.682
1196.00,48.706
1197.00,48.718
1198.00,48.699
1199.00,48.688
1200.00,48.703
1201.00,48.706
1202.00,48.685
1203.00,48.685
1204.00,48.667
1205.00,48.689
1206.00,48.683
1207.00,48.698
1208.00,48.688
1209.00,48.694
1210.00,48.696
1211.00,48.700
1212.00,48.702
1213.00,48.661
1214.00,48.705
1215.00,48.666
1216.00,48.688
1217.00,48.679
1218.00,48.684
1219.00,48.707
1220.00,48.678
1221.00,48.706
1222.00,48.693
1223.00,48.724
1224.00,48.717
1225.00,48.697
1226.00,48.686
1227.00,48.686
1228.00,48.711
1229.00,48.712
1230.00,48.753
1231.00,48.718
1232.00,48.748
1233.00,48.751
1234.00,48.739
1235.00,48.737
1236.00,48.763
1237.00,48.742
1238.00,48.764
1239.00,48.783
1240.00,48.743
1241.00,48.767
1242.00,48.746
1243.00,48.764
1244.00,48.763
1245.00,48.776
1246.00,48.798
1247.00,48.789
1248.00,48.768
1249.00,48.796
1250.00,48.789
1251.00,48.801
1252.00,48.828
1253.00,48.820
1254.00,48.846
1255.00,48.812
1256.00,48.794
1257.00,48.793
1258.00,48.842
1259.00,48.809
1260.00,48.846
1261.00,48.835
1262.00,48.829
1263.00,48.842
1264.00,48.833
1265.00,48.845
1266.00,48.850
1267.00,48.863
1268.00,48.866
1269.00,48.882
1270.00,48.889
1271.00,48.884
1272.00,48.880
1273.00,48.900
1274.00,48.918
1275.00,48.918
1276.00,48.911
1277.00,48.922
1278.00,48.922
1279.00,48.935
1280.00,48.923
1281.00,48.939
1282.00,48.947
1283.00,48.960
1284.00,48.965
1285.00,48.958
1286.00,48.975
1287.00,48.972
1288.00,48.990
1289.00,48.964
1290.00,49.007
1291.00,49.001
1292.00,48.987
1293.00,48.995
1294.00,48.999
1295.00,49.019
1296.00,49.028
1297.00,49.031
1298.00,49.061
1299.00,49.035
1300.00,49.056
1301.00,49.039
1302.00,49.071
1303.00,49.059
1304.00,49.044
1305.00,49.092
1306.00,49.078
1307.00,49.106
1308.00,49.104
1309.00,49.118
1310.00,49.116
1311.00,49.096
1312.00,49.118
1313.00,49.146
1314.00,49.156
1315.00,49.169
1316.00,49.169
1317.00,49.193
1318.00,49.193
1319.00,49.201
1320.00,49.188
1321.00,49.357
1322.00,49.331
1323.00,49.347
1324.00,49.326
1325.00,49.286
1326.00,49.309
1327.00,49.336
1328.00,49.355
1329.00,49.261
1330.00,49.344
1331.00,49.339
1332.00,49.349
1333.00,49.344
1334.00,49.377
1335.00,49.386
1336.00,49.421
1337.00,49.451
1338.00,49.515
1339.00,49.543
1340.00,49.599
1341.00,49.701
1342.00,49.734
1343.00,49.764
1344.00,49.826
1345.00,49.890
1346.00,49.944
1347.00,49.954
1348.00,49.975
1349.00,50.013
1350.00,50.017
1351.00,50.036
1352.00,50.052
1353.00,50.026
1354.00,50.053
1355.00,50.006
1356.00,50.111
1357.00,50.084
1358.00,50.091
1359.00,50.034
1360.00,50.076
1361.00,50.128
1362.00,50.122
1363.00,50.145
1364.00,50.118
1365.00,50.112
1366.00,50.129
1367.00,50.110
1368.00,50.130
1369.00,50.114
1370.00,50.109
1371.00,50.083
1372.00,50.087
1373.00,50.092
1374.00,50.134
1375.00,50.089
1376.00,50.097
1377.00,50.077
1378.00,50.172
1379.00,50.092
1380.00,50.110
1381.00,50.066
1382.00,50.089
1383.00,50.107
1384.00,50.070
1385.00,50.131
1386.00,50.098
1387.00,50.143
1388.00,50.039
1389.00,50.105
1390.00,49.740
1391.00,50.110
1392.00,50.045
1393.00,50.035
1394.00,50.067
1395.00,50.042
1396.00,50.102
1397.00,50.115
1398.00,50.113
1399.00,50.073
1400.00,50.084
1401.00,50.098
1402.00,50.108
1403.00,50.134
1404.00,50.178
1405.00,50.082
1406.00,50.211
1407.00,50.152
1408.00,50.168
1409.00,50.190
1410.00,50.219
1411.00,50.163
1412.00,50.261
1413.00,50.169
1414.00,50.165
1415.00,50.183
1416.00,50.242
1417.00,50.302
1418.00,50.281
1419.00,50.349
1420.00,50.304
1421.00,50.313
1422.00,50.308
1423.00,50.357
1424.00,50.332
1425.00,50.374
1426.00,50.390
1427.00,50.386
1428.00,50.384
1429.00,50.410
1430.00,50.414
1431.00,50.446
1432.00,50.454
1433.00,50.476
1434.00,50.477
1435.00,50.534
1436.00,50.536
1437.00,50.547
1438.00,50.549
1439.00,50.585
1440.00,50.601
1441.00,50.605
1442.00,50.628
1443.00,50.658
1444.00,50.713
1445.00,50.680
1446.00,50.701
1447.00,50.716
1448.00,50.763
1449.00,50.769
1450.00,50.797
1451.00,50.831
1452.00,50.822
1453.00,50.833
1454.00,50.846
1455.00,50.873
1456.00,50.912
1457.00,50.888
1458.00,50.918
1459.00,50.938
1460.00,50.962
1461.00,50.960
1462.00,51.009
1463.00,50.999
1464.00,51.016
1465.00,51.034
1466.00,51.056
1467.00,51.092
1468.00,51.124
1469.00,51.087
1470.00,51.121
1471.00,51.129
1472.00,51.138
1473.00,51.158
1474.00,51.192
1475.00,51.211
1476.00,51.220
1477.00,51.200
1478.00,51.243
1479.00,51.245
1480.00,51.251
1481.00,51.268
1482.00,51.298
1483.00,51.311
1484.00,51.334
1485.00,51.331
1486.00,51.359
1487.00,51.377
1488.00,51.391
1489.00,51.403
1490.00,51.416
1491.00,51.424
1492.00,51.450
1493.00,51.419
1494.00,51.470
1495.00,51.475
1496.00,51.522
1497.00,51.508
1498.00,51.520
1499.00,51.532
1500.00,51.547
1501.00, 
1502.00, 
1503.00, 
1504.00, 
1505.00, 
1506.00, 
1507.00, 
1508.00, 
1509.00, 
1510.00, 
1511.00, 
1512.00, 
1513.00, 
1514.00, 
1515.00, 
1516.00, 
1517.00, 
1518.00, 
1519.00, 
1520.00, 
1521.00, 
1522.00, 
1523.00, 
1524.00, 
1525.00, 
1526.00, 
1527.00, 
1528.00, 
1529.00, 
1530.00, 
1531.00, 
1532.00, 
1533.00, 
1534.00, 
1535.00, 
1536.00, 
1537.00, 
1538.00, 
1539.00, 
1540.00, 
1541.00, 
1542.00, 
1543.00, 
1544.00, 
1545.00, 
1546.00, 
1547.00, 
1548.00, 
1549.00, 
1550.00, 
1551.00, 
1552.00, 
1553.00, 
1554.00, 
1555.00, 
1556.00, 
1557.00, 
1558.00, 
1559.00, 
1560.00, 
1561.00, 
1562.00, 
1563.00, 
1564.00, 
1565.00, 
1566.00, 
1567.00, 
1568.00, 
1569.00, 
1570.00, 
1571.00, 
1572.00, 
1573.00, 
1574.00, 
1575.00, 
1576.00, 
1577.00, 
1578.00, 
1579.00, 
1580.00, 
1581.00, 
1582.00, 
1583.00, 
1584.00, 
1585.00, 
1586.00, 
1587.00, 
1588.00, 
1589.00, 
1590.00, 
1591.00, 
1592.00, 
1593.00, 
1594.00, 
1595.00, 
1596.00, 
1597.00, 
1598.00, 
1599.00, 
1600.00, 
1601.00, 
1602.00, 
1603.00, 
1604.00, 
1605.00, 
1606.00, 
1607.00, 
1608.00, 
1609.00, 
1610.00, 
1611.00, 
1612.00, 
1613.00, 
1614.00, 
1615.00, 
1616.00, 
1617.00, 
1618.00, 
1619.00, 
1620.00, 
1621.00, 
1622.00, 
1623.00, 
1624.00, 
1625.00, 
1626.00, 
1627.00, 
1628.00, 
1629.00, 
1630.00, 
1631.00, 
1632.00, 
1633.00, 
1634.00, 
1635.00, 
1636.00, 
1637.00, 
1638.00, 
1639.00, 
1640.00, 
1641.00, 
1642.00, 
1643.00, 
1644.00, 
1645.00, 
1646.00, 
1647.00, 
1648.00, 
1649.00, 
1650.00, 
1651.00, 
1652.00, 
1653.00, 
1654.00, 
1655.00, 
1656.00, 
1657.00, 
1658.00, 
1659.00, 
1660.00, 
1661.00, 
1662.00, 
1663.00, 
1664.00, 
1665.00, 
1666.00, 
1667.00, 
1668.00, 
1669.00, 
1670.00, 
1671.00, 
1672.00, 
1673.00, 
1674.00, 
1675.00, 
1676.00, 
1677.00, 
1678.00, 
1679.00, 
1680.00, 
1681.00, 
1682.00, 
1683.00, 
1684.00, 
1685.00, 
1686.00, 
1687.00, 
1688.00, 
1689.00, 
1690.00, 
1691.00, 
1692.00, 
1693.00, 
1694.00, 
1695.00, 
1696.00, 
1697.00, 
1698.00, 
1699.00, 
1700.00, 
1701.00, 
1702.00, 
1703.00, 
1704.00, 
1705.00, 
1706.00, 
1707.00, 
1708.00, 
1709.00, 
1710.00, 
1711.00, 
1712.00, 
1713.00, 
1714.00, 
1715.00, 
1716.00, 
1717.00, 
1718.00, 
1719.00, 
1720.00, 
1721.00, 
1722.00, 
1723.00, 
1724.00, 
1725.00, 
1726.00, 
1727.00, 
1728.00, 
1729.00, 
1730.00, 
1731.00, 
1732.00, 
1733.00, 
1734.00, 
1735.00, 
1736.00, 
1737.00, 
1738.00, 
1739.00, 
1740.00, 
1741.00, 
1742.00, 
1743.00, 
1744.00, 
1745.00, 
1746.00, 
1747.00, 
1748.00, 
1749.00, 
1750.00, 
1751.00, 
1752.00, 
1753.00, 
1754.00, 
1755.00, 
1756.00, 
1757.00, 
1758.00, 
1759.00, 
1760.00, 
1761.00, 
1762.00, 
1763.00, 
1764.00, 
1765.00, 
1766.00, 
1767.00, 
1768.00, 
1769.00, 
1770.00, 
1771.00, 
1772.00, 
1773.00, 
1774.00, 
1775.00, 
1776.00, 
1777.00, 
1778.00, 
1779.00, 
1780.00, 
1781.00, 
1782.00, 
1783.00, 
1784.00, 
1785.00, 
1786.00, 
1787.00, 
1788.00, 
1789.00, 
1790.00, 
1791.00, 
1792.00, 
1793.00, 
1794.00, 
1795.00, 
1796.00, 
1797.00, 
1798.00, 
1799.00, 
1800.00, 
1801.00, 
1802.00, 
1803.00, 
1804.00, 
1805.00, 
1806.00, 
1807.00, 
1808.00, 
1809.00, 
1810.00, 
1811.00, 
1812.00, 
1813.00, 
1814.00, 
1815.00, 
1816.00, 
1817.00, 
1818.00, 
1819.00, 
1820.00, 
1821.00, 
1822.00, 
1823.00, 
1824.00, 
1825.00, 
1826.00, 
1827.00, 
1828.00, 
1829.00, 
1830.00, 
1831.00, 
1832.00, 
1833.00, 
1834.00, 
1835.00, 
1836.00, 
1837.00, 
1838.00, 
1839.00, 
1840.00, 
1841.00, 
1842.00, 
1843.00, 
1844.00, 
1845.00, 
1846.00, 
1847.00, 
1848.00, 
1849.00, 
1850.00, 
1851.00, 
1852.00, 
1853.00, 
1854.00, 
1855.00, 
1856.00, 
1857.00, 
1858.00, 
1859.00, 
1860.00, 
1861.00, 
1862.00, 
1863.00, 
1864.00, 
1865.00, 
1866.00, 
1867.00, 
1868.00, 
1869.00, 
1870.00, 
1871.00, 
1872.00, 
1873.00, 
1874.00, 
1875.00, 
1876.00, 
1877.00, 
1878.00, 
1879.00, 
1880.00, 
1881.00, 
1882.00, 
1883.00, 
1884.00, 
1885.00, 
1886.00, 
1887.00, 
1888.00, 
1889.00, 
1890.00, 
1891.00, 
1892.00, 
1893.00, 
1894.00, 
1895.00, 
1896.00, 
1897.00, 
1898.00, 
1899.00, 
1900.00, 
1901.00, 
1902.00, 
1903.00, 
1904.00, 
1905.00, 
1906.00, 
1907.00, 
1908.00, 
1909.00, 
1910.00, 
1911.00, 
1912.00, 
1913.00, 
1914.00, 
1915.00, 
1916.00, 
1917.00, 
1918.00, 
1919.00, 
1920.00, 
1921.00, 
1922.00, 
1923.00, 
1924.00, 
1925.00, 
1926.00, 
1927.00, 
1928.00, 
1929.00, 
1930.00, 
1931.00, 
1932.00, 
1933.00, 
1934.00, 
1935.00, 
1936.00, 
1937.00, 
1938.00, 
1939.00, 
1940.00, 
1941.00, 
1942.00, 
1943.00, 
1944.00, 
1945.00, 
1946.00, 
1947.00, 
1948.00, 
1949.00, 
1950.00, 
1951.00, 
1952.00, 
1953.00, 
1954.00, 
1955.00, 
1956.00, 
1957.00, 
1958.00, 
1959.00, 
1960.00, 
1961.00, 
1962.00, 
1963.00, 
1964.00, 
1965.00, 
1966.00, 
1967.00, 
1968.00, 
1969.00, 
1970.00, 
1971.00, 
1972.00, 
1973.00, 
1974.00, 
1975.00, 
1976.00, 
1977.00, 
1978.00, 
1979.00, 
1980.00, 
1981.00, 
1982.00, 
1983.00, 
1984.00, 
1985.00, 
1986.00, 
1987.00, 
1988.00, 
1989.00, 
1990.00, 
1991.00, 
1992.00, 
1993.00, 
1994.00, 
1995.00, 
1996.00, 
1997.00, 
1998.00, 
1999.00, 
2000.00, 
2001.00, 
2002.00, 
2003.00, 
2004.00, 
2005.00, 
2006.00, 
2007.00, 
2008.00, 
2009.00, 
2010.00, 
2011.00, 
2012.00, 
2013.00, 
2014.00, 
2015.00, 
2016.00, 
2017.00, 
2018.00, 
2019.00, 
2020.00, 
2021.00, 
2022.00, 
2023.00, 
2024.00, 
2025.00, 
2026.00, 
2027.00, 
2028.00, 
2029.00, 
2030.00, 
2031.00, 
2032.00, 
2033.00, 
2034.00, 
2035.00, 
2036.00, 
2037.00, 
2038.00, 
2039.00, 
2040.00, 
2041.00, 
2042.00, 
2043.00, 
2044.00, 
2045.00, 
2046.00, 
2047.00, 
2048.00, 
2049.00, 
2050.00, 
2051.00, 
2052.00, 
2053.00, 
2054.00, 
2055.00, 
2056.00, 
2057.00, 
2058.00, 
2059.00, 
2060.00, 
2061.00, 
2062.00, 
2063.00, 
2064.00, 
2065.00, 
2066.00, 
2067.00, 
2068.00, 
2069.00, 
2070.00, 
2071.00, 
2072.00, 
2073.00, 
2074.00, 
2075.00, 
2076.00, 
2077.00, 
2078.00, 
2079.00, 
2080.00, 
2081.00, 
2082.00, 
2083.00, 
2084.00, 
2085.00, 
2086.00, 
2087.00, 
2088.00, 
2089.00, 
2090.00, 
2091.00, 
2092.00, 
2093.00, 
2094.00, 
2095.00, 
2096.00, 
2097.00, 
2098.00, 
2099.00, 
2100.00, 
2101.00, 
2102.00, 
2103.00, 
2104.00, 
2105.00, 
2106.00, 
2107.00, 
2108.00, 
2109.00, 
2110.00, 
2111.00, 
2112.00, 
2113.00, 
2114.00, 
2115.00, 
2116.00, 
2117.00, 
2118.00, 
2119.00, 
2120.00, 
2121.00, 
2122.00, 
2123.00, 
2124.00, 
2125.00, 
2126.00, 
2127.00, 
2128.00, 
2129.00, 
2130.00, 
2131.00, 
2132.00, 
2133.00, 
2134.00, 
2135.00, 
2136.00, 
2137.00, 
2138.00, 
2139.00, 
2140.00, 
2141.00, 
2142.00, 
2143.00, 
2144.00, 
2145.00, 
2146.00, 
2147.00, 
2148.00, 
2149.00, 
2150.00, 
2151.00, 
2152.00, 
2153.00, 
2154.00, 
2155.00, 
2156.00, 
2157.00, 
2158.00, 
2159.00, 
2160.00, 
2161.00, 
2162.00, 
2163.00, 
2164.00, 
2165.00, 
2166.00, 
2167.00, 
2168.00, 
2169.00, 
2170.00, 
2171.00, 
2172.00, 
2173.00, 
2174.00, 
2175.00, 
2176.00, 
2177.00, 
2178.00, 
2179.00, 
2180.00, 
2181.00, 
2182.00, 
2183.00, 
2184.00, 
2185.00, 
2186.00, 
2187.00, 
2188.00, 
2189.00, 
2190.00, 
2191.00, 
2192.00, 
2193.00, 
2194.00, 
2195.00, 
2196.00, 
2197.00, 
2198.00, 
2199.00, 
2200.00, 
2201.00, 
2202.00, 
2203.00, 
2204.00, 
2205.00, 
2206.00, 
2207.00, 
2208.00, 
2209.00, 
2210.00, 
2211.00, 
2212.00, 
2213.00, 
2214.00, 
2215.00, 
2216.00, 
2217.00, 
2218.00, 
2219.00, 
2220.00, 
2221.00, 
2222.00, 
2223.00, 
2224.00, 
2225.00, 
2226.00, 
2227.00, 
2228.00, 
2229.00, 
2230.00, 
2231.00, 
2232.00, 
2233.00, 
2234.00, 
2235.00, 
2236.00, 
2237.00, 
2238.00, 
2239.00, 
2240.00, 
2241.00, 
2242.00, 
2243.00, 
2244.00, 
2245.00, 
2246.00, 
2247.00, 
2248.00, 
2249.00, 
2250.00, 
2251.00, 
2252.00, 
2253.00, 
2254.00, 
2255.00, 
2256.00, 
2257.00, 
2258.00, 
2259.00, 
2260.00, 
2261.00, 
2262.00, 
2263.00, 
2264.00, 
2265.00, 
2266.00, 
2267.00, 
2268.00, 
2269.00, 
2270.00, 
2271.00, 
2272.00, 
2273.00, 
2274.00, 
2275.00, 
2276.00, 
2277.00, 
2278.00, 
2279.00, 
2280.00, 
2281.00, 
2282.00, 
2283.00, 
2284.00, 
2285.00, 
2286.00, 
2287.00, 
2288.00, 
2289.00, 
2290.00, 
2291.00, 
2292.00, 
2293.00, 
2294.00, 
2295.00, 
2296.00, 
2297.00, 
2298.00, 
2299.00, 
2300.00, 
2301.00, 
2302.00, 
2303.00, 
2304.00, 
2305.00, 
2306.00, 
2307.00, 
2308.00, 
2309.00, 
2310.00, 
2311.00, 
2312.00, 
2313.00, 
2314.00, 
2315.00, 
2316.00, 
2317.00, 
2318.00, 
2319.00, 
2320.00, 
2321.00, 
2322.00, 
2323.00, 
2324.00, 
2325.00, 
2326.00, 
2327.00, 
2328.00, 
2329.00, 
2330.00, 
2331.00, 
2332.00, 
2333.00, 
2334.00, 
2335.00, 
2336.00, 
2337.00, 
2338.00, 
2339.00, 
2340.00, 
2341.00, 
2342.00, 
2343.00, 
2344.00, 
2345.00, 
2346.00, 
2347.00, 
2348.00, 
2349.00, 
2350.00, 
2351.00, 
2352.00, 
2353.00, 
2354.00, 
2355.00, 
2356.00, 
2357.00, 
2358.00, 
2359.00, 
2360.00, 
2361.00, 
2362.00, 
2363.00, 
2364.00, 
2365.00, 
2366.00, 
2367.00, 
2368.00, 
2369.00, 
2370.00, 
2371.00, 
2372.00, 
2373.00, 
2374.00, 
2375.00, 
2376.00, 
2377.00, 
2378.00, 
2379.00, 
2380.00, 
2381.00, 
2382.00, 
2383.00, 
2384.00, 
2385.00, 
2386.00, 
2387.00, 
2388.00, 
2389.00, 
2390.00, 
2391.00, 
2392.00, 
2393.00, 
2394.00, 
2395.00, 
2396.00, 
2397.00, 
2398.00, 
2399.00, 
2400.00, 
2401.00, 
2402.00, 
2403.00, 
2404.00, 
2405.00, 
2406.00, 
2407.00, 
2408.00, 
2409.00, 
2410.00, 
2411.00, 
2412.00, 
2413.00, 
2414.00, 
2415.00, 
2416.00, 
2417.00, 
2418.00, 
2419.00, 
2420.00, 
2421.00, 
2422.00, 
2423.00, 
2424.00, 
2425.00, 
2426.00, 
2427.00, 
2428.00, 
2429.00, 
2430.00, 
2431.00, 
2432.00, 
2433.00, 
2434.00, 
2435.00, 
2436.00, 
2437.00, 
2438.00, 
2439.00, 
2440.00, 
2441.00, 
2442.00, 
2443.00, 
2444.00, 
2445.00, 
2446.00, 
2447.00, 
2448.00, 
2449.00, 
2450.00, 
2451.00, 
2452.00, 
2453.00, 
2454.00, 
2455.00, 
2456.00, 
2457.00, 
2458.00, 
2459.00, 
2460.00, 
2461.00, 
2462.00, 
2463.00, 
2464.00, 
2465.00, 
2466.00, 
2467.00, 
2468.00, 
2469.00, 
2470.00, 
2471.00, 
2472.00, 
2473.00, 
2474.00, 
2475.00, 
2476.00, 
2477.00, 
2478.00, 
2479.00, 
2480.00, 
2481.00, 
2482.00, 
2483.00, 
2484.00, 
2485.00, 
2486.00, 
2487.00, 
2488.00, 
2489.00, 
2490.00, 
2491.00, 
2492.00, 
2493.00, 
2494.00, 
2495.00, 
2496.00, 
2497.00, 
2498.00, 
2499.00, 
2500.00, 
2501.00, 
2502.00, 
2503.00, 
2504.00, 
2505.00, 
2506.00, 
2507.00, 
2508.00, 
2509.00, 
2510.00, 
2511.00, 
2512.00, 
2513.00, 
2514.00, 
2515.00, 
2516.00, 
2517.00, 
2518.00, 
2519.00, 
2520.00, 
2521.00, 
2522.00, 
2523.00, 
2524.00, 
2525.00, 
2526.00, 
2527.00, 
2528.00, 
2529.00, 
2530.00, 
2531.00, 
2532.00, 
2533.00, 
2534.00, 
2535.00, 
2536.00, 
2537.00, 
2538.00, 
2539.00, 
2540.00, 
2541.00, 
2542.00, 
2543.00, 
2544.00, 
2545.00, 
2546.00, 
2547.00, 
2548.00, 
2549.00, 
2550.00, 
2551.00, 
2552.00, 
2553.00, 
2554.00, 
2555.00, 
2556.00, 
2557.00, 
2558.00, 
2559.00, 
2560.00, 
2561.00, 
2562.00, 
2563.00, 
2564.00, 
2565.00, 
2566.00, 
2567.00, 
2568.00, 
2569.00, 
2570.00, 
2571.00, 
2572.00, 
2573.00, 
2574.00, 
2575.00, 
2576.00, 
2577.00, 
2578.00, 
2579.00, 
2580.00, 
2581.00, 
2582.00, 
2583.00, 
2584.00, 
2585.00, 
2586.00, 
2587.00, 
2588.00, 
2589.00, 
2590.00, 
2591.00, 
2592.00, 
2593.00, 
2594.00, 
2595.00, 
2596.00, 
2597.00, 
2598.00, 
2599.00, 
2600.00, 
