"1cP4 - RawData"
"Wavelength nm.","T%"
200.00,0.002
201.00,0.001
202.00,0.001
203.00,0.000
204.00,-0.000
205.00,-0.001
206.00,-0.000
207.00,-0.002
208.00,0.002
209.00,0.007
210.00,0.002
211.00,-0.000
212.00,-0.002
213.00,-0.002
214.00,-0.002
215.00,-0.000
216.00,0.002
217.00,0.002
218.00,0.003
219.00,0.003
220.00,-0.002
221.00,0.002
222.00,0.001
223.00,-0.001
224.00,0.000
225.00,-0.001
226.00,-0.001
227.00,0.000
228.00,0.002
229.00,-0.002
230.00,0.001
231.00,0.002
232.00,0.001
233.00,-0.000
234.00,0.002
235.00,0.000
236.00,-0.000
237.00,-0.000
238.00,0.001
239.00,-0.000
240.00,-0.000
241.00,-0.001
242.00,0.001
243.00,0.001
244.00,0.000
245.00,0.000
246.00,0.001
247.00,0.002
248.00,0.002
249.00,0.004
250.00,-0.000
251.00,-0.002
252.00,0.001
253.00,0.002
254.00,0.000
255.00,-0.002
256.00,0.001
257.00,-0.001
258.00,-0.001
259.00,0.000
260.00,0.001
261.00,0.001
262.00,0.001
263.00,0.001
264.00,0.000
265.00,-0.000
266.00,-0.000
267.00,0.000
268.00,0.000
269.00,0.000
270.00,-0.000
271.00,-0.000
272.00,0.001
273.00,-0.001
274.00,0.000
275.00,-0.000
276.00,0.000
277.00,-0.001
278.00,0.001
279.00,0.000
280.00,0.001
281.00,0.001
282.00,0.001
283.00,0.001
284.00,0.000
285.00,0.002
286.00,0.002
287.00,-0.000
288.00,0.000
289.00,0.002
290.00,-0.001
291.00,-0.000
292.00,-0.000
293.00,0.001
294.00,-0.001
295.00,0.001
296.00,-0.000
297.00,-0.001
298.00,0.000
299.00,0.000
300.00,0.001
301.00,-0.000
302.00,0.002
303.00,0.001
304.00,-0.000
305.00,0.001
306.00,0.002
307.00,0.002
308.00,0.005
309.00,0.007
310.00,0.009
311.00,0.015
312.00,0.022
313.00,0.038
314.00,0.057
315.00,0.083
316.00,0.118
317.00,0.165
318.00,0.224
319.00,0.304
320.00,0.374
321.00,0.506
322.00,0.642
323.00,0.814
324.00,1.003
325.00,1.208
326.00,1.427
327.00,1.686
328.00,1.978
329.00,2.274
330.00,2.601
331.00,2.911
332.00,3.268
333.00,3.664
334.00,4.025
335.00,4.417
336.00,4.799
337.00,5.199
338.00,5.570
339.00,5.929
340.00,6.314
341.00,6.661
342.00,7.030
343.00,7.383
344.00,7.703
345.00,8.031
346.00,8.299
347.00,8.572
348.00,8.832
349.00,9.076
350.00,9.305
351.00,9.491
352.00,9.697
353.00,9.858
354.00,10.040
355.00,10.191
356.00,10.322
357.00,10.441
358.00,10.562
359.00,10.712
360.00,10.812
361.00,10.839
362.00,10.921
363.00,10.977
364.00,11.030
365.00,11.027
366.00,11.080
367.00,11.081
368.00,11.117
369.00,11.106
370.00,11.101
371.00,11.072
372.00,11.029
373.00,11.038
374.00,10.977
375.00,10.911
376.00,10.853
377.00,10.770
378.00,10.690
379.00,10.618
380.00,10.593
381.00,10.552
382.00,10.539
383.00,10.508
384.00,10.490
385.00,10.496
386.00,10.485
387.00,10.499
388.00,10.504
389.00,10.489
390.00,10.495
391.00,10.480
392.00,10.486
393.00,10.465
394.00,10.474
395.00,10.464
396.00,10.411
397.00,10.425
398.00,10.396
399.00,10.398
400.00,10.365
401.00,10.337
402.00,10.356
403.00,10.340
404.00,10.308
405.00,10.282
406.00,10.271
407.00,10.229
408.00,10.214
409.00,10.188
410.00,10.156
411.00,10.131
412.00,10.113
413.00,10.127
414.00,10.101
415.00,10.098
416.00,10.097
417.00,10.088
418.00,10.121
419.00,10.163
420.00,10.164
421.00,10.111
422.00,10.129
423.00,10.160
424.00,10.167
425.00,10.207
426.00,10.193
427.00,10.243
428.00,10.266
429.00,10.304
430.00,10.332
431.00,10.380
432.00,10.394
433.00,10.432
434.00,10.466
435.00,10.533
436.00,10.560
437.00,10.617
438.00,10.676
439.00,10.689
440.00,10.793
441.00,10.844
442.00,10.904
443.00,10.958
444.00,11.048
445.00,11.105
446.00,11.185
447.00,11.249
448.00,11.343
449.00,11.414
450.00,11.502
451.00,11.585
452.00,11.656
453.00,11.754
454.00,11.828
455.00,11.932
456.00,12.043
457.00,12.140
458.00,12.217
459.00,12.340
460.00,12.438
461.00,12.561
462.00,12.661
463.00,12.747
464.00,12.863
465.00,13.030
466.00,13.083
467.00,13.245
468.00,13.305
469.00,13.416
470.00,13.554
471.00,13.670
472.00,13.725
473.00,13.887
474.00,13.994
475.00,14.126
476.00,14.207
477.00,14.354
478.00,14.475
479.00,14.660
480.00,14.763
481.00,14.889
482.00,15.031
483.00,15.175
484.00,15.333
485.00,15.476
486.00,15.597
487.00,15.753
488.00,15.894
489.00,16.052
490.00,16.205
491.00,16.319
492.00,16.473
493.00,16.685
494.00,16.836
495.00,16.881
496.00,17.007
497.00,17.132
498.00,17.277
499.00,17.431
500.00,17.571
501.00,17.674
502.00,17.843
503.00,17.959
504.00,18.030
505.00,18.209
506.00,18.322
507.00,18.420
508.00,18.584
509.00,18.750
510.00,18.902
511.00,18.935
512.00,19.151
513.00,19.267
514.00,19.400
515.00,19.576
516.00,19.686
517.00,19.751
518.00,19.952
519.00,20.014
520.00,20.110
521.00,20.224
522.00,20.345
523.00,20.413
524.00,20.562
525.00,20.717
526.00,20.810
527.00,20.895
528.00,21.008
529.00,21.197
530.00,21.343
531.00,21.432
532.00,21.531
533.00,21.623
534.00,21.709
535.00,21.824
536.00,21.938
537.00,22.035
538.00,22.118
539.00,22.157
540.00,22.296
541.00,22.363
542.00,22.443
543.00,22.486
544.00,22.598
545.00,22.683
546.00,22.739
547.00,22.853
548.00,22.953
549.00,23.012
550.00,23.102
551.00,23.220
552.00,23.309
553.00,23.357
554.00,23.438
555.00,23.498
556.00,23.555
557.00,23.639
558.00,23.712
559.00,23.811
560.00,23.882
561.00,23.950
562.00,24.032
563.00,24.068
564.00,24.139
565.00,24.174
566.00,24.215
567.00,24.275
568.00,24.389
569.00,24.407
570.00,24.434
571.00,24.511
572.00,24.503
573.00,24.554
574.00,24.618
575.00,24.658
576.00,24.679
577.00,24.738
578.00,24.827
579.00,24.917
580.00,24.907
581.00,25.075
582.00,25.155
583.00,25.173
584.00,25.289
585.00,25.295
586.00,25.354
587.00,25.457
588.00,25.496
589.00,25.505
590.00,25.575
591.00,25.635
592.00,25.621
593.00,25.707
594.00,25.795
595.00,25.873
596.00,25.931
597.00,26.012
598.00,26.061
599.00,26.085
600.00,26.185
601.00,26.235
602.00,26.247
603.00,26.335
604.00,26.341
605.00,26.450
606.00,26.516
607.00,26.573
608.00,26.634
609.00,26.748
610.00,26.854
611.00,26.795
612.00,26.823
613.00,26.907
614.00,27.006
615.00,27.085
616.00,27.221
617.00,27.176
618.00,27.229
619.00,27.326
620.00,27.328
621.00,27.488
622.00,27.567
623.00,27.635
624.00,27.770
625.00,27.859
626.00,27.924
627.00,27.979
628.00,28.028
629.00,28.105
630.00,28.186
631.00,28.286
632.00,28.415
633.00,28.529
634.00,28.620
635.00,28.753
636.00,28.787
637.00,28.876
638.00,28.990
639.00,29.132
640.00,29.181
641.00,29.235
642.00,29.326
643.00,29.389
644.00,29.648
645.00,29.704
646.00,29.886
647.00,30.019
648.00,30.071
649.00,30.170
650.00,30.247
651.00,30.478
652.00,30.564
653.00,30.633
654.00,30.785
655.00,31.027
656.00,31.228
657.00,31.259
658.00,31.402
659.00,31.495
660.00,31.638
661.00,31.684
662.00,31.850
663.00,31.978
664.00,32.244
665.00,32.472
666.00,32.323
667.00,32.617
668.00,32.650
669.00,32.939
670.00,33.215
671.00,33.170
672.00,33.344
673.00,33.555
674.00,33.610
675.00,33.731
676.00,34.040
677.00,34.235
678.00,34.067
679.00,34.353
680.00,34.628
681.00,34.772
682.00,34.872
683.00,34.930
684.00,35.144
685.00,35.305
686.00,35.307
687.00,35.458
688.00,35.556
689.00,35.827
690.00,36.163
691.00,36.445
692.00,36.296
693.00,36.338
694.00,36.548
695.00,36.867
696.00,36.996
697.00,37.027
698.00,37.241
699.00,37.486
700.00,37.588
701.00,37.688
702.00,37.910
703.00,38.128
704.00,38.255
705.00,38.336
706.00,38.421
707.00,38.594
708.00,38.561
709.00,38.998
710.00,39.409
711.00,39.080
712.00,39.275
713.00,39.506
714.00,39.665
715.00,39.776
716.00,39.735
717.00,39.970
718.00,40.253
719.00,40.155
720.00,40.387
721.00,44.536
722.00,44.656
723.00,44.739
724.00,44.829
725.00,44.940
726.00,45.029
727.00,45.129
728.00,45.218
729.00,45.357
730.00,45.480
731.00,45.455
732.00,45.668
733.00,45.747
734.00,45.852
735.00,45.956
736.00,46.050
737.00,46.147
738.00,46.209
739.00,46.274
740.00,46.467
741.00,46.504
742.00,46.714
743.00,46.670
744.00,46.739
745.00,46.848
746.00,47.002
747.00,46.994
748.00,47.021
749.00,47.085
750.00,47.167
751.00,47.230
752.00,47.268
753.00,47.295
754.00,47.438
755.00,47.454
756.00,47.529
757.00,47.550
758.00,47.693
759.00,47.669
760.00,47.814
761.00,47.832
762.00,47.836
763.00,47.971
764.00,48.031
765.00,48.136
766.00,48.144
767.00,48.221
768.00,48.290
769.00,48.303
770.00,48.477
771.00,48.354
772.00,48.475
773.00,48.523
774.00,48.538
775.00,48.701
776.00,48.610
777.00,48.806
778.00,48.792
779.00,48.905
780.00,48.867
781.00,48.949
782.00,48.905
783.00,49.012
784.00,49.086
785.00,48.964
786.00,49.117
787.00,49.072
788.00,49.157
789.00,49.177
790.00,49.117
791.00,49.228
792.00,49.087
793.00,49.262
794.00,49.248
795.00,49.199
796.00,49.309
797.00,49.202
798.00,49.395
799.00,49.313
800.00,49.300
801.00,49.349
802.00,49.426
803.00,49.370
804.00,49.330
805.00,49.390
806.00,49.392
807.00,49.420
808.00,49.416
809.00,49.407
810.00,49.423
811.00,49.462
812.00,49.577
813.00,49.440
814.00,49.575
815.00,49.528
816.00,49.467
817.00,49.576
818.00,49.475
819.00,49.500
820.00,49.521
821.00,49.368
822.00,49.547
823.00,49.543
824.00,49.583
825.00,49.522
826.00,49.484
827.00,49.593
828.00,49.608
829.00,49.509
830.00,49.708
831.00,51.932
832.00,51.929
833.00,51.922
834.00,51.941
835.00,51.890
836.00,51.982
837.00,51.947
838.00,51.942
839.00,51.915
840.00,51.892
841.00,51.921
842.00,51.953
843.00,51.968
844.00,51.926
845.00,51.893
846.00,51.918
847.00,51.857
848.00,51.925
849.00,51.830
850.00,51.824
851.00,51.792
852.00,51.844
853.00,51.792
854.00,51.789
855.00,51.757
856.00,51.776
857.00,51.788
858.00,51.744
859.00,51.714
860.00,51.777
861.00,51.760
862.00,51.668
863.00,51.716
864.00,51.677
865.00,51.739
866.00,51.750
867.00,51.696
868.00,51.709
869.00,51.710
870.00,51.739
871.00,51.729
872.00,51.739
873.00,51.710
874.00,51.757
875.00,51.672
876.00,51.749
877.00,51.715
878.00,51.712
879.00,51.697
880.00,51.675
881.00,51.659
882.00,51.707
883.00,51.651
884.00,51.613
885.00,51.623
886.00,51.641
887.00,51.626
888.00,51.590
889.00,51.613
890.00,51.583
891.00,51.557
892.00,51.560
893.00,51.541
894.00,51.534
895.00,51.499
896.00,51.497
897.00,51.496
898.00,51.441
899.00,51.463
900.00,51.441
901.00,51.422
902.00,51.445
903.00,51.408
904.00,51.423
905.00,51.432
906.00,51.419
907.00,51.383
908.00,51.359
909.00,51.379
910.00,51.336
911.00,51.349
912.00,51.313
913.00,51.286
914.00,51.294
915.00,51.265
916.00,51.251
917.00,51.260
918.00,51.229
919.00,51.197
920.00,51.160
921.00,51.194
922.00,51.178
923.00,51.121
924.00,51.104
925.00,51.106
926.00,51.103
927.00,51.091
928.00,51.063
929.00,51.096
930.00,51.055
931.00,51.025
932.00,51.000
933.00,51.095
934.00,51.012
935.00,50.977
936.00,50.966
937.00,50.937
938.00,50.942
939.00,50.916
940.00,50.901
941.00,50.900
942.00,50.882
943.00,50.863
944.00,50.860
945.00,50.848
946.00,50.842
947.00,50.753
948.00,50.846
949.00,50.764
950.00,50.767
951.00,50.731
952.00,50.731
953.00,50.679
954.00,50.663
955.00,50.625
956.00,50.617
957.00,50.577
958.00,50.588
959.00,50.534
960.00,50.543
961.00,50.531
962.00,50.548
963.00,50.493
964.00,50.484
965.00,50.508
966.00,50.498
967.00,50.473
968.00,50.451
969.00,50.480
970.00,50.442
971.00,50.463
972.00,50.420
973.00,50.472
974.00,50.494
975.00,50.470
976.00,50.488
977.00,50.467
978.00,50.512
979.00,50.482
980.00,50.489
981.00,50.480
982.00,50.456
983.00,50.481
984.00,50.458
985.00,50.480
986.00,50.453
987.00,50.486
988.00,50.444
989.00,50.440
990.00,50.442
991.00,50.438
992.00,50.408
993.00,50.357
994.00,50.402
995.00,50.362
996.00,50.371
997.00,50.349
998.00,50.338
999.00,50.349
1000.00,50.295
1001.00,50.300
1002.00,50.300
1003.00,50.278
1004.00,50.262
1005.00,50.229
1006.00,50.279
1007.00,50.232
1008.00,50.214
1009.00,50.243
1010.00,50.202
1011.00,50.183
1012.00,50.169
1013.00,50.171
1014.00,50.128
1015.00,50.150
1016.00,50.112
1017.00,50.103
1018.00,50.104
1019.00,50.087
1020.00,50.075
1021.00,50.055
1022.00,50.054
1023.00,50.013
1024.00,50.011
1025.00,49.978
1026.00,49.991
1027.00,49.962
1028.00,49.964
1029.00,49.955
1030.00,49.902
1031.00,49.920
1032.00,49.886
1033.00,49.882
1034.00,49.865
1035.00,49.836
1036.00,49.812
1037.00,49.806
1038.00,49.788
1039.00,49.743
1040.00,49.726
1041.00,49.685
1042.00,49.712
1043.00,49.690
1044.00,49.721
1045.00,49.715
1046.00,49.711
1047.00,49.724
1048.00,49.734
1049.00,49.737
1050.00,49.733
1051.00,49.781
1052.00,49.770
1053.00,49.756
1054.00,49.741
1055.00,49.806
1056.00,49.805
1057.00,49.800
1058.00,49.781
1059.00,49.785
1060.00,49.816
1061.00,49.790
1062.00,49.790
1063.00,49.790
1064.00,49.795
1065.00,49.774
1066.00,49.751
1067.00,49.761
1068.00,49.749
1069.00,49.714
1070.00,49.732
1071.00,49.707
1072.00,49.736
1073.00,49.719
1074.00,49.693
1075.00,49.699
1076.00,49.711
1077.00,49.685
1078.00,49.681
1079.00,49.677
1080.00,49.669
1081.00,49.647
1082.00,49.648
1083.00,49.643
1084.00,49.646
1085.00,49.649
1086.00,49.642
1087.00,49.643
1088.00,49.627
1089.00,49.619
1090.00,49.600
1091.00,49.598
1092.00,49.589
1093.00,49.585
1094.00,49.570
1095.00,49.569
1096.00,49.548
1097.00,49.556
1098.00,49.547
1099.00,49.519
1100.00,49.519
1101.00,49.515
1102.00,49.493
1103.00,49.503
1104.00,49.482
1105.00,49.464
1106.00,49.456
1107.00,49.444
1108.00,49.451
1109.00,49.459
1110.00,49.451
1111.00,49.422
1112.00,49.421
1113.00,49.408
1114.00,49.405
1115.00,49.430
1116.00,49.426
1117.00,49.386
1118.00,49.384
1119.00,49.397
1120.00,49.382
1121.00,49.381
1122.00,49.362
1123.00,49.349
1124.00,49.346
1125.00,49.356
1126.00,49.334
1127.00,49.335
1128.00,49.329
1129.00,49.299
1130.00,49.297
1131.00,49.325
1132.00,49.294
1133.00,49.306
1134.00,49.286
1135.00,49.281
1136.00,49.274
1137.00,49.278
1138.00,49.294
1139.00,49.305
1140.00,49.279
1141.00,49.282
1142.00,49.265
1143.00,49.270
1144.00,49.242
1145.00,49.246
1146.00,49.237
1147.00,49.252
1148.00,49.235
1149.00,49.251
1150.00,49.246
1151.00,49.236
1152.00,49.241
1153.00,49.232
1154.00,49.217
1155.00,49.236
1156.00,49.218
1157.00,49.225
1158.00,49.215
1159.00,49.229
1160.00,49.211
1161.00,49.233
1162.00,49.235
1163.00,49.231
1164.00,49.236
1165.00,49.228
1166.00,49.236
1167.00,49.208
1168.00,49.219
1169.00,49.211
1170.00,49.207
1171.00,49.193
1172.00,49.185
1173.00,49.167
1174.00,49.202
1175.00,49.171
1176.00,49.175
1177.00,49.186
1178.00,49.163
1179.00,49.182
1180.00,49.172
1181.00,49.188
1182.00,49.174
1183.00,49.186
1184.00,49.175
1185.00,49.200
1186.00,49.191
1187.00,49.180
1188.00,49.191
1189.00,49.213
1190.00,49.194
1191.00,49.203
1192.00,49.240
1193.00,49.192
1194.00,49.193
1195.00,49.175
1196.00,49.212
1197.00,49.201
1198.00,49.183
1199.00,49.193
1200.00,49.199
1201.00,49.204
1202.00,49.183
1203.00,49.185
1204.00,49.169
1205.00,49.190
1206.00,49.175
1207.00,49.192
1208.00,49.180
1209.00,49.178
1210.00,49.186
1211.00,49.183
1212.00,49.210
1213.00,49.188
1214.00,49.206
1215.00,49.187
1216.00,49.200
1217.00,49.196
1218.00,49.204
1219.00,49.214
1220.00,49.187
1221.00,49.221
1222.00,49.212
1223.00,49.230
1224.00,49.212
1225.00,49.200
1226.00,49.200
1227.00,49.202
1228.00,49.214
1229.00,49.215
1230.00,49.252
1231.00,49.242
1232.00,49.284
1233.00,49.272
1234.00,49.255
1235.00,49.264
1236.00,49.281
1237.00,49.275
1238.00,49.297
1239.00,49.271
1240.00,49.262
1241.00,49.277
1242.00,49.271
1243.00,49.290
1244.00,49.266
1245.00,49.295
1246.00,49.325
1247.00,49.295
1248.00,49.285
1249.00,49.307
1250.00,49.305
1251.00,49.314
1252.00,49.339
1253.00,49.320
1254.00,49.321
1255.00,49.303
1256.00,49.302
1257.00,49.303
1258.00,49.336
1259.00,49.318
1260.00,49.353
1261.00,49.343
1262.00,49.360
1263.00,49.348
1264.00,49.355
1265.00,49.374
1266.00,49.362
1267.00,49.371
1268.00,49.369
1269.00,49.384
1270.00,49.406
1271.00,49.410
1272.00,49.423
1273.00,49.447
1274.00,49.454
1275.00,49.444
1276.00,49.446
1277.00,49.438
1278.00,49.453
1279.00,49.462
1280.00,49.434
1281.00,49.457
1282.00,49.465
1283.00,49.515
1284.00,49.466
1285.00,49.468
1286.00,49.477
1287.00,49.488
1288.00,49.494
1289.00,49.489
1290.00,49.520
1291.00,49.508
1292.00,49.512
1293.00,49.521
1294.00,49.537
1295.00,49.554
1296.00,49.534
1297.00,49.546
1298.00,49.599
1299.00,49.564
1300.00,49.588
1301.00,49.579
1302.00,49.601
1303.00,49.600
1304.00,49.596
1305.00,49.614
1306.00,49.617
1307.00,49.614
1308.00,49.598
1309.00,49.617
1310.00,49.615
1311.00,49.645
1312.00,49.634
1313.00,49.656
1314.00,49.666
1315.00,49.676
1316.00,49.674
1317.00,49.707
1318.00,49.693
1319.00,49.695
1320.00,49.716
1321.00,49.888
1322.00,49.863
1323.00,49.865
1324.00,49.847
1325.00,49.840
1326.00,49.895
1327.00,49.851
1328.00,49.863
1329.00,49.853
1330.00,49.875
1331.00,49.868
1332.00,49.880
1333.00,49.883
1334.00,49.914
1335.00,49.922
1336.00,49.939
1337.00,49.974
1338.00,50.041
1339.00,50.071
1340.00,50.145
1341.00,50.208
1342.00,50.281
1343.00,50.314
1344.00,50.371
1345.00,50.439
1346.00,50.476
1347.00,50.485
1348.00,50.485
1349.00,50.526
1350.00,50.538
1351.00,50.565
1352.00,50.571
1353.00,50.555
1354.00,50.571
1355.00,50.541
1356.00,50.658
1357.00,50.605
1358.00,50.639
1359.00,50.633
1360.00,50.613
1361.00,50.693
1362.00,50.674
1363.00,50.582
1364.00,50.709
1365.00,50.661
1366.00,50.615
1367.00,50.663
1368.00,50.620
1369.00,50.626
1370.00,50.645
1371.00,50.588
1372.00,50.623
1373.00,50.630
1374.00,50.653
1375.00,50.627
1376.00,50.619
1377.00,50.588
1378.00,50.635
1379.00,50.617
1380.00,50.648
1381.00,50.680
1382.00,50.705
1383.00,50.671
1384.00,50.641
1385.00,50.641
1386.00,50.651
1387.00,50.620
1388.00,50.638
1389.00,50.699
1390.00,50.532
1391.00,50.693
1392.00,50.625
1393.00,50.608
1394.00,50.634
1395.00,50.611
1396.00,50.625
1397.00,50.685
1398.00,50.679
1399.00,50.627
1400.00,50.687
1401.00,50.642
1402.00,50.722
1403.00,50.696
1404.00,50.710
1405.00,50.698
1406.00,50.763
1407.00,50.703
1408.00,50.698
1409.00,50.718
1410.00,50.762
1411.00,50.721
1412.00,50.827
1413.00,50.715
1414.00,50.714
1415.00,50.764
1416.00,50.817
1417.00,50.846
1418.00,50.790
1419.00,50.822
1420.00,50.858
1421.00,50.897
1422.00,50.880
1423.00,50.908
1424.00,50.907
1425.00,50.939
1426.00,50.939
1427.00,50.952
1428.00,50.962
1429.00,50.988
1430.00,50.999
1431.00,51.017
1432.00,51.015
1433.00,51.042
1434.00,51.033
1435.00,51.093
1436.00,51.092
1437.00,51.081
1438.00,51.097
1439.00,51.139
1440.00,51.166
1441.00,51.173
1442.00,51.187
1443.00,51.225
1444.00,51.313
1445.00,51.264
1446.00,51.288
1447.00,51.318
1448.00,51.358
1449.00,51.349
1450.00,51.375
1451.00,51.361
1452.00,51.397
1453.00,51.385
1454.00,51.406
1455.00,51.439
1456.00,51.462
1457.00,51.458
1458.00,51.475
1459.00,51.507
1460.00,51.528
1461.00,51.528
1462.00,51.560
1463.00,51.561
1464.00,51.575
1465.00,51.571
1466.00,51.597
1467.00,51.614
1468.00,51.681
1469.00,51.678
1470.00,51.694
1471.00,51.705
1472.00,51.722
1473.00,51.743
1474.00,51.772
1475.00,51.781
1476.00,51.800
1477.00,51.783
1478.00,51.805
1479.00,51.821
1480.00,51.833
1481.00,51.837
1482.00,51.872
1483.00,51.891
1484.00,51.900
1485.00,51.902
1486.00,51.911
1487.00,51.940
1488.00,51.969
1489.00,51.961
1490.00,51.979
1491.00,51.985
1492.00,52.017
1493.00,51.985
1494.00,52.040
1495.00,52.013
1496.00,52.052
1497.00,52.048
1498.00,52.065
1499.00,52.091
1500.00,52.100
1501.00, 
1502.00, 
1503.00, 
1504.00, 
1505.00, 
1506.00, 
1507.00, 
1508.00, 
1509.00, 
1510.00, 
1511.00, 
1512.00, 
1513.00, 
1514.00, 
1515.00, 
1516.00, 
1517.00, 
1518.00, 
1519.00, 
1520.00, 
1521.00, 
1522.00, 
1523.00, 
1524.00, 
1525.00, 
1526.00, 
1527.00, 
1528.00, 
1529.00, 
1530.00, 
1531.00, 
1532.00, 
1533.00, 
1534.00, 
1535.00, 
1536.00, 
1537.00, 
1538.00, 
1539.00, 
1540.00, 
1541.00, 
1542.00, 
1543.00, 
1544.00, 
1545.00, 
1546.00, 
1547.00, 
1548.00, 
1549.00, 
1550.00, 
1551.00, 
1552.00, 
1553.00, 
1554.00, 
1555.00, 
1556.00, 
1557.00, 
1558.00, 
1559.00, 
1560.00, 
1561.00, 
1562.00, 
1563.00, 
1564.00, 
1565.00, 
1566.00, 
1567.00, 
1568.00, 
1569.00, 
1570.00, 
1571.00, 
1572.00, 
1573.00, 
1574.00, 
1575.00, 
1576.00, 
1577.00, 
1578.00, 
1579.00, 
1580.00, 
1581.00, 
1582.00, 
1583.00, 
1584.00, 
1585.00, 
1586.00, 
1587.00, 
1588.00, 
1589.00, 
1590.00, 
1591.00, 
1592.00, 
1593.00, 
1594.00, 
1595.00, 
1596.00, 
1597.00, 
1598.00, 
1599.00, 
1600.00, 
1601.00, 
1602.00, 
1603.00, 
1604.00, 
1605.00, 
1606.00, 
1607.00, 
1608.00, 
1609.00, 
1610.00, 
1611.00, 
1612.00, 
1613.00, 
1614.00, 
1615.00, 
1616.00, 
1617.00, 
1618.00, 
1619.00, 
1620.00, 
1621.00, 
1622.00, 
1623.00, 
1624.00, 
1625.00, 
1626.00, 
1627.00, 
1628.00, 
1629.00, 
1630.00, 
1631.00, 
1632.00, 
1633.00, 
1634.00, 
1635.00, 
1636.00, 
1637.00, 
1638.00, 
1639.00, 
1640.00, 
1641.00, 
1642.00, 
1643.00, 
1644.00, 
1645.00, 
1646.00, 
1647.00, 
1648.00, 
1649.00, 
1650.00, 
1651.00, 
1652.00, 
1653.00, 
1654.00, 
1655.00, 
1656.00, 
1657.00, 
1658.00, 
1659.00, 
1660.00, 
1661.00, 
1662.00, 
1663.00, 
1664.00, 
1665.00, 
1666.00, 
1667.00, 
1668.00, 
1669.00, 
1670.00, 
1671.00, 
1672.00, 
1673.00, 
1674.00, 
1675.00, 
1676.00, 
1677.00, 
1678.00, 
1679.00, 
1680.00, 
1681.00, 
1682.00, 
1683.00, 
1684.00, 
1685.00, 
1686.00, 
1687.00, 
1688.00, 
1689.00, 
1690.00, 
1691.00, 
1692.00, 
1693.00, 
1694.00, 
1695.00, 
1696.00, 
1697.00, 
1698.00, 
1699.00, 
1700.00, 
1701.00, 
1702.00, 
1703.00, 
1704.00, 
1705.00, 
1706.00, 
1707.00, 
1708.00, 
1709.00, 
1710.00, 
1711.00, 
1712.00, 
1713.00, 
1714.00, 
1715.00, 
1716.00, 
1717.00, 
1718.00, 
1719.00, 
1720.00, 
1721.00, 
1722.00, 
1723.00, 
1724.00, 
1725.00, 
1726.00, 
1727.00, 
1728.00, 
1729.00, 
1730.00, 
1731.00, 
1732.00, 
1733.00, 
1734.00, 
1735.00, 
1736.00, 
1737.00, 
1738.00, 
1739.00, 
1740.00, 
1741.00, 
1742.00, 
1743.00, 
1744.00, 
1745.00, 
1746.00, 
1747.00, 
1748.00, 
1749.00, 
1750.00, 
1751.00, 
1752.00, 
1753.00, 
1754.00, 
1755.00, 
1756.00, 
1757.00, 
1758.00, 
1759.00, 
1760.00, 
1761.00, 
1762.00, 
1763.00, 
1764.00, 
1765.00, 
1766.00, 
1767.00, 
1768.00, 
1769.00, 
1770.00, 
1771.00, 
1772.00, 
1773.00, 
1774.00, 
1775.00, 
1776.00, 
1777.00, 
1778.00, 
1779.00, 
1780.00, 
1781.00, 
1782.00, 
1783.00, 
1784.00, 
1785.00, 
1786.00, 
1787.00, 
1788.00, 
1789.00, 
1790.00, 
1791.00, 
1792.00, 
1793.00, 
1794.00, 
1795.00, 
1796.00, 
1797.00, 
1798.00, 
1799.00, 
1800.00, 
1801.00, 
1802.00, 
1803.00, 
1804.00, 
1805.00, 
1806.00, 
1807.00, 
1808.00, 
1809.00, 
1810.00, 
1811.00, 
1812.00, 
1813.00, 
1814.00, 
1815.00, 
1816.00, 
1817.00, 
1818.00, 
1819.00, 
1820.00, 
1821.00, 
1822.00, 
1823.00, 
1824.00, 
1825.00, 
1826.00, 
1827.00, 
1828.00, 
1829.00, 
1830.00, 
1831.00, 
1832.00, 
1833.00, 
1834.00, 
1835.00, 
1836.00, 
1837.00, 
1838.00, 
1839.00, 
1840.00, 
1841.00, 
1842.00, 
1843.00, 
1844.00, 
1845.00, 
1846.00, 
1847.00, 
1848.00, 
1849.00, 
1850.00, 
1851.00, 
1852.00, 
1853.00, 
1854.00, 
1855.00, 
1856.00, 
1857.00, 
1858.00, 
1859.00, 
1860.00, 
1861.00, 
1862.00, 
1863.00, 
1864.00, 
1865.00, 
1866.00, 
1867.00, 
1868.00, 
1869.00, 
1870.00, 
1871.00, 
1872.00, 
1873.00, 
1874.00, 
1875.00, 
1876.00, 
1877.00, 
1878.00, 
1879.00, 
1880.00, 
1881.00, 
1882.00, 
1883.00, 
1884.00, 
1885.00, 
1886.00, 
1887.00, 
1888.00, 
1889.00, 
1890.00, 
1891.00, 
1892.00, 
1893.00, 
1894.00, 
1895.00, 
1896.00, 
1897.00, 
1898.00, 
1899.00, 
1900.00, 
1901.00, 
1902.00, 
1903.00, 
1904.00, 
1905.00, 
1906.00, 
1907.00, 
1908.00, 
1909.00, 
1910.00, 
1911.00, 
1912.00, 
1913.00, 
1914.00, 
1915.00, 
1916.00, 
1917.00, 
1918.00, 
1919.00, 
1920.00, 
1921.00, 
1922.00, 
1923.00, 
1924.00, 
1925.00, 
1926.00, 
1927.00, 
1928.00, 
1929.00, 
1930.00, 
1931.00, 
1932.00, 
1933.00, 
1934.00, 
1935.00, 
1936.00, 
1937.00, 
1938.00, 
1939.00, 
1940.00, 
1941.00, 
1942.00, 
1943.00, 
1944.00, 
1945.00, 
1946.00, 
1947.00, 
1948.00, 
1949.00, 
1950.00, 
1951.00, 
1952.00, 
1953.00, 
1954.00, 
1955.00, 
1956.00, 
1957.00, 
1958.00, 
1959.00, 
1960.00, 
1961.00, 
1962.00, 
1963.00, 
1964.00, 
1965.00, 
1966.00, 
1967.00, 
1968.00, 
1969.00, 
1970.00, 
1971.00, 
1972.00, 
1973.00, 
1974.00, 
1975.00, 
1976.00, 
1977.00, 
1978.00, 
1979.00, 
1980.00, 
1981.00, 
1982.00, 
1983.00, 
1984.00, 
1985.00, 
1986.00, 
1987.00, 
1988.00, 
1989.00, 
1990.00, 
1991.00, 
1992.00, 
1993.00, 
1994.00, 
1995.00, 
1996.00, 
1997.00, 
1998.00, 
1999.00, 
2000.00, 
2001.00, 
2002.00, 
2003.00, 
2004.00, 
2005.00, 
2006.00, 
2007.00, 
2008.00, 
2009.00, 
2010.00, 
2011.00, 
2012.00, 
2013.00, 
2014.00, 
2015.00, 
2016.00, 
2017.00, 
2018.00, 
2019.00, 
2020.00, 
2021.00, 
2022.00, 
2023.00, 
2024.00, 
2025.00, 
2026.00, 
2027.00, 
2028.00, 
2029.00, 
2030.00, 
2031.00, 
2032.00, 
2033.00, 
2034.00, 
2035.00, 
2036.00, 
2037.00, 
2038.00, 
2039.00, 
2040.00, 
2041.00, 
2042.00, 
2043.00, 
2044.00, 
2045.00, 
2046.00, 
2047.00, 
2048.00, 
2049.00, 
2050.00, 
2051.00, 
2052.00, 
2053.00, 
2054.00, 
2055.00, 
2056.00, 
2057.00, 
2058.00, 
2059.00, 
2060.00, 
2061.00, 
2062.00, 
2063.00, 
2064.00, 
2065.00, 
2066.00, 
2067.00, 
2068.00, 
2069.00, 
2070.00, 
2071.00, 
2072.00, 
2073.00, 
2074.00, 
2075.00, 
2076.00, 
2077.00, 
2078.00, 
2079.00, 
2080.00, 
2081.00, 
2082.00, 
2083.00, 
2084.00, 
2085.00, 
2086.00, 
2087.00, 
2088.00, 
2089.00, 
2090.00, 
2091.00, 
2092.00, 
2093.00, 
2094.00, 
2095.00, 
2096.00, 
2097.00, 
2098.00, 
2099.00, 
2100.00, 
2101.00, 
2102.00, 
2103.00, 
2104.00, 
2105.00, 
2106.00, 
2107.00, 
2108.00, 
2109.00, 
2110.00, 
2111.00, 
2112.00, 
2113.00, 
2114.00, 
2115.00, 
2116.00, 
2117.00, 
2118.00, 
2119.00, 
2120.00, 
2121.00, 
2122.00, 
2123.00, 
2124.00, 
2125.00, 
2126.00, 
2127.00, 
2128.00, 
2129.00, 
2130.00, 
2131.00, 
2132.00, 
2133.00, 
2134.00, 
2135.00, 
2136.00, 
2137.00, 
2138.00, 
2139.00, 
2140.00, 
2141.00, 
2142.00, 
2143.00, 
2144.00, 
2145.00, 
2146.00, 
2147.00, 
2148.00, 
2149.00, 
2150.00, 
2151.00, 
2152.00, 
2153.00, 
2154.00, 
2155.00, 
2156.00, 
2157.00, 
2158.00, 
2159.00, 
2160.00, 
2161.00, 
2162.00, 
2163.00, 
2164.00, 
2165.00, 
2166.00, 
2167.00, 
2168.00, 
2169.00, 
2170.00, 
2171.00, 
2172.00, 
2173.00, 
2174.00, 
2175.00, 
2176.00, 
2177.00, 
2178.00, 
2179.00, 
2180.00, 
2181.00, 
2182.00, 
2183.00, 
2184.00, 
2185.00, 
2186.00, 
2187.00, 
2188.00, 
2189.00, 
2190.00, 
2191.00, 
2192.00, 
2193.00, 
2194.00, 
2195.00, 
2196.00, 
2197.00, 
2198.00, 
2199.00, 
2200.00, 
2201.00, 
2202.00, 
2203.00, 
2204.00, 
2205.00, 
2206.00, 
2207.00, 
2208.00, 
2209.00, 
2210.00, 
2211.00, 
2212.00, 
2213.00, 
2214.00, 
2215.00, 
2216.00, 
2217.00, 
2218.00, 
2219.00, 
2220.00, 
2221.00, 
2222.00, 
2223.00, 
2224.00, 
2225.00, 
2226.00, 
2227.00, 
2228.00, 
2229.00, 
2230.00, 
2231.00, 
2232.00, 
2233.00, 
2234.00, 
2235.00, 
2236.00, 
2237.00, 
2238.00, 
2239.00, 
2240.00, 
2241.00, 
2242.00, 
2243.00, 
2244.00, 
2245.00, 
2246.00, 
2247.00, 
2248.00, 
2249.00, 
2250.00, 
2251.00, 
2252.00, 
2253.00, 
2254.00, 
2255.00, 
2256.00, 
2257.00, 
2258.00, 
2259.00, 
2260.00, 
2261.00, 
2262.00, 
2263.00, 
2264.00, 
2265.00, 
2266.00, 
2267.00, 
2268.00, 
2269.00, 
2270.00, 
2271.00, 
2272.00, 
2273.00, 
2274.00, 
2275.00, 
2276.00, 
2277.00, 
2278.00, 
2279.00, 
2280.00, 
2281.00, 
2282.00, 
2283.00, 
2284.00, 
2285.00, 
2286.00, 
2287.00, 
2288.00, 
2289.00, 
2290.00, 
2291.00, 
2292.00, 
2293.00, 
2294.00, 
2295.00, 
2296.00, 
2297.00, 
2298.00, 
2299.00, 
2300.00, 
2301.00, 
2302.00, 
2303.00, 
2304.00, 
2305.00, 
2306.00, 
2307.00, 
2308.00, 
2309.00, 
2310.00, 
2311.00, 
2312.00, 
2313.00, 
2314.00, 
2315.00, 
2316.00, 
2317.00, 
2318.00, 
2319.00, 
2320.00, 
2321.00, 
2322.00, 
2323.00, 
2324.00, 
2325.00, 
2326.00, 
2327.00, 
2328.00, 
2329.00, 
2330.00, 
2331.00, 
2332.00, 
2333.00, 
2334.00, 
2335.00, 
2336.00, 
2337.00, 
2338.00, 
2339.00, 
2340.00, 
2341.00, 
2342.00, 
2343.00, 
2344.00, 
2345.00, 
2346.00, 
2347.00, 
2348.00, 
2349.00, 
2350.00, 
2351.00, 
2352.00, 
2353.00, 
2354.00, 
2355.00, 
2356.00, 
2357.00, 
2358.00, 
2359.00, 
2360.00, 
2361.00, 
2362.00, 
2363.00, 
2364.00, 
2365.00, 
2366.00, 
2367.00, 
2368.00, 
2369.00, 
2370.00, 
2371.00, 
2372.00, 
2373.00, 
2374.00, 
2375.00, 
2376.00, 
2377.00, 
2378.00, 
2379.00, 
2380.00, 
2381.00, 
2382.00, 
2383.00, 
2384.00, 
2385.00, 
2386.00, 
2387.00, 
2388.00, 
2389.00, 
2390.00, 
2391.00, 
2392.00, 
2393.00, 
2394.00, 
2395.00, 
2396.00, 
2397.00, 
2398.00, 
2399.00, 
2400.00, 
2401.00, 
2402.00, 
2403.00, 
2404.00, 
2405.00, 
2406.00, 
2407.00, 
2408.00, 
2409.00, 
2410.00, 
2411.00, 
2412.00, 
2413.00, 
2414.00, 
2415.00, 
2416.00, 
2417.00, 
2418.00, 
2419.00, 
2420.00, 
2421.00, 
2422.00, 
2423.00, 
2424.00, 
2425.00, 
2426.00, 
2427.00, 
2428.00, 
2429.00, 
2430.00, 
2431.00, 
2432.00, 
2433.00, 
2434.00, 
2435.00, 
2436.00, 
2437.00, 
2438.00, 
2439.00, 
2440.00, 
2441.00, 
2442.00, 
2443.00, 
2444.00, 
2445.00, 
2446.00, 
2447.00, 
2448.00, 
2449.00, 
2450.00, 
2451.00, 
2452.00, 
2453.00, 
2454.00, 
2455.00, 
2456.00, 
2457.00, 
2458.00, 
2459.00, 
2460.00, 
2461.00, 
2462.00, 
2463.00, 
2464.00, 
2465.00, 
2466.00, 
2467.00, 
2468.00, 
2469.00, 
2470.00, 
2471.00, 
2472.00, 
2473.00, 
2474.00, 
2475.00, 
2476.00, 
2477.00, 
2478.00, 
2479.00, 
2480.00, 
2481.00, 
2482.00, 
2483.00, 
2484.00, 
2485.00, 
2486.00, 
2487.00, 
2488.00, 
2489.00, 
2490.00, 
2491.00, 
2492.00, 
2493.00, 
2494.00, 
2495.00, 
2496.00, 
2497.00, 
2498.00, 
2499.00, 
2500.00, 
2501.00, 
2502.00, 
2503.00, 
2504.00, 
2505.00, 
2506.00, 
2507.00, 
2508.00, 
2509.00, 
2510.00, 
2511.00, 
2512.00, 
2513.00, 
2514.00, 
2515.00, 
2516.00, 
2517.00, 
2518.00, 
2519.00, 
2520.00, 
2521.00, 
2522.00, 
2523.00, 
2524.00, 
2525.00, 
2526.00, 
2527.00, 
2528.00, 
2529.00, 
2530.00, 
2531.00, 
2532.00, 
2533.00, 
2534.00, 
2535.00, 
2536.00, 
2537.00, 
2538.00, 
2539.00, 
2540.00, 
2541.00, 
2542.00, 
2543.00, 
2544.00, 
2545.00, 
2546.00, 
2547.00, 
2548.00, 
2549.00, 
2550.00, 
2551.00, 
2552.00, 
2553.00, 
2554.00, 
2555.00, 
2556.00, 
2557.00, 
2558.00, 
2559.00, 
2560.00, 
2561.00, 
2562.00, 
2563.00, 
2564.00, 
2565.00, 
2566.00, 
2567.00, 
2568.00, 
2569.00, 
2570.00, 
2571.00, 
2572.00, 
2573.00, 
2574.00, 
2575.00, 
2576.00, 
2577.00, 
2578.00, 
2579.00, 
2580.00, 
2581.00, 
2582.00, 
2583.00, 
2584.00, 
2585.00, 
2586.00, 
2587.00, 
2588.00, 
2589.00, 
2590.00, 
2591.00, 
2592.00, 
2593.00, 
2594.00, 
2595.00, 
2596.00, 
2597.00, 
2598.00, 
2599.00, 
2600.00, 
