"1cP5 - RawData"
"Wavelength nm.","T%"
200.00,-0.001
201.00,0.005
202.00,0.005
203.00,0.000
204.00,0.001
205.00,0.003
206.00,0.000
207.00,0.001
208.00,-0.001
209.00,-0.000
210.00,0.002
211.00,0.001
212.00,0.003
213.00,0.001
214.00,-0.001
215.00,-0.002
216.00,0.001
217.00,-0.003
218.00,0.002
219.00,0.002
220.00,0.000
221.00,0.001
222.00,-0.001
223.00,0.001
224.00,0.001
225.00,0.001
226.00,-0.003
227.00,-0.001
228.00,-0.001
229.00,-0.000
230.00,0.001
231.00,0.001
232.00,0.001
233.00,0.003
234.00,0.001
235.00,-0.001
236.00,0.000
237.00,0.001
238.00,-0.001
239.00,-0.001
240.00,0.001
241.00,-0.001
242.00,0.000
243.00,0.000
244.00,0.001
245.00,0.000
246.00,-0.000
247.00,-0.002
248.00,-0.001
249.00,0.001
250.00,0.001
251.00,0.000
252.00,0.001
253.00,-0.002
254.00,0.000
255.00,-0.000
256.00,0.001
257.00,-0.001
258.00,-0.000
259.00,0.000
260.00,0.000
261.00,0.000
262.00,0.000
263.00,0.002
264.00,0.002
265.00,0.000
266.00,0.000
267.00,0.001
268.00,0.000
269.00,-0.001
270.00,-0.001
271.00,-0.001
272.00,-0.001
273.00,0.001
274.00,-0.001
275.00,0.000
276.00,0.002
277.00,0.001
278.00,0.001
279.00,-0.001
280.00,-0.001
281.00,0.000
282.00,0.001
283.00,0.001
284.00,0.000
285.00,0.001
286.00,-0.001
287.00,0.001
288.00,0.000
289.00,0.002
290.00,-0.001
291.00,0.003
292.00,0.001
293.00,-0.001
294.00,0.000
295.00,0.001
296.00,-0.000
297.00,0.001
298.00,0.001
299.00,-0.001
300.00,0.001
301.00,0.001
302.00,-0.000
303.00,0.000
304.00,0.000
305.00,0.001
306.00,0.001
307.00,0.004
308.00,0.003
309.00,0.007
310.00,0.010
311.00,0.012
312.00,0.023
313.00,0.037
314.00,0.059
315.00,0.082
316.00,0.114
317.00,0.161
318.00,0.216
319.00,0.291
320.00,0.388
321.00,0.508
322.00,0.632
323.00,0.807
324.00,0.993
325.00,1.181
326.00,1.399
327.00,1.653
328.00,1.925
329.00,2.226
330.00,2.552
331.00,2.868
332.00,3.216
333.00,3.590
334.00,3.928
335.00,4.324
336.00,4.697
337.00,5.082
338.00,5.456
339.00,5.799
340.00,6.190
341.00,6.540
342.00,6.871
343.00,7.201
344.00,7.552
345.00,7.851
346.00,8.108
347.00,8.352
348.00,8.627
349.00,8.874
350.00,9.066
351.00,9.288
352.00,9.481
353.00,9.642
354.00,9.814
355.00,9.973
356.00,10.098
357.00,10.219
358.00,10.319
359.00,10.467
360.00,10.557
361.00,10.602
362.00,10.678
363.00,10.755
364.00,10.791
365.00,10.797
366.00,10.831
367.00,10.847
368.00,10.855
369.00,10.840
370.00,10.843
371.00,10.805
372.00,10.770
373.00,10.776
374.00,10.730
375.00,10.638
376.00,10.588
377.00,10.535
378.00,10.448
379.00,10.373
380.00,10.342
381.00,10.299
382.00,10.275
383.00,10.260
384.00,10.253
385.00,10.259
386.00,10.249
387.00,10.247
388.00,10.271
389.00,10.253
390.00,10.243
391.00,10.241
392.00,10.236
393.00,10.214
394.00,10.225
395.00,10.211
396.00,10.155
397.00,10.185
398.00,10.134
399.00,10.138
400.00,10.109
401.00,10.075
402.00,10.085
403.00,10.088
404.00,10.061
405.00,10.027
406.00,9.994
407.00,9.971
408.00,9.955
409.00,9.926
410.00,9.900
411.00,9.888
412.00,9.862
413.00,9.855
414.00,9.840
415.00,9.822
416.00,9.851
417.00,9.829
418.00,9.861
419.00,9.904
420.00,9.902
421.00,9.870
422.00,9.868
423.00,9.907
424.00,9.928
425.00,9.943
426.00,9.945
427.00,10.003
428.00,10.028
429.00,10.049
430.00,10.082
431.00,10.130
432.00,10.137
433.00,10.182
434.00,10.220
435.00,10.275
436.00,10.318
437.00,10.374
438.00,10.420
439.00,10.458
440.00,10.519
441.00,10.580
442.00,10.637
443.00,10.691
444.00,10.778
445.00,10.834
446.00,10.931
447.00,10.982
448.00,11.069
449.00,11.158
450.00,11.236
451.00,11.306
452.00,11.381
453.00,11.496
454.00,11.577
455.00,11.663
456.00,11.766
457.00,11.866
458.00,11.956
459.00,12.082
460.00,12.184
461.00,12.301
462.00,12.386
463.00,12.504
464.00,12.616
465.00,12.725
466.00,12.820
467.00,12.945
468.00,13.017
469.00,13.135
470.00,13.233
471.00,13.343
472.00,13.450
473.00,13.573
474.00,13.683
475.00,13.782
476.00,13.923
477.00,14.064
478.00,14.175
479.00,14.347
480.00,14.452
481.00,14.570
482.00,14.704
483.00,14.869
484.00,15.040
485.00,15.166
486.00,15.306
487.00,15.457
488.00,15.535
489.00,15.741
490.00,15.834
491.00,16.013
492.00,16.170
493.00,16.388
494.00,16.500
495.00,16.575
496.00,16.711
497.00,16.823
498.00,16.947
499.00,17.125
500.00,17.269
501.00,17.372
502.00,17.511
503.00,17.667
504.00,17.723
505.00,17.871
506.00,18.019
507.00,18.154
508.00,18.256
509.00,18.449
510.00,18.566
511.00,18.614
512.00,18.839
513.00,19.015
514.00,19.079
515.00,19.192
516.00,19.398
517.00,19.411
518.00,19.633
519.00,19.699
520.00,19.822
521.00,19.952
522.00,20.053
523.00,20.119
524.00,20.257
525.00,20.403
526.00,20.490
527.00,20.597
528.00,20.707
529.00,20.892
530.00,21.043
531.00,21.111
532.00,21.206
533.00,21.323
534.00,21.452
535.00,21.539
536.00,21.624
537.00,21.748
538.00,21.814
539.00,21.875
540.00,21.974
541.00,22.044
542.00,22.101
543.00,22.180
544.00,22.295
545.00,22.384
546.00,22.421
547.00,22.540
548.00,22.664
549.00,22.720
550.00,22.807
551.00,22.899
552.00,22.991
553.00,23.038
554.00,23.085
555.00,23.196
556.00,23.254
557.00,23.339
558.00,23.401
559.00,23.487
560.00,23.553
561.00,23.629
562.00,23.710
563.00,23.758
564.00,23.826
565.00,23.903
566.00,23.919
567.00,23.952
568.00,24.043
569.00,24.125
570.00,24.123
571.00,24.209
572.00,24.252
573.00,24.173
574.00,24.244
575.00,24.381
576.00,24.321
577.00,24.445
578.00,24.552
579.00,24.632
580.00,24.694
581.00,24.806
582.00,24.878
583.00,24.884
584.00,24.988
585.00,25.084
586.00,25.126
587.00,25.179
588.00,25.207
589.00,25.183
590.00,25.301
591.00,25.368
592.00,25.359
593.00,25.420
594.00,25.503
595.00,25.576
596.00,25.623
597.00,25.721
598.00,25.750
599.00,25.828
600.00,25.899
601.00,25.963
602.00,25.979
603.00,26.021
604.00,25.999
605.00,26.141
606.00,26.236
607.00,26.267
608.00,26.340
609.00,26.451
610.00,26.549
611.00,26.464
612.00,26.519
613.00,26.639
614.00,26.673
615.00,26.736
616.00,26.887
617.00,26.876
618.00,26.910
619.00,27.001
620.00,27.053
621.00,27.176
622.00,27.263
623.00,27.336
624.00,27.443
625.00,27.504
626.00,27.608
627.00,27.648
628.00,27.679
629.00,27.719
630.00,27.892
631.00,28.000
632.00,28.119
633.00,28.214
634.00,28.313
635.00,28.458
636.00,28.526
637.00,28.604
638.00,28.706
639.00,28.826
640.00,28.891
641.00,28.985
642.00,29.119
643.00,29.205
644.00,29.307
645.00,29.396
646.00,29.605
647.00,29.706
648.00,29.778
649.00,29.879
650.00,29.924
651.00,30.143
652.00,30.274
653.00,30.314
654.00,30.442
655.00,30.664
656.00,30.920
657.00,30.949
658.00,31.147
659.00,30.942
660.00,31.285
661.00,31.353
662.00,31.552
663.00,31.671
664.00,31.883
665.00,32.143
666.00,31.992
667.00,32.283
668.00,32.360
669.00,32.591
670.00,32.894
671.00,32.835
672.00,33.044
673.00,33.221
674.00,33.323
675.00,33.448
676.00,33.705
677.00,33.905
678.00,33.760
679.00,34.056
680.00,34.276
681.00,34.525
682.00,34.540
683.00,34.685
684.00,34.876
685.00,34.960
686.00,35.024
687.00,35.242
688.00,35.366
689.00,35.491
690.00,35.819
691.00,36.104
692.00,35.973
693.00,36.111
694.00,36.266
695.00,36.511
696.00,36.684
697.00,36.764
698.00,36.889
699.00,37.151
700.00,37.304
701.00,37.372
702.00,37.593
703.00,37.840
704.00,37.971
705.00,38.003
706.00,38.103
707.00,38.265
708.00,38.249
709.00,38.697
710.00,39.131
711.00,38.829
712.00,38.960
713.00,39.224
714.00,39.323
715.00,39.473
716.00,39.484
717.00,39.731
718.00,39.980
719.00,39.955
720.00,40.109
721.00,44.306
722.00,44.326
723.00,44.466
724.00,44.527
725.00,44.661
726.00,44.750
727.00,44.837
728.00,44.964
729.00,45.033
730.00,45.160
731.00,45.204
732.00,45.336
733.00,45.452
734.00,45.636
735.00,45.686
736.00,45.712
737.00,45.868
738.00,45.979
739.00,46.068
740.00,46.176
741.00,46.226
742.00,46.399
743.00,46.365
744.00,46.444
745.00,46.506
746.00,46.661
747.00,46.699
748.00,46.747
749.00,46.857
750.00,46.852
751.00,46.995
752.00,47.022
753.00,47.040
754.00,47.115
755.00,47.211
756.00,47.291
757.00,47.279
758.00,47.444
759.00,47.490
760.00,47.596
761.00,47.600
762.00,47.645
763.00,47.738
764.00,47.745
765.00,47.875
766.00,47.886
767.00,47.931
768.00,48.043
769.00,48.058
770.00,48.250
771.00,48.198
772.00,48.218
773.00,48.264
774.00,48.329
775.00,48.390
776.00,48.377
777.00,48.560
778.00,48.535
779.00,48.736
780.00,48.620
781.00,48.656
782.00,48.684
783.00,48.688
784.00,48.806
785.00,48.661
786.00,48.864
787.00,48.844
788.00,48.864
789.00,48.914
790.00,48.890
791.00,49.052
792.00,48.955
793.00,49.005
794.00,49.018
795.00,48.992
796.00,49.104
797.00,48.988
798.00,49.160
799.00,48.988
800.00,49.057
801.00,49.097
802.00,49.168
803.00,49.113
804.00,49.120
805.00,49.139
806.00,49.143
807.00,49.217
808.00,49.197
809.00,49.159
810.00,49.133
811.00,49.228
812.00,49.311
813.00,49.200
814.00,49.344
815.00,49.290
816.00,49.216
817.00,49.250
818.00,49.231
819.00,49.387
820.00,49.326
821.00,49.191
822.00,49.265
823.00,49.321
824.00,49.396
825.00,49.371
826.00,49.295
827.00,49.357
828.00,49.357
829.00,49.261
830.00,49.400
831.00,51.772
832.00,51.761
833.00,51.708
834.00,51.760
835.00,51.774
836.00,51.760
837.00,51.787
838.00,51.755
839.00,51.758
840.00,51.694
841.00,51.811
842.00,51.722
843.00,51.805
844.00,51.757
845.00,51.728
846.00,51.738
847.00,51.706
848.00,51.806
849.00,51.712
850.00,51.696
851.00,51.585
852.00,51.708
853.00,51.650
854.00,51.647
855.00,51.623
856.00,51.591
857.00,51.629
858.00,51.594
859.00,51.558
860.00,51.594
861.00,51.619
862.00,51.496
863.00,51.544
864.00,51.557
865.00,51.571
866.00,51.538
867.00,51.473
868.00,51.734
869.00,51.542
870.00,51.547
871.00,51.538
872.00,51.576
873.00,51.551
874.00,51.578
875.00,51.529
876.00,51.575
877.00,51.543
878.00,51.536
879.00,51.514
880.00,51.503
881.00,51.483
882.00,51.554
883.00,51.504
884.00,51.463
885.00,51.481
886.00,51.481
887.00,51.453
888.00,51.432
889.00,51.423
890.00,51.440
891.00,51.390
892.00,51.385
893.00,51.371
894.00,51.399
895.00,51.333
896.00,51.325
897.00,51.434
898.00,51.298
899.00,51.315
900.00,51.273
901.00,51.263
902.00,51.302
903.00,51.233
904.00,51.201
905.00,51.351
906.00,51.243
907.00,51.223
908.00,51.167
909.00,51.187
910.00,51.150
911.00,51.152
912.00,51.140
913.00,51.115
914.00,51.125
915.00,51.040
916.00,51.112
917.00,51.082
918.00,51.065
919.00,51.022
920.00,50.983
921.00,51.008
922.00,51.026
923.00,50.977
924.00,50.936
925.00,50.973
926.00,50.943
927.00,50.929
928.00,50.889
929.00,50.886
930.00,50.829
931.00,50.858
932.00,50.808
933.00,50.834
934.00,50.820
935.00,50.807
936.00,50.790
937.00,50.750
938.00,50.765
939.00,50.760
940.00,50.717
941.00,50.710
942.00,50.687
943.00,50.652
944.00,50.647
945.00,50.648
946.00,50.646
947.00,50.602
948.00,50.576
949.00,50.570
950.00,50.582
951.00,50.540
952.00,50.546
953.00,50.501
954.00,50.491
955.00,50.464
956.00,50.443
957.00,50.405
958.00,50.436
959.00,50.384
960.00,50.397
961.00,50.379
962.00,50.378
963.00,50.340
964.00,50.334
965.00,50.329
966.00,50.327
967.00,50.311
968.00,50.288
969.00,50.323
970.00,50.284
971.00,50.293
972.00,50.264
973.00,50.297
974.00,50.311
975.00,50.280
976.00,50.290
977.00,50.354
978.00,50.347
979.00,50.306
980.00,50.316
981.00,50.298
982.00,50.279
983.00,50.293
984.00,50.274
985.00,50.288
986.00,50.272
987.00,50.305
988.00,50.264
989.00,50.277
990.00,50.260
991.00,50.227
992.00,50.232
993.00,50.205
994.00,50.211
995.00,50.179
996.00,50.199
997.00,50.181
998.00,50.172
999.00,50.199
1000.00,50.134
1001.00,50.142
1002.00,50.135
1003.00,50.131
1004.00,50.109
1005.00,50.073
1006.00,50.110
1007.00,50.072
1008.00,50.067
1009.00,50.051
1010.00,50.060
1011.00,50.035
1012.00,50.020
1013.00,50.031
1014.00,49.984
1015.00,49.990
1016.00,49.955
1017.00,49.950
1018.00,49.947
1019.00,49.926
1020.00,49.913
1021.00,49.891
1022.00,49.882
1023.00,49.842
1024.00,49.850
1025.00,49.815
1026.00,49.833
1027.00,49.815
1028.00,49.792
1029.00,49.787
1030.00,49.775
1031.00,49.751
1032.00,49.706
1033.00,49.730
1034.00,49.685
1035.00,49.665
1036.00,49.627
1037.00,49.625
1038.00,49.616
1039.00,49.573
1040.00,49.576
1041.00,49.549
1042.00,49.545
1043.00,49.544
1044.00,49.570
1045.00,49.559
1046.00,49.560
1047.00,49.566
1048.00,49.574
1049.00,49.588
1050.00,49.588
1051.00,49.628
1052.00,49.605
1053.00,49.628
1054.00,49.636
1055.00,49.641
1056.00,49.650
1057.00,49.652
1058.00,49.622
1059.00,49.636
1060.00,49.665
1061.00,49.629
1062.00,49.620
1063.00,49.632
1064.00,49.640
1065.00,49.628
1066.00,49.601
1067.00,49.590
1068.00,49.609
1069.00,49.576
1070.00,49.563
1071.00,49.545
1072.00,49.561
1073.00,49.545
1074.00,49.531
1075.00,49.515
1076.00,49.544
1077.00,49.510
1078.00,49.501
1079.00,49.513
1080.00,49.512
1081.00,49.486
1082.00,49.494
1083.00,49.472
1084.00,49.473
1085.00,49.476
1086.00,49.453
1087.00,49.471
1088.00,49.456
1089.00,49.446
1090.00,49.452
1091.00,49.449
1092.00,49.429
1093.00,49.424
1094.00,49.397
1095.00,49.389
1096.00,49.365
1097.00,49.362
1098.00,49.365
1099.00,49.345
1100.00,49.335
1101.00,49.349
1102.00,49.330
1103.00,49.348
1104.00,49.340
1105.00,49.321
1106.00,49.325
1107.00,49.328
1108.00,49.310
1109.00,49.313
1110.00,49.294
1111.00,49.283
1112.00,49.276
1113.00,49.254
1114.00,49.250
1115.00,49.259
1116.00,49.239
1117.00,49.224
1118.00,49.222
1119.00,49.224
1120.00,49.225
1121.00,49.225
1122.00,49.206
1123.00,49.191
1124.00,49.182
1125.00,49.194
1126.00,49.189
1127.00,49.173
1128.00,49.158
1129.00,49.152
1130.00,49.115
1131.00,49.125
1132.00,49.113
1133.00,49.115
1134.00,49.099
1135.00,49.082
1136.00,49.088
1137.00,49.099
1138.00,49.088
1139.00,49.101
1140.00,49.085
1141.00,49.079
1142.00,49.083
1143.00,49.080
1144.00,49.073
1145.00,49.091
1146.00,49.056
1147.00,49.072
1148.00,49.059
1149.00,49.058
1150.00,49.068
1151.00,49.084
1152.00,49.067
1153.00,49.069
1154.00,49.052
1155.00,49.054
1156.00,49.046
1157.00,49.050
1158.00,49.032
1159.00,49.061
1160.00,49.045
1161.00,49.051
1162.00,49.045
1163.00,49.028
1164.00,49.035
1165.00,49.029
1166.00,49.033
1167.00,49.021
1168.00,49.032
1169.00,49.023
1170.00,49.030
1171.00,49.017
1172.00,49.024
1173.00,49.024
1174.00,49.041
1175.00,49.033
1176.00,49.027
1177.00,49.012
1178.00,49.017
1179.00,49.031
1180.00,49.015
1181.00,49.033
1182.00,48.998
1183.00,49.015
1184.00,48.998
1185.00,49.006
1186.00,49.002
1187.00,48.998
1188.00,49.005
1189.00,49.024
1190.00,48.994
1191.00,48.988
1192.00,49.024
1193.00,49.005
1194.00,49.010
1195.00,48.985
1196.00,49.008
1197.00,49.023
1198.00,49.007
1199.00,49.000
1200.00,49.012
1201.00,49.017
1202.00,48.999
1203.00,49.007
1204.00,48.998
1205.00,49.034
1206.00,49.032
1207.00,49.019
1208.00,49.018
1209.00,49.022
1210.00,49.012
1211.00,49.013
1212.00,49.018
1213.00,48.986
1214.00,49.029
1215.00,48.996
1216.00,49.017
1217.00,49.013
1218.00,49.008
1219.00,49.038
1220.00,49.017
1221.00,49.054
1222.00,49.024
1223.00,49.041
1224.00,49.031
1225.00,49.016
1226.00,49.016
1227.00,49.022
1228.00,49.038
1229.00,49.042
1230.00,49.077
1231.00,49.064
1232.00,49.078
1233.00,49.090
1234.00,49.098
1235.00,49.082
1236.00,49.092
1237.00,49.076
1238.00,49.095
1239.00,49.091
1240.00,49.078
1241.00,49.105
1242.00,49.081
1243.00,49.106
1244.00,49.103
1245.00,49.125
1246.00,49.127
1247.00,49.114
1248.00,49.090
1249.00,49.118
1250.00,49.126
1251.00,49.108
1252.00,49.136
1253.00,49.119
1254.00,49.148
1255.00,49.135
1256.00,49.110
1257.00,49.102
1258.00,49.164
1259.00,49.149
1260.00,49.176
1261.00,49.171
1262.00,49.160
1263.00,49.164
1264.00,49.182
1265.00,49.200
1266.00,49.228
1267.00,49.244
1268.00,49.219
1269.00,49.239
1270.00,49.248
1271.00,49.239
1272.00,49.248
1273.00,49.253
1274.00,49.266
1275.00,49.250
1276.00,49.244
1277.00,49.263
1278.00,49.258
1279.00,49.264
1280.00,49.251
1281.00,49.269
1282.00,49.299
1283.00,49.298
1284.00,49.292
1285.00,49.287
1286.00,49.292
1287.00,49.295
1288.00,49.307
1289.00,49.296
1290.00,49.324
1291.00,49.328
1292.00,49.318
1293.00,49.330
1294.00,49.351
1295.00,49.350
1296.00,49.353
1297.00,49.358
1298.00,49.396
1299.00,49.384
1300.00,49.397
1301.00,49.380
1302.00,49.418
1303.00,49.396
1304.00,49.401
1305.00,49.413
1306.00,49.427
1307.00,49.454
1308.00,49.443
1309.00,49.457
1310.00,49.450
1311.00,49.430
1312.00,49.448
1313.00,49.483
1314.00,49.494
1315.00,49.510
1316.00,49.516
1317.00,49.536
1318.00,49.551
1319.00,49.547
1320.00,49.542
1321.00,49.713
1322.00,49.686
1323.00,49.684
1324.00,49.684
1325.00,49.658
1326.00,49.689
1327.00,49.692
1328.00,49.683
1329.00,49.662
1330.00,49.683
1331.00,49.671
1332.00,49.701
1333.00,49.683
1334.00,49.722
1335.00,49.763
1336.00,49.776
1337.00,49.798
1338.00,49.867
1339.00,49.883
1340.00,49.953
1341.00,50.027
1342.00,50.087
1343.00,50.135
1344.00,50.191
1345.00,50.250
1346.00,50.296
1347.00,50.288
1348.00,50.295
1349.00,50.332
1350.00,50.330
1351.00,50.372
1352.00,50.382
1353.00,50.402
1354.00,50.402
1355.00,50.338
1356.00,50.472
1357.00,50.445
1358.00,50.463
1359.00,50.458
1360.00,50.449
1361.00,50.448
1362.00,50.480
1363.00,50.368
1364.00,50.468
1365.00,50.475
1366.00,50.457
1367.00,50.465
1368.00,50.520
1369.00,50.480
1370.00,50.459
1371.00,50.390
1372.00,50.441
1373.00,50.447
1374.00,50.492
1375.00,50.447
1376.00,50.449
1377.00,50.448
1378.00,50.535
1379.00,50.489
1380.00,50.491
1381.00,50.486
1382.00,50.437
1383.00,50.479
1384.00,50.426
1385.00,50.474
1386.00,50.477
1387.00,50.451
1388.00,50.381
1389.00,50.473
1390.00,50.415
1391.00,50.498
1392.00,50.425
1393.00,50.425
1394.00,50.417
1395.00,50.413
1396.00,50.432
1397.00,50.508
1398.00,50.490
1399.00,50.417
1400.00,50.448
1401.00,50.473
1402.00,50.550
1403.00,50.463
1404.00,50.531
1405.00,50.498
1406.00,50.584
1407.00,50.514
1408.00,50.534
1409.00,50.549
1410.00,50.571
1411.00,50.540
1412.00,50.637
1413.00,50.517
1414.00,50.531
1415.00,50.572
1416.00,50.606
1417.00,50.649
1418.00,50.604
1419.00,50.613
1420.00,50.646
1421.00,50.673
1422.00,50.678
1423.00,50.706
1424.00,50.691
1425.00,50.731
1426.00,50.764
1427.00,50.756
1428.00,50.775
1429.00,50.799
1430.00,50.773
1431.00,50.803
1432.00,50.800
1433.00,50.838
1434.00,50.857
1435.00,50.895
1436.00,50.901
1437.00,50.905
1438.00,50.916
1439.00,50.957
1440.00,50.982
1441.00,50.970
1442.00,50.994
1443.00,51.040
1444.00,51.112
1445.00,51.040
1446.00,51.063
1447.00,51.089
1448.00,51.179
1449.00,51.137
1450.00,51.165
1451.00,51.168
1452.00,51.181
1453.00,51.190
1454.00,51.218
1455.00,51.251
1456.00,51.283
1457.00,51.267
1458.00,51.293
1459.00,51.311
1460.00,51.317
1461.00,51.323
1462.00,51.376
1463.00,51.363
1464.00,51.389
1465.00,51.402
1466.00,51.417
1467.00,51.445
1468.00,51.480
1469.00,51.458
1470.00,51.492
1471.00,51.485
1472.00,51.505
1473.00,51.528
1474.00,51.547
1475.00,51.589
1476.00,51.610
1477.00,51.585
1478.00,51.622
1479.00,51.618
1480.00,51.631
1481.00,51.652
1482.00,51.675
1483.00,51.693
1484.00,51.706
1485.00,51.710
1486.00,51.727
1487.00,51.753
1488.00,51.774
1489.00,51.779
1490.00,51.777
1491.00,51.803
1492.00,51.845
1493.00,51.803
1494.00,51.858
1495.00,51.843
1496.00,51.867
1497.00,51.858
1498.00,51.872
1499.00,51.902
1500.00,51.906
1501.00, 
1502.00, 
1503.00, 
1504.00, 
1505.00, 
1506.00, 
1507.00, 
1508.00, 
1509.00, 
1510.00, 
1511.00, 
1512.00, 
1513.00, 
1514.00, 
1515.00, 
1516.00, 
1517.00, 
1518.00, 
1519.00, 
1520.00, 
1521.00, 
1522.00, 
1523.00, 
1524.00, 
1525.00, 
1526.00, 
1527.00, 
1528.00, 
1529.00, 
1530.00, 
1531.00, 
1532.00, 
1533.00, 
1534.00, 
1535.00, 
1536.00, 
1537.00, 
1538.00, 
1539.00, 
1540.00, 
1541.00, 
1542.00, 
1543.00, 
1544.00, 
1545.00, 
1546.00, 
1547.00, 
1548.00, 
1549.00, 
1550.00, 
1551.00, 
1552.00, 
1553.00, 
1554.00, 
1555.00, 
1556.00, 
1557.00, 
1558.00, 
1559.00, 
1560.00, 
1561.00, 
1562.00, 
1563.00, 
1564.00, 
1565.00, 
1566.00, 
1567.00, 
1568.00, 
1569.00, 
1570.00, 
1571.00, 
1572.00, 
1573.00, 
1574.00, 
1575.00, 
1576.00, 
1577.00, 
1578.00, 
1579.00, 
1580.00, 
1581.00, 
1582.00, 
1583.00, 
1584.00, 
1585.00, 
1586.00, 
1587.00, 
1588.00, 
1589.00, 
1590.00, 
1591.00, 
1592.00, 
1593.00, 
1594.00, 
1595.00, 
1596.00, 
1597.00, 
1598.00, 
1599.00, 
1600.00, 
1601.00, 
1602.00, 
1603.00, 
1604.00, 
1605.00, 
1606.00, 
1607.00, 
1608.00, 
1609.00, 
1610.00, 
1611.00, 
1612.00, 
1613.00, 
1614.00, 
1615.00, 
1616.00, 
1617.00, 
1618.00, 
1619.00, 
1620.00, 
1621.00, 
1622.00, 
1623.00, 
1624.00, 
1625.00, 
1626.00, 
1627.00, 
1628.00, 
1629.00, 
1630.00, 
1631.00, 
1632.00, 
1633.00, 
1634.00, 
1635.00, 
1636.00, 
1637.00, 
1638.00, 
1639.00, 
1640.00, 
1641.00, 
1642.00, 
1643.00, 
1644.00, 
1645.00, 
1646.00, 
1647.00, 
1648.00, 
1649.00, 
1650.00, 
1651.00, 
1652.00, 
1653.00, 
1654.00, 
1655.00, 
1656.00, 
1657.00, 
1658.00, 
1659.00, 
1660.00, 
1661.00, 
1662.00, 
1663.00, 
1664.00, 
1665.00, 
1666.00, 
1667.00, 
1668.00, 
1669.00, 
1670.00, 
1671.00, 
1672.00, 
1673.00, 
1674.00, 
1675.00, 
1676.00, 
1677.00, 
1678.00, 
1679.00, 
1680.00, 
1681.00, 
1682.00, 
1683.00, 
1684.00, 
1685.00, 
1686.00, 
1687.00, 
1688.00, 
1689.00, 
1690.00, 
1691.00, 
1692.00, 
1693.00, 
1694.00, 
1695.00, 
1696.00, 
1697.00, 
1698.00, 
1699.00, 
1700.00, 
1701.00, 
1702.00, 
1703.00, 
1704.00, 
1705.00, 
1706.00, 
1707.00, 
1708.00, 
1709.00, 
1710.00, 
1711.00, 
1712.00, 
1713.00, 
1714.00, 
1715.00, 
1716.00, 
1717.00, 
1718.00, 
1719.00, 
1720.00, 
1721.00, 
1722.00, 
1723.00, 
1724.00, 
1725.00, 
1726.00, 
1727.00, 
1728.00, 
1729.00, 
1730.00, 
1731.00, 
1732.00, 
1733.00, 
1734.00, 
1735.00, 
1736.00, 
1737.00, 
1738.00, 
1739.00, 
1740.00, 
1741.00, 
1742.00, 
1743.00, 
1744.00, 
1745.00, 
1746.00, 
1747.00, 
1748.00, 
1749.00, 
1750.00, 
1751.00, 
1752.00, 
1753.00, 
1754.00, 
1755.00, 
1756.00, 
1757.00, 
1758.00, 
1759.00, 
1760.00, 
1761.00, 
1762.00, 
1763.00, 
1764.00, 
1765.00, 
1766.00, 
1767.00, 
1768.00, 
1769.00, 
1770.00, 
1771.00, 
1772.00, 
1773.00, 
1774.00, 
1775.00, 
1776.00, 
1777.00, 
1778.00, 
1779.00, 
1780.00, 
1781.00, 
1782.00, 
1783.00, 
1784.00, 
1785.00, 
1786.00, 
1787.00, 
1788.00, 
1789.00, 
1790.00, 
1791.00, 
1792.00, 
1793.00, 
1794.00, 
1795.00, 
1796.00, 
1797.00, 
1798.00, 
1799.00, 
1800.00, 
1801.00, 
1802.00, 
1803.00, 
1804.00, 
1805.00, 
1806.00, 
1807.00, 
1808.00, 
1809.00, 
1810.00, 
1811.00, 
1812.00, 
1813.00, 
1814.00, 
1815.00, 
1816.00, 
1817.00, 
1818.00, 
1819.00, 
1820.00, 
1821.00, 
1822.00, 
1823.00, 
1824.00, 
1825.00, 
1826.00, 
1827.00, 
1828.00, 
1829.00, 
1830.00, 
1831.00, 
1832.00, 
1833.00, 
1834.00, 
1835.00, 
1836.00, 
1837.00, 
1838.00, 
1839.00, 
1840.00, 
1841.00, 
1842.00, 
1843.00, 
1844.00, 
1845.00, 
1846.00, 
1847.00, 
1848.00, 
1849.00, 
1850.00, 
1851.00, 
1852.00, 
1853.00, 
1854.00, 
1855.00, 
1856.00, 
1857.00, 
1858.00, 
1859.00, 
1860.00, 
1861.00, 
1862.00, 
1863.00, 
1864.00, 
1865.00, 
1866.00, 
1867.00, 
1868.00, 
1869.00, 
1870.00, 
1871.00, 
1872.00, 
1873.00, 
1874.00, 
1875.00, 
1876.00, 
1877.00, 
1878.00, 
1879.00, 
1880.00, 
1881.00, 
1882.00, 
1883.00, 
1884.00, 
1885.00, 
1886.00, 
1887.00, 
1888.00, 
1889.00, 
1890.00, 
1891.00, 
1892.00, 
1893.00, 
1894.00, 
1895.00, 
1896.00, 
1897.00, 
1898.00, 
1899.00, 
1900.00, 
1901.00, 
1902.00, 
1903.00, 
1904.00, 
1905.00, 
1906.00, 
1907.00, 
1908.00, 
1909.00, 
1910.00, 
1911.00, 
1912.00, 
1913.00, 
1914.00, 
1915.00, 
1916.00, 
1917.00, 
1918.00, 
1919.00, 
1920.00, 
1921.00, 
1922.00, 
1923.00, 
1924.00, 
1925.00, 
1926.00, 
1927.00, 
1928.00, 
1929.00, 
1930.00, 
1931.00, 
1932.00, 
1933.00, 
1934.00, 
1935.00, 
1936.00, 
1937.00, 
1938.00, 
1939.00, 
1940.00, 
1941.00, 
1942.00, 
1943.00, 
1944.00, 
1945.00, 
1946.00, 
1947.00, 
1948.00, 
1949.00, 
1950.00, 
1951.00, 
1952.00, 
1953.00, 
1954.00, 
1955.00, 
1956.00, 
1957.00, 
1958.00, 
1959.00, 
1960.00, 
1961.00, 
1962.00, 
1963.00, 
1964.00, 
1965.00, 
1966.00, 
1967.00, 
1968.00, 
1969.00, 
1970.00, 
1971.00, 
1972.00, 
1973.00, 
1974.00, 
1975.00, 
1976.00, 
1977.00, 
1978.00, 
1979.00, 
1980.00, 
1981.00, 
1982.00, 
1983.00, 
1984.00, 
1985.00, 
1986.00, 
1987.00, 
1988.00, 
1989.00, 
1990.00, 
1991.00, 
1992.00, 
1993.00, 
1994.00, 
1995.00, 
1996.00, 
1997.00, 
1998.00, 
1999.00, 
2000.00, 
2001.00, 
2002.00, 
2003.00, 
2004.00, 
2005.00, 
2006.00, 
2007.00, 
2008.00, 
2009.00, 
2010.00, 
2011.00, 
2012.00, 
2013.00, 
2014.00, 
2015.00, 
2016.00, 
2017.00, 
2018.00, 
2019.00, 
2020.00, 
2021.00, 
2022.00, 
2023.00, 
2024.00, 
2025.00, 
2026.00, 
2027.00, 
2028.00, 
2029.00, 
2030.00, 
2031.00, 
2032.00, 
2033.00, 
2034.00, 
2035.00, 
2036.00, 
2037.00, 
2038.00, 
2039.00, 
2040.00, 
2041.00, 
2042.00, 
2043.00, 
2044.00, 
2045.00, 
2046.00, 
2047.00, 
2048.00, 
2049.00, 
2050.00, 
2051.00, 
2052.00, 
2053.00, 
2054.00, 
2055.00, 
2056.00, 
2057.00, 
2058.00, 
2059.00, 
2060.00, 
2061.00, 
2062.00, 
2063.00, 
2064.00, 
2065.00, 
2066.00, 
2067.00, 
2068.00, 
2069.00, 
2070.00, 
2071.00, 
2072.00, 
2073.00, 
2074.00, 
2075.00, 
2076.00, 
2077.00, 
2078.00, 
2079.00, 
2080.00, 
2081.00, 
2082.00, 
2083.00, 
2084.00, 
2085.00, 
2086.00, 
2087.00, 
2088.00, 
2089.00, 
2090.00, 
2091.00, 
2092.00, 
2093.00, 
2094.00, 
2095.00, 
2096.00, 
2097.00, 
2098.00, 
2099.00, 
2100.00, 
2101.00, 
2102.00, 
2103.00, 
2104.00, 
2105.00, 
2106.00, 
2107.00, 
2108.00, 
2109.00, 
2110.00, 
2111.00, 
2112.00, 
2113.00, 
2114.00, 
2115.00, 
2116.00, 
2117.00, 
2118.00, 
2119.00, 
2120.00, 
2121.00, 
2122.00, 
2123.00, 
2124.00, 
2125.00, 
2126.00, 
2127.00, 
2128.00, 
2129.00, 
2130.00, 
2131.00, 
2132.00, 
2133.00, 
2134.00, 
2135.00, 
2136.00, 
2137.00, 
2138.00, 
2139.00, 
2140.00, 
2141.00, 
2142.00, 
2143.00, 
2144.00, 
2145.00, 
2146.00, 
2147.00, 
2148.00, 
2149.00, 
2150.00, 
2151.00, 
2152.00, 
2153.00, 
2154.00, 
2155.00, 
2156.00, 
2157.00, 
2158.00, 
2159.00, 
2160.00, 
2161.00, 
2162.00, 
2163.00, 
2164.00, 
2165.00, 
2166.00, 
2167.00, 
2168.00, 
2169.00, 
2170.00, 
2171.00, 
2172.00, 
2173.00, 
2174.00, 
2175.00, 
2176.00, 
2177.00, 
2178.00, 
2179.00, 
2180.00, 
2181.00, 
2182.00, 
2183.00, 
2184.00, 
2185.00, 
2186.00, 
2187.00, 
2188.00, 
2189.00, 
2190.00, 
2191.00, 
2192.00, 
2193.00, 
2194.00, 
2195.00, 
2196.00, 
2197.00, 
2198.00, 
2199.00, 
2200.00, 
2201.00, 
2202.00, 
2203.00, 
2204.00, 
2205.00, 
2206.00, 
2207.00, 
2208.00, 
2209.00, 
2210.00, 
2211.00, 
2212.00, 
2213.00, 
2214.00, 
2215.00, 
2216.00, 
2217.00, 
2218.00, 
2219.00, 
2220.00, 
2221.00, 
2222.00, 
2223.00, 
2224.00, 
2225.00, 
2226.00, 
2227.00, 
2228.00, 
2229.00, 
2230.00, 
2231.00, 
2232.00, 
2233.00, 
2234.00, 
2235.00, 
2236.00, 
2237.00, 
2238.00, 
2239.00, 
2240.00, 
2241.00, 
2242.00, 
2243.00, 
2244.00, 
2245.00, 
2246.00, 
2247.00, 
2248.00, 
2249.00, 
2250.00, 
2251.00, 
2252.00, 
2253.00, 
2254.00, 
2255.00, 
2256.00, 
2257.00, 
2258.00, 
2259.00, 
2260.00, 
2261.00, 
2262.00, 
2263.00, 
2264.00, 
2265.00, 
2266.00, 
2267.00, 
2268.00, 
2269.00, 
2270.00, 
2271.00, 
2272.00, 
2273.00, 
2274.00, 
2275.00, 
2276.00, 
2277.00, 
2278.00, 
2279.00, 
2280.00, 
2281.00, 
2282.00, 
2283.00, 
2284.00, 
2285.00, 
2286.00, 
2287.00, 
2288.00, 
2289.00, 
2290.00, 
2291.00, 
2292.00, 
2293.00, 
2294.00, 
2295.00, 
2296.00, 
2297.00, 
2298.00, 
2299.00, 
2300.00, 
2301.00, 
2302.00, 
2303.00, 
2304.00, 
2305.00, 
2306.00, 
2307.00, 
2308.00, 
2309.00, 
2310.00, 
2311.00, 
2312.00, 
2313.00, 
2314.00, 
2315.00, 
2316.00, 
2317.00, 
2318.00, 
2319.00, 
2320.00, 
2321.00, 
2322.00, 
2323.00, 
2324.00, 
2325.00, 
2326.00, 
2327.00, 
2328.00, 
2329.00, 
2330.00, 
2331.00, 
2332.00, 
2333.00, 
2334.00, 
2335.00, 
2336.00, 
2337.00, 
2338.00, 
2339.00, 
2340.00, 
2341.00, 
2342.00, 
2343.00, 
2344.00, 
2345.00, 
2346.00, 
2347.00, 
2348.00, 
2349.00, 
2350.00, 
2351.00, 
2352.00, 
2353.00, 
2354.00, 
2355.00, 
2356.00, 
2357.00, 
2358.00, 
2359.00, 
2360.00, 
2361.00, 
2362.00, 
2363.00, 
2364.00, 
2365.00, 
2366.00, 
2367.00, 
2368.00, 
2369.00, 
2370.00, 
2371.00, 
2372.00, 
2373.00, 
2374.00, 
2375.00, 
2376.00, 
2377.00, 
2378.00, 
2379.00, 
2380.00, 
2381.00, 
2382.00, 
2383.00, 
2384.00, 
2385.00, 
2386.00, 
2387.00, 
2388.00, 
2389.00, 
2390.00, 
2391.00, 
2392.00, 
2393.00, 
2394.00, 
2395.00, 
2396.00, 
2397.00, 
2398.00, 
2399.00, 
2400.00, 
2401.00, 
2402.00, 
2403.00, 
2404.00, 
2405.00, 
2406.00, 
2407.00, 
2408.00, 
2409.00, 
2410.00, 
2411.00, 
2412.00, 
2413.00, 
2414.00, 
2415.00, 
2416.00, 
2417.00, 
2418.00, 
2419.00, 
2420.00, 
2421.00, 
2422.00, 
2423.00, 
2424.00, 
2425.00, 
2426.00, 
2427.00, 
2428.00, 
2429.00, 
2430.00, 
2431.00, 
2432.00, 
2433.00, 
2434.00, 
2435.00, 
2436.00, 
2437.00, 
2438.00, 
2439.00, 
2440.00, 
2441.00, 
2442.00, 
2443.00, 
2444.00, 
2445.00, 
2446.00, 
2447.00, 
2448.00, 
2449.00, 
2450.00, 
2451.00, 
2452.00, 
2453.00, 
2454.00, 
2455.00, 
2456.00, 
2457.00, 
2458.00, 
2459.00, 
2460.00, 
2461.00, 
2462.00, 
2463.00, 
2464.00, 
2465.00, 
2466.00, 
2467.00, 
2468.00, 
2469.00, 
2470.00, 
2471.00, 
2472.00, 
2473.00, 
2474.00, 
2475.00, 
2476.00, 
2477.00, 
2478.00, 
2479.00, 
2480.00, 
2481.00, 
2482.00, 
2483.00, 
2484.00, 
2485.00, 
2486.00, 
2487.00, 
2488.00, 
2489.00, 
2490.00, 
2491.00, 
2492.00, 
2493.00, 
2494.00, 
2495.00, 
2496.00, 
2497.00, 
2498.00, 
2499.00, 
2500.00, 
2501.00, 
2502.00, 
2503.00, 
2504.00, 
2505.00, 
2506.00, 
2507.00, 
2508.00, 
2509.00, 
2510.00, 
2511.00, 
2512.00, 
2513.00, 
2514.00, 
2515.00, 
2516.00, 
2517.00, 
2518.00, 
2519.00, 
2520.00, 
2521.00, 
2522.00, 
2523.00, 
2524.00, 
2525.00, 
2526.00, 
2527.00, 
2528.00, 
2529.00, 
2530.00, 
2531.00, 
2532.00, 
2533.00, 
2534.00, 
2535.00, 
2536.00, 
2537.00, 
2538.00, 
2539.00, 
2540.00, 
2541.00, 
2542.00, 
2543.00, 
2544.00, 
2545.00, 
2546.00, 
2547.00, 
2548.00, 
2549.00, 
2550.00, 
2551.00, 
2552.00, 
2553.00, 
2554.00, 
2555.00, 
2556.00, 
2557.00, 
2558.00, 
2559.00, 
2560.00, 
2561.00, 
2562.00, 
2563.00, 
2564.00, 
2565.00, 
2566.00, 
2567.00, 
2568.00, 
2569.00, 
2570.00, 
2571.00, 
2572.00, 
2573.00, 
2574.00, 
2575.00, 
2576.00, 
2577.00, 
2578.00, 
2579.00, 
2580.00, 
2581.00, 
2582.00, 
2583.00, 
2584.00, 
2585.00, 
2586.00, 
2587.00, 
2588.00, 
2589.00, 
2590.00, 
2591.00, 
2592.00, 
2593.00, 
2594.00, 
2595.00, 
2596.00, 
2597.00, 
2598.00, 
2599.00, 
2600.00, 
