"2cP4 - RawData"
"Wavelength nm.","T%"
200.00,0.001
201.00,0.001
202.00,-0.001
203.00,-0.002
204.00,0.002
205.00,0.002
206.00,0.003
207.00,0.002
208.00,0.001
209.00,0.004
210.00,0.001
211.00,0.003
212.00,-0.001
213.00,0.000
214.00,0.006
215.00,0.000
216.00,-0.001
217.00,0.000
218.00,-0.001
219.00,0.003
220.00,0.003
221.00,0.001
222.00,-0.000
223.00,0.003
224.00,0.001
225.00,0.001
226.00,-0.001
227.00,0.002
228.00,0.003
229.00,-0.001
230.00,0.001
231.00,0.004
232.00,0.001
233.00,0.001
234.00,0.000
235.00,0.000
236.00,-0.001
237.00,-0.000
238.00,-0.000
239.00,0.001
240.00,0.001
241.00,0.001
242.00,0.000
243.00,0.003
244.00,0.000
245.00,-0.001
246.00,-0.000
247.00,0.000
248.00,-0.001
249.00,-0.000
250.00,0.000
251.00,0.001
252.00,0.001
253.00,-0.001
254.00,0.000
255.00,0.000
256.00,0.001
257.00,-0.000
258.00,0.001
259.00,0.001
260.00,0.001
261.00,-0.001
262.00,0.001
263.00,0.002
264.00,0.002
265.00,-0.001
266.00,-0.000
267.00,0.001
268.00,0.000
269.00,0.000
270.00,-0.001
271.00,0.001
272.00,0.001
273.00,0.001
274.00,0.001
275.00,0.001
276.00,-0.001
277.00,-0.001
278.00,-0.000
279.00,0.001
280.00,0.001
281.00,-0.000
282.00,0.001
283.00,0.000
284.00,0.000
285.00,-0.001
286.00,0.000
287.00,0.000
288.00,0.000
289.00,-0.000
290.00,-0.001
291.00,0.001
292.00,-0.000
293.00,-0.000
294.00,-0.001
295.00,0.000
296.00,-0.001
297.00,0.000
298.00,0.001
299.00,0.001
300.00,0.002
301.00,0.003
302.00,0.001
303.00,0.005
304.00,0.006
305.00,0.007
306.00,0.012
307.00,0.020
308.00,0.031
309.00,0.044
310.00,0.066
311.00,0.083
312.00,0.114
313.00,0.157
314.00,0.200
315.00,0.268
316.00,0.336
317.00,0.421
318.00,0.517
319.00,0.641
320.00,0.766
321.00,0.914
322.00,1.080
323.00,1.286
324.00,1.485
325.00,1.675
326.00,1.886
327.00,2.128
328.00,2.366
329.00,2.606
330.00,2.859
331.00,3.114
332.00,3.368
333.00,3.672
334.00,3.878
335.00,4.193
336.00,4.463
337.00,4.713
338.00,4.982
339.00,5.207
340.00,5.445
341.00,5.669
342.00,5.881
343.00,6.121
344.00,6.312
345.00,6.498
346.00,6.656
347.00,6.803
348.00,6.959
349.00,7.113
350.00,7.260
351.00,7.358
352.00,7.469
353.00,7.564
354.00,7.659
355.00,7.752
356.00,7.832
357.00,7.859
358.00,7.935
359.00,8.009
360.00,8.070
361.00,8.092
362.00,8.124
363.00,8.155
364.00,8.171
365.00,8.152
366.00,8.165
367.00,8.182
368.00,8.168
369.00,8.163
370.00,8.147
371.00,8.121
372.00,8.106
373.00,8.102
374.00,8.091
375.00,8.035
376.00,7.984
377.00,7.946
378.00,7.896
379.00,7.833
380.00,7.806
381.00,7.779
382.00,7.757
383.00,7.724
384.00,7.696
385.00,7.691
386.00,7.671
387.00,7.662
388.00,7.665
389.00,7.632
390.00,7.623
391.00,7.603
392.00,7.569
393.00,7.569
394.00,7.552
395.00,7.530
396.00,7.507
397.00,7.503
398.00,7.484
399.00,7.489
400.00,7.461
401.00,7.431
402.00,7.436
403.00,7.428
404.00,7.404
405.00,7.391
406.00,7.374
407.00,7.356
408.00,7.344
409.00,7.329
410.00,7.316
411.00,7.291
412.00,7.282
413.00,7.279
414.00,7.278
415.00,7.282
416.00,7.292
417.00,7.281
418.00,7.298
419.00,7.337
420.00,7.341
421.00,7.315
422.00,7.329
423.00,7.348
424.00,7.375
425.00,7.392
426.00,7.408
427.00,7.433
428.00,7.458
429.00,7.481
430.00,7.516
431.00,7.553
432.00,7.576
433.00,7.620
434.00,7.659
435.00,7.700
436.00,7.737
437.00,7.793
438.00,7.838
439.00,7.883
440.00,7.951
441.00,7.989
442.00,8.050
443.00,8.098
444.00,8.169
445.00,8.234
446.00,8.291
447.00,8.366
448.00,8.422
449.00,8.482
450.00,8.568
451.00,8.640
452.00,8.713
453.00,8.803
454.00,8.886
455.00,8.962
456.00,9.059
457.00,9.128
458.00,9.209
459.00,9.334
460.00,9.427
461.00,9.513
462.00,9.583
463.00,9.728
464.00,9.770
465.00,9.934
466.00,10.034
467.00,10.128
468.00,10.212
469.00,10.356
470.00,10.411
471.00,10.527
472.00,10.635
473.00,10.734
474.00,10.833
475.00,10.946
476.00,11.046
477.00,11.161
478.00,11.282
479.00,11.436
480.00,11.547
481.00,11.652
482.00,11.747
483.00,11.908
484.00,12.016
485.00,12.210
486.00,12.329
487.00,12.466
488.00,12.589
489.00,12.749
490.00,12.878
491.00,13.001
492.00,13.145
493.00,13.320
494.00,13.451
495.00,13.515
496.00,13.653
497.00,13.761
498.00,13.904
499.00,14.050
500.00,14.166
501.00,14.287
502.00,14.444
503.00,14.566
504.00,14.665
505.00,14.798
506.00,14.943
507.00,15.031
508.00,15.187
509.00,15.346
510.00,15.449
511.00,15.555
512.00,15.729
513.00,15.866
514.00,15.980
515.00,16.130
516.00,16.253
517.00,16.348
518.00,16.489
519.00,16.570
520.00,16.686
521.00,16.807
522.00,16.924
523.00,17.007
524.00,17.117
525.00,17.209
526.00,17.359
527.00,17.459
528.00,17.586
529.00,17.734
530.00,17.867
531.00,17.928
532.00,18.063
533.00,18.158
534.00,18.263
535.00,18.344
536.00,18.463
537.00,18.565
538.00,18.627
539.00,18.709
540.00,18.807
541.00,18.902
542.00,18.945
543.00,19.033
544.00,19.157
545.00,19.249
546.00,19.281
547.00,19.397
548.00,19.508
549.00,19.577
550.00,19.656
551.00,19.778
552.00,19.847
553.00,19.897
554.00,20.005
555.00,20.084
556.00,20.106
557.00,20.223
558.00,20.288
559.00,20.355
560.00,20.447
561.00,20.522
562.00,20.589
563.00,20.647
564.00,20.737
565.00,20.781
566.00,20.818
567.00,20.887
568.00,20.934
569.00,20.987
570.00,21.058
571.00,21.029
572.00,21.164
573.00,21.201
574.00,21.266
575.00,21.312
576.00,21.342
577.00,21.410
578.00,21.484
579.00,21.578
580.00,21.612
581.00,21.750
582.00,21.850
583.00,21.844
584.00,21.954
585.00,22.003
586.00,22.095
587.00,22.161
588.00,22.197
589.00,22.233
590.00,22.317
591.00,22.382
592.00,22.402
593.00,22.443
594.00,22.535
595.00,22.603
596.00,22.663
597.00,22.749
598.00,22.844
599.00,22.868
600.00,22.937
601.00,22.976
602.00,23.026
603.00,23.092
604.00,23.143
605.00,23.221
606.00,23.344
607.00,23.348
608.00,23.435
609.00,23.524
610.00,23.622
611.00,23.590
612.00,23.664
613.00,23.743
614.00,23.784
615.00,23.895
616.00,24.020
617.00,24.056
618.00,24.100
619.00,24.181
620.00,24.254
621.00,24.360
622.00,24.441
623.00,24.532
624.00,24.626
625.00,24.696
626.00,24.807
627.00,24.877
628.00,24.958
629.00,25.046
630.00,25.111
631.00,25.240
632.00,25.355
633.00,25.489
634.00,25.571
635.00,25.678
636.00,25.786
637.00,25.942
638.00,26.028
639.00,26.097
640.00,26.163
641.00,26.251
642.00,26.504
643.00,26.614
644.00,26.711
645.00,26.801
646.00,27.014
647.00,27.142
648.00,27.221
649.00,27.353
650.00,27.450
651.00,27.651
652.00,27.810
653.00,27.835
654.00,28.022
655.00,28.263
656.00,28.478
657.00,28.511
658.00,28.625
659.00,28.760
660.00,28.978
661.00,29.053
662.00,29.261
663.00,29.349
664.00,29.606
665.00,29.820
666.00,29.698
667.00,30.010
668.00,30.123
669.00,30.344
670.00,30.647
671.00,30.645
672.00,30.878
673.00,31.034
674.00,31.121
675.00,31.338
676.00,31.593
677.00,31.807
678.00,31.715
679.00,31.955
680.00,32.171
681.00,32.391
682.00,32.512
683.00,32.708
684.00,32.918
685.00,33.051
686.00,33.162
687.00,33.365
688.00,33.448
689.00,33.571
690.00,33.954
691.00,34.278
692.00,34.221
693.00,34.348
694.00,34.590
695.00,34.797
696.00,34.890
697.00,35.074
698.00,35.293
699.00,35.505
700.00,35.754
701.00,35.806
702.00,35.983
703.00,36.154
704.00,36.382
705.00,36.518
706.00,36.501
707.00,36.766
708.00,36.808
709.00,37.154
710.00,37.686
711.00,37.613
712.00,37.560
713.00,37.869
714.00,38.021
715.00,38.259
716.00,38.227
717.00,38.545
718.00,38.762
719.00,38.717
720.00,38.926
721.00,43.278
722.00,43.320
723.00,43.395
724.00,43.563
725.00,43.694
726.00,43.763
727.00,43.931
728.00,44.090
729.00,44.139
730.00,44.271
731.00,44.409
732.00,44.571
733.00,44.738
734.00,44.855
735.00,44.909
736.00,45.108
737.00,45.171
738.00,45.332
739.00,45.512
740.00,45.554
741.00,45.725
742.00,45.856
743.00,45.885
744.00,45.976
745.00,46.110
746.00,46.205
747.00,46.336
748.00,46.381
749.00,46.502
750.00,46.572
751.00,46.711
752.00,46.720
753.00,46.735
754.00,46.844
755.00,47.077
756.00,47.114
757.00,47.095
758.00,47.251
759.00,47.306
760.00,47.416
761.00,47.492
762.00,47.574
763.00,47.653
764.00,47.750
765.00,47.797
766.00,47.903
767.00,48.014
768.00,48.084
769.00,48.128
770.00,48.316
771.00,48.289
772.00,48.353
773.00,48.428
774.00,48.480
775.00,48.601
776.00,48.682
777.00,48.720
778.00,48.826
779.00,48.974
780.00,48.941
781.00,48.954
782.00,49.008
783.00,49.078
784.00,49.185
785.00,49.103
786.00,49.222
787.00,49.244
788.00,49.266
789.00,49.380
790.00,49.332
791.00,49.447
792.00,49.404
793.00,49.518
794.00,49.519
795.00,49.582
796.00,49.594
797.00,49.637
798.00,49.646
799.00,49.655
800.00,49.674
801.00,49.696
802.00,49.750
803.00,49.717
804.00,49.820
805.00,49.814
806.00,49.809
807.00,49.815
808.00,49.867
809.00,49.907
810.00,49.921
811.00,49.953
812.00,50.048
813.00,50.016
814.00,50.141
815.00,50.070
816.00,50.018
817.00,50.067
818.00,50.046
819.00,50.093
820.00,50.074
821.00,50.055
822.00,50.114
823.00,50.123
824.00,50.180
825.00,50.171
826.00,50.214
827.00,50.223
828.00,50.275
829.00,50.265
830.00,50.303
831.00,52.319
832.00,52.328
833.00,52.372
834.00,52.353
835.00,52.380
836.00,52.370
837.00,52.376
838.00,52.384
839.00,52.383
840.00,52.351
841.00,52.409
842.00,52.367
843.00,52.427
844.00,52.433
845.00,52.358
846.00,52.470
847.00,52.372
848.00,52.448
849.00,52.363
850.00,52.384
851.00,52.336
852.00,52.390
853.00,52.338
854.00,52.342
855.00,52.289
856.00,52.279
857.00,52.414
858.00,52.327
859.00,52.266
860.00,52.333
861.00,52.357
862.00,52.266
863.00,52.297
864.00,52.274
865.00,52.317
866.00,52.316
867.00,52.283
868.00,52.292
869.00,52.307
870.00,52.287
871.00,52.336
872.00,52.318
873.00,52.321
874.00,52.355
875.00,52.318
876.00,52.350
877.00,52.323
878.00,52.342
879.00,52.361
880.00,52.328
881.00,52.312
882.00,52.362
883.00,52.290
884.00,52.257
885.00,52.290
886.00,52.283
887.00,52.184
888.00,52.276
889.00,52.255
890.00,52.240
891.00,52.223
892.00,52.217
893.00,52.187
894.00,52.204
895.00,52.172
896.00,52.164
897.00,52.168
898.00,52.136
899.00,52.118
900.00,52.136
901.00,52.124
902.00,52.124
903.00,52.104
904.00,52.120
905.00,52.117
906.00,52.081
907.00,52.205
908.00,52.034
909.00,52.068
910.00,52.032
911.00,52.048
912.00,52.051
913.00,51.997
914.00,51.986
915.00,51.977
916.00,51.968
917.00,51.974
918.00,51.953
919.00,51.918
920.00,51.882
921.00,51.898
922.00,51.904
923.00,51.858
924.00,51.838
925.00,51.843
926.00,51.813
927.00,51.819
928.00,51.788
929.00,51.791
930.00,51.777
931.00,51.771
932.00,51.718
933.00,51.755
934.00,51.735
935.00,51.687
936.00,51.704
937.00,51.670
938.00,51.687
939.00,51.652
940.00,51.619
941.00,51.628
942.00,51.597
943.00,51.593
944.00,51.585
945.00,51.577
946.00,51.578
947.00,51.536
948.00,51.541
949.00,51.519
950.00,51.514
951.00,51.483
952.00,51.480
953.00,51.434
954.00,51.422
955.00,51.387
956.00,51.366
957.00,51.319
958.00,51.338
959.00,51.318
960.00,51.326
961.00,51.311
962.00,51.277
963.00,51.270
964.00,51.239
965.00,51.246
966.00,51.250
967.00,51.235
968.00,51.212
969.00,51.256
970.00,51.211
971.00,51.230
972.00,51.191
973.00,51.220
974.00,51.258
975.00,51.220
976.00,51.255
977.00,51.242
978.00,51.289
979.00,51.246
980.00,51.264
981.00,51.234
982.00,51.239
983.00,51.246
984.00,51.212
985.00,51.247
986.00,51.209
987.00,51.238
988.00,51.201
989.00,51.190
990.00,51.174
991.00,51.160
992.00,51.175
993.00,51.137
994.00,51.133
995.00,51.166
996.00,51.116
997.00,51.105
998.00,51.085
999.00,51.125
1000.00,51.068
1001.00,51.067
1002.00,51.064
1003.00,51.049
1004.00,51.047
1005.00,51.001
1006.00,51.043
1007.00,51.011
1008.00,50.986
1009.00,50.974
1010.00,51.013
1011.00,50.976
1012.00,50.951
1013.00,50.958
1014.00,50.909
1015.00,50.930
1016.00,50.886
1017.00,50.882
1018.00,50.883
1019.00,50.851
1020.00,50.848
1021.00,50.826
1022.00,50.818
1023.00,50.783
1024.00,50.784
1025.00,50.731
1026.00,50.750
1027.00,50.712
1028.00,50.704
1029.00,50.709
1030.00,50.677
1031.00,50.685
1032.00,50.657
1033.00,50.648
1034.00,50.630
1035.00,50.601
1036.00,50.563
1037.00,50.573
1038.00,50.534
1039.00,50.501
1040.00,50.512
1041.00,50.462
1042.00,50.465
1043.00,50.454
1044.00,50.481
1045.00,50.461
1046.00,50.465
1047.00,50.479
1048.00,50.498
1049.00,50.514
1050.00,50.509
1051.00,50.544
1052.00,50.528
1053.00,50.525
1054.00,50.531
1055.00,50.542
1056.00,50.552
1057.00,50.542
1058.00,50.518
1059.00,50.529
1060.00,50.540
1061.00,50.514
1062.00,50.521
1063.00,50.526
1064.00,50.533
1065.00,50.528
1066.00,50.494
1067.00,50.480
1068.00,50.505
1069.00,50.455
1070.00,50.444
1071.00,50.426
1072.00,50.446
1073.00,50.434
1074.00,50.420
1075.00,50.417
1076.00,50.432
1077.00,50.394
1078.00,50.376
1079.00,50.385
1080.00,50.373
1081.00,50.363
1082.00,50.356
1083.00,50.344
1084.00,50.347
1085.00,50.333
1086.00,50.321
1087.00,50.326
1088.00,50.293
1089.00,50.296
1090.00,50.297
1091.00,50.283
1092.00,50.291
1093.00,50.280
1094.00,50.252
1095.00,50.265
1096.00,50.238
1097.00,50.233
1098.00,50.237
1099.00,50.206
1100.00,50.196
1101.00,50.212
1102.00,50.172
1103.00,50.197
1104.00,50.181
1105.00,50.165
1106.00,50.154
1107.00,50.153
1108.00,50.140
1109.00,50.141
1110.00,50.114
1111.00,50.111
1112.00,50.104
1113.00,50.089
1114.00,50.092
1115.00,50.092
1116.00,50.078
1117.00,50.072
1118.00,50.054
1119.00,50.051
1120.00,50.052
1121.00,50.047
1122.00,50.026
1123.00,50.022
1124.00,50.015
1125.00,50.016
1126.00,50.006
1127.00,50.006
1128.00,49.996
1129.00,49.980
1130.00,49.954
1131.00,49.978
1132.00,49.947
1133.00,49.958
1134.00,49.941
1135.00,49.935
1136.00,49.945
1137.00,49.946
1138.00,49.932
1139.00,49.942
1140.00,49.918
1141.00,49.908
1142.00,49.903
1143.00,49.907
1144.00,49.879
1145.00,49.888
1146.00,49.871
1147.00,49.891
1148.00,49.870
1149.00,49.873
1150.00,49.873
1151.00,49.850
1152.00,49.839
1153.00,49.840
1154.00,49.830
1155.00,49.846
1156.00,49.834
1157.00,49.840
1158.00,49.827
1159.00,49.842
1160.00,49.825
1161.00,49.850
1162.00,49.853
1163.00,49.821
1164.00,49.838
1165.00,49.815
1166.00,49.817
1167.00,49.805
1168.00,49.816
1169.00,49.804
1170.00,49.811
1171.00,49.789
1172.00,49.789
1173.00,49.777
1174.00,49.805
1175.00,49.809
1176.00,49.788
1177.00,49.784
1178.00,49.778
1179.00,49.778
1180.00,49.771
1181.00,49.785
1182.00,49.767
1183.00,49.774
1184.00,49.756
1185.00,49.767
1186.00,49.753
1187.00,49.759
1188.00,49.755
1189.00,49.767
1190.00,49.756
1191.00,49.745
1192.00,49.782
1193.00,49.756
1194.00,49.770
1195.00,49.741
1196.00,49.763
1197.00,49.779
1198.00,49.747
1199.00,49.737
1200.00,49.751
1201.00,49.775
1202.00,49.766
1203.00,49.758
1204.00,49.727
1205.00,49.752
1206.00,49.729
1207.00,49.742
1208.00,49.747
1209.00,49.713
1210.00,49.711
1211.00,49.706
1212.00,49.721
1213.00,49.700
1214.00,49.721
1215.00,49.698
1216.00,49.714
1217.00,49.692
1218.00,49.682
1219.00,49.711
1220.00,49.700
1221.00,49.701
1222.00,49.704
1223.00,49.722
1224.00,49.698
1225.00,49.680
1226.00,49.687
1227.00,49.692
1228.00,49.706
1229.00,49.720
1230.00,49.763
1231.00,49.734
1232.00,49.756
1233.00,49.752
1234.00,49.738
1235.00,49.742
1236.00,49.750
1237.00,49.739
1238.00,49.778
1239.00,49.768
1240.00,49.749
1241.00,49.778
1242.00,49.753
1243.00,49.771
1244.00,49.757
1245.00,49.774
1246.00,49.790
1247.00,49.770
1248.00,49.761
1249.00,49.790
1250.00,49.782
1251.00,49.777
1252.00,49.793
1253.00,49.775
1254.00,49.798
1255.00,49.789
1256.00,49.761
1257.00,49.764
1258.00,49.817
1259.00,49.799
1260.00,49.830
1261.00,49.817
1262.00,49.822
1263.00,49.824
1264.00,49.803
1265.00,49.814
1266.00,49.808
1267.00,49.814
1268.00,49.826
1269.00,49.835
1270.00,49.842
1271.00,49.858
1272.00,49.848
1273.00,49.868
1274.00,49.881
1275.00,49.858
1276.00,49.842
1277.00,49.849
1278.00,49.850
1279.00,49.868
1280.00,49.855
1281.00,49.878
1282.00,49.887
1283.00,49.907
1284.00,49.873
1285.00,49.877
1286.00,49.897
1287.00,49.892
1288.00,49.895
1289.00,49.877
1290.00,49.913
1291.00,49.910
1292.00,49.901
1293.00,49.910
1294.00,49.915
1295.00,49.927
1296.00,49.926
1297.00,49.933
1298.00,49.961
1299.00,49.943
1300.00,49.951
1301.00,49.946
1302.00,49.965
1303.00,49.955
1304.00,49.951
1305.00,49.983
1306.00,49.975
1307.00,49.994
1308.00,49.985
1309.00,49.999
1310.00,50.006
1311.00,49.994
1312.00,49.998
1313.00,50.026
1314.00,50.031
1315.00,50.043
1316.00,50.033
1317.00,50.062
1318.00,50.063
1319.00,50.056
1320.00,50.067
1321.00,50.227
1322.00,50.204
1323.00,50.187
1324.00,50.195
1325.00,50.166
1326.00,50.210
1327.00,50.200
1328.00,50.194
1329.00,50.201
1330.00,50.209
1331.00,50.187
1332.00,50.198
1333.00,50.189
1334.00,50.216
1335.00,50.233
1336.00,50.256
1337.00,50.302
1338.00,50.363
1339.00,50.391
1340.00,50.458
1341.00,50.515
1342.00,50.577
1343.00,50.627
1344.00,50.662
1345.00,50.718
1346.00,50.763
1347.00,50.778
1348.00,50.801
1349.00,50.830
1350.00,50.841
1351.00,50.860
1352.00,50.867
1353.00,50.887
1354.00,50.876
1355.00,50.795
1356.00,50.925
1357.00,50.871
1358.00,50.884
1359.00,50.909
1360.00,50.936
1361.00,50.894
1362.00,50.924
1363.00,50.941
1364.00,50.898
1365.00,50.914
1366.00,50.919
1367.00,50.896
1368.00,50.909
1369.00,50.889
1370.00,50.880
1371.00,50.834
1372.00,50.860
1373.00,50.886
1374.00,50.909
1375.00,50.864
1376.00,50.867
1377.00,50.856
1378.00,50.944
1379.00,50.914
1380.00,50.881
1381.00,50.907
1382.00,50.791
1383.00,50.850
1384.00,50.834
1385.00,50.854
1386.00,50.885
1387.00,50.889
1388.00,50.813
1389.00,50.895
1390.00,50.824
1391.00,50.880
1392.00,50.840
1393.00,50.903
1394.00,50.863
1395.00,50.810
1396.00,50.844
1397.00,50.892
1398.00,50.883
1399.00,50.858
1400.00,50.852
1401.00,50.886
1402.00,50.904
1403.00,50.822
1404.00,50.887
1405.00,50.893
1406.00,50.964
1407.00,50.916
1408.00,50.893
1409.00,50.917
1410.00,50.957
1411.00,50.922
1412.00,51.001
1413.00,50.919
1414.00,50.911
1415.00,50.962
1416.00,50.990
1417.00,51.035
1418.00,50.996
1419.00,50.998
1420.00,51.037
1421.00,51.051
1422.00,51.054
1423.00,51.089
1424.00,51.076
1425.00,51.104
1426.00,51.118
1427.00,51.112
1428.00,51.116
1429.00,51.146
1430.00,51.136
1431.00,51.173
1432.00,51.174
1433.00,51.194
1434.00,51.205
1435.00,51.244
1436.00,51.245
1437.00,51.244
1438.00,51.253
1439.00,51.299
1440.00,51.306
1441.00,51.305
1442.00,51.323
1443.00,51.366
1444.00,51.407
1445.00,51.350
1446.00,51.366
1447.00,51.419
1448.00,51.451
1449.00,51.465
1450.00,51.508
1451.00,51.462
1452.00,51.474
1453.00,51.475
1454.00,51.485
1455.00,51.515
1456.00,51.544
1457.00,51.526
1458.00,51.563
1459.00,51.570
1460.00,51.587
1461.00,51.590
1462.00,51.629
1463.00,51.630
1464.00,51.668
1465.00,51.655
1466.00,51.637
1467.00,51.655
1468.00,51.689
1469.00,51.685
1470.00,51.700
1471.00,51.718
1472.00,51.741
1473.00,51.741
1474.00,51.762
1475.00,51.771
1476.00,51.800
1477.00,51.777
1478.00,51.817
1479.00,51.828
1480.00,51.844
1481.00,51.849
1482.00,51.888
1483.00,51.900
1484.00,51.914
1485.00,51.923
1486.00,51.942
1487.00,51.952
1488.00,51.965
1489.00,51.976
1490.00,51.987
1491.00,51.993
1492.00,52.029
1493.00,51.997
1494.00,52.050
1495.00,52.040
1496.00,52.045
1497.00,52.049
1498.00,52.048
1499.00,52.054
1500.00,52.083
1501.00, 
1502.00, 
1503.00, 
1504.00, 
1505.00, 
1506.00, 
1507.00, 
1508.00, 
1509.00, 
1510.00, 
1511.00, 
1512.00, 
1513.00, 
1514.00, 
1515.00, 
1516.00, 
1517.00, 
1518.00, 
1519.00, 
1520.00, 
1521.00, 
1522.00, 
1523.00, 
1524.00, 
1525.00, 
1526.00, 
1527.00, 
1528.00, 
1529.00, 
1530.00, 
1531.00, 
1532.00, 
1533.00, 
1534.00, 
1535.00, 
1536.00, 
1537.00, 
1538.00, 
1539.00, 
1540.00, 
1541.00, 
1542.00, 
1543.00, 
1544.00, 
1545.00, 
1546.00, 
1547.00, 
1548.00, 
1549.00, 
1550.00, 
1551.00, 
1552.00, 
1553.00, 
1554.00, 
1555.00, 
1556.00, 
1557.00, 
1558.00, 
1559.00, 
1560.00, 
1561.00, 
1562.00, 
1563.00, 
1564.00, 
1565.00, 
1566.00, 
1567.00, 
1568.00, 
1569.00, 
1570.00, 
1571.00, 
1572.00, 
1573.00, 
1574.00, 
1575.00, 
1576.00, 
1577.00, 
1578.00, 
1579.00, 
1580.00, 
1581.00, 
1582.00, 
1583.00, 
1584.00, 
1585.00, 
1586.00, 
1587.00, 
1588.00, 
1589.00, 
1590.00, 
1591.00, 
1592.00, 
1593.00, 
1594.00, 
1595.00, 
1596.00, 
1597.00, 
1598.00, 
1599.00, 
1600.00, 
1601.00, 
1602.00, 
1603.00, 
1604.00, 
1605.00, 
1606.00, 
1607.00, 
1608.00, 
1609.00, 
1610.00, 
1611.00, 
1612.00, 
1613.00, 
1614.00, 
1615.00, 
1616.00, 
1617.00, 
1618.00, 
1619.00, 
1620.00, 
1621.00, 
1622.00, 
1623.00, 
1624.00, 
1625.00, 
1626.00, 
1627.00, 
1628.00, 
1629.00, 
1630.00, 
1631.00, 
1632.00, 
1633.00, 
1634.00, 
1635.00, 
1636.00, 
1637.00, 
1638.00, 
1639.00, 
1640.00, 
1641.00, 
1642.00, 
1643.00, 
1644.00, 
1645.00, 
1646.00, 
1647.00, 
1648.00, 
1649.00, 
1650.00, 
1651.00, 
1652.00, 
1653.00, 
1654.00, 
1655.00, 
1656.00, 
1657.00, 
1658.00, 
1659.00, 
1660.00, 
1661.00, 
1662.00, 
1663.00, 
1664.00, 
1665.00, 
1666.00, 
1667.00, 
1668.00, 
1669.00, 
1670.00, 
1671.00, 
1672.00, 
1673.00, 
1674.00, 
1675.00, 
1676.00, 
1677.00, 
1678.00, 
1679.00, 
1680.00, 
1681.00, 
1682.00, 
1683.00, 
1684.00, 
1685.00, 
1686.00, 
1687.00, 
1688.00, 
1689.00, 
1690.00, 
1691.00, 
1692.00, 
1693.00, 
1694.00, 
1695.00, 
1696.00, 
1697.00, 
1698.00, 
1699.00, 
1700.00, 
1701.00, 
1702.00, 
1703.00, 
1704.00, 
1705.00, 
1706.00, 
1707.00, 
1708.00, 
1709.00, 
1710.00, 
1711.00, 
1712.00, 
1713.00, 
1714.00, 
1715.00, 
1716.00, 
1717.00, 
1718.00, 
1719.00, 
1720.00, 
1721.00, 
1722.00, 
1723.00, 
1724.00, 
1725.00, 
1726.00, 
1727.00, 
1728.00, 
1729.00, 
1730.00, 
1731.00, 
1732.00, 
1733.00, 
1734.00, 
1735.00, 
1736.00, 
1737.00, 
1738.00, 
1739.00, 
1740.00, 
1741.00, 
1742.00, 
1743.00, 
1744.00, 
1745.00, 
1746.00, 
1747.00, 
1748.00, 
1749.00, 
1750.00, 
1751.00, 
1752.00, 
1753.00, 
1754.00, 
1755.00, 
1756.00, 
1757.00, 
1758.00, 
1759.00, 
1760.00, 
1761.00, 
1762.00, 
1763.00, 
1764.00, 
1765.00, 
1766.00, 
1767.00, 
1768.00, 
1769.00, 
1770.00, 
1771.00, 
1772.00, 
1773.00, 
1774.00, 
1775.00, 
1776.00, 
1777.00, 
1778.00, 
1779.00, 
1780.00, 
1781.00, 
1782.00, 
1783.00, 
1784.00, 
1785.00, 
1786.00, 
1787.00, 
1788.00, 
1789.00, 
1790.00, 
1791.00, 
1792.00, 
1793.00, 
1794.00, 
1795.00, 
1796.00, 
1797.00, 
1798.00, 
1799.00, 
1800.00, 
1801.00, 
1802.00, 
1803.00, 
1804.00, 
1805.00, 
1806.00, 
1807.00, 
1808.00, 
1809.00, 
1810.00, 
1811.00, 
1812.00, 
1813.00, 
1814.00, 
1815.00, 
1816.00, 
1817.00, 
1818.00, 
1819.00, 
1820.00, 
1821.00, 
1822.00, 
1823.00, 
1824.00, 
1825.00, 
1826.00, 
1827.00, 
1828.00, 
1829.00, 
1830.00, 
1831.00, 
1832.00, 
1833.00, 
1834.00, 
1835.00, 
1836.00, 
1837.00, 
1838.00, 
1839.00, 
1840.00, 
1841.00, 
1842.00, 
1843.00, 
1844.00, 
1845.00, 
1846.00, 
1847.00, 
1848.00, 
1849.00, 
1850.00, 
1851.00, 
1852.00, 
1853.00, 
1854.00, 
1855.00, 
1856.00, 
1857.00, 
1858.00, 
1859.00, 
1860.00, 
1861.00, 
1862.00, 
1863.00, 
1864.00, 
1865.00, 
1866.00, 
1867.00, 
1868.00, 
1869.00, 
1870.00, 
1871.00, 
1872.00, 
1873.00, 
1874.00, 
1875.00, 
1876.00, 
1877.00, 
1878.00, 
1879.00, 
1880.00, 
1881.00, 
1882.00, 
1883.00, 
1884.00, 
1885.00, 
1886.00, 
1887.00, 
1888.00, 
1889.00, 
1890.00, 
1891.00, 
1892.00, 
1893.00, 
1894.00, 
1895.00, 
1896.00, 
1897.00, 
1898.00, 
1899.00, 
1900.00, 
1901.00, 
1902.00, 
1903.00, 
1904.00, 
1905.00, 
1906.00, 
1907.00, 
1908.00, 
1909.00, 
1910.00, 
1911.00, 
1912.00, 
1913.00, 
1914.00, 
1915.00, 
1916.00, 
1917.00, 
1918.00, 
1919.00, 
1920.00, 
1921.00, 
1922.00, 
1923.00, 
1924.00, 
1925.00, 
1926.00, 
1927.00, 
1928.00, 
1929.00, 
1930.00, 
1931.00, 
1932.00, 
1933.00, 
1934.00, 
1935.00, 
1936.00, 
1937.00, 
1938.00, 
1939.00, 
1940.00, 
1941.00, 
1942.00, 
1943.00, 
1944.00, 
1945.00, 
1946.00, 
1947.00, 
1948.00, 
1949.00, 
1950.00, 
1951.00, 
1952.00, 
1953.00, 
1954.00, 
1955.00, 
1956.00, 
1957.00, 
1958.00, 
1959.00, 
1960.00, 
1961.00, 
1962.00, 
1963.00, 
1964.00, 
1965.00, 
1966.00, 
1967.00, 
1968.00, 
1969.00, 
1970.00, 
1971.00, 
1972.00, 
1973.00, 
1974.00, 
1975.00, 
1976.00, 
1977.00, 
1978.00, 
1979.00, 
1980.00, 
1981.00, 
1982.00, 
1983.00, 
1984.00, 
1985.00, 
1986.00, 
1987.00, 
1988.00, 
1989.00, 
1990.00, 
1991.00, 
1992.00, 
1993.00, 
1994.00, 
1995.00, 
1996.00, 
1997.00, 
1998.00, 
1999.00, 
2000.00, 
2001.00, 
2002.00, 
2003.00, 
2004.00, 
2005.00, 
2006.00, 
2007.00, 
2008.00, 
2009.00, 
2010.00, 
2011.00, 
2012.00, 
2013.00, 
2014.00, 
2015.00, 
2016.00, 
2017.00, 
2018.00, 
2019.00, 
2020.00, 
2021.00, 
2022.00, 
2023.00, 
2024.00, 
2025.00, 
2026.00, 
2027.00, 
2028.00, 
2029.00, 
2030.00, 
2031.00, 
2032.00, 
2033.00, 
2034.00, 
2035.00, 
2036.00, 
2037.00, 
2038.00, 
2039.00, 
2040.00, 
2041.00, 
2042.00, 
2043.00, 
2044.00, 
2045.00, 
2046.00, 
2047.00, 
2048.00, 
2049.00, 
2050.00, 
2051.00, 
2052.00, 
2053.00, 
2054.00, 
2055.00, 
2056.00, 
2057.00, 
2058.00, 
2059.00, 
2060.00, 
2061.00, 
2062.00, 
2063.00, 
2064.00, 
2065.00, 
2066.00, 
2067.00, 
2068.00, 
2069.00, 
2070.00, 
2071.00, 
2072.00, 
2073.00, 
2074.00, 
2075.00, 
2076.00, 
2077.00, 
2078.00, 
2079.00, 
2080.00, 
2081.00, 
2082.00, 
2083.00, 
2084.00, 
2085.00, 
2086.00, 
2087.00, 
2088.00, 
2089.00, 
2090.00, 
2091.00, 
2092.00, 
2093.00, 
2094.00, 
2095.00, 
2096.00, 
2097.00, 
2098.00, 
2099.00, 
2100.00, 
2101.00, 
2102.00, 
2103.00, 
2104.00, 
2105.00, 
2106.00, 
2107.00, 
2108.00, 
2109.00, 
2110.00, 
2111.00, 
2112.00, 
2113.00, 
2114.00, 
2115.00, 
2116.00, 
2117.00, 
2118.00, 
2119.00, 
2120.00, 
2121.00, 
2122.00, 
2123.00, 
2124.00, 
2125.00, 
2126.00, 
2127.00, 
2128.00, 
2129.00, 
2130.00, 
2131.00, 
2132.00, 
2133.00, 
2134.00, 
2135.00, 
2136.00, 
2137.00, 
2138.00, 
2139.00, 
2140.00, 
2141.00, 
2142.00, 
2143.00, 
2144.00, 
2145.00, 
2146.00, 
2147.00, 
2148.00, 
2149.00, 
2150.00, 
2151.00, 
2152.00, 
2153.00, 
2154.00, 
2155.00, 
2156.00, 
2157.00, 
2158.00, 
2159.00, 
2160.00, 
2161.00, 
2162.00, 
2163.00, 
2164.00, 
2165.00, 
2166.00, 
2167.00, 
2168.00, 
2169.00, 
2170.00, 
2171.00, 
2172.00, 
2173.00, 
2174.00, 
2175.00, 
2176.00, 
2177.00, 
2178.00, 
2179.00, 
2180.00, 
2181.00, 
2182.00, 
2183.00, 
2184.00, 
2185.00, 
2186.00, 
2187.00, 
2188.00, 
2189.00, 
2190.00, 
2191.00, 
2192.00, 
2193.00, 
2194.00, 
2195.00, 
2196.00, 
2197.00, 
2198.00, 
2199.00, 
2200.00, 
2201.00, 
2202.00, 
2203.00, 
2204.00, 
2205.00, 
2206.00, 
2207.00, 
2208.00, 
2209.00, 
2210.00, 
2211.00, 
2212.00, 
2213.00, 
2214.00, 
2215.00, 
2216.00, 
2217.00, 
2218.00, 
2219.00, 
2220.00, 
2221.00, 
2222.00, 
2223.00, 
2224.00, 
2225.00, 
2226.00, 
2227.00, 
2228.00, 
2229.00, 
2230.00, 
2231.00, 
2232.00, 
2233.00, 
2234.00, 
2235.00, 
2236.00, 
2237.00, 
2238.00, 
2239.00, 
2240.00, 
2241.00, 
2242.00, 
2243.00, 
2244.00, 
2245.00, 
2246.00, 
2247.00, 
2248.00, 
2249.00, 
2250.00, 
2251.00, 
2252.00, 
2253.00, 
2254.00, 
2255.00, 
2256.00, 
2257.00, 
2258.00, 
2259.00, 
2260.00, 
2261.00, 
2262.00, 
2263.00, 
2264.00, 
2265.00, 
2266.00, 
2267.00, 
2268.00, 
2269.00, 
2270.00, 
2271.00, 
2272.00, 
2273.00, 
2274.00, 
2275.00, 
2276.00, 
2277.00, 
2278.00, 
2279.00, 
2280.00, 
2281.00, 
2282.00, 
2283.00, 
2284.00, 
2285.00, 
2286.00, 
2287.00, 
2288.00, 
2289.00, 
2290.00, 
2291.00, 
2292.00, 
2293.00, 
2294.00, 
2295.00, 
2296.00, 
2297.00, 
2298.00, 
2299.00, 
2300.00, 
2301.00, 
2302.00, 
2303.00, 
2304.00, 
2305.00, 
2306.00, 
2307.00, 
2308.00, 
2309.00, 
2310.00, 
2311.00, 
2312.00, 
2313.00, 
2314.00, 
2315.00, 
2316.00, 
2317.00, 
2318.00, 
2319.00, 
2320.00, 
2321.00, 
2322.00, 
2323.00, 
2324.00, 
2325.00, 
2326.00, 
2327.00, 
2328.00, 
2329.00, 
2330.00, 
2331.00, 
2332.00, 
2333.00, 
2334.00, 
2335.00, 
2336.00, 
2337.00, 
2338.00, 
2339.00, 
2340.00, 
2341.00, 
2342.00, 
2343.00, 
2344.00, 
2345.00, 
2346.00, 
2347.00, 
2348.00, 
2349.00, 
2350.00, 
2351.00, 
2352.00, 
2353.00, 
2354.00, 
2355.00, 
2356.00, 
2357.00, 
2358.00, 
2359.00, 
2360.00, 
2361.00, 
2362.00, 
2363.00, 
2364.00, 
2365.00, 
2366.00, 
2367.00, 
2368.00, 
2369.00, 
2370.00, 
2371.00, 
2372.00, 
2373.00, 
2374.00, 
2375.00, 
2376.00, 
2377.00, 
2378.00, 
2379.00, 
2380.00, 
2381.00, 
2382.00, 
2383.00, 
2384.00, 
2385.00, 
2386.00, 
2387.00, 
2388.00, 
2389.00, 
2390.00, 
2391.00, 
2392.00, 
2393.00, 
2394.00, 
2395.00, 
2396.00, 
2397.00, 
2398.00, 
2399.00, 
2400.00, 
2401.00, 
2402.00, 
2403.00, 
2404.00, 
2405.00, 
2406.00, 
2407.00, 
2408.00, 
2409.00, 
2410.00, 
2411.00, 
2412.00, 
2413.00, 
2414.00, 
2415.00, 
2416.00, 
2417.00, 
2418.00, 
2419.00, 
2420.00, 
2421.00, 
2422.00, 
2423.00, 
2424.00, 
2425.00, 
2426.00, 
2427.00, 
2428.00, 
2429.00, 
2430.00, 
2431.00, 
2432.00, 
2433.00, 
2434.00, 
2435.00, 
2436.00, 
2437.00, 
2438.00, 
2439.00, 
2440.00, 
2441.00, 
2442.00, 
2443.00, 
2444.00, 
2445.00, 
2446.00, 
2447.00, 
2448.00, 
2449.00, 
2450.00, 
2451.00, 
2452.00, 
2453.00, 
2454.00, 
2455.00, 
2456.00, 
2457.00, 
2458.00, 
2459.00, 
2460.00, 
2461.00, 
2462.00, 
2463.00, 
2464.00, 
2465.00, 
2466.00, 
2467.00, 
2468.00, 
2469.00, 
2470.00, 
2471.00, 
2472.00, 
2473.00, 
2474.00, 
2475.00, 
2476.00, 
2477.00, 
2478.00, 
2479.00, 
2480.00, 
2481.00, 
2482.00, 
2483.00, 
2484.00, 
2485.00, 
2486.00, 
2487.00, 
2488.00, 
2489.00, 
2490.00, 
2491.00, 
2492.00, 
2493.00, 
2494.00, 
2495.00, 
2496.00, 
2497.00, 
2498.00, 
2499.00, 
2500.00, 
2501.00, 
2502.00, 
2503.00, 
2504.00, 
2505.00, 
2506.00, 
2507.00, 
2508.00, 
2509.00, 
2510.00, 
2511.00, 
2512.00, 
2513.00, 
2514.00, 
2515.00, 
2516.00, 
2517.00, 
2518.00, 
2519.00, 
2520.00, 
2521.00, 
2522.00, 
2523.00, 
2524.00, 
2525.00, 
2526.00, 
2527.00, 
2528.00, 
2529.00, 
2530.00, 
2531.00, 
2532.00, 
2533.00, 
2534.00, 
2535.00, 
2536.00, 
2537.00, 
2538.00, 
2539.00, 
2540.00, 
2541.00, 
2542.00, 
2543.00, 
2544.00, 
2545.00, 
2546.00, 
2547.00, 
2548.00, 
2549.00, 
2550.00, 
2551.00, 
2552.00, 
2553.00, 
2554.00, 
2555.00, 
2556.00, 
2557.00, 
2558.00, 
2559.00, 
2560.00, 
2561.00, 
2562.00, 
2563.00, 
2564.00, 
2565.00, 
2566.00, 
2567.00, 
2568.00, 
2569.00, 
2570.00, 
2571.00, 
2572.00, 
2573.00, 
2574.00, 
2575.00, 
2576.00, 
2577.00, 
2578.00, 
2579.00, 
2580.00, 
2581.00, 
2582.00, 
2583.00, 
2584.00, 
2585.00, 
2586.00, 
2587.00, 
2588.00, 
2589.00, 
2590.00, 
2591.00, 
2592.00, 
2593.00, 
2594.00, 
2595.00, 
2596.00, 
2597.00, 
2598.00, 
2599.00, 
2600.00, 
