"1bP2 - RawData"
"Wavelength nm.","T%"
200.00,0.003
201.00,0.000
202.00,-0.003
203.00,0.004
204.00,0.002
205.00,-0.001
206.00,-0.001
207.00,-0.001
208.00,0.004
209.00,0.001
210.00,-0.002
211.00,0.001
212.00,0.002
213.00,-0.000
214.00,0.001
215.00,0.001
216.00,0.001
217.00,0.000
218.00,0.001
219.00,-0.001
220.00,0.003
221.00,0.003
222.00,0.001
223.00,0.001
224.00,0.001
225.00,0.003
226.00,0.003
227.00,-0.000
228.00,0.002
229.00,-0.001
230.00,0.001
231.00,-0.003
232.00,-0.000
233.00,0.003
234.00,0.001
235.00,0.001
236.00,0.001
237.00,-0.001
238.00,0.001
239.00,0.001
240.00,-0.000
241.00,-0.001
242.00,-0.000
243.00,0.001
244.00,-0.000
245.00,0.000
246.00,-0.000
247.00,0.001
248.00,0.002
249.00,0.001
250.00,0.000
251.00,0.000
252.00,0.001
253.00,0.000
254.00,0.000
255.00,0.001
256.00,-0.001
257.00,-0.001
258.00,-0.001
259.00,-0.001
260.00,0.000
261.00,0.001
262.00,0.001
263.00,0.001
264.00,0.001
265.00,-0.001
266.00,-0.000
267.00,-0.001
268.00,0.001
269.00,-0.001
270.00,-0.000
271.00,0.001
272.00,0.001
273.00,-0.000
274.00,-0.001
275.00,0.000
276.00,0.001
277.00,-0.001
278.00,0.002
279.00,0.000
280.00,0.001
281.00,0.002
282.00,0.001
283.00,-0.001
284.00,0.002
285.00,0.000
286.00,0.001
287.00,0.000
288.00,0.001
289.00,0.000
290.00,-0.001
291.00,0.003
292.00,-0.000
293.00,-0.000
294.00,0.000
295.00,-0.000
296.00,0.001
297.00,0.001
298.00,0.002
299.00,0.003
300.00,0.004
301.00,0.007
302.00,0.009
303.00,0.015
304.00,0.022
305.00,0.035
306.00,0.053
307.00,0.081
308.00,0.127
309.00,0.190
310.00,0.267
311.00,0.358
312.00,0.484
313.00,0.652
314.00,0.841
315.00,1.093
316.00,1.374
317.00,1.741
318.00,2.119
319.00,2.578
320.00,3.120
321.00,3.679
322.00,4.321
323.00,5.044
324.00,5.790
325.00,6.547
326.00,7.324
327.00,8.223
328.00,9.103
329.00,9.949
330.00,10.932
331.00,11.837
332.00,12.795
333.00,13.795
334.00,14.719
335.00,15.648
336.00,16.566
337.00,17.512
338.00,18.402
339.00,19.252
340.00,20.012
341.00,20.894
342.00,21.644
343.00,22.321
344.00,23.054
345.00,23.696
346.00,24.407
347.00,24.959
348.00,25.517
349.00,26.044
350.00,26.505
351.00,26.959
352.00,27.351
353.00,27.748
354.00,28.102
355.00,28.463
356.00,28.817
357.00,29.036
358.00,29.311
359.00,29.679
360.00,29.962
361.00,30.095
362.00,30.286
363.00,30.552
364.00,30.648
365.00,30.777
366.00,30.868
367.00,30.934
368.00,31.061
369.00,31.107
370.00,31.155
371.00,31.208
372.00,31.166
373.00,31.217
374.00,31.268
375.00,31.244
376.00,31.134
377.00,31.133
378.00,31.005
379.00,30.915
380.00,30.880
381.00,30.909
382.00,30.887
383.00,30.935
384.00,30.947
385.00,30.999
386.00,30.952
387.00,31.114
388.00,31.182
389.00,31.126
390.00,31.233
391.00,31.253
392.00,31.274
393.00,31.363
394.00,31.214
395.00,31.368
396.00,31.351
397.00,31.445
398.00,31.475
399.00,31.503
400.00,31.480
401.00,31.475
402.00,31.508
403.00,31.468
404.00,31.514
405.00,31.441
406.00,31.466
407.00,31.403
408.00,31.445
409.00,31.331
410.00,31.221
411.00,31.229
412.00,31.191
413.00,31.241
414.00,31.186
415.00,31.218
416.00,31.292
417.00,31.239
418.00,31.247
419.00,31.332
420.00,31.397
421.00,31.443
422.00,31.368
423.00,31.472
424.00,31.455
425.00,31.546
426.00,31.528
427.00,31.594
428.00,31.640
429.00,31.662
430.00,31.703
431.00,31.762
432.00,31.789
433.00,31.843
434.00,31.895
435.00,31.988
436.00,32.022
437.00,32.053
438.00,32.164
439.00,32.174
440.00,32.254
441.00,32.312
442.00,32.414
443.00,32.491
444.00,32.559
445.00,32.613
446.00,32.754
447.00,32.779
448.00,32.866
449.00,32.969
450.00,33.057
451.00,33.155
452.00,33.195
453.00,33.363
454.00,33.436
455.00,33.471
456.00,33.658
457.00,33.757
458.00,33.787
459.00,33.929
460.00,34.056
461.00,34.119
462.00,34.263
463.00,34.384
464.00,34.461
465.00,34.620
466.00,34.751
467.00,34.789
468.00,34.908
469.00,35.141
470.00,35.028
471.00,35.143
472.00,35.297
473.00,35.319
474.00,35.391
475.00,35.515
476.00,35.576
477.00,35.693
478.00,35.780
479.00,36.019
480.00,36.082
481.00,36.121
482.00,36.296
483.00,36.358
484.00,36.554
485.00,36.701
486.00,36.795
487.00,36.959
488.00,37.057
489.00,37.221
490.00,37.358
491.00,37.436
492.00,37.703
493.00,37.785
494.00,37.706
495.00,37.842
496.00,37.860
497.00,38.068
498.00,38.178
499.00,38.311
500.00,38.436
501.00,38.512
502.00,38.687
503.00,38.698
504.00,38.722
505.00,38.870
506.00,38.973
507.00,39.015
508.00,39.120
509.00,39.238
510.00,39.381
511.00,39.443
512.00,39.523
513.00,39.750
514.00,39.835
515.00,39.938
516.00,40.017
517.00,40.055
518.00,40.201
519.00,40.208
520.00,40.201
521.00,40.310
522.00,40.408
523.00,40.409
524.00,40.505
525.00,40.616
526.00,40.654
527.00,40.685
528.00,40.738
529.00,40.933
530.00,41.090
531.00,41.095
532.00,41.175
533.00,41.292
534.00,41.313
535.00,41.389
536.00,41.479
537.00,41.517
538.00,41.524
539.00,41.564
540.00,41.671
541.00,41.673
542.00,41.662
543.00,41.762
544.00,41.881
545.00,41.843
546.00,41.864
547.00,41.953
548.00,42.079
549.00,42.112
550.00,42.162
551.00,42.319
552.00,42.367
553.00,42.334
554.00,42.414
555.00,42.398
556.00,42.527
557.00,42.539
558.00,42.598
559.00,42.619
560.00,42.720
561.00,42.759
562.00,42.819
563.00,42.833
564.00,42.844
565.00,42.895
566.00,42.858
567.00,42.893
568.00,42.923
569.00,42.959
570.00,42.988
571.00,42.992
572.00,43.001
573.00,43.009
574.00,43.015
575.00,42.996
576.00,42.986
577.00,43.008
578.00,43.132
579.00,43.187
580.00,43.121
581.00,43.367
582.00,43.455
583.00,43.337
584.00,43.461
585.00,43.579
586.00,43.573
587.00,43.669
588.00,43.665
589.00,43.580
590.00,43.654
591.00,43.725
592.00,43.716
593.00,43.630
594.00,43.703
595.00,43.892
596.00,43.790
597.00,43.924
598.00,44.035
599.00,43.863
600.00,43.803
601.00,44.021
602.00,44.228
603.00,44.093
604.00,44.161
605.00,44.189
606.00,44.151
607.00,44.173
608.00,44.354
609.00,44.404
610.00,44.257
611.00,44.330
612.00,44.304
613.00,44.350
614.00,44.343
615.00,44.416
616.00,44.513
617.00,44.531
618.00,44.488
619.00,44.591
620.00,44.599
621.00,44.560
622.00,44.703
623.00,44.737
624.00,44.768
625.00,44.813
626.00,44.820
627.00,44.846
628.00,44.848
629.00,44.958
630.00,44.941
631.00,44.959
632.00,45.015
633.00,45.177
634.00,45.224
635.00,45.262
636.00,45.316
637.00,45.333
638.00,45.313
639.00,45.443
640.00,45.506
641.00,45.463
642.00,45.510
643.00,45.619
644.00,45.647
645.00,45.660
646.00,45.731
647.00,45.801
648.00,45.801
649.00,45.815
650.00,45.873
651.00,45.949
652.00,46.040
653.00,46.004
654.00,46.017
655.00,46.243
656.00,46.381
657.00,46.263
658.00,46.336
659.00,46.394
660.00,46.517
661.00,46.451
662.00,46.426
663.00,46.502
664.00,46.827
665.00,46.907
666.00,46.777
667.00,46.845
668.00,46.806
669.00,47.002
670.00,47.242
671.00,47.060
672.00,47.167
673.00,47.138
674.00,47.163
675.00,47.205
676.00,47.527
677.00,47.564
678.00,47.402
679.00,47.487
680.00,47.557
681.00,47.642
682.00,47.643
683.00,47.663
684.00,47.843
685.00,47.927
686.00,47.781
687.00,47.820
688.00,47.848
689.00,47.793
690.00,48.060
691.00,48.297
692.00,47.878
693.00,48.035
694.00,48.186
695.00,48.022
696.00,48.063
697.00,48.457
698.00,48.393
699.00,48.533
700.00,48.675
701.00,48.509
702.00,48.593
703.00,48.823
704.00,48.779
705.00,48.743
706.00,48.822
707.00,48.819
708.00,48.605
709.00,48.923
710.00,49.346
711.00,48.906
712.00,48.901
713.00,49.028
714.00,49.045
715.00,49.117
716.00,48.996
717.00,49.057
718.00,49.378
719.00,49.195
720.00,49.344
721.00,53.994
722.00,53.967
723.00,53.874
724.00,53.861
725.00,53.833
726.00,53.828
727.00,53.824
728.00,53.908
729.00,53.897
730.00,53.860
731.00,53.902
732.00,53.807
733.00,53.929
734.00,53.826
735.00,53.905
736.00,53.876
737.00,53.859
738.00,54.040
739.00,53.904
740.00,53.954
741.00,53.957
742.00,53.865
743.00,53.826
744.00,53.811
745.00,53.892
746.00,53.892
747.00,53.836
748.00,53.771
749.00,53.717
750.00,53.768
751.00,53.654
752.00,53.717
753.00,53.621
754.00,53.649
755.00,53.659
756.00,53.719
757.00,53.645
758.00,53.661
759.00,53.604
760.00,53.663
761.00,53.705
762.00,53.629
763.00,53.632
764.00,53.614
765.00,53.643
766.00,53.656
767.00,53.588
768.00,53.547
769.00,53.579
770.00,53.557
771.00,53.587
772.00,53.646
773.00,53.510
774.00,53.571
775.00,53.565
776.00,53.536
777.00,53.546
778.00,53.582
779.00,53.537
780.00,53.460
781.00,53.568
782.00,53.376
783.00,53.418
784.00,53.521
785.00,53.414
786.00,53.391
787.00,53.399
788.00,53.373
789.00,53.333
790.00,53.290
791.00,53.400
792.00,53.326
793.00,53.254
794.00,53.282
795.00,53.259
796.00,53.305
797.00,53.099
798.00,53.158
799.00,53.065
800.00,53.033
801.00,53.110
802.00,53.086
803.00,52.997
804.00,53.001
805.00,53.001
806.00,52.956
807.00,52.885
808.00,52.978
809.00,52.912
810.00,52.898
811.00,52.892
812.00,52.923
813.00,52.787
814.00,52.882
815.00,52.865
816.00,52.770
817.00,52.843
818.00,52.642
819.00,52.743
820.00,52.626
821.00,52.742
822.00,52.677
823.00,52.708
824.00,52.718
825.00,52.501
826.00,52.555
827.00,52.739
828.00,52.677
829.00,52.485
830.00,52.612
831.00,55.136
832.00,55.159
833.00,55.108
834.00,55.055
835.00,55.014
836.00,55.024
837.00,55.022
838.00,55.014
839.00,54.992
840.00,54.947
841.00,54.967
842.00,54.897
843.00,54.915
844.00,54.889
845.00,54.823
846.00,54.825
847.00,54.821
848.00,54.776
849.00,54.782
850.00,54.728
851.00,54.697
852.00,54.686
853.00,54.644
854.00,54.630
855.00,54.572
856.00,54.577
857.00,54.549
858.00,54.485
859.00,54.485
860.00,54.454
861.00,54.489
862.00,54.401
863.00,54.410
864.00,54.351
865.00,54.386
866.00,54.344
867.00,54.368
868.00,54.378
869.00,54.341
870.00,54.347
871.00,54.337
872.00,54.308
873.00,54.351
874.00,54.242
875.00,54.252
876.00,54.274
877.00,54.243
878.00,54.231
879.00,54.230
880.00,54.218
881.00,54.184
882.00,54.207
883.00,54.159
884.00,54.130
885.00,54.119
886.00,54.117
887.00,54.065
888.00,54.070
889.00,54.076
890.00,54.056
891.00,54.012
892.00,53.975
893.00,53.960
894.00,53.969
895.00,53.935
896.00,53.912
897.00,53.904
898.00,53.872
899.00,53.862
900.00,53.860
901.00,53.860
902.00,53.855
903.00,53.795
904.00,53.801
905.00,53.779
906.00,53.753
907.00,53.763
908.00,53.715
909.00,53.707
910.00,53.654
911.00,53.644
912.00,53.664
913.00,53.600
914.00,53.612
915.00,53.595
916.00,53.561
917.00,53.509
918.00,53.536
919.00,53.521
920.00,53.444
921.00,53.483
922.00,53.511
923.00,53.456
924.00,53.432
925.00,53.422
926.00,53.414
927.00,53.393
928.00,53.343
929.00,53.361
930.00,53.327
931.00,53.297
932.00,53.269
933.00,53.270
934.00,53.248
935.00,53.220
936.00,53.199
937.00,53.208
938.00,53.192
939.00,53.180
940.00,53.143
941.00,53.152
942.00,53.102
943.00,53.102
944.00,53.169
945.00,53.067
946.00,53.052
947.00,53.022
948.00,53.019
949.00,52.997
950.00,52.967
951.00,52.955
952.00,52.943
953.00,52.866
954.00,52.870
955.00,52.825
956.00,52.807
957.00,52.782
958.00,52.823
959.00,52.747
960.00,52.745
961.00,52.732
962.00,52.745
963.00,52.711
964.00,52.688
965.00,52.703
966.00,52.681
967.00,52.670
968.00,52.656
969.00,52.687
970.00,52.656
971.00,52.663
972.00,52.619
973.00,52.685
974.00,52.748
975.00,52.628
976.00,52.667
977.00,52.647
978.00,52.687
979.00,52.639
980.00,52.660
981.00,52.679
982.00,52.630
983.00,52.659
984.00,52.641
985.00,52.657
986.00,52.617
987.00,52.628
988.00,52.580
989.00,52.570
990.00,52.585
991.00,52.568
992.00,52.594
993.00,52.562
994.00,52.537
995.00,52.538
996.00,52.538
997.00,52.515
998.00,52.508
999.00,52.530
1000.00,52.460
1001.00,52.477
1002.00,52.470
1003.00,52.462
1004.00,52.439
1005.00,52.407
1006.00,52.442
1007.00,52.398
1008.00,52.384
1009.00,52.392
1010.00,52.387
1011.00,52.366
1012.00,52.349
1013.00,52.359
1014.00,52.301
1015.00,52.329
1016.00,52.250
1017.00,52.270
1018.00,52.233
1019.00,52.185
1020.00,52.252
1021.00,52.204
1022.00,52.200
1023.00,52.141
1024.00,52.138
1025.00,52.141
1026.00,52.143
1027.00,52.105
1028.00,52.104
1029.00,52.113
1030.00,52.051
1031.00,52.090
1032.00,52.046
1033.00,52.022
1034.00,52.003
1035.00,51.965
1036.00,51.948
1037.00,51.948
1038.00,51.931
1039.00,51.902
1040.00,51.907
1041.00,51.865
1042.00,51.877
1043.00,51.854
1044.00,51.863
1045.00,51.864
1046.00,51.847
1047.00,51.861
1048.00,51.883
1049.00,51.872
1050.00,51.891
1051.00,51.930
1052.00,51.929
1053.00,51.953
1054.00,51.942
1055.00,51.962
1056.00,51.973
1057.00,51.975
1058.00,51.956
1059.00,51.961
1060.00,51.975
1061.00,51.947
1062.00,51.942
1063.00,51.950
1064.00,51.948
1065.00,51.938
1066.00,51.944
1067.00,51.930
1068.00,51.963
1069.00,51.903
1070.00,51.897
1071.00,51.879
1072.00,51.904
1073.00,51.873
1074.00,51.853
1075.00,51.847
1076.00,51.865
1077.00,51.833
1078.00,51.831
1079.00,51.842
1080.00,51.841
1081.00,51.852
1082.00,51.819
1083.00,51.818
1084.00,51.813
1085.00,51.813
1086.00,51.805
1087.00,51.814
1088.00,51.776
1089.00,51.770
1090.00,51.770
1091.00,51.762
1092.00,51.760
1093.00,51.729
1094.00,51.727
1095.00,51.723
1096.00,51.682
1097.00,51.707
1098.00,51.695
1099.00,51.665
1100.00,51.661
1101.00,51.659
1102.00,51.642
1103.00,51.654
1104.00,51.620
1105.00,51.616
1106.00,51.608
1107.00,51.591
1108.00,51.577
1109.00,51.593
1110.00,51.576
1111.00,51.576
1112.00,51.574
1113.00,51.566
1114.00,51.571
1115.00,51.556
1116.00,51.546
1117.00,51.546
1118.00,51.544
1119.00,51.552
1120.00,51.542
1121.00,51.526
1122.00,51.518
1123.00,51.525
1124.00,51.505
1125.00,51.514
1126.00,51.507
1127.00,51.542
1128.00,51.504
1129.00,51.474
1130.00,51.462
1131.00,51.469
1132.00,51.436
1133.00,51.435
1134.00,51.434
1135.00,51.409
1136.00,51.420
1137.00,51.433
1138.00,51.433
1139.00,51.437
1140.00,51.394
1141.00,51.421
1142.00,51.405
1143.00,51.421
1144.00,51.403
1145.00,51.407
1146.00,51.395
1147.00,51.395
1148.00,51.382
1149.00,51.402
1150.00,51.400
1151.00,51.373
1152.00,51.354
1153.00,51.391
1154.00,51.363
1155.00,51.369
1156.00,51.368
1157.00,51.370
1158.00,51.376
1159.00,51.360
1160.00,51.365
1161.00,51.388
1162.00,51.363
1163.00,51.369
1164.00,51.385
1165.00,51.364
1166.00,51.367
1167.00,51.356
1168.00,51.369
1169.00,51.363
1170.00,51.348
1171.00,51.343
1172.00,51.367
1173.00,51.339
1174.00,51.377
1175.00,51.369
1176.00,51.348
1177.00,51.351
1178.00,51.352
1179.00,51.359
1180.00,51.347
1181.00,51.360
1182.00,51.341
1183.00,51.337
1184.00,51.310
1185.00,51.345
1186.00,51.337
1187.00,51.328
1188.00,51.350
1189.00,51.342
1190.00,51.317
1191.00,51.338
1192.00,51.338
1193.00,51.338
1194.00,51.334
1195.00,51.296
1196.00,51.336
1197.00,51.339
1198.00,51.317
1199.00,51.336
1200.00,51.349
1201.00,51.364
1202.00,51.351
1203.00,51.345
1204.00,51.345
1205.00,51.382
1206.00,51.351
1207.00,51.363
1208.00,51.345
1209.00,51.338
1210.00,51.357
1211.00,51.360
1212.00,51.362
1213.00,51.331
1214.00,51.350
1215.00,51.329
1216.00,51.339
1217.00,51.345
1218.00,51.334
1219.00,51.362
1220.00,51.331
1221.00,51.362
1222.00,51.347
1223.00,51.367
1224.00,51.378
1225.00,51.346
1226.00,51.360
1227.00,51.340
1228.00,51.358
1229.00,51.356
1230.00,51.380
1231.00,51.352
1232.00,51.389
1233.00,51.399
1234.00,51.397
1235.00,51.408
1236.00,51.389
1237.00,51.388
1238.00,51.392
1239.00,51.393
1240.00,51.401
1241.00,51.419
1242.00,51.394
1243.00,51.418
1244.00,51.390
1245.00,51.404
1246.00,51.434
1247.00,51.403
1248.00,51.414
1249.00,51.443
1250.00,51.435
1251.00,51.430
1252.00,51.443
1253.00,51.425
1254.00,51.456
1255.00,51.440
1256.00,51.420
1257.00,51.431
1258.00,51.433
1259.00,51.441
1260.00,51.455
1261.00,51.455
1262.00,51.456
1263.00,51.461
1264.00,51.454
1265.00,51.467
1266.00,51.465
1267.00,51.487
1268.00,51.504
1269.00,51.483
1270.00,51.509
1271.00,51.516
1272.00,51.502
1273.00,51.539
1274.00,51.524
1275.00,51.527
1276.00,51.535
1277.00,51.545
1278.00,51.553
1279.00,51.562
1280.00,51.547
1281.00,51.574
1282.00,51.590
1283.00,51.555
1284.00,51.583
1285.00,51.591
1286.00,51.585
1287.00,51.586
1288.00,51.599
1289.00,51.565
1290.00,51.614
1291.00,51.600
1292.00,51.593
1293.00,51.600
1294.00,51.615
1295.00,51.638
1296.00,51.648
1297.00,51.639
1298.00,51.684
1299.00,51.648
1300.00,51.648
1301.00,51.657
1302.00,51.654
1303.00,51.646
1304.00,51.649
1305.00,51.670
1306.00,51.678
1307.00,51.696
1308.00,51.688
1309.00,51.707
1310.00,51.690
1311.00,51.686
1312.00,51.703
1313.00,51.706
1314.00,51.734
1315.00,51.758
1316.00,51.729
1317.00,51.765
1318.00,51.770
1319.00,51.765
1320.00,51.769
1321.00,51.935
1322.00,51.913
1323.00,51.917
1324.00,51.893
1325.00,51.871
1326.00,51.901
1327.00,51.873
1328.00,51.877
1329.00,51.874
1330.00,51.868
1331.00,51.885
1332.00,51.872
1333.00,51.889
1334.00,51.933
1335.00,51.966
1336.00,51.972
1337.00,52.027
1338.00,52.071
1339.00,52.130
1340.00,52.182
1341.00,52.232
1342.00,52.297
1343.00,52.333
1344.00,52.397
1345.00,52.456
1346.00,52.485
1347.00,52.487
1348.00,52.550
1349.00,52.524
1350.00,52.536
1351.00,52.597
1352.00,52.585
1353.00,52.463
1354.00,52.593
1355.00,52.532
1356.00,52.633
1357.00,52.572
1358.00,52.608
1359.00,52.623
1360.00,52.579
1361.00,52.643
1362.00,52.525
1363.00,52.657
1364.00,52.701
1365.00,52.670
1366.00,53.008
1367.00,52.776
1368.00,52.480
1369.00,52.707
1370.00,52.605
1371.00,52.520
1372.00,52.595
1373.00,52.622
1374.00,52.611
1375.00,52.606
1376.00,52.584
1377.00,52.573
1378.00,52.656
1379.00,52.637
1380.00,52.610
1381.00,52.649
1382.00,52.618
1383.00,52.658
1384.00,52.550
1385.00,52.505
1386.00,52.575
1387.00,52.624
1388.00,52.545
1389.00,52.544
1390.00,52.603
1391.00,52.617
1392.00,52.603
1393.00,52.563
1394.00,52.637
1395.00,52.571
1396.00,52.495
1397.00,52.483
1398.00,52.621
1399.00,52.599
1400.00,52.527
1401.00,52.532
1402.00,52.640
1403.00,52.606
1404.00,52.568
1405.00,52.614
1406.00,52.627
1407.00,52.572
1408.00,52.665
1409.00,52.575
1410.00,52.629
1411.00,52.609
1412.00,52.687
1413.00,52.600
1414.00,52.565
1415.00,52.566
1416.00,52.677
1417.00,52.731
1418.00,52.638
1419.00,52.672
1420.00,52.683
1421.00,52.758
1422.00,52.736
1423.00,52.741
1424.00,52.757
1425.00,52.773
1426.00,52.750
1427.00,52.792
1428.00,52.786
1429.00,52.780
1430.00,52.814
1431.00,52.844
1432.00,52.848
1433.00,52.876
1434.00,52.849
1435.00,52.916
1436.00,52.924
1437.00,52.880
1438.00,52.926
1439.00,52.941
1440.00,52.940
1441.00,52.948
1442.00,52.940
1443.00,52.963
1444.00,53.054
1445.00,52.996
1446.00,53.016
1447.00,53.047
1448.00,53.077
1449.00,53.089
1450.00,53.101
1451.00,53.084
1452.00,53.124
1453.00,53.118
1454.00,53.150
1455.00,53.169
1456.00,53.175
1457.00,53.167
1458.00,53.214
1459.00,53.204
1460.00,53.235
1461.00,53.229
1462.00,53.253
1463.00,53.265
1464.00,53.277
1465.00,53.294
1466.00,53.298
1467.00,53.308
1468.00,53.368
1469.00,53.335
1470.00,53.341
1471.00,53.375
1472.00,53.380
1473.00,53.377
1474.00,53.424
1475.00,53.435
1476.00,53.443
1477.00,53.425
1478.00,53.454
1479.00,53.465
1480.00,53.464
1481.00,53.453
1482.00,53.500
1483.00,53.516
1484.00,53.501
1485.00,53.526
1486.00,53.526
1487.00,53.557
1488.00,53.590
1489.00,53.562
1490.00,53.592
1491.00,53.603
1492.00,53.618
1493.00,53.590
1494.00,53.643
1495.00,53.618
1496.00,53.668
1497.00,53.643
1498.00,53.649
1499.00,53.686
1500.00,53.682
1501.00, 
1502.00, 
1503.00, 
1504.00, 
1505.00, 
1506.00, 
1507.00, 
1508.00, 
1509.00, 
1510.00, 
1511.00, 
1512.00, 
1513.00, 
1514.00, 
1515.00, 
1516.00, 
1517.00, 
1518.00, 
1519.00, 
1520.00, 
1521.00, 
1522.00, 
1523.00, 
1524.00, 
1525.00, 
1526.00, 
1527.00, 
1528.00, 
1529.00, 
1530.00, 
1531.00, 
1532.00, 
1533.00, 
1534.00, 
1535.00, 
1536.00, 
1537.00, 
1538.00, 
1539.00, 
1540.00, 
1541.00, 
1542.00, 
1543.00, 
1544.00, 
1545.00, 
1546.00, 
1547.00, 
1548.00, 
1549.00, 
1550.00, 
1551.00, 
1552.00, 
1553.00, 
1554.00, 
1555.00, 
1556.00, 
1557.00, 
1558.00, 
1559.00, 
1560.00, 
1561.00, 
1562.00, 
1563.00, 
1564.00, 
1565.00, 
1566.00, 
1567.00, 
1568.00, 
1569.00, 
1570.00, 
1571.00, 
1572.00, 
1573.00, 
1574.00, 
1575.00, 
1576.00, 
1577.00, 
1578.00, 
1579.00, 
1580.00, 
1581.00, 
1582.00, 
1583.00, 
1584.00, 
1585.00, 
1586.00, 
1587.00, 
1588.00, 
1589.00, 
1590.00, 
1591.00, 
1592.00, 
1593.00, 
1594.00, 
1595.00, 
1596.00, 
1597.00, 
1598.00, 
1599.00, 
1600.00, 
1601.00, 
1602.00, 
1603.00, 
1604.00, 
1605.00, 
1606.00, 
1607.00, 
1608.00, 
1609.00, 
1610.00, 
1611.00, 
1612.00, 
1613.00, 
1614.00, 
1615.00, 
1616.00, 
1617.00, 
1618.00, 
1619.00, 
1620.00, 
1621.00, 
1622.00, 
1623.00, 
1624.00, 
1625.00, 
1626.00, 
1627.00, 
1628.00, 
1629.00, 
1630.00, 
1631.00, 
1632.00, 
1633.00, 
1634.00, 
1635.00, 
1636.00, 
1637.00, 
1638.00, 
1639.00, 
1640.00, 
1641.00, 
1642.00, 
1643.00, 
1644.00, 
1645.00, 
1646.00, 
1647.00, 
1648.00, 
1649.00, 
1650.00, 
1651.00, 
1652.00, 
1653.00, 
1654.00, 
1655.00, 
1656.00, 
1657.00, 
1658.00, 
1659.00, 
1660.00, 
1661.00, 
1662.00, 
1663.00, 
1664.00, 
1665.00, 
1666.00, 
1667.00, 
1668.00, 
1669.00, 
1670.00, 
1671.00, 
1672.00, 
1673.00, 
1674.00, 
1675.00, 
1676.00, 
1677.00, 
1678.00, 
1679.00, 
1680.00, 
1681.00, 
1682.00, 
1683.00, 
1684.00, 
1685.00, 
1686.00, 
1687.00, 
1688.00, 
1689.00, 
1690.00, 
1691.00, 
1692.00, 
1693.00, 
1694.00, 
1695.00, 
1696.00, 
1697.00, 
1698.00, 
1699.00, 
1700.00, 
1701.00, 
1702.00, 
1703.00, 
1704.00, 
1705.00, 
1706.00, 
1707.00, 
1708.00, 
1709.00, 
1710.00, 
1711.00, 
1712.00, 
1713.00, 
1714.00, 
1715.00, 
1716.00, 
1717.00, 
1718.00, 
1719.00, 
1720.00, 
1721.00, 
1722.00, 
1723.00, 
1724.00, 
1725.00, 
1726.00, 
1727.00, 
1728.00, 
1729.00, 
1730.00, 
1731.00, 
1732.00, 
1733.00, 
1734.00, 
1735.00, 
1736.00, 
1737.00, 
1738.00, 
1739.00, 
1740.00, 
1741.00, 
1742.00, 
1743.00, 
1744.00, 
1745.00, 
1746.00, 
1747.00, 
1748.00, 
1749.00, 
1750.00, 
1751.00, 
1752.00, 
1753.00, 
1754.00, 
1755.00, 
1756.00, 
1757.00, 
1758.00, 
1759.00, 
1760.00, 
1761.00, 
1762.00, 
1763.00, 
1764.00, 
1765.00, 
1766.00, 
1767.00, 
1768.00, 
1769.00, 
1770.00, 
1771.00, 
1772.00, 
1773.00, 
1774.00, 
1775.00, 
1776.00, 
1777.00, 
1778.00, 
1779.00, 
1780.00, 
1781.00, 
1782.00, 
1783.00, 
1784.00, 
1785.00, 
1786.00, 
1787.00, 
1788.00, 
1789.00, 
1790.00, 
1791.00, 
1792.00, 
1793.00, 
1794.00, 
1795.00, 
1796.00, 
1797.00, 
1798.00, 
1799.00, 
1800.00, 
1801.00, 
1802.00, 
1803.00, 
1804.00, 
1805.00, 
1806.00, 
1807.00, 
1808.00, 
1809.00, 
1810.00, 
1811.00, 
1812.00, 
1813.00, 
1814.00, 
1815.00, 
1816.00, 
1817.00, 
1818.00, 
1819.00, 
1820.00, 
1821.00, 
1822.00, 
1823.00, 
1824.00, 
1825.00, 
1826.00, 
1827.00, 
1828.00, 
1829.00, 
1830.00, 
1831.00, 
1832.00, 
1833.00, 
1834.00, 
1835.00, 
1836.00, 
1837.00, 
1838.00, 
1839.00, 
1840.00, 
1841.00, 
1842.00, 
1843.00, 
1844.00, 
1845.00, 
1846.00, 
1847.00, 
1848.00, 
1849.00, 
1850.00, 
1851.00, 
1852.00, 
1853.00, 
1854.00, 
1855.00, 
1856.00, 
1857.00, 
1858.00, 
1859.00, 
1860.00, 
1861.00, 
1862.00, 
1863.00, 
1864.00, 
1865.00, 
1866.00, 
1867.00, 
1868.00, 
1869.00, 
1870.00, 
1871.00, 
1872.00, 
1873.00, 
1874.00, 
1875.00, 
1876.00, 
1877.00, 
1878.00, 
1879.00, 
1880.00, 
1881.00, 
1882.00, 
1883.00, 
1884.00, 
1885.00, 
1886.00, 
1887.00, 
1888.00, 
1889.00, 
1890.00, 
1891.00, 
1892.00, 
1893.00, 
1894.00, 
1895.00, 
1896.00, 
1897.00, 
1898.00, 
1899.00, 
1900.00, 
1901.00, 
1902.00, 
1903.00, 
1904.00, 
1905.00, 
1906.00, 
1907.00, 
1908.00, 
1909.00, 
1910.00, 
1911.00, 
1912.00, 
1913.00, 
1914.00, 
1915.00, 
1916.00, 
1917.00, 
1918.00, 
1919.00, 
1920.00, 
1921.00, 
1922.00, 
1923.00, 
1924.00, 
1925.00, 
1926.00, 
1927.00, 
1928.00, 
1929.00, 
1930.00, 
1931.00, 
1932.00, 
1933.00, 
1934.00, 
1935.00, 
1936.00, 
1937.00, 
1938.00, 
1939.00, 
1940.00, 
1941.00, 
1942.00, 
1943.00, 
1944.00, 
1945.00, 
1946.00, 
1947.00, 
1948.00, 
1949.00, 
1950.00, 
1951.00, 
1952.00, 
1953.00, 
1954.00, 
1955.00, 
1956.00, 
1957.00, 
1958.00, 
1959.00, 
1960.00, 
1961.00, 
1962.00, 
1963.00, 
1964.00, 
1965.00, 
1966.00, 
1967.00, 
1968.00, 
1969.00, 
1970.00, 
1971.00, 
1972.00, 
1973.00, 
1974.00, 
1975.00, 
1976.00, 
1977.00, 
1978.00, 
1979.00, 
1980.00, 
1981.00, 
1982.00, 
1983.00, 
1984.00, 
1985.00, 
1986.00, 
1987.00, 
1988.00, 
1989.00, 
1990.00, 
1991.00, 
1992.00, 
1993.00, 
1994.00, 
1995.00, 
1996.00, 
1997.00, 
1998.00, 
1999.00, 
2000.00, 
2001.00, 
2002.00, 
2003.00, 
2004.00, 
2005.00, 
2006.00, 
2007.00, 
2008.00, 
2009.00, 
2010.00, 
2011.00, 
2012.00, 
2013.00, 
2014.00, 
2015.00, 
2016.00, 
2017.00, 
2018.00, 
2019.00, 
2020.00, 
2021.00, 
2022.00, 
2023.00, 
2024.00, 
2025.00, 
2026.00, 
2027.00, 
2028.00, 
2029.00, 
2030.00, 
2031.00, 
2032.00, 
2033.00, 
2034.00, 
2035.00, 
2036.00, 
2037.00, 
2038.00, 
2039.00, 
2040.00, 
2041.00, 
2042.00, 
2043.00, 
2044.00, 
2045.00, 
2046.00, 
2047.00, 
2048.00, 
2049.00, 
2050.00, 
2051.00, 
2052.00, 
2053.00, 
2054.00, 
2055.00, 
2056.00, 
2057.00, 
2058.00, 
2059.00, 
2060.00, 
2061.00, 
2062.00, 
2063.00, 
2064.00, 
2065.00, 
2066.00, 
2067.00, 
2068.00, 
2069.00, 
2070.00, 
2071.00, 
2072.00, 
2073.00, 
2074.00, 
2075.00, 
2076.00, 
2077.00, 
2078.00, 
2079.00, 
2080.00, 
2081.00, 
2082.00, 
2083.00, 
2084.00, 
2085.00, 
2086.00, 
2087.00, 
2088.00, 
2089.00, 
2090.00, 
2091.00, 
2092.00, 
2093.00, 
2094.00, 
2095.00, 
2096.00, 
2097.00, 
2098.00, 
2099.00, 
2100.00, 
2101.00, 
2102.00, 
2103.00, 
2104.00, 
2105.00, 
2106.00, 
2107.00, 
2108.00, 
2109.00, 
2110.00, 
2111.00, 
2112.00, 
2113.00, 
2114.00, 
2115.00, 
2116.00, 
2117.00, 
2118.00, 
2119.00, 
2120.00, 
2121.00, 
2122.00, 
2123.00, 
2124.00, 
2125.00, 
2126.00, 
2127.00, 
2128.00, 
2129.00, 
2130.00, 
2131.00, 
2132.00, 
2133.00, 
2134.00, 
2135.00, 
2136.00, 
2137.00, 
2138.00, 
2139.00, 
2140.00, 
2141.00, 
2142.00, 
2143.00, 
2144.00, 
2145.00, 
2146.00, 
2147.00, 
2148.00, 
2149.00, 
2150.00, 
2151.00, 
2152.00, 
2153.00, 
2154.00, 
2155.00, 
2156.00, 
2157.00, 
2158.00, 
2159.00, 
2160.00, 
2161.00, 
2162.00, 
2163.00, 
2164.00, 
2165.00, 
2166.00, 
2167.00, 
2168.00, 
2169.00, 
2170.00, 
2171.00, 
2172.00, 
2173.00, 
2174.00, 
2175.00, 
2176.00, 
2177.00, 
2178.00, 
2179.00, 
2180.00, 
2181.00, 
2182.00, 
2183.00, 
2184.00, 
2185.00, 
2186.00, 
2187.00, 
2188.00, 
2189.00, 
2190.00, 
2191.00, 
2192.00, 
2193.00, 
2194.00, 
2195.00, 
2196.00, 
2197.00, 
2198.00, 
2199.00, 
2200.00, 
2201.00, 
2202.00, 
2203.00, 
2204.00, 
2205.00, 
2206.00, 
2207.00, 
2208.00, 
2209.00, 
2210.00, 
2211.00, 
2212.00, 
2213.00, 
2214.00, 
2215.00, 
2216.00, 
2217.00, 
2218.00, 
2219.00, 
2220.00, 
2221.00, 
2222.00, 
2223.00, 
2224.00, 
2225.00, 
2226.00, 
2227.00, 
2228.00, 
2229.00, 
2230.00, 
2231.00, 
2232.00, 
2233.00, 
2234.00, 
2235.00, 
2236.00, 
2237.00, 
2238.00, 
2239.00, 
2240.00, 
2241.00, 
2242.00, 
2243.00, 
2244.00, 
2245.00, 
2246.00, 
2247.00, 
2248.00, 
2249.00, 
2250.00, 
2251.00, 
2252.00, 
2253.00, 
2254.00, 
2255.00, 
2256.00, 
2257.00, 
2258.00, 
2259.00, 
2260.00, 
2261.00, 
2262.00, 
2263.00, 
2264.00, 
2265.00, 
2266.00, 
2267.00, 
2268.00, 
2269.00, 
2270.00, 
2271.00, 
2272.00, 
2273.00, 
2274.00, 
2275.00, 
2276.00, 
2277.00, 
2278.00, 
2279.00, 
2280.00, 
2281.00, 
2282.00, 
2283.00, 
2284.00, 
2285.00, 
2286.00, 
2287.00, 
2288.00, 
2289.00, 
2290.00, 
2291.00, 
2292.00, 
2293.00, 
2294.00, 
2295.00, 
2296.00, 
2297.00, 
2298.00, 
2299.00, 
2300.00, 
2301.00, 
2302.00, 
2303.00, 
2304.00, 
2305.00, 
2306.00, 
2307.00, 
2308.00, 
2309.00, 
2310.00, 
2311.00, 
2312.00, 
2313.00, 
2314.00, 
2315.00, 
2316.00, 
2317.00, 
2318.00, 
2319.00, 
2320.00, 
2321.00, 
2322.00, 
2323.00, 
2324.00, 
2325.00, 
2326.00, 
2327.00, 
2328.00, 
2329.00, 
2330.00, 
2331.00, 
2332.00, 
2333.00, 
2334.00, 
2335.00, 
2336.00, 
2337.00, 
2338.00, 
2339.00, 
2340.00, 
2341.00, 
2342.00, 
2343.00, 
2344.00, 
2345.00, 
2346.00, 
2347.00, 
2348.00, 
2349.00, 
2350.00, 
2351.00, 
2352.00, 
2353.00, 
2354.00, 
2355.00, 
2356.00, 
2357.00, 
2358.00, 
2359.00, 
2360.00, 
2361.00, 
2362.00, 
2363.00, 
2364.00, 
2365.00, 
2366.00, 
2367.00, 
2368.00, 
2369.00, 
2370.00, 
2371.00, 
2372.00, 
2373.00, 
2374.00, 
2375.00, 
2376.00, 
2377.00, 
2378.00, 
2379.00, 
2380.00, 
2381.00, 
2382.00, 
2383.00, 
2384.00, 
2385.00, 
2386.00, 
2387.00, 
2388.00, 
2389.00, 
2390.00, 
2391.00, 
2392.00, 
2393.00, 
2394.00, 
2395.00, 
2396.00, 
2397.00, 
2398.00, 
2399.00, 
2400.00, 
2401.00, 
2402.00, 
2403.00, 
2404.00, 
2405.00, 
2406.00, 
2407.00, 
2408.00, 
2409.00, 
2410.00, 
2411.00, 
2412.00, 
2413.00, 
2414.00, 
2415.00, 
2416.00, 
2417.00, 
2418.00, 
2419.00, 
2420.00, 
2421.00, 
2422.00, 
2423.00, 
2424.00, 
2425.00, 
2426.00, 
2427.00, 
2428.00, 
2429.00, 
2430.00, 
2431.00, 
2432.00, 
2433.00, 
2434.00, 
2435.00, 
2436.00, 
2437.00, 
2438.00, 
2439.00, 
2440.00, 
2441.00, 
2442.00, 
2443.00, 
2444.00, 
2445.00, 
2446.00, 
2447.00, 
2448.00, 
2449.00, 
2450.00, 
2451.00, 
2452.00, 
2453.00, 
2454.00, 
2455.00, 
2456.00, 
2457.00, 
2458.00, 
2459.00, 
2460.00, 
2461.00, 
2462.00, 
2463.00, 
2464.00, 
2465.00, 
2466.00, 
2467.00, 
2468.00, 
2469.00, 
2470.00, 
2471.00, 
2472.00, 
2473.00, 
2474.00, 
2475.00, 
2476.00, 
2477.00, 
2478.00, 
2479.00, 
2480.00, 
2481.00, 
2482.00, 
2483.00, 
2484.00, 
2485.00, 
2486.00, 
2487.00, 
2488.00, 
2489.00, 
2490.00, 
2491.00, 
2492.00, 
2493.00, 
2494.00, 
2495.00, 
2496.00, 
2497.00, 
2498.00, 
2499.00, 
2500.00, 
2501.00, 
2502.00, 
2503.00, 
2504.00, 
2505.00, 
2506.00, 
2507.00, 
2508.00, 
2509.00, 
2510.00, 
2511.00, 
2512.00, 
2513.00, 
2514.00, 
2515.00, 
2516.00, 
2517.00, 
2518.00, 
2519.00, 
2520.00, 
2521.00, 
2522.00, 
2523.00, 
2524.00, 
2525.00, 
2526.00, 
2527.00, 
2528.00, 
2529.00, 
2530.00, 
2531.00, 
2532.00, 
2533.00, 
2534.00, 
2535.00, 
2536.00, 
2537.00, 
2538.00, 
2539.00, 
2540.00, 
2541.00, 
2542.00, 
2543.00, 
2544.00, 
2545.00, 
2546.00, 
2547.00, 
2548.00, 
2549.00, 
2550.00, 
2551.00, 
2552.00, 
2553.00, 
2554.00, 
2555.00, 
2556.00, 
2557.00, 
2558.00, 
2559.00, 
2560.00, 
2561.00, 
2562.00, 
2563.00, 
2564.00, 
2565.00, 
2566.00, 
2567.00, 
2568.00, 
2569.00, 
2570.00, 
2571.00, 
2572.00, 
2573.00, 
2574.00, 
2575.00, 
2576.00, 
2577.00, 
2578.00, 
2579.00, 
2580.00, 
2581.00, 
2582.00, 
2583.00, 
2584.00, 
2585.00, 
2586.00, 
2587.00, 
2588.00, 
2589.00, 
2590.00, 
2591.00, 
2592.00, 
2593.00, 
2594.00, 
2595.00, 
2596.00, 
2597.00, 
2598.00, 
2599.00, 
2600.00, 
