"1cP2 - RawData"
"Wavelength nm.","T%"
200.00,0.004
201.00,-0.001
202.00,0.003
203.00,-0.001
204.00,0.002
205.00,0.001
206.00,0.002
207.00,-0.003
208.00,0.002
209.00,0.002
210.00,0.000
211.00,0.003
212.00,0.001
213.00,0.002
214.00,0.000
215.00,0.002
216.00,0.001
217.00,0.003
218.00,-0.000
219.00,0.002
220.00,0.001
221.00,-0.002
222.00,0.001
223.00,0.003
224.00,0.000
225.00,0.001
226.00,0.001
227.00,0.002
228.00,0.002
229.00,-0.003
230.00,0.002
231.00,0.000
232.00,0.001
233.00,-0.001
234.00,0.002
235.00,-0.001
236.00,0.001
237.00,0.000
238.00,0.002
239.00,0.001
240.00,0.001
241.00,0.002
242.00,-0.000
243.00,0.000
244.00,0.000
245.00,0.001
246.00,-0.001
247.00,-0.001
248.00,0.001
249.00,0.001
250.00,0.000
251.00,-0.001
252.00,-0.001
253.00,0.000
254.00,0.001
255.00,0.001
256.00,0.001
257.00,-0.000
258.00,0.001
259.00,-0.000
260.00,-0.000
261.00,-0.001
262.00,-0.000
263.00,0.001
264.00,0.002
265.00,0.001
266.00,0.001
267.00,-0.001
268.00,-0.001
269.00,-0.000
270.00,-0.001
271.00,0.000
272.00,0.001
273.00,0.002
274.00,-0.000
275.00,0.000
276.00,0.001
277.00,0.001
278.00,-0.000
279.00,0.001
280.00,0.000
281.00,0.000
282.00,0.000
283.00,-0.000
284.00,0.000
285.00,0.001
286.00,-0.000
287.00,-0.001
288.00,-0.001
289.00,-0.000
290.00,-0.001
291.00,0.002
292.00,-0.001
293.00,-0.001
294.00,0.002
295.00,0.001
296.00,0.000
297.00,0.001
298.00,0.001
299.00,0.001
300.00,-0.001
301.00,0.001
302.00,0.001
303.00,0.002
304.00,0.002
305.00,0.001
306.00,0.003
307.00,0.006
308.00,0.009
309.00,0.018
310.00,0.028
311.00,0.046
312.00,0.068
313.00,0.108
314.00,0.168
315.00,0.244
316.00,0.353
317.00,0.500
318.00,0.677
319.00,0.922
320.00,1.219
321.00,1.597
322.00,2.002
323.00,2.578
324.00,3.190
325.00,3.833
326.00,4.569
327.00,5.426
328.00,6.343
329.00,7.324
330.00,8.381
331.00,9.479
332.00,10.699
333.00,12.036
334.00,13.236
335.00,14.613
336.00,15.898
337.00,17.313
338.00,18.500
339.00,19.877
340.00,21.244
341.00,22.617
342.00,23.833
343.00,25.097
344.00,26.284
345.00,27.583
346.00,28.575
347.00,29.598
348.00,30.690
349.00,31.462
350.00,32.521
351.00,33.410
352.00,34.178
353.00,34.942
354.00,35.693
355.00,36.441
356.00,37.118
357.00,37.665
358.00,38.263
359.00,38.928
360.00,39.536
361.00,39.927
362.00,40.353
363.00,40.828
364.00,41.138
365.00,41.361
366.00,41.662
367.00,41.954
368.00,42.166
369.00,42.428
370.00,42.646
371.00,42.783
372.00,42.740
373.00,42.887
374.00,42.950
375.00,42.970
376.00,42.828
377.00,42.830
378.00,42.672
379.00,42.572
380.00,42.636
381.00,42.674
382.00,42.784
383.00,42.943
384.00,43.122
385.00,43.306
386.00,43.442
387.00,43.758
388.00,43.983
389.00,44.063
390.00,44.276
391.00,44.514
392.00,44.638
393.00,44.742
394.00,44.874
395.00,45.039
396.00,45.042
397.00,45.167
398.00,45.280
399.00,45.300
400.00,45.360
401.00,45.427
402.00,45.469
403.00,45.496
404.00,45.556
405.00,45.538
406.00,45.533
407.00,45.528
408.00,45.551
409.00,45.429
410.00,45.309
411.00,45.250
412.00,45.187
413.00,45.249
414.00,45.141
415.00,45.196
416.00,45.314
417.00,45.157
418.00,45.236
419.00,45.321
420.00,45.468
421.00,45.395
422.00,45.385
423.00,45.472
424.00,45.465
425.00,45.524
426.00,45.520
427.00,45.596
428.00,45.589
429.00,45.568
430.00,45.588
431.00,45.612
432.00,45.530
433.00,45.612
434.00,45.692
435.00,45.726
436.00,45.711
437.00,45.706
438.00,45.794
439.00,45.790
440.00,45.797
441.00,45.815
442.00,45.822
443.00,45.899
444.00,46.028
445.00,45.977
446.00,46.039
447.00,46.134
448.00,46.130
449.00,46.268
450.00,46.335
451.00,46.335
452.00,46.413
453.00,46.524
454.00,46.576
455.00,46.564
456.00,46.726
457.00,46.729
458.00,46.731
459.00,46.878
460.00,46.927
461.00,46.986
462.00,47.045
463.00,47.134
464.00,47.228
465.00,47.225
466.00,47.312
467.00,47.373
468.00,47.345
469.00,47.385
470.00,47.330
471.00,47.423
472.00,47.463
473.00,47.412
474.00,47.418
475.00,47.502
476.00,47.473
477.00,47.526
478.00,47.559
479.00,47.749
480.00,47.749
481.00,47.721
482.00,47.810
483.00,47.891
484.00,48.027
485.00,48.088
486.00,48.134
487.00,48.282
488.00,48.327
489.00,48.404
490.00,48.516
491.00,48.503
492.00,48.698
493.00,48.753
494.00,48.617
495.00,48.684
496.00,48.707
497.00,48.804
498.00,48.872
499.00,48.848
500.00,49.048
501.00,49.050
502.00,49.024
503.00,48.975
504.00,49.066
505.00,49.087
506.00,49.207
507.00,49.165
508.00,49.238
509.00,49.346
510.00,49.435
511.00,49.418
512.00,49.533
513.00,49.631
514.00,49.686
515.00,49.695
516.00,49.742
517.00,49.719
518.00,49.826
519.00,49.853
520.00,49.723
521.00,49.822
522.00,49.897
523.00,49.781
524.00,49.825
525.00,49.957
526.00,49.991
527.00,49.967
528.00,49.968
529.00,50.185
530.00,50.280
531.00,50.328
532.00,50.372
533.00,50.412
534.00,50.459
535.00,50.465
536.00,50.483
537.00,50.532
538.00,50.549
539.00,50.560
540.00,50.580
541.00,50.546
542.00,50.526
543.00,50.540
544.00,50.629
545.00,50.594
546.00,50.562
547.00,50.662
548.00,50.821
549.00,50.710
550.00,50.833
551.00,50.948
552.00,50.999
553.00,50.921
554.00,50.991
555.00,50.997
556.00,51.040
557.00,51.099
558.00,51.019
559.00,50.941
560.00,51.032
561.00,51.262
562.00,51.189
563.00,51.214
564.00,51.224
565.00,51.211
566.00,51.187
567.00,51.144
568.00,51.193
569.00,51.322
570.00,51.193
571.00,51.183
572.00,51.197
573.00,51.139
574.00,51.189
575.00,51.148
576.00,51.069
577.00,51.010
578.00,51.308
579.00,51.298
580.00,51.307
581.00,51.514
582.00,51.451
583.00,51.479
584.00,51.530
585.00,51.565
586.00,51.588
587.00,51.627
588.00,51.550
589.00,51.494
590.00,51.617
591.00,51.563
592.00,51.360
593.00,51.513
594.00,51.644
595.00,51.678
596.00,51.710
597.00,51.745
598.00,51.797
599.00,51.686
600.00,51.709
601.00,51.738
602.00,51.699
603.00,51.758
604.00,51.808
605.00,51.716
606.00,51.718
607.00,51.670
608.00,51.845
609.00,51.905
610.00,51.692
611.00,51.712
612.00,51.816
613.00,51.773
614.00,51.759
615.00,51.833
616.00,51.930
617.00,51.830
618.00,51.695
619.00,51.779
620.00,51.808
621.00,51.753
622.00,51.751
623.00,51.784
624.00,51.796
625.00,51.858
626.00,51.852
627.00,51.869
628.00,51.802
629.00,51.828
630.00,51.771
631.00,51.692
632.00,51.724
633.00,51.881
634.00,51.845
635.00,51.935
636.00,51.923
637.00,51.875
638.00,51.864
639.00,51.914
640.00,51.944
641.00,51.803
642.00,51.782
643.00,51.811
644.00,51.822
645.00,51.721
646.00,51.888
647.00,51.928
648.00,51.867
649.00,51.718
650.00,51.783
651.00,51.899
652.00,51.883
653.00,51.756
654.00,51.713
655.00,51.860
656.00,52.118
657.00,51.746
658.00,51.888
659.00,52.081
660.00,51.998
661.00,51.775
662.00,51.780
663.00,51.863
664.00,52.153
665.00,52.096
666.00,51.902
667.00,51.920
668.00,51.842
669.00,52.035
670.00,52.235
671.00,51.949
672.00,51.921
673.00,51.953
674.00,52.011
675.00,51.979
676.00,52.010
677.00,52.238
678.00,51.791
679.00,51.687
680.00,51.944
681.00,52.159
682.00,51.962
683.00,51.889
684.00,52.060
685.00,51.968
686.00,51.688
687.00,51.736
688.00,51.736
689.00,51.797
690.00,52.027
691.00,52.174
692.00,51.831
693.00,51.766
694.00,51.834
695.00,51.873
696.00,51.874
697.00,51.810
698.00,51.750
699.00,51.943
700.00,51.933
701.00,51.659
702.00,51.702
703.00,51.879
704.00,51.774
705.00,51.721
706.00,51.454
707.00,51.662
708.00,51.706
709.00,51.800
710.00,52.098
711.00,51.657
712.00,51.612
713.00,51.582
714.00,51.534
715.00,51.556
716.00,51.435
717.00,51.578
718.00,51.770
719.00,51.536
720.00,51.526
721.00,56.427
722.00,56.369
723.00,56.128
724.00,56.201
725.00,56.044
726.00,56.009
727.00,55.960
728.00,55.935
729.00,55.877
730.00,55.851
731.00,55.819
732.00,55.710
733.00,55.725
734.00,55.623
735.00,55.608
736.00,55.526
737.00,55.508
738.00,55.597
739.00,55.502
740.00,55.445
741.00,55.397
742.00,55.316
743.00,55.200
744.00,55.146
745.00,55.172
746.00,55.044
747.00,55.057
748.00,54.978
749.00,54.821
750.00,54.798
751.00,54.708
752.00,54.659
753.00,54.653
754.00,54.683
755.00,54.616
756.00,54.551
757.00,54.441
758.00,54.449
759.00,54.367
760.00,54.385
761.00,54.340
762.00,54.199
763.00,54.252
764.00,54.185
765.00,54.192
766.00,54.180
767.00,54.079
768.00,54.106
769.00,54.038
770.00,53.975
771.00,53.993
772.00,53.956
773.00,53.849
774.00,53.911
775.00,53.932
776.00,53.844
777.00,53.807
778.00,53.742
779.00,53.718
780.00,53.663
781.00,53.610
782.00,53.508
783.00,53.513
784.00,53.487
785.00,53.357
786.00,53.487
787.00,53.444
788.00,53.399
789.00,53.281
790.00,53.184
791.00,53.270
792.00,53.115
793.00,53.110
794.00,53.079
795.00,53.094
796.00,53.034
797.00,52.899
798.00,52.990
799.00,52.875
800.00,52.799
801.00,52.849
802.00,52.826
803.00,52.755
804.00,52.628
805.00,52.671
806.00,52.555
807.00,52.528
808.00,52.507
809.00,52.446
810.00,52.438
811.00,52.482
812.00,52.428
813.00,52.302
814.00,52.357
815.00,52.216
816.00,52.251
817.00,52.266
818.00,52.139
819.00,52.190
820.00,52.022
821.00,52.073
822.00,52.105
823.00,51.998
824.00,51.990
825.00,51.796
826.00,51.858
827.00,52.030
828.00,51.995
829.00,51.798
830.00,51.809
831.00,54.194
832.00,54.177
833.00,54.089
834.00,54.118
835.00,54.019
836.00,54.027
837.00,53.978
838.00,53.979
839.00,53.949
840.00,53.872
841.00,53.887
842.00,53.847
843.00,53.819
844.00,53.789
845.00,53.714
846.00,53.716
847.00,53.674
848.00,53.662
849.00,53.571
850.00,53.487
851.00,53.552
852.00,53.483
853.00,53.409
854.00,53.375
855.00,53.322
856.00,53.316
857.00,53.286
858.00,53.235
859.00,53.209
860.00,53.227
861.00,53.210
862.00,53.112
863.00,53.130
864.00,53.054
865.00,53.080
866.00,53.034
867.00,53.032
868.00,53.018
869.00,52.997
870.00,52.979
871.00,52.947
872.00,52.932
873.00,52.968
874.00,52.867
875.00,52.876
876.00,52.885
877.00,52.858
878.00,52.809
879.00,52.809
880.00,52.777
881.00,52.724
882.00,52.753
883.00,52.698
884.00,52.651
885.00,52.638
886.00,52.642
887.00,52.572
888.00,52.569
889.00,52.542
890.00,52.551
891.00,52.485
892.00,52.451
893.00,52.418
894.00,52.432
895.00,52.372
896.00,52.355
897.00,52.344
898.00,52.300
899.00,52.298
900.00,52.274
901.00,52.292
902.00,52.292
903.00,52.220
904.00,52.216
905.00,52.208
906.00,52.177
907.00,52.171
908.00,52.091
909.00,52.095
910.00,52.052
911.00,52.047
912.00,52.040
913.00,51.978
914.00,51.969
915.00,51.959
916.00,51.933
917.00,51.886
918.00,51.890
919.00,51.852
920.00,51.801
921.00,51.832
922.00,51.815
923.00,51.771
924.00,51.757
925.00,51.752
926.00,51.724
927.00,51.697
928.00,51.641
929.00,51.680
930.00,51.619
931.00,51.602
932.00,51.533
933.00,51.556
934.00,51.522
935.00,51.507
936.00,51.472
937.00,51.457
938.00,51.434
939.00,51.440
940.00,51.394
941.00,51.377
942.00,51.359
943.00,51.358
944.00,51.304
945.00,51.308
946.00,51.288
947.00,51.250
948.00,51.244
949.00,51.227
950.00,51.197
951.00,51.139
952.00,51.206
953.00,51.114
954.00,51.112
955.00,51.052
956.00,51.029
957.00,51.002
958.00,51.033
959.00,50.892
960.00,50.943
961.00,50.939
962.00,50.928
963.00,50.887
964.00,50.894
965.00,50.885
966.00,50.857
967.00,50.870
968.00,50.823
969.00,50.881
970.00,50.814
971.00,50.817
972.00,50.772
973.00,50.819
974.00,50.833
975.00,50.787
976.00,50.822
977.00,50.805
978.00,50.827
979.00,50.765
980.00,50.817
981.00,50.815
982.00,50.746
983.00,50.871
984.00,50.773
985.00,50.794
986.00,50.743
987.00,50.778
988.00,50.745
989.00,50.735
990.00,50.725
991.00,50.708
992.00,50.722
993.00,50.690
994.00,50.679
995.00,50.673
996.00,50.657
997.00,50.648
998.00,50.621
999.00,50.642
1000.00,50.580
1001.00,50.586
1002.00,50.579
1003.00,50.554
1004.00,50.519
1005.00,50.509
1006.00,50.530
1007.00,50.488
1008.00,50.486
1009.00,50.465
1010.00,50.479
1011.00,50.446
1012.00,50.396
1013.00,50.436
1014.00,50.372
1015.00,50.408
1016.00,50.367
1017.00,50.358
1018.00,50.344
1019.00,50.311
1020.00,50.320
1021.00,50.295
1022.00,50.286
1023.00,50.237
1024.00,50.242
1025.00,50.222
1026.00,50.208
1027.00,50.182
1028.00,50.194
1029.00,50.171
1030.00,50.132
1031.00,50.160
1032.00,50.123
1033.00,50.121
1034.00,50.095
1035.00,50.065
1036.00,50.032
1037.00,50.029
1038.00,50.009
1039.00,49.968
1040.00,49.976
1041.00,49.940
1042.00,49.933
1043.00,49.907
1044.00,49.924
1045.00,49.911
1046.00,49.900
1047.00,49.910
1048.00,49.925
1049.00,49.934
1050.00,49.944
1051.00,49.973
1052.00,49.967
1053.00,49.990
1054.00,49.967
1055.00,49.975
1056.00,50.002
1057.00,49.995
1058.00,49.957
1059.00,49.988
1060.00,49.980
1061.00,49.972
1062.00,49.960
1063.00,49.973
1064.00,49.994
1065.00,49.980
1066.00,49.971
1067.00,49.963
1068.00,50.006
1069.00,49.939
1070.00,49.919
1071.00,49.933
1072.00,49.943
1073.00,49.899
1074.00,49.916
1075.00,49.891
1076.00,49.886
1077.00,49.849
1078.00,49.847
1079.00,49.857
1080.00,49.833
1081.00,49.827
1082.00,49.823
1083.00,49.818
1084.00,49.801
1085.00,49.811
1086.00,49.806
1087.00,49.806
1088.00,49.781
1089.00,49.794
1090.00,49.769
1091.00,49.770
1092.00,49.765
1093.00,49.748
1094.00,49.733
1095.00,49.721
1096.00,49.710
1097.00,49.718
1098.00,49.709
1099.00,49.698
1100.00,49.691
1101.00,49.696
1102.00,49.667
1103.00,49.675
1104.00,49.647
1105.00,49.644
1106.00,49.638
1107.00,49.629
1108.00,49.611
1109.00,49.611
1110.00,49.596
1111.00,49.595
1112.00,49.592
1113.00,49.582
1114.00,49.571
1115.00,49.580
1116.00,49.562
1117.00,49.550
1118.00,49.542
1119.00,49.540
1120.00,49.535
1121.00,49.519
1122.00,49.517
1123.00,49.514
1124.00,49.499
1125.00,49.506
1126.00,49.492
1127.00,49.496
1128.00,49.477
1129.00,49.473
1130.00,49.458
1131.00,49.468
1132.00,49.479
1133.00,49.460
1134.00,49.432
1135.00,49.479
1136.00,49.443
1137.00,49.447
1138.00,49.444
1139.00,49.449
1140.00,49.427
1141.00,49.438
1142.00,49.418
1143.00,49.439
1144.00,49.407
1145.00,49.424
1146.00,49.403
1147.00,49.393
1148.00,49.388
1149.00,49.414
1150.00,49.405
1151.00,49.394
1152.00,49.375
1153.00,49.390
1154.00,49.376
1155.00,49.394
1156.00,49.376
1157.00,49.385
1158.00,49.378
1159.00,49.376
1160.00,49.369
1161.00,49.376
1162.00,49.372
1163.00,49.365
1164.00,49.383
1165.00,49.377
1166.00,49.378
1167.00,49.376
1168.00,49.383
1169.00,49.372
1170.00,49.374
1171.00,49.353
1172.00,49.370
1173.00,49.355
1174.00,49.359
1175.00,49.367
1176.00,49.360
1177.00,49.342
1178.00,49.356
1179.00,49.352
1180.00,49.338
1181.00,49.360
1182.00,49.355
1183.00,49.350
1184.00,49.344
1185.00,49.360
1186.00,49.353
1187.00,49.346
1188.00,49.342
1189.00,49.354
1190.00,49.334
1191.00,49.338
1192.00,49.361
1193.00,49.357
1194.00,49.340
1195.00,49.331
1196.00,49.388
1197.00,49.373
1198.00,49.340
1199.00,49.345
1200.00,49.363
1201.00,49.374
1202.00,49.353
1203.00,49.351
1204.00,49.352
1205.00,49.372
1206.00,49.353
1207.00,49.369
1208.00,49.369
1209.00,49.371
1210.00,49.382
1211.00,49.384
1212.00,49.369
1213.00,49.325
1214.00,49.354
1215.00,49.342
1216.00,49.344
1217.00,49.355
1218.00,49.339
1219.00,49.356
1220.00,49.342
1221.00,49.366
1222.00,49.359
1223.00,49.382
1224.00,49.373
1225.00,49.364
1226.00,49.370
1227.00,49.349
1228.00,49.377
1229.00,49.370
1230.00,49.404
1231.00,49.386
1232.00,49.416
1233.00,49.427
1234.00,49.416
1235.00,49.425
1236.00,49.421
1237.00,49.423
1238.00,49.415
1239.00,49.419
1240.00,49.417
1241.00,49.446
1242.00,49.443
1243.00,49.444
1244.00,49.424
1245.00,49.451
1246.00,49.469
1247.00,49.458
1248.00,49.465
1249.00,49.478
1250.00,49.497
1251.00,49.480
1252.00,49.490
1253.00,49.474
1254.00,49.514
1255.00,49.520
1256.00,49.512
1257.00,49.521
1258.00,49.526
1259.00,49.512
1260.00,49.525
1261.00,49.532
1262.00,49.523
1263.00,49.518
1264.00,49.517
1265.00,49.538
1266.00,49.526
1267.00,49.545
1268.00,49.558
1269.00,49.579
1270.00,49.613
1271.00,49.599
1272.00,49.584
1273.00,49.607
1274.00,49.609
1275.00,49.606
1276.00,49.600
1277.00,49.623
1278.00,49.617
1279.00,49.618
1280.00,49.627
1281.00,49.647
1282.00,49.666
1283.00,49.665
1284.00,49.676
1285.00,49.660
1286.00,49.679
1287.00,49.672
1288.00,49.676
1289.00,49.653
1290.00,49.701
1291.00,49.701
1292.00,49.695
1293.00,49.700
1294.00,49.724
1295.00,49.734
1296.00,49.735
1297.00,49.737
1298.00,49.774
1299.00,49.745
1300.00,49.760
1301.00,49.757
1302.00,49.775
1303.00,49.763
1304.00,49.761
1305.00,49.799
1306.00,49.793
1307.00,49.821
1308.00,49.808
1309.00,49.829
1310.00,49.827
1311.00,49.809
1312.00,49.837
1313.00,49.846
1314.00,49.867
1315.00,49.879
1316.00,49.871
1317.00,49.901
1318.00,49.891
1319.00,49.886
1320.00,49.896
1321.00,50.051
1322.00,50.063
1323.00,50.059
1324.00,50.059
1325.00,50.053
1326.00,50.076
1327.00,50.052
1328.00,50.044
1329.00,50.072
1330.00,50.078
1331.00,50.082
1332.00,50.096
1333.00,50.080
1334.00,50.091
1335.00,50.113
1336.00,50.148
1337.00,50.180
1338.00,50.233
1339.00,50.283
1340.00,50.339
1341.00,50.401
1342.00,50.473
1343.00,50.517
1344.00,50.580
1345.00,50.635
1346.00,50.708
1347.00,50.781
1348.00,50.717
1349.00,50.728
1350.00,50.761
1351.00,50.784
1352.00,50.794
1353.00,50.786
1354.00,50.792
1355.00,50.744
1356.00,50.821
1357.00,50.809
1358.00,50.820
1359.00,50.880
1360.00,50.900
1361.00,50.651
1362.00,50.669
1363.00,50.901
1364.00,50.921
1365.00,50.853
1366.00,50.918
1367.00,50.862
1368.00,50.845
1369.00,50.929
1370.00,50.872
1371.00,50.804
1372.00,50.849
1373.00,50.876
1374.00,50.856
1375.00,50.848
1376.00,50.861
1377.00,50.847
1378.00,50.904
1379.00,50.875
1380.00,50.875
1381.00,50.879
1382.00,50.877
1383.00,50.899
1384.00,50.813
1385.00,50.801
1386.00,50.874
1387.00,50.874
1388.00,50.821
1389.00,50.836
1390.00,50.893
1391.00,50.828
1392.00,50.860
1393.00,50.883
1394.00,50.918
1395.00,50.797
1396.00,50.769
1397.00,50.794
1398.00,50.924
1399.00,50.873
1400.00,50.796
1401.00,50.839
1402.00,50.944
1403.00,50.844
1404.00,50.872
1405.00,50.929
1406.00,50.893
1407.00,50.927
1408.00,50.952
1409.00,50.882
1410.00,50.925
1411.00,50.923
1412.00,50.995
1413.00,50.903
1414.00,50.922
1415.00,50.952
1416.00,50.990
1417.00,51.029
1418.00,50.969
1419.00,50.998
1420.00,51.021
1421.00,51.085
1422.00,51.081
1423.00,51.137
1424.00,51.092
1425.00,51.121
1426.00,51.110
1427.00,51.159
1428.00,51.136
1429.00,51.142
1430.00,51.150
1431.00,51.167
1432.00,51.171
1433.00,51.208
1434.00,51.195
1435.00,51.276
1436.00,51.274
1437.00,51.247
1438.00,51.281
1439.00,51.317
1440.00,51.341
1441.00,51.347
1442.00,51.368
1443.00,51.400
1444.00,51.470
1445.00,51.410
1446.00,51.440
1447.00,51.466
1448.00,51.524
1449.00,51.523
1450.00,51.525
1451.00,51.544
1452.00,51.571
1453.00,51.568
1454.00,51.591
1455.00,51.606
1456.00,51.626
1457.00,51.629
1458.00,51.660
1459.00,51.666
1460.00,51.698
1461.00,51.697
1462.00,51.738
1463.00,51.738
1464.00,51.736
1465.00,51.766
1466.00,51.772
1467.00,51.808
1468.00,51.884
1469.00,51.846
1470.00,51.852
1471.00,51.870
1472.00,51.865
1473.00,51.891
1474.00,51.925
1475.00,51.929
1476.00,51.947
1477.00,51.933
1478.00,51.970
1479.00,51.987
1480.00,51.973
1481.00,52.008
1482.00,52.036
1483.00,52.075
1484.00,52.111
1485.00,52.076
1486.00,52.074
1487.00,52.113
1488.00,52.137
1489.00,52.118
1490.00,52.147
1491.00,52.167
1492.00,52.186
1493.00,52.165
1494.00,52.215
1495.00,52.210
1496.00,52.223
1497.00,52.211
1498.00,52.242
1499.00,52.250
1500.00,52.265
1501.00, 
1502.00, 
1503.00, 
1504.00, 
1505.00, 
1506.00, 
1507.00, 
1508.00, 
1509.00, 
1510.00, 
1511.00, 
1512.00, 
1513.00, 
1514.00, 
1515.00, 
1516.00, 
1517.00, 
1518.00, 
1519.00, 
1520.00, 
1521.00, 
1522.00, 
1523.00, 
1524.00, 
1525.00, 
1526.00, 
1527.00, 
1528.00, 
1529.00, 
1530.00, 
1531.00, 
1532.00, 
1533.00, 
1534.00, 
1535.00, 
1536.00, 
1537.00, 
1538.00, 
1539.00, 
1540.00, 
1541.00, 
1542.00, 
1543.00, 
1544.00, 
1545.00, 
1546.00, 
1547.00, 
1548.00, 
1549.00, 
1550.00, 
1551.00, 
1552.00, 
1553.00, 
1554.00, 
1555.00, 
1556.00, 
1557.00, 
1558.00, 
1559.00, 
1560.00, 
1561.00, 
1562.00, 
1563.00, 
1564.00, 
1565.00, 
1566.00, 
1567.00, 
1568.00, 
1569.00, 
1570.00, 
1571.00, 
1572.00, 
1573.00, 
1574.00, 
1575.00, 
1576.00, 
1577.00, 
1578.00, 
1579.00, 
1580.00, 
1581.00, 
1582.00, 
1583.00, 
1584.00, 
1585.00, 
1586.00, 
1587.00, 
1588.00, 
1589.00, 
1590.00, 
1591.00, 
1592.00, 
1593.00, 
1594.00, 
1595.00, 
1596.00, 
1597.00, 
1598.00, 
1599.00, 
1600.00, 
1601.00, 
1602.00, 
1603.00, 
1604.00, 
1605.00, 
1606.00, 
1607.00, 
1608.00, 
1609.00, 
1610.00, 
1611.00, 
1612.00, 
1613.00, 
1614.00, 
1615.00, 
1616.00, 
1617.00, 
1618.00, 
1619.00, 
1620.00, 
1621.00, 
1622.00, 
1623.00, 
1624.00, 
1625.00, 
1626.00, 
1627.00, 
1628.00, 
1629.00, 
1630.00, 
1631.00, 
1632.00, 
1633.00, 
1634.00, 
1635.00, 
1636.00, 
1637.00, 
1638.00, 
1639.00, 
1640.00, 
1641.00, 
1642.00, 
1643.00, 
1644.00, 
1645.00, 
1646.00, 
1647.00, 
1648.00, 
1649.00, 
1650.00, 
1651.00, 
1652.00, 
1653.00, 
1654.00, 
1655.00, 
1656.00, 
1657.00, 
1658.00, 
1659.00, 
1660.00, 
1661.00, 
1662.00, 
1663.00, 
1664.00, 
1665.00, 
1666.00, 
1667.00, 
1668.00, 
1669.00, 
1670.00, 
1671.00, 
1672.00, 
1673.00, 
1674.00, 
1675.00, 
1676.00, 
1677.00, 
1678.00, 
1679.00, 
1680.00, 
1681.00, 
1682.00, 
1683.00, 
1684.00, 
1685.00, 
1686.00, 
1687.00, 
1688.00, 
1689.00, 
1690.00, 
1691.00, 
1692.00, 
1693.00, 
1694.00, 
1695.00, 
1696.00, 
1697.00, 
1698.00, 
1699.00, 
1700.00, 
1701.00, 
1702.00, 
1703.00, 
1704.00, 
1705.00, 
1706.00, 
1707.00, 
1708.00, 
1709.00, 
1710.00, 
1711.00, 
1712.00, 
1713.00, 
1714.00, 
1715.00, 
1716.00, 
1717.00, 
1718.00, 
1719.00, 
1720.00, 
1721.00, 
1722.00, 
1723.00, 
1724.00, 
1725.00, 
1726.00, 
1727.00, 
1728.00, 
1729.00, 
1730.00, 
1731.00, 
1732.00, 
1733.00, 
1734.00, 
1735.00, 
1736.00, 
1737.00, 
1738.00, 
1739.00, 
1740.00, 
1741.00, 
1742.00, 
1743.00, 
1744.00, 
1745.00, 
1746.00, 
1747.00, 
1748.00, 
1749.00, 
1750.00, 
1751.00, 
1752.00, 
1753.00, 
1754.00, 
1755.00, 
1756.00, 
1757.00, 
1758.00, 
1759.00, 
1760.00, 
1761.00, 
1762.00, 
1763.00, 
1764.00, 
1765.00, 
1766.00, 
1767.00, 
1768.00, 
1769.00, 
1770.00, 
1771.00, 
1772.00, 
1773.00, 
1774.00, 
1775.00, 
1776.00, 
1777.00, 
1778.00, 
1779.00, 
1780.00, 
1781.00, 
1782.00, 
1783.00, 
1784.00, 
1785.00, 
1786.00, 
1787.00, 
1788.00, 
1789.00, 
1790.00, 
1791.00, 
1792.00, 
1793.00, 
1794.00, 
1795.00, 
1796.00, 
1797.00, 
1798.00, 
1799.00, 
1800.00, 
1801.00, 
1802.00, 
1803.00, 
1804.00, 
1805.00, 
1806.00, 
1807.00, 
1808.00, 
1809.00, 
1810.00, 
1811.00, 
1812.00, 
1813.00, 
1814.00, 
1815.00, 
1816.00, 
1817.00, 
1818.00, 
1819.00, 
1820.00, 
1821.00, 
1822.00, 
1823.00, 
1824.00, 
1825.00, 
1826.00, 
1827.00, 
1828.00, 
1829.00, 
1830.00, 
1831.00, 
1832.00, 
1833.00, 
1834.00, 
1835.00, 
1836.00, 
1837.00, 
1838.00, 
1839.00, 
1840.00, 
1841.00, 
1842.00, 
1843.00, 
1844.00, 
1845.00, 
1846.00, 
1847.00, 
1848.00, 
1849.00, 
1850.00, 
1851.00, 
1852.00, 
1853.00, 
1854.00, 
1855.00, 
1856.00, 
1857.00, 
1858.00, 
1859.00, 
1860.00, 
1861.00, 
1862.00, 
1863.00, 
1864.00, 
1865.00, 
1866.00, 
1867.00, 
1868.00, 
1869.00, 
1870.00, 
1871.00, 
1872.00, 
1873.00, 
1874.00, 
1875.00, 
1876.00, 
1877.00, 
1878.00, 
1879.00, 
1880.00, 
1881.00, 
1882.00, 
1883.00, 
1884.00, 
1885.00, 
1886.00, 
1887.00, 
1888.00, 
1889.00, 
1890.00, 
1891.00, 
1892.00, 
1893.00, 
1894.00, 
1895.00, 
1896.00, 
1897.00, 
1898.00, 
1899.00, 
1900.00, 
1901.00, 
1902.00, 
1903.00, 
1904.00, 
1905.00, 
1906.00, 
1907.00, 
1908.00, 
1909.00, 
1910.00, 
1911.00, 
1912.00, 
1913.00, 
1914.00, 
1915.00, 
1916.00, 
1917.00, 
1918.00, 
1919.00, 
1920.00, 
1921.00, 
1922.00, 
1923.00, 
1924.00, 
1925.00, 
1926.00, 
1927.00, 
1928.00, 
1929.00, 
1930.00, 
1931.00, 
1932.00, 
1933.00, 
1934.00, 
1935.00, 
1936.00, 
1937.00, 
1938.00, 
1939.00, 
1940.00, 
1941.00, 
1942.00, 
1943.00, 
1944.00, 
1945.00, 
1946.00, 
1947.00, 
1948.00, 
1949.00, 
1950.00, 
1951.00, 
1952.00, 
1953.00, 
1954.00, 
1955.00, 
1956.00, 
1957.00, 
1958.00, 
1959.00, 
1960.00, 
1961.00, 
1962.00, 
1963.00, 
1964.00, 
1965.00, 
1966.00, 
1967.00, 
1968.00, 
1969.00, 
1970.00, 
1971.00, 
1972.00, 
1973.00, 
1974.00, 
1975.00, 
1976.00, 
1977.00, 
1978.00, 
1979.00, 
1980.00, 
1981.00, 
1982.00, 
1983.00, 
1984.00, 
1985.00, 
1986.00, 
1987.00, 
1988.00, 
1989.00, 
1990.00, 
1991.00, 
1992.00, 
1993.00, 
1994.00, 
1995.00, 
1996.00, 
1997.00, 
1998.00, 
1999.00, 
2000.00, 
2001.00, 
2002.00, 
2003.00, 
2004.00, 
2005.00, 
2006.00, 
2007.00, 
2008.00, 
2009.00, 
2010.00, 
2011.00, 
2012.00, 
2013.00, 
2014.00, 
2015.00, 
2016.00, 
2017.00, 
2018.00, 
2019.00, 
2020.00, 
2021.00, 
2022.00, 
2023.00, 
2024.00, 
2025.00, 
2026.00, 
2027.00, 
2028.00, 
2029.00, 
2030.00, 
2031.00, 
2032.00, 
2033.00, 
2034.00, 
2035.00, 
2036.00, 
2037.00, 
2038.00, 
2039.00, 
2040.00, 
2041.00, 
2042.00, 
2043.00, 
2044.00, 
2045.00, 
2046.00, 
2047.00, 
2048.00, 
2049.00, 
2050.00, 
2051.00, 
2052.00, 
2053.00, 
2054.00, 
2055.00, 
2056.00, 
2057.00, 
2058.00, 
2059.00, 
2060.00, 
2061.00, 
2062.00, 
2063.00, 
2064.00, 
2065.00, 
2066.00, 
2067.00, 
2068.00, 
2069.00, 
2070.00, 
2071.00, 
2072.00, 
2073.00, 
2074.00, 
2075.00, 
2076.00, 
2077.00, 
2078.00, 
2079.00, 
2080.00, 
2081.00, 
2082.00, 
2083.00, 
2084.00, 
2085.00, 
2086.00, 
2087.00, 
2088.00, 
2089.00, 
2090.00, 
2091.00, 
2092.00, 
2093.00, 
2094.00, 
2095.00, 
2096.00, 
2097.00, 
2098.00, 
2099.00, 
2100.00, 
2101.00, 
2102.00, 
2103.00, 
2104.00, 
2105.00, 
2106.00, 
2107.00, 
2108.00, 
2109.00, 
2110.00, 
2111.00, 
2112.00, 
2113.00, 
2114.00, 
2115.00, 
2116.00, 
2117.00, 
2118.00, 
2119.00, 
2120.00, 
2121.00, 
2122.00, 
2123.00, 
2124.00, 
2125.00, 
2126.00, 
2127.00, 
2128.00, 
2129.00, 
2130.00, 
2131.00, 
2132.00, 
2133.00, 
2134.00, 
2135.00, 
2136.00, 
2137.00, 
2138.00, 
2139.00, 
2140.00, 
2141.00, 
2142.00, 
2143.00, 
2144.00, 
2145.00, 
2146.00, 
2147.00, 
2148.00, 
2149.00, 
2150.00, 
2151.00, 
2152.00, 
2153.00, 
2154.00, 
2155.00, 
2156.00, 
2157.00, 
2158.00, 
2159.00, 
2160.00, 
2161.00, 
2162.00, 
2163.00, 
2164.00, 
2165.00, 
2166.00, 
2167.00, 
2168.00, 
2169.00, 
2170.00, 
2171.00, 
2172.00, 
2173.00, 
2174.00, 
2175.00, 
2176.00, 
2177.00, 
2178.00, 
2179.00, 
2180.00, 
2181.00, 
2182.00, 
2183.00, 
2184.00, 
2185.00, 
2186.00, 
2187.00, 
2188.00, 
2189.00, 
2190.00, 
2191.00, 
2192.00, 
2193.00, 
2194.00, 
2195.00, 
2196.00, 
2197.00, 
2198.00, 
2199.00, 
2200.00, 
2201.00, 
2202.00, 
2203.00, 
2204.00, 
2205.00, 
2206.00, 
2207.00, 
2208.00, 
2209.00, 
2210.00, 
2211.00, 
2212.00, 
2213.00, 
2214.00, 
2215.00, 
2216.00, 
2217.00, 
2218.00, 
2219.00, 
2220.00, 
2221.00, 
2222.00, 
2223.00, 
2224.00, 
2225.00, 
2226.00, 
2227.00, 
2228.00, 
2229.00, 
2230.00, 
2231.00, 
2232.00, 
2233.00, 
2234.00, 
2235.00, 
2236.00, 
2237.00, 
2238.00, 
2239.00, 
2240.00, 
2241.00, 
2242.00, 
2243.00, 
2244.00, 
2245.00, 
2246.00, 
2247.00, 
2248.00, 
2249.00, 
2250.00, 
2251.00, 
2252.00, 
2253.00, 
2254.00, 
2255.00, 
2256.00, 
2257.00, 
2258.00, 
2259.00, 
2260.00, 
2261.00, 
2262.00, 
2263.00, 
2264.00, 
2265.00, 
2266.00, 
2267.00, 
2268.00, 
2269.00, 
2270.00, 
2271.00, 
2272.00, 
2273.00, 
2274.00, 
2275.00, 
2276.00, 
2277.00, 
2278.00, 
2279.00, 
2280.00, 
2281.00, 
2282.00, 
2283.00, 
2284.00, 
2285.00, 
2286.00, 
2287.00, 
2288.00, 
2289.00, 
2290.00, 
2291.00, 
2292.00, 
2293.00, 
2294.00, 
2295.00, 
2296.00, 
2297.00, 
2298.00, 
2299.00, 
2300.00, 
2301.00, 
2302.00, 
2303.00, 
2304.00, 
2305.00, 
2306.00, 
2307.00, 
2308.00, 
2309.00, 
2310.00, 
2311.00, 
2312.00, 
2313.00, 
2314.00, 
2315.00, 
2316.00, 
2317.00, 
2318.00, 
2319.00, 
2320.00, 
2321.00, 
2322.00, 
2323.00, 
2324.00, 
2325.00, 
2326.00, 
2327.00, 
2328.00, 
2329.00, 
2330.00, 
2331.00, 
2332.00, 
2333.00, 
2334.00, 
2335.00, 
2336.00, 
2337.00, 
2338.00, 
2339.00, 
2340.00, 
2341.00, 
2342.00, 
2343.00, 
2344.00, 
2345.00, 
2346.00, 
2347.00, 
2348.00, 
2349.00, 
2350.00, 
2351.00, 
2352.00, 
2353.00, 
2354.00, 
2355.00, 
2356.00, 
2357.00, 
2358.00, 
2359.00, 
2360.00, 
2361.00, 
2362.00, 
2363.00, 
2364.00, 
2365.00, 
2366.00, 
2367.00, 
2368.00, 
2369.00, 
2370.00, 
2371.00, 
2372.00, 
2373.00, 
2374.00, 
2375.00, 
2376.00, 
2377.00, 
2378.00, 
2379.00, 
2380.00, 
2381.00, 
2382.00, 
2383.00, 
2384.00, 
2385.00, 
2386.00, 
2387.00, 
2388.00, 
2389.00, 
2390.00, 
2391.00, 
2392.00, 
2393.00, 
2394.00, 
2395.00, 
2396.00, 
2397.00, 
2398.00, 
2399.00, 
2400.00, 
2401.00, 
2402.00, 
2403.00, 
2404.00, 
2405.00, 
2406.00, 
2407.00, 
2408.00, 
2409.00, 
2410.00, 
2411.00, 
2412.00, 
2413.00, 
2414.00, 
2415.00, 
2416.00, 
2417.00, 
2418.00, 
2419.00, 
2420.00, 
2421.00, 
2422.00, 
2423.00, 
2424.00, 
2425.00, 
2426.00, 
2427.00, 
2428.00, 
2429.00, 
2430.00, 
2431.00, 
2432.00, 
2433.00, 
2434.00, 
2435.00, 
2436.00, 
2437.00, 
2438.00, 
2439.00, 
2440.00, 
2441.00, 
2442.00, 
2443.00, 
2444.00, 
2445.00, 
2446.00, 
2447.00, 
2448.00, 
2449.00, 
2450.00, 
2451.00, 
2452.00, 
2453.00, 
2454.00, 
2455.00, 
2456.00, 
2457.00, 
2458.00, 
2459.00, 
2460.00, 
2461.00, 
2462.00, 
2463.00, 
2464.00, 
2465.00, 
2466.00, 
2467.00, 
2468.00, 
2469.00, 
2470.00, 
2471.00, 
2472.00, 
2473.00, 
2474.00, 
2475.00, 
2476.00, 
2477.00, 
2478.00, 
2479.00, 
2480.00, 
2481.00, 
2482.00, 
2483.00, 
2484.00, 
2485.00, 
2486.00, 
2487.00, 
2488.00, 
2489.00, 
2490.00, 
2491.00, 
2492.00, 
2493.00, 
2494.00, 
2495.00, 
2496.00, 
2497.00, 
2498.00, 
2499.00, 
2500.00, 
2501.00, 
2502.00, 
2503.00, 
2504.00, 
2505.00, 
2506.00, 
2507.00, 
2508.00, 
2509.00, 
2510.00, 
2511.00, 
2512.00, 
2513.00, 
2514.00, 
2515.00, 
2516.00, 
2517.00, 
2518.00, 
2519.00, 
2520.00, 
2521.00, 
2522.00, 
2523.00, 
2524.00, 
2525.00, 
2526.00, 
2527.00, 
2528.00, 
2529.00, 
2530.00, 
2531.00, 
2532.00, 
2533.00, 
2534.00, 
2535.00, 
2536.00, 
2537.00, 
2538.00, 
2539.00, 
2540.00, 
2541.00, 
2542.00, 
2543.00, 
2544.00, 
2545.00, 
2546.00, 
2547.00, 
2548.00, 
2549.00, 
2550.00, 
2551.00, 
2552.00, 
2553.00, 
2554.00, 
2555.00, 
2556.00, 
2557.00, 
2558.00, 
2559.00, 
2560.00, 
2561.00, 
2562.00, 
2563.00, 
2564.00, 
2565.00, 
2566.00, 
2567.00, 
2568.00, 
2569.00, 
2570.00, 
2571.00, 
2572.00, 
2573.00, 
2574.00, 
2575.00, 
2576.00, 
2577.00, 
2578.00, 
2579.00, 
2580.00, 
2581.00, 
2582.00, 
2583.00, 
2584.00, 
2585.00, 
2586.00, 
2587.00, 
2588.00, 
2589.00, 
2590.00, 
2591.00, 
2592.00, 
2593.00, 
2594.00, 
2595.00, 
2596.00, 
2597.00, 
2598.00, 
2599.00, 
2600.00, 
