"1cP3 - RawData"
"Wavelength nm.","T%"
200.00,-0.000
201.00,0.001
202.00,0.002
203.00,0.003
204.00,-0.001
205.00,0.001
206.00,0.005
207.00,-0.000
208.00,-0.000
209.00,0.002
210.00,0.001
211.00,0.002
212.00,0.001
213.00,0.000
214.00,0.000
215.00,0.001
216.00,-0.002
217.00,0.004
218.00,0.001
219.00,0.001
220.00,-0.001
221.00,0.000
222.00,0.001
223.00,0.001
224.00,0.001
225.00,-0.000
226.00,0.002
227.00,0.002
228.00,0.002
229.00,0.001
230.00,0.001
231.00,0.002
232.00,-0.002
233.00,-0.001
234.00,0.002
235.00,0.001
236.00,0.001
237.00,0.001
238.00,-0.001
239.00,0.000
240.00,0.000
241.00,0.002
242.00,-0.001
243.00,-0.000
244.00,-0.000
245.00,0.000
246.00,-0.000
247.00,0.001
248.00,-0.000
249.00,0.001
250.00,0.000
251.00,-0.000
252.00,-0.000
253.00,0.002
254.00,0.000
255.00,0.002
256.00,0.001
257.00,0.001
258.00,-0.001
259.00,-0.000
260.00,0.001
261.00,0.001
262.00,0.001
263.00,0.000
264.00,0.001
265.00,-0.001
266.00,-0.000
267.00,0.002
268.00,-0.001
269.00,0.001
270.00,0.000
271.00,0.001
272.00,-0.001
273.00,0.001
274.00,-0.000
275.00,0.000
276.00,-0.000
277.00,0.000
278.00,0.001
279.00,0.000
280.00,0.001
281.00,-0.001
282.00,-0.000
283.00,-0.001
284.00,0.001
285.00,-0.000
286.00,-0.001
287.00,0.000
288.00,0.003
289.00,0.002
290.00,0.001
291.00,0.000
292.00,0.000
293.00,-0.000
294.00,0.000
295.00,0.000
296.00,0.001
297.00,0.001
298.00,0.000
299.00,0.000
300.00,-0.001
301.00,0.000
302.00,0.001
303.00,0.001
304.00,0.001
305.00,0.004
306.00,0.002
307.00,0.003
308.00,0.008
309.00,0.015
310.00,0.023
311.00,0.032
312.00,0.048
313.00,0.082
314.00,0.123
315.00,0.181
316.00,0.258
317.00,0.368
318.00,0.502
319.00,0.673
320.00,0.890
321.00,1.153
322.00,1.486
323.00,1.882
324.00,2.329
325.00,2.795
326.00,3.327
327.00,3.959
328.00,4.645
329.00,5.354
330.00,6.125
331.00,6.953
332.00,7.827
333.00,8.762
334.00,9.667
335.00,10.653
336.00,11.632
337.00,12.622
338.00,13.600
339.00,14.542
340.00,15.542
341.00,16.502
342.00,17.395
343.00,18.325
344.00,19.139
345.00,20.123
346.00,20.863
347.00,21.603
348.00,22.340
349.00,23.065
350.00,23.689
351.00,24.355
352.00,24.906
353.00,25.407
354.00,25.992
355.00,26.506
356.00,26.972
357.00,27.346
358.00,27.742
359.00,28.196
360.00,28.607
361.00,28.902
362.00,29.226
363.00,29.522
364.00,29.717
365.00,29.910
366.00,30.102
367.00,30.266
368.00,30.463
369.00,30.548
370.00,30.725
371.00,30.775
372.00,30.739
373.00,30.776
374.00,30.860
375.00,30.880
376.00,30.756
377.00,30.686
378.00,30.552
379.00,30.474
380.00,30.494
381.00,30.502
382.00,30.544
383.00,30.674
384.00,30.703
385.00,30.874
386.00,30.962
387.00,31.060
388.00,31.243
389.00,31.239
390.00,31.468
391.00,31.560
392.00,31.659
393.00,31.707
394.00,31.824
395.00,31.853
396.00,31.870
397.00,31.969
398.00,31.986
399.00,32.026
400.00,32.007
401.00,32.017
402.00,32.052
403.00,32.067
404.00,32.088
405.00,32.063
406.00,32.069
407.00,32.038
408.00,32.037
409.00,31.977
410.00,31.898
411.00,31.871
412.00,31.809
413.00,31.880
414.00,31.765
415.00,31.835
416.00,31.877
417.00,31.870
418.00,31.901
419.00,31.930
420.00,32.001
421.00,32.030
422.00,32.008
423.00,32.099
424.00,32.098
425.00,32.160
426.00,32.146
427.00,32.238
428.00,32.211
429.00,32.242
430.00,32.293
431.00,32.369
432.00,32.376
433.00,32.398
434.00,32.450
435.00,32.545
436.00,32.590
437.00,32.609
438.00,32.650
439.00,32.706
440.00,32.788
441.00,32.812
442.00,32.895
443.00,32.963
444.00,33.066
445.00,33.095
446.00,33.243
447.00,33.309
448.00,33.362
449.00,33.480
450.00,33.553
451.00,33.626
452.00,33.730
453.00,33.852
454.00,33.904
455.00,34.020
456.00,34.142
457.00,34.226
458.00,34.272
459.00,34.432
460.00,34.555
461.00,34.665
462.00,34.758
463.00,34.876
464.00,34.982
465.00,35.084
466.00,35.196
467.00,35.278
468.00,35.385
469.00,35.490
470.00,35.481
471.00,35.549
472.00,35.678
473.00,35.701
474.00,35.813
475.00,35.893
476.00,35.951
477.00,36.040
478.00,36.136
479.00,36.370
480.00,36.432
481.00,36.504
482.00,36.644
483.00,36.739
484.00,36.904
485.00,37.048
486.00,37.151
487.00,37.313
488.00,37.420
489.00,37.540
490.00,37.693
491.00,37.770
492.00,37.967
493.00,38.093
494.00,38.008
495.00,38.096
496.00,38.216
497.00,38.341
498.00,38.431
499.00,38.596
500.00,38.675
501.00,38.655
502.00,38.749
503.00,38.970
504.00,39.002
505.00,39.146
506.00,39.234
507.00,39.303
508.00,39.454
509.00,39.579
510.00,39.700
511.00,39.738
512.00,39.939
513.00,40.097
514.00,40.181
515.00,40.255
516.00,40.335
517.00,40.392
518.00,40.525
519.00,40.585
520.00,40.571
521.00,40.678
522.00,40.789
523.00,40.768
524.00,40.878
525.00,41.005
526.00,41.078
527.00,41.065
528.00,41.150
529.00,41.353
530.00,41.529
531.00,41.606
532.00,41.665
533.00,41.769
534.00,41.830
535.00,41.908
536.00,41.943
537.00,42.055
538.00,42.052
539.00,42.119
540.00,42.221
541.00,42.221
542.00,42.246
543.00,42.351
544.00,42.429
545.00,42.457
546.00,42.529
547.00,42.616
548.00,42.732
549.00,42.778
550.00,42.841
551.00,42.969
552.00,43.028
553.00,43.024
554.00,43.137
555.00,43.128
556.00,43.223
557.00,43.300
558.00,43.373
559.00,43.410
560.00,43.480
561.00,43.563
562.00,43.616
563.00,43.598
564.00,43.628
565.00,43.660
566.00,43.699
567.00,43.706
568.00,43.777
569.00,43.851
570.00,43.857
571.00,43.931
572.00,43.901
573.00,43.872
574.00,43.925
575.00,43.888
576.00,43.893
577.00,43.917
578.00,44.090
579.00,44.158
580.00,44.166
581.00,44.364
582.00,44.371
583.00,44.378
584.00,44.517
585.00,44.555
586.00,44.593
587.00,44.644
588.00,44.667
589.00,44.576
590.00,44.683
591.00,44.724
592.00,44.663
593.00,44.775
594.00,44.853
595.00,44.934
596.00,44.946
597.00,44.992
598.00,45.081
599.00,45.059
600.00,45.095
601.00,45.157
602.00,45.137
603.00,45.182
604.00,45.249
605.00,45.251
606.00,45.243
607.00,45.258
608.00,45.453
609.00,45.532
610.00,45.345
611.00,45.443
612.00,45.467
613.00,45.501
614.00,45.535
615.00,45.649
616.00,45.708
617.00,45.711
618.00,45.618
619.00,45.757
620.00,45.726
621.00,45.706
622.00,45.830
623.00,45.866
624.00,45.945
625.00,45.978
626.00,46.013
627.00,46.054
628.00,46.038
629.00,46.129
630.00,46.015
631.00,46.061
632.00,46.173
633.00,46.329
634.00,46.350
635.00,46.403
636.00,46.471
637.00,46.434
638.00,46.425
639.00,46.594
640.00,46.529
641.00,46.521
642.00,46.607
643.00,46.644
644.00,46.669
645.00,46.714
646.00,46.737
647.00,46.902
648.00,46.854
649.00,46.823
650.00,46.768
651.00,47.020
652.00,47.240
653.00,47.010
654.00,47.058
655.00,47.212
656.00,47.503
657.00,47.241
658.00,47.416
659.00,47.525
660.00,47.570
661.00,47.497
662.00,47.461
663.00,47.555
664.00,47.855
665.00,47.939
666.00,47.698
667.00,47.801
668.00,47.740
669.00,48.055
670.00,48.256
671.00,48.078
672.00,48.044
673.00,48.113
674.00,48.205
675.00,48.259
676.00,48.435
677.00,48.511
678.00,48.204
679.00,48.361
680.00,48.444
681.00,48.549
682.00,48.498
683.00,48.543
684.00,48.740
685.00,48.570
686.00,48.412
687.00,48.587
688.00,48.568
689.00,48.724
690.00,48.989
691.00,48.990
692.00,48.830
693.00,49.021
694.00,48.958
695.00,49.160
696.00,49.179
697.00,49.177
698.00,49.177
699.00,49.382
700.00,49.334
701.00,49.187
702.00,49.328
703.00,49.577
704.00,49.526
705.00,49.473
706.00,49.499
707.00,49.445
708.00,49.291
709.00,49.671
710.00,50.064
711.00,49.593
712.00,49.525
713.00,49.641
714.00,49.683
715.00,49.667
716.00,49.605
717.00,49.778
718.00,49.959
719.00,49.906
720.00,49.895
721.00,54.512
722.00,54.553
723.00,54.408
724.00,54.380
725.00,54.383
726.00,54.375
727.00,54.389
728.00,54.439
729.00,54.338
730.00,54.422
731.00,54.363
732.00,54.336
733.00,54.402
734.00,54.264
735.00,54.371
736.00,54.332
737.00,54.271
738.00,54.403
739.00,54.322
740.00,54.324
741.00,54.335
742.00,54.292
743.00,54.245
744.00,54.275
745.00,54.249
746.00,54.241
747.00,54.115
748.00,54.096
749.00,54.034
750.00,54.082
751.00,53.997
752.00,54.000
753.00,53.935
754.00,53.990
755.00,54.052
756.00,53.948
757.00,53.913
758.00,53.939
759.00,53.881
760.00,53.896
761.00,53.936
762.00,53.820
763.00,53.919
764.00,53.850
765.00,53.865
766.00,53.852
767.00,53.774
768.00,53.848
769.00,53.759
770.00,53.851
771.00,53.729
772.00,53.830
773.00,53.740
774.00,53.679
775.00,53.775
776.00,53.727
777.00,53.674
778.00,53.716
779.00,53.717
780.00,53.577
781.00,53.583
782.00,53.553
783.00,53.588
784.00,53.536
785.00,53.458
786.00,53.527
787.00,53.507
788.00,53.506
789.00,53.447
790.00,53.343
791.00,53.476
792.00,53.307
793.00,53.303
794.00,53.285
795.00,53.248
796.00,53.281
797.00,53.141
798.00,53.236
799.00,53.165
800.00,53.124
801.00,53.158
802.00,53.076
803.00,53.022
804.00,53.003
805.00,53.060
806.00,52.986
807.00,52.926
808.00,52.963
809.00,52.853
810.00,52.863
811.00,52.875
812.00,52.967
813.00,52.750
814.00,52.812
815.00,52.756
816.00,52.704
817.00,52.685
818.00,52.581
819.00,52.652
820.00,52.523
821.00,52.625
822.00,52.651
823.00,52.567
824.00,52.622
825.00,52.401
826.00,52.409
827.00,52.566
828.00,52.624
829.00,52.374
830.00,52.493
831.00,54.791
832.00,54.786
833.00,54.747
834.00,54.738
835.00,54.664
836.00,54.669
837.00,54.628
838.00,54.623
839.00,54.571
840.00,54.481
841.00,54.594
842.00,54.504
843.00,54.496
844.00,54.440
845.00,54.390
846.00,54.402
847.00,54.385
848.00,54.354
849.00,54.301
850.00,54.226
851.00,54.149
852.00,54.281
853.00,54.145
854.00,54.154
855.00,54.084
856.00,54.058
857.00,54.060
858.00,54.001
859.00,54.007
860.00,53.974
861.00,53.997
862.00,53.869
863.00,53.902
864.00,53.849
865.00,53.899
866.00,53.867
867.00,53.843
868.00,53.836
869.00,53.810
870.00,53.811
871.00,53.787
872.00,53.755
873.00,53.787
874.00,53.687
875.00,53.689
876.00,53.713
877.00,53.711
878.00,53.672
879.00,53.665
880.00,53.626
881.00,53.578
882.00,53.591
883.00,53.570
884.00,53.524
885.00,53.501
886.00,53.500
887.00,53.455
888.00,53.449
889.00,53.433
890.00,53.431
891.00,53.372
892.00,53.340
893.00,53.341
894.00,53.329
895.00,53.274
896.00,53.265
897.00,53.243
898.00,53.216
899.00,53.201
900.00,53.190
901.00,53.182
902.00,53.186
903.00,53.137
904.00,53.125
905.00,53.116
906.00,53.092
907.00,53.089
908.00,53.014
909.00,53.029
910.00,52.924
911.00,53.064
912.00,52.957
913.00,52.909
914.00,52.896
915.00,52.869
916.00,52.858
917.00,52.852
918.00,52.842
919.00,52.740
920.00,52.731
921.00,52.865
922.00,52.773
923.00,52.703
924.00,52.705
925.00,52.680
926.00,52.673
927.00,52.652
928.00,52.594
929.00,52.625
930.00,52.579
931.00,52.546
932.00,52.502
933.00,52.528
934.00,52.483
935.00,52.460
936.00,52.430
937.00,52.395
938.00,52.412
939.00,52.387
940.00,52.352
941.00,52.364
942.00,52.335
943.00,52.322
944.00,52.274
945.00,52.287
946.00,52.268
947.00,52.232
948.00,52.192
949.00,52.177
950.00,52.149
951.00,52.124
952.00,52.126
953.00,52.078
954.00,52.072
955.00,52.011
956.00,51.989
957.00,51.959
958.00,51.986
959.00,51.855
960.00,51.927
961.00,51.905
962.00,51.889
963.00,51.864
964.00,51.856
965.00,51.851
966.00,51.821
967.00,51.821
968.00,51.802
969.00,51.835
970.00,51.783
971.00,51.808
972.00,51.756
973.00,51.804
974.00,51.822
975.00,51.778
976.00,51.791
977.00,51.794
978.00,51.825
979.00,51.764
980.00,51.791
981.00,51.792
982.00,51.739
983.00,51.764
984.00,51.727
985.00,51.765
986.00,51.708
987.00,51.723
988.00,51.703
989.00,51.685
990.00,51.681
991.00,51.673
992.00,51.683
993.00,51.648
994.00,51.648
995.00,51.631
996.00,51.620
997.00,51.599
998.00,51.606
999.00,51.612
1000.00,51.535
1001.00,51.549
1002.00,51.539
1003.00,51.511
1004.00,51.488
1005.00,51.467
1006.00,51.503
1007.00,51.466
1008.00,51.456
1009.00,51.423
1010.00,51.438
1011.00,51.416
1012.00,51.390
1013.00,51.430
1014.00,51.423
1015.00,51.400
1016.00,51.347
1017.00,51.344
1018.00,51.326
1019.00,51.284
1020.00,51.290
1021.00,51.268
1022.00,51.263
1023.00,51.212
1024.00,51.216
1025.00,51.192
1026.00,51.189
1027.00,51.147
1028.00,51.134
1029.00,51.152
1030.00,51.098
1031.00,51.117
1032.00,51.078
1033.00,51.058
1034.00,51.034
1035.00,50.999
1036.00,50.972
1037.00,50.976
1038.00,50.964
1039.00,50.916
1040.00,50.927
1041.00,50.891
1042.00,50.892
1043.00,50.873
1044.00,50.881
1045.00,50.872
1046.00,50.855
1047.00,50.863
1048.00,50.896
1049.00,50.918
1050.00,50.917
1051.00,50.967
1052.00,50.964
1053.00,50.967
1054.00,50.960
1055.00,50.970
1056.00,50.992
1057.00,50.975
1058.00,50.943
1059.00,50.991
1060.00,50.977
1061.00,50.958
1062.00,50.957
1063.00,50.951
1064.00,50.963
1065.00,50.937
1066.00,50.919
1067.00,50.925
1068.00,50.943
1069.00,50.891
1070.00,50.883
1071.00,50.867
1072.00,50.892
1073.00,50.874
1074.00,50.877
1075.00,50.885
1076.00,50.864
1077.00,50.823
1078.00,50.816
1079.00,50.819
1080.00,50.805
1081.00,50.807
1082.00,50.799
1083.00,50.803
1084.00,50.789
1085.00,50.805
1086.00,50.790
1087.00,50.807
1088.00,50.765
1089.00,50.756
1090.00,50.761
1091.00,50.745
1092.00,50.735
1093.00,50.716
1094.00,50.702
1095.00,50.695
1096.00,50.663
1097.00,50.691
1098.00,50.683
1099.00,50.660
1100.00,50.661
1101.00,50.667
1102.00,50.635
1103.00,50.646
1104.00,50.633
1105.00,50.614
1106.00,50.600
1107.00,50.592
1108.00,50.581
1109.00,50.575
1110.00,50.548
1111.00,50.563
1112.00,50.550
1113.00,50.535
1114.00,50.536
1115.00,50.541
1116.00,50.519
1117.00,50.508
1118.00,50.513
1119.00,50.515
1120.00,50.498
1121.00,50.480
1122.00,50.499
1123.00,50.501
1124.00,50.467
1125.00,50.491
1126.00,50.461
1127.00,50.463
1128.00,50.453
1129.00,50.441
1130.00,50.422
1131.00,50.430
1132.00,50.414
1133.00,50.401
1134.00,50.411
1135.00,50.389
1136.00,50.398
1137.00,50.400
1138.00,50.393
1139.00,50.411
1140.00,50.378
1141.00,50.394
1142.00,50.375
1143.00,50.379
1144.00,50.362
1145.00,50.367
1146.00,50.354
1147.00,50.348
1148.00,50.359
1149.00,50.393
1150.00,50.361
1151.00,50.347
1152.00,50.326
1153.00,50.357
1154.00,50.325
1155.00,50.346
1156.00,50.324
1157.00,50.316
1158.00,50.330
1159.00,50.321
1160.00,50.307
1161.00,50.333
1162.00,50.328
1163.00,50.322
1164.00,50.336
1165.00,50.322
1166.00,50.322
1167.00,50.307
1168.00,50.319
1169.00,50.329
1170.00,50.309
1171.00,50.274
1172.00,50.298
1173.00,50.283
1174.00,50.300
1175.00,50.295
1176.00,50.291
1177.00,50.278
1178.00,50.285
1179.00,50.293
1180.00,50.295
1181.00,50.301
1182.00,50.270
1183.00,50.283
1184.00,50.276
1185.00,50.289
1186.00,50.282
1187.00,50.275
1188.00,50.293
1189.00,50.288
1190.00,50.259
1191.00,50.272
1192.00,50.281
1193.00,50.277
1194.00,50.303
1195.00,50.276
1196.00,50.304
1197.00,50.318
1198.00,50.290
1199.00,50.299
1200.00,50.310
1201.00,50.312
1202.00,50.303
1203.00,50.292
1204.00,50.278
1205.00,50.317
1206.00,50.295
1207.00,50.313
1208.00,50.300
1209.00,50.295
1210.00,50.299
1211.00,50.280
1212.00,50.282
1213.00,50.251
1214.00,50.273
1215.00,50.248
1216.00,50.278
1217.00,50.291
1218.00,50.276
1219.00,50.312
1220.00,50.286
1221.00,50.326
1222.00,50.307
1223.00,50.314
1224.00,50.327
1225.00,50.290
1226.00,50.310
1227.00,50.320
1228.00,50.319
1229.00,50.315
1230.00,50.353
1231.00,50.328
1232.00,50.353
1233.00,50.362
1234.00,50.355
1235.00,50.372
1236.00,50.354
1237.00,50.356
1238.00,50.355
1239.00,50.361
1240.00,50.366
1241.00,50.397
1242.00,50.387
1243.00,50.395
1244.00,50.375
1245.00,50.387
1246.00,50.408
1247.00,50.389
1248.00,50.375
1249.00,50.411
1250.00,50.418
1251.00,50.402
1252.00,50.415
1253.00,50.390
1254.00,50.432
1255.00,50.421
1256.00,50.400
1257.00,50.401
1258.00,50.425
1259.00,50.420
1260.00,50.457
1261.00,50.459
1262.00,50.436
1263.00,50.448
1264.00,50.438
1265.00,50.461
1266.00,50.473
1267.00,50.479
1268.00,50.507
1269.00,50.498
1270.00,50.514
1271.00,50.519
1272.00,50.522
1273.00,50.537
1274.00,50.547
1275.00,50.542
1276.00,50.544
1277.00,50.553
1278.00,50.548
1279.00,50.563
1280.00,50.556
1281.00,50.568
1282.00,50.596
1283.00,50.578
1284.00,50.593
1285.00,50.612
1286.00,50.606
1287.00,50.620
1288.00,50.632
1289.00,50.604
1290.00,50.657
1291.00,50.641
1292.00,50.641
1293.00,50.645
1294.00,50.667
1295.00,50.685
1296.00,50.696
1297.00,50.692
1298.00,50.720
1299.00,50.701
1300.00,50.705
1301.00,50.710
1302.00,50.722
1303.00,50.711
1304.00,50.706
1305.00,50.735
1306.00,50.753
1307.00,50.756
1308.00,50.737
1309.00,50.759
1310.00,50.762
1311.00,50.743
1312.00,50.765
1313.00,50.785
1314.00,50.808
1315.00,50.822
1316.00,50.817
1317.00,50.847
1318.00,50.846
1319.00,50.829
1320.00,50.848
1321.00,51.025
1322.00,51.019
1323.00,51.018
1324.00,50.991
1325.00,50.995
1326.00,51.041
1327.00,51.002
1328.00,51.007
1329.00,51.026
1330.00,51.018
1331.00,51.024
1332.00,51.018
1333.00,51.034
1334.00,51.065
1335.00,51.069
1336.00,51.094
1337.00,51.157
1338.00,51.198
1339.00,51.241
1340.00,51.306
1341.00,51.361
1342.00,51.422
1343.00,51.470
1344.00,51.529
1345.00,51.608
1346.00,51.645
1347.00,51.665
1348.00,51.725
1349.00,51.680
1350.00,51.694
1351.00,51.735
1352.00,51.737
1353.00,51.778
1354.00,51.770
1355.00,51.709
1356.00,51.777
1357.00,51.765
1358.00,51.791
1359.00,51.819
1360.00,51.815
1361.00,51.826
1362.00,51.674
1363.00,51.872
1364.00,51.868
1365.00,51.861
1366.00,51.918
1367.00,51.836
1368.00,51.818
1369.00,51.893
1370.00,51.821
1371.00,51.763
1372.00,51.801
1373.00,51.832
1374.00,51.838
1375.00,51.820
1376.00,51.814
1377.00,51.821
1378.00,51.920
1379.00,51.842
1380.00,51.827
1381.00,51.853
1382.00,51.823
1383.00,51.861
1384.00,51.803
1385.00,51.780
1386.00,51.862
1387.00,51.870
1388.00,51.812
1389.00,51.831
1390.00,51.895
1391.00,51.850
1392.00,51.857
1393.00,51.835
1394.00,51.897
1395.00,51.830
1396.00,51.743
1397.00,51.758
1398.00,51.885
1399.00,51.848
1400.00,51.808
1401.00,51.821
1402.00,51.818
1403.00,51.795
1404.00,51.851
1405.00,51.875
1406.00,51.910
1407.00,51.942
1408.00,51.988
1409.00,52.150
1410.00,51.951
1411.00,51.937
1412.00,52.007
1413.00,51.928
1414.00,51.933
1415.00,51.945
1416.00,51.996
1417.00,52.020
1418.00,51.956
1419.00,51.994
1420.00,52.022
1421.00,52.072
1422.00,52.069
1423.00,52.079
1424.00,52.115
1425.00,52.126
1426.00,52.124
1427.00,52.152
1428.00,52.160
1429.00,52.168
1430.00,52.192
1431.00,52.220
1432.00,52.219
1433.00,52.256
1434.00,52.230
1435.00,52.298
1436.00,52.309
1437.00,52.276
1438.00,52.320
1439.00,52.353
1440.00,52.361
1441.00,52.372
1442.00,52.387
1443.00,52.415
1444.00,52.478
1445.00,52.452
1446.00,52.476
1447.00,52.511
1448.00,52.542
1449.00,52.546
1450.00,52.545
1451.00,52.557
1452.00,52.589
1453.00,52.594
1454.00,52.625
1455.00,52.635
1456.00,52.660
1457.00,52.654
1458.00,52.703
1459.00,52.708
1460.00,52.746
1461.00,52.738
1462.00,52.772
1463.00,52.780
1464.00,52.791
1465.00,52.798
1466.00,52.798
1467.00,52.830
1468.00,52.904
1469.00,52.901
1470.00,52.919
1471.00,52.931
1472.00,52.929
1473.00,52.934
1474.00,52.971
1475.00,52.991
1476.00,53.000
1477.00,52.993
1478.00,53.027
1479.00,53.034
1480.00,53.045
1481.00,53.072
1482.00,53.113
1483.00,53.136
1484.00,53.147
1485.00,53.146
1486.00,53.145
1487.00,53.177
1488.00,53.178
1489.00,53.173
1490.00,53.207
1491.00,53.231
1492.00,53.253
1493.00,53.224
1494.00,53.292
1495.00,53.269
1496.00,53.291
1497.00,53.292
1498.00,53.302
1499.00,53.328
1500.00,53.344
1501.00, 
1502.00, 
1503.00, 
1504.00, 
1505.00, 
1506.00, 
1507.00, 
1508.00, 
1509.00, 
1510.00, 
1511.00, 
1512.00, 
1513.00, 
1514.00, 
1515.00, 
1516.00, 
1517.00, 
1518.00, 
1519.00, 
1520.00, 
1521.00, 
1522.00, 
1523.00, 
1524.00, 
1525.00, 
1526.00, 
1527.00, 
1528.00, 
1529.00, 
1530.00, 
1531.00, 
1532.00, 
1533.00, 
1534.00, 
1535.00, 
1536.00, 
1537.00, 
1538.00, 
1539.00, 
1540.00, 
1541.00, 
1542.00, 
1543.00, 
1544.00, 
1545.00, 
1546.00, 
1547.00, 
1548.00, 
1549.00, 
1550.00, 
1551.00, 
1552.00, 
1553.00, 
1554.00, 
1555.00, 
1556.00, 
1557.00, 
1558.00, 
1559.00, 
1560.00, 
1561.00, 
1562.00, 
1563.00, 
1564.00, 
1565.00, 
1566.00, 
1567.00, 
1568.00, 
1569.00, 
1570.00, 
1571.00, 
1572.00, 
1573.00, 
1574.00, 
1575.00, 
1576.00, 
1577.00, 
1578.00, 
1579.00, 
1580.00, 
1581.00, 
1582.00, 
1583.00, 
1584.00, 
1585.00, 
1586.00, 
1587.00, 
1588.00, 
1589.00, 
1590.00, 
1591.00, 
1592.00, 
1593.00, 
1594.00, 
1595.00, 
1596.00, 
1597.00, 
1598.00, 
1599.00, 
1600.00, 
1601.00, 
1602.00, 
1603.00, 
1604.00, 
1605.00, 
1606.00, 
1607.00, 
1608.00, 
1609.00, 
1610.00, 
1611.00, 
1612.00, 
1613.00, 
1614.00, 
1615.00, 
1616.00, 
1617.00, 
1618.00, 
1619.00, 
1620.00, 
1621.00, 
1622.00, 
1623.00, 
1624.00, 
1625.00, 
1626.00, 
1627.00, 
1628.00, 
1629.00, 
1630.00, 
1631.00, 
1632.00, 
1633.00, 
1634.00, 
1635.00, 
1636.00, 
1637.00, 
1638.00, 
1639.00, 
1640.00, 
1641.00, 
1642.00, 
1643.00, 
1644.00, 
1645.00, 
1646.00, 
1647.00, 
1648.00, 
1649.00, 
1650.00, 
1651.00, 
1652.00, 
1653.00, 
1654.00, 
1655.00, 
1656.00, 
1657.00, 
1658.00, 
1659.00, 
1660.00, 
1661.00, 
1662.00, 
1663.00, 
1664.00, 
1665.00, 
1666.00, 
1667.00, 
1668.00, 
1669.00, 
1670.00, 
1671.00, 
1672.00, 
1673.00, 
1674.00, 
1675.00, 
1676.00, 
1677.00, 
1678.00, 
1679.00, 
1680.00, 
1681.00, 
1682.00, 
1683.00, 
1684.00, 
1685.00, 
1686.00, 
1687.00, 
1688.00, 
1689.00, 
1690.00, 
1691.00, 
1692.00, 
1693.00, 
1694.00, 
1695.00, 
1696.00, 
1697.00, 
1698.00, 
1699.00, 
1700.00, 
1701.00, 
1702.00, 
1703.00, 
1704.00, 
1705.00, 
1706.00, 
1707.00, 
1708.00, 
1709.00, 
1710.00, 
1711.00, 
1712.00, 
1713.00, 
1714.00, 
1715.00, 
1716.00, 
1717.00, 
1718.00, 
1719.00, 
1720.00, 
1721.00, 
1722.00, 
1723.00, 
1724.00, 
1725.00, 
1726.00, 
1727.00, 
1728.00, 
1729.00, 
1730.00, 
1731.00, 
1732.00, 
1733.00, 
1734.00, 
1735.00, 
1736.00, 
1737.00, 
1738.00, 
1739.00, 
1740.00, 
1741.00, 
1742.00, 
1743.00, 
1744.00, 
1745.00, 
1746.00, 
1747.00, 
1748.00, 
1749.00, 
1750.00, 
1751.00, 
1752.00, 
1753.00, 
1754.00, 
1755.00, 
1756.00, 
1757.00, 
1758.00, 
1759.00, 
1760.00, 
1761.00, 
1762.00, 
1763.00, 
1764.00, 
1765.00, 
1766.00, 
1767.00, 
1768.00, 
1769.00, 
1770.00, 
1771.00, 
1772.00, 
1773.00, 
1774.00, 
1775.00, 
1776.00, 
1777.00, 
1778.00, 
1779.00, 
1780.00, 
1781.00, 
1782.00, 
1783.00, 
1784.00, 
1785.00, 
1786.00, 
1787.00, 
1788.00, 
1789.00, 
1790.00, 
1791.00, 
1792.00, 
1793.00, 
1794.00, 
1795.00, 
1796.00, 
1797.00, 
1798.00, 
1799.00, 
1800.00, 
1801.00, 
1802.00, 
1803.00, 
1804.00, 
1805.00, 
1806.00, 
1807.00, 
1808.00, 
1809.00, 
1810.00, 
1811.00, 
1812.00, 
1813.00, 
1814.00, 
1815.00, 
1816.00, 
1817.00, 
1818.00, 
1819.00, 
1820.00, 
1821.00, 
1822.00, 
1823.00, 
1824.00, 
1825.00, 
1826.00, 
1827.00, 
1828.00, 
1829.00, 
1830.00, 
1831.00, 
1832.00, 
1833.00, 
1834.00, 
1835.00, 
1836.00, 
1837.00, 
1838.00, 
1839.00, 
1840.00, 
1841.00, 
1842.00, 
1843.00, 
1844.00, 
1845.00, 
1846.00, 
1847.00, 
1848.00, 
1849.00, 
1850.00, 
1851.00, 
1852.00, 
1853.00, 
1854.00, 
1855.00, 
1856.00, 
1857.00, 
1858.00, 
1859.00, 
1860.00, 
1861.00, 
1862.00, 
1863.00, 
1864.00, 
1865.00, 
1866.00, 
1867.00, 
1868.00, 
1869.00, 
1870.00, 
1871.00, 
1872.00, 
1873.00, 
1874.00, 
1875.00, 
1876.00, 
1877.00, 
1878.00, 
1879.00, 
1880.00, 
1881.00, 
1882.00, 
1883.00, 
1884.00, 
1885.00, 
1886.00, 
1887.00, 
1888.00, 
1889.00, 
1890.00, 
1891.00, 
1892.00, 
1893.00, 
1894.00, 
1895.00, 
1896.00, 
1897.00, 
1898.00, 
1899.00, 
1900.00, 
1901.00, 
1902.00, 
1903.00, 
1904.00, 
1905.00, 
1906.00, 
1907.00, 
1908.00, 
1909.00, 
1910.00, 
1911.00, 
1912.00, 
1913.00, 
1914.00, 
1915.00, 
1916.00, 
1917.00, 
1918.00, 
1919.00, 
1920.00, 
1921.00, 
1922.00, 
1923.00, 
1924.00, 
1925.00, 
1926.00, 
1927.00, 
1928.00, 
1929.00, 
1930.00, 
1931.00, 
1932.00, 
1933.00, 
1934.00, 
1935.00, 
1936.00, 
1937.00, 
1938.00, 
1939.00, 
1940.00, 
1941.00, 
1942.00, 
1943.00, 
1944.00, 
1945.00, 
1946.00, 
1947.00, 
1948.00, 
1949.00, 
1950.00, 
1951.00, 
1952.00, 
1953.00, 
1954.00, 
1955.00, 
1956.00, 
1957.00, 
1958.00, 
1959.00, 
1960.00, 
1961.00, 
1962.00, 
1963.00, 
1964.00, 
1965.00, 
1966.00, 
1967.00, 
1968.00, 
1969.00, 
1970.00, 
1971.00, 
1972.00, 
1973.00, 
1974.00, 
1975.00, 
1976.00, 
1977.00, 
1978.00, 
1979.00, 
1980.00, 
1981.00, 
1982.00, 
1983.00, 
1984.00, 
1985.00, 
1986.00, 
1987.00, 
1988.00, 
1989.00, 
1990.00, 
1991.00, 
1992.00, 
1993.00, 
1994.00, 
1995.00, 
1996.00, 
1997.00, 
1998.00, 
1999.00, 
2000.00, 
2001.00, 
2002.00, 
2003.00, 
2004.00, 
2005.00, 
2006.00, 
2007.00, 
2008.00, 
2009.00, 
2010.00, 
2011.00, 
2012.00, 
2013.00, 
2014.00, 
2015.00, 
2016.00, 
2017.00, 
2018.00, 
2019.00, 
2020.00, 
2021.00, 
2022.00, 
2023.00, 
2024.00, 
2025.00, 
2026.00, 
2027.00, 
2028.00, 
2029.00, 
2030.00, 
2031.00, 
2032.00, 
2033.00, 
2034.00, 
2035.00, 
2036.00, 
2037.00, 
2038.00, 
2039.00, 
2040.00, 
2041.00, 
2042.00, 
2043.00, 
2044.00, 
2045.00, 
2046.00, 
2047.00, 
2048.00, 
2049.00, 
2050.00, 
2051.00, 
2052.00, 
2053.00, 
2054.00, 
2055.00, 
2056.00, 
2057.00, 
2058.00, 
2059.00, 
2060.00, 
2061.00, 
2062.00, 
2063.00, 
2064.00, 
2065.00, 
2066.00, 
2067.00, 
2068.00, 
2069.00, 
2070.00, 
2071.00, 
2072.00, 
2073.00, 
2074.00, 
2075.00, 
2076.00, 
2077.00, 
2078.00, 
2079.00, 
2080.00, 
2081.00, 
2082.00, 
2083.00, 
2084.00, 
2085.00, 
2086.00, 
2087.00, 
2088.00, 
2089.00, 
2090.00, 
2091.00, 
2092.00, 
2093.00, 
2094.00, 
2095.00, 
2096.00, 
2097.00, 
2098.00, 
2099.00, 
2100.00, 
2101.00, 
2102.00, 
2103.00, 
2104.00, 
2105.00, 
2106.00, 
2107.00, 
2108.00, 
2109.00, 
2110.00, 
2111.00, 
2112.00, 
2113.00, 
2114.00, 
2115.00, 
2116.00, 
2117.00, 
2118.00, 
2119.00, 
2120.00, 
2121.00, 
2122.00, 
2123.00, 
2124.00, 
2125.00, 
2126.00, 
2127.00, 
2128.00, 
2129.00, 
2130.00, 
2131.00, 
2132.00, 
2133.00, 
2134.00, 
2135.00, 
2136.00, 
2137.00, 
2138.00, 
2139.00, 
2140.00, 
2141.00, 
2142.00, 
2143.00, 
2144.00, 
2145.00, 
2146.00, 
2147.00, 
2148.00, 
2149.00, 
2150.00, 
2151.00, 
2152.00, 
2153.00, 
2154.00, 
2155.00, 
2156.00, 
2157.00, 
2158.00, 
2159.00, 
2160.00, 
2161.00, 
2162.00, 
2163.00, 
2164.00, 
2165.00, 
2166.00, 
2167.00, 
2168.00, 
2169.00, 
2170.00, 
2171.00, 
2172.00, 
2173.00, 
2174.00, 
2175.00, 
2176.00, 
2177.00, 
2178.00, 
2179.00, 
2180.00, 
2181.00, 
2182.00, 
2183.00, 
2184.00, 
2185.00, 
2186.00, 
2187.00, 
2188.00, 
2189.00, 
2190.00, 
2191.00, 
2192.00, 
2193.00, 
2194.00, 
2195.00, 
2196.00, 
2197.00, 
2198.00, 
2199.00, 
2200.00, 
2201.00, 
2202.00, 
2203.00, 
2204.00, 
2205.00, 
2206.00, 
2207.00, 
2208.00, 
2209.00, 
2210.00, 
2211.00, 
2212.00, 
2213.00, 
2214.00, 
2215.00, 
2216.00, 
2217.00, 
2218.00, 
2219.00, 
2220.00, 
2221.00, 
2222.00, 
2223.00, 
2224.00, 
2225.00, 
2226.00, 
2227.00, 
2228.00, 
2229.00, 
2230.00, 
2231.00, 
2232.00, 
2233.00, 
2234.00, 
2235.00, 
2236.00, 
2237.00, 
2238.00, 
2239.00, 
2240.00, 
2241.00, 
2242.00, 
2243.00, 
2244.00, 
2245.00, 
2246.00, 
2247.00, 
2248.00, 
2249.00, 
2250.00, 
2251.00, 
2252.00, 
2253.00, 
2254.00, 
2255.00, 
2256.00, 
2257.00, 
2258.00, 
2259.00, 
2260.00, 
2261.00, 
2262.00, 
2263.00, 
2264.00, 
2265.00, 
2266.00, 
2267.00, 
2268.00, 
2269.00, 
2270.00, 
2271.00, 
2272.00, 
2273.00, 
2274.00, 
2275.00, 
2276.00, 
2277.00, 
2278.00, 
2279.00, 
2280.00, 
2281.00, 
2282.00, 
2283.00, 
2284.00, 
2285.00, 
2286.00, 
2287.00, 
2288.00, 
2289.00, 
2290.00, 
2291.00, 
2292.00, 
2293.00, 
2294.00, 
2295.00, 
2296.00, 
2297.00, 
2298.00, 
2299.00, 
2300.00, 
2301.00, 
2302.00, 
2303.00, 
2304.00, 
2305.00, 
2306.00, 
2307.00, 
2308.00, 
2309.00, 
2310.00, 
2311.00, 
2312.00, 
2313.00, 
2314.00, 
2315.00, 
2316.00, 
2317.00, 
2318.00, 
2319.00, 
2320.00, 
2321.00, 
2322.00, 
2323.00, 
2324.00, 
2325.00, 
2326.00, 
2327.00, 
2328.00, 
2329.00, 
2330.00, 
2331.00, 
2332.00, 
2333.00, 
2334.00, 
2335.00, 
2336.00, 
2337.00, 
2338.00, 
2339.00, 
2340.00, 
2341.00, 
2342.00, 
2343.00, 
2344.00, 
2345.00, 
2346.00, 
2347.00, 
2348.00, 
2349.00, 
2350.00, 
2351.00, 
2352.00, 
2353.00, 
2354.00, 
2355.00, 
2356.00, 
2357.00, 
2358.00, 
2359.00, 
2360.00, 
2361.00, 
2362.00, 
2363.00, 
2364.00, 
2365.00, 
2366.00, 
2367.00, 
2368.00, 
2369.00, 
2370.00, 
2371.00, 
2372.00, 
2373.00, 
2374.00, 
2375.00, 
2376.00, 
2377.00, 
2378.00, 
2379.00, 
2380.00, 
2381.00, 
2382.00, 
2383.00, 
2384.00, 
2385.00, 
2386.00, 
2387.00, 
2388.00, 
2389.00, 
2390.00, 
2391.00, 
2392.00, 
2393.00, 
2394.00, 
2395.00, 
2396.00, 
2397.00, 
2398.00, 
2399.00, 
2400.00, 
2401.00, 
2402.00, 
2403.00, 
2404.00, 
2405.00, 
2406.00, 
2407.00, 
2408.00, 
2409.00, 
2410.00, 
2411.00, 
2412.00, 
2413.00, 
2414.00, 
2415.00, 
2416.00, 
2417.00, 
2418.00, 
2419.00, 
2420.00, 
2421.00, 
2422.00, 
2423.00, 
2424.00, 
2425.00, 
2426.00, 
2427.00, 
2428.00, 
2429.00, 
2430.00, 
2431.00, 
2432.00, 
2433.00, 
2434.00, 
2435.00, 
2436.00, 
2437.00, 
2438.00, 
2439.00, 
2440.00, 
2441.00, 
2442.00, 
2443.00, 
2444.00, 
2445.00, 
2446.00, 
2447.00, 
2448.00, 
2449.00, 
2450.00, 
2451.00, 
2452.00, 
2453.00, 
2454.00, 
2455.00, 
2456.00, 
2457.00, 
2458.00, 
2459.00, 
2460.00, 
2461.00, 
2462.00, 
2463.00, 
2464.00, 
2465.00, 
2466.00, 
2467.00, 
2468.00, 
2469.00, 
2470.00, 
2471.00, 
2472.00, 
2473.00, 
2474.00, 
2475.00, 
2476.00, 
2477.00, 
2478.00, 
2479.00, 
2480.00, 
2481.00, 
2482.00, 
2483.00, 
2484.00, 
2485.00, 
2486.00, 
2487.00, 
2488.00, 
2489.00, 
2490.00, 
2491.00, 
2492.00, 
2493.00, 
2494.00, 
2495.00, 
2496.00, 
2497.00, 
2498.00, 
2499.00, 
2500.00, 
2501.00, 
2502.00, 
2503.00, 
2504.00, 
2505.00, 
2506.00, 
2507.00, 
2508.00, 
2509.00, 
2510.00, 
2511.00, 
2512.00, 
2513.00, 
2514.00, 
2515.00, 
2516.00, 
2517.00, 
2518.00, 
2519.00, 
2520.00, 
2521.00, 
2522.00, 
2523.00, 
2524.00, 
2525.00, 
2526.00, 
2527.00, 
2528.00, 
2529.00, 
2530.00, 
2531.00, 
2532.00, 
2533.00, 
2534.00, 
2535.00, 
2536.00, 
2537.00, 
2538.00, 
2539.00, 
2540.00, 
2541.00, 
2542.00, 
2543.00, 
2544.00, 
2545.00, 
2546.00, 
2547.00, 
2548.00, 
2549.00, 
2550.00, 
2551.00, 
2552.00, 
2553.00, 
2554.00, 
2555.00, 
2556.00, 
2557.00, 
2558.00, 
2559.00, 
2560.00, 
2561.00, 
2562.00, 
2563.00, 
2564.00, 
2565.00, 
2566.00, 
2567.00, 
2568.00, 
2569.00, 
2570.00, 
2571.00, 
2572.00, 
2573.00, 
2574.00, 
2575.00, 
2576.00, 
2577.00, 
2578.00, 
2579.00, 
2580.00, 
2581.00, 
2582.00, 
2583.00, 
2584.00, 
2585.00, 
2586.00, 
2587.00, 
2588.00, 
2589.00, 
2590.00, 
2591.00, 
2592.00, 
2593.00, 
2594.00, 
2595.00, 
2596.00, 
2597.00, 
2598.00, 
2599.00, 
2600.00, 
