"2bP2 - RawData"
"Wavelength nm.","T%"
200.00,0.001
201.00,-0.001
202.00,0.001
203.00,-0.001
204.00,-0.000
205.00,0.004
206.00,0.002
207.00,-0.002
208.00,0.002
209.00,0.003
210.00,-0.001
211.00,-0.001
212.00,0.001
213.00,-0.001
214.00,0.002
215.00,0.001
216.00,0.005
217.00,-0.002
218.00,0.002
219.00,-0.002
220.00,-0.001
221.00,0.001
222.00,-0.001
223.00,0.005
224.00,-0.001
225.00,0.001
226.00,0.001
227.00,-0.000
228.00,0.002
229.00,0.002
230.00,0.001
231.00,0.001
232.00,0.001
233.00,0.000
234.00,0.001
235.00,0.000
236.00,0.002
237.00,-0.000
238.00,-0.003
239.00,-0.001
240.00,-0.000
241.00,0.000
242.00,0.001
243.00,-0.000
244.00,0.001
245.00,-0.001
246.00,0.000
247.00,0.001
248.00,-0.000
249.00,0.002
250.00,0.000
251.00,0.001
252.00,0.001
253.00,0.001
254.00,0.001
255.00,-0.000
256.00,-0.000
257.00,-0.002
258.00,-0.000
259.00,-0.000
260.00,0.000
261.00,-0.000
262.00,0.002
263.00,0.000
264.00,-0.003
265.00,0.001
266.00,0.001
267.00,-0.001
268.00,0.002
269.00,0.000
270.00,-0.000
271.00,-0.000
272.00,0.001
273.00,-0.001
274.00,0.000
275.00,0.001
276.00,0.000
277.00,0.000
278.00,0.002
279.00,0.001
280.00,-0.001
281.00,-0.000
282.00,0.001
283.00,-0.001
284.00,0.000
285.00,-0.001
286.00,-0.000
287.00,-0.000
288.00,0.004
289.00,0.002
290.00,0.001
291.00,0.000
292.00,0.000
293.00,0.001
294.00,-0.001
295.00,0.001
296.00,0.001
297.00,-0.001
298.00,0.001
299.00,0.001
300.00,0.002
301.00,0.004
302.00,0.007
303.00,0.008
304.00,0.013
305.00,0.023
306.00,0.035
307.00,0.054
308.00,0.083
309.00,0.127
310.00,0.174
311.00,0.228
312.00,0.315
313.00,0.424
314.00,0.560
315.00,0.720
316.00,0.919
317.00,1.157
318.00,1.412
319.00,1.709
320.00,2.079
321.00,2.485
322.00,2.925
323.00,3.409
324.00,3.958
325.00,4.487
326.00,5.020
327.00,5.651
328.00,6.275
329.00,6.930
330.00,7.615
331.00,8.271
332.00,8.966
333.00,9.716
334.00,10.405
335.00,11.145
336.00,11.808
337.00,12.537
338.00,13.233
339.00,13.798
340.00,14.485
341.00,15.118
342.00,15.703
343.00,16.263
344.00,16.820
345.00,17.378
346.00,17.885
347.00,18.315
348.00,18.785
349.00,19.166
350.00,19.536
351.00,19.913
352.00,20.255
353.00,20.537
354.00,20.821
355.00,21.173
356.00,21.444
357.00,21.626
358.00,21.837
359.00,22.085
360.00,22.314
361.00,22.466
362.00,22.634
363.00,22.769
364.00,22.867
365.00,22.955
366.00,23.026
367.00,23.109
368.00,23.198
369.00,23.254
370.00,23.349
371.00,23.350
372.00,23.335
373.00,23.317
374.00,23.323
375.00,23.354
376.00,23.282
377.00,23.251
378.00,23.170
379.00,23.130
380.00,23.098
381.00,23.050
382.00,23.062
383.00,23.078
384.00,23.106
385.00,23.157
386.00,23.101
387.00,23.203
388.00,23.205
389.00,23.209
390.00,23.253
391.00,23.299
392.00,23.328
393.00,23.300
394.00,23.343
395.00,23.364
396.00,23.319
397.00,23.349
398.00,23.355
399.00,23.352
400.00,23.335
401.00,23.350
402.00,23.347
403.00,23.310
404.00,23.336
405.00,23.329
406.00,23.295
407.00,23.301
408.00,23.294
409.00,23.197
410.00,23.165
411.00,23.152
412.00,23.128
413.00,23.152
414.00,23.100
415.00,23.127
416.00,23.200
417.00,23.185
418.00,23.207
419.00,23.270
420.00,23.322
421.00,23.362
422.00,23.306
423.00,23.420
424.00,23.428
425.00,23.473
426.00,23.497
427.00,23.549
428.00,23.609
429.00,23.616
430.00,23.676
431.00,23.731
432.00,23.783
433.00,23.841
434.00,23.906
435.00,23.977
436.00,24.023
437.00,24.075
438.00,24.133
439.00,24.222
440.00,24.271
441.00,24.355
442.00,24.437
443.00,24.543
444.00,24.613
445.00,24.711
446.00,24.832
447.00,24.859
448.00,24.998
449.00,25.167
450.00,25.172
451.00,25.251
452.00,25.383
453.00,25.514
454.00,25.648
455.00,25.695
456.00,25.866
457.00,25.977
458.00,26.042
459.00,26.194
460.00,26.346
461.00,26.448
462.00,26.560
463.00,26.723
464.00,26.863
465.00,26.988
466.00,27.097
467.00,27.220
468.00,27.356
469.00,27.444
470.00,27.527
471.00,27.629
472.00,27.779
473.00,27.835
474.00,27.962
475.00,28.092
476.00,28.185
477.00,28.294
478.00,28.428
479.00,28.634
480.00,28.732
481.00,28.837
482.00,28.985
483.00,29.107
484.00,29.339
485.00,29.449
486.00,29.615
487.00,29.787
488.00,29.900
489.00,30.081
490.00,30.239
491.00,30.334
492.00,30.568
493.00,30.716
494.00,30.657
495.00,30.842
496.00,30.977
497.00,31.126
498.00,31.254
499.00,31.372
500.00,31.523
501.00,31.645
502.00,31.768
503.00,31.899
504.00,31.975
505.00,32.131
506.00,32.242
507.00,32.304
508.00,32.468
509.00,32.605
510.00,32.718
511.00,32.799
512.00,32.943
513.00,33.113
514.00,33.270
515.00,33.338
516.00,33.438
517.00,33.516
518.00,33.672
519.00,33.762
520.00,33.765
521.00,33.881
522.00,33.986
523.00,34.004
524.00,34.143
525.00,34.264
526.00,34.315
527.00,34.411
528.00,34.457
529.00,34.664
530.00,34.793
531.00,34.925
532.00,34.961
533.00,35.081
534.00,35.176
535.00,35.244
536.00,35.336
537.00,35.415
538.00,35.451
539.00,35.503
540.00,35.591
541.00,35.658
542.00,35.699
543.00,35.774
544.00,35.887
545.00,35.890
546.00,35.926
547.00,36.053
548.00,36.196
549.00,36.231
550.00,36.301
551.00,36.416
552.00,36.466
553.00,36.481
554.00,36.576
555.00,36.609
556.00,36.707
557.00,36.759
558.00,36.795
559.00,36.844
560.00,36.892
561.00,37.023
562.00,37.069
563.00,37.021
564.00,37.154
565.00,37.181
566.00,37.130
567.00,37.172
568.00,37.262
569.00,37.285
570.00,37.349
571.00,37.396
572.00,37.401
573.00,37.454
574.00,37.490
575.00,37.478
576.00,37.480
577.00,37.496
578.00,37.618
579.00,37.750
580.00,37.780
581.00,37.872
582.00,37.904
583.00,37.966
584.00,38.032
585.00,38.169
586.00,38.171
587.00,38.283
588.00,38.282
589.00,38.222
590.00,38.342
591.00,38.364
592.00,38.315
593.00,38.405
594.00,38.530
595.00,38.611
596.00,38.622
597.00,38.685
598.00,38.752
599.00,38.719
600.00,38.766
601.00,38.821
602.00,38.901
603.00,38.943
604.00,39.011
605.00,39.018
606.00,39.039
607.00,39.044
608.00,39.177
609.00,39.328
610.00,39.168
611.00,39.195
612.00,39.302
613.00,39.350
614.00,39.368
615.00,39.463
616.00,39.595
617.00,39.577
618.00,39.519
619.00,39.666
620.00,39.681
621.00,39.721
622.00,39.841
623.00,39.798
624.00,39.845
625.00,40.000
626.00,40.021
627.00,40.085
628.00,40.076
629.00,40.176
630.00,40.105
631.00,40.185
632.00,40.303
633.00,40.425
634.00,40.581
635.00,40.535
636.00,40.556
637.00,40.693
638.00,40.938
639.00,41.061
640.00,40.977
641.00,40.971
642.00,41.066
643.00,41.175
644.00,41.234
645.00,41.304
646.00,41.340
647.00,41.462
648.00,41.560
649.00,41.588
650.00,41.655
651.00,41.739
652.00,41.876
653.00,41.864
654.00,41.882
655.00,42.134
656.00,42.390
657.00,42.128
658.00,42.332
659.00,42.515
660.00,42.648
661.00,42.598
662.00,42.577
663.00,42.738
664.00,43.026
665.00,43.128
666.00,43.048
667.00,43.097
668.00,43.175
669.00,43.431
670.00,43.538
671.00,43.528
672.00,43.466
673.00,43.383
674.00,43.867
675.00,44.245
676.00,44.069
677.00,44.225
678.00,44.023
679.00,44.177
680.00,44.274
681.00,44.460
682.00,44.483
683.00,44.583
684.00,44.732
685.00,44.730
686.00,44.647
687.00,44.783
688.00,44.787
689.00,44.988
690.00,45.264
691.00,45.461
692.00,45.198
693.00,45.297
694.00,45.427
695.00,45.433
696.00,45.676
697.00,45.725
698.00,45.812
699.00,46.029
700.00,46.126
701.00,45.981
702.00,46.146
703.00,46.360
704.00,46.321
705.00,46.445
706.00,46.457
707.00,46.406
708.00,46.365
709.00,46.772
710.00,47.205
711.00,46.834
712.00,46.777
713.00,46.890
714.00,46.979
715.00,47.014
716.00,47.016
717.00,47.119
718.00,47.389
719.00,47.262
720.00,47.437
721.00,51.932
722.00,51.928
723.00,51.854
724.00,51.972
725.00,51.912
726.00,52.026
727.00,51.995
728.00,52.098
729.00,52.084
730.00,52.142
731.00,52.104
732.00,52.175
733.00,52.287
734.00,52.264
735.00,52.244
736.00,52.263
737.00,52.269
738.00,52.478
739.00,52.433
740.00,52.468
741.00,52.440
742.00,52.518
743.00,52.425
744.00,52.464
745.00,52.537
746.00,52.564
747.00,52.533
748.00,52.499
749.00,52.434
750.00,52.532
751.00,52.549
752.00,52.577
753.00,52.536
754.00,52.617
755.00,52.562
756.00,52.603
757.00,52.537
758.00,52.657
759.00,52.646
760.00,52.708
761.00,52.709
762.00,52.650
763.00,52.739
764.00,52.646
765.00,52.691
766.00,52.716
767.00,52.735
768.00,52.752
769.00,52.757
770.00,52.818
771.00,52.759
772.00,52.875
773.00,52.755
774.00,52.861
775.00,52.914
776.00,52.865
777.00,52.812
778.00,52.892
779.00,52.869
780.00,52.825
781.00,52.873
782.00,52.835
783.00,52.837
784.00,52.856
785.00,52.763
786.00,52.821
787.00,52.910
788.00,52.831
789.00,52.830
790.00,52.752
791.00,52.867
792.00,52.836
793.00,52.687
794.00,52.718
795.00,52.767
796.00,52.810
797.00,52.670
798.00,52.709
799.00,52.732
800.00,52.570
801.00,52.745
802.00,52.708
803.00,52.667
804.00,52.638
805.00,52.696
806.00,52.631
807.00,52.605
808.00,52.673
809.00,52.644
810.00,52.639
811.00,52.653
812.00,52.665
813.00,52.496
814.00,52.642
815.00,52.544
816.00,52.565
817.00,52.563
818.00,52.411
819.00,52.585
820.00,52.351
821.00,52.512
822.00,52.440
823.00,52.360
824.00,52.404
825.00,52.341
826.00,52.345
827.00,52.462
828.00,52.503
829.00,52.294
830.00,52.373
831.00,54.795
832.00,54.777
833.00,54.765
834.00,54.754
835.00,54.721
836.00,54.697
837.00,54.662
838.00,54.679
839.00,54.672
840.00,54.629
841.00,54.634
842.00,54.639
843.00,54.630
844.00,54.533
845.00,54.544
846.00,54.559
847.00,54.516
848.00,54.509
849.00,54.469
850.00,54.426
851.00,54.416
852.00,54.427
853.00,54.366
854.00,54.332
855.00,54.293
856.00,54.271
857.00,54.259
858.00,54.253
859.00,54.225
860.00,54.190
861.00,54.192
862.00,54.124
863.00,54.206
864.00,54.125
865.00,54.168
866.00,54.299
867.00,54.139
868.00,54.130
869.00,54.118
870.00,54.106
871.00,54.037
872.00,54.185
873.00,54.099
874.00,53.995
875.00,54.029
876.00,54.039
877.00,54.020
878.00,53.999
879.00,53.986
880.00,53.981
881.00,53.958
882.00,53.971
883.00,53.916
884.00,53.911
885.00,53.910
886.00,53.849
887.00,53.986
888.00,53.854
889.00,53.814
890.00,53.824
891.00,53.768
892.00,53.749
893.00,53.738
894.00,53.745
895.00,53.678
896.00,53.683
897.00,53.660
898.00,53.632
899.00,53.626
900.00,53.616
901.00,53.612
902.00,53.630
903.00,53.579
904.00,53.578
905.00,53.566
906.00,53.554
907.00,53.580
908.00,53.510
909.00,53.459
910.00,53.602
911.00,53.456
912.00,53.460
913.00,53.387
914.00,53.398
915.00,53.363
916.00,53.343
917.00,53.305
918.00,53.313
919.00,53.286
920.00,53.246
921.00,53.260
922.00,53.260
923.00,53.216
924.00,53.220
925.00,53.180
926.00,53.180
927.00,53.236
928.00,53.129
929.00,53.127
930.00,53.103
931.00,53.105
932.00,53.042
933.00,53.062
934.00,53.016
935.00,53.013
936.00,52.971
937.00,52.948
938.00,52.950
939.00,52.980
940.00,52.916
941.00,52.922
942.00,53.022
943.00,52.883
944.00,52.839
945.00,52.839
946.00,52.826
947.00,52.795
948.00,52.786
949.00,52.760
950.00,52.750
951.00,52.727
952.00,52.709
953.00,52.655
954.00,52.663
955.00,52.594
956.00,52.588
957.00,52.557
958.00,52.586
959.00,52.453
960.00,52.508
961.00,52.497
962.00,52.501
963.00,52.445
964.00,52.452
965.00,52.446
966.00,52.431
967.00,52.419
968.00,52.391
969.00,52.437
970.00,52.396
971.00,52.417
972.00,52.382
973.00,52.419
974.00,52.443
975.00,52.394
976.00,52.408
977.00,52.401
978.00,52.450
979.00,52.392
980.00,52.409
981.00,52.422
982.00,52.384
983.00,52.408
984.00,52.379
985.00,52.411
986.00,52.358
987.00,52.408
988.00,52.456
989.00,52.351
990.00,52.340
991.00,52.323
992.00,52.337
993.00,52.307
994.00,52.286
995.00,52.277
996.00,52.279
997.00,52.269
998.00,52.241
999.00,52.256
1000.00,52.214
1001.00,52.195
1002.00,52.169
1003.00,52.189
1004.00,52.155
1005.00,52.139
1006.00,52.171
1007.00,52.123
1008.00,52.112
1009.00,52.093
1010.00,52.100
1011.00,52.081
1012.00,52.050
1013.00,52.060
1014.00,52.006
1015.00,52.040
1016.00,51.984
1017.00,51.994
1018.00,51.979
1019.00,51.931
1020.00,51.935
1021.00,51.922
1022.00,51.929
1023.00,51.875
1024.00,51.884
1025.00,51.865
1026.00,51.856
1027.00,51.829
1028.00,51.815
1029.00,51.825
1030.00,51.783
1031.00,51.803
1032.00,51.761
1033.00,51.754
1034.00,51.739
1035.00,51.714
1036.00,51.691
1037.00,51.668
1038.00,51.648
1039.00,51.605
1040.00,51.604
1041.00,51.560
1042.00,51.552
1043.00,51.550
1044.00,51.557
1045.00,51.545
1046.00,51.535
1047.00,51.558
1048.00,51.567
1049.00,51.566
1050.00,51.572
1051.00,51.622
1052.00,51.613
1053.00,51.633
1054.00,51.628
1055.00,51.638
1056.00,51.653
1057.00,51.655
1058.00,51.620
1059.00,51.619
1060.00,51.623
1061.00,51.605
1062.00,51.589
1063.00,51.593
1064.00,51.629
1065.00,51.587
1066.00,51.570
1067.00,51.573
1068.00,51.603
1069.00,51.541
1070.00,51.536
1071.00,51.522
1072.00,51.536
1073.00,51.524
1074.00,51.518
1075.00,51.496
1076.00,51.518
1077.00,51.479
1078.00,51.483
1079.00,51.492
1080.00,51.460
1081.00,51.448
1082.00,51.436
1083.00,51.434
1084.00,51.429
1085.00,51.432
1086.00,51.418
1087.00,51.433
1088.00,51.379
1089.00,51.356
1090.00,51.358
1091.00,51.363
1092.00,51.360
1093.00,51.342
1094.00,51.339
1095.00,51.337
1096.00,51.309
1097.00,51.322
1098.00,51.317
1099.00,51.291
1100.00,51.274
1101.00,51.287
1102.00,51.267
1103.00,51.280
1104.00,51.270
1105.00,51.253
1106.00,51.240
1107.00,51.226
1108.00,51.214
1109.00,51.215
1110.00,51.196
1111.00,51.204
1112.00,51.194
1113.00,51.174
1114.00,51.164
1115.00,51.167
1116.00,51.143
1117.00,51.123
1118.00,51.119
1119.00,51.116
1120.00,51.119
1121.00,51.113
1122.00,51.104
1123.00,51.110
1124.00,51.087
1125.00,51.098
1126.00,51.092
1127.00,51.089
1128.00,51.067
1129.00,51.065
1130.00,51.049
1131.00,51.045
1132.00,51.020
1133.00,51.014
1134.00,51.023
1135.00,51.023
1136.00,51.017
1137.00,51.021
1138.00,51.001
1139.00,51.014
1140.00,50.993
1141.00,50.997
1142.00,50.994
1143.00,51.005
1144.00,50.979
1145.00,50.987
1146.00,50.968
1147.00,50.956
1148.00,50.953
1149.00,50.962
1150.00,50.961
1151.00,50.950
1152.00,50.923
1153.00,50.956
1154.00,50.927
1155.00,50.932
1156.00,50.918
1157.00,50.924
1158.00,50.920
1159.00,50.908
1160.00,50.901
1161.00,50.908
1162.00,50.899
1163.00,50.898
1164.00,50.908
1165.00,50.896
1166.00,50.890
1167.00,50.889
1168.00,50.894
1169.00,50.883
1170.00,50.889
1171.00,50.857
1172.00,50.884
1173.00,50.874
1174.00,50.889
1175.00,50.886
1176.00,50.871
1177.00,50.864
1178.00,50.866
1179.00,50.873
1180.00,50.863
1181.00,50.887
1182.00,50.870
1183.00,50.860
1184.00,50.860
1185.00,50.865
1186.00,50.862
1187.00,50.853
1188.00,50.842
1189.00,50.830
1190.00,50.820
1191.00,50.819
1192.00,50.834
1193.00,50.830
1194.00,50.836
1195.00,50.811
1196.00,50.846
1197.00,50.847
1198.00,50.823
1199.00,50.822
1200.00,50.842
1201.00,50.863
1202.00,50.829
1203.00,50.826
1204.00,50.822
1205.00,50.841
1206.00,50.827
1207.00,50.838
1208.00,50.816
1209.00,50.806
1210.00,50.817
1211.00,50.818
1212.00,50.824
1213.00,50.802
1214.00,50.829
1215.00,50.804
1216.00,50.827
1217.00,50.824
1218.00,50.797
1219.00,50.826
1220.00,50.800
1221.00,50.818
1222.00,50.808
1223.00,50.825
1224.00,50.814
1225.00,50.801
1226.00,50.816
1227.00,50.798
1228.00,50.826
1229.00,50.820
1230.00,50.845
1231.00,50.820
1232.00,50.840
1233.00,50.863
1234.00,50.864
1235.00,50.855
1236.00,50.855
1237.00,50.855
1238.00,50.845
1239.00,50.848
1240.00,50.843
1241.00,50.850
1242.00,50.843
1243.00,50.869
1244.00,50.854
1245.00,50.875
1246.00,50.880
1247.00,50.858
1248.00,50.847
1249.00,50.867
1250.00,50.884
1251.00,50.867
1252.00,50.874
1253.00,50.843
1254.00,50.893
1255.00,50.891
1256.00,50.851
1257.00,50.857
1258.00,50.897
1259.00,50.899
1260.00,50.907
1261.00,50.902
1262.00,50.909
1263.00,50.894
1264.00,50.898
1265.00,50.906
1266.00,50.901
1267.00,50.917
1268.00,50.922
1269.00,50.915
1270.00,50.930
1271.00,50.934
1272.00,50.935
1273.00,50.958
1274.00,50.966
1275.00,50.962
1276.00,50.968
1277.00,50.998
1278.00,50.994
1279.00,50.965
1280.00,50.959
1281.00,50.979
1282.00,50.995
1283.00,50.987
1284.00,50.996
1285.00,50.996
1286.00,50.990
1287.00,50.995
1288.00,50.993
1289.00,50.986
1290.00,51.012
1291.00,51.017
1292.00,51.020
1293.00,51.005
1294.00,51.019
1295.00,51.029
1296.00,51.034
1297.00,51.023
1298.00,51.059
1299.00,51.043
1300.00,51.058
1301.00,51.068
1302.00,51.075
1303.00,51.061
1304.00,51.058
1305.00,51.082
1306.00,51.095
1307.00,51.113
1308.00,51.097
1309.00,51.104
1310.00,51.104
1311.00,51.094
1312.00,51.096
1313.00,51.108
1314.00,51.123
1315.00,51.138
1316.00,51.128
1317.00,51.156
1318.00,51.159
1319.00,51.144
1320.00,51.162
1321.00,51.318
1322.00,51.307
1323.00,51.292
1324.00,51.279
1325.00,51.279
1326.00,51.298
1327.00,51.277
1328.00,51.279
1329.00,51.287
1330.00,51.287
1331.00,51.289
1332.00,51.284
1333.00,51.293
1334.00,51.313
1335.00,51.339
1336.00,51.356
1337.00,51.385
1338.00,51.439
1339.00,51.499
1340.00,51.542
1341.00,51.592
1342.00,51.673
1343.00,51.713
1344.00,51.772
1345.00,51.824
1346.00,51.867
1347.00,51.888
1348.00,51.928
1349.00,51.936
1350.00,51.952
1351.00,51.962
1352.00,51.943
1353.00,51.935
1354.00,51.978
1355.00,51.922
1356.00,52.010
1357.00,51.976
1358.00,52.008
1359.00,52.053
1360.00,52.020
1361.00,52.027
1362.00,51.978
1363.00,52.060
1364.00,52.078
1365.00,52.031
1366.00,52.063
1367.00,52.016
1368.00,51.953
1369.00,52.051
1370.00,52.009
1371.00,51.927
1372.00,51.984
1373.00,51.993
1374.00,51.991
1375.00,51.975
1376.00,51.974
1377.00,51.988
1378.00,52.045
1379.00,52.016
1380.00,51.975
1381.00,52.034
1382.00,52.014
1383.00,51.999
1384.00,51.945
1385.00,51.934
1386.00,51.981
1387.00,51.974
1388.00,51.915
1389.00,51.929
1390.00,51.988
1391.00,52.006
1392.00,51.957
1393.00,51.973
1394.00,51.988
1395.00,52.035
1396.00,51.900
1397.00,51.926
1398.00,51.687
1399.00,51.977
1400.00,51.923
1401.00,51.906
1402.00,52.021
1403.00,51.957
1404.00,51.950
1405.00,52.023
1406.00,51.990
1407.00,52.017
1408.00,52.078
1409.00,51.974
1410.00,52.030
1411.00,52.019
1412.00,52.085
1413.00,52.033
1414.00,52.007
1415.00,52.034
1416.00,52.085
1417.00,52.116
1418.00,52.038
1419.00,52.060
1420.00,52.074
1421.00,52.140
1422.00,52.116
1423.00,52.117
1424.00,52.143
1425.00,52.158
1426.00,52.156
1427.00,52.198
1428.00,52.196
1429.00,52.180
1430.00,52.212
1431.00,52.247
1432.00,52.233
1433.00,52.264
1434.00,52.234
1435.00,52.300
1436.00,52.291
1437.00,52.272
1438.00,52.311
1439.00,52.333
1440.00,52.353
1441.00,52.341
1442.00,52.346
1443.00,52.364
1444.00,52.434
1445.00,52.399
1446.00,52.408
1447.00,52.435
1448.00,52.470
1449.00,52.479
1450.00,52.486
1451.00,52.512
1452.00,52.544
1453.00,52.530
1454.00,52.547
1455.00,52.578
1456.00,52.593
1457.00,52.587
1458.00,52.632
1459.00,52.640
1460.00,52.651
1461.00,52.641
1462.00,52.671
1463.00,52.681
1464.00,52.698
1465.00,52.722
1466.00,52.724
1467.00,52.732
1468.00,52.796
1469.00,52.757
1470.00,52.762
1471.00,52.797
1472.00,52.803
1473.00,52.788
1474.00,52.816
1475.00,52.845
1476.00,52.859
1477.00,52.824
1478.00,52.867
1479.00,52.893
1480.00,52.889
1481.00,52.880
1482.00,52.923
1483.00,52.931
1484.00,52.941
1485.00,52.949
1486.00,52.946
1487.00,52.991
1488.00,53.002
1489.00,53.003
1490.00,53.030
1491.00,53.024
1492.00,53.039
1493.00,53.019
1494.00,53.058
1495.00,53.060
1496.00,53.074
1497.00,53.068
1498.00,53.073
1499.00,53.093
1500.00,53.110
1501.00, 
1502.00, 
1503.00, 
1504.00, 
1505.00, 
1506.00, 
1507.00, 
1508.00, 
1509.00, 
1510.00, 
1511.00, 
1512.00, 
1513.00, 
1514.00, 
1515.00, 
1516.00, 
1517.00, 
1518.00, 
1519.00, 
1520.00, 
1521.00, 
1522.00, 
1523.00, 
1524.00, 
1525.00, 
1526.00, 
1527.00, 
1528.00, 
1529.00, 
1530.00, 
1531.00, 
1532.00, 
1533.00, 
1534.00, 
1535.00, 
1536.00, 
1537.00, 
1538.00, 
1539.00, 
1540.00, 
1541.00, 
1542.00, 
1543.00, 
1544.00, 
1545.00, 
1546.00, 
1547.00, 
1548.00, 
1549.00, 
1550.00, 
1551.00, 
1552.00, 
1553.00, 
1554.00, 
1555.00, 
1556.00, 
1557.00, 
1558.00, 
1559.00, 
1560.00, 
1561.00, 
1562.00, 
1563.00, 
1564.00, 
1565.00, 
1566.00, 
1567.00, 
1568.00, 
1569.00, 
1570.00, 
1571.00, 
1572.00, 
1573.00, 
1574.00, 
1575.00, 
1576.00, 
1577.00, 
1578.00, 
1579.00, 
1580.00, 
1581.00, 
1582.00, 
1583.00, 
1584.00, 
1585.00, 
1586.00, 
1587.00, 
1588.00, 
1589.00, 
1590.00, 
1591.00, 
1592.00, 
1593.00, 
1594.00, 
1595.00, 
1596.00, 
1597.00, 
1598.00, 
1599.00, 
1600.00, 
1601.00, 
1602.00, 
1603.00, 
1604.00, 
1605.00, 
1606.00, 
1607.00, 
1608.00, 
1609.00, 
1610.00, 
1611.00, 
1612.00, 
1613.00, 
1614.00, 
1615.00, 
1616.00, 
1617.00, 
1618.00, 
1619.00, 
1620.00, 
1621.00, 
1622.00, 
1623.00, 
1624.00, 
1625.00, 
1626.00, 
1627.00, 
1628.00, 
1629.00, 
1630.00, 
1631.00, 
1632.00, 
1633.00, 
1634.00, 
1635.00, 
1636.00, 
1637.00, 
1638.00, 
1639.00, 
1640.00, 
1641.00, 
1642.00, 
1643.00, 
1644.00, 
1645.00, 
1646.00, 
1647.00, 
1648.00, 
1649.00, 
1650.00, 
1651.00, 
1652.00, 
1653.00, 
1654.00, 
1655.00, 
1656.00, 
1657.00, 
1658.00, 
1659.00, 
1660.00, 
1661.00, 
1662.00, 
1663.00, 
1664.00, 
1665.00, 
1666.00, 
1667.00, 
1668.00, 
1669.00, 
1670.00, 
1671.00, 
1672.00, 
1673.00, 
1674.00, 
1675.00, 
1676.00, 
1677.00, 
1678.00, 
1679.00, 
1680.00, 
1681.00, 
1682.00, 
1683.00, 
1684.00, 
1685.00, 
1686.00, 
1687.00, 
1688.00, 
1689.00, 
1690.00, 
1691.00, 
1692.00, 
1693.00, 
1694.00, 
1695.00, 
1696.00, 
1697.00, 
1698.00, 
1699.00, 
1700.00, 
1701.00, 
1702.00, 
1703.00, 
1704.00, 
1705.00, 
1706.00, 
1707.00, 
1708.00, 
1709.00, 
1710.00, 
1711.00, 
1712.00, 
1713.00, 
1714.00, 
1715.00, 
1716.00, 
1717.00, 
1718.00, 
1719.00, 
1720.00, 
1721.00, 
1722.00, 
1723.00, 
1724.00, 
1725.00, 
1726.00, 
1727.00, 
1728.00, 
1729.00, 
1730.00, 
1731.00, 
1732.00, 
1733.00, 
1734.00, 
1735.00, 
1736.00, 
1737.00, 
1738.00, 
1739.00, 
1740.00, 
1741.00, 
1742.00, 
1743.00, 
1744.00, 
1745.00, 
1746.00, 
1747.00, 
1748.00, 
1749.00, 
1750.00, 
1751.00, 
1752.00, 
1753.00, 
1754.00, 
1755.00, 
1756.00, 
1757.00, 
1758.00, 
1759.00, 
1760.00, 
1761.00, 
1762.00, 
1763.00, 
1764.00, 
1765.00, 
1766.00, 
1767.00, 
1768.00, 
1769.00, 
1770.00, 
1771.00, 
1772.00, 
1773.00, 
1774.00, 
1775.00, 
1776.00, 
1777.00, 
1778.00, 
1779.00, 
1780.00, 
1781.00, 
1782.00, 
1783.00, 
1784.00, 
1785.00, 
1786.00, 
1787.00, 
1788.00, 
1789.00, 
1790.00, 
1791.00, 
1792.00, 
1793.00, 
1794.00, 
1795.00, 
1796.00, 
1797.00, 
1798.00, 
1799.00, 
1800.00, 
1801.00, 
1802.00, 
1803.00, 
1804.00, 
1805.00, 
1806.00, 
1807.00, 
1808.00, 
1809.00, 
1810.00, 
1811.00, 
1812.00, 
1813.00, 
1814.00, 
1815.00, 
1816.00, 
1817.00, 
1818.00, 
1819.00, 
1820.00, 
1821.00, 
1822.00, 
1823.00, 
1824.00, 
1825.00, 
1826.00, 
1827.00, 
1828.00, 
1829.00, 
1830.00, 
1831.00, 
1832.00, 
1833.00, 
1834.00, 
1835.00, 
1836.00, 
1837.00, 
1838.00, 
1839.00, 
1840.00, 
1841.00, 
1842.00, 
1843.00, 
1844.00, 
1845.00, 
1846.00, 
1847.00, 
1848.00, 
1849.00, 
1850.00, 
1851.00, 
1852.00, 
1853.00, 
1854.00, 
1855.00, 
1856.00, 
1857.00, 
1858.00, 
1859.00, 
1860.00, 
1861.00, 
1862.00, 
1863.00, 
1864.00, 
1865.00, 
1866.00, 
1867.00, 
1868.00, 
1869.00, 
1870.00, 
1871.00, 
1872.00, 
1873.00, 
1874.00, 
1875.00, 
1876.00, 
1877.00, 
1878.00, 
1879.00, 
1880.00, 
1881.00, 
1882.00, 
1883.00, 
1884.00, 
1885.00, 
1886.00, 
1887.00, 
1888.00, 
1889.00, 
1890.00, 
1891.00, 
1892.00, 
1893.00, 
1894.00, 
1895.00, 
1896.00, 
1897.00, 
1898.00, 
1899.00, 
1900.00, 
1901.00, 
1902.00, 
1903.00, 
1904.00, 
1905.00, 
1906.00, 
1907.00, 
1908.00, 
1909.00, 
1910.00, 
1911.00, 
1912.00, 
1913.00, 
1914.00, 
1915.00, 
1916.00, 
1917.00, 
1918.00, 
1919.00, 
1920.00, 
1921.00, 
1922.00, 
1923.00, 
1924.00, 
1925.00, 
1926.00, 
1927.00, 
1928.00, 
1929.00, 
1930.00, 
1931.00, 
1932.00, 
1933.00, 
1934.00, 
1935.00, 
1936.00, 
1937.00, 
1938.00, 
1939.00, 
1940.00, 
1941.00, 
1942.00, 
1943.00, 
1944.00, 
1945.00, 
1946.00, 
1947.00, 
1948.00, 
1949.00, 
1950.00, 
1951.00, 
1952.00, 
1953.00, 
1954.00, 
1955.00, 
1956.00, 
1957.00, 
1958.00, 
1959.00, 
1960.00, 
1961.00, 
1962.00, 
1963.00, 
1964.00, 
1965.00, 
1966.00, 
1967.00, 
1968.00, 
1969.00, 
1970.00, 
1971.00, 
1972.00, 
1973.00, 
1974.00, 
1975.00, 
1976.00, 
1977.00, 
1978.00, 
1979.00, 
1980.00, 
1981.00, 
1982.00, 
1983.00, 
1984.00, 
1985.00, 
1986.00, 
1987.00, 
1988.00, 
1989.00, 
1990.00, 
1991.00, 
1992.00, 
1993.00, 
1994.00, 
1995.00, 
1996.00, 
1997.00, 
1998.00, 
1999.00, 
2000.00, 
2001.00, 
2002.00, 
2003.00, 
2004.00, 
2005.00, 
2006.00, 
2007.00, 
2008.00, 
2009.00, 
2010.00, 
2011.00, 
2012.00, 
2013.00, 
2014.00, 
2015.00, 
2016.00, 
2017.00, 
2018.00, 
2019.00, 
2020.00, 
2021.00, 
2022.00, 
2023.00, 
2024.00, 
2025.00, 
2026.00, 
2027.00, 
2028.00, 
2029.00, 
2030.00, 
2031.00, 
2032.00, 
2033.00, 
2034.00, 
2035.00, 
2036.00, 
2037.00, 
2038.00, 
2039.00, 
2040.00, 
2041.00, 
2042.00, 
2043.00, 
2044.00, 
2045.00, 
2046.00, 
2047.00, 
2048.00, 
2049.00, 
2050.00, 
2051.00, 
2052.00, 
2053.00, 
2054.00, 
2055.00, 
2056.00, 
2057.00, 
2058.00, 
2059.00, 
2060.00, 
2061.00, 
2062.00, 
2063.00, 
2064.00, 
2065.00, 
2066.00, 
2067.00, 
2068.00, 
2069.00, 
2070.00, 
2071.00, 
2072.00, 
2073.00, 
2074.00, 
2075.00, 
2076.00, 
2077.00, 
2078.00, 
2079.00, 
2080.00, 
2081.00, 
2082.00, 
2083.00, 
2084.00, 
2085.00, 
2086.00, 
2087.00, 
2088.00, 
2089.00, 
2090.00, 
2091.00, 
2092.00, 
2093.00, 
2094.00, 
2095.00, 
2096.00, 
2097.00, 
2098.00, 
2099.00, 
2100.00, 
2101.00, 
2102.00, 
2103.00, 
2104.00, 
2105.00, 
2106.00, 
2107.00, 
2108.00, 
2109.00, 
2110.00, 
2111.00, 
2112.00, 
2113.00, 
2114.00, 
2115.00, 
2116.00, 
2117.00, 
2118.00, 
2119.00, 
2120.00, 
2121.00, 
2122.00, 
2123.00, 
2124.00, 
2125.00, 
2126.00, 
2127.00, 
2128.00, 
2129.00, 
2130.00, 
2131.00, 
2132.00, 
2133.00, 
2134.00, 
2135.00, 
2136.00, 
2137.00, 
2138.00, 
2139.00, 
2140.00, 
2141.00, 
2142.00, 
2143.00, 
2144.00, 
2145.00, 
2146.00, 
2147.00, 
2148.00, 
2149.00, 
2150.00, 
2151.00, 
2152.00, 
2153.00, 
2154.00, 
2155.00, 
2156.00, 
2157.00, 
2158.00, 
2159.00, 
2160.00, 
2161.00, 
2162.00, 
2163.00, 
2164.00, 
2165.00, 
2166.00, 
2167.00, 
2168.00, 
2169.00, 
2170.00, 
2171.00, 
2172.00, 
2173.00, 
2174.00, 
2175.00, 
2176.00, 
2177.00, 
2178.00, 
2179.00, 
2180.00, 
2181.00, 
2182.00, 
2183.00, 
2184.00, 
2185.00, 
2186.00, 
2187.00, 
2188.00, 
2189.00, 
2190.00, 
2191.00, 
2192.00, 
2193.00, 
2194.00, 
2195.00, 
2196.00, 
2197.00, 
2198.00, 
2199.00, 
2200.00, 
2201.00, 
2202.00, 
2203.00, 
2204.00, 
2205.00, 
2206.00, 
2207.00, 
2208.00, 
2209.00, 
2210.00, 
2211.00, 
2212.00, 
2213.00, 
2214.00, 
2215.00, 
2216.00, 
2217.00, 
2218.00, 
2219.00, 
2220.00, 
2221.00, 
2222.00, 
2223.00, 
2224.00, 
2225.00, 
2226.00, 
2227.00, 
2228.00, 
2229.00, 
2230.00, 
2231.00, 
2232.00, 
2233.00, 
2234.00, 
2235.00, 
2236.00, 
2237.00, 
2238.00, 
2239.00, 
2240.00, 
2241.00, 
2242.00, 
2243.00, 
2244.00, 
2245.00, 
2246.00, 
2247.00, 
2248.00, 
2249.00, 
2250.00, 
2251.00, 
2252.00, 
2253.00, 
2254.00, 
2255.00, 
2256.00, 
2257.00, 
2258.00, 
2259.00, 
2260.00, 
2261.00, 
2262.00, 
2263.00, 
2264.00, 
2265.00, 
2266.00, 
2267.00, 
2268.00, 
2269.00, 
2270.00, 
2271.00, 
2272.00, 
2273.00, 
2274.00, 
2275.00, 
2276.00, 
2277.00, 
2278.00, 
2279.00, 
2280.00, 
2281.00, 
2282.00, 
2283.00, 
2284.00, 
2285.00, 
2286.00, 
2287.00, 
2288.00, 
2289.00, 
2290.00, 
2291.00, 
2292.00, 
2293.00, 
2294.00, 
2295.00, 
2296.00, 
2297.00, 
2298.00, 
2299.00, 
2300.00, 
2301.00, 
2302.00, 
2303.00, 
2304.00, 
2305.00, 
2306.00, 
2307.00, 
2308.00, 
2309.00, 
2310.00, 
2311.00, 
2312.00, 
2313.00, 
2314.00, 
2315.00, 
2316.00, 
2317.00, 
2318.00, 
2319.00, 
2320.00, 
2321.00, 
2322.00, 
2323.00, 
2324.00, 
2325.00, 
2326.00, 
2327.00, 
2328.00, 
2329.00, 
2330.00, 
2331.00, 
2332.00, 
2333.00, 
2334.00, 
2335.00, 
2336.00, 
2337.00, 
2338.00, 
2339.00, 
2340.00, 
2341.00, 
2342.00, 
2343.00, 
2344.00, 
2345.00, 
2346.00, 
2347.00, 
2348.00, 
2349.00, 
2350.00, 
2351.00, 
2352.00, 
2353.00, 
2354.00, 
2355.00, 
2356.00, 
2357.00, 
2358.00, 
2359.00, 
2360.00, 
2361.00, 
2362.00, 
2363.00, 
2364.00, 
2365.00, 
2366.00, 
2367.00, 
2368.00, 
2369.00, 
2370.00, 
2371.00, 
2372.00, 
2373.00, 
2374.00, 
2375.00, 
2376.00, 
2377.00, 
2378.00, 
2379.00, 
2380.00, 
2381.00, 
2382.00, 
2383.00, 
2384.00, 
2385.00, 
2386.00, 
2387.00, 
2388.00, 
2389.00, 
2390.00, 
2391.00, 
2392.00, 
2393.00, 
2394.00, 
2395.00, 
2396.00, 
2397.00, 
2398.00, 
2399.00, 
2400.00, 
2401.00, 
2402.00, 
2403.00, 
2404.00, 
2405.00, 
2406.00, 
2407.00, 
2408.00, 
2409.00, 
2410.00, 
2411.00, 
2412.00, 
2413.00, 
2414.00, 
2415.00, 
2416.00, 
2417.00, 
2418.00, 
2419.00, 
2420.00, 
2421.00, 
2422.00, 
2423.00, 
2424.00, 
2425.00, 
2426.00, 
2427.00, 
2428.00, 
2429.00, 
2430.00, 
2431.00, 
2432.00, 
2433.00, 
2434.00, 
2435.00, 
2436.00, 
2437.00, 
2438.00, 
2439.00, 
2440.00, 
2441.00, 
2442.00, 
2443.00, 
2444.00, 
2445.00, 
2446.00, 
2447.00, 
2448.00, 
2449.00, 
2450.00, 
2451.00, 
2452.00, 
2453.00, 
2454.00, 
2455.00, 
2456.00, 
2457.00, 
2458.00, 
2459.00, 
2460.00, 
2461.00, 
2462.00, 
2463.00, 
2464.00, 
2465.00, 
2466.00, 
2467.00, 
2468.00, 
2469.00, 
2470.00, 
2471.00, 
2472.00, 
2473.00, 
2474.00, 
2475.00, 
2476.00, 
2477.00, 
2478.00, 
2479.00, 
2480.00, 
2481.00, 
2482.00, 
2483.00, 
2484.00, 
2485.00, 
2486.00, 
2487.00, 
2488.00, 
2489.00, 
2490.00, 
2491.00, 
2492.00, 
2493.00, 
2494.00, 
2495.00, 
2496.00, 
2497.00, 
2498.00, 
2499.00, 
2500.00, 
2501.00, 
2502.00, 
2503.00, 
2504.00, 
2505.00, 
2506.00, 
2507.00, 
2508.00, 
2509.00, 
2510.00, 
2511.00, 
2512.00, 
2513.00, 
2514.00, 
2515.00, 
2516.00, 
2517.00, 
2518.00, 
2519.00, 
2520.00, 
2521.00, 
2522.00, 
2523.00, 
2524.00, 
2525.00, 
2526.00, 
2527.00, 
2528.00, 
2529.00, 
2530.00, 
2531.00, 
2532.00, 
2533.00, 
2534.00, 
2535.00, 
2536.00, 
2537.00, 
2538.00, 
2539.00, 
2540.00, 
2541.00, 
2542.00, 
2543.00, 
2544.00, 
2545.00, 
2546.00, 
2547.00, 
2548.00, 
2549.00, 
2550.00, 
2551.00, 
2552.00, 
2553.00, 
2554.00, 
2555.00, 
2556.00, 
2557.00, 
2558.00, 
2559.00, 
2560.00, 
2561.00, 
2562.00, 
2563.00, 
2564.00, 
2565.00, 
2566.00, 
2567.00, 
2568.00, 
2569.00, 
2570.00, 
2571.00, 
2572.00, 
2573.00, 
2574.00, 
2575.00, 
2576.00, 
2577.00, 
2578.00, 
2579.00, 
2580.00, 
2581.00, 
2582.00, 
2583.00, 
2584.00, 
2585.00, 
2586.00, 
2587.00, 
2588.00, 
2589.00, 
2590.00, 
2591.00, 
2592.00, 
2593.00, 
2594.00, 
2595.00, 
2596.00, 
2597.00, 
2598.00, 
2599.00, 
2600.00, 
