"2cP2 - RawData"
"Wavelength nm.","T%"
200.00,0.001
201.00,0.002
202.00,-0.002
203.00,0.003
204.00,0.001
205.00,0.002
206.00,0.002
207.00,-0.001
208.00,0.001
209.00,0.004
210.00,0.001
211.00,0.002
212.00,0.001
213.00,0.001
214.00,0.002
215.00,-0.000
216.00,-0.002
217.00,-0.002
218.00,0.001
219.00,0.001
220.00,0.000
221.00,0.003
222.00,0.000
223.00,0.002
224.00,0.003
225.00,0.004
226.00,0.002
227.00,0.001
228.00,-0.001
229.00,-0.000
230.00,0.000
231.00,0.001
232.00,0.001
233.00,0.001
234.00,-0.002
235.00,0.002
236.00,0.001
237.00,-0.001
238.00,0.002
239.00,0.000
240.00,0.001
241.00,0.001
242.00,0.000
243.00,0.001
244.00,0.001
245.00,0.001
246.00,0.002
247.00,-0.001
248.00,0.000
249.00,0.001
250.00,-0.000
251.00,0.000
252.00,0.002
253.00,0.000
254.00,0.001
255.00,0.001
256.00,0.002
257.00,0.000
258.00,0.001
259.00,-0.000
260.00,0.001
261.00,0.002
262.00,0.001
263.00,0.000
264.00,0.001
265.00,0.001
266.00,0.002
267.00,-0.002
268.00,0.000
269.00,0.001
270.00,-0.000
271.00,0.001
272.00,0.002
273.00,-0.001
274.00,0.001
275.00,0.000
276.00,0.000
277.00,-0.001
278.00,-0.001
279.00,0.001
280.00,0.001
281.00,-0.000
282.00,0.001
283.00,-0.001
284.00,0.001
285.00,0.003
286.00,0.001
287.00,0.002
288.00,0.001
289.00,0.000
290.00,0.003
291.00,0.002
292.00,0.001
293.00,-0.000
294.00,-0.000
295.00,-0.000
296.00,0.000
297.00,0.001
298.00,0.002
299.00,0.002
300.00,0.003
301.00,0.006
302.00,0.007
303.00,0.013
304.00,0.021
305.00,0.034
306.00,0.051
307.00,0.076
308.00,0.120
309.00,0.190
310.00,0.272
311.00,0.361
312.00,0.501
313.00,0.676
314.00,0.896
315.00,1.161
316.00,1.481
317.00,1.876
318.00,2.312
319.00,2.859
320.00,3.467
321.00,4.161
322.00,4.925
323.00,5.782
324.00,6.686
325.00,7.634
326.00,8.585
327.00,9.713
328.00,10.857
329.00,12.019
330.00,13.241
331.00,14.462
332.00,15.735
333.00,17.062
334.00,18.216
335.00,19.570
336.00,20.613
337.00,22.166
338.00,23.434
339.00,24.597
340.00,25.843
341.00,26.997
342.00,28.101
343.00,29.197
344.00,30.210
345.00,31.197
346.00,32.100
347.00,33.024
348.00,33.919
349.00,34.728
350.00,35.506
351.00,36.195
352.00,36.885
353.00,37.554
354.00,38.165
355.00,38.674
356.00,39.345
357.00,39.847
358.00,40.267
359.00,40.734
360.00,41.264
361.00,41.403
362.00,42.033
363.00,42.370
364.00,42.746
365.00,43.003
366.00,43.232
367.00,43.501
368.00,43.747
369.00,43.914
370.00,44.136
371.00,44.285
372.00,44.367
373.00,44.464
374.00,44.514
375.00,44.528
376.00,44.545
377.00,44.568
378.00,44.498
379.00,44.507
380.00,44.549
381.00,44.617
382.00,44.709
383.00,44.817
384.00,44.995
385.00,45.068
386.00,45.210
387.00,45.302
388.00,45.489
389.00,45.631
390.00,45.787
391.00,45.978
392.00,46.059
393.00,46.111
394.00,46.294
395.00,46.396
396.00,46.422
397.00,46.511
398.00,46.588
399.00,46.599
400.00,46.641
401.00,46.725
402.00,46.801
403.00,46.795
404.00,46.888
405.00,46.872
406.00,46.854
407.00,46.819
408.00,46.879
409.00,46.790
410.00,46.769
411.00,46.668
412.00,46.645
413.00,46.667
414.00,46.644
415.00,46.582
416.00,46.588
417.00,46.814
418.00,46.838
419.00,46.760
420.00,46.803
421.00,46.976
422.00,46.955
423.00,46.984
424.00,46.961
425.00,46.979
426.00,46.986
427.00,47.068
428.00,47.112
429.00,47.026
430.00,47.093
431.00,47.075
432.00,46.957
433.00,47.200
434.00,47.143
435.00,47.220
436.00,47.265
437.00,47.260
438.00,47.262
439.00,47.345
440.00,47.385
441.00,47.267
442.00,47.454
443.00,47.494
444.00,47.521
445.00,47.512
446.00,47.606
447.00,47.541
448.00,47.692
449.00,47.789
450.00,47.812
451.00,47.841
452.00,47.892
453.00,47.958
454.00,48.018
455.00,48.008
456.00,48.120
457.00,48.217
458.00,48.224
459.00,48.262
460.00,48.349
461.00,48.379
462.00,48.327
463.00,48.442
464.00,48.466
465.00,48.580
466.00,48.570
467.00,48.606
468.00,48.643
469.00,48.663
470.00,48.601
471.00,48.664
472.00,48.732
473.00,48.707
474.00,48.711
475.00,48.778
476.00,48.733
477.00,48.807
478.00,48.826
479.00,48.976
480.00,49.013
481.00,49.028
482.00,49.079
483.00,49.166
484.00,49.224
485.00,49.376
486.00,49.379
487.00,49.474
488.00,49.460
489.00,49.613
490.00,49.627
491.00,49.658
492.00,49.818
493.00,49.811
494.00,49.751
495.00,49.824
496.00,49.787
497.00,49.866
498.00,49.927
499.00,50.021
500.00,50.001
501.00,50.115
502.00,50.223
503.00,50.174
504.00,50.167
505.00,50.248
506.00,50.290
507.00,50.278
508.00,50.329
509.00,50.395
510.00,50.425
511.00,50.438
512.00,50.528
513.00,50.631
514.00,50.679
515.00,50.694
516.00,50.727
517.00,50.706
518.00,50.784
519.00,50.792
520.00,50.754
521.00,50.725
522.00,50.782
523.00,50.867
524.00,50.826
525.00,50.874
526.00,50.906
527.00,50.937
528.00,50.922
529.00,51.016
530.00,50.994
531.00,51.193
532.00,51.188
533.00,51.189
534.00,51.238
535.00,51.270
536.00,51.322
537.00,51.344
538.00,51.405
539.00,51.411
540.00,51.418
541.00,51.415
542.00,51.378
543.00,51.483
544.00,51.513
545.00,51.454
546.00,51.514
547.00,51.545
548.00,51.617
549.00,51.572
550.00,51.709
551.00,51.722
552.00,51.738
553.00,51.795
554.00,51.833
555.00,51.846
556.00,51.876
557.00,51.864
558.00,51.886
559.00,51.937
560.00,51.928
561.00,51.959
562.00,51.988
563.00,51.969
564.00,52.008
565.00,52.006
566.00,51.933
567.00,51.992
568.00,51.939
569.00,51.964
570.00,51.915
571.00,51.952
572.00,51.986
573.00,52.006
574.00,52.006
575.00,51.994
576.00,51.950
577.00,52.001
578.00,52.102
579.00,52.074
580.00,52.135
581.00,52.223
582.00,52.267
583.00,52.305
584.00,52.425
585.00,52.402
586.00,52.408
587.00,52.458
588.00,52.416
589.00,52.466
590.00,52.445
591.00,52.434
592.00,52.441
593.00,52.472
594.00,52.458
595.00,52.456
596.00,52.488
597.00,52.534
598.00,52.648
599.00,52.586
600.00,52.671
601.00,52.586
602.00,52.626
603.00,52.622
604.00,52.616
605.00,52.601
606.00,52.697
607.00,52.628
608.00,52.666
609.00,52.666
610.00,52.647
611.00,52.545
612.00,52.657
613.00,52.656
614.00,52.518
615.00,52.593
616.00,52.675
617.00,52.623
618.00,52.544
619.00,52.534
620.00,52.764
621.00,52.655
622.00,52.728
623.00,52.713
624.00,52.772
625.00,52.736
626.00,52.724
627.00,52.683
628.00,52.646
629.00,52.779
630.00,52.675
631.00,52.670
632.00,52.722
633.00,52.736
634.00,52.722
635.00,52.762
636.00,52.763
637.00,52.828
638.00,52.806
639.00,52.749
640.00,52.769
641.00,52.734
642.00,52.747
643.00,52.748
644.00,52.715
645.00,52.710
646.00,52.660
647.00,52.682
648.00,52.724
649.00,52.809
650.00,52.659
651.00,52.682
652.00,52.807
653.00,52.709
654.00,52.603
655.00,52.676
656.00,52.747
657.00,52.717
658.00,52.618
659.00,52.709
660.00,52.881
661.00,52.675
662.00,52.142
663.00,52.794
664.00,52.859
665.00,52.758
666.00,52.723
667.00,52.877
668.00,52.817
669.00,52.709
670.00,52.891
671.00,52.729
672.00,52.636
673.00,52.779
674.00,52.768
675.00,52.751
676.00,52.853
677.00,52.799
678.00,52.674
679.00,52.718
680.00,52.666
681.00,52.637
682.00,52.685
683.00,52.684
684.00,52.726
685.00,52.727
686.00,52.682
687.00,52.643
688.00,52.637
689.00,52.655
690.00,52.582
691.00,52.668
692.00,52.586
693.00,52.608
694.00,52.648
695.00,52.526
696.00,52.492
697.00,52.634
698.00,52.463
699.00,52.512
700.00,52.732
701.00,52.397
702.00,52.507
703.00,52.721
704.00,52.491
705.00,52.331
706.00,52.350
707.00,52.674
708.00,52.281
709.00,52.392
710.00,52.602
711.00,52.237
712.00,52.274
713.00,52.168
714.00,52.145
715.00,52.032
716.00,52.184
717.00,52.422
718.00,52.345
719.00,52.218
720.00,52.254
721.00,56.562
722.00,56.537
723.00,56.428
724.00,56.448
725.00,56.208
726.00,56.167
727.00,56.128
728.00,56.193
729.00,56.081
730.00,55.996
731.00,55.988
732.00,55.855
733.00,55.907
734.00,55.816
735.00,55.755
736.00,55.715
737.00,55.640
738.00,55.746
739.00,55.637
740.00,55.680
741.00,55.622
742.00,55.505
743.00,55.386
744.00,55.332
745.00,55.341
746.00,55.253
747.00,55.193
748.00,55.060
749.00,54.977
750.00,54.990
751.00,54.953
752.00,54.916
753.00,54.757
754.00,54.799
755.00,54.769
756.00,54.707
757.00,54.618
758.00,54.613
759.00,54.575
760.00,54.517
761.00,54.556
762.00,54.426
763.00,54.472
764.00,54.375
765.00,54.434
766.00,54.387
767.00,54.291
768.00,54.274
769.00,54.299
770.00,54.242
771.00,54.217
772.00,54.147
773.00,54.050
774.00,54.046
775.00,54.126
776.00,53.996
777.00,53.958
778.00,53.952
779.00,53.872
780.00,53.843
781.00,53.815
782.00,53.733
783.00,53.700
784.00,53.670
785.00,53.655
786.00,53.634
787.00,53.602
788.00,53.518
789.00,53.464
790.00,53.450
791.00,53.433
792.00,53.364
793.00,53.303
794.00,53.283
795.00,53.210
796.00,53.286
797.00,53.188
798.00,53.163
799.00,53.119
800.00,53.021
801.00,53.062
802.00,52.972
803.00,52.984
804.00,52.936
805.00,52.853
806.00,52.778
807.00,52.734
808.00,52.764
809.00,52.679
810.00,52.737
811.00,52.671
812.00,52.708
813.00,52.577
814.00,52.648
815.00,52.573
816.00,52.526
817.00,52.469
818.00,52.395
819.00,52.438
820.00,52.283
821.00,52.295
822.00,52.300
823.00,52.275
824.00,52.285
825.00,52.176
826.00,52.118
827.00,52.334
828.00,52.143
829.00,52.099
830.00,52.055
831.00,54.694
832.00,54.636
833.00,54.607
834.00,54.568
835.00,54.522
836.00,54.523
837.00,54.432
838.00,54.398
839.00,54.503
840.00,54.341
841.00,54.337
842.00,54.310
843.00,54.284
844.00,54.247
845.00,54.182
846.00,54.191
847.00,54.165
848.00,54.129
849.00,54.075
850.00,54.022
851.00,54.007
852.00,53.957
853.00,53.887
854.00,53.869
855.00,53.836
856.00,53.805
857.00,53.791
858.00,53.729
859.00,53.715
860.00,53.705
861.00,53.676
862.00,53.556
863.00,53.635
864.00,53.542
865.00,53.570
866.00,53.520
867.00,53.532
868.00,53.512
869.00,53.502
870.00,53.457
871.00,53.462
872.00,53.418
873.00,53.442
874.00,53.332
875.00,53.368
876.00,53.340
877.00,53.357
878.00,53.297
879.00,53.279
880.00,53.216
881.00,53.291
882.00,53.208
883.00,53.193
884.00,53.157
885.00,53.132
886.00,53.127
887.00,53.083
888.00,53.083
889.00,53.072
890.00,53.057
891.00,53.013
892.00,52.990
893.00,52.942
894.00,52.958
895.00,52.875
896.00,52.865
897.00,52.837
898.00,52.810
899.00,52.794
900.00,52.793
901.00,52.798
902.00,52.790
903.00,52.731
904.00,52.718
905.00,52.713
906.00,52.661
907.00,52.663
908.00,52.615
909.00,52.591
910.00,52.567
911.00,52.540
912.00,52.561
913.00,52.469
914.00,52.449
915.00,52.455
916.00,52.429
917.00,52.381
918.00,52.398
919.00,52.352
920.00,52.261
921.00,52.437
922.00,52.319
923.00,52.281
924.00,52.280
925.00,52.233
926.00,52.220
927.00,52.202
928.00,52.154
929.00,52.158
930.00,52.121
931.00,52.106
932.00,52.075
933.00,52.082
934.00,52.053
935.00,52.020
936.00,52.061
937.00,51.983
938.00,51.985
939.00,51.966
940.00,51.921
941.00,51.915
942.00,51.861
943.00,51.870
944.00,51.831
945.00,51.822
946.00,51.801
947.00,51.778
948.00,51.769
949.00,51.734
950.00,51.711
951.00,51.688
952.00,51.660
953.00,51.625
954.00,51.625
955.00,51.562
956.00,51.554
957.00,51.531
958.00,51.556
959.00,51.445
960.00,51.484
961.00,51.457
962.00,51.474
963.00,51.414
964.00,51.420
965.00,51.378
966.00,51.345
967.00,51.383
968.00,51.333
969.00,51.371
970.00,51.333
971.00,51.333
972.00,51.309
973.00,51.335
974.00,51.353
975.00,51.313
976.00,51.340
977.00,51.310
978.00,51.350
979.00,51.325
980.00,51.340
981.00,51.325
982.00,51.261
983.00,51.331
984.00,51.296
985.00,51.305
986.00,51.274
987.00,51.288
988.00,51.270
989.00,51.250
990.00,51.242
991.00,51.228
992.00,51.230
993.00,51.230
994.00,51.187
995.00,51.213
996.00,51.152
997.00,51.167
998.00,51.140
999.00,51.163
1000.00,51.095
1001.00,51.124
1002.00,51.097
1003.00,51.093
1004.00,51.071
1005.00,51.043
1006.00,51.063
1007.00,51.030
1008.00,51.016
1009.00,51.000
1010.00,50.985
1011.00,50.968
1012.00,50.941
1013.00,50.954
1014.00,50.902
1015.00,50.925
1016.00,50.870
1017.00,50.886
1018.00,50.854
1019.00,50.812
1020.00,50.811
1021.00,50.800
1022.00,50.803
1023.00,50.747
1024.00,50.753
1025.00,50.741
1026.00,50.736
1027.00,50.712
1028.00,50.705
1029.00,50.696
1030.00,50.651
1031.00,50.672
1032.00,50.630
1033.00,50.626
1034.00,50.588
1035.00,50.554
1036.00,50.532
1037.00,50.536
1038.00,50.521
1039.00,50.485
1040.00,50.486
1041.00,50.443
1042.00,50.447
1043.00,50.403
1044.00,50.420
1045.00,50.417
1046.00,50.406
1047.00,50.412
1048.00,50.423
1049.00,50.437
1050.00,50.441
1051.00,50.460
1052.00,50.492
1053.00,50.514
1054.00,50.500
1055.00,50.513
1056.00,50.515
1057.00,50.519
1058.00,50.500
1059.00,50.502
1060.00,50.490
1061.00,50.488
1062.00,50.465
1063.00,50.474
1064.00,50.452
1065.00,50.444
1066.00,50.434
1067.00,50.421
1068.00,50.432
1069.00,50.397
1070.00,50.386
1071.00,50.369
1072.00,50.389
1073.00,50.369
1074.00,50.350
1075.00,50.337
1076.00,50.333
1077.00,50.323
1078.00,50.316
1079.00,50.300
1080.00,50.306
1081.00,50.289
1082.00,50.293
1083.00,50.296
1084.00,50.283
1085.00,50.267
1086.00,50.265
1087.00,50.266
1088.00,50.243
1089.00,50.229
1090.00,50.221
1091.00,50.216
1092.00,50.206
1093.00,50.184
1094.00,50.181
1095.00,50.157
1096.00,50.149
1097.00,50.159
1098.00,50.156
1099.00,50.141
1100.00,50.141
1101.00,50.137
1102.00,50.129
1103.00,50.119
1104.00,50.099
1105.00,50.079
1106.00,50.080
1107.00,50.072
1108.00,50.073
1109.00,50.052
1110.00,50.050
1111.00,50.046
1112.00,50.033
1113.00,50.017
1114.00,50.025
1115.00,50.020
1116.00,50.009
1117.00,49.985
1118.00,49.994
1119.00,49.978
1120.00,49.970
1121.00,49.953
1122.00,49.951
1123.00,49.947
1124.00,49.929
1125.00,49.934
1126.00,49.941
1127.00,49.941
1128.00,49.916
1129.00,49.895
1130.00,49.898
1131.00,49.886
1132.00,49.882
1133.00,49.883
1134.00,49.914
1135.00,49.849
1136.00,49.851
1137.00,49.848
1138.00,49.852
1139.00,49.850
1140.00,49.833
1141.00,49.844
1142.00,49.838
1143.00,49.834
1144.00,49.816
1145.00,49.813
1146.00,49.817
1147.00,49.798
1148.00,49.803
1149.00,49.830
1150.00,49.816
1151.00,49.788
1152.00,49.768
1153.00,49.792
1154.00,49.778
1155.00,49.790
1156.00,49.772
1157.00,49.781
1158.00,49.779
1159.00,49.768
1160.00,49.776
1161.00,49.772
1162.00,49.763
1163.00,49.766
1164.00,49.758
1165.00,49.752
1166.00,49.746
1167.00,49.754
1168.00,49.752
1169.00,49.750
1170.00,49.757
1171.00,49.728
1172.00,49.740
1173.00,49.728
1174.00,49.758
1175.00,49.754
1176.00,49.730
1177.00,49.731
1178.00,49.734
1179.00,49.736
1180.00,49.725
1181.00,49.736
1182.00,49.730
1183.00,49.721
1184.00,49.703
1185.00,49.731
1186.00,49.714
1187.00,49.719
1188.00,49.708
1189.00,49.706
1190.00,49.701
1191.00,49.707
1192.00,49.712
1193.00,49.706
1194.00,49.703
1195.00,49.691
1196.00,49.711
1197.00,49.701
1198.00,49.679
1199.00,49.686
1200.00,49.687
1201.00,49.697
1202.00,49.685
1203.00,49.688
1204.00,49.672
1205.00,49.688
1206.00,49.687
1207.00,49.700
1208.00,49.670
1209.00,49.676
1210.00,49.710
1211.00,49.704
1212.00,49.692
1213.00,49.660
1214.00,49.679
1215.00,49.675
1216.00,49.677
1217.00,49.679
1218.00,49.678
1219.00,49.680
1220.00,49.688
1221.00,49.695
1222.00,49.688
1223.00,49.729
1224.00,49.702
1225.00,49.687
1226.00,49.694
1227.00,49.661
1228.00,49.688
1229.00,49.689
1230.00,49.734
1231.00,49.702
1232.00,49.722
1233.00,49.716
1234.00,49.724
1235.00,49.727
1236.00,49.721
1237.00,49.724
1238.00,49.722
1239.00,49.734
1240.00,49.738
1241.00,49.737
1242.00,49.725
1243.00,49.754
1244.00,49.732
1245.00,49.750
1246.00,49.761
1247.00,49.759
1248.00,49.748
1249.00,49.752
1250.00,49.767
1251.00,49.770
1252.00,49.768
1253.00,49.758
1254.00,49.781
1255.00,49.785
1256.00,49.770
1257.00,49.729
1258.00,49.782
1259.00,49.783
1260.00,49.800
1261.00,49.800
1262.00,49.793
1263.00,49.795
1264.00,49.803
1265.00,49.810
1266.00,49.801
1267.00,49.814
1268.00,49.826
1269.00,49.805
1270.00,49.832
1271.00,49.832
1272.00,49.846
1273.00,49.849
1274.00,49.842
1275.00,49.843
1276.00,49.838
1277.00,49.841
1278.00,49.863
1279.00,49.852
1280.00,49.861
1281.00,49.861
1282.00,49.878
1283.00,49.862
1284.00,49.886
1285.00,49.862
1286.00,49.873
1287.00,49.872
1288.00,49.889
1289.00,49.875
1290.00,49.906
1291.00,49.901
1292.00,49.912
1293.00,49.902
1294.00,49.924
1295.00,49.925
1296.00,49.927
1297.00,49.932
1298.00,49.950
1299.00,49.929
1300.00,49.945
1301.00,49.950
1302.00,49.942
1303.00,49.959
1304.00,49.949
1305.00,49.970
1306.00,49.981
1307.00,49.994
1308.00,49.984
1309.00,49.990
1310.00,49.995
1311.00,49.999
1312.00,50.006
1313.00,49.995
1314.00,50.013
1315.00,50.024
1316.00,50.022
1317.00,50.053
1318.00,50.043
1319.00,50.048
1320.00,50.068
1321.00,50.192
1322.00,50.223
1323.00,50.212
1324.00,50.197
1325.00,50.200
1326.00,50.224
1327.00,50.194
1328.00,50.199
1329.00,50.208
1330.00,50.251
1331.00,50.188
1332.00,50.205
1333.00,50.210
1334.00,50.259
1335.00,50.262
1336.00,50.297
1337.00,50.312
1338.00,50.368
1339.00,50.434
1340.00,50.487
1341.00,50.533
1342.00,50.616
1343.00,50.652
1344.00,50.719
1345.00,50.765
1346.00,50.802
1347.00,50.821
1348.00,50.842
1349.00,50.861
1350.00,50.876
1351.00,50.897
1352.00,50.900
1353.00,50.933
1354.00,50.914
1355.00,50.875
1356.00,50.927
1357.00,50.916
1358.00,50.942
1359.00,51.006
1360.00,51.013
1361.00,50.979
1362.00,50.896
1363.00,51.001
1364.00,50.941
1365.00,50.960
1366.00,51.023
1367.00,50.968
1368.00,50.928
1369.00,50.987
1370.00,50.934
1371.00,50.906
1372.00,50.936
1373.00,50.919
1374.00,50.937
1375.00,50.927
1376.00,50.920
1377.00,50.926
1378.00,50.993
1379.00,50.935
1380.00,50.936
1381.00,50.894
1382.00,50.880
1383.00,50.922
1384.00,50.872
1385.00,50.858
1386.00,50.920
1387.00,50.913
1388.00,50.868
1389.00,50.866
1390.00,50.967
1391.00,50.915
1392.00,50.923
1393.00,50.942
1394.00,50.938
1395.00,50.919
1396.00,50.841
1397.00,50.889
1398.00,50.965
1399.00,50.902
1400.00,50.898
1401.00,50.884
1402.00,51.001
1403.00,50.898
1404.00,50.915
1405.00,50.939
1406.00,50.952
1407.00,50.843
1408.00,50.967
1409.00,50.917
1410.00,50.959
1411.00,50.978
1412.00,50.997
1413.00,50.930
1414.00,50.949
1415.00,50.987
1416.00,51.029
1417.00,51.041
1418.00,51.002
1419.00,51.016
1420.00,51.034
1421.00,51.082
1422.00,51.075
1423.00,51.058
1424.00,51.098
1425.00,51.100
1426.00,51.101
1427.00,51.136
1428.00,51.138
1429.00,51.145
1430.00,51.175
1431.00,51.181
1432.00,51.184
1433.00,51.226
1434.00,51.195
1435.00,51.256
1436.00,51.251
1437.00,51.240
1438.00,51.279
1439.00,51.302
1440.00,51.312
1441.00,51.311
1442.00,51.301
1443.00,51.360
1444.00,51.407
1445.00,51.364
1446.00,51.375
1447.00,51.406
1448.00,51.425
1449.00,51.456
1450.00,51.432
1451.00,51.449
1452.00,51.470
1453.00,51.491
1454.00,51.510
1455.00,51.529
1456.00,51.542
1457.00,51.552
1458.00,51.570
1459.00,51.568
1460.00,51.593
1461.00,51.590
1462.00,51.618
1463.00,51.640
1464.00,51.638
1465.00,51.661
1466.00,51.669
1467.00,51.685
1468.00,51.725
1469.00,51.717
1470.00,51.709
1471.00,51.742
1472.00,51.760
1473.00,51.747
1474.00,51.788
1475.00,51.786
1476.00,51.803
1477.00,51.793
1478.00,51.804
1479.00,51.843
1480.00,51.835
1481.00,51.851
1482.00,51.883
1483.00,51.893
1484.00,51.891
1485.00,51.917
1486.00,51.899
1487.00,51.940
1488.00,51.936
1489.00,51.935
1490.00,51.976
1491.00,51.984
1492.00,52.008
1493.00,51.998
1494.00,52.013
1495.00,52.026
1496.00,52.027
1497.00,52.029
1498.00,52.036
1499.00,52.051
1500.00,52.065
1501.00, 
1502.00, 
1503.00, 
1504.00, 
1505.00, 
1506.00, 
1507.00, 
1508.00, 
1509.00, 
1510.00, 
1511.00, 
1512.00, 
1513.00, 
1514.00, 
1515.00, 
1516.00, 
1517.00, 
1518.00, 
1519.00, 
1520.00, 
1521.00, 
1522.00, 
1523.00, 
1524.00, 
1525.00, 
1526.00, 
1527.00, 
1528.00, 
1529.00, 
1530.00, 
1531.00, 
1532.00, 
1533.00, 
1534.00, 
1535.00, 
1536.00, 
1537.00, 
1538.00, 
1539.00, 
1540.00, 
1541.00, 
1542.00, 
1543.00, 
1544.00, 
1545.00, 
1546.00, 
1547.00, 
1548.00, 
1549.00, 
1550.00, 
1551.00, 
1552.00, 
1553.00, 
1554.00, 
1555.00, 
1556.00, 
1557.00, 
1558.00, 
1559.00, 
1560.00, 
1561.00, 
1562.00, 
1563.00, 
1564.00, 
1565.00, 
1566.00, 
1567.00, 
1568.00, 
1569.00, 
1570.00, 
1571.00, 
1572.00, 
1573.00, 
1574.00, 
1575.00, 
1576.00, 
1577.00, 
1578.00, 
1579.00, 
1580.00, 
1581.00, 
1582.00, 
1583.00, 
1584.00, 
1585.00, 
1586.00, 
1587.00, 
1588.00, 
1589.00, 
1590.00, 
1591.00, 
1592.00, 
1593.00, 
1594.00, 
1595.00, 
1596.00, 
1597.00, 
1598.00, 
1599.00, 
1600.00, 
1601.00, 
1602.00, 
1603.00, 
1604.00, 
1605.00, 
1606.00, 
1607.00, 
1608.00, 
1609.00, 
1610.00, 
1611.00, 
1612.00, 
1613.00, 
1614.00, 
1615.00, 
1616.00, 
1617.00, 
1618.00, 
1619.00, 
1620.00, 
1621.00, 
1622.00, 
1623.00, 
1624.00, 
1625.00, 
1626.00, 
1627.00, 
1628.00, 
1629.00, 
1630.00, 
1631.00, 
1632.00, 
1633.00, 
1634.00, 
1635.00, 
1636.00, 
1637.00, 
1638.00, 
1639.00, 
1640.00, 
1641.00, 
1642.00, 
1643.00, 
1644.00, 
1645.00, 
1646.00, 
1647.00, 
1648.00, 
1649.00, 
1650.00, 
1651.00, 
1652.00, 
1653.00, 
1654.00, 
1655.00, 
1656.00, 
1657.00, 
1658.00, 
1659.00, 
1660.00, 
1661.00, 
1662.00, 
1663.00, 
1664.00, 
1665.00, 
1666.00, 
1667.00, 
1668.00, 
1669.00, 
1670.00, 
1671.00, 
1672.00, 
1673.00, 
1674.00, 
1675.00, 
1676.00, 
1677.00, 
1678.00, 
1679.00, 
1680.00, 
1681.00, 
1682.00, 
1683.00, 
1684.00, 
1685.00, 
1686.00, 
1687.00, 
1688.00, 
1689.00, 
1690.00, 
1691.00, 
1692.00, 
1693.00, 
1694.00, 
1695.00, 
1696.00, 
1697.00, 
1698.00, 
1699.00, 
1700.00, 
1701.00, 
1702.00, 
1703.00, 
1704.00, 
1705.00, 
1706.00, 
1707.00, 
1708.00, 
1709.00, 
1710.00, 
1711.00, 
1712.00, 
1713.00, 
1714.00, 
1715.00, 
1716.00, 
1717.00, 
1718.00, 
1719.00, 
1720.00, 
1721.00, 
1722.00, 
1723.00, 
1724.00, 
1725.00, 
1726.00, 
1727.00, 
1728.00, 
1729.00, 
1730.00, 
1731.00, 
1732.00, 
1733.00, 
1734.00, 
1735.00, 
1736.00, 
1737.00, 
1738.00, 
1739.00, 
1740.00, 
1741.00, 
1742.00, 
1743.00, 
1744.00, 
1745.00, 
1746.00, 
1747.00, 
1748.00, 
1749.00, 
1750.00, 
1751.00, 
1752.00, 
1753.00, 
1754.00, 
1755.00, 
1756.00, 
1757.00, 
1758.00, 
1759.00, 
1760.00, 
1761.00, 
1762.00, 
1763.00, 
1764.00, 
1765.00, 
1766.00, 
1767.00, 
1768.00, 
1769.00, 
1770.00, 
1771.00, 
1772.00, 
1773.00, 
1774.00, 
1775.00, 
1776.00, 
1777.00, 
1778.00, 
1779.00, 
1780.00, 
1781.00, 
1782.00, 
1783.00, 
1784.00, 
1785.00, 
1786.00, 
1787.00, 
1788.00, 
1789.00, 
1790.00, 
1791.00, 
1792.00, 
1793.00, 
1794.00, 
1795.00, 
1796.00, 
1797.00, 
1798.00, 
1799.00, 
1800.00, 
1801.00, 
1802.00, 
1803.00, 
1804.00, 
1805.00, 
1806.00, 
1807.00, 
1808.00, 
1809.00, 
1810.00, 
1811.00, 
1812.00, 
1813.00, 
1814.00, 
1815.00, 
1816.00, 
1817.00, 
1818.00, 
1819.00, 
1820.00, 
1821.00, 
1822.00, 
1823.00, 
1824.00, 
1825.00, 
1826.00, 
1827.00, 
1828.00, 
1829.00, 
1830.00, 
1831.00, 
1832.00, 
1833.00, 
1834.00, 
1835.00, 
1836.00, 
1837.00, 
1838.00, 
1839.00, 
1840.00, 
1841.00, 
1842.00, 
1843.00, 
1844.00, 
1845.00, 
1846.00, 
1847.00, 
1848.00, 
1849.00, 
1850.00, 
1851.00, 
1852.00, 
1853.00, 
1854.00, 
1855.00, 
1856.00, 
1857.00, 
1858.00, 
1859.00, 
1860.00, 
1861.00, 
1862.00, 
1863.00, 
1864.00, 
1865.00, 
1866.00, 
1867.00, 
1868.00, 
1869.00, 
1870.00, 
1871.00, 
1872.00, 
1873.00, 
1874.00, 
1875.00, 
1876.00, 
1877.00, 
1878.00, 
1879.00, 
1880.00, 
1881.00, 
1882.00, 
1883.00, 
1884.00, 
1885.00, 
1886.00, 
1887.00, 
1888.00, 
1889.00, 
1890.00, 
1891.00, 
1892.00, 
1893.00, 
1894.00, 
1895.00, 
1896.00, 
1897.00, 
1898.00, 
1899.00, 
1900.00, 
1901.00, 
1902.00, 
1903.00, 
1904.00, 
1905.00, 
1906.00, 
1907.00, 
1908.00, 
1909.00, 
1910.00, 
1911.00, 
1912.00, 
1913.00, 
1914.00, 
1915.00, 
1916.00, 
1917.00, 
1918.00, 
1919.00, 
1920.00, 
1921.00, 
1922.00, 
1923.00, 
1924.00, 
1925.00, 
1926.00, 
1927.00, 
1928.00, 
1929.00, 
1930.00, 
1931.00, 
1932.00, 
1933.00, 
1934.00, 
1935.00, 
1936.00, 
1937.00, 
1938.00, 
1939.00, 
1940.00, 
1941.00, 
1942.00, 
1943.00, 
1944.00, 
1945.00, 
1946.00, 
1947.00, 
1948.00, 
1949.00, 
1950.00, 
1951.00, 
1952.00, 
1953.00, 
1954.00, 
1955.00, 
1956.00, 
1957.00, 
1958.00, 
1959.00, 
1960.00, 
1961.00, 
1962.00, 
1963.00, 
1964.00, 
1965.00, 
1966.00, 
1967.00, 
1968.00, 
1969.00, 
1970.00, 
1971.00, 
1972.00, 
1973.00, 
1974.00, 
1975.00, 
1976.00, 
1977.00, 
1978.00, 
1979.00, 
1980.00, 
1981.00, 
1982.00, 
1983.00, 
1984.00, 
1985.00, 
1986.00, 
1987.00, 
1988.00, 
1989.00, 
1990.00, 
1991.00, 
1992.00, 
1993.00, 
1994.00, 
1995.00, 
1996.00, 
1997.00, 
1998.00, 
1999.00, 
2000.00, 
2001.00, 
2002.00, 
2003.00, 
2004.00, 
2005.00, 
2006.00, 
2007.00, 
2008.00, 
2009.00, 
2010.00, 
2011.00, 
2012.00, 
2013.00, 
2014.00, 
2015.00, 
2016.00, 
2017.00, 
2018.00, 
2019.00, 
2020.00, 
2021.00, 
2022.00, 
2023.00, 
2024.00, 
2025.00, 
2026.00, 
2027.00, 
2028.00, 
2029.00, 
2030.00, 
2031.00, 
2032.00, 
2033.00, 
2034.00, 
2035.00, 
2036.00, 
2037.00, 
2038.00, 
2039.00, 
2040.00, 
2041.00, 
2042.00, 
2043.00, 
2044.00, 
2045.00, 
2046.00, 
2047.00, 
2048.00, 
2049.00, 
2050.00, 
2051.00, 
2052.00, 
2053.00, 
2054.00, 
2055.00, 
2056.00, 
2057.00, 
2058.00, 
2059.00, 
2060.00, 
2061.00, 
2062.00, 
2063.00, 
2064.00, 
2065.00, 
2066.00, 
2067.00, 
2068.00, 
2069.00, 
2070.00, 
2071.00, 
2072.00, 
2073.00, 
2074.00, 
2075.00, 
2076.00, 
2077.00, 
2078.00, 
2079.00, 
2080.00, 
2081.00, 
2082.00, 
2083.00, 
2084.00, 
2085.00, 
2086.00, 
2087.00, 
2088.00, 
2089.00, 
2090.00, 
2091.00, 
2092.00, 
2093.00, 
2094.00, 
2095.00, 
2096.00, 
2097.00, 
2098.00, 
2099.00, 
2100.00, 
2101.00, 
2102.00, 
2103.00, 
2104.00, 
2105.00, 
2106.00, 
2107.00, 
2108.00, 
2109.00, 
2110.00, 
2111.00, 
2112.00, 
2113.00, 
2114.00, 
2115.00, 
2116.00, 
2117.00, 
2118.00, 
2119.00, 
2120.00, 
2121.00, 
2122.00, 
2123.00, 
2124.00, 
2125.00, 
2126.00, 
2127.00, 
2128.00, 
2129.00, 
2130.00, 
2131.00, 
2132.00, 
2133.00, 
2134.00, 
2135.00, 
2136.00, 
2137.00, 
2138.00, 
2139.00, 
2140.00, 
2141.00, 
2142.00, 
2143.00, 
2144.00, 
2145.00, 
2146.00, 
2147.00, 
2148.00, 
2149.00, 
2150.00, 
2151.00, 
2152.00, 
2153.00, 
2154.00, 
2155.00, 
2156.00, 
2157.00, 
2158.00, 
2159.00, 
2160.00, 
2161.00, 
2162.00, 
2163.00, 
2164.00, 
2165.00, 
2166.00, 
2167.00, 
2168.00, 
2169.00, 
2170.00, 
2171.00, 
2172.00, 
2173.00, 
2174.00, 
2175.00, 
2176.00, 
2177.00, 
2178.00, 
2179.00, 
2180.00, 
2181.00, 
2182.00, 
2183.00, 
2184.00, 
2185.00, 
2186.00, 
2187.00, 
2188.00, 
2189.00, 
2190.00, 
2191.00, 
2192.00, 
2193.00, 
2194.00, 
2195.00, 
2196.00, 
2197.00, 
2198.00, 
2199.00, 
2200.00, 
2201.00, 
2202.00, 
2203.00, 
2204.00, 
2205.00, 
2206.00, 
2207.00, 
2208.00, 
2209.00, 
2210.00, 
2211.00, 
2212.00, 
2213.00, 
2214.00, 
2215.00, 
2216.00, 
2217.00, 
2218.00, 
2219.00, 
2220.00, 
2221.00, 
2222.00, 
2223.00, 
2224.00, 
2225.00, 
2226.00, 
2227.00, 
2228.00, 
2229.00, 
2230.00, 
2231.00, 
2232.00, 
2233.00, 
2234.00, 
2235.00, 
2236.00, 
2237.00, 
2238.00, 
2239.00, 
2240.00, 
2241.00, 
2242.00, 
2243.00, 
2244.00, 
2245.00, 
2246.00, 
2247.00, 
2248.00, 
2249.00, 
2250.00, 
2251.00, 
2252.00, 
2253.00, 
2254.00, 
2255.00, 
2256.00, 
2257.00, 
2258.00, 
2259.00, 
2260.00, 
2261.00, 
2262.00, 
2263.00, 
2264.00, 
2265.00, 
2266.00, 
2267.00, 
2268.00, 
2269.00, 
2270.00, 
2271.00, 
2272.00, 
2273.00, 
2274.00, 
2275.00, 
2276.00, 
2277.00, 
2278.00, 
2279.00, 
2280.00, 
2281.00, 
2282.00, 
2283.00, 
2284.00, 
2285.00, 
2286.00, 
2287.00, 
2288.00, 
2289.00, 
2290.00, 
2291.00, 
2292.00, 
2293.00, 
2294.00, 
2295.00, 
2296.00, 
2297.00, 
2298.00, 
2299.00, 
2300.00, 
2301.00, 
2302.00, 
2303.00, 
2304.00, 
2305.00, 
2306.00, 
2307.00, 
2308.00, 
2309.00, 
2310.00, 
2311.00, 
2312.00, 
2313.00, 
2314.00, 
2315.00, 
2316.00, 
2317.00, 
2318.00, 
2319.00, 
2320.00, 
2321.00, 
2322.00, 
2323.00, 
2324.00, 
2325.00, 
2326.00, 
2327.00, 
2328.00, 
2329.00, 
2330.00, 
2331.00, 
2332.00, 
2333.00, 
2334.00, 
2335.00, 
2336.00, 
2337.00, 
2338.00, 
2339.00, 
2340.00, 
2341.00, 
2342.00, 
2343.00, 
2344.00, 
2345.00, 
2346.00, 
2347.00, 
2348.00, 
2349.00, 
2350.00, 
2351.00, 
2352.00, 
2353.00, 
2354.00, 
2355.00, 
2356.00, 
2357.00, 
2358.00, 
2359.00, 
2360.00, 
2361.00, 
2362.00, 
2363.00, 
2364.00, 
2365.00, 
2366.00, 
2367.00, 
2368.00, 
2369.00, 
2370.00, 
2371.00, 
2372.00, 
2373.00, 
2374.00, 
2375.00, 
2376.00, 
2377.00, 
2378.00, 
2379.00, 
2380.00, 
2381.00, 
2382.00, 
2383.00, 
2384.00, 
2385.00, 
2386.00, 
2387.00, 
2388.00, 
2389.00, 
2390.00, 
2391.00, 
2392.00, 
2393.00, 
2394.00, 
2395.00, 
2396.00, 
2397.00, 
2398.00, 
2399.00, 
2400.00, 
2401.00, 
2402.00, 
2403.00, 
2404.00, 
2405.00, 
2406.00, 
2407.00, 
2408.00, 
2409.00, 
2410.00, 
2411.00, 
2412.00, 
2413.00, 
2414.00, 
2415.00, 
2416.00, 
2417.00, 
2418.00, 
2419.00, 
2420.00, 
2421.00, 
2422.00, 
2423.00, 
2424.00, 
2425.00, 
2426.00, 
2427.00, 
2428.00, 
2429.00, 
2430.00, 
2431.00, 
2432.00, 
2433.00, 
2434.00, 
2435.00, 
2436.00, 
2437.00, 
2438.00, 
2439.00, 
2440.00, 
2441.00, 
2442.00, 
2443.00, 
2444.00, 
2445.00, 
2446.00, 
2447.00, 
2448.00, 
2449.00, 
2450.00, 
2451.00, 
2452.00, 
2453.00, 
2454.00, 
2455.00, 
2456.00, 
2457.00, 
2458.00, 
2459.00, 
2460.00, 
2461.00, 
2462.00, 
2463.00, 
2464.00, 
2465.00, 
2466.00, 
2467.00, 
2468.00, 
2469.00, 
2470.00, 
2471.00, 
2472.00, 
2473.00, 
2474.00, 
2475.00, 
2476.00, 
2477.00, 
2478.00, 
2479.00, 
2480.00, 
2481.00, 
2482.00, 
2483.00, 
2484.00, 
2485.00, 
2486.00, 
2487.00, 
2488.00, 
2489.00, 
2490.00, 
2491.00, 
2492.00, 
2493.00, 
2494.00, 
2495.00, 
2496.00, 
2497.00, 
2498.00, 
2499.00, 
2500.00, 
2501.00, 
2502.00, 
2503.00, 
2504.00, 
2505.00, 
2506.00, 
2507.00, 
2508.00, 
2509.00, 
2510.00, 
2511.00, 
2512.00, 
2513.00, 
2514.00, 
2515.00, 
2516.00, 
2517.00, 
2518.00, 
2519.00, 
2520.00, 
2521.00, 
2522.00, 
2523.00, 
2524.00, 
2525.00, 
2526.00, 
2527.00, 
2528.00, 
2529.00, 
2530.00, 
2531.00, 
2532.00, 
2533.00, 
2534.00, 
2535.00, 
2536.00, 
2537.00, 
2538.00, 
2539.00, 
2540.00, 
2541.00, 
2542.00, 
2543.00, 
2544.00, 
2545.00, 
2546.00, 
2547.00, 
2548.00, 
2549.00, 
2550.00, 
2551.00, 
2552.00, 
2553.00, 
2554.00, 
2555.00, 
2556.00, 
2557.00, 
2558.00, 
2559.00, 
2560.00, 
2561.00, 
2562.00, 
2563.00, 
2564.00, 
2565.00, 
2566.00, 
2567.00, 
2568.00, 
2569.00, 
2570.00, 
2571.00, 
2572.00, 
2573.00, 
2574.00, 
2575.00, 
2576.00, 
2577.00, 
2578.00, 
2579.00, 
2580.00, 
2581.00, 
2582.00, 
2583.00, 
2584.00, 
2585.00, 
2586.00, 
2587.00, 
2588.00, 
2589.00, 
2590.00, 
2591.00, 
2592.00, 
2593.00, 
2594.00, 
2595.00, 
2596.00, 
2597.00, 
2598.00, 
2599.00, 
2600.00, 
