"2cP3 - RawData"
"Wavelength nm.","T%"
200.00,0.005
201.00,0.002
202.00,0.000
203.00,0.004
204.00,0.002
205.00,0.003
206.00,-0.000
207.00,0.003
208.00,0.001
209.00,-0.001
210.00,0.001
211.00,0.002
212.00,0.001
213.00,0.002
214.00,0.001
215.00,0.001
216.00,0.002
217.00,-0.000
218.00,-0.001
219.00,0.005
220.00,-0.000
221.00,0.001
222.00,-0.000
223.00,-0.001
224.00,0.002
225.00,0.001
226.00,0.001
227.00,-0.001
228.00,0.003
229.00,-0.002
230.00,0.001
231.00,-0.001
232.00,-0.001
233.00,0.003
234.00,0.000
235.00,-0.000
236.00,0.001
237.00,0.003
238.00,0.002
239.00,-0.000
240.00,0.001
241.00,-0.000
242.00,0.001
243.00,0.001
244.00,0.002
245.00,0.000
246.00,0.001
247.00,0.002
248.00,-0.002
249.00,0.000
250.00,0.001
251.00,0.000
252.00,0.000
253.00,-0.001
254.00,0.000
255.00,0.000
256.00,0.001
257.00,-0.000
258.00,0.001
259.00,-0.001
260.00,0.000
261.00,-0.002
262.00,0.001
263.00,0.001
264.00,0.000
265.00,-0.001
266.00,0.002
267.00,-0.001
268.00,0.000
269.00,-0.001
270.00,0.000
271.00,0.000
272.00,0.002
273.00,-0.000
274.00,0.000
275.00,0.001
276.00,0.001
277.00,0.001
278.00,0.001
279.00,0.000
280.00,0.000
281.00,0.001
282.00,-0.000
283.00,0.000
284.00,0.001
285.00,0.001
286.00,-0.000
287.00,-0.000
288.00,-0.001
289.00,0.001
290.00,0.002
291.00,0.002
292.00,0.000
293.00,0.002
294.00,0.000
295.00,-0.000
296.00,-0.000
297.00,-0.000
298.00,-0.000
299.00,0.002
300.00,0.002
301.00,0.004
302.00,0.006
303.00,0.008
304.00,0.014
305.00,0.024
306.00,0.032
307.00,0.052
308.00,0.083
309.00,0.128
310.00,0.181
311.00,0.239
312.00,0.330
313.00,0.448
314.00,0.590
315.00,0.769
316.00,0.992
317.00,1.254
318.00,1.548
319.00,1.897
320.00,2.307
321.00,2.762
322.00,3.303
323.00,3.896
324.00,4.512
325.00,5.047
326.00,5.810
327.00,6.603
328.00,7.240
329.00,8.113
330.00,8.957
331.00,9.757
332.00,10.625
333.00,11.554
334.00,12.370
335.00,13.299
336.00,14.191
337.00,15.032
338.00,15.932
339.00,16.717
340.00,17.573
341.00,18.390
342.00,19.122
343.00,19.897
344.00,20.603
345.00,21.287
346.00,21.918
347.00,22.518
348.00,23.140
349.00,23.680
350.00,24.233
351.00,24.743
352.00,25.196
353.00,25.613
354.00,26.037
355.00,26.414
356.00,26.875
357.00,27.195
358.00,27.534
359.00,27.848
360.00,28.126
361.00,28.321
362.00,28.602
363.00,28.846
364.00,29.078
365.00,29.266
366.00,29.427
367.00,29.574
368.00,29.684
369.00,29.852
370.00,29.900
371.00,30.030
372.00,30.117
373.00,30.123
374.00,30.144
375.00,30.173
376.00,30.127
377.00,30.117
378.00,30.094
379.00,30.068
380.00,30.087
381.00,30.045
382.00,30.165
383.00,30.193
384.00,30.252
385.00,30.346
386.00,30.360
387.00,30.470
388.00,30.493
389.00,30.566
390.00,30.644
391.00,30.778
392.00,30.814
393.00,30.876
394.00,30.909
395.00,30.959
396.00,30.969
397.00,31.027
398.00,31.089
399.00,31.076
400.00,31.086
401.00,31.105
402.00,31.142
403.00,31.135
404.00,31.160
405.00,31.134
406.00,31.124
407.00,31.107
408.00,31.125
409.00,31.067
410.00,31.020
411.00,30.991
412.00,30.987
413.00,31.026
414.00,30.976
415.00,31.050
416.00,31.090
417.00,31.079
418.00,31.108
419.00,31.125
420.00,31.160
421.00,31.189
422.00,31.135
423.00,31.155
424.00,31.289
425.00,31.362
426.00,31.345
427.00,31.427
428.00,31.472
429.00,31.492
430.00,31.525
431.00,31.573
432.00,31.608
433.00,31.641
434.00,31.701
435.00,31.768
436.00,31.794
437.00,31.847
438.00,31.922
439.00,31.960
440.00,32.048
441.00,32.067
442.00,32.190
443.00,32.249
444.00,32.311
445.00,32.369
446.00,32.466
447.00,32.506
448.00,32.605
449.00,32.729
450.00,32.710
451.00,32.869
452.00,32.948
453.00,33.051
454.00,33.141
455.00,33.194
456.00,33.230
457.00,33.457
458.00,33.491
459.00,33.595
460.00,33.707
461.00,33.782
462.00,33.909
463.00,34.030
464.00,34.127
465.00,34.195
466.00,34.261
467.00,34.358
468.00,34.469
469.00,34.585
470.00,34.554
471.00,34.608
472.00,34.875
473.00,34.894
474.00,34.964
475.00,35.083
476.00,35.124
477.00,35.229
478.00,35.316
479.00,35.523
480.00,35.579
481.00,35.680
482.00,35.807
483.00,35.890
484.00,36.035
485.00,36.225
486.00,36.276
487.00,36.411
488.00,36.521
489.00,36.703
490.00,36.815
491.00,36.930
492.00,37.095
493.00,37.154
494.00,37.159
495.00,37.244
496.00,37.323
497.00,37.417
498.00,37.541
499.00,37.713
500.00,37.772
501.00,37.920
502.00,38.015
503.00,38.100
504.00,38.187
505.00,38.298
506.00,38.383
507.00,38.464
508.00,38.561
509.00,38.638
510.00,38.780
511.00,38.825
512.00,38.933
513.00,39.092
514.00,39.191
515.00,39.251
516.00,39.364
517.00,39.402
518.00,39.515
519.00,39.618
520.00,39.647
521.00,39.640
522.00,39.803
523.00,39.874
524.00,39.946
525.00,40.041
526.00,40.092
527.00,40.169
528.00,40.279
529.00,40.397
530.00,40.440
531.00,40.549
532.00,40.643
533.00,40.693
534.00,40.759
535.00,40.855
536.00,40.944
537.00,41.032
538.00,41.110
539.00,41.166
540.00,41.223
541.00,41.254
542.00,41.277
543.00,41.357
544.00,41.436
545.00,41.430
546.00,41.511
547.00,41.615
548.00,41.656
549.00,41.737
550.00,41.833
551.00,41.859
552.00,41.982
553.00,41.995
554.00,42.072
555.00,42.122
556.00,42.188
557.00,42.241
558.00,42.313
559.00,42.330
560.00,42.441
561.00,42.514
562.00,42.555
563.00,42.568
564.00,42.657
565.00,42.677
566.00,42.613
567.00,42.703
568.00,42.707
569.00,42.785
570.00,42.755
571.00,42.860
572.00,42.848
573.00,42.911
574.00,42.973
575.00,42.942
576.00,42.952
577.00,43.028
578.00,43.114
579.00,43.146
580.00,43.208
581.00,43.320
582.00,43.336
583.00,43.485
584.00,43.595
585.00,43.617
586.00,43.642
587.00,43.729
588.00,43.710
589.00,43.754
590.00,43.809
591.00,43.859
592.00,43.838
593.00,43.849
594.00,43.934
595.00,43.945
596.00,43.970
597.00,44.076
598.00,44.160
599.00,44.191
600.00,44.200
601.00,44.189
602.00,44.326
603.00,44.330
604.00,44.373
605.00,44.428
606.00,44.508
607.00,44.518
608.00,44.565
609.00,44.522
610.00,44.525
611.00,44.551
612.00,44.635
613.00,44.615
614.00,44.597
615.00,44.689
616.00,44.795
617.00,44.846
618.00,44.796
619.00,44.908
620.00,44.979
621.00,44.927
622.00,45.032
623.00,45.064
624.00,45.043
625.00,45.066
626.00,45.092
627.00,45.161
628.00,45.115
629.00,45.220
630.00,45.257
631.00,45.330
632.00,45.403
633.00,45.487
634.00,45.504
635.00,45.593
636.00,45.668
637.00,45.692
638.00,45.742
639.00,45.814
640.00,45.803
641.00,45.824
642.00,45.849
643.00,45.946
644.00,45.982
645.00,45.989
646.00,46.031
647.00,46.124
648.00,46.121
649.00,46.241
650.00,46.254
651.00,46.277
652.00,46.413
653.00,46.414
654.00,46.499
655.00,46.498
656.00,46.494
657.00,46.554
658.00,46.606
659.00,46.680
660.00,46.914
661.00,46.845
662.00,46.897
663.00,46.960
664.00,47.065
665.00,47.072
666.00,47.161
667.00,47.217
668.00,47.118
669.00,47.261
670.00,47.390
671.00,47.241
672.00,47.199
673.00,47.478
674.00,47.560
675.00,47.490
676.00,47.626
677.00,47.666
678.00,47.641
679.00,47.648
680.00,47.727
681.00,47.750
682.00,47.819
683.00,47.876
684.00,48.023
685.00,47.967
686.00,47.954
687.00,48.058
688.00,48.049
689.00,48.121
690.00,48.180
691.00,48.257
692.00,48.150
693.00,48.349
694.00,48.327
695.00,48.239
696.00,48.355
697.00,48.421
698.00,48.435
699.00,48.522
700.00,48.759
701.00,48.669
702.00,48.680
703.00,48.824
704.00,48.776
705.00,48.897
706.00,48.993
707.00,48.917
708.00,48.791
709.00,49.024
710.00,49.244
711.00,48.942
712.00,48.890
713.00,48.989
714.00,48.994
715.00,49.043
716.00,49.093
717.00,49.105
718.00,49.212
719.00,49.110
720.00,49.354
721.00,53.588
722.00,53.584
723.00,53.414
724.00,53.525
725.00,53.467
726.00,53.433
727.00,53.390
728.00,53.488
729.00,53.362
730.00,53.482
731.00,53.441
732.00,53.381
733.00,53.500
734.00,53.403
735.00,53.446
736.00,53.371
737.00,53.350
738.00,53.519
739.00,53.391
740.00,53.460
741.00,53.445
742.00,53.371
743.00,53.369
744.00,53.358
745.00,53.343
746.00,53.338
747.00,53.263
748.00,53.254
749.00,53.154
750.00,53.153
751.00,53.151
752.00,53.166
753.00,53.106
754.00,53.136
755.00,53.068
756.00,53.023
757.00,53.027
758.00,53.134
759.00,53.073
760.00,52.997
761.00,53.120
762.00,52.987
763.00,53.017
764.00,53.034
765.00,52.994
766.00,53.029
767.00,52.914
768.00,53.012
769.00,53.015
770.00,52.990
771.00,52.901
772.00,52.977
773.00,52.904
774.00,52.911
775.00,52.975
776.00,52.866
777.00,52.916
778.00,52.866
779.00,52.840
780.00,52.854
781.00,52.812
782.00,52.739
783.00,52.788
784.00,52.743
785.00,52.727
786.00,52.751
787.00,52.744
788.00,52.687
789.00,52.652
790.00,52.584
791.00,52.655
792.00,52.585
793.00,52.515
794.00,52.573
795.00,52.505
796.00,52.523
797.00,52.434
798.00,52.419
799.00,52.436
800.00,52.368
801.00,52.341
802.00,52.364
803.00,52.369
804.00,52.290
805.00,52.267
806.00,52.213
807.00,52.161
808.00,52.168
809.00,52.101
810.00,52.143
811.00,52.106
812.00,52.181
813.00,52.044
814.00,52.159
815.00,52.095
816.00,52.012
817.00,51.990
818.00,51.908
819.00,51.988
820.00,51.914
821.00,52.009
822.00,51.900
823.00,51.922
824.00,51.878
825.00,51.802
826.00,51.758
827.00,51.934
828.00,51.825
829.00,51.734
830.00,51.726
831.00,54.315
832.00,54.332
833.00,54.260
834.00,54.251
835.00,54.194
836.00,54.208
837.00,54.139
838.00,54.119
839.00,54.103
840.00,54.053
841.00,54.037
842.00,54.032
843.00,54.018
844.00,53.982
845.00,53.940
846.00,53.960
847.00,53.936
848.00,53.883
849.00,53.851
850.00,53.783
851.00,53.793
852.00,53.735
853.00,53.717
854.00,53.664
855.00,53.644
856.00,53.626
857.00,53.615
858.00,53.562
859.00,53.508
860.00,53.595
861.00,53.518
862.00,53.432
863.00,53.469
864.00,53.419
865.00,53.428
866.00,53.368
867.00,53.392
868.00,53.388
869.00,53.356
870.00,53.355
871.00,53.346
872.00,53.313
873.00,53.369
874.00,53.198
875.00,53.387
876.00,53.257
877.00,53.230
878.00,53.201
879.00,53.227
880.00,53.206
881.00,53.158
882.00,53.165
883.00,53.120
884.00,53.085
885.00,53.085
886.00,53.071
887.00,53.027
888.00,53.016
889.00,52.980
890.00,53.008
891.00,52.948
892.00,52.928
893.00,52.923
894.00,52.916
895.00,52.857
896.00,52.835
897.00,52.813
898.00,52.802
899.00,52.793
900.00,52.780
901.00,52.803
902.00,52.782
903.00,52.718
904.00,52.716
905.00,52.707
906.00,52.670
907.00,52.664
908.00,52.608
909.00,52.619
910.00,52.576
911.00,52.568
912.00,52.606
913.00,52.524
914.00,52.481
915.00,52.517
916.00,52.462
917.00,52.399
918.00,52.410
919.00,52.381
920.00,52.322
921.00,52.347
922.00,52.344
923.00,52.305
924.00,52.316
925.00,52.288
926.00,52.279
927.00,52.235
928.00,52.211
929.00,52.209
930.00,52.182
931.00,52.152
932.00,52.121
933.00,52.124
934.00,52.098
935.00,52.086
936.00,52.066
937.00,52.038
938.00,52.023
939.00,52.014
940.00,51.970
941.00,51.969
942.00,51.941
943.00,51.928
944.00,51.899
945.00,51.900
946.00,51.878
947.00,51.860
948.00,51.837
949.00,51.806
950.00,51.775
951.00,51.754
952.00,51.749
953.00,51.695
954.00,51.681
955.00,51.689
956.00,51.622
957.00,51.586
958.00,51.630
959.00,51.511
960.00,51.550
961.00,51.527
962.00,51.540
963.00,51.500
964.00,51.481
965.00,51.461
966.00,51.472
967.00,51.450
968.00,51.430
969.00,51.478
970.00,51.441
971.00,51.443
972.00,51.403
973.00,51.439
974.00,51.458
975.00,51.380
976.00,51.442
977.00,51.428
978.00,51.454
979.00,51.411
980.00,51.440
981.00,51.444
982.00,51.402
983.00,51.418
984.00,51.388
985.00,51.422
986.00,51.371
987.00,51.381
988.00,51.372
989.00,51.355
990.00,51.340
991.00,51.345
992.00,51.335
993.00,51.314
994.00,51.297
995.00,51.289
996.00,51.269
997.00,51.265
998.00,51.242
999.00,51.269
1000.00,51.199
1001.00,51.213
1002.00,51.213
1003.00,51.195
1004.00,51.178
1005.00,51.148
1006.00,51.165
1007.00,51.132
1008.00,51.123
1009.00,51.106
1010.00,51.087
1011.00,51.073
1012.00,51.044
1013.00,51.062
1014.00,51.006
1015.00,51.039
1016.00,51.040
1017.00,50.985
1018.00,50.967
1019.00,50.926
1020.00,50.931
1021.00,50.926
1022.00,50.923
1023.00,50.871
1024.00,50.877
1025.00,50.863
1026.00,50.861
1027.00,50.835
1028.00,50.815
1029.00,50.815
1030.00,50.768
1031.00,50.781
1032.00,50.752
1033.00,50.729
1034.00,50.709
1035.00,50.675
1036.00,50.659
1037.00,50.652
1038.00,50.630
1039.00,50.580
1040.00,50.596
1041.00,50.547
1042.00,50.554
1043.00,50.522
1044.00,50.530
1045.00,50.512
1046.00,50.504
1047.00,50.506
1048.00,50.535
1049.00,50.535
1050.00,50.554
1051.00,50.593
1052.00,50.606
1053.00,50.598
1054.00,50.595
1055.00,50.599
1056.00,50.618
1057.00,50.625
1058.00,50.605
1059.00,50.617
1060.00,50.601
1061.00,50.592
1062.00,50.573
1063.00,50.575
1064.00,50.568
1065.00,50.560
1066.00,50.542
1067.00,50.535
1068.00,50.554
1069.00,50.520
1070.00,50.518
1071.00,50.496
1072.00,50.515
1073.00,50.494
1074.00,50.482
1075.00,50.471
1076.00,50.468
1077.00,50.440
1078.00,50.439
1079.00,50.430
1080.00,50.424
1081.00,50.414
1082.00,50.406
1083.00,50.390
1084.00,50.388
1085.00,50.376
1086.00,50.370
1087.00,50.377
1088.00,50.342
1089.00,50.335
1090.00,50.340
1091.00,50.332
1092.00,50.329
1093.00,50.296
1094.00,50.288
1095.00,50.279
1096.00,50.260
1097.00,50.268
1098.00,50.285
1099.00,50.246
1100.00,50.235
1101.00,50.228
1102.00,50.220
1103.00,50.216
1104.00,50.195
1105.00,50.162
1106.00,50.163
1107.00,50.158
1108.00,50.153
1109.00,50.154
1110.00,50.141
1111.00,50.144
1112.00,50.139
1113.00,50.120
1114.00,50.125
1115.00,50.116
1116.00,50.096
1117.00,50.085
1118.00,50.090
1119.00,50.070
1120.00,50.071
1121.00,50.050
1122.00,50.044
1123.00,50.047
1124.00,50.031
1125.00,50.024
1126.00,50.020
1127.00,50.008
1128.00,50.004
1129.00,49.986
1130.00,49.987
1131.00,49.997
1132.00,49.985
1133.00,49.973
1134.00,49.991
1135.00,49.947
1136.00,49.956
1137.00,49.947
1138.00,49.938
1139.00,49.950
1140.00,49.926
1141.00,49.932
1142.00,49.924
1143.00,49.930
1144.00,49.915
1145.00,49.915
1146.00,49.901
1147.00,49.892
1148.00,49.881
1149.00,49.886
1150.00,49.882
1151.00,49.880
1152.00,49.840
1153.00,49.866
1154.00,49.846
1155.00,49.853
1156.00,49.850
1157.00,49.842
1158.00,49.856
1159.00,49.846
1160.00,49.841
1161.00,49.857
1162.00,49.845
1163.00,49.835
1164.00,49.840
1165.00,49.821
1166.00,49.807
1167.00,49.817
1168.00,49.826
1169.00,49.829
1170.00,49.828
1171.00,49.794
1172.00,49.812
1173.00,49.793
1174.00,49.811
1175.00,49.813
1176.00,49.805
1177.00,49.808
1178.00,49.811
1179.00,49.816
1180.00,49.803
1181.00,49.825
1182.00,49.804
1183.00,49.800
1184.00,49.781
1185.00,49.802
1186.00,49.800
1187.00,49.792
1188.00,49.784
1189.00,49.782
1190.00,49.773
1191.00,49.787
1192.00,49.787
1193.00,49.772
1194.00,49.782
1195.00,49.759
1196.00,49.785
1197.00,49.787
1198.00,49.752
1199.00,49.758
1200.00,49.763
1201.00,49.766
1202.00,49.756
1203.00,49.753
1204.00,49.732
1205.00,49.756
1206.00,49.743
1207.00,49.756
1208.00,49.739
1209.00,49.722
1210.00,49.736
1211.00,49.750
1212.00,49.744
1213.00,49.718
1214.00,49.743
1215.00,49.722
1216.00,49.732
1217.00,49.737
1218.00,49.718
1219.00,49.756
1220.00,49.735
1221.00,49.743
1222.00,49.732
1223.00,49.736
1224.00,49.738
1225.00,49.716
1226.00,49.721
1227.00,49.704
1228.00,49.729
1229.00,49.731
1230.00,49.766
1231.00,49.750
1232.00,49.775
1233.00,49.784
1234.00,49.776
1235.00,49.795
1236.00,49.772
1237.00,49.763
1238.00,49.771
1239.00,49.769
1240.00,49.767
1241.00,49.784
1242.00,49.766
1243.00,49.789
1244.00,49.771
1245.00,49.784
1246.00,49.795
1247.00,49.779
1248.00,49.765
1249.00,49.783
1250.00,49.795
1251.00,49.771
1252.00,49.802
1253.00,49.780
1254.00,49.814
1255.00,49.807
1256.00,49.783
1257.00,49.776
1258.00,49.816
1259.00,49.809
1260.00,49.840
1261.00,49.841
1262.00,49.831
1263.00,49.839
1264.00,49.829
1265.00,49.841
1266.00,49.852
1267.00,49.827
1268.00,49.853
1269.00,49.843
1270.00,49.851
1271.00,49.851
1272.00,49.849
1273.00,49.862
1274.00,49.859
1275.00,49.856
1276.00,49.868
1277.00,49.871
1278.00,49.876
1279.00,49.887
1280.00,49.889
1281.00,49.894
1282.00,49.917
1283.00,49.879
1284.00,49.901
1285.00,49.893
1286.00,49.897
1287.00,49.885
1288.00,49.901
1289.00,49.879
1290.00,49.933
1291.00,49.915
1292.00,49.920
1293.00,49.916
1294.00,49.942
1295.00,49.937
1296.00,49.956
1297.00,49.949
1298.00,49.968
1299.00,49.962
1300.00,49.971
1301.00,49.981
1302.00,49.972
1303.00,49.975
1304.00,49.970
1305.00,49.986
1306.00,49.983
1307.00,50.013
1308.00,50.000
1309.00,50.010
1310.00,50.008
1311.00,49.997
1312.00,50.007
1313.00,50.015
1314.00,50.018
1315.00,50.036
1316.00,50.019
1317.00,50.048
1318.00,50.048
1319.00,50.045
1320.00,50.062
1321.00,50.212
1322.00,50.227
1323.00,50.202
1324.00,50.209
1325.00,50.189
1326.00,50.226
1327.00,50.198
1328.00,50.198
1329.00,50.204
1330.00,50.209
1331.00,50.202
1332.00,50.208
1333.00,50.200
1334.00,50.243
1335.00,50.255
1336.00,50.278
1337.00,50.296
1338.00,50.359
1339.00,50.411
1340.00,50.474
1341.00,50.522
1342.00,50.595
1343.00,50.647
1344.00,50.692
1345.00,50.744
1346.00,50.816
1347.00,50.815
1348.00,50.850
1349.00,50.851
1350.00,50.883
1351.00,50.896
1352.00,50.877
1353.00,50.888
1354.00,50.914
1355.00,50.967
1356.00,50.913
1357.00,50.905
1358.00,50.926
1359.00,50.964
1360.00,51.031
1361.00,50.945
1362.00,50.835
1363.00,50.999
1364.00,50.952
1365.00,50.955
1366.00,51.032
1367.00,50.932
1368.00,50.899
1369.00,50.953
1370.00,50.887
1371.00,50.858
1372.00,50.916
1373.00,50.886
1374.00,50.916
1375.00,50.905
1376.00,50.910
1377.00,50.886
1378.00,50.951
1379.00,50.911
1380.00,50.914
1381.00,50.874
1382.00,50.895
1383.00,50.890
1384.00,50.855
1385.00,50.844
1386.00,50.868
1387.00,50.834
1388.00,50.835
1389.00,50.869
1390.00,50.937
1391.00,50.816
1392.00,50.885
1393.00,50.899
1394.00,50.888
1395.00,50.819
1396.00,50.810
1397.00,50.803
1398.00,50.915
1399.00,50.894
1400.00,50.852
1401.00,50.846
1402.00,50.966
1403.00,50.853
1404.00,50.866
1405.00,50.904
1406.00,50.903
1407.00,50.909
1408.00,50.911
1409.00,50.887
1410.00,50.958
1411.00,50.703
1412.00,50.999
1413.00,50.917
1414.00,50.956
1415.00,50.960
1416.00,51.034
1417.00,50.993
1418.00,50.964
1419.00,50.977
1420.00,51.006
1421.00,51.062
1422.00,51.032
1423.00,51.025
1424.00,51.064
1425.00,51.064
1426.00,51.059
1427.00,51.106
1428.00,51.111
1429.00,51.099
1430.00,51.118
1431.00,51.146
1432.00,51.146
1433.00,51.182
1434.00,51.155
1435.00,51.221
1436.00,51.218
1437.00,51.194
1438.00,51.225
1439.00,51.267
1440.00,51.263
1441.00,51.261
1442.00,51.277
1443.00,51.302
1444.00,51.330
1445.00,51.313
1446.00,51.313
1447.00,51.347
1448.00,51.384
1449.00,51.386
1450.00,51.388
1451.00,51.404
1452.00,51.422
1453.00,51.451
1454.00,51.464
1455.00,51.475
1456.00,51.507
1457.00,51.500
1458.00,51.538
1459.00,51.543
1460.00,51.550
1461.00,51.557
1462.00,51.570
1463.00,51.585
1464.00,51.601
1465.00,51.603
1466.00,51.603
1467.00,51.629
1468.00,51.693
1469.00,51.670
1470.00,51.675
1471.00,51.689
1472.00,51.706
1473.00,51.695
1474.00,51.728
1475.00,51.738
1476.00,51.740
1477.00,51.727
1478.00,51.765
1479.00,51.781
1480.00,51.795
1481.00,51.790
1482.00,51.828
1483.00,51.841
1484.00,51.837
1485.00,51.858
1486.00,51.858
1487.00,51.880
1488.00,51.895
1489.00,51.891
1490.00,51.908
1491.00,51.923
1492.00,51.944
1493.00,51.925
1494.00,51.958
1495.00,51.963
1496.00,51.969
1497.00,51.990
1498.00,51.992
1499.00,52.011
1500.00,52.041
1501.00, 
1502.00, 
1503.00, 
1504.00, 
1505.00, 
1506.00, 
1507.00, 
1508.00, 
1509.00, 
1510.00, 
1511.00, 
1512.00, 
1513.00, 
1514.00, 
1515.00, 
1516.00, 
1517.00, 
1518.00, 
1519.00, 
1520.00, 
1521.00, 
1522.00, 
1523.00, 
1524.00, 
1525.00, 
1526.00, 
1527.00, 
1528.00, 
1529.00, 
1530.00, 
1531.00, 
1532.00, 
1533.00, 
1534.00, 
1535.00, 
1536.00, 
1537.00, 
1538.00, 
1539.00, 
1540.00, 
1541.00, 
1542.00, 
1543.00, 
1544.00, 
1545.00, 
1546.00, 
1547.00, 
1548.00, 
1549.00, 
1550.00, 
1551.00, 
1552.00, 
1553.00, 
1554.00, 
1555.00, 
1556.00, 
1557.00, 
1558.00, 
1559.00, 
1560.00, 
1561.00, 
1562.00, 
1563.00, 
1564.00, 
1565.00, 
1566.00, 
1567.00, 
1568.00, 
1569.00, 
1570.00, 
1571.00, 
1572.00, 
1573.00, 
1574.00, 
1575.00, 
1576.00, 
1577.00, 
1578.00, 
1579.00, 
1580.00, 
1581.00, 
1582.00, 
1583.00, 
1584.00, 
1585.00, 
1586.00, 
1587.00, 
1588.00, 
1589.00, 
1590.00, 
1591.00, 
1592.00, 
1593.00, 
1594.00, 
1595.00, 
1596.00, 
1597.00, 
1598.00, 
1599.00, 
1600.00, 
1601.00, 
1602.00, 
1603.00, 
1604.00, 
1605.00, 
1606.00, 
1607.00, 
1608.00, 
1609.00, 
1610.00, 
1611.00, 
1612.00, 
1613.00, 
1614.00, 
1615.00, 
1616.00, 
1617.00, 
1618.00, 
1619.00, 
1620.00, 
1621.00, 
1622.00, 
1623.00, 
1624.00, 
1625.00, 
1626.00, 
1627.00, 
1628.00, 
1629.00, 
1630.00, 
1631.00, 
1632.00, 
1633.00, 
1634.00, 
1635.00, 
1636.00, 
1637.00, 
1638.00, 
1639.00, 
1640.00, 
1641.00, 
1642.00, 
1643.00, 
1644.00, 
1645.00, 
1646.00, 
1647.00, 
1648.00, 
1649.00, 
1650.00, 
1651.00, 
1652.00, 
1653.00, 
1654.00, 
1655.00, 
1656.00, 
1657.00, 
1658.00, 
1659.00, 
1660.00, 
1661.00, 
1662.00, 
1663.00, 
1664.00, 
1665.00, 
1666.00, 
1667.00, 
1668.00, 
1669.00, 
1670.00, 
1671.00, 
1672.00, 
1673.00, 
1674.00, 
1675.00, 
1676.00, 
1677.00, 
1678.00, 
1679.00, 
1680.00, 
1681.00, 
1682.00, 
1683.00, 
1684.00, 
1685.00, 
1686.00, 
1687.00, 
1688.00, 
1689.00, 
1690.00, 
1691.00, 
1692.00, 
1693.00, 
1694.00, 
1695.00, 
1696.00, 
1697.00, 
1698.00, 
1699.00, 
1700.00, 
1701.00, 
1702.00, 
1703.00, 
1704.00, 
1705.00, 
1706.00, 
1707.00, 
1708.00, 
1709.00, 
1710.00, 
1711.00, 
1712.00, 
1713.00, 
1714.00, 
1715.00, 
1716.00, 
1717.00, 
1718.00, 
1719.00, 
1720.00, 
1721.00, 
1722.00, 
1723.00, 
1724.00, 
1725.00, 
1726.00, 
1727.00, 
1728.00, 
1729.00, 
1730.00, 
1731.00, 
1732.00, 
1733.00, 
1734.00, 
1735.00, 
1736.00, 
1737.00, 
1738.00, 
1739.00, 
1740.00, 
1741.00, 
1742.00, 
1743.00, 
1744.00, 
1745.00, 
1746.00, 
1747.00, 
1748.00, 
1749.00, 
1750.00, 
1751.00, 
1752.00, 
1753.00, 
1754.00, 
1755.00, 
1756.00, 
1757.00, 
1758.00, 
1759.00, 
1760.00, 
1761.00, 
1762.00, 
1763.00, 
1764.00, 
1765.00, 
1766.00, 
1767.00, 
1768.00, 
1769.00, 
1770.00, 
1771.00, 
1772.00, 
1773.00, 
1774.00, 
1775.00, 
1776.00, 
1777.00, 
1778.00, 
1779.00, 
1780.00, 
1781.00, 
1782.00, 
1783.00, 
1784.00, 
1785.00, 
1786.00, 
1787.00, 
1788.00, 
1789.00, 
1790.00, 
1791.00, 
1792.00, 
1793.00, 
1794.00, 
1795.00, 
1796.00, 
1797.00, 
1798.00, 
1799.00, 
1800.00, 
1801.00, 
1802.00, 
1803.00, 
1804.00, 
1805.00, 
1806.00, 
1807.00, 
1808.00, 
1809.00, 
1810.00, 
1811.00, 
1812.00, 
1813.00, 
1814.00, 
1815.00, 
1816.00, 
1817.00, 
1818.00, 
1819.00, 
1820.00, 
1821.00, 
1822.00, 
1823.00, 
1824.00, 
1825.00, 
1826.00, 
1827.00, 
1828.00, 
1829.00, 
1830.00, 
1831.00, 
1832.00, 
1833.00, 
1834.00, 
1835.00, 
1836.00, 
1837.00, 
1838.00, 
1839.00, 
1840.00, 
1841.00, 
1842.00, 
1843.00, 
1844.00, 
1845.00, 
1846.00, 
1847.00, 
1848.00, 
1849.00, 
1850.00, 
1851.00, 
1852.00, 
1853.00, 
1854.00, 
1855.00, 
1856.00, 
1857.00, 
1858.00, 
1859.00, 
1860.00, 
1861.00, 
1862.00, 
1863.00, 
1864.00, 
1865.00, 
1866.00, 
1867.00, 
1868.00, 
1869.00, 
1870.00, 
1871.00, 
1872.00, 
1873.00, 
1874.00, 
1875.00, 
1876.00, 
1877.00, 
1878.00, 
1879.00, 
1880.00, 
1881.00, 
1882.00, 
1883.00, 
1884.00, 
1885.00, 
1886.00, 
1887.00, 
1888.00, 
1889.00, 
1890.00, 
1891.00, 
1892.00, 
1893.00, 
1894.00, 
1895.00, 
1896.00, 
1897.00, 
1898.00, 
1899.00, 
1900.00, 
1901.00, 
1902.00, 
1903.00, 
1904.00, 
1905.00, 
1906.00, 
1907.00, 
1908.00, 
1909.00, 
1910.00, 
1911.00, 
1912.00, 
1913.00, 
1914.00, 
1915.00, 
1916.00, 
1917.00, 
1918.00, 
1919.00, 
1920.00, 
1921.00, 
1922.00, 
1923.00, 
1924.00, 
1925.00, 
1926.00, 
1927.00, 
1928.00, 
1929.00, 
1930.00, 
1931.00, 
1932.00, 
1933.00, 
1934.00, 
1935.00, 
1936.00, 
1937.00, 
1938.00, 
1939.00, 
1940.00, 
1941.00, 
1942.00, 
1943.00, 
1944.00, 
1945.00, 
1946.00, 
1947.00, 
1948.00, 
1949.00, 
1950.00, 
1951.00, 
1952.00, 
1953.00, 
1954.00, 
1955.00, 
1956.00, 
1957.00, 
1958.00, 
1959.00, 
1960.00, 
1961.00, 
1962.00, 
1963.00, 
1964.00, 
1965.00, 
1966.00, 
1967.00, 
1968.00, 
1969.00, 
1970.00, 
1971.00, 
1972.00, 
1973.00, 
1974.00, 
1975.00, 
1976.00, 
1977.00, 
1978.00, 
1979.00, 
1980.00, 
1981.00, 
1982.00, 
1983.00, 
1984.00, 
1985.00, 
1986.00, 
1987.00, 
1988.00, 
1989.00, 
1990.00, 
1991.00, 
1992.00, 
1993.00, 
1994.00, 
1995.00, 
1996.00, 
1997.00, 
1998.00, 
1999.00, 
2000.00, 
2001.00, 
2002.00, 
2003.00, 
2004.00, 
2005.00, 
2006.00, 
2007.00, 
2008.00, 
2009.00, 
2010.00, 
2011.00, 
2012.00, 
2013.00, 
2014.00, 
2015.00, 
2016.00, 
2017.00, 
2018.00, 
2019.00, 
2020.00, 
2021.00, 
2022.00, 
2023.00, 
2024.00, 
2025.00, 
2026.00, 
2027.00, 
2028.00, 
2029.00, 
2030.00, 
2031.00, 
2032.00, 
2033.00, 
2034.00, 
2035.00, 
2036.00, 
2037.00, 
2038.00, 
2039.00, 
2040.00, 
2041.00, 
2042.00, 
2043.00, 
2044.00, 
2045.00, 
2046.00, 
2047.00, 
2048.00, 
2049.00, 
2050.00, 
2051.00, 
2052.00, 
2053.00, 
2054.00, 
2055.00, 
2056.00, 
2057.00, 
2058.00, 
2059.00, 
2060.00, 
2061.00, 
2062.00, 
2063.00, 
2064.00, 
2065.00, 
2066.00, 
2067.00, 
2068.00, 
2069.00, 
2070.00, 
2071.00, 
2072.00, 
2073.00, 
2074.00, 
2075.00, 
2076.00, 
2077.00, 
2078.00, 
2079.00, 
2080.00, 
2081.00, 
2082.00, 
2083.00, 
2084.00, 
2085.00, 
2086.00, 
2087.00, 
2088.00, 
2089.00, 
2090.00, 
2091.00, 
2092.00, 
2093.00, 
2094.00, 
2095.00, 
2096.00, 
2097.00, 
2098.00, 
2099.00, 
2100.00, 
2101.00, 
2102.00, 
2103.00, 
2104.00, 
2105.00, 
2106.00, 
2107.00, 
2108.00, 
2109.00, 
2110.00, 
2111.00, 
2112.00, 
2113.00, 
2114.00, 
2115.00, 
2116.00, 
2117.00, 
2118.00, 
2119.00, 
2120.00, 
2121.00, 
2122.00, 
2123.00, 
2124.00, 
2125.00, 
2126.00, 
2127.00, 
2128.00, 
2129.00, 
2130.00, 
2131.00, 
2132.00, 
2133.00, 
2134.00, 
2135.00, 
2136.00, 
2137.00, 
2138.00, 
2139.00, 
2140.00, 
2141.00, 
2142.00, 
2143.00, 
2144.00, 
2145.00, 
2146.00, 
2147.00, 
2148.00, 
2149.00, 
2150.00, 
2151.00, 
2152.00, 
2153.00, 
2154.00, 
2155.00, 
2156.00, 
2157.00, 
2158.00, 
2159.00, 
2160.00, 
2161.00, 
2162.00, 
2163.00, 
2164.00, 
2165.00, 
2166.00, 
2167.00, 
2168.00, 
2169.00, 
2170.00, 
2171.00, 
2172.00, 
2173.00, 
2174.00, 
2175.00, 
2176.00, 
2177.00, 
2178.00, 
2179.00, 
2180.00, 
2181.00, 
2182.00, 
2183.00, 
2184.00, 
2185.00, 
2186.00, 
2187.00, 
2188.00, 
2189.00, 
2190.00, 
2191.00, 
2192.00, 
2193.00, 
2194.00, 
2195.00, 
2196.00, 
2197.00, 
2198.00, 
2199.00, 
2200.00, 
2201.00, 
2202.00, 
2203.00, 
2204.00, 
2205.00, 
2206.00, 
2207.00, 
2208.00, 
2209.00, 
2210.00, 
2211.00, 
2212.00, 
2213.00, 
2214.00, 
2215.00, 
2216.00, 
2217.00, 
2218.00, 
2219.00, 
2220.00, 
2221.00, 
2222.00, 
2223.00, 
2224.00, 
2225.00, 
2226.00, 
2227.00, 
2228.00, 
2229.00, 
2230.00, 
2231.00, 
2232.00, 
2233.00, 
2234.00, 
2235.00, 
2236.00, 
2237.00, 
2238.00, 
2239.00, 
2240.00, 
2241.00, 
2242.00, 
2243.00, 
2244.00, 
2245.00, 
2246.00, 
2247.00, 
2248.00, 
2249.00, 
2250.00, 
2251.00, 
2252.00, 
2253.00, 
2254.00, 
2255.00, 
2256.00, 
2257.00, 
2258.00, 
2259.00, 
2260.00, 
2261.00, 
2262.00, 
2263.00, 
2264.00, 
2265.00, 
2266.00, 
2267.00, 
2268.00, 
2269.00, 
2270.00, 
2271.00, 
2272.00, 
2273.00, 
2274.00, 
2275.00, 
2276.00, 
2277.00, 
2278.00, 
2279.00, 
2280.00, 
2281.00, 
2282.00, 
2283.00, 
2284.00, 
2285.00, 
2286.00, 
2287.00, 
2288.00, 
2289.00, 
2290.00, 
2291.00, 
2292.00, 
2293.00, 
2294.00, 
2295.00, 
2296.00, 
2297.00, 
2298.00, 
2299.00, 
2300.00, 
2301.00, 
2302.00, 
2303.00, 
2304.00, 
2305.00, 
2306.00, 
2307.00, 
2308.00, 
2309.00, 
2310.00, 
2311.00, 
2312.00, 
2313.00, 
2314.00, 
2315.00, 
2316.00, 
2317.00, 
2318.00, 
2319.00, 
2320.00, 
2321.00, 
2322.00, 
2323.00, 
2324.00, 
2325.00, 
2326.00, 
2327.00, 
2328.00, 
2329.00, 
2330.00, 
2331.00, 
2332.00, 
2333.00, 
2334.00, 
2335.00, 
2336.00, 
2337.00, 
2338.00, 
2339.00, 
2340.00, 
2341.00, 
2342.00, 
2343.00, 
2344.00, 
2345.00, 
2346.00, 
2347.00, 
2348.00, 
2349.00, 
2350.00, 
2351.00, 
2352.00, 
2353.00, 
2354.00, 
2355.00, 
2356.00, 
2357.00, 
2358.00, 
2359.00, 
2360.00, 
2361.00, 
2362.00, 
2363.00, 
2364.00, 
2365.00, 
2366.00, 
2367.00, 
2368.00, 
2369.00, 
2370.00, 
2371.00, 
2372.00, 
2373.00, 
2374.00, 
2375.00, 
2376.00, 
2377.00, 
2378.00, 
2379.00, 
2380.00, 
2381.00, 
2382.00, 
2383.00, 
2384.00, 
2385.00, 
2386.00, 
2387.00, 
2388.00, 
2389.00, 
2390.00, 
2391.00, 
2392.00, 
2393.00, 
2394.00, 
2395.00, 
2396.00, 
2397.00, 
2398.00, 
2399.00, 
2400.00, 
2401.00, 
2402.00, 
2403.00, 
2404.00, 
2405.00, 
2406.00, 
2407.00, 
2408.00, 
2409.00, 
2410.00, 
2411.00, 
2412.00, 
2413.00, 
2414.00, 
2415.00, 
2416.00, 
2417.00, 
2418.00, 
2419.00, 
2420.00, 
2421.00, 
2422.00, 
2423.00, 
2424.00, 
2425.00, 
2426.00, 
2427.00, 
2428.00, 
2429.00, 
2430.00, 
2431.00, 
2432.00, 
2433.00, 
2434.00, 
2435.00, 
2436.00, 
2437.00, 
2438.00, 
2439.00, 
2440.00, 
2441.00, 
2442.00, 
2443.00, 
2444.00, 
2445.00, 
2446.00, 
2447.00, 
2448.00, 
2449.00, 
2450.00, 
2451.00, 
2452.00, 
2453.00, 
2454.00, 
2455.00, 
2456.00, 
2457.00, 
2458.00, 
2459.00, 
2460.00, 
2461.00, 
2462.00, 
2463.00, 
2464.00, 
2465.00, 
2466.00, 
2467.00, 
2468.00, 
2469.00, 
2470.00, 
2471.00, 
2472.00, 
2473.00, 
2474.00, 
2475.00, 
2476.00, 
2477.00, 
2478.00, 
2479.00, 
2480.00, 
2481.00, 
2482.00, 
2483.00, 
2484.00, 
2485.00, 
2486.00, 
2487.00, 
2488.00, 
2489.00, 
2490.00, 
2491.00, 
2492.00, 
2493.00, 
2494.00, 
2495.00, 
2496.00, 
2497.00, 
2498.00, 
2499.00, 
2500.00, 
2501.00, 
2502.00, 
2503.00, 
2504.00, 
2505.00, 
2506.00, 
2507.00, 
2508.00, 
2509.00, 
2510.00, 
2511.00, 
2512.00, 
2513.00, 
2514.00, 
2515.00, 
2516.00, 
2517.00, 
2518.00, 
2519.00, 
2520.00, 
2521.00, 
2522.00, 
2523.00, 
2524.00, 
2525.00, 
2526.00, 
2527.00, 
2528.00, 
2529.00, 
2530.00, 
2531.00, 
2532.00, 
2533.00, 
2534.00, 
2535.00, 
2536.00, 
2537.00, 
2538.00, 
2539.00, 
2540.00, 
2541.00, 
2542.00, 
2543.00, 
2544.00, 
2545.00, 
2546.00, 
2547.00, 
2548.00, 
2549.00, 
2550.00, 
2551.00, 
2552.00, 
2553.00, 
2554.00, 
2555.00, 
2556.00, 
2557.00, 
2558.00, 
2559.00, 
2560.00, 
2561.00, 
2562.00, 
2563.00, 
2564.00, 
2565.00, 
2566.00, 
2567.00, 
2568.00, 
2569.00, 
2570.00, 
2571.00, 
2572.00, 
2573.00, 
2574.00, 
2575.00, 
2576.00, 
2577.00, 
2578.00, 
2579.00, 
2580.00, 
2581.00, 
2582.00, 
2583.00, 
2584.00, 
2585.00, 
2586.00, 
2587.00, 
2588.00, 
2589.00, 
2590.00, 
2591.00, 
2592.00, 
2593.00, 
2594.00, 
2595.00, 
2596.00, 
2597.00, 
2598.00, 
2599.00, 
2600.00, 
