"2cP4 - RawData"
"Wavelength nm.","T%"
200.00,0.002
201.00,0.003
202.00,0.001
203.00,0.000
204.00,0.001
205.00,-0.000
206.00,0.001
207.00,0.001
208.00,0.003
209.00,0.002
210.00,0.005
211.00,0.000
212.00,0.002
213.00,-0.001
214.00,-0.000
215.00,0.000
216.00,0.001
217.00,-0.000
218.00,-0.001
219.00,-0.000
220.00,0.002
221.00,0.000
222.00,0.003
223.00,0.002
224.00,0.000
225.00,0.002
226.00,0.001
227.00,-0.000
228.00,0.000
229.00,-0.001
230.00,-0.000
231.00,0.000
232.00,0.001
233.00,0.001
234.00,-0.000
235.00,-0.000
236.00,0.001
237.00,0.002
238.00,0.000
239.00,0.000
240.00,0.002
241.00,-0.001
242.00,0.001
243.00,-0.001
244.00,0.001
245.00,-0.001
246.00,-0.000
247.00,-0.001
248.00,-0.001
249.00,0.001
250.00,-0.000
251.00,0.001
252.00,0.001
253.00,-0.000
254.00,0.001
255.00,0.000
256.00,-0.000
257.00,0.001
258.00,0.001
259.00,0.000
260.00,0.000
261.00,-0.000
262.00,0.001
263.00,0.001
264.00,0.001
265.00,-0.000
266.00,0.001
267.00,-0.001
268.00,0.000
269.00,0.001
270.00,-0.000
271.00,0.000
272.00,0.000
273.00,-0.000
274.00,0.000
275.00,0.000
276.00,0.000
277.00,0.000
278.00,0.000
279.00,0.000
280.00,0.000
281.00,0.000
282.00,-0.001
283.00,-0.001
284.00,0.001
285.00,-0.001
286.00,0.001
287.00,-0.000
288.00,0.002
289.00,0.001
290.00,-0.000
291.00,0.001
292.00,0.000
293.00,0.001
294.00,0.001
295.00,-0.000
296.00,0.001
297.00,-0.001
298.00,0.001
299.00,0.001
300.00,0.003
301.00,0.004
302.00,0.005
303.00,0.009
304.00,0.012
305.00,0.017
306.00,0.029
307.00,0.044
308.00,0.067
309.00,0.106
310.00,0.146
311.00,0.191
312.00,0.271
313.00,0.367
314.00,0.481
315.00,0.619
316.00,0.798
317.00,1.009
318.00,1.238
319.00,1.522
320.00,1.836
321.00,2.221
322.00,2.622
323.00,3.097
324.00,3.580
325.00,4.083
326.00,4.567
327.00,5.176
328.00,5.781
329.00,6.404
330.00,7.047
331.00,7.687
332.00,8.371
333.00,9.095
334.00,9.719
335.00,10.425
336.00,11.103
337.00,11.803
338.00,12.461
339.00,13.053
340.00,13.699
341.00,14.297
342.00,14.894
343.00,15.495
344.00,16.025
345.00,16.568
346.00,17.023
347.00,17.494
348.00,17.920
349.00,18.343
350.00,18.718
351.00,19.072
352.00,19.439
353.00,19.725
354.00,20.016
355.00,20.323
356.00,20.626
357.00,20.832
358.00,21.064
359.00,21.298
360.00,21.501
361.00,21.686
362.00,21.815
363.00,22.012
364.00,22.178
365.00,22.236
366.00,22.338
367.00,22.418
368.00,22.504
369.00,22.595
370.00,22.608
371.00,22.676
372.00,22.717
373.00,22.671
374.00,22.715
375.00,22.688
376.00,22.634
377.00,22.624
378.00,22.547
379.00,22.523
380.00,22.478
381.00,22.490
382.00,22.495
383.00,22.493
384.00,22.551
385.00,22.591
386.00,22.583
387.00,22.631
388.00,22.612
389.00,22.670
390.00,22.762
391.00,22.814
392.00,22.833
393.00,22.840
394.00,22.850
395.00,22.861
396.00,22.865
397.00,22.873
398.00,22.932
399.00,22.890
400.00,22.910
401.00,22.923
402.00,22.911
403.00,22.930
404.00,22.948
405.00,22.977
406.00,22.920
407.00,22.912
408.00,22.902
409.00,22.869
410.00,22.819
411.00,22.767
412.00,22.829
413.00,22.817
414.00,22.800
415.00,22.840
416.00,22.849
417.00,22.918
418.00,22.930
419.00,22.946
420.00,22.996
421.00,23.086
422.00,23.102
423.00,23.139
424.00,23.159
425.00,23.202
426.00,23.262
427.00,23.301
428.00,23.384
429.00,23.398
430.00,23.443
431.00,23.522
432.00,23.550
433.00,23.628
434.00,23.698
435.00,23.750
436.00,23.804
437.00,23.861
438.00,23.972
439.00,24.035
440.00,24.119
441.00,24.178
442.00,24.288
443.00,24.359
444.00,24.461
445.00,24.523
446.00,24.639
447.00,24.733
448.00,24.850
449.00,24.946
450.00,25.046
451.00,25.137
452.00,25.259
453.00,25.380
454.00,25.492
455.00,25.577
456.00,25.726
457.00,25.842
458.00,25.931
459.00,26.101
460.00,26.212
461.00,26.313
462.00,26.468
463.00,26.573
464.00,26.743
465.00,26.857
466.00,26.984
467.00,27.082
468.00,27.202
469.00,27.359
470.00,27.411
471.00,27.538
472.00,27.675
473.00,27.745
474.00,27.844
475.00,27.978
476.00,28.078
477.00,28.207
478.00,28.332
479.00,28.505
480.00,28.644
481.00,28.760
482.00,28.863
483.00,29.029
484.00,29.179
485.00,29.378
486.00,29.512
487.00,29.682
488.00,29.787
489.00,29.991
490.00,30.141
491.00,30.258
492.00,30.488
493.00,30.572
494.00,30.503
495.00,30.726
496.00,30.830
497.00,30.994
498.00,31.135
499.00,31.333
500.00,31.377
501.00,31.522
502.00,31.684
503.00,31.774
504.00,31.893
505.00,31.998
506.00,32.108
507.00,32.212
508.00,32.325
509.00,32.460
510.00,32.573
511.00,32.676
512.00,32.808
513.00,32.939
514.00,33.110
515.00,33.233
516.00,33.276
517.00,33.370
518.00,33.558
519.00,33.606
520.00,33.618
521.00,33.701
522.00,33.801
523.00,33.968
524.00,34.062
525.00,34.093
526.00,34.203
527.00,34.280
528.00,34.358
529.00,34.508
530.00,34.609
531.00,34.742
532.00,34.835
533.00,34.931
534.00,35.002
535.00,35.084
536.00,35.176
537.00,35.245
538.00,35.320
539.00,35.345
540.00,35.436
541.00,35.488
542.00,35.524
543.00,35.615
544.00,35.681
545.00,35.710
546.00,35.793
547.00,35.879
548.00,35.972
549.00,36.029
550.00,36.074
551.00,36.223
552.00,36.264
553.00,36.230
554.00,36.438
555.00,36.460
556.00,36.550
557.00,36.602
558.00,36.646
559.00,36.679
560.00,36.749
561.00,36.853
562.00,36.882
563.00,36.911
564.00,36.938
565.00,36.960
566.00,37.005
567.00,37.038
568.00,37.006
569.00,37.153
570.00,37.161
571.00,37.223
572.00,37.235
573.00,37.321
574.00,37.351
575.00,37.351
576.00,37.355
577.00,37.408
578.00,37.501
579.00,37.551
580.00,37.639
581.00,37.766
582.00,37.784
583.00,37.808
584.00,37.987
585.00,37.996
586.00,37.994
587.00,38.095
588.00,38.088
589.00,38.143
590.00,38.182
591.00,38.178
592.00,38.213
593.00,38.217
594.00,38.313
595.00,38.404
596.00,38.428
597.00,38.462
598.00,38.557
599.00,38.553
600.00,38.698
601.00,38.752
602.00,38.789
603.00,38.849
604.00,38.847
605.00,38.889
606.00,39.006
607.00,39.006
608.00,39.094
609.00,39.120
610.00,39.108
611.00,39.146
612.00,39.181
613.00,39.239
614.00,39.271
615.00,39.372
616.00,39.452
617.00,39.479
618.00,39.503
619.00,39.620
620.00,39.624
621.00,39.643
622.00,39.705
623.00,39.839
624.00,39.863
625.00,39.923
626.00,39.961
627.00,40.054
628.00,40.053
629.00,40.179
630.00,40.172
631.00,40.192
632.00,40.315
633.00,40.436
634.00,40.453
635.00,40.570
636.00,40.657
637.00,40.764
638.00,40.824
639.00,40.828
640.00,40.921
641.00,40.982
642.00,41.008
643.00,41.122
644.00,41.224
645.00,41.243
646.00,41.301
647.00,41.439
648.00,41.519
649.00,41.597
650.00,41.664
651.00,41.685
652.00,41.862
653.00,41.876
654.00,42.013
655.00,42.096
656.00,42.241
657.00,42.238
658.00,42.384
659.00,42.623
660.00,42.727
661.00,42.698
662.00,42.692
663.00,42.789
664.00,43.032
665.00,43.051
666.00,43.020
667.00,43.173
668.00,43.234
669.00,43.430
670.00,43.491
671.00,43.524
672.00,43.498
673.00,43.745
674.00,43.829
675.00,43.938
676.00,44.022
677.00,44.149
678.00,44.099
679.00,44.155
680.00,44.307
681.00,44.352
682.00,44.475
683.00,44.569
684.00,44.766
685.00,44.822
686.00,44.682
687.00,44.794
688.00,44.954
689.00,45.085
690.00,45.238
691.00,45.349
692.00,45.267
693.00,45.337
694.00,45.467
695.00,45.434
696.00,45.573
697.00,45.797
698.00,45.933
699.00,46.056
700.00,46.220
701.00,46.097
702.00,46.270
703.00,46.421
704.00,46.384
705.00,46.534
706.00,46.555
707.00,46.693
708.00,46.590
709.00,46.786
710.00,46.996
711.00,46.958
712.00,46.816
713.00,46.966
714.00,46.945
715.00,47.111
716.00,46.962
717.00,47.075
718.00,47.574
719.00,47.411
720.00,47.517
721.00,51.786
722.00,51.865
723.00,51.724
724.00,51.857
725.00,51.790
726.00,51.793
727.00,51.877
728.00,51.984
729.00,51.919
730.00,52.051
731.00,52.017
732.00,52.028
733.00,52.110
734.00,52.118
735.00,52.126
736.00,52.144
737.00,52.142
738.00,52.318
739.00,52.219
740.00,52.260
741.00,52.333
742.00,52.248
743.00,52.319
744.00,52.379
745.00,52.368
746.00,52.353
747.00,52.354
748.00,52.364
749.00,52.262
750.00,52.305
751.00,52.306
752.00,52.395
753.00,52.324
754.00,52.433
755.00,52.399
756.00,52.431
757.00,52.381
758.00,52.424
759.00,52.436
760.00,52.468
761.00,52.488
762.00,52.436
763.00,52.475
764.00,52.498
765.00,52.530
766.00,52.558
767.00,52.490
768.00,52.507
769.00,52.612
770.00,52.578
771.00,52.617
772.00,52.623
773.00,52.560
774.00,52.603
775.00,52.651
776.00,52.669
777.00,52.672
778.00,52.665
779.00,52.618
780.00,52.610
781.00,52.697
782.00,52.550
783.00,52.634
784.00,52.603
785.00,52.604
786.00,52.620
787.00,52.616
788.00,52.611
789.00,52.580
790.00,52.547
791.00,52.668
792.00,52.513
793.00,52.483
794.00,52.588
795.00,52.526
796.00,52.570
797.00,52.476
798.00,52.511
799.00,52.467
800.00,52.441
801.00,52.467
802.00,52.488
803.00,52.449
804.00,52.447
805.00,52.484
806.00,52.369
807.00,52.341
808.00,52.369
809.00,52.345
810.00,52.359
811.00,52.310
812.00,52.318
813.00,52.235
814.00,52.347
815.00,52.273
816.00,52.282
817.00,52.295
818.00,52.120
819.00,52.130
820.00,52.100
821.00,52.190
822.00,52.149
823.00,52.150
824.00,52.151
825.00,52.004
826.00,52.067
827.00,52.185
828.00,52.098
829.00,52.019
830.00,52.012
831.00,54.243
832.00,54.280
833.00,54.222
834.00,54.211
835.00,54.146
836.00,54.169
837.00,54.142
838.00,54.138
839.00,54.131
840.00,54.092
841.00,54.076
842.00,54.043
843.00,54.077
844.00,54.010
845.00,53.974
846.00,53.986
847.00,54.001
848.00,53.944
849.00,53.896
850.00,53.858
851.00,53.851
852.00,53.813
853.00,53.772
854.00,53.725
855.00,53.717
856.00,53.708
857.00,53.682
858.00,53.638
859.00,53.653
860.00,53.634
861.00,53.622
862.00,53.558
863.00,53.585
864.00,53.520
865.00,53.575
866.00,53.749
867.00,53.537
868.00,53.527
869.00,53.521
870.00,53.460
871.00,53.562
872.00,53.457
873.00,53.520
874.00,53.409
875.00,53.445
876.00,53.465
877.00,53.425
878.00,53.403
879.00,53.396
880.00,53.377
881.00,53.350
882.00,53.336
883.00,53.333
884.00,53.301
885.00,53.232
886.00,53.335
887.00,53.232
888.00,53.216
889.00,53.213
890.00,53.221
891.00,53.167
892.00,53.152
893.00,53.125
894.00,53.118
895.00,53.085
896.00,53.065
897.00,53.035
898.00,53.001
899.00,53.000
900.00,53.000
901.00,53.002
902.00,53.014
903.00,52.959
904.00,52.952
905.00,52.951
906.00,52.929
907.00,52.932
908.00,52.846
909.00,52.858
910.00,52.821
911.00,52.818
912.00,52.832
913.00,52.767
914.00,52.767
915.00,52.742
916.00,52.737
917.00,52.713
918.00,52.699
919.00,52.598
920.00,52.690
921.00,52.613
922.00,52.629
923.00,52.581
924.00,52.598
925.00,52.525
926.00,52.715
927.00,52.515
928.00,52.471
929.00,52.473
930.00,52.451
931.00,52.436
932.00,52.402
933.00,52.416
934.00,52.362
935.00,52.351
936.00,52.354
937.00,52.304
938.00,52.348
939.00,52.299
940.00,52.332
941.00,52.294
942.00,52.218
943.00,52.234
944.00,52.191
945.00,52.178
946.00,52.167
947.00,52.139
948.00,52.125
949.00,52.097
950.00,52.071
951.00,52.067
952.00,52.024
953.00,51.966
954.00,51.979
955.00,51.936
956.00,51.928
957.00,51.903
958.00,51.918
959.00,51.798
960.00,51.852
961.00,51.820
962.00,51.839
963.00,51.784
964.00,51.777
965.00,51.767
966.00,51.795
967.00,51.774
968.00,51.739
969.00,51.789
970.00,51.742
971.00,51.758
972.00,51.767
973.00,51.752
974.00,51.766
975.00,51.731
976.00,51.773
977.00,51.755
978.00,51.777
979.00,51.724
980.00,51.759
981.00,51.757
982.00,51.710
983.00,51.730
984.00,51.714
985.00,51.737
986.00,51.655
987.00,51.743
988.00,51.686
989.00,51.656
990.00,51.668
991.00,51.644
992.00,51.659
993.00,51.625
994.00,51.603
995.00,51.608
996.00,51.592
997.00,51.582
998.00,51.563
999.00,51.601
1000.00,51.517
1001.00,51.549
1002.00,51.533
1003.00,51.515
1004.00,51.495
1005.00,51.457
1006.00,51.487
1007.00,51.442
1008.00,51.430
1009.00,51.428
1010.00,51.419
1011.00,51.404
1012.00,51.372
1013.00,51.389
1014.00,51.329
1015.00,51.363
1016.00,51.304
1017.00,51.323
1018.00,51.301
1019.00,51.264
1020.00,51.281
1021.00,51.260
1022.00,51.260
1023.00,51.207
1024.00,51.198
1025.00,51.190
1026.00,51.195
1027.00,51.161
1028.00,51.148
1029.00,51.145
1030.00,51.107
1031.00,51.108
1032.00,51.067
1033.00,51.061
1034.00,51.036
1035.00,51.002
1036.00,50.984
1037.00,50.972
1038.00,50.951
1039.00,50.920
1040.00,50.941
1041.00,50.894
1042.00,50.898
1043.00,50.867
1044.00,50.883
1045.00,50.872
1046.00,50.868
1047.00,50.868
1048.00,50.888
1049.00,50.884
1050.00,50.904
1051.00,50.929
1052.00,50.923
1053.00,50.956
1054.00,50.944
1055.00,50.953
1056.00,50.968
1057.00,50.959
1058.00,50.942
1059.00,50.957
1060.00,50.943
1061.00,50.938
1062.00,50.922
1063.00,50.922
1064.00,50.917
1065.00,50.905
1066.00,50.891
1067.00,50.896
1068.00,50.911
1069.00,50.865
1070.00,50.863
1071.00,50.827
1072.00,50.858
1073.00,50.823
1074.00,50.818
1075.00,50.815
1076.00,50.807
1077.00,50.778
1078.00,50.786
1079.00,50.778
1080.00,50.764
1081.00,50.747
1082.00,50.732
1083.00,50.740
1084.00,50.732
1085.00,50.722
1086.00,50.725
1087.00,50.725
1088.00,50.686
1089.00,50.680
1090.00,50.671
1091.00,50.668
1092.00,50.659
1093.00,50.628
1094.00,50.638
1095.00,50.623
1096.00,50.600
1097.00,50.613
1098.00,50.612
1099.00,50.598
1100.00,50.599
1101.00,50.586
1102.00,50.563
1103.00,50.563
1104.00,50.545
1105.00,50.527
1106.00,50.515
1107.00,50.502
1108.00,50.507
1109.00,50.517
1110.00,50.488
1111.00,50.486
1112.00,50.476
1113.00,50.455
1114.00,50.461
1115.00,50.458
1116.00,50.455
1117.00,50.428
1118.00,50.421
1119.00,50.427
1120.00,50.419
1121.00,50.399
1122.00,50.402
1123.00,50.395
1124.00,50.381
1125.00,50.364
1126.00,50.369
1127.00,50.375
1128.00,50.359
1129.00,50.328
1130.00,50.342
1131.00,50.334
1132.00,50.311
1133.00,50.316
1134.00,50.321
1135.00,50.300
1136.00,50.305
1137.00,50.295
1138.00,50.292
1139.00,50.300
1140.00,50.274
1141.00,50.277
1142.00,50.272
1143.00,50.279
1144.00,50.269
1145.00,50.270
1146.00,50.248
1147.00,50.245
1148.00,50.230
1149.00,50.249
1150.00,50.240
1151.00,50.219
1152.00,50.211
1153.00,50.215
1154.00,50.205
1155.00,50.221
1156.00,50.191
1157.00,50.197
1158.00,50.199
1159.00,50.188
1160.00,50.186
1161.00,50.197
1162.00,50.173
1163.00,50.190
1164.00,50.203
1165.00,50.179
1166.00,50.184
1167.00,50.181
1168.00,50.191
1169.00,50.183
1170.00,50.173
1171.00,50.147
1172.00,50.168
1173.00,50.151
1174.00,50.175
1175.00,50.159
1176.00,50.142
1177.00,50.158
1178.00,50.150
1179.00,50.159
1180.00,50.151
1181.00,50.152
1182.00,50.142
1183.00,50.137
1184.00,50.121
1185.00,50.149
1186.00,50.135
1187.00,50.135
1188.00,50.131
1189.00,50.131
1190.00,50.120
1191.00,50.127
1192.00,50.132
1193.00,50.121
1194.00,50.132
1195.00,50.105
1196.00,50.144
1197.00,50.146
1198.00,50.117
1199.00,50.123
1200.00,50.124
1201.00,50.118
1202.00,50.101
1203.00,50.105
1204.00,50.097
1205.00,50.111
1206.00,50.087
1207.00,50.103
1208.00,50.091
1209.00,50.072
1210.00,50.092
1211.00,50.096
1212.00,50.101
1213.00,50.087
1214.00,50.084
1215.00,50.075
1216.00,50.077
1217.00,50.076
1218.00,50.067
1219.00,50.085
1220.00,50.065
1221.00,50.100
1222.00,50.084
1223.00,50.099
1224.00,50.106
1225.00,50.083
1226.00,50.097
1227.00,50.084
1228.00,50.098
1229.00,50.104
1230.00,50.130
1231.00,50.105
1232.00,50.132
1233.00,50.123
1234.00,50.128
1235.00,50.127
1236.00,50.114
1237.00,50.114
1238.00,50.122
1239.00,50.117
1240.00,50.115
1241.00,50.132
1242.00,50.114
1243.00,50.144
1244.00,50.124
1245.00,50.153
1246.00,50.161
1247.00,50.133
1248.00,50.136
1249.00,50.145
1250.00,50.147
1251.00,50.140
1252.00,50.156
1253.00,50.136
1254.00,50.171
1255.00,50.162
1256.00,50.136
1257.00,50.130
1258.00,50.153
1259.00,50.160
1260.00,50.180
1261.00,50.164
1262.00,50.168
1263.00,50.180
1264.00,50.174
1265.00,50.178
1266.00,50.182
1267.00,50.186
1268.00,50.204
1269.00,50.199
1270.00,50.218
1271.00,50.212
1272.00,50.211
1273.00,50.232
1274.00,50.245
1275.00,50.222
1276.00,50.257
1277.00,50.272
1278.00,50.260
1279.00,50.255
1280.00,50.242
1281.00,50.249
1282.00,50.265
1283.00,50.241
1284.00,50.252
1285.00,50.246
1286.00,50.252
1287.00,50.274
1288.00,50.284
1289.00,50.266
1290.00,50.294
1291.00,50.284
1292.00,50.296
1293.00,50.289
1294.00,50.300
1295.00,50.310
1296.00,50.315
1297.00,50.307
1298.00,50.343
1299.00,50.311
1300.00,50.312
1301.00,50.324
1302.00,50.321
1303.00,50.330
1304.00,50.319
1305.00,50.331
1306.00,50.351
1307.00,50.378
1308.00,50.361
1309.00,50.382
1310.00,50.380
1311.00,50.367
1312.00,50.369
1313.00,50.363
1314.00,50.389
1315.00,50.401
1316.00,50.392
1317.00,50.423
1318.00,50.408
1319.00,50.404
1320.00,50.437
1321.00,50.568
1322.00,50.582
1323.00,50.578
1324.00,50.567
1325.00,50.559
1326.00,50.589
1327.00,50.550
1328.00,50.570
1329.00,50.566
1330.00,50.560
1331.00,50.568
1332.00,50.560
1333.00,50.570
1334.00,50.615
1335.00,50.619
1336.00,50.641
1337.00,50.671
1338.00,50.722
1339.00,50.776
1340.00,50.829
1341.00,50.876
1342.00,50.957
1343.00,50.997
1344.00,51.051
1345.00,51.109
1346.00,51.159
1347.00,51.175
1348.00,51.206
1349.00,51.203
1350.00,51.240
1351.00,51.243
1352.00,51.259
1353.00,51.257
1354.00,51.271
1355.00,51.255
1356.00,51.271
1357.00,51.254
1358.00,51.285
1359.00,51.321
1360.00,51.291
1361.00,51.339
1362.00,51.232
1363.00,51.359
1364.00,51.321
1365.00,51.331
1366.00,51.500
1367.00,51.298
1368.00,51.244
1369.00,51.305
1370.00,51.275
1371.00,51.210
1372.00,51.251
1373.00,51.252
1374.00,51.248
1375.00,51.236
1376.00,51.236
1377.00,51.225
1378.00,51.294
1379.00,51.257
1380.00,51.260
1381.00,51.243
1382.00,51.234
1383.00,51.263
1384.00,51.205
1385.00,51.194
1386.00,51.247
1387.00,51.253
1388.00,51.202
1389.00,51.248
1390.00,51.261
1391.00,51.217
1392.00,51.243
1393.00,51.247
1394.00,51.258
1395.00,51.171
1396.00,51.164
1397.00,51.202
1398.00,51.300
1399.00,51.258
1400.00,51.207
1401.00,51.215
1402.00,51.278
1403.00,51.238
1404.00,51.231
1405.00,51.320
1406.00,51.278
1407.00,51.310
1408.00,51.335
1409.00,51.271
1410.00,51.309
1411.00,51.359
1412.00,51.462
1413.00,51.285
1414.00,51.288
1415.00,51.320
1416.00,51.365
1417.00,51.415
1418.00,51.335
1419.00,51.349
1420.00,51.381
1421.00,51.432
1422.00,51.426
1423.00,51.406
1424.00,51.443
1425.00,51.449
1426.00,51.450
1427.00,51.508
1428.00,51.509
1429.00,51.473
1430.00,51.503
1431.00,51.529
1432.00,51.526
1433.00,51.570
1434.00,51.534
1435.00,51.596
1436.00,51.600
1437.00,51.569
1438.00,51.610
1439.00,51.636
1440.00,51.646
1441.00,51.658
1442.00,51.639
1443.00,51.677
1444.00,51.727
1445.00,51.698
1446.00,51.704
1447.00,51.739
1448.00,51.755
1449.00,51.780
1450.00,51.777
1451.00,51.785
1452.00,51.813
1453.00,51.810
1454.00,51.838
1455.00,51.864
1456.00,51.871
1457.00,51.876
1458.00,51.907
1459.00,51.901
1460.00,51.929
1461.00,51.927
1462.00,51.937
1463.00,51.955
1464.00,51.969
1465.00,51.983
1466.00,52.007
1467.00,52.021
1468.00,52.075
1469.00,52.061
1470.00,52.051
1471.00,52.094
1472.00,52.096
1473.00,52.108
1474.00,52.143
1475.00,52.154
1476.00,52.163
1477.00,52.152
1478.00,52.181
1479.00,52.192
1480.00,52.195
1481.00,52.200
1482.00,52.230
1483.00,52.235
1484.00,52.235
1485.00,52.277
1486.00,52.261
1487.00,52.286
1488.00,52.299
1489.00,52.287
1490.00,52.309
1491.00,52.311
1492.00,52.329
1493.00,52.312
1494.00,52.346
1495.00,52.349
1496.00,52.369
1497.00,52.379
1498.00,52.379
1499.00,52.420
1500.00,52.430
1501.00, 
1502.00, 
1503.00, 
1504.00, 
1505.00, 
1506.00, 
1507.00, 
1508.00, 
1509.00, 
1510.00, 
1511.00, 
1512.00, 
1513.00, 
1514.00, 
1515.00, 
1516.00, 
1517.00, 
1518.00, 
1519.00, 
1520.00, 
1521.00, 
1522.00, 
1523.00, 
1524.00, 
1525.00, 
1526.00, 
1527.00, 
1528.00, 
1529.00, 
1530.00, 
1531.00, 
1532.00, 
1533.00, 
1534.00, 
1535.00, 
1536.00, 
1537.00, 
1538.00, 
1539.00, 
1540.00, 
1541.00, 
1542.00, 
1543.00, 
1544.00, 
1545.00, 
1546.00, 
1547.00, 
1548.00, 
1549.00, 
1550.00, 
1551.00, 
1552.00, 
1553.00, 
1554.00, 
1555.00, 
1556.00, 
1557.00, 
1558.00, 
1559.00, 
1560.00, 
1561.00, 
1562.00, 
1563.00, 
1564.00, 
1565.00, 
1566.00, 
1567.00, 
1568.00, 
1569.00, 
1570.00, 
1571.00, 
1572.00, 
1573.00, 
1574.00, 
1575.00, 
1576.00, 
1577.00, 
1578.00, 
1579.00, 
1580.00, 
1581.00, 
1582.00, 
1583.00, 
1584.00, 
1585.00, 
1586.00, 
1587.00, 
1588.00, 
1589.00, 
1590.00, 
1591.00, 
1592.00, 
1593.00, 
1594.00, 
1595.00, 
1596.00, 
1597.00, 
1598.00, 
1599.00, 
1600.00, 
1601.00, 
1602.00, 
1603.00, 
1604.00, 
1605.00, 
1606.00, 
1607.00, 
1608.00, 
1609.00, 
1610.00, 
1611.00, 
1612.00, 
1613.00, 
1614.00, 
1615.00, 
1616.00, 
1617.00, 
1618.00, 
1619.00, 
1620.00, 
1621.00, 
1622.00, 
1623.00, 
1624.00, 
1625.00, 
1626.00, 
1627.00, 
1628.00, 
1629.00, 
1630.00, 
1631.00, 
1632.00, 
1633.00, 
1634.00, 
1635.00, 
1636.00, 
1637.00, 
1638.00, 
1639.00, 
1640.00, 
1641.00, 
1642.00, 
1643.00, 
1644.00, 
1645.00, 
1646.00, 
1647.00, 
1648.00, 
1649.00, 
1650.00, 
1651.00, 
1652.00, 
1653.00, 
1654.00, 
1655.00, 
1656.00, 
1657.00, 
1658.00, 
1659.00, 
1660.00, 
1661.00, 
1662.00, 
1663.00, 
1664.00, 
1665.00, 
1666.00, 
1667.00, 
1668.00, 
1669.00, 
1670.00, 
1671.00, 
1672.00, 
1673.00, 
1674.00, 
1675.00, 
1676.00, 
1677.00, 
1678.00, 
1679.00, 
1680.00, 
1681.00, 
1682.00, 
1683.00, 
1684.00, 
1685.00, 
1686.00, 
1687.00, 
1688.00, 
1689.00, 
1690.00, 
1691.00, 
1692.00, 
1693.00, 
1694.00, 
1695.00, 
1696.00, 
1697.00, 
1698.00, 
1699.00, 
1700.00, 
1701.00, 
1702.00, 
1703.00, 
1704.00, 
1705.00, 
1706.00, 
1707.00, 
1708.00, 
1709.00, 
1710.00, 
1711.00, 
1712.00, 
1713.00, 
1714.00, 
1715.00, 
1716.00, 
1717.00, 
1718.00, 
1719.00, 
1720.00, 
1721.00, 
1722.00, 
1723.00, 
1724.00, 
1725.00, 
1726.00, 
1727.00, 
1728.00, 
1729.00, 
1730.00, 
1731.00, 
1732.00, 
1733.00, 
1734.00, 
1735.00, 
1736.00, 
1737.00, 
1738.00, 
1739.00, 
1740.00, 
1741.00, 
1742.00, 
1743.00, 
1744.00, 
1745.00, 
1746.00, 
1747.00, 
1748.00, 
1749.00, 
1750.00, 
1751.00, 
1752.00, 
1753.00, 
1754.00, 
1755.00, 
1756.00, 
1757.00, 
1758.00, 
1759.00, 
1760.00, 
1761.00, 
1762.00, 
1763.00, 
1764.00, 
1765.00, 
1766.00, 
1767.00, 
1768.00, 
1769.00, 
1770.00, 
1771.00, 
1772.00, 
1773.00, 
1774.00, 
1775.00, 
1776.00, 
1777.00, 
1778.00, 
1779.00, 
1780.00, 
1781.00, 
1782.00, 
1783.00, 
1784.00, 
1785.00, 
1786.00, 
1787.00, 
1788.00, 
1789.00, 
1790.00, 
1791.00, 
1792.00, 
1793.00, 
1794.00, 
1795.00, 
1796.00, 
1797.00, 
1798.00, 
1799.00, 
1800.00, 
1801.00, 
1802.00, 
1803.00, 
1804.00, 
1805.00, 
1806.00, 
1807.00, 
1808.00, 
1809.00, 
1810.00, 
1811.00, 
1812.00, 
1813.00, 
1814.00, 
1815.00, 
1816.00, 
1817.00, 
1818.00, 
1819.00, 
1820.00, 
1821.00, 
1822.00, 
1823.00, 
1824.00, 
1825.00, 
1826.00, 
1827.00, 
1828.00, 
1829.00, 
1830.00, 
1831.00, 
1832.00, 
1833.00, 
1834.00, 
1835.00, 
1836.00, 
1837.00, 
1838.00, 
1839.00, 
1840.00, 
1841.00, 
1842.00, 
1843.00, 
1844.00, 
1845.00, 
1846.00, 
1847.00, 
1848.00, 
1849.00, 
1850.00, 
1851.00, 
1852.00, 
1853.00, 
1854.00, 
1855.00, 
1856.00, 
1857.00, 
1858.00, 
1859.00, 
1860.00, 
1861.00, 
1862.00, 
1863.00, 
1864.00, 
1865.00, 
1866.00, 
1867.00, 
1868.00, 
1869.00, 
1870.00, 
1871.00, 
1872.00, 
1873.00, 
1874.00, 
1875.00, 
1876.00, 
1877.00, 
1878.00, 
1879.00, 
1880.00, 
1881.00, 
1882.00, 
1883.00, 
1884.00, 
1885.00, 
1886.00, 
1887.00, 
1888.00, 
1889.00, 
1890.00, 
1891.00, 
1892.00, 
1893.00, 
1894.00, 
1895.00, 
1896.00, 
1897.00, 
1898.00, 
1899.00, 
1900.00, 
1901.00, 
1902.00, 
1903.00, 
1904.00, 
1905.00, 
1906.00, 
1907.00, 
1908.00, 
1909.00, 
1910.00, 
1911.00, 
1912.00, 
1913.00, 
1914.00, 
1915.00, 
1916.00, 
1917.00, 
1918.00, 
1919.00, 
1920.00, 
1921.00, 
1922.00, 
1923.00, 
1924.00, 
1925.00, 
1926.00, 
1927.00, 
1928.00, 
1929.00, 
1930.00, 
1931.00, 
1932.00, 
1933.00, 
1934.00, 
1935.00, 
1936.00, 
1937.00, 
1938.00, 
1939.00, 
1940.00, 
1941.00, 
1942.00, 
1943.00, 
1944.00, 
1945.00, 
1946.00, 
1947.00, 
1948.00, 
1949.00, 
1950.00, 
1951.00, 
1952.00, 
1953.00, 
1954.00, 
1955.00, 
1956.00, 
1957.00, 
1958.00, 
1959.00, 
1960.00, 
1961.00, 
1962.00, 
1963.00, 
1964.00, 
1965.00, 
1966.00, 
1967.00, 
1968.00, 
1969.00, 
1970.00, 
1971.00, 
1972.00, 
1973.00, 
1974.00, 
1975.00, 
1976.00, 
1977.00, 
1978.00, 
1979.00, 
1980.00, 
1981.00, 
1982.00, 
1983.00, 
1984.00, 
1985.00, 
1986.00, 
1987.00, 
1988.00, 
1989.00, 
1990.00, 
1991.00, 
1992.00, 
1993.00, 
1994.00, 
1995.00, 
1996.00, 
1997.00, 
1998.00, 
1999.00, 
2000.00, 
2001.00, 
2002.00, 
2003.00, 
2004.00, 
2005.00, 
2006.00, 
2007.00, 
2008.00, 
2009.00, 
2010.00, 
2011.00, 
2012.00, 
2013.00, 
2014.00, 
2015.00, 
2016.00, 
2017.00, 
2018.00, 
2019.00, 
2020.00, 
2021.00, 
2022.00, 
2023.00, 
2024.00, 
2025.00, 
2026.00, 
2027.00, 
2028.00, 
2029.00, 
2030.00, 
2031.00, 
2032.00, 
2033.00, 
2034.00, 
2035.00, 
2036.00, 
2037.00, 
2038.00, 
2039.00, 
2040.00, 
2041.00, 
2042.00, 
2043.00, 
2044.00, 
2045.00, 
2046.00, 
2047.00, 
2048.00, 
2049.00, 
2050.00, 
2051.00, 
2052.00, 
2053.00, 
2054.00, 
2055.00, 
2056.00, 
2057.00, 
2058.00, 
2059.00, 
2060.00, 
2061.00, 
2062.00, 
2063.00, 
2064.00, 
2065.00, 
2066.00, 
2067.00, 
2068.00, 
2069.00, 
2070.00, 
2071.00, 
2072.00, 
2073.00, 
2074.00, 
2075.00, 
2076.00, 
2077.00, 
2078.00, 
2079.00, 
2080.00, 
2081.00, 
2082.00, 
2083.00, 
2084.00, 
2085.00, 
2086.00, 
2087.00, 
2088.00, 
2089.00, 
2090.00, 
2091.00, 
2092.00, 
2093.00, 
2094.00, 
2095.00, 
2096.00, 
2097.00, 
2098.00, 
2099.00, 
2100.00, 
2101.00, 
2102.00, 
2103.00, 
2104.00, 
2105.00, 
2106.00, 
2107.00, 
2108.00, 
2109.00, 
2110.00, 
2111.00, 
2112.00, 
2113.00, 
2114.00, 
2115.00, 
2116.00, 
2117.00, 
2118.00, 
2119.00, 
2120.00, 
2121.00, 
2122.00, 
2123.00, 
2124.00, 
2125.00, 
2126.00, 
2127.00, 
2128.00, 
2129.00, 
2130.00, 
2131.00, 
2132.00, 
2133.00, 
2134.00, 
2135.00, 
2136.00, 
2137.00, 
2138.00, 
2139.00, 
2140.00, 
2141.00, 
2142.00, 
2143.00, 
2144.00, 
2145.00, 
2146.00, 
2147.00, 
2148.00, 
2149.00, 
2150.00, 
2151.00, 
2152.00, 
2153.00, 
2154.00, 
2155.00, 
2156.00, 
2157.00, 
2158.00, 
2159.00, 
2160.00, 
2161.00, 
2162.00, 
2163.00, 
2164.00, 
2165.00, 
2166.00, 
2167.00, 
2168.00, 
2169.00, 
2170.00, 
2171.00, 
2172.00, 
2173.00, 
2174.00, 
2175.00, 
2176.00, 
2177.00, 
2178.00, 
2179.00, 
2180.00, 
2181.00, 
2182.00, 
2183.00, 
2184.00, 
2185.00, 
2186.00, 
2187.00, 
2188.00, 
2189.00, 
2190.00, 
2191.00, 
2192.00, 
2193.00, 
2194.00, 
2195.00, 
2196.00, 
2197.00, 
2198.00, 
2199.00, 
2200.00, 
2201.00, 
2202.00, 
2203.00, 
2204.00, 
2205.00, 
2206.00, 
2207.00, 
2208.00, 
2209.00, 
2210.00, 
2211.00, 
2212.00, 
2213.00, 
2214.00, 
2215.00, 
2216.00, 
2217.00, 
2218.00, 
2219.00, 
2220.00, 
2221.00, 
2222.00, 
2223.00, 
2224.00, 
2225.00, 
2226.00, 
2227.00, 
2228.00, 
2229.00, 
2230.00, 
2231.00, 
2232.00, 
2233.00, 
2234.00, 
2235.00, 
2236.00, 
2237.00, 
2238.00, 
2239.00, 
2240.00, 
2241.00, 
2242.00, 
2243.00, 
2244.00, 
2245.00, 
2246.00, 
2247.00, 
2248.00, 
2249.00, 
2250.00, 
2251.00, 
2252.00, 
2253.00, 
2254.00, 
2255.00, 
2256.00, 
2257.00, 
2258.00, 
2259.00, 
2260.00, 
2261.00, 
2262.00, 
2263.00, 
2264.00, 
2265.00, 
2266.00, 
2267.00, 
2268.00, 
2269.00, 
2270.00, 
2271.00, 
2272.00, 
2273.00, 
2274.00, 
2275.00, 
2276.00, 
2277.00, 
2278.00, 
2279.00, 
2280.00, 
2281.00, 
2282.00, 
2283.00, 
2284.00, 
2285.00, 
2286.00, 
2287.00, 
2288.00, 
2289.00, 
2290.00, 
2291.00, 
2292.00, 
2293.00, 
2294.00, 
2295.00, 
2296.00, 
2297.00, 
2298.00, 
2299.00, 
2300.00, 
2301.00, 
2302.00, 
2303.00, 
2304.00, 
2305.00, 
2306.00, 
2307.00, 
2308.00, 
2309.00, 
2310.00, 
2311.00, 
2312.00, 
2313.00, 
2314.00, 
2315.00, 
2316.00, 
2317.00, 
2318.00, 
2319.00, 
2320.00, 
2321.00, 
2322.00, 
2323.00, 
2324.00, 
2325.00, 
2326.00, 
2327.00, 
2328.00, 
2329.00, 
2330.00, 
2331.00, 
2332.00, 
2333.00, 
2334.00, 
2335.00, 
2336.00, 
2337.00, 
2338.00, 
2339.00, 
2340.00, 
2341.00, 
2342.00, 
2343.00, 
2344.00, 
2345.00, 
2346.00, 
2347.00, 
2348.00, 
2349.00, 
2350.00, 
2351.00, 
2352.00, 
2353.00, 
2354.00, 
2355.00, 
2356.00, 
2357.00, 
2358.00, 
2359.00, 
2360.00, 
2361.00, 
2362.00, 
2363.00, 
2364.00, 
2365.00, 
2366.00, 
2367.00, 
2368.00, 
2369.00, 
2370.00, 
2371.00, 
2372.00, 
2373.00, 
2374.00, 
2375.00, 
2376.00, 
2377.00, 
2378.00, 
2379.00, 
2380.00, 
2381.00, 
2382.00, 
2383.00, 
2384.00, 
2385.00, 
2386.00, 
2387.00, 
2388.00, 
2389.00, 
2390.00, 
2391.00, 
2392.00, 
2393.00, 
2394.00, 
2395.00, 
2396.00, 
2397.00, 
2398.00, 
2399.00, 
2400.00, 
2401.00, 
2402.00, 
2403.00, 
2404.00, 
2405.00, 
2406.00, 
2407.00, 
2408.00, 
2409.00, 
2410.00, 
2411.00, 
2412.00, 
2413.00, 
2414.00, 
2415.00, 
2416.00, 
2417.00, 
2418.00, 
2419.00, 
2420.00, 
2421.00, 
2422.00, 
2423.00, 
2424.00, 
2425.00, 
2426.00, 
2427.00, 
2428.00, 
2429.00, 
2430.00, 
2431.00, 
2432.00, 
2433.00, 
2434.00, 
2435.00, 
2436.00, 
2437.00, 
2438.00, 
2439.00, 
2440.00, 
2441.00, 
2442.00, 
2443.00, 
2444.00, 
2445.00, 
2446.00, 
2447.00, 
2448.00, 
2449.00, 
2450.00, 
2451.00, 
2452.00, 
2453.00, 
2454.00, 
2455.00, 
2456.00, 
2457.00, 
2458.00, 
2459.00, 
2460.00, 
2461.00, 
2462.00, 
2463.00, 
2464.00, 
2465.00, 
2466.00, 
2467.00, 
2468.00, 
2469.00, 
2470.00, 
2471.00, 
2472.00, 
2473.00, 
2474.00, 
2475.00, 
2476.00, 
2477.00, 
2478.00, 
2479.00, 
2480.00, 
2481.00, 
2482.00, 
2483.00, 
2484.00, 
2485.00, 
2486.00, 
2487.00, 
2488.00, 
2489.00, 
2490.00, 
2491.00, 
2492.00, 
2493.00, 
2494.00, 
2495.00, 
2496.00, 
2497.00, 
2498.00, 
2499.00, 
2500.00, 
2501.00, 
2502.00, 
2503.00, 
2504.00, 
2505.00, 
2506.00, 
2507.00, 
2508.00, 
2509.00, 
2510.00, 
2511.00, 
2512.00, 
2513.00, 
2514.00, 
2515.00, 
2516.00, 
2517.00, 
2518.00, 
2519.00, 
2520.00, 
2521.00, 
2522.00, 
2523.00, 
2524.00, 
2525.00, 
2526.00, 
2527.00, 
2528.00, 
2529.00, 
2530.00, 
2531.00, 
2532.00, 
2533.00, 
2534.00, 
2535.00, 
2536.00, 
2537.00, 
2538.00, 
2539.00, 
2540.00, 
2541.00, 
2542.00, 
2543.00, 
2544.00, 
2545.00, 
2546.00, 
2547.00, 
2548.00, 
2549.00, 
2550.00, 
2551.00, 
2552.00, 
2553.00, 
2554.00, 
2555.00, 
2556.00, 
2557.00, 
2558.00, 
2559.00, 
2560.00, 
2561.00, 
2562.00, 
2563.00, 
2564.00, 
2565.00, 
2566.00, 
2567.00, 
2568.00, 
2569.00, 
2570.00, 
2571.00, 
2572.00, 
2573.00, 
2574.00, 
2575.00, 
2576.00, 
2577.00, 
2578.00, 
2579.00, 
2580.00, 
2581.00, 
2582.00, 
2583.00, 
2584.00, 
2585.00, 
2586.00, 
2587.00, 
2588.00, 
2589.00, 
2590.00, 
2591.00, 
2592.00, 
2593.00, 
2594.00, 
2595.00, 
2596.00, 
2597.00, 
2598.00, 
2599.00, 
2600.00, 
