"2cP5 - RawData"
"Wavelength nm.","T%"
200.00,0.001
201.00,0.001
202.00,-0.000
203.00,0.002
204.00,0.003
205.00,0.001
206.00,0.001
207.00,-0.000
208.00,0.003
209.00,-0.000
210.00,0.002
211.00,0.003
212.00,0.001
213.00,0.001
214.00,0.001
215.00,0.002
216.00,-0.001
217.00,0.003
218.00,-0.002
219.00,-0.000
220.00,-0.001
221.00,-0.003
222.00,-0.000
223.00,-0.001
224.00,0.001
225.00,-0.001
226.00,0.003
227.00,-0.001
228.00,0.000
229.00,0.001
230.00,0.003
231.00,0.000
232.00,0.000
233.00,-0.001
234.00,0.001
235.00,-0.001
236.00,-0.000
237.00,0.000
238.00,0.000
239.00,0.002
240.00,0.001
241.00,0.001
242.00,0.002
243.00,0.001
244.00,-0.001
245.00,-0.000
246.00,-0.001
247.00,0.000
248.00,0.001
249.00,0.001
250.00,0.001
251.00,0.002
252.00,0.001
253.00,0.000
254.00,0.000
255.00,0.001
256.00,-0.000
257.00,0.001
258.00,-0.000
259.00,0.000
260.00,-0.001
261.00,-0.000
262.00,0.001
263.00,-0.001
264.00,0.002
265.00,0.001
266.00,0.002
267.00,-0.001
268.00,0.000
269.00,0.000
270.00,-0.000
271.00,0.001
272.00,0.000
273.00,0.000
274.00,0.001
275.00,0.001
276.00,0.000
277.00,-0.001
278.00,0.001
279.00,-0.001
280.00,-0.001
281.00,0.000
282.00,0.001
283.00,0.001
284.00,-0.002
285.00,-0.000
286.00,0.000
287.00,0.001
288.00,0.002
289.00,-0.000
290.00,-0.001
291.00,-0.000
292.00,-0.001
293.00,-0.001
294.00,-0.001
295.00,0.000
296.00,0.001
297.00,-0.000
298.00,0.001
299.00,0.001
300.00,0.003
301.00,0.003
302.00,0.005
303.00,0.007
304.00,0.010
305.00,0.016
306.00,0.025
307.00,0.039
308.00,0.061
309.00,0.098
310.00,0.136
311.00,0.184
312.00,0.248
313.00,0.339
314.00,0.445
315.00,0.573
316.00,0.726
317.00,0.925
318.00,1.141
319.00,1.398
320.00,1.719
321.00,2.060
322.00,2.427
323.00,2.853
324.00,3.343
325.00,3.776
326.00,4.257
327.00,4.804
328.00,5.386
329.00,5.927
330.00,6.538
331.00,7.132
332.00,7.787
333.00,8.421
334.00,9.012
335.00,9.644
336.00,10.271
337.00,10.920
338.00,11.578
339.00,12.122
340.00,12.719
341.00,13.289
342.00,13.842
343.00,14.323
344.00,14.840
345.00,15.333
346.00,15.796
347.00,16.189
348.00,16.597
349.00,16.990
350.00,17.349
351.00,17.637
352.00,17.969
353.00,18.252
354.00,18.543
355.00,18.813
356.00,19.074
357.00,19.244
358.00,19.445
359.00,19.657
360.00,19.893
361.00,20.038
362.00,20.185
363.00,20.311
364.00,20.435
365.00,20.510
366.00,20.595
367.00,20.664
368.00,20.735
369.00,20.741
370.00,20.853
371.00,20.882
372.00,20.848
373.00,20.842
374.00,20.887
375.00,20.863
376.00,20.818
377.00,20.789
378.00,20.700
379.00,20.649
380.00,20.661
381.00,20.620
382.00,20.633
383.00,20.660
384.00,20.648
385.00,20.691
386.00,20.665
387.00,20.761
388.00,20.799
389.00,20.778
390.00,20.841
391.00,20.873
392.00,20.879
393.00,20.872
394.00,20.908
395.00,20.933
396.00,20.877
397.00,20.915
398.00,20.916
399.00,20.932
400.00,20.920
401.00,20.954
402.00,20.943
403.00,20.948
404.00,20.949
405.00,20.947
406.00,20.903
407.00,20.925
408.00,20.924
409.00,20.864
410.00,20.794
411.00,20.787
412.00,20.770
413.00,20.785
414.00,20.757
415.00,20.795
416.00,20.879
417.00,20.862
418.00,20.877
419.00,20.927
420.00,21.008
421.00,21.028
422.00,21.059
423.00,21.091
424.00,21.135
425.00,21.164
426.00,21.202
427.00,21.260
428.00,21.311
429.00,21.325
430.00,21.383
431.00,21.447
432.00,21.502
433.00,21.552
434.00,21.627
435.00,21.703
436.00,21.763
437.00,21.810
438.00,21.876
439.00,21.944
440.00,22.030
441.00,22.123
442.00,22.223
443.00,22.286
444.00,22.380
445.00,22.416
446.00,22.584
447.00,22.660
448.00,22.779
449.00,22.904
450.00,22.993
451.00,23.091
452.00,23.190
453.00,23.328
454.00,23.425
455.00,23.497
456.00,23.675
457.00,23.788
458.00,23.870
459.00,24.033
460.00,24.163
461.00,24.281
462.00,24.389
463.00,24.540
464.00,24.680
465.00,24.801
466.00,24.939
467.00,25.057
468.00,25.214
469.00,25.284
470.00,25.371
471.00,25.496
472.00,25.627
473.00,25.696
474.00,25.810
475.00,25.952
476.00,26.052
477.00,26.159
478.00,26.319
479.00,26.525
480.00,26.632
481.00,26.741
482.00,26.891
483.00,27.031
484.00,27.232
485.00,27.381
486.00,27.517
487.00,27.711
488.00,27.844
489.00,27.918
490.00,28.167
491.00,28.210
492.00,28.499
493.00,28.661
494.00,28.645
495.00,28.805
496.00,28.909
497.00,29.058
498.00,29.206
499.00,29.364
500.00,29.506
501.00,29.626
502.00,29.768
503.00,29.871
504.00,29.936
505.00,30.081
506.00,30.211
507.00,30.326
508.00,30.459
509.00,30.611
510.00,30.743
511.00,30.776
512.00,30.997
513.00,31.155
514.00,31.238
515.00,31.333
516.00,31.491
517.00,31.440
518.00,31.705
519.00,31.794
520.00,31.811
521.00,31.946
522.00,32.062
523.00,32.124
524.00,32.205
525.00,32.322
526.00,32.419
527.00,32.471
528.00,32.563
529.00,32.726
530.00,32.897
531.00,32.990
532.00,33.092
533.00,33.181
534.00,33.273
535.00,33.389
536.00,33.425
537.00,33.505
538.00,33.613
539.00,33.604
540.00,33.753
541.00,33.780
542.00,33.802
543.00,33.914
544.00,34.017
545.00,34.069
546.00,34.123
547.00,34.256
548.00,34.340
549.00,34.396
550.00,34.450
551.00,34.542
552.00,34.648
553.00,34.669
554.00,34.745
555.00,34.789
556.00,34.931
557.00,34.954
558.00,34.984
559.00,35.037
560.00,35.123
561.00,35.192
562.00,35.250
563.00,35.277
564.00,35.306
565.00,35.323
566.00,35.331
567.00,35.335
568.00,35.394
569.00,35.425
570.00,35.492
571.00,35.622
572.00,35.544
573.00,35.473
574.00,35.574
575.00,35.677
576.00,35.646
577.00,35.774
578.00,35.923
579.00,35.949
580.00,35.978
581.00,36.117
582.00,36.187
583.00,36.211
584.00,36.305
585.00,36.365
586.00,36.368
587.00,36.446
588.00,36.489
589.00,36.473
590.00,36.576
591.00,36.623
592.00,36.594
593.00,36.643
594.00,36.733
595.00,36.801
596.00,36.856
597.00,36.918
598.00,37.008
599.00,37.031
600.00,37.057
601.00,37.027
602.00,37.048
603.00,37.143
604.00,37.153
605.00,37.089
606.00,37.302
607.00,37.356
608.00,37.442
609.00,37.530
610.00,37.379
611.00,37.471
612.00,37.533
613.00,37.612
614.00,37.619
615.00,37.684
616.00,37.799
617.00,37.830
618.00,37.823
619.00,37.918
620.00,37.994
621.00,38.012
622.00,38.062
623.00,38.159
624.00,38.253
625.00,38.254
626.00,38.228
627.00,38.397
628.00,38.443
629.00,38.539
630.00,38.550
631.00,38.580
632.00,38.708
633.00,38.805
634.00,38.855
635.00,38.954
636.00,39.044
637.00,39.090
638.00,39.152
639.00,39.271
640.00,39.326
641.00,39.329
642.00,39.389
643.00,39.458
644.00,39.548
645.00,39.617
646.00,39.700
647.00,39.811
648.00,39.905
649.00,39.949
650.00,40.018
651.00,40.131
652.00,40.263
653.00,40.275
654.00,40.280
655.00,40.499
656.00,40.724
657.00,40.580
658.00,40.744
659.00,41.070
660.00,40.439
661.00,41.011
662.00,41.066
663.00,41.155
664.00,41.422
665.00,41.535
666.00,41.484
667.00,41.645
668.00,41.681
669.00,41.780
670.00,42.078
671.00,41.987
672.00,42.054
673.00,42.181
674.00,42.306
675.00,42.349
676.00,42.570
677.00,42.710
678.00,42.594
679.00,42.714
680.00,42.848
681.00,42.940
682.00,43.006
683.00,43.066
684.00,43.287
685.00,43.369
686.00,43.282
687.00,43.377
688.00,43.461
689.00,43.591
690.00,43.759
691.00,44.049
692.00,43.911
693.00,44.018
694.00,44.147
695.00,44.274
696.00,44.425
697.00,44.410
698.00,44.427
699.00,44.704
700.00,44.852
701.00,44.736
702.00,44.814
703.00,45.130
704.00,45.093
705.00,45.151
706.00,45.202
707.00,45.278
708.00,45.115
709.00,45.515
710.00,45.963
711.00,45.578
712.00,45.582
713.00,45.703
714.00,45.861
715.00,45.890
716.00,45.937
717.00,46.062
718.00,46.242
719.00,46.266
720.00,46.314
721.00,50.714
722.00,50.832
723.00,50.728
724.00,50.876
725.00,50.828
726.00,50.907
727.00,50.937
728.00,51.002
729.00,50.984
730.00,51.077
731.00,51.080
732.00,51.081
733.00,51.163
734.00,51.177
735.00,51.261
736.00,51.274
737.00,51.258
738.00,51.507
739.00,51.345
740.00,51.418
741.00,51.451
742.00,51.461
743.00,51.453
744.00,51.547
745.00,51.538
746.00,51.614
747.00,51.607
748.00,51.553
749.00,51.535
750.00,51.605
751.00,51.560
752.00,51.663
753.00,51.648
754.00,51.817
755.00,51.705
756.00,51.741
757.00,51.715
758.00,51.778
759.00,51.746
760.00,51.786
761.00,51.880
762.00,51.791
763.00,51.848
764.00,51.884
765.00,51.890
766.00,51.976
767.00,51.926
768.00,51.968
769.00,52.010
770.00,51.978
771.00,51.974
772.00,52.080
773.00,52.011
774.00,52.052
775.00,52.070
776.00,52.060
777.00,52.083
778.00,52.116
779.00,52.128
780.00,52.082
781.00,52.122
782.00,52.024
783.00,52.067
784.00,52.066
785.00,52.102
786.00,52.150
787.00,52.140
788.00,52.130
789.00,52.145
790.00,52.066
791.00,52.100
792.00,52.101
793.00,52.065
794.00,52.055
795.00,52.179
796.00,52.049
797.00,52.020
798.00,52.058
799.00,52.074
800.00,51.939
801.00,52.017
802.00,52.056
803.00,51.986
804.00,51.964
805.00,51.971
806.00,51.893
807.00,51.855
808.00,51.974
809.00,51.891
810.00,51.921
811.00,51.954
812.00,51.972
813.00,51.844
814.00,51.907
815.00,51.865
816.00,51.923
817.00,51.886
818.00,51.709
819.00,51.848
820.00,51.691
821.00,51.842
822.00,51.820
823.00,51.736
824.00,51.773
825.00,51.697
826.00,51.626
827.00,51.828
828.00,51.723
829.00,51.671
830.00,51.621
831.00,53.893
832.00,53.918
833.00,53.876
834.00,53.889
835.00,53.815
836.00,53.808
837.00,53.814
838.00,53.806
839.00,53.768
840.00,53.717
841.00,53.733
842.00,53.721
843.00,53.718
844.00,53.683
845.00,53.660
846.00,53.692
847.00,53.661
848.00,53.647
849.00,53.566
850.00,53.553
851.00,53.508
852.00,53.498
853.00,53.467
854.00,53.450
855.00,53.427
856.00,53.394
857.00,53.404
858.00,53.351
859.00,53.360
860.00,53.329
861.00,53.333
862.00,53.253
863.00,53.306
864.00,53.230
865.00,53.261
866.00,53.236
867.00,53.254
868.00,53.227
869.00,53.218
870.00,53.237
871.00,53.206
872.00,53.199
873.00,53.214
874.00,53.130
875.00,53.143
876.00,53.206
877.00,53.146
878.00,53.072
879.00,53.240
880.00,53.081
881.00,53.079
882.00,53.077
883.00,53.047
884.00,53.017
885.00,52.998
886.00,53.006
887.00,52.955
888.00,52.979
889.00,52.940
890.00,52.962
891.00,52.930
892.00,52.892
893.00,52.805
894.00,52.920
895.00,52.831
896.00,52.815
897.00,52.776
898.00,52.754
899.00,52.763
900.00,52.736
901.00,52.759
902.00,52.772
903.00,52.716
904.00,52.705
905.00,52.695
906.00,52.667
907.00,52.683
908.00,52.614
909.00,52.627
910.00,52.597
911.00,52.579
912.00,52.599
913.00,52.551
914.00,52.502
915.00,52.495
916.00,52.475
917.00,52.443
918.00,52.382
919.00,52.492
920.00,52.362
921.00,52.401
922.00,52.382
923.00,52.354
924.00,52.341
925.00,52.334
926.00,52.313
927.00,52.323
928.00,52.236
929.00,52.255
930.00,52.230
931.00,52.238
932.00,52.167
933.00,52.171
934.00,52.295
935.00,52.130
936.00,52.085
937.00,52.080
938.00,52.080
939.00,52.086
940.00,52.028
941.00,52.043
942.00,52.006
943.00,52.005
944.00,51.966
945.00,51.968
946.00,51.954
947.00,51.909
948.00,51.886
949.00,51.907
950.00,51.864
951.00,51.832
952.00,51.823
953.00,51.765
954.00,51.777
955.00,51.712
956.00,51.690
957.00,51.664
958.00,51.705
959.00,51.568
960.00,51.624
961.00,51.609
962.00,51.622
963.00,51.575
964.00,51.561
965.00,51.569
966.00,51.559
967.00,51.553
968.00,51.527
969.00,51.569
970.00,51.522
971.00,51.540
972.00,51.488
973.00,51.525
974.00,51.555
975.00,51.508
976.00,51.538
977.00,51.518
978.00,51.565
979.00,51.503
980.00,51.528
981.00,51.544
982.00,51.488
983.00,51.525
984.00,51.484
985.00,51.519
986.00,51.464
987.00,51.480
988.00,51.463
989.00,51.458
990.00,51.450
991.00,51.430
992.00,51.454
993.00,51.423
994.00,51.405
995.00,51.395
996.00,51.383
997.00,51.383
998.00,51.356
999.00,51.385
1000.00,51.328
1001.00,51.325
1002.00,51.307
1003.00,51.296
1004.00,51.283
1005.00,51.233
1006.00,51.265
1007.00,51.238
1008.00,51.233
1009.00,51.208
1010.00,51.217
1011.00,51.256
1012.00,51.167
1013.00,51.191
1014.00,51.134
1015.00,51.162
1016.00,51.112
1017.00,51.103
1018.00,51.105
1019.00,51.050
1020.00,51.070
1021.00,51.056
1022.00,51.043
1023.00,51.008
1024.00,50.981
1025.00,50.972
1026.00,50.977
1027.00,50.939
1028.00,50.915
1029.00,50.925
1030.00,50.886
1031.00,50.898
1032.00,50.864
1033.00,50.846
1034.00,50.836
1035.00,50.792
1036.00,50.766
1037.00,50.761
1038.00,50.741
1039.00,50.706
1040.00,50.727
1041.00,50.684
1042.00,50.664
1043.00,50.649
1044.00,50.660
1045.00,50.648
1046.00,50.624
1047.00,50.635
1048.00,50.653
1049.00,50.660
1050.00,50.665
1051.00,50.712
1052.00,50.708
1053.00,50.732
1054.00,50.754
1055.00,50.736
1056.00,50.756
1057.00,50.752
1058.00,50.738
1059.00,50.736
1060.00,50.730
1061.00,50.701
1062.00,50.700
1063.00,50.695
1064.00,50.697
1065.00,50.691
1066.00,50.676
1067.00,50.678
1068.00,50.704
1069.00,50.645
1070.00,50.635
1071.00,50.604
1072.00,50.627
1073.00,50.609
1074.00,50.604
1075.00,50.582
1076.00,50.580
1077.00,50.561
1078.00,50.561
1079.00,50.564
1080.00,50.545
1081.00,50.548
1082.00,50.539
1083.00,50.531
1084.00,50.509
1085.00,50.513
1086.00,50.513
1087.00,50.521
1088.00,50.492
1089.00,50.485
1090.00,50.470
1091.00,50.465
1092.00,50.458
1093.00,50.434
1094.00,50.422
1095.00,50.425
1096.00,50.402
1097.00,50.418
1098.00,50.418
1099.00,50.396
1100.00,50.396
1101.00,50.389
1102.00,50.359
1103.00,50.371
1104.00,50.349
1105.00,50.332
1106.00,50.323
1107.00,50.306
1108.00,50.295
1109.00,50.299
1110.00,50.281
1111.00,50.280
1112.00,50.267
1113.00,50.263
1114.00,50.267
1115.00,50.263
1116.00,50.242
1117.00,50.234
1118.00,50.228
1119.00,50.221
1120.00,50.219
1121.00,50.208
1122.00,50.200
1123.00,50.196
1124.00,50.170
1125.00,50.186
1126.00,50.183
1127.00,50.177
1128.00,50.171
1129.00,50.153
1130.00,50.147
1131.00,50.148
1132.00,50.132
1133.00,50.118
1134.00,50.113
1135.00,50.089
1136.00,50.095
1137.00,50.088
1138.00,50.079
1139.00,50.083
1140.00,50.059
1141.00,50.078
1142.00,50.066
1143.00,50.078
1144.00,50.060
1145.00,50.052
1146.00,50.023
1147.00,50.034
1148.00,50.049
1149.00,50.038
1150.00,50.052
1151.00,50.023
1152.00,49.994
1153.00,50.021
1154.00,49.995
1155.00,50.000
1156.00,49.984
1157.00,49.990
1158.00,50.010
1159.00,49.993
1160.00,50.008
1161.00,50.016
1162.00,50.008
1163.00,50.018
1164.00,50.004
1165.00,49.985
1166.00,49.989
1167.00,49.980
1168.00,49.986
1169.00,49.986
1170.00,49.973
1171.00,49.948
1172.00,49.973
1173.00,49.958
1174.00,49.975
1175.00,49.971
1176.00,49.960
1177.00,49.963
1178.00,49.961
1179.00,49.957
1180.00,49.957
1181.00,49.970
1182.00,49.960
1183.00,49.956
1184.00,49.942
1185.00,49.957
1186.00,49.950
1187.00,49.945
1188.00,49.944
1189.00,49.938
1190.00,49.920
1191.00,49.920
1192.00,49.933
1193.00,49.916
1194.00,49.932
1195.00,49.902
1196.00,49.933
1197.00,49.943
1198.00,49.911
1199.00,49.915
1200.00,49.911
1201.00,49.924
1202.00,49.908
1203.00,49.899
1204.00,49.892
1205.00,49.914
1206.00,49.912
1207.00,49.916
1208.00,49.916
1209.00,49.920
1210.00,49.902
1211.00,49.897
1212.00,49.892
1213.00,49.871
1214.00,49.885
1215.00,49.862
1216.00,49.882
1217.00,49.880
1218.00,49.866
1219.00,49.889
1220.00,49.873
1221.00,49.901
1222.00,49.887
1223.00,49.906
1224.00,49.924
1225.00,49.886
1226.00,49.894
1227.00,49.877
1228.00,49.897
1229.00,49.909
1230.00,49.938
1231.00,49.903
1232.00,49.918
1233.00,49.919
1234.00,49.921
1235.00,49.929
1236.00,49.923
1237.00,49.918
1238.00,49.934
1239.00,49.938
1240.00,49.927
1241.00,49.940
1242.00,49.930
1243.00,49.956
1244.00,49.931
1245.00,49.940
1246.00,49.967
1247.00,49.931
1248.00,49.921
1249.00,49.933
1250.00,49.932
1251.00,49.921
1252.00,49.957
1253.00,49.946
1254.00,49.978
1255.00,49.971
1256.00,49.940
1257.00,49.955
1258.00,49.987
1259.00,49.975
1260.00,50.002
1261.00,49.996
1262.00,49.987
1263.00,50.001
1264.00,49.993
1265.00,49.992
1266.00,49.989
1267.00,50.003
1268.00,50.019
1269.00,50.011
1270.00,50.013
1271.00,50.025
1272.00,50.014
1273.00,50.026
1274.00,50.022
1275.00,50.023
1276.00,50.031
1277.00,50.043
1278.00,50.037
1279.00,50.040
1280.00,50.024
1281.00,50.034
1282.00,50.055
1283.00,50.035
1284.00,50.030
1285.00,50.049
1286.00,50.058
1287.00,50.069
1288.00,50.071
1289.00,50.039
1290.00,50.083
1291.00,50.071
1292.00,50.068
1293.00,50.083
1294.00,50.098
1295.00,50.099
1296.00,50.109
1297.00,50.113
1298.00,50.141
1299.00,50.121
1300.00,50.136
1301.00,50.140
1302.00,50.143
1303.00,50.141
1304.00,50.141
1305.00,50.147
1306.00,50.162
1307.00,50.182
1308.00,50.155
1309.00,50.160
1310.00,50.168
1311.00,50.164
1312.00,50.174
1313.00,50.171
1314.00,50.181
1315.00,50.207
1316.00,50.188
1317.00,50.221
1318.00,50.231
1319.00,50.219
1320.00,50.244
1321.00,50.397
1322.00,50.396
1323.00,50.397
1324.00,50.378
1325.00,50.357
1326.00,50.379
1327.00,50.370
1328.00,50.402
1329.00,50.326
1330.00,50.373
1331.00,50.381
1332.00,50.374
1333.00,50.391
1334.00,50.409
1335.00,50.431
1336.00,50.444
1337.00,50.486
1338.00,50.534
1339.00,50.585
1340.00,50.654
1341.00,50.699
1342.00,50.764
1343.00,50.808
1344.00,50.855
1345.00,50.915
1346.00,50.952
1347.00,50.969
1348.00,51.011
1349.00,51.011
1350.00,51.028
1351.00,51.049
1352.00,51.048
1353.00,51.076
1354.00,51.066
1355.00,51.056
1356.00,51.088
1357.00,51.065
1358.00,51.029
1359.00,51.123
1360.00,51.096
1361.00,51.138
1362.00,51.030
1363.00,51.181
1364.00,51.201
1365.00,51.126
1366.00,51.172
1367.00,51.076
1368.00,51.053
1369.00,51.123
1370.00,51.089
1371.00,51.040
1372.00,51.047
1373.00,51.070
1374.00,51.068
1375.00,51.048
1376.00,51.037
1377.00,51.063
1378.00,51.042
1379.00,51.047
1380.00,51.032
1381.00,51.058
1382.00,51.037
1383.00,51.038
1384.00,50.985
1385.00,51.048
1386.00,51.059
1387.00,51.098
1388.00,50.957
1389.00,50.987
1390.00,50.755
1391.00,51.073
1392.00,51.048
1393.00,51.004
1394.00,51.057
1395.00,51.014
1396.00,50.939
1397.00,50.950
1398.00,51.081
1399.00,51.093
1400.00,51.005
1401.00,50.990
1402.00,51.039
1403.00,51.024
1404.00,51.018
1405.00,51.079
1406.00,51.059
1407.00,51.074
1408.00,51.154
1409.00,51.040
1410.00,51.098
1411.00,51.099
1412.00,51.151
1413.00,51.089
1414.00,51.084
1415.00,51.132
1416.00,51.144
1417.00,51.169
1418.00,51.133
1419.00,51.144
1420.00,51.183
1421.00,51.232
1422.00,51.214
1423.00,51.232
1424.00,51.243
1425.00,51.261
1426.00,51.249
1427.00,51.286
1428.00,51.294
1429.00,51.277
1430.00,51.301
1431.00,51.330
1432.00,51.323
1433.00,51.355
1434.00,51.320
1435.00,51.367
1436.00,51.398
1437.00,51.372
1438.00,51.403
1439.00,51.432
1440.00,51.427
1441.00,51.426
1442.00,51.444
1443.00,51.469
1444.00,51.482
1445.00,51.479
1446.00,51.514
1447.00,51.544
1448.00,51.551
1449.00,51.560
1450.00,51.559
1451.00,51.564
1452.00,51.599
1453.00,51.614
1454.00,51.636
1455.00,51.656
1456.00,51.684
1457.00,51.673
1458.00,51.718
1459.00,51.704
1460.00,51.726
1461.00,51.728
1462.00,51.744
1463.00,51.756
1464.00,51.754
1465.00,51.781
1466.00,51.784
1467.00,51.784
1468.00,51.847
1469.00,51.831
1470.00,51.832
1471.00,51.859
1472.00,51.876
1473.00,51.872
1474.00,51.901
1475.00,51.918
1476.00,51.936
1477.00,51.924
1478.00,51.946
1479.00,51.967
1480.00,51.973
1481.00,51.975
1482.00,51.999
1483.00,52.010
1484.00,52.019
1485.00,52.047
1486.00,52.042
1487.00,52.069
1488.00,52.097
1489.00,52.097
1490.00,52.109
1491.00,52.125
1492.00,52.137
1493.00,52.096
1494.00,52.136
1495.00,52.127
1496.00,52.144
1497.00,52.154
1498.00,52.164
1499.00,52.191
1500.00,52.208
1501.00, 
1502.00, 
1503.00, 
1504.00, 
1505.00, 
1506.00, 
1507.00, 
1508.00, 
1509.00, 
1510.00, 
1511.00, 
1512.00, 
1513.00, 
1514.00, 
1515.00, 
1516.00, 
1517.00, 
1518.00, 
1519.00, 
1520.00, 
1521.00, 
1522.00, 
1523.00, 
1524.00, 
1525.00, 
1526.00, 
1527.00, 
1528.00, 
1529.00, 
1530.00, 
1531.00, 
1532.00, 
1533.00, 
1534.00, 
1535.00, 
1536.00, 
1537.00, 
1538.00, 
1539.00, 
1540.00, 
1541.00, 
1542.00, 
1543.00, 
1544.00, 
1545.00, 
1546.00, 
1547.00, 
1548.00, 
1549.00, 
1550.00, 
1551.00, 
1552.00, 
1553.00, 
1554.00, 
1555.00, 
1556.00, 
1557.00, 
1558.00, 
1559.00, 
1560.00, 
1561.00, 
1562.00, 
1563.00, 
1564.00, 
1565.00, 
1566.00, 
1567.00, 
1568.00, 
1569.00, 
1570.00, 
1571.00, 
1572.00, 
1573.00, 
1574.00, 
1575.00, 
1576.00, 
1577.00, 
1578.00, 
1579.00, 
1580.00, 
1581.00, 
1582.00, 
1583.00, 
1584.00, 
1585.00, 
1586.00, 
1587.00, 
1588.00, 
1589.00, 
1590.00, 
1591.00, 
1592.00, 
1593.00, 
1594.00, 
1595.00, 
1596.00, 
1597.00, 
1598.00, 
1599.00, 
1600.00, 
1601.00, 
1602.00, 
1603.00, 
1604.00, 
1605.00, 
1606.00, 
1607.00, 
1608.00, 
1609.00, 
1610.00, 
1611.00, 
1612.00, 
1613.00, 
1614.00, 
1615.00, 
1616.00, 
1617.00, 
1618.00, 
1619.00, 
1620.00, 
1621.00, 
1622.00, 
1623.00, 
1624.00, 
1625.00, 
1626.00, 
1627.00, 
1628.00, 
1629.00, 
1630.00, 
1631.00, 
1632.00, 
1633.00, 
1634.00, 
1635.00, 
1636.00, 
1637.00, 
1638.00, 
1639.00, 
1640.00, 
1641.00, 
1642.00, 
1643.00, 
1644.00, 
1645.00, 
1646.00, 
1647.00, 
1648.00, 
1649.00, 
1650.00, 
1651.00, 
1652.00, 
1653.00, 
1654.00, 
1655.00, 
1656.00, 
1657.00, 
1658.00, 
1659.00, 
1660.00, 
1661.00, 
1662.00, 
1663.00, 
1664.00, 
1665.00, 
1666.00, 
1667.00, 
1668.00, 
1669.00, 
1670.00, 
1671.00, 
1672.00, 
1673.00, 
1674.00, 
1675.00, 
1676.00, 
1677.00, 
1678.00, 
1679.00, 
1680.00, 
1681.00, 
1682.00, 
1683.00, 
1684.00, 
1685.00, 
1686.00, 
1687.00, 
1688.00, 
1689.00, 
1690.00, 
1691.00, 
1692.00, 
1693.00, 
1694.00, 
1695.00, 
1696.00, 
1697.00, 
1698.00, 
1699.00, 
1700.00, 
1701.00, 
1702.00, 
1703.00, 
1704.00, 
1705.00, 
1706.00, 
1707.00, 
1708.00, 
1709.00, 
1710.00, 
1711.00, 
1712.00, 
1713.00, 
1714.00, 
1715.00, 
1716.00, 
1717.00, 
1718.00, 
1719.00, 
1720.00, 
1721.00, 
1722.00, 
1723.00, 
1724.00, 
1725.00, 
1726.00, 
1727.00, 
1728.00, 
1729.00, 
1730.00, 
1731.00, 
1732.00, 
1733.00, 
1734.00, 
1735.00, 
1736.00, 
1737.00, 
1738.00, 
1739.00, 
1740.00, 
1741.00, 
1742.00, 
1743.00, 
1744.00, 
1745.00, 
1746.00, 
1747.00, 
1748.00, 
1749.00, 
1750.00, 
1751.00, 
1752.00, 
1753.00, 
1754.00, 
1755.00, 
1756.00, 
1757.00, 
1758.00, 
1759.00, 
1760.00, 
1761.00, 
1762.00, 
1763.00, 
1764.00, 
1765.00, 
1766.00, 
1767.00, 
1768.00, 
1769.00, 
1770.00, 
1771.00, 
1772.00, 
1773.00, 
1774.00, 
1775.00, 
1776.00, 
1777.00, 
1778.00, 
1779.00, 
1780.00, 
1781.00, 
1782.00, 
1783.00, 
1784.00, 
1785.00, 
1786.00, 
1787.00, 
1788.00, 
1789.00, 
1790.00, 
1791.00, 
1792.00, 
1793.00, 
1794.00, 
1795.00, 
1796.00, 
1797.00, 
1798.00, 
1799.00, 
1800.00, 
1801.00, 
1802.00, 
1803.00, 
1804.00, 
1805.00, 
1806.00, 
1807.00, 
1808.00, 
1809.00, 
1810.00, 
1811.00, 
1812.00, 
1813.00, 
1814.00, 
1815.00, 
1816.00, 
1817.00, 
1818.00, 
1819.00, 
1820.00, 
1821.00, 
1822.00, 
1823.00, 
1824.00, 
1825.00, 
1826.00, 
1827.00, 
1828.00, 
1829.00, 
1830.00, 
1831.00, 
1832.00, 
1833.00, 
1834.00, 
1835.00, 
1836.00, 
1837.00, 
1838.00, 
1839.00, 
1840.00, 
1841.00, 
1842.00, 
1843.00, 
1844.00, 
1845.00, 
1846.00, 
1847.00, 
1848.00, 
1849.00, 
1850.00, 
1851.00, 
1852.00, 
1853.00, 
1854.00, 
1855.00, 
1856.00, 
1857.00, 
1858.00, 
1859.00, 
1860.00, 
1861.00, 
1862.00, 
1863.00, 
1864.00, 
1865.00, 
1866.00, 
1867.00, 
1868.00, 
1869.00, 
1870.00, 
1871.00, 
1872.00, 
1873.00, 
1874.00, 
1875.00, 
1876.00, 
1877.00, 
1878.00, 
1879.00, 
1880.00, 
1881.00, 
1882.00, 
1883.00, 
1884.00, 
1885.00, 
1886.00, 
1887.00, 
1888.00, 
1889.00, 
1890.00, 
1891.00, 
1892.00, 
1893.00, 
1894.00, 
1895.00, 
1896.00, 
1897.00, 
1898.00, 
1899.00, 
1900.00, 
1901.00, 
1902.00, 
1903.00, 
1904.00, 
1905.00, 
1906.00, 
1907.00, 
1908.00, 
1909.00, 
1910.00, 
1911.00, 
1912.00, 
1913.00, 
1914.00, 
1915.00, 
1916.00, 
1917.00, 
1918.00, 
1919.00, 
1920.00, 
1921.00, 
1922.00, 
1923.00, 
1924.00, 
1925.00, 
1926.00, 
1927.00, 
1928.00, 
1929.00, 
1930.00, 
1931.00, 
1932.00, 
1933.00, 
1934.00, 
1935.00, 
1936.00, 
1937.00, 
1938.00, 
1939.00, 
1940.00, 
1941.00, 
1942.00, 
1943.00, 
1944.00, 
1945.00, 
1946.00, 
1947.00, 
1948.00, 
1949.00, 
1950.00, 
1951.00, 
1952.00, 
1953.00, 
1954.00, 
1955.00, 
1956.00, 
1957.00, 
1958.00, 
1959.00, 
1960.00, 
1961.00, 
1962.00, 
1963.00, 
1964.00, 
1965.00, 
1966.00, 
1967.00, 
1968.00, 
1969.00, 
1970.00, 
1971.00, 
1972.00, 
1973.00, 
1974.00, 
1975.00, 
1976.00, 
1977.00, 
1978.00, 
1979.00, 
1980.00, 
1981.00, 
1982.00, 
1983.00, 
1984.00, 
1985.00, 
1986.00, 
1987.00, 
1988.00, 
1989.00, 
1990.00, 
1991.00, 
1992.00, 
1993.00, 
1994.00, 
1995.00, 
1996.00, 
1997.00, 
1998.00, 
1999.00, 
2000.00, 
2001.00, 
2002.00, 
2003.00, 
2004.00, 
2005.00, 
2006.00, 
2007.00, 
2008.00, 
2009.00, 
2010.00, 
2011.00, 
2012.00, 
2013.00, 
2014.00, 
2015.00, 
2016.00, 
2017.00, 
2018.00, 
2019.00, 
2020.00, 
2021.00, 
2022.00, 
2023.00, 
2024.00, 
2025.00, 
2026.00, 
2027.00, 
2028.00, 
2029.00, 
2030.00, 
2031.00, 
2032.00, 
2033.00, 
2034.00, 
2035.00, 
2036.00, 
2037.00, 
2038.00, 
2039.00, 
2040.00, 
2041.00, 
2042.00, 
2043.00, 
2044.00, 
2045.00, 
2046.00, 
2047.00, 
2048.00, 
2049.00, 
2050.00, 
2051.00, 
2052.00, 
2053.00, 
2054.00, 
2055.00, 
2056.00, 
2057.00, 
2058.00, 
2059.00, 
2060.00, 
2061.00, 
2062.00, 
2063.00, 
2064.00, 
2065.00, 
2066.00, 
2067.00, 
2068.00, 
2069.00, 
2070.00, 
2071.00, 
2072.00, 
2073.00, 
2074.00, 
2075.00, 
2076.00, 
2077.00, 
2078.00, 
2079.00, 
2080.00, 
2081.00, 
2082.00, 
2083.00, 
2084.00, 
2085.00, 
2086.00, 
2087.00, 
2088.00, 
2089.00, 
2090.00, 
2091.00, 
2092.00, 
2093.00, 
2094.00, 
2095.00, 
2096.00, 
2097.00, 
2098.00, 
2099.00, 
2100.00, 
2101.00, 
2102.00, 
2103.00, 
2104.00, 
2105.00, 
2106.00, 
2107.00, 
2108.00, 
2109.00, 
2110.00, 
2111.00, 
2112.00, 
2113.00, 
2114.00, 
2115.00, 
2116.00, 
2117.00, 
2118.00, 
2119.00, 
2120.00, 
2121.00, 
2122.00, 
2123.00, 
2124.00, 
2125.00, 
2126.00, 
2127.00, 
2128.00, 
2129.00, 
2130.00, 
2131.00, 
2132.00, 
2133.00, 
2134.00, 
2135.00, 
2136.00, 
2137.00, 
2138.00, 
2139.00, 
2140.00, 
2141.00, 
2142.00, 
2143.00, 
2144.00, 
2145.00, 
2146.00, 
2147.00, 
2148.00, 
2149.00, 
2150.00, 
2151.00, 
2152.00, 
2153.00, 
2154.00, 
2155.00, 
2156.00, 
2157.00, 
2158.00, 
2159.00, 
2160.00, 
2161.00, 
2162.00, 
2163.00, 
2164.00, 
2165.00, 
2166.00, 
2167.00, 
2168.00, 
2169.00, 
2170.00, 
2171.00, 
2172.00, 
2173.00, 
2174.00, 
2175.00, 
2176.00, 
2177.00, 
2178.00, 
2179.00, 
2180.00, 
2181.00, 
2182.00, 
2183.00, 
2184.00, 
2185.00, 
2186.00, 
2187.00, 
2188.00, 
2189.00, 
2190.00, 
2191.00, 
2192.00, 
2193.00, 
2194.00, 
2195.00, 
2196.00, 
2197.00, 
2198.00, 
2199.00, 
2200.00, 
2201.00, 
2202.00, 
2203.00, 
2204.00, 
2205.00, 
2206.00, 
2207.00, 
2208.00, 
2209.00, 
2210.00, 
2211.00, 
2212.00, 
2213.00, 
2214.00, 
2215.00, 
2216.00, 
2217.00, 
2218.00, 
2219.00, 
2220.00, 
2221.00, 
2222.00, 
2223.00, 
2224.00, 
2225.00, 
2226.00, 
2227.00, 
2228.00, 
2229.00, 
2230.00, 
2231.00, 
2232.00, 
2233.00, 
2234.00, 
2235.00, 
2236.00, 
2237.00, 
2238.00, 
2239.00, 
2240.00, 
2241.00, 
2242.00, 
2243.00, 
2244.00, 
2245.00, 
2246.00, 
2247.00, 
2248.00, 
2249.00, 
2250.00, 
2251.00, 
2252.00, 
2253.00, 
2254.00, 
2255.00, 
2256.00, 
2257.00, 
2258.00, 
2259.00, 
2260.00, 
2261.00, 
2262.00, 
2263.00, 
2264.00, 
2265.00, 
2266.00, 
2267.00, 
2268.00, 
2269.00, 
2270.00, 
2271.00, 
2272.00, 
2273.00, 
2274.00, 
2275.00, 
2276.00, 
2277.00, 
2278.00, 
2279.00, 
2280.00, 
2281.00, 
2282.00, 
2283.00, 
2284.00, 
2285.00, 
2286.00, 
2287.00, 
2288.00, 
2289.00, 
2290.00, 
2291.00, 
2292.00, 
2293.00, 
2294.00, 
2295.00, 
2296.00, 
2297.00, 
2298.00, 
2299.00, 
2300.00, 
2301.00, 
2302.00, 
2303.00, 
2304.00, 
2305.00, 
2306.00, 
2307.00, 
2308.00, 
2309.00, 
2310.00, 
2311.00, 
2312.00, 
2313.00, 
2314.00, 
2315.00, 
2316.00, 
2317.00, 
2318.00, 
2319.00, 
2320.00, 
2321.00, 
2322.00, 
2323.00, 
2324.00, 
2325.00, 
2326.00, 
2327.00, 
2328.00, 
2329.00, 
2330.00, 
2331.00, 
2332.00, 
2333.00, 
2334.00, 
2335.00, 
2336.00, 
2337.00, 
2338.00, 
2339.00, 
2340.00, 
2341.00, 
2342.00, 
2343.00, 
2344.00, 
2345.00, 
2346.00, 
2347.00, 
2348.00, 
2349.00, 
2350.00, 
2351.00, 
2352.00, 
2353.00, 
2354.00, 
2355.00, 
2356.00, 
2357.00, 
2358.00, 
2359.00, 
2360.00, 
2361.00, 
2362.00, 
2363.00, 
2364.00, 
2365.00, 
2366.00, 
2367.00, 
2368.00, 
2369.00, 
2370.00, 
2371.00, 
2372.00, 
2373.00, 
2374.00, 
2375.00, 
2376.00, 
2377.00, 
2378.00, 
2379.00, 
2380.00, 
2381.00, 
2382.00, 
2383.00, 
2384.00, 
2385.00, 
2386.00, 
2387.00, 
2388.00, 
2389.00, 
2390.00, 
2391.00, 
2392.00, 
2393.00, 
2394.00, 
2395.00, 
2396.00, 
2397.00, 
2398.00, 
2399.00, 
2400.00, 
2401.00, 
2402.00, 
2403.00, 
2404.00, 
2405.00, 
2406.00, 
2407.00, 
2408.00, 
2409.00, 
2410.00, 
2411.00, 
2412.00, 
2413.00, 
2414.00, 
2415.00, 
2416.00, 
2417.00, 
2418.00, 
2419.00, 
2420.00, 
2421.00, 
2422.00, 
2423.00, 
2424.00, 
2425.00, 
2426.00, 
2427.00, 
2428.00, 
2429.00, 
2430.00, 
2431.00, 
2432.00, 
2433.00, 
2434.00, 
2435.00, 
2436.00, 
2437.00, 
2438.00, 
2439.00, 
2440.00, 
2441.00, 
2442.00, 
2443.00, 
2444.00, 
2445.00, 
2446.00, 
2447.00, 
2448.00, 
2449.00, 
2450.00, 
2451.00, 
2452.00, 
2453.00, 
2454.00, 
2455.00, 
2456.00, 
2457.00, 
2458.00, 
2459.00, 
2460.00, 
2461.00, 
2462.00, 
2463.00, 
2464.00, 
2465.00, 
2466.00, 
2467.00, 
2468.00, 
2469.00, 
2470.00, 
2471.00, 
2472.00, 
2473.00, 
2474.00, 
2475.00, 
2476.00, 
2477.00, 
2478.00, 
2479.00, 
2480.00, 
2481.00, 
2482.00, 
2483.00, 
2484.00, 
2485.00, 
2486.00, 
2487.00, 
2488.00, 
2489.00, 
2490.00, 
2491.00, 
2492.00, 
2493.00, 
2494.00, 
2495.00, 
2496.00, 
2497.00, 
2498.00, 
2499.00, 
2500.00, 
2501.00, 
2502.00, 
2503.00, 
2504.00, 
2505.00, 
2506.00, 
2507.00, 
2508.00, 
2509.00, 
2510.00, 
2511.00, 
2512.00, 
2513.00, 
2514.00, 
2515.00, 
2516.00, 
2517.00, 
2518.00, 
2519.00, 
2520.00, 
2521.00, 
2522.00, 
2523.00, 
2524.00, 
2525.00, 
2526.00, 
2527.00, 
2528.00, 
2529.00, 
2530.00, 
2531.00, 
2532.00, 
2533.00, 
2534.00, 
2535.00, 
2536.00, 
2537.00, 
2538.00, 
2539.00, 
2540.00, 
2541.00, 
2542.00, 
2543.00, 
2544.00, 
2545.00, 
2546.00, 
2547.00, 
2548.00, 
2549.00, 
2550.00, 
2551.00, 
2552.00, 
2553.00, 
2554.00, 
2555.00, 
2556.00, 
2557.00, 
2558.00, 
2559.00, 
2560.00, 
2561.00, 
2562.00, 
2563.00, 
2564.00, 
2565.00, 
2566.00, 
2567.00, 
2568.00, 
2569.00, 
2570.00, 
2571.00, 
2572.00, 
2573.00, 
2574.00, 
2575.00, 
2576.00, 
2577.00, 
2578.00, 
2579.00, 
2580.00, 
2581.00, 
2582.00, 
2583.00, 
2584.00, 
2585.00, 
2586.00, 
2587.00, 
2588.00, 
2589.00, 
2590.00, 
2591.00, 
2592.00, 
2593.00, 
2594.00, 
2595.00, 
2596.00, 
2597.00, 
2598.00, 
2599.00, 
2600.00, 
