"1aP2 - RawData"
"Wavelength nm.","T%"
200.00,0.003
201.00,0.001
202.00,0.002
203.00,-0.000
204.00,0.000
205.00,0.001
206.00,0.001
207.00,0.005
208.00,0.000
209.00,0.003
210.00,0.002
211.00,-0.003
212.00,-0.001
213.00,-0.000
214.00,0.001
215.00,0.001
216.00,0.002
217.00,0.000
218.00,0.000
219.00,0.000
220.00,-0.001
221.00,0.000
222.00,-0.001
223.00,0.001
224.00,-0.002
225.00,-0.000
226.00,-0.001
227.00,-0.001
228.00,-0.001
229.00,0.001
230.00,0.001
231.00,0.003
232.00,0.003
233.00,0.001
234.00,0.000
235.00,0.001
236.00,0.001
237.00,0.001
238.00,0.001
239.00,0.002
240.00,0.000
241.00,0.002
242.00,0.001
243.00,0.001
244.00,-0.000
245.00,0.001
246.00,0.001
247.00,-0.001
248.00,0.002
249.00,0.001
250.00,-0.001
251.00,-0.001
252.00,0.002
253.00,-0.001
254.00,0.001
255.00,0.000
256.00,-0.001
257.00,-0.001
258.00,0.000
259.00,0.001
260.00,-0.000
261.00,0.000
262.00,-0.001
263.00,0.001
264.00,-0.001
265.00,0.000
266.00,0.001
267.00,-0.000
268.00,0.001
269.00,-0.000
270.00,0.000
271.00,-0.001
272.00,0.000
273.00,-0.000
274.00,0.001
275.00,-0.001
276.00,-0.000
277.00,0.001
278.00,0.002
279.00,0.001
280.00,0.001
281.00,0.001
282.00,0.000
283.00,0.002
284.00,-0.000
285.00,-0.000
286.00,0.000
287.00,-0.000
288.00,0.000
289.00,0.002
290.00,0.001
291.00,-0.000
292.00,0.002
293.00,-0.000
294.00,-0.000
295.00,0.001
296.00,0.001
297.00,0.002
298.00,-0.000
299.00,0.004
300.00,0.004
301.00,0.005
302.00,0.007
303.00,0.012
304.00,0.019
305.00,0.029
306.00,0.043
307.00,0.069
308.00,0.105
309.00,0.159
310.00,0.221
311.00,0.298
312.00,0.404
313.00,0.545
314.00,0.714
315.00,0.924
316.00,1.172
317.00,1.481
318.00,1.792
319.00,2.184
320.00,2.644
321.00,3.119
322.00,3.685
323.00,4.307
324.00,4.935
325.00,5.597
326.00,6.275
327.00,6.991
328.00,7.787
329.00,8.555
330.00,9.354
331.00,10.141
332.00,10.930
333.00,11.785
334.00,12.571
335.00,13.394
336.00,14.192
337.00,14.974
338.00,15.762
339.00,16.451
340.00,17.195
341.00,17.862
342.00,18.506
343.00,19.159
344.00,19.744
345.00,20.393
346.00,20.871
347.00,21.393
348.00,21.767
349.00,22.280
350.00,22.695
351.00,23.107
352.00,23.408
353.00,23.806
354.00,24.055
355.00,24.368
356.00,24.659
357.00,24.921
358.00,25.096
359.00,25.327
360.00,25.554
361.00,25.671
362.00,25.890
363.00,26.065
364.00,26.178
365.00,26.284
366.00,26.368
367.00,26.444
368.00,26.522
369.00,26.528
370.00,26.603
371.00,26.608
372.00,26.559
373.00,26.530
374.00,26.563
375.00,26.507
376.00,26.472
377.00,26.468
378.00,26.356
379.00,26.296
380.00,26.278
381.00,26.219
382.00,26.222
383.00,26.237
384.00,26.260
385.00,26.301
386.00,26.281
387.00,26.359
388.00,26.420
389.00,26.419
390.00,26.418
391.00,26.500
392.00,26.497
393.00,26.527
394.00,26.522
395.00,26.548
396.00,26.537
397.00,26.567
398.00,26.587
399.00,26.568
400.00,26.589
401.00,26.564
402.00,26.576
403.00,26.533
404.00,26.535
405.00,26.476
406.00,26.524
407.00,26.474
408.00,26.460
409.00,26.441
410.00,26.320
411.00,26.354
412.00,26.305
413.00,26.382
414.00,26.351
415.00,26.448
416.00,26.375
417.00,26.367
418.00,26.397
419.00,26.473
420.00,26.494
421.00,26.534
422.00,26.610
423.00,26.641
424.00,26.645
425.00,26.706
426.00,26.743
427.00,26.811
428.00,26.830
429.00,26.841
430.00,26.895
431.00,26.959
432.00,27.011
433.00,27.080
434.00,27.108
435.00,27.177
436.00,27.267
437.00,27.311
438.00,27.385
439.00,27.440
440.00,27.491
441.00,27.600
442.00,27.676
443.00,27.720
444.00,27.833
445.00,27.838
446.00,28.054
447.00,28.130
448.00,28.199
449.00,28.339
450.00,28.461
451.00,28.521
452.00,28.643
453.00,28.757
454.00,28.888
455.00,28.971
456.00,29.100
457.00,29.213
458.00,29.275
459.00,29.423
460.00,29.541
461.00,29.681
462.00,29.842
463.00,29.930
464.00,30.091
465.00,30.168
466.00,30.279
467.00,30.444
468.00,30.573
469.00,30.727
470.00,30.760
471.00,30.895
472.00,31.001
473.00,31.066
474.00,31.159
475.00,31.315
476.00,31.395
477.00,31.511
478.00,31.634
479.00,31.791
480.00,31.927
481.00,32.043
482.00,32.216
483.00,32.343
484.00,32.464
485.00,32.644
486.00,32.795
487.00,32.961
488.00,33.090
489.00,33.256
490.00,33.353
491.00,33.487
492.00,33.684
493.00,33.858
494.00,33.862
495.00,33.981
496.00,34.129
497.00,34.279
498.00,34.378
499.00,34.544
500.00,34.608
501.00,34.690
502.00,34.844
503.00,34.953
504.00,35.012
505.00,35.183
506.00,35.382
507.00,35.480
508.00,35.465
509.00,35.658
510.00,35.687
511.00,35.913
512.00,36.028
513.00,36.078
514.00,36.272
515.00,36.378
516.00,36.453
517.00,36.533
518.00,36.609
519.00,36.744
520.00,36.879
521.00,36.916
522.00,36.998
523.00,37.071
524.00,37.089
525.00,37.243
526.00,37.316
527.00,37.368
528.00,37.472
529.00,37.617
530.00,37.682
531.00,37.880
532.00,37.924
533.00,38.021
534.00,38.107
535.00,38.200
536.00,38.255
537.00,38.346
538.00,38.399
539.00,38.497
540.00,38.482
541.00,38.553
542.00,38.636
543.00,38.626
544.00,38.733
545.00,38.762
546.00,38.786
547.00,38.922
548.00,39.012
549.00,39.021
550.00,39.109
551.00,39.184
552.00,39.292
553.00,39.319
554.00,39.408
555.00,39.415
556.00,39.493
557.00,39.499
558.00,39.576
559.00,39.667
560.00,39.719
561.00,39.812
562.00,39.851
563.00,39.868
564.00,39.859
565.00,39.892
566.00,39.932
567.00,39.888
568.00,40.041
569.00,40.058
570.00,40.009
571.00,40.148
572.00,40.085
573.00,40.003
574.00,40.208
575.00,40.222
576.00,40.154
577.00,40.177
578.00,40.304
579.00,40.388
580.00,40.459
581.00,40.615
582.00,40.647
583.00,40.668
584.00,40.749
585.00,40.781
586.00,40.800
587.00,40.843
588.00,40.895
589.00,40.902
590.00,40.894
591.00,40.976
592.00,40.859
593.00,40.895
594.00,41.094
595.00,41.112
596.00,41.161
597.00,41.243
598.00,41.265
599.00,41.300
600.00,41.382
601.00,41.398
602.00,41.430
603.00,41.500
604.00,41.485
605.00,41.554
606.00,41.560
607.00,41.537
608.00,41.646
609.00,41.726
610.00,41.688
611.00,41.683
612.00,41.735
613.00,41.767
614.00,41.837
615.00,41.916
616.00,41.972
617.00,42.011
618.00,42.051
619.00,42.093
620.00,42.113
621.00,42.192
622.00,42.198
623.00,42.275
624.00,42.341
625.00,42.402
626.00,42.415
627.00,42.509
628.00,42.497
629.00,42.504
630.00,42.588
631.00,42.618
632.00,42.667
633.00,42.703
634.00,42.808
635.00,42.904
636.00,43.007
637.00,43.079
638.00,43.160
639.00,43.193
640.00,43.275
641.00,43.303
642.00,43.350
643.00,43.463
644.00,43.542
645.00,43.581
646.00,43.685
647.00,43.681
648.00,43.803
649.00,43.877
650.00,43.858
651.00,43.909
652.00,43.999
653.00,44.164
654.00,44.127
655.00,44.143
656.00,44.346
657.00,44.506
658.00,44.373
659.00,44.700
660.00,44.731
661.00,44.408
662.00,44.281
663.00,44.819
664.00,45.027
665.00,45.131
666.00,45.099
667.00,45.377
668.00,45.228
669.00,45.375
670.00,45.639
671.00,45.563
672.00,45.533
673.00,45.766
674.00,45.877
675.00,45.882
676.00,46.087
677.00,46.079
678.00,45.882
679.00,46.056
680.00,46.278
681.00,46.312
682.00,46.433
683.00,46.524
684.00,46.680
685.00,46.754
686.00,46.659
687.00,46.760
688.00,46.862
689.00,46.890
690.00,46.993
691.00,47.135
692.00,47.189
693.00,47.115
694.00,47.163
695.00,47.327
696.00,47.537
697.00,47.580
698.00,47.712
699.00,47.816
700.00,47.686
701.00,47.800
702.00,47.989
703.00,48.004
704.00,48.138
705.00,47.912
706.00,48.227
707.00,48.129
708.00,48.151
709.00,48.602
710.00,48.481
711.00,48.316
712.00,48.472
713.00,48.500
714.00,48.603
715.00,48.738
716.00,48.608
717.00,48.868
718.00,48.813
719.00,48.847
720.00,49.054
721.00,53.247
722.00,53.289
723.00,53.255
724.00,53.253
725.00,53.210
726.00,53.335
727.00,53.311
728.00,53.375
729.00,53.381
730.00,53.441
731.00,53.415
732.00,53.457
733.00,53.516
734.00,53.466
735.00,53.556
736.00,53.603
737.00,53.497
738.00,53.619
739.00,53.555
740.00,53.614
741.00,53.673
742.00,53.630
743.00,53.683
744.00,53.694
745.00,53.705
746.00,53.690
747.00,53.747
748.00,53.692
749.00,53.693
750.00,53.681
751.00,53.581
752.00,53.593
753.00,53.559
754.00,53.656
755.00,53.614
756.00,53.691
757.00,53.668
758.00,53.695
759.00,53.739
760.00,53.700
761.00,53.660
762.00,53.713
763.00,53.743
764.00,53.764
765.00,53.678
766.00,53.760
767.00,53.796
768.00,53.710
769.00,53.732
770.00,53.827
771.00,53.779
772.00,53.905
773.00,53.792
774.00,53.832
775.00,53.741
776.00,53.797
777.00,53.802
778.00,53.779
779.00,53.861
780.00,53.782
781.00,53.796
782.00,53.832
783.00,53.801
784.00,53.840
785.00,53.778
786.00,53.843
787.00,53.756
788.00,53.754
789.00,53.763
790.00,53.658
791.00,53.764
792.00,53.673
793.00,53.689
794.00,53.697
795.00,53.668
796.00,53.666
797.00,53.607
798.00,53.631
799.00,53.564
800.00,53.603
801.00,53.603
802.00,53.615
803.00,53.540
804.00,53.558
805.00,53.571
806.00,53.521
807.00,53.479
808.00,53.467
809.00,53.443
810.00,53.452
811.00,53.458
812.00,53.510
813.00,53.364
814.00,53.432
815.00,53.439
816.00,53.426
817.00,53.367
818.00,53.250
819.00,53.363
820.00,53.290
821.00,53.376
822.00,53.349
823.00,53.142
824.00,53.263
825.00,53.403
826.00,53.292
827.00,53.300
828.00,53.229
829.00,53.166
830.00,53.300
831.00,55.754
832.00,55.717
833.00,55.683
834.00,55.698
835.00,55.644
836.00,55.670
837.00,55.616
838.00,55.586
839.00,55.633
840.00,55.539
841.00,55.586
842.00,55.538
843.00,55.595
844.00,55.514
845.00,55.501
846.00,55.499
847.00,55.452
848.00,55.483
849.00,55.380
850.00,55.414
851.00,55.321
852.00,55.360
853.00,55.287
854.00,55.258
855.00,55.223
856.00,55.223
857.00,55.205
858.00,55.195
859.00,55.139
860.00,55.162
861.00,55.161
862.00,55.101
863.00,55.149
864.00,55.077
865.00,55.098
866.00,55.111
867.00,55.091
868.00,55.089
869.00,55.057
870.00,55.044
871.00,55.031
872.00,55.034
873.00,54.971
874.00,55.044
875.00,54.989
876.00,55.017
877.00,54.991
878.00,55.013
879.00,54.979
880.00,54.953
881.00,54.933
882.00,54.995
883.00,54.927
884.00,54.873
885.00,54.894
886.00,54.868
887.00,54.833
888.00,54.814
889.00,54.804
890.00,54.803
891.00,54.757
892.00,54.778
893.00,54.619
894.00,54.761
895.00,54.689
896.00,54.697
897.00,54.664
898.00,54.630
899.00,54.635
900.00,54.641
901.00,54.617
902.00,54.619
903.00,54.626
904.00,54.597
905.00,54.568
906.00,54.589
907.00,54.573
908.00,54.482
909.00,54.522
910.00,54.468
911.00,54.485
912.00,54.450
913.00,54.397
914.00,54.424
915.00,54.378
916.00,54.428
917.00,54.265
918.00,54.374
919.00,54.341
920.00,54.278
921.00,54.295
922.00,54.302
923.00,54.231
924.00,54.190
925.00,54.222
926.00,54.196
927.00,54.168
928.00,54.136
929.00,54.145
930.00,54.118
931.00,54.091
932.00,54.070
933.00,54.067
934.00,54.058
935.00,54.014
936.00,54.035
937.00,54.026
938.00,54.007
939.00,54.010
940.00,53.995
941.00,53.963
942.00,53.907
943.00,53.912
944.00,53.916
945.00,53.859
946.00,53.881
947.00,53.861
948.00,53.835
949.00,53.808
950.00,53.786
951.00,53.829
952.00,53.749
953.00,53.699
954.00,53.685
955.00,53.660
956.00,53.654
957.00,53.615
958.00,53.631
959.00,53.559
960.00,53.555
961.00,53.590
962.00,53.575
963.00,53.523
964.00,53.550
965.00,53.625
966.00,53.563
967.00,53.511
968.00,53.493
969.00,53.528
970.00,53.493
971.00,53.496
972.00,53.448
973.00,53.492
974.00,53.516
975.00,53.466
976.00,53.504
977.00,53.484
978.00,53.514
979.00,53.505
980.00,53.500
981.00,53.474
982.00,53.433
983.00,53.495
984.00,53.485
985.00,53.503
986.00,53.450
987.00,53.496
988.00,53.456
989.00,53.425
990.00,53.411
991.00,53.449
992.00,53.415
993.00,53.400
994.00,53.402
995.00,53.377
996.00,53.344
997.00,53.371
998.00,53.334
999.00,53.351
1000.00,53.297
1001.00,53.298
1002.00,53.310
1003.00,53.283
1004.00,53.256
1005.00,53.220
1006.00,53.273
1007.00,53.234
1008.00,53.209
1009.00,53.214
1010.00,53.193
1011.00,53.190
1012.00,53.208
1013.00,53.170
1014.00,53.151
1015.00,53.155
1016.00,53.132
1017.00,53.125
1018.00,53.122
1019.00,53.074
1020.00,53.080
1021.00,53.073
1022.00,53.055
1023.00,53.011
1024.00,53.003
1025.00,52.991
1026.00,52.969
1027.00,52.941
1028.00,52.961
1029.00,52.938
1030.00,52.899
1031.00,52.922
1032.00,52.900
1033.00,52.902
1034.00,52.865
1035.00,52.848
1036.00,52.810
1037.00,52.790
1038.00,52.763
1039.00,52.736
1040.00,52.724
1041.00,52.697
1042.00,52.708
1043.00,52.677
1044.00,52.710
1045.00,52.688
1046.00,52.683
1047.00,52.699
1048.00,52.709
1049.00,52.720
1050.00,52.753
1051.00,52.775
1052.00,52.769
1053.00,52.786
1054.00,52.779
1055.00,52.786
1056.00,52.776
1057.00,52.785
1058.00,52.815
1059.00,52.783
1060.00,52.790
1061.00,52.798
1062.00,52.767
1063.00,52.775
1064.00,52.783
1065.00,52.778
1066.00,52.764
1067.00,52.757
1068.00,52.778
1069.00,52.750
1070.00,52.725
1071.00,52.701
1072.00,52.740
1073.00,52.732
1074.00,52.690
1075.00,52.700
1076.00,52.698
1077.00,52.675
1078.00,52.662
1079.00,52.678
1080.00,52.680
1081.00,52.645
1082.00,52.655
1083.00,52.648
1084.00,52.642
1085.00,52.629
1086.00,52.645
1087.00,52.638
1088.00,52.616
1089.00,52.587
1090.00,52.614
1091.00,52.627
1092.00,52.608
1093.00,52.593
1094.00,52.586
1095.00,52.563
1096.00,52.540
1097.00,52.548
1098.00,52.559
1099.00,52.525
1100.00,52.523
1101.00,52.520
1102.00,52.501
1103.00,52.511
1104.00,52.517
1105.00,52.491
1106.00,52.474
1107.00,52.452
1108.00,52.478
1109.00,52.458
1110.00,52.439
1111.00,52.425
1112.00,52.428
1113.00,52.420
1114.00,52.403
1115.00,52.411
1116.00,52.406
1117.00,52.385
1118.00,52.380
1119.00,52.390
1120.00,52.382
1121.00,52.363
1122.00,52.364
1123.00,52.353
1124.00,52.358
1125.00,52.344
1126.00,52.329
1127.00,52.339
1128.00,52.341
1129.00,52.285
1130.00,52.286
1131.00,52.330
1132.00,52.267
1133.00,52.266
1134.00,52.280
1135.00,52.270
1136.00,52.261
1137.00,52.271
1138.00,52.290
1139.00,52.277
1140.00,52.259
1141.00,52.284
1142.00,52.274
1143.00,52.276
1144.00,52.249
1145.00,52.261
1146.00,52.258
1147.00,52.232
1148.00,52.240
1149.00,52.261
1150.00,52.247
1151.00,52.247
1152.00,52.242
1153.00,52.241
1154.00,52.215
1155.00,52.224
1156.00,52.243
1157.00,52.234
1158.00,52.221
1159.00,52.239
1160.00,52.227
1161.00,52.249
1162.00,52.221
1163.00,52.226
1164.00,52.215
1165.00,52.208
1166.00,52.216
1167.00,52.204
1168.00,52.229
1169.00,52.223
1170.00,52.214
1171.00,52.207
1172.00,52.206
1173.00,52.200
1174.00,52.224
1175.00,52.205
1176.00,52.219
1177.00,52.203
1178.00,52.221
1179.00,52.253
1180.00,52.235
1181.00,52.232
1182.00,52.225
1183.00,52.221
1184.00,52.204
1185.00,52.233
1186.00,52.207
1187.00,52.194
1188.00,52.199
1189.00,52.214
1190.00,52.211
1191.00,52.188
1192.00,52.205
1193.00,52.205
1194.00,52.206
1195.00,52.184
1196.00,52.224
1197.00,52.219
1198.00,52.203
1199.00,52.199
1200.00,52.219
1201.00,52.224
1202.00,52.191
1203.00,52.194
1204.00,52.203
1205.00,52.215
1206.00,52.195
1207.00,52.211
1208.00,52.181
1209.00,52.192
1210.00,52.184
1211.00,52.199
1212.00,52.220
1213.00,52.182
1214.00,52.211
1215.00,52.203
1216.00,52.215
1217.00,52.211
1218.00,52.212
1219.00,52.216
1220.00,52.190
1221.00,52.217
1222.00,52.209
1223.00,52.248
1224.00,52.214
1225.00,52.207
1226.00,52.211
1227.00,52.216
1228.00,52.216
1229.00,52.223
1230.00,52.273
1231.00,52.245
1232.00,52.267
1233.00,52.275
1234.00,52.277
1235.00,52.260
1236.00,52.273
1237.00,52.273
1238.00,52.282
1239.00,52.282
1240.00,52.275
1241.00,52.294
1242.00,52.246
1243.00,52.250
1244.00,52.245
1245.00,52.269
1246.00,52.286
1247.00,52.283
1248.00,52.294
1249.00,52.297
1250.00,52.289
1251.00,52.308
1252.00,52.304
1253.00,52.308
1254.00,52.304
1255.00,52.324
1256.00,52.335
1257.00,52.277
1258.00,52.316
1259.00,52.316
1260.00,52.347
1261.00,52.336
1262.00,52.350
1263.00,52.341
1264.00,52.341
1265.00,52.357
1266.00,52.359
1267.00,52.383
1268.00,52.373
1269.00,52.357
1270.00,52.391
1271.00,52.383
1272.00,52.372
1273.00,52.401
1274.00,52.409
1275.00,52.403
1276.00,52.397
1277.00,52.405
1278.00,52.424
1279.00,52.412
1280.00,52.407
1281.00,52.449
1282.00,52.461
1283.00,52.440
1284.00,52.474
1285.00,52.479
1286.00,52.468
1287.00,52.447
1288.00,52.461
1289.00,52.468
1290.00,52.476
1291.00,52.470
1292.00,52.477
1293.00,52.489
1294.00,52.484
1295.00,52.514
1296.00,52.515
1297.00,52.520
1298.00,52.559
1299.00,52.526
1300.00,52.539
1301.00,52.535
1302.00,52.551
1303.00,52.570
1304.00,52.546
1305.00,52.559
1306.00,52.561
1307.00,52.578
1308.00,52.585
1309.00,52.594
1310.00,52.601
1311.00,52.579
1312.00,52.587
1313.00,52.580
1314.00,52.621
1315.00,52.606
1316.00,52.602
1317.00,52.642
1318.00,52.651
1319.00,52.640
1320.00,52.626
1321.00,52.802
1322.00,52.800
1323.00,52.799
1324.00,52.780
1325.00,52.767
1326.00,52.797
1327.00,52.787
1328.00,52.798
1329.00,52.774
1330.00,52.784
1331.00,52.796
1332.00,52.781
1333.00,52.796
1334.00,52.799
1335.00,52.825
1336.00,52.870
1337.00,52.893
1338.00,52.948
1339.00,53.001
1340.00,53.045
1341.00,53.119
1342.00,53.170
1343.00,53.219
1344.00,53.269
1345.00,53.341
1346.00,53.358
1347.00,53.392
1348.00,53.403
1349.00,53.420
1350.00,53.444
1351.00,53.451
1352.00,53.480
1353.00,53.491
1354.00,53.491
1355.00,53.487
1356.00,53.491
1357.00,53.499
1358.00,53.560
1359.00,53.540
1360.00,53.504
1361.00,53.545
1362.00,53.502
1363.00,53.569
1364.00,53.554
1365.00,53.499
1366.00,53.598
1367.00,53.527
1368.00,53.492
1369.00,53.541
1370.00,53.497
1371.00,53.480
1372.00,53.488
1373.00,53.502
1374.00,53.506
1375.00,53.536
1376.00,53.521
1377.00,53.483
1378.00,53.558
1379.00,53.530
1380.00,53.551
1381.00,53.548
1382.00,53.519
1383.00,53.552
1384.00,53.475
1385.00,53.476
1386.00,53.504
1387.00,53.488
1388.00,53.470
1389.00,53.494
1390.00,53.428
1391.00,53.499
1392.00,53.469
1393.00,53.471
1394.00,53.508
1395.00,53.501
1396.00,53.432
1397.00,53.465
1398.00,53.478
1399.00,53.491
1400.00,53.458
1401.00,53.478
1402.00,53.607
1403.00,53.526
1404.00,53.524
1405.00,53.570
1406.00,53.554
1407.00,53.541
1408.00,53.593
1409.00,53.574
1410.00,53.585
1411.00,53.564
1412.00,53.635
1413.00,53.551
1414.00,53.555
1415.00,53.588
1416.00,53.638
1417.00,53.649
1418.00,53.611
1419.00,53.619
1420.00,53.636
1421.00,53.717
1422.00,53.691
1423.00,53.680
1424.00,53.675
1425.00,53.696
1426.00,53.696
1427.00,53.743
1428.00,53.715
1429.00,53.727
1430.00,53.747
1431.00,53.772
1432.00,53.790
1433.00,53.787
1434.00,53.807
1435.00,53.851
1436.00,53.859
1437.00,53.838
1438.00,53.841
1439.00,53.878
1440.00,53.881
1441.00,53.900
1442.00,53.900
1443.00,53.921
1444.00,54.031
1445.00,53.959
1446.00,53.975
1447.00,53.995
1448.00,54.012
1449.00,54.072
1450.00,54.035
1451.00,54.068
1452.00,54.084
1453.00,54.075
1454.00,54.094
1455.00,54.125
1456.00,54.126
1457.00,54.134
1458.00,54.138
1459.00,54.157
1460.00,54.199
1461.00,54.186
1462.00,54.223
1463.00,54.233
1464.00,54.239
1465.00,54.259
1466.00,54.236
1467.00,54.265
1468.00,54.319
1469.00,54.285
1470.00,54.299
1471.00,54.318
1472.00,54.320
1473.00,54.338
1474.00,54.381
1475.00,54.379
1476.00,54.386
1477.00,54.360
1478.00,54.396
1479.00,54.431
1480.00,54.401
1481.00,54.418
1482.00,54.476
1483.00,54.478
1484.00,54.491
1485.00,54.506
1486.00,54.510
1487.00,54.528
1488.00,54.544
1489.00,54.518
1490.00,54.538
1491.00,54.552
1492.00,54.563
1493.00,54.561
1494.00,54.578
1495.00,54.585
1496.00,54.615
1497.00,54.614
1498.00,54.641
1499.00,54.643
1500.00,54.634
1501.00, 
1502.00, 
1503.00, 
1504.00, 
1505.00, 
1506.00, 
1507.00, 
1508.00, 
1509.00, 
1510.00, 
1511.00, 
1512.00, 
1513.00, 
1514.00, 
1515.00, 
1516.00, 
1517.00, 
1518.00, 
1519.00, 
1520.00, 
1521.00, 
1522.00, 
1523.00, 
1524.00, 
1525.00, 
1526.00, 
1527.00, 
1528.00, 
1529.00, 
1530.00, 
1531.00, 
1532.00, 
1533.00, 
1534.00, 
1535.00, 
1536.00, 
1537.00, 
1538.00, 
1539.00, 
1540.00, 
1541.00, 
1542.00, 
1543.00, 
1544.00, 
1545.00, 
1546.00, 
1547.00, 
1548.00, 
1549.00, 
1550.00, 
1551.00, 
1552.00, 
1553.00, 
1554.00, 
1555.00, 
1556.00, 
1557.00, 
1558.00, 
1559.00, 
1560.00, 
1561.00, 
1562.00, 
1563.00, 
1564.00, 
1565.00, 
1566.00, 
1567.00, 
1568.00, 
1569.00, 
1570.00, 
1571.00, 
1572.00, 
1573.00, 
1574.00, 
1575.00, 
1576.00, 
1577.00, 
1578.00, 
1579.00, 
1580.00, 
1581.00, 
1582.00, 
1583.00, 
1584.00, 
1585.00, 
1586.00, 
1587.00, 
1588.00, 
1589.00, 
1590.00, 
1591.00, 
1592.00, 
1593.00, 
1594.00, 
1595.00, 
1596.00, 
1597.00, 
1598.00, 
1599.00, 
1600.00, 
1601.00, 
1602.00, 
1603.00, 
1604.00, 
1605.00, 
1606.00, 
1607.00, 
1608.00, 
1609.00, 
1610.00, 
1611.00, 
1612.00, 
1613.00, 
1614.00, 
1615.00, 
1616.00, 
1617.00, 
1618.00, 
1619.00, 
1620.00, 
1621.00, 
1622.00, 
1623.00, 
1624.00, 
1625.00, 
1626.00, 
1627.00, 
1628.00, 
1629.00, 
1630.00, 
1631.00, 
1632.00, 
1633.00, 
1634.00, 
1635.00, 
1636.00, 
1637.00, 
1638.00, 
1639.00, 
1640.00, 
1641.00, 
1642.00, 
1643.00, 
1644.00, 
1645.00, 
1646.00, 
1647.00, 
1648.00, 
1649.00, 
1650.00, 
1651.00, 
1652.00, 
1653.00, 
1654.00, 
1655.00, 
1656.00, 
1657.00, 
1658.00, 
1659.00, 
1660.00, 
1661.00, 
1662.00, 
1663.00, 
1664.00, 
1665.00, 
1666.00, 
1667.00, 
1668.00, 
1669.00, 
1670.00, 
1671.00, 
1672.00, 
1673.00, 
1674.00, 
1675.00, 
1676.00, 
1677.00, 
1678.00, 
1679.00, 
1680.00, 
1681.00, 
1682.00, 
1683.00, 
1684.00, 
1685.00, 
1686.00, 
1687.00, 
1688.00, 
1689.00, 
1690.00, 
1691.00, 
1692.00, 
1693.00, 
1694.00, 
1695.00, 
1696.00, 
1697.00, 
1698.00, 
1699.00, 
1700.00, 
1701.00, 
1702.00, 
1703.00, 
1704.00, 
1705.00, 
1706.00, 
1707.00, 
1708.00, 
1709.00, 
1710.00, 
1711.00, 
1712.00, 
1713.00, 
1714.00, 
1715.00, 
1716.00, 
1717.00, 
1718.00, 
1719.00, 
1720.00, 
1721.00, 
1722.00, 
1723.00, 
1724.00, 
1725.00, 
1726.00, 
1727.00, 
1728.00, 
1729.00, 
1730.00, 
1731.00, 
1732.00, 
1733.00, 
1734.00, 
1735.00, 
1736.00, 
1737.00, 
1738.00, 
1739.00, 
1740.00, 
1741.00, 
1742.00, 
1743.00, 
1744.00, 
1745.00, 
1746.00, 
1747.00, 
1748.00, 
1749.00, 
1750.00, 
1751.00, 
1752.00, 
1753.00, 
1754.00, 
1755.00, 
1756.00, 
1757.00, 
1758.00, 
1759.00, 
1760.00, 
1761.00, 
1762.00, 
1763.00, 
1764.00, 
1765.00, 
1766.00, 
1767.00, 
1768.00, 
1769.00, 
1770.00, 
1771.00, 
1772.00, 
1773.00, 
1774.00, 
1775.00, 
1776.00, 
1777.00, 
1778.00, 
1779.00, 
1780.00, 
1781.00, 
1782.00, 
1783.00, 
1784.00, 
1785.00, 
1786.00, 
1787.00, 
1788.00, 
1789.00, 
1790.00, 
1791.00, 
1792.00, 
1793.00, 
1794.00, 
1795.00, 
1796.00, 
1797.00, 
1798.00, 
1799.00, 
1800.00, 
1801.00, 
1802.00, 
1803.00, 
1804.00, 
1805.00, 
1806.00, 
1807.00, 
1808.00, 
1809.00, 
1810.00, 
1811.00, 
1812.00, 
1813.00, 
1814.00, 
1815.00, 
1816.00, 
1817.00, 
1818.00, 
1819.00, 
1820.00, 
1821.00, 
1822.00, 
1823.00, 
1824.00, 
1825.00, 
1826.00, 
1827.00, 
1828.00, 
1829.00, 
1830.00, 
1831.00, 
1832.00, 
1833.00, 
1834.00, 
1835.00, 
1836.00, 
1837.00, 
1838.00, 
1839.00, 
1840.00, 
1841.00, 
1842.00, 
1843.00, 
1844.00, 
1845.00, 
1846.00, 
1847.00, 
1848.00, 
1849.00, 
1850.00, 
1851.00, 
1852.00, 
1853.00, 
1854.00, 
1855.00, 
1856.00, 
1857.00, 
1858.00, 
1859.00, 
1860.00, 
1861.00, 
1862.00, 
1863.00, 
1864.00, 
1865.00, 
1866.00, 
1867.00, 
1868.00, 
1869.00, 
1870.00, 
1871.00, 
1872.00, 
1873.00, 
1874.00, 
1875.00, 
1876.00, 
1877.00, 
1878.00, 
1879.00, 
1880.00, 
1881.00, 
1882.00, 
1883.00, 
1884.00, 
1885.00, 
1886.00, 
1887.00, 
1888.00, 
1889.00, 
1890.00, 
1891.00, 
1892.00, 
1893.00, 
1894.00, 
1895.00, 
1896.00, 
1897.00, 
1898.00, 
1899.00, 
1900.00, 
1901.00, 
1902.00, 
1903.00, 
1904.00, 
1905.00, 
1906.00, 
1907.00, 
1908.00, 
1909.00, 
1910.00, 
1911.00, 
1912.00, 
1913.00, 
1914.00, 
1915.00, 
1916.00, 
1917.00, 
1918.00, 
1919.00, 
1920.00, 
1921.00, 
1922.00, 
1923.00, 
1924.00, 
1925.00, 
1926.00, 
1927.00, 
1928.00, 
1929.00, 
1930.00, 
1931.00, 
1932.00, 
1933.00, 
1934.00, 
1935.00, 
1936.00, 
1937.00, 
1938.00, 
1939.00, 
1940.00, 
1941.00, 
1942.00, 
1943.00, 
1944.00, 
1945.00, 
1946.00, 
1947.00, 
1948.00, 
1949.00, 
1950.00, 
1951.00, 
1952.00, 
1953.00, 
1954.00, 
1955.00, 
1956.00, 
1957.00, 
1958.00, 
1959.00, 
1960.00, 
1961.00, 
1962.00, 
1963.00, 
1964.00, 
1965.00, 
1966.00, 
1967.00, 
1968.00, 
1969.00, 
1970.00, 
1971.00, 
1972.00, 
1973.00, 
1974.00, 
1975.00, 
1976.00, 
1977.00, 
1978.00, 
1979.00, 
1980.00, 
1981.00, 
1982.00, 
1983.00, 
1984.00, 
1985.00, 
1986.00, 
1987.00, 
1988.00, 
1989.00, 
1990.00, 
1991.00, 
1992.00, 
1993.00, 
1994.00, 
1995.00, 
1996.00, 
1997.00, 
1998.00, 
1999.00, 
2000.00, 
2001.00, 
2002.00, 
2003.00, 
2004.00, 
2005.00, 
2006.00, 
2007.00, 
2008.00, 
2009.00, 
2010.00, 
2011.00, 
2012.00, 
2013.00, 
2014.00, 
2015.00, 
2016.00, 
2017.00, 
2018.00, 
2019.00, 
2020.00, 
2021.00, 
2022.00, 
2023.00, 
2024.00, 
2025.00, 
2026.00, 
2027.00, 
2028.00, 
2029.00, 
2030.00, 
2031.00, 
2032.00, 
2033.00, 
2034.00, 
2035.00, 
2036.00, 
2037.00, 
2038.00, 
2039.00, 
2040.00, 
2041.00, 
2042.00, 
2043.00, 
2044.00, 
2045.00, 
2046.00, 
2047.00, 
2048.00, 
2049.00, 
2050.00, 
2051.00, 
2052.00, 
2053.00, 
2054.00, 
2055.00, 
2056.00, 
2057.00, 
2058.00, 
2059.00, 
2060.00, 
2061.00, 
2062.00, 
2063.00, 
2064.00, 
2065.00, 
2066.00, 
2067.00, 
2068.00, 
2069.00, 
2070.00, 
2071.00, 
2072.00, 
2073.00, 
2074.00, 
2075.00, 
2076.00, 
2077.00, 
2078.00, 
2079.00, 
2080.00, 
2081.00, 
2082.00, 
2083.00, 
2084.00, 
2085.00, 
2086.00, 
2087.00, 
2088.00, 
2089.00, 
2090.00, 
2091.00, 
2092.00, 
2093.00, 
2094.00, 
2095.00, 
2096.00, 
2097.00, 
2098.00, 
2099.00, 
2100.00, 
2101.00, 
2102.00, 
2103.00, 
2104.00, 
2105.00, 
2106.00, 
2107.00, 
2108.00, 
2109.00, 
2110.00, 
2111.00, 
2112.00, 
2113.00, 
2114.00, 
2115.00, 
2116.00, 
2117.00, 
2118.00, 
2119.00, 
2120.00, 
2121.00, 
2122.00, 
2123.00, 
2124.00, 
2125.00, 
2126.00, 
2127.00, 
2128.00, 
2129.00, 
2130.00, 
2131.00, 
2132.00, 
2133.00, 
2134.00, 
2135.00, 
2136.00, 
2137.00, 
2138.00, 
2139.00, 
2140.00, 
2141.00, 
2142.00, 
2143.00, 
2144.00, 
2145.00, 
2146.00, 
2147.00, 
2148.00, 
2149.00, 
2150.00, 
2151.00, 
2152.00, 
2153.00, 
2154.00, 
2155.00, 
2156.00, 
2157.00, 
2158.00, 
2159.00, 
2160.00, 
2161.00, 
2162.00, 
2163.00, 
2164.00, 
2165.00, 
2166.00, 
2167.00, 
2168.00, 
2169.00, 
2170.00, 
2171.00, 
2172.00, 
2173.00, 
2174.00, 
2175.00, 
2176.00, 
2177.00, 
2178.00, 
2179.00, 
2180.00, 
2181.00, 
2182.00, 
2183.00, 
2184.00, 
2185.00, 
2186.00, 
2187.00, 
2188.00, 
2189.00, 
2190.00, 
2191.00, 
2192.00, 
2193.00, 
2194.00, 
2195.00, 
2196.00, 
2197.00, 
2198.00, 
2199.00, 
2200.00, 
2201.00, 
2202.00, 
2203.00, 
2204.00, 
2205.00, 
2206.00, 
2207.00, 
2208.00, 
2209.00, 
2210.00, 
2211.00, 
2212.00, 
2213.00, 
2214.00, 
2215.00, 
2216.00, 
2217.00, 
2218.00, 
2219.00, 
2220.00, 
2221.00, 
2222.00, 
2223.00, 
2224.00, 
2225.00, 
2226.00, 
2227.00, 
2228.00, 
2229.00, 
2230.00, 
2231.00, 
2232.00, 
2233.00, 
2234.00, 
2235.00, 
2236.00, 
2237.00, 
2238.00, 
2239.00, 
2240.00, 
2241.00, 
2242.00, 
2243.00, 
2244.00, 
2245.00, 
2246.00, 
2247.00, 
2248.00, 
2249.00, 
2250.00, 
2251.00, 
2252.00, 
2253.00, 
2254.00, 
2255.00, 
2256.00, 
2257.00, 
2258.00, 
2259.00, 
2260.00, 
2261.00, 
2262.00, 
2263.00, 
2264.00, 
2265.00, 
2266.00, 
2267.00, 
2268.00, 
2269.00, 
2270.00, 
2271.00, 
2272.00, 
2273.00, 
2274.00, 
2275.00, 
2276.00, 
2277.00, 
2278.00, 
2279.00, 
2280.00, 
2281.00, 
2282.00, 
2283.00, 
2284.00, 
2285.00, 
2286.00, 
2287.00, 
2288.00, 
2289.00, 
2290.00, 
2291.00, 
2292.00, 
2293.00, 
2294.00, 
2295.00, 
2296.00, 
2297.00, 
2298.00, 
2299.00, 
2300.00, 
2301.00, 
2302.00, 
2303.00, 
2304.00, 
2305.00, 
2306.00, 
2307.00, 
2308.00, 
2309.00, 
2310.00, 
2311.00, 
2312.00, 
2313.00, 
2314.00, 
2315.00, 
2316.00, 
2317.00, 
2318.00, 
2319.00, 
2320.00, 
2321.00, 
2322.00, 
2323.00, 
2324.00, 
2325.00, 
2326.00, 
2327.00, 
2328.00, 
2329.00, 
2330.00, 
2331.00, 
2332.00, 
2333.00, 
2334.00, 
2335.00, 
2336.00, 
2337.00, 
2338.00, 
2339.00, 
2340.00, 
2341.00, 
2342.00, 
2343.00, 
2344.00, 
2345.00, 
2346.00, 
2347.00, 
2348.00, 
2349.00, 
2350.00, 
2351.00, 
2352.00, 
2353.00, 
2354.00, 
2355.00, 
2356.00, 
2357.00, 
2358.00, 
2359.00, 
2360.00, 
2361.00, 
2362.00, 
2363.00, 
2364.00, 
2365.00, 
2366.00, 
2367.00, 
2368.00, 
2369.00, 
2370.00, 
2371.00, 
2372.00, 
2373.00, 
2374.00, 
2375.00, 
2376.00, 
2377.00, 
2378.00, 
2379.00, 
2380.00, 
2381.00, 
2382.00, 
2383.00, 
2384.00, 
2385.00, 
2386.00, 
2387.00, 
2388.00, 
2389.00, 
2390.00, 
2391.00, 
2392.00, 
2393.00, 
2394.00, 
2395.00, 
2396.00, 
2397.00, 
2398.00, 
2399.00, 
2400.00, 
2401.00, 
2402.00, 
2403.00, 
2404.00, 
2405.00, 
2406.00, 
2407.00, 
2408.00, 
2409.00, 
2410.00, 
2411.00, 
2412.00, 
2413.00, 
2414.00, 
2415.00, 
2416.00, 
2417.00, 
2418.00, 
2419.00, 
2420.00, 
2421.00, 
2422.00, 
2423.00, 
2424.00, 
2425.00, 
2426.00, 
2427.00, 
2428.00, 
2429.00, 
2430.00, 
2431.00, 
2432.00, 
2433.00, 
2434.00, 
2435.00, 
2436.00, 
2437.00, 
2438.00, 
2439.00, 
2440.00, 
2441.00, 
2442.00, 
2443.00, 
2444.00, 
2445.00, 
2446.00, 
2447.00, 
2448.00, 
2449.00, 
2450.00, 
2451.00, 
2452.00, 
2453.00, 
2454.00, 
2455.00, 
2456.00, 
2457.00, 
2458.00, 
2459.00, 
2460.00, 
2461.00, 
2462.00, 
2463.00, 
2464.00, 
2465.00, 
2466.00, 
2467.00, 
2468.00, 
2469.00, 
2470.00, 
2471.00, 
2472.00, 
2473.00, 
2474.00, 
2475.00, 
2476.00, 
2477.00, 
2478.00, 
2479.00, 
2480.00, 
2481.00, 
2482.00, 
2483.00, 
2484.00, 
2485.00, 
2486.00, 
2487.00, 
2488.00, 
2489.00, 
2490.00, 
2491.00, 
2492.00, 
2493.00, 
2494.00, 
2495.00, 
2496.00, 
2497.00, 
2498.00, 
2499.00, 
2500.00, 
2501.00, 
2502.00, 
2503.00, 
2504.00, 
2505.00, 
2506.00, 
2507.00, 
2508.00, 
2509.00, 
2510.00, 
2511.00, 
2512.00, 
2513.00, 
2514.00, 
2515.00, 
2516.00, 
2517.00, 
2518.00, 
2519.00, 
2520.00, 
2521.00, 
2522.00, 
2523.00, 
2524.00, 
2525.00, 
2526.00, 
2527.00, 
2528.00, 
2529.00, 
2530.00, 
2531.00, 
2532.00, 
2533.00, 
2534.00, 
2535.00, 
2536.00, 
2537.00, 
2538.00, 
2539.00, 
2540.00, 
2541.00, 
2542.00, 
2543.00, 
2544.00, 
2545.00, 
2546.00, 
2547.00, 
2548.00, 
2549.00, 
2550.00, 
2551.00, 
2552.00, 
2553.00, 
2554.00, 
2555.00, 
2556.00, 
2557.00, 
2558.00, 
2559.00, 
2560.00, 
2561.00, 
2562.00, 
2563.00, 
2564.00, 
2565.00, 
2566.00, 
2567.00, 
2568.00, 
2569.00, 
2570.00, 
2571.00, 
2572.00, 
2573.00, 
2574.00, 
2575.00, 
2576.00, 
2577.00, 
2578.00, 
2579.00, 
2580.00, 
2581.00, 
2582.00, 
2583.00, 
2584.00, 
2585.00, 
2586.00, 
2587.00, 
2588.00, 
2589.00, 
2590.00, 
2591.00, 
2592.00, 
2593.00, 
2594.00, 
2595.00, 
2596.00, 
2597.00, 
2598.00, 
2599.00, 
2600.00, 
