"1bP2 - RawData"
"Wavelength nm.","T%"
200.00,-0.001
201.00,-0.000
202.00,0.004
203.00,0.003
204.00,0.002
205.00,-0.002
206.00,0.001
207.00,-0.001
208.00,-0.001
209.00,0.002
210.00,0.002
211.00,0.000
212.00,0.002
213.00,0.002
214.00,0.002
215.00,-0.000
216.00,-0.001
217.00,0.003
218.00,-0.002
219.00,-0.001
220.00,0.000
221.00,-0.000
222.00,-0.001
223.00,0.000
224.00,-0.000
225.00,0.002
226.00,0.001
227.00,-0.000
228.00,-0.000
229.00,0.000
230.00,-0.001
231.00,-0.000
232.00,-0.002
233.00,-0.000
234.00,0.002
235.00,0.001
236.00,0.001
237.00,0.001
238.00,-0.000
239.00,0.000
240.00,0.002
241.00,-0.001
242.00,0.002
243.00,0.001
244.00,-0.002
245.00,-0.001
246.00,0.002
247.00,-0.000
248.00,-0.001
249.00,0.000
250.00,0.001
251.00,0.001
252.00,-0.001
253.00,0.002
254.00,0.001
255.00,-0.001
256.00,0.001
257.00,0.000
258.00,0.001
259.00,-0.001
260.00,0.001
261.00,-0.000
262.00,0.000
263.00,0.002
264.00,0.002
265.00,-0.000
266.00,0.001
267.00,-0.000
268.00,-0.000
269.00,0.000
270.00,0.001
271.00,0.001
272.00,0.000
273.00,0.001
274.00,0.001
275.00,-0.000
276.00,-0.001
277.00,-0.000
278.00,0.001
279.00,0.001
280.00,-0.000
281.00,-0.001
282.00,-0.001
283.00,0.002
284.00,0.001
285.00,0.000
286.00,-0.001
287.00,0.000
288.00,0.000
289.00,-0.001
290.00,0.001
291.00,0.001
292.00,0.002
293.00,0.001
294.00,0.001
295.00,0.001
296.00,-0.001
297.00,-0.001
298.00,0.001
299.00,0.002
300.00,0.005
301.00,0.006
302.00,0.009
303.00,0.013
304.00,0.019
305.00,0.032
306.00,0.052
307.00,0.074
308.00,0.116
309.00,0.174
310.00,0.240
311.00,0.328
312.00,0.442
313.00,0.588
314.00,0.774
315.00,0.994
316.00,1.270
317.00,1.588
318.00,1.944
319.00,2.362
320.00,2.843
321.00,3.364
322.00,3.940
323.00,4.620
324.00,5.312
325.00,6.009
326.00,6.734
327.00,7.535
328.00,8.333
329.00,9.173
330.00,9.892
331.00,10.820
332.00,11.686
333.00,12.612
334.00,13.447
335.00,14.327
336.00,15.127
337.00,15.983
338.00,16.798
339.00,17.543
340.00,18.290
341.00,19.041
342.00,19.713
343.00,20.383
344.00,20.898
345.00,21.710
346.00,22.265
347.00,22.768
348.00,23.273
349.00,23.717
350.00,24.087
351.00,24.578
352.00,24.919
353.00,25.285
354.00,25.595
355.00,25.893
356.00,26.204
357.00,26.456
358.00,26.723
359.00,26.966
360.00,27.232
361.00,27.336
362.00,27.549
363.00,27.682
364.00,27.766
365.00,27.896
366.00,27.997
367.00,28.076
368.00,28.157
369.00,28.202
370.00,28.194
371.00,28.290
372.00,28.195
373.00,28.236
374.00,28.301
375.00,28.261
376.00,28.197
377.00,28.157
378.00,28.048
379.00,27.983
380.00,27.976
381.00,27.927
382.00,27.940
383.00,27.947
384.00,27.963
385.00,27.992
386.00,27.998
387.00,28.118
388.00,28.175
389.00,28.155
390.00,28.186
391.00,28.225
392.00,28.256
393.00,28.250
394.00,28.272
395.00,28.318
396.00,28.231
397.00,28.302
398.00,28.323
399.00,28.319
400.00,28.342
401.00,28.286
402.00,28.290
403.00,28.268
404.00,28.284
405.00,28.242
406.00,28.252
407.00,28.200
408.00,28.218
409.00,28.119
410.00,28.025
411.00,28.066
412.00,28.038
413.00,28.083
414.00,28.040
415.00,28.147
416.00,28.090
417.00,28.032
418.00,28.040
419.00,28.148
420.00,28.167
421.00,28.213
422.00,28.213
423.00,28.220
424.00,28.252
425.00,28.217
426.00,28.353
427.00,28.411
428.00,28.428
429.00,28.428
430.00,28.493
431.00,28.564
432.00,28.577
433.00,28.625
434.00,28.670
435.00,28.738
436.00,28.800
437.00,28.879
438.00,28.924
439.00,28.984
440.00,29.062
441.00,29.117
442.00,29.188
443.00,29.205
444.00,29.340
445.00,29.479
446.00,29.542
447.00,29.608
448.00,29.726
449.00,29.779
450.00,29.898
451.00,30.004
452.00,30.032
453.00,30.204
454.00,30.264
455.00,30.384
456.00,30.500
457.00,30.578
458.00,30.649
459.00,30.796
460.00,30.943
461.00,31.071
462.00,31.153
463.00,31.275
464.00,31.464
465.00,31.511
466.00,31.633
467.00,31.747
468.00,31.832
469.00,31.954
470.00,32.017
471.00,32.109
472.00,32.263
473.00,32.276
474.00,32.405
475.00,32.488
476.00,32.581
477.00,32.731
478.00,32.793
479.00,33.025
480.00,33.068
481.00,33.156
482.00,33.444
483.00,33.387
484.00,33.654
485.00,33.755
486.00,33.913
487.00,34.062
488.00,34.193
489.00,34.339
490.00,34.447
491.00,34.538
492.00,34.824
493.00,34.926
494.00,34.943
495.00,34.996
496.00,35.137
497.00,35.207
498.00,35.426
499.00,35.500
500.00,35.646
501.00,35.745
502.00,35.842
503.00,35.983
504.00,36.022
505.00,36.116
506.00,36.305
507.00,36.363
508.00,36.430
509.00,36.580
510.00,36.681
511.00,36.756
512.00,36.925
513.00,37.079
514.00,37.101
515.00,37.230
516.00,37.304
517.00,37.356
518.00,37.546
519.00,37.531
520.00,37.548
521.00,37.719
522.00,37.813
523.00,37.829
524.00,37.876
525.00,38.002
526.00,38.082
527.00,38.153
528.00,38.204
529.00,38.394
530.00,38.502
531.00,38.605
532.00,38.665
533.00,38.753
534.00,38.837
535.00,38.928
536.00,39.000
537.00,39.054
538.00,39.071
539.00,39.137
540.00,39.173
541.00,39.254
542.00,39.294
543.00,39.288
544.00,39.394
545.00,39.466
546.00,39.442
547.00,39.552
548.00,39.686
549.00,39.728
550.00,39.687
551.00,39.848
552.00,39.892
553.00,39.843
554.00,39.975
555.00,40.020
556.00,40.071
557.00,40.116
558.00,40.181
559.00,40.244
560.00,40.294
561.00,40.380
562.00,40.438
563.00,40.441
564.00,40.488
565.00,40.476
566.00,40.483
567.00,40.528
568.00,40.609
569.00,40.645
570.00,40.654
571.00,40.637
572.00,40.710
573.00,40.740
574.00,40.711
575.00,40.727
576.00,40.711
577.00,40.774
578.00,40.884
579.00,40.982
580.00,40.949
581.00,41.182
582.00,41.194
583.00,41.166
584.00,41.269
585.00,41.288
586.00,41.415
587.00,41.427
588.00,41.431
589.00,41.387
590.00,41.449
591.00,41.477
592.00,41.487
593.00,41.476
594.00,41.615
595.00,41.692
596.00,41.709
597.00,41.754
598.00,41.770
599.00,41.761
600.00,41.811
601.00,41.902
602.00,41.924
603.00,41.955
604.00,41.932
605.00,41.992
606.00,41.995
607.00,41.970
608.00,42.163
609.00,42.233
610.00,42.075
611.00,42.075
612.00,42.122
613.00,42.234
614.00,42.232
615.00,42.330
616.00,42.391
617.00,42.394
618.00,42.444
619.00,42.475
620.00,42.491
621.00,42.583
622.00,42.663
623.00,42.606
624.00,42.713
625.00,42.776
626.00,42.841
627.00,42.852
628.00,42.836
629.00,42.860
630.00,42.894
631.00,42.930
632.00,42.960
633.00,43.102
634.00,43.203
635.00,43.244
636.00,43.282
637.00,43.358
638.00,43.415
639.00,43.519
640.00,43.548
641.00,43.551
642.00,43.553
643.00,43.664
644.00,43.734
645.00,43.767
646.00,43.874
647.00,43.861
648.00,43.992
649.00,44.014
650.00,43.962
651.00,44.130
652.00,44.204
653.00,44.242
654.00,44.220
655.00,44.340
656.00,44.517
657.00,44.510
658.00,44.589
659.00,44.760
660.00,44.673
661.00,44.701
662.00,44.787
663.00,44.872
664.00,45.013
665.00,45.246
666.00,45.148
667.00,45.249
668.00,45.184
669.00,45.436
670.00,45.592
671.00,45.461
672.00,45.473
673.00,45.621
674.00,45.691
675.00,45.822
676.00,46.069
677.00,45.972
678.00,45.819
679.00,45.973
680.00,46.059
681.00,46.193
682.00,46.255
683.00,46.289
684.00,46.415
685.00,46.465
686.00,46.273
687.00,46.281
688.00,46.473
689.00,46.552
690.00,46.643
691.00,46.890
692.00,46.862
693.00,46.324
694.00,46.845
695.00,47.423
696.00,47.218
697.00,47.171
698.00,47.193
699.00,47.427
700.00,47.312
701.00,47.317
702.00,47.437
703.00,47.644
704.00,47.559
705.00,47.500
706.00,47.542
707.00,47.555
708.00,47.651
709.00,48.154
710.00,47.925
711.00,47.722
712.00,47.823
713.00,47.885
714.00,48.110
715.00,48.146
716.00,47.960
717.00,48.211
718.00,48.221
719.00,48.245
720.00,48.311
721.00,52.874
722.00,52.925
723.00,52.897
724.00,52.769
725.00,52.787
726.00,52.896
727.00,52.868
728.00,52.878
729.00,52.922
730.00,52.921
731.00,52.873
732.00,52.913
733.00,52.960
734.00,52.897
735.00,53.008
736.00,52.979
737.00,53.037
738.00,53.086
739.00,53.018
740.00,53.039
741.00,53.090
742.00,53.033
743.00,53.087
744.00,52.972
745.00,53.143
746.00,53.039
747.00,53.030
748.00,53.055
749.00,53.046
750.00,52.970
751.00,52.896
752.00,52.978
753.00,52.985
754.00,52.904
755.00,52.953
756.00,52.974
757.00,52.918
758.00,52.973
759.00,52.997
760.00,52.944
761.00,52.975
762.00,52.960
763.00,52.972
764.00,52.920
765.00,52.934
766.00,52.972
767.00,53.002
768.00,52.883
769.00,52.918
770.00,52.985
771.00,52.960
772.00,53.050
773.00,52.873
774.00,53.000
775.00,52.981
776.00,52.923
777.00,53.004
778.00,52.982
779.00,52.927
780.00,52.918
781.00,52.942
782.00,52.911
783.00,52.914
784.00,52.919
785.00,52.810
786.00,52.956
787.00,52.904
788.00,52.852
789.00,52.852
790.00,52.745
791.00,52.865
792.00,52.760
793.00,52.767
794.00,52.739
795.00,52.748
796.00,52.782
797.00,52.671
798.00,52.697
799.00,52.719
800.00,52.708
801.00,52.677
802.00,52.684
803.00,52.611
804.00,52.525
805.00,52.624
806.00,52.559
807.00,52.568
808.00,52.571
809.00,52.514
810.00,52.493
811.00,52.501
812.00,52.476
813.00,52.413
814.00,52.474
815.00,52.451
816.00,52.470
817.00,52.338
818.00,52.321
819.00,52.303
820.00,52.267
821.00,52.361
822.00,52.344
823.00,52.223
824.00,52.218
825.00,52.454
826.00,52.298
827.00,52.310
828.00,52.261
829.00,52.109
830.00,52.397
831.00,54.818
832.00,54.800
833.00,54.776
834.00,54.727
835.00,54.747
836.00,54.715
837.00,54.681
838.00,54.688
839.00,54.686
840.00,54.612
841.00,54.646
842.00,54.577
843.00,54.625
844.00,54.551
845.00,54.525
846.00,54.542
847.00,54.514
848.00,54.497
849.00,54.405
850.00,54.385
851.00,54.344
852.00,54.353
853.00,54.276
854.00,54.298
855.00,54.229
856.00,54.236
857.00,54.244
858.00,54.204
859.00,54.149
860.00,54.164
861.00,54.199
862.00,54.133
863.00,54.158
864.00,54.104
865.00,54.145
866.00,54.123
867.00,54.082
868.00,54.063
869.00,54.081
870.00,54.050
871.00,54.023
872.00,54.018
873.00,54.005
874.00,54.014
875.00,53.967
876.00,54.006
877.00,53.973
878.00,53.952
879.00,53.942
880.00,53.936
881.00,53.921
882.00,53.960
883.00,53.918
884.00,53.872
885.00,53.867
886.00,53.846
887.00,53.835
888.00,53.806
889.00,53.784
890.00,53.810
891.00,53.766
892.00,53.803
893.00,53.601
894.00,53.757
895.00,53.691
896.00,53.664
897.00,53.645
898.00,53.596
899.00,53.595
900.00,53.580
901.00,53.522
902.00,53.673
903.00,53.766
904.00,53.589
905.00,53.551
906.00,53.561
907.00,53.523
908.00,53.494
909.00,53.492
910.00,53.425
911.00,53.431
912.00,53.426
913.00,53.380
914.00,53.361
915.00,53.337
916.00,53.420
917.00,53.255
918.00,53.368
919.00,53.310
920.00,53.243
921.00,53.276
922.00,53.270
923.00,53.211
924.00,53.167
925.00,53.187
926.00,53.163
927.00,53.164
928.00,53.118
929.00,53.127
930.00,53.045
931.00,53.102
932.00,53.043
933.00,53.064
934.00,53.037
935.00,53.006
936.00,52.979
937.00,52.979
938.00,52.975
939.00,52.961
940.00,52.927
941.00,52.922
942.00,52.881
943.00,52.870
944.00,52.835
945.00,52.815
946.00,52.909
947.00,52.804
948.00,52.798
949.00,52.782
950.00,52.765
951.00,52.721
952.00,52.718
953.00,52.667
954.00,52.651
955.00,52.623
956.00,52.611
957.00,52.584
958.00,52.594
959.00,52.535
960.00,52.550
961.00,52.528
962.00,52.548
963.00,52.503
964.00,52.488
965.00,52.496
966.00,52.483
967.00,52.461
968.00,52.449
969.00,52.469
970.00,52.447
971.00,52.462
972.00,52.407
973.00,52.453
974.00,52.472
975.00,52.433
976.00,52.461
977.00,52.453
978.00,52.480
979.00,52.425
980.00,52.451
981.00,52.480
982.00,52.430
983.00,52.421
984.00,52.413
985.00,52.445
986.00,52.391
987.00,52.427
988.00,52.391
989.00,52.383
990.00,52.399
991.00,52.365
992.00,52.375
993.00,52.369
994.00,52.338
995.00,52.331
996.00,52.334
997.00,52.300
998.00,52.285
999.00,52.302
1000.00,52.266
1001.00,52.253
1002.00,52.248
1003.00,52.248
1004.00,52.226
1005.00,52.187
1006.00,52.249
1007.00,52.209
1008.00,52.179
1009.00,52.171
1010.00,52.175
1011.00,52.152
1012.00,52.130
1013.00,52.131
1014.00,52.103
1015.00,52.124
1016.00,52.065
1017.00,52.069
1018.00,52.081
1019.00,52.037
1020.00,52.039
1021.00,52.012
1022.00,51.995
1023.00,51.963
1024.00,51.953
1025.00,51.947
1026.00,51.940
1027.00,51.903
1028.00,51.921
1029.00,51.912
1030.00,51.859
1031.00,51.891
1032.00,51.839
1033.00,51.826
1034.00,51.813
1035.00,51.766
1036.00,51.756
1037.00,51.749
1038.00,51.716
1039.00,51.695
1040.00,51.700
1041.00,51.669
1042.00,51.662
1043.00,51.636
1044.00,51.677
1045.00,51.656
1046.00,51.633
1047.00,51.672
1048.00,51.676
1049.00,51.676
1050.00,51.678
1051.00,51.729
1052.00,51.700
1053.00,51.722
1054.00,51.760
1055.00,51.760
1056.00,51.780
1057.00,51.768
1058.00,51.753
1059.00,51.756
1060.00,51.753
1061.00,51.745
1062.00,51.741
1063.00,51.721
1064.00,51.738
1065.00,51.720
1066.00,51.714
1067.00,51.714
1068.00,51.726
1069.00,51.701
1070.00,51.699
1071.00,51.661
1072.00,51.694
1073.00,51.678
1074.00,51.654
1075.00,51.644
1076.00,51.648
1077.00,51.629
1078.00,51.631
1079.00,51.618
1080.00,51.630
1081.00,51.623
1082.00,51.617
1083.00,51.621
1084.00,51.623
1085.00,51.601
1086.00,51.597
1087.00,51.598
1088.00,51.590
1089.00,51.569
1090.00,51.568
1091.00,51.585
1092.00,51.570
1093.00,51.533
1094.00,51.535
1095.00,51.543
1096.00,51.499
1097.00,51.510
1098.00,51.511
1099.00,51.489
1100.00,51.486
1101.00,51.459
1102.00,51.451
1103.00,51.450
1104.00,51.424
1105.00,51.431
1106.00,51.420
1107.00,51.397
1108.00,51.400
1109.00,51.402
1110.00,51.385
1111.00,51.376
1112.00,51.363
1113.00,51.375
1114.00,51.349
1115.00,51.357
1116.00,51.373
1117.00,51.355
1118.00,51.334
1119.00,51.346
1120.00,51.331
1121.00,51.316
1122.00,51.321
1123.00,51.309
1124.00,51.309
1125.00,51.313
1126.00,51.282
1127.00,51.297
1128.00,51.286
1129.00,51.248
1130.00,51.244
1131.00,51.247
1132.00,51.232
1133.00,51.248
1134.00,51.243
1135.00,51.234
1136.00,51.241
1137.00,51.239
1138.00,51.245
1139.00,51.246
1140.00,51.218
1141.00,51.231
1142.00,51.216
1143.00,51.216
1144.00,51.210
1145.00,51.206
1146.00,51.205
1147.00,51.195
1148.00,51.165
1149.00,51.176
1150.00,51.195
1151.00,51.186
1152.00,51.174
1153.00,51.184
1154.00,51.163
1155.00,51.182
1156.00,51.173
1157.00,51.199
1158.00,51.196
1159.00,51.162
1160.00,51.182
1161.00,51.226
1162.00,51.190
1163.00,51.179
1164.00,51.195
1165.00,51.179
1166.00,51.186
1167.00,51.156
1168.00,51.177
1169.00,51.161
1170.00,51.153
1171.00,51.147
1172.00,51.151
1173.00,51.131
1174.00,51.166
1175.00,51.178
1176.00,51.180
1177.00,51.177
1178.00,51.164
1179.00,51.172
1180.00,51.158
1181.00,51.167
1182.00,51.159
1183.00,51.157
1184.00,51.136
1185.00,51.168
1186.00,51.148
1187.00,51.136
1188.00,51.149
1189.00,51.138
1190.00,51.146
1191.00,51.148
1192.00,51.158
1193.00,51.159
1194.00,51.180
1195.00,51.139
1196.00,51.174
1197.00,51.179
1198.00,51.158
1199.00,51.168
1200.00,51.165
1201.00,51.187
1202.00,51.164
1203.00,51.150
1204.00,51.173
1205.00,51.185
1206.00,51.163
1207.00,51.192
1208.00,51.164
1209.00,51.178
1210.00,51.180
1211.00,51.167
1212.00,51.194
1213.00,51.152
1214.00,51.165
1215.00,51.156
1216.00,51.173
1217.00,51.170
1218.00,51.155
1219.00,51.190
1220.00,51.154
1221.00,51.193
1222.00,51.163
1223.00,51.188
1224.00,51.185
1225.00,51.149
1226.00,51.156
1227.00,51.158
1228.00,51.163
1229.00,51.166
1230.00,51.209
1231.00,51.183
1232.00,51.218
1233.00,51.212
1234.00,51.220
1235.00,51.222
1236.00,51.206
1237.00,51.221
1238.00,51.216
1239.00,51.206
1240.00,51.192
1241.00,51.218
1242.00,51.215
1243.00,51.240
1244.00,51.212
1245.00,51.235
1246.00,51.252
1247.00,51.218
1248.00,51.218
1249.00,51.239
1250.00,51.232
1251.00,51.229
1252.00,51.257
1253.00,51.231
1254.00,51.272
1255.00,51.242
1256.00,51.238
1257.00,51.227
1258.00,51.253
1259.00,51.254
1260.00,51.296
1261.00,51.278
1262.00,51.277
1263.00,51.275
1264.00,51.271
1265.00,51.302
1266.00,51.286
1267.00,51.313
1268.00,51.310
1269.00,51.293
1270.00,51.321
1271.00,51.337
1272.00,51.326
1273.00,51.349
1274.00,51.348
1275.00,51.344
1276.00,51.351
1277.00,51.342
1278.00,51.369
1279.00,51.387
1280.00,51.350
1281.00,51.401
1282.00,51.451
1283.00,51.335
1284.00,51.391
1285.00,51.385
1286.00,51.397
1287.00,51.393
1288.00,51.386
1289.00,51.386
1290.00,51.419
1291.00,51.388
1292.00,51.399
1293.00,51.409
1294.00,51.403
1295.00,51.424
1296.00,51.442
1297.00,51.447
1298.00,51.497
1299.00,51.445
1300.00,51.462
1301.00,51.473
1302.00,51.473
1303.00,51.488
1304.00,51.488
1305.00,51.475
1306.00,51.482
1307.00,51.500
1308.00,51.497
1309.00,51.517
1310.00,51.503
1311.00,51.509
1312.00,51.513
1313.00,51.494
1314.00,51.521
1315.00,51.547
1316.00,51.516
1317.00,51.563
1318.00,51.572
1319.00,51.561
1320.00,51.572
1321.00,51.737
1322.00,51.731
1323.00,51.735
1324.00,51.690
1325.00,51.691
1326.00,51.723
1327.00,51.686
1328.00,51.697
1329.00,51.685
1330.00,51.701
1331.00,51.703
1332.00,51.708
1333.00,51.708
1334.00,51.733
1335.00,51.746
1336.00,51.795
1337.00,51.793
1338.00,51.837
1339.00,51.886
1340.00,51.944
1341.00,52.009
1342.00,52.092
1343.00,52.158
1344.00,52.215
1345.00,52.275
1346.00,52.302
1347.00,52.321
1348.00,52.353
1349.00,52.336
1350.00,52.368
1351.00,52.383
1352.00,52.378
1353.00,52.426
1354.00,52.383
1355.00,52.379
1356.00,52.431
1357.00,52.394
1358.00,52.472
1359.00,52.360
1360.00,52.449
1361.00,52.460
1362.00,52.465
1363.00,52.483
1364.00,52.447
1365.00,52.431
1366.00,52.513
1367.00,52.462
1368.00,52.439
1369.00,52.445
1370.00,52.461
1371.00,52.393
1372.00,52.404
1373.00,52.411
1374.00,52.431
1375.00,52.416
1376.00,52.392
1377.00,52.363
1378.00,52.488
1379.00,52.420
1380.00,52.418
1381.00,52.427
1382.00,52.364
1383.00,52.435
1384.00,52.357
1385.00,52.358
1386.00,52.410
1387.00,52.355
1388.00,52.348
1389.00,52.404
1390.00,52.320
1391.00,52.398
1392.00,52.375
1393.00,52.380
1394.00,52.401
1395.00,52.368
1396.00,52.329
1397.00,52.411
1398.00,52.362
1399.00,52.383
1400.00,52.350
1401.00,52.324
1402.00,52.454
1403.00,52.395
1404.00,52.398
1405.00,52.413
1406.00,52.459
1407.00,52.424
1408.00,52.423
1409.00,52.439
1410.00,52.461
1411.00,52.443
1412.00,52.517
1413.00,52.428
1414.00,52.449
1415.00,52.438
1416.00,52.493
1417.00,52.518
1418.00,52.489
1419.00,52.503
1420.00,52.495
1421.00,52.566
1422.00,52.569
1423.00,52.559
1424.00,52.559
1425.00,52.595
1426.00,52.569
1427.00,52.611
1428.00,52.607
1429.00,52.616
1430.00,52.622
1431.00,52.647
1432.00,52.674
1433.00,52.677
1434.00,52.632
1435.00,52.745
1436.00,52.720
1437.00,52.677
1438.00,52.700
1439.00,52.741
1440.00,52.753
1441.00,52.772
1442.00,52.777
1443.00,52.803
1444.00,52.898
1445.00,52.794
1446.00,52.836
1447.00,52.874
1448.00,52.880
1449.00,52.923
1450.00,52.925
1451.00,52.907
1452.00,52.938
1453.00,52.916
1454.00,52.952
1455.00,52.974
1456.00,52.975
1457.00,52.978
1458.00,53.018
1459.00,53.019
1460.00,53.048
1461.00,53.030
1462.00,53.060
1463.00,53.076
1464.00,53.092
1465.00,53.120
1466.00,53.130
1467.00,53.115
1468.00,53.187
1469.00,53.172
1470.00,53.169
1471.00,53.183
1472.00,53.196
1473.00,53.196
1474.00,53.239
1475.00,53.231
1476.00,53.257
1477.00,53.231
1478.00,53.246
1479.00,53.277
1480.00,53.254
1481.00,53.241
1482.00,53.287
1483.00,53.290
1484.00,53.320
1485.00,53.329
1486.00,53.335
1487.00,53.357
1488.00,53.393
1489.00,53.342
1490.00,53.376
1491.00,53.416
1492.00,53.419
1493.00,53.436
1494.00,53.480
1495.00,53.434
1496.00,53.464
1497.00,53.447
1498.00,53.479
1499.00,53.504
1500.00,53.472
1501.00, 
1502.00, 
1503.00, 
1504.00, 
1505.00, 
1506.00, 
1507.00, 
1508.00, 
1509.00, 
1510.00, 
1511.00, 
1512.00, 
1513.00, 
1514.00, 
1515.00, 
1516.00, 
1517.00, 
1518.00, 
1519.00, 
1520.00, 
1521.00, 
1522.00, 
1523.00, 
1524.00, 
1525.00, 
1526.00, 
1527.00, 
1528.00, 
1529.00, 
1530.00, 
1531.00, 
1532.00, 
1533.00, 
1534.00, 
1535.00, 
1536.00, 
1537.00, 
1538.00, 
1539.00, 
1540.00, 
1541.00, 
1542.00, 
1543.00, 
1544.00, 
1545.00, 
1546.00, 
1547.00, 
1548.00, 
1549.00, 
1550.00, 
1551.00, 
1552.00, 
1553.00, 
1554.00, 
1555.00, 
1556.00, 
1557.00, 
1558.00, 
1559.00, 
1560.00, 
1561.00, 
1562.00, 
1563.00, 
1564.00, 
1565.00, 
1566.00, 
1567.00, 
1568.00, 
1569.00, 
1570.00, 
1571.00, 
1572.00, 
1573.00, 
1574.00, 
1575.00, 
1576.00, 
1577.00, 
1578.00, 
1579.00, 
1580.00, 
1581.00, 
1582.00, 
1583.00, 
1584.00, 
1585.00, 
1586.00, 
1587.00, 
1588.00, 
1589.00, 
1590.00, 
1591.00, 
1592.00, 
1593.00, 
1594.00, 
1595.00, 
1596.00, 
1597.00, 
1598.00, 
1599.00, 
1600.00, 
1601.00, 
1602.00, 
1603.00, 
1604.00, 
1605.00, 
1606.00, 
1607.00, 
1608.00, 
1609.00, 
1610.00, 
1611.00, 
1612.00, 
1613.00, 
1614.00, 
1615.00, 
1616.00, 
1617.00, 
1618.00, 
1619.00, 
1620.00, 
1621.00, 
1622.00, 
1623.00, 
1624.00, 
1625.00, 
1626.00, 
1627.00, 
1628.00, 
1629.00, 
1630.00, 
1631.00, 
1632.00, 
1633.00, 
1634.00, 
1635.00, 
1636.00, 
1637.00, 
1638.00, 
1639.00, 
1640.00, 
1641.00, 
1642.00, 
1643.00, 
1644.00, 
1645.00, 
1646.00, 
1647.00, 
1648.00, 
1649.00, 
1650.00, 
1651.00, 
1652.00, 
1653.00, 
1654.00, 
1655.00, 
1656.00, 
1657.00, 
1658.00, 
1659.00, 
1660.00, 
1661.00, 
1662.00, 
1663.00, 
1664.00, 
1665.00, 
1666.00, 
1667.00, 
1668.00, 
1669.00, 
1670.00, 
1671.00, 
1672.00, 
1673.00, 
1674.00, 
1675.00, 
1676.00, 
1677.00, 
1678.00, 
1679.00, 
1680.00, 
1681.00, 
1682.00, 
1683.00, 
1684.00, 
1685.00, 
1686.00, 
1687.00, 
1688.00, 
1689.00, 
1690.00, 
1691.00, 
1692.00, 
1693.00, 
1694.00, 
1695.00, 
1696.00, 
1697.00, 
1698.00, 
1699.00, 
1700.00, 
1701.00, 
1702.00, 
1703.00, 
1704.00, 
1705.00, 
1706.00, 
1707.00, 
1708.00, 
1709.00, 
1710.00, 
1711.00, 
1712.00, 
1713.00, 
1714.00, 
1715.00, 
1716.00, 
1717.00, 
1718.00, 
1719.00, 
1720.00, 
1721.00, 
1722.00, 
1723.00, 
1724.00, 
1725.00, 
1726.00, 
1727.00, 
1728.00, 
1729.00, 
1730.00, 
1731.00, 
1732.00, 
1733.00, 
1734.00, 
1735.00, 
1736.00, 
1737.00, 
1738.00, 
1739.00, 
1740.00, 
1741.00, 
1742.00, 
1743.00, 
1744.00, 
1745.00, 
1746.00, 
1747.00, 
1748.00, 
1749.00, 
1750.00, 
1751.00, 
1752.00, 
1753.00, 
1754.00, 
1755.00, 
1756.00, 
1757.00, 
1758.00, 
1759.00, 
1760.00, 
1761.00, 
1762.00, 
1763.00, 
1764.00, 
1765.00, 
1766.00, 
1767.00, 
1768.00, 
1769.00, 
1770.00, 
1771.00, 
1772.00, 
1773.00, 
1774.00, 
1775.00, 
1776.00, 
1777.00, 
1778.00, 
1779.00, 
1780.00, 
1781.00, 
1782.00, 
1783.00, 
1784.00, 
1785.00, 
1786.00, 
1787.00, 
1788.00, 
1789.00, 
1790.00, 
1791.00, 
1792.00, 
1793.00, 
1794.00, 
1795.00, 
1796.00, 
1797.00, 
1798.00, 
1799.00, 
1800.00, 
1801.00, 
1802.00, 
1803.00, 
1804.00, 
1805.00, 
1806.00, 
1807.00, 
1808.00, 
1809.00, 
1810.00, 
1811.00, 
1812.00, 
1813.00, 
1814.00, 
1815.00, 
1816.00, 
1817.00, 
1818.00, 
1819.00, 
1820.00, 
1821.00, 
1822.00, 
1823.00, 
1824.00, 
1825.00, 
1826.00, 
1827.00, 
1828.00, 
1829.00, 
1830.00, 
1831.00, 
1832.00, 
1833.00, 
1834.00, 
1835.00, 
1836.00, 
1837.00, 
1838.00, 
1839.00, 
1840.00, 
1841.00, 
1842.00, 
1843.00, 
1844.00, 
1845.00, 
1846.00, 
1847.00, 
1848.00, 
1849.00, 
1850.00, 
1851.00, 
1852.00, 
1853.00, 
1854.00, 
1855.00, 
1856.00, 
1857.00, 
1858.00, 
1859.00, 
1860.00, 
1861.00, 
1862.00, 
1863.00, 
1864.00, 
1865.00, 
1866.00, 
1867.00, 
1868.00, 
1869.00, 
1870.00, 
1871.00, 
1872.00, 
1873.00, 
1874.00, 
1875.00, 
1876.00, 
1877.00, 
1878.00, 
1879.00, 
1880.00, 
1881.00, 
1882.00, 
1883.00, 
1884.00, 
1885.00, 
1886.00, 
1887.00, 
1888.00, 
1889.00, 
1890.00, 
1891.00, 
1892.00, 
1893.00, 
1894.00, 
1895.00, 
1896.00, 
1897.00, 
1898.00, 
1899.00, 
1900.00, 
1901.00, 
1902.00, 
1903.00, 
1904.00, 
1905.00, 
1906.00, 
1907.00, 
1908.00, 
1909.00, 
1910.00, 
1911.00, 
1912.00, 
1913.00, 
1914.00, 
1915.00, 
1916.00, 
1917.00, 
1918.00, 
1919.00, 
1920.00, 
1921.00, 
1922.00, 
1923.00, 
1924.00, 
1925.00, 
1926.00, 
1927.00, 
1928.00, 
1929.00, 
1930.00, 
1931.00, 
1932.00, 
1933.00, 
1934.00, 
1935.00, 
1936.00, 
1937.00, 
1938.00, 
1939.00, 
1940.00, 
1941.00, 
1942.00, 
1943.00, 
1944.00, 
1945.00, 
1946.00, 
1947.00, 
1948.00, 
1949.00, 
1950.00, 
1951.00, 
1952.00, 
1953.00, 
1954.00, 
1955.00, 
1956.00, 
1957.00, 
1958.00, 
1959.00, 
1960.00, 
1961.00, 
1962.00, 
1963.00, 
1964.00, 
1965.00, 
1966.00, 
1967.00, 
1968.00, 
1969.00, 
1970.00, 
1971.00, 
1972.00, 
1973.00, 
1974.00, 
1975.00, 
1976.00, 
1977.00, 
1978.00, 
1979.00, 
1980.00, 
1981.00, 
1982.00, 
1983.00, 
1984.00, 
1985.00, 
1986.00, 
1987.00, 
1988.00, 
1989.00, 
1990.00, 
1991.00, 
1992.00, 
1993.00, 
1994.00, 
1995.00, 
1996.00, 
1997.00, 
1998.00, 
1999.00, 
2000.00, 
2001.00, 
2002.00, 
2003.00, 
2004.00, 
2005.00, 
2006.00, 
2007.00, 
2008.00, 
2009.00, 
2010.00, 
2011.00, 
2012.00, 
2013.00, 
2014.00, 
2015.00, 
2016.00, 
2017.00, 
2018.00, 
2019.00, 
2020.00, 
2021.00, 
2022.00, 
2023.00, 
2024.00, 
2025.00, 
2026.00, 
2027.00, 
2028.00, 
2029.00, 
2030.00, 
2031.00, 
2032.00, 
2033.00, 
2034.00, 
2035.00, 
2036.00, 
2037.00, 
2038.00, 
2039.00, 
2040.00, 
2041.00, 
2042.00, 
2043.00, 
2044.00, 
2045.00, 
2046.00, 
2047.00, 
2048.00, 
2049.00, 
2050.00, 
2051.00, 
2052.00, 
2053.00, 
2054.00, 
2055.00, 
2056.00, 
2057.00, 
2058.00, 
2059.00, 
2060.00, 
2061.00, 
2062.00, 
2063.00, 
2064.00, 
2065.00, 
2066.00, 
2067.00, 
2068.00, 
2069.00, 
2070.00, 
2071.00, 
2072.00, 
2073.00, 
2074.00, 
2075.00, 
2076.00, 
2077.00, 
2078.00, 
2079.00, 
2080.00, 
2081.00, 
2082.00, 
2083.00, 
2084.00, 
2085.00, 
2086.00, 
2087.00, 
2088.00, 
2089.00, 
2090.00, 
2091.00, 
2092.00, 
2093.00, 
2094.00, 
2095.00, 
2096.00, 
2097.00, 
2098.00, 
2099.00, 
2100.00, 
2101.00, 
2102.00, 
2103.00, 
2104.00, 
2105.00, 
2106.00, 
2107.00, 
2108.00, 
2109.00, 
2110.00, 
2111.00, 
2112.00, 
2113.00, 
2114.00, 
2115.00, 
2116.00, 
2117.00, 
2118.00, 
2119.00, 
2120.00, 
2121.00, 
2122.00, 
2123.00, 
2124.00, 
2125.00, 
2126.00, 
2127.00, 
2128.00, 
2129.00, 
2130.00, 
2131.00, 
2132.00, 
2133.00, 
2134.00, 
2135.00, 
2136.00, 
2137.00, 
2138.00, 
2139.00, 
2140.00, 
2141.00, 
2142.00, 
2143.00, 
2144.00, 
2145.00, 
2146.00, 
2147.00, 
2148.00, 
2149.00, 
2150.00, 
2151.00, 
2152.00, 
2153.00, 
2154.00, 
2155.00, 
2156.00, 
2157.00, 
2158.00, 
2159.00, 
2160.00, 
2161.00, 
2162.00, 
2163.00, 
2164.00, 
2165.00, 
2166.00, 
2167.00, 
2168.00, 
2169.00, 
2170.00, 
2171.00, 
2172.00, 
2173.00, 
2174.00, 
2175.00, 
2176.00, 
2177.00, 
2178.00, 
2179.00, 
2180.00, 
2181.00, 
2182.00, 
2183.00, 
2184.00, 
2185.00, 
2186.00, 
2187.00, 
2188.00, 
2189.00, 
2190.00, 
2191.00, 
2192.00, 
2193.00, 
2194.00, 
2195.00, 
2196.00, 
2197.00, 
2198.00, 
2199.00, 
2200.00, 
2201.00, 
2202.00, 
2203.00, 
2204.00, 
2205.00, 
2206.00, 
2207.00, 
2208.00, 
2209.00, 
2210.00, 
2211.00, 
2212.00, 
2213.00, 
2214.00, 
2215.00, 
2216.00, 
2217.00, 
2218.00, 
2219.00, 
2220.00, 
2221.00, 
2222.00, 
2223.00, 
2224.00, 
2225.00, 
2226.00, 
2227.00, 
2228.00, 
2229.00, 
2230.00, 
2231.00, 
2232.00, 
2233.00, 
2234.00, 
2235.00, 
2236.00, 
2237.00, 
2238.00, 
2239.00, 
2240.00, 
2241.00, 
2242.00, 
2243.00, 
2244.00, 
2245.00, 
2246.00, 
2247.00, 
2248.00, 
2249.00, 
2250.00, 
2251.00, 
2252.00, 
2253.00, 
2254.00, 
2255.00, 
2256.00, 
2257.00, 
2258.00, 
2259.00, 
2260.00, 
2261.00, 
2262.00, 
2263.00, 
2264.00, 
2265.00, 
2266.00, 
2267.00, 
2268.00, 
2269.00, 
2270.00, 
2271.00, 
2272.00, 
2273.00, 
2274.00, 
2275.00, 
2276.00, 
2277.00, 
2278.00, 
2279.00, 
2280.00, 
2281.00, 
2282.00, 
2283.00, 
2284.00, 
2285.00, 
2286.00, 
2287.00, 
2288.00, 
2289.00, 
2290.00, 
2291.00, 
2292.00, 
2293.00, 
2294.00, 
2295.00, 
2296.00, 
2297.00, 
2298.00, 
2299.00, 
2300.00, 
2301.00, 
2302.00, 
2303.00, 
2304.00, 
2305.00, 
2306.00, 
2307.00, 
2308.00, 
2309.00, 
2310.00, 
2311.00, 
2312.00, 
2313.00, 
2314.00, 
2315.00, 
2316.00, 
2317.00, 
2318.00, 
2319.00, 
2320.00, 
2321.00, 
2322.00, 
2323.00, 
2324.00, 
2325.00, 
2326.00, 
2327.00, 
2328.00, 
2329.00, 
2330.00, 
2331.00, 
2332.00, 
2333.00, 
2334.00, 
2335.00, 
2336.00, 
2337.00, 
2338.00, 
2339.00, 
2340.00, 
2341.00, 
2342.00, 
2343.00, 
2344.00, 
2345.00, 
2346.00, 
2347.00, 
2348.00, 
2349.00, 
2350.00, 
2351.00, 
2352.00, 
2353.00, 
2354.00, 
2355.00, 
2356.00, 
2357.00, 
2358.00, 
2359.00, 
2360.00, 
2361.00, 
2362.00, 
2363.00, 
2364.00, 
2365.00, 
2366.00, 
2367.00, 
2368.00, 
2369.00, 
2370.00, 
2371.00, 
2372.00, 
2373.00, 
2374.00, 
2375.00, 
2376.00, 
2377.00, 
2378.00, 
2379.00, 
2380.00, 
2381.00, 
2382.00, 
2383.00, 
2384.00, 
2385.00, 
2386.00, 
2387.00, 
2388.00, 
2389.00, 
2390.00, 
2391.00, 
2392.00, 
2393.00, 
2394.00, 
2395.00, 
2396.00, 
2397.00, 
2398.00, 
2399.00, 
2400.00, 
2401.00, 
2402.00, 
2403.00, 
2404.00, 
2405.00, 
2406.00, 
2407.00, 
2408.00, 
2409.00, 
2410.00, 
2411.00, 
2412.00, 
2413.00, 
2414.00, 
2415.00, 
2416.00, 
2417.00, 
2418.00, 
2419.00, 
2420.00, 
2421.00, 
2422.00, 
2423.00, 
2424.00, 
2425.00, 
2426.00, 
2427.00, 
2428.00, 
2429.00, 
2430.00, 
2431.00, 
2432.00, 
2433.00, 
2434.00, 
2435.00, 
2436.00, 
2437.00, 
2438.00, 
2439.00, 
2440.00, 
2441.00, 
2442.00, 
2443.00, 
2444.00, 
2445.00, 
2446.00, 
2447.00, 
2448.00, 
2449.00, 
2450.00, 
2451.00, 
2452.00, 
2453.00, 
2454.00, 
2455.00, 
2456.00, 
2457.00, 
2458.00, 
2459.00, 
2460.00, 
2461.00, 
2462.00, 
2463.00, 
2464.00, 
2465.00, 
2466.00, 
2467.00, 
2468.00, 
2469.00, 
2470.00, 
2471.00, 
2472.00, 
2473.00, 
2474.00, 
2475.00, 
2476.00, 
2477.00, 
2478.00, 
2479.00, 
2480.00, 
2481.00, 
2482.00, 
2483.00, 
2484.00, 
2485.00, 
2486.00, 
2487.00, 
2488.00, 
2489.00, 
2490.00, 
2491.00, 
2492.00, 
2493.00, 
2494.00, 
2495.00, 
2496.00, 
2497.00, 
2498.00, 
2499.00, 
2500.00, 
2501.00, 
2502.00, 
2503.00, 
2504.00, 
2505.00, 
2506.00, 
2507.00, 
2508.00, 
2509.00, 
2510.00, 
2511.00, 
2512.00, 
2513.00, 
2514.00, 
2515.00, 
2516.00, 
2517.00, 
2518.00, 
2519.00, 
2520.00, 
2521.00, 
2522.00, 
2523.00, 
2524.00, 
2525.00, 
2526.00, 
2527.00, 
2528.00, 
2529.00, 
2530.00, 
2531.00, 
2532.00, 
2533.00, 
2534.00, 
2535.00, 
2536.00, 
2537.00, 
2538.00, 
2539.00, 
2540.00, 
2541.00, 
2542.00, 
2543.00, 
2544.00, 
2545.00, 
2546.00, 
2547.00, 
2548.00, 
2549.00, 
2550.00, 
2551.00, 
2552.00, 
2553.00, 
2554.00, 
2555.00, 
2556.00, 
2557.00, 
2558.00, 
2559.00, 
2560.00, 
2561.00, 
2562.00, 
2563.00, 
2564.00, 
2565.00, 
2566.00, 
2567.00, 
2568.00, 
2569.00, 
2570.00, 
2571.00, 
2572.00, 
2573.00, 
2574.00, 
2575.00, 
2576.00, 
2577.00, 
2578.00, 
2579.00, 
2580.00, 
2581.00, 
2582.00, 
2583.00, 
2584.00, 
2585.00, 
2586.00, 
2587.00, 
2588.00, 
2589.00, 
2590.00, 
2591.00, 
2592.00, 
2593.00, 
2594.00, 
2595.00, 
2596.00, 
2597.00, 
2598.00, 
2599.00, 
2600.00, 
