"1cP1 - RawData"
"Wavelength nm.","T%"
200.00,-0.002
201.00,0.001
202.00,0.002
203.00,0.003
204.00,0.002
205.00,-0.000
206.00,0.002
207.00,0.002
208.00,-0.001
209.00,-0.002
210.00,-0.001
211.00,0.000
212.00,0.001
213.00,0.001
214.00,0.001
215.00,-0.001
216.00,-0.001
217.00,0.002
218.00,0.001
219.00,-0.001
220.00,-0.000
221.00,0.003
222.00,0.001
223.00,-0.001
224.00,-0.002
225.00,0.001
226.00,0.001
227.00,-0.001
228.00,0.003
229.00,0.001
230.00,0.000
231.00,-0.000
232.00,0.002
233.00,0.001
234.00,-0.001
235.00,0.001
236.00,-0.000
237.00,0.000
238.00,-0.000
239.00,0.000
240.00,0.001
241.00,-0.000
242.00,-0.000
243.00,-0.000
244.00,-0.001
245.00,0.001
246.00,0.001
247.00,0.000
248.00,0.002
249.00,0.003
250.00,-0.001
251.00,0.001
252.00,0.002
253.00,0.000
254.00,0.002
255.00,0.001
256.00,0.001
257.00,-0.001
258.00,0.000
259.00,-0.001
260.00,-0.001
261.00,0.000
262.00,0.001
263.00,-0.001
264.00,0.001
265.00,-0.000
266.00,0.000
267.00,0.000
268.00,0.000
269.00,0.001
270.00,0.001
271.00,-0.000
272.00,-0.000
273.00,-0.001
274.00,0.001
275.00,-0.000
276.00,0.000
277.00,-0.001
278.00,0.000
279.00,0.001
280.00,-0.000
281.00,0.001
282.00,0.000
283.00,-0.000
284.00,-0.002
285.00,0.001
286.00,-0.000
287.00,0.001
288.00,0.000
289.00,0.001
290.00,-0.000
291.00,-0.001
292.00,-0.000
293.00,0.000
294.00,-0.000
295.00,0.003
296.00,0.001
297.00,0.000
298.00,0.001
299.00,-0.000
300.00,-0.000
301.00,0.002
302.00,-0.001
303.00,-0.000
304.00,-0.001
305.00,0.001
306.00,0.002
307.00,0.003
308.00,0.006
309.00,0.009
310.00,0.017
311.00,0.024
312.00,0.041
313.00,0.064
314.00,0.092
315.00,0.138
316.00,0.193
317.00,0.281
318.00,0.384
319.00,0.516
320.00,0.694
321.00,0.893
322.00,1.145
323.00,1.443
324.00,1.775
325.00,2.151
326.00,2.558
327.00,3.044
328.00,3.552
329.00,4.088
330.00,4.693
331.00,5.302
332.00,5.947
333.00,6.653
334.00,7.345
335.00,8.067
336.00,8.781
337.00,9.549
338.00,10.278
339.00,10.969
340.00,11.701
341.00,12.417
342.00,13.090
343.00,13.718
344.00,14.354
345.00,15.043
346.00,15.586
347.00,16.118
348.00,16.688
349.00,17.068
350.00,17.638
351.00,18.089
352.00,18.518
353.00,18.893
354.00,19.259
355.00,19.629
356.00,19.928
357.00,20.221
358.00,20.523
359.00,20.814
360.00,21.097
361.00,21.262
362.00,21.475
363.00,21.663
364.00,21.757
365.00,21.880
366.00,22.030
367.00,22.119
368.00,22.232
369.00,22.254
370.00,22.354
371.00,22.345
372.00,22.322
373.00,22.323
374.00,22.338
375.00,22.289
376.00,22.226
377.00,22.132
378.00,22.035
379.00,21.941
380.00,21.978
381.00,21.919
382.00,21.908
383.00,21.958
384.00,22.021
385.00,22.081
386.00,22.069
387.00,22.199
388.00,22.263
389.00,22.302
390.00,22.392
391.00,22.438
392.00,22.470
393.00,22.487
394.00,22.525
395.00,22.568
396.00,22.495
397.00,22.584
398.00,22.612
399.00,22.596
400.00,22.627
401.00,22.584
402.00,22.620
403.00,22.596
404.00,22.542
405.00,22.540
406.00,22.571
407.00,22.542
408.00,22.514
409.00,22.437
410.00,22.366
411.00,22.376
412.00,22.371
413.00,22.377
414.00,22.328
415.00,22.424
416.00,22.368
417.00,22.314
418.00,22.351
419.00,22.434
420.00,22.476
421.00,22.475
422.00,22.482
423.00,22.562
424.00,22.558
425.00,22.576
426.00,22.630
427.00,22.683
428.00,22.738
429.00,22.765
430.00,22.747
431.00,22.835
432.00,22.832
433.00,22.905
434.00,22.966
435.00,23.004
436.00,23.084
437.00,23.136
438.00,23.196
439.00,23.249
440.00,23.321
441.00,23.422
442.00,23.509
443.00,23.505
444.00,23.588
445.00,23.655
446.00,23.769
447.00,23.883
448.00,23.971
449.00,24.091
450.00,24.197
451.00,24.248
452.00,24.360
453.00,24.505
454.00,24.599
455.00,24.703
456.00,24.835
457.00,24.911
458.00,24.994
459.00,25.111
460.00,25.276
461.00,25.391
462.00,25.507
463.00,25.649
464.00,25.788
465.00,25.893
466.00,25.996
467.00,26.122
468.00,26.208
469.00,26.329
470.00,26.398
471.00,26.509
472.00,26.651
473.00,26.728
474.00,26.846
475.00,26.977
476.00,27.013
477.00,27.152
478.00,27.271
479.00,27.470
480.00,27.584
481.00,27.711
482.00,27.889
483.00,28.011
484.00,28.167
485.00,28.301
486.00,28.451
487.00,28.587
488.00,28.731
489.00,28.926
490.00,29.029
491.00,29.153
492.00,29.414
493.00,29.540
494.00,29.526
495.00,29.670
496.00,29.812
497.00,29.903
498.00,30.111
499.00,30.204
500.00,30.327
501.00,30.456
502.00,30.589
503.00,30.691
504.00,30.786
505.00,30.902
506.00,31.048
507.00,31.217
508.00,31.269
509.00,31.402
510.00,31.519
511.00,31.606
512.00,31.832
513.00,31.938
514.00,32.027
515.00,32.194
516.00,32.277
517.00,32.341
518.00,32.493
519.00,32.519
520.00,32.611
521.00,32.710
522.00,32.810
523.00,32.837
524.00,32.957
525.00,33.089
526.00,33.131
527.00,33.246
528.00,33.316
529.00,33.525
530.00,33.664
531.00,33.784
532.00,33.847
533.00,33.934
534.00,33.999
535.00,34.120
536.00,34.204
537.00,34.299
538.00,34.349
539.00,34.388
540.00,34.470
541.00,34.544
542.00,34.612
543.00,34.660
544.00,34.765
545.00,34.839
546.00,34.867
547.00,34.990
548.00,35.135
549.00,35.141
550.00,35.206
551.00,35.361
552.00,35.419
553.00,35.413
554.00,35.527
555.00,35.583
556.00,35.658
557.00,35.712
558.00,35.758
559.00,35.849
560.00,35.907
561.00,35.971
562.00,36.050
563.00,36.089
564.00,36.117
565.00,36.148
566.00,36.137
567.00,36.156
568.00,36.311
569.00,36.366
570.00,36.360
571.00,36.405
572.00,36.400
573.00,36.452
574.00,36.445
575.00,36.476
576.00,36.461
577.00,36.455
578.00,36.667
579.00,36.718
580.00,36.761
581.00,36.961
582.00,36.993
583.00,36.989
584.00,37.117
585.00,37.129
586.00,37.225
587.00,37.260
588.00,37.289
589.00,37.290
590.00,37.381
591.00,37.405
592.00,37.237
593.00,37.367
594.00,37.564
595.00,37.566
596.00,37.609
597.00,37.675
598.00,37.712
599.00,37.694
600.00,37.757
601.00,37.807
602.00,37.710
603.00,37.981
604.00,38.108
605.00,38.085
606.00,38.043
607.00,38.065
608.00,38.254
609.00,38.346
610.00,38.206
611.00,38.284
612.00,38.222
613.00,38.339
614.00,38.323
615.00,38.443
616.00,38.509
617.00,38.392
618.00,38.384
619.00,38.466
620.00,38.806
621.00,38.910
622.00,38.815
623.00,38.852
624.00,38.948
625.00,39.011
626.00,39.053
627.00,39.087
628.00,39.122
629.00,39.170
630.00,39.226
631.00,39.240
632.00,39.338
633.00,39.406
634.00,39.494
635.00,39.583
636.00,39.638
637.00,39.697
638.00,39.710
639.00,39.825
640.00,39.898
641.00,39.879
642.00,39.913
643.00,40.002
644.00,40.036
645.00,40.177
646.00,40.312
647.00,40.231
648.00,40.235
649.00,40.316
650.00,40.610
651.00,40.844
652.00,40.763
653.00,40.778
654.00,40.795
655.00,40.988
656.00,41.286
657.00,41.023
658.00,41.202
659.00,41.420
660.00,41.333
661.00,41.333
662.00,41.439
663.00,41.576
664.00,41.793
665.00,41.969
666.00,41.946
667.00,41.952
668.00,41.970
669.00,42.254
670.00,42.448
671.00,42.359
672.00,42.412
673.00,42.509
674.00,42.579
675.00,42.749
676.00,42.972
677.00,42.954
678.00,42.772
679.00,43.031
680.00,43.096
681.00,43.229
682.00,43.270
683.00,43.317
684.00,43.430
685.00,43.533
686.00,43.382
687.00,43.560
688.00,43.643
689.00,43.724
690.00,43.898
691.00,44.192
692.00,44.101
693.00,43.936
694.00,44.087
695.00,44.296
696.00,44.361
697.00,44.409
698.00,44.541
699.00,44.735
700.00,44.593
701.00,44.637
702.00,44.825
703.00,45.040
704.00,45.055
705.00,44.929
706.00,45.002
707.00,45.036
708.00,45.258
709.00,45.685
710.00,45.448
711.00,45.312
712.00,45.431
713.00,45.532
714.00,45.674
715.00,45.652
716.00,45.686
717.00,45.966
718.00,45.873
719.00,45.837
720.00,46.001
721.00,50.480
722.00,50.532
723.00,50.507
724.00,50.509
725.00,50.507
726.00,50.573
727.00,50.601
728.00,50.632
729.00,50.671
730.00,50.671
731.00,50.679
732.00,50.727
733.00,50.718
734.00,50.759
735.00,50.769
736.00,50.818
737.00,50.884
738.00,50.871
739.00,50.879
740.00,50.916
741.00,51.028
742.00,50.927
743.00,50.982
744.00,50.934
745.00,51.030
746.00,50.963
747.00,50.993
748.00,50.986
749.00,50.987
750.00,50.981
751.00,50.935
752.00,50.952
753.00,50.927
754.00,50.957
755.00,51.047
756.00,51.032
757.00,50.998
758.00,51.039
759.00,51.054
760.00,51.034
761.00,51.040
762.00,51.032
763.00,51.098
764.00,51.103
765.00,51.058
766.00,51.092
767.00,51.115
768.00,51.088
769.00,51.063
770.00,51.170
771.00,51.166
772.00,51.229
773.00,51.152
774.00,51.239
775.00,51.110
776.00,51.119
777.00,51.155
778.00,51.135
779.00,51.200
780.00,51.097
781.00,51.151
782.00,51.217
783.00,51.171
784.00,51.144
785.00,51.130
786.00,51.151
787.00,51.182
788.00,51.114
789.00,51.085
790.00,51.007
791.00,51.163
792.00,51.035
793.00,51.064
794.00,51.065
795.00,51.017
796.00,51.035
797.00,50.964
798.00,50.953
799.00,50.998
800.00,50.883
801.00,50.931
802.00,50.898
803.00,50.934
804.00,50.837
805.00,50.980
806.00,50.866
807.00,50.847
808.00,50.825
809.00,50.816
810.00,50.740
811.00,50.776
812.00,50.849
813.00,50.688
814.00,50.706
815.00,50.744
816.00,50.828
817.00,50.625
818.00,50.600
819.00,50.601
820.00,50.572
821.00,50.645
822.00,50.690
823.00,50.495
824.00,50.534
825.00,50.748
826.00,50.565
827.00,50.595
828.00,50.590
829.00,50.464
830.00,50.684
831.00,52.878
832.00,52.831
833.00,52.816
834.00,52.738
835.00,52.756
836.00,52.727
837.00,52.706
838.00,52.693
839.00,52.681
840.00,52.597
841.00,52.628
842.00,52.609
843.00,52.612
844.00,52.607
845.00,52.584
846.00,52.560
847.00,52.539
848.00,52.516
849.00,52.439
850.00,52.420
851.00,52.358
852.00,52.372
853.00,52.293
854.00,52.289
855.00,52.240
856.00,52.272
857.00,52.235
858.00,52.228
859.00,52.170
860.00,52.170
861.00,52.149
862.00,52.111
863.00,52.132
864.00,52.097
865.00,52.128
866.00,52.178
867.00,52.063
868.00,52.061
869.00,52.059
870.00,52.046
871.00,52.023
872.00,52.001
873.00,51.977
874.00,52.012
875.00,51.957
876.00,51.989
877.00,51.955
878.00,51.934
879.00,51.938
880.00,51.907
881.00,51.884
882.00,51.915
883.00,51.866
884.00,51.839
885.00,51.821
886.00,51.811
887.00,51.777
888.00,51.778
889.00,51.750
890.00,51.750
891.00,51.705
892.00,51.728
893.00,51.565
894.00,51.676
895.00,51.603
896.00,51.605
897.00,51.602
898.00,51.549
899.00,51.550
900.00,51.544
901.00,51.505
902.00,51.518
903.00,51.496
904.00,51.513
905.00,51.460
906.00,51.476
907.00,51.445
908.00,51.411
909.00,51.366
910.00,51.401
911.00,51.371
912.00,51.346
913.00,51.312
914.00,51.296
915.00,51.248
916.00,51.302
917.00,51.153
918.00,51.228
919.00,51.180
920.00,51.127
921.00,51.154
922.00,51.135
923.00,51.085
924.00,51.066
925.00,51.088
926.00,51.063
927.00,51.033
928.00,51.011
929.00,51.031
930.00,50.978
931.00,50.965
932.00,50.934
933.00,50.951
934.00,50.923
935.00,50.882
936.00,50.907
937.00,50.845
938.00,50.835
939.00,50.829
940.00,50.799
941.00,50.802
942.00,50.754
943.00,50.759
944.00,50.722
945.00,50.714
946.00,50.722
947.00,50.684
948.00,50.654
949.00,50.646
950.00,50.629
951.00,50.588
952.00,50.575
953.00,50.523
954.00,50.505
955.00,50.469
956.00,50.466
957.00,50.428
958.00,50.433
959.00,50.389
960.00,50.395
961.00,50.377
962.00,50.379
963.00,50.319
964.00,50.325
965.00,50.303
966.00,50.285
967.00,50.303
968.00,50.259
969.00,50.300
970.00,50.269
971.00,50.289
972.00,50.235
973.00,50.291
974.00,50.307
975.00,50.263
976.00,50.298
977.00,50.275
978.00,50.306
979.00,50.261
980.00,50.277
981.00,50.256
982.00,50.220
983.00,50.254
984.00,50.231
985.00,50.258
986.00,50.200
987.00,50.252
988.00,50.201
989.00,50.196
990.00,50.200
991.00,50.170
992.00,50.182
993.00,50.167
994.00,50.156
995.00,50.126
996.00,50.110
997.00,50.105
998.00,50.085
999.00,50.107
1000.00,50.053
1001.00,50.071
1002.00,50.055
1003.00,50.028
1004.00,50.014
1005.00,49.973
1006.00,50.033
1007.00,49.992
1008.00,49.972
1009.00,49.960
1010.00,49.955
1011.00,49.936
1012.00,49.915
1013.00,49.916
1014.00,49.882
1015.00,49.886
1016.00,49.838
1017.00,49.850
1018.00,49.839
1019.00,49.793
1020.00,49.809
1021.00,49.782
1022.00,49.772
1023.00,49.754
1024.00,49.751
1025.00,49.735
1026.00,49.724
1027.00,49.688
1028.00,49.693
1029.00,49.675
1030.00,49.630
1031.00,49.662
1032.00,49.609
1033.00,49.604
1034.00,49.575
1035.00,49.536
1036.00,49.519
1037.00,49.528
1038.00,49.503
1039.00,49.474
1040.00,49.471
1041.00,49.437
1042.00,49.441
1043.00,49.407
1044.00,49.435
1045.00,49.436
1046.00,49.416
1047.00,49.434
1048.00,49.449
1049.00,49.446
1050.00,49.448
1051.00,49.498
1052.00,49.484
1053.00,49.501
1054.00,49.489
1055.00,49.506
1056.00,49.519
1057.00,49.519
1058.00,49.521
1059.00,49.509
1060.00,49.506
1061.00,49.495
1062.00,49.494
1063.00,49.493
1064.00,49.497
1065.00,49.498
1066.00,49.483
1067.00,49.481
1068.00,49.499
1069.00,49.453
1070.00,49.436
1071.00,49.406
1072.00,49.442
1073.00,49.421
1074.00,49.407
1075.00,49.411
1076.00,49.419
1077.00,49.394
1078.00,49.385
1079.00,49.377
1080.00,49.359
1081.00,49.353
1082.00,49.342
1083.00,49.332
1084.00,49.327
1085.00,49.333
1086.00,49.326
1087.00,49.315
1088.00,49.290
1089.00,49.283
1090.00,49.281
1091.00,49.294
1092.00,49.291
1093.00,49.264
1094.00,49.246
1095.00,49.250
1096.00,49.224
1097.00,49.221
1098.00,49.218
1099.00,49.203
1100.00,49.190
1101.00,49.175
1102.00,49.170
1103.00,49.193
1104.00,49.177
1105.00,49.166
1106.00,49.151
1107.00,49.123
1108.00,49.126
1109.00,49.133
1110.00,49.107
1111.00,49.114
1112.00,49.099
1113.00,49.087
1114.00,49.066
1115.00,49.060
1116.00,49.072
1117.00,49.059
1118.00,49.041
1119.00,49.078
1120.00,49.051
1121.00,49.037
1122.00,49.035
1123.00,49.028
1124.00,49.011
1125.00,49.010
1126.00,48.988
1127.00,48.998
1128.00,48.982
1129.00,48.960
1130.00,48.979
1131.00,48.986
1132.00,48.962
1133.00,48.943
1134.00,48.950
1135.00,48.935
1136.00,48.941
1137.00,48.935
1138.00,48.938
1139.00,48.940
1140.00,48.923
1141.00,48.918
1142.00,48.914
1143.00,48.922
1144.00,48.906
1145.00,48.907
1146.00,48.909
1147.00,48.900
1148.00,48.878
1149.00,48.899
1150.00,48.888
1151.00,48.882
1152.00,48.884
1153.00,48.880
1154.00,48.862
1155.00,48.882
1156.00,48.868
1157.00,48.892
1158.00,48.875
1159.00,48.860
1160.00,48.872
1161.00,48.898
1162.00,48.875
1163.00,48.879
1164.00,48.894
1165.00,48.880
1166.00,48.877
1167.00,48.853
1168.00,48.889
1169.00,48.878
1170.00,48.864
1171.00,48.863
1172.00,48.873
1173.00,48.850
1174.00,48.865
1175.00,48.863
1176.00,48.854
1177.00,48.846
1178.00,48.850
1179.00,48.858
1180.00,48.854
1181.00,48.857
1182.00,48.853
1183.00,48.849
1184.00,48.834
1185.00,48.865
1186.00,48.850
1187.00,48.851
1188.00,48.862
1189.00,48.856
1190.00,48.854
1191.00,48.843
1192.00,48.850
1193.00,48.840
1194.00,48.853
1195.00,48.817
1196.00,48.861
1197.00,48.857
1198.00,48.835
1199.00,48.841
1200.00,48.846
1201.00,48.866
1202.00,48.850
1203.00,48.832
1204.00,48.840
1205.00,48.868
1206.00,48.830
1207.00,48.843
1208.00,48.838
1209.00,48.835
1210.00,48.852
1211.00,48.855
1212.00,48.856
1213.00,48.826
1214.00,48.839
1215.00,48.832
1216.00,48.838
1217.00,48.830
1218.00,48.832
1219.00,48.866
1220.00,48.824
1221.00,48.856
1222.00,48.836
1223.00,48.866
1224.00,48.847
1225.00,48.840
1226.00,48.865
1227.00,48.839
1228.00,48.837
1229.00,48.857
1230.00,48.894
1231.00,48.871
1232.00,48.913
1233.00,48.911
1234.00,48.917
1235.00,48.909
1236.00,48.895
1237.00,48.914
1238.00,48.902
1239.00,48.900
1240.00,48.905
1241.00,48.943
1242.00,48.923
1243.00,48.928
1244.00,48.901
1245.00,48.926
1246.00,48.945
1247.00,48.920
1248.00,48.932
1249.00,48.935
1250.00,48.944
1251.00,48.946
1252.00,48.953
1253.00,48.926
1254.00,48.976
1255.00,48.954
1256.00,48.966
1257.00,48.976
1258.00,48.982
1259.00,48.973
1260.00,49.011
1261.00,49.008
1262.00,49.009
1263.00,49.015
1264.00,49.014
1265.00,49.037
1266.00,49.023
1267.00,49.047
1268.00,49.039
1269.00,49.022
1270.00,49.046
1271.00,49.058
1272.00,49.051
1273.00,49.057
1274.00,49.066
1275.00,49.068
1276.00,49.077
1277.00,49.083
1278.00,49.104
1279.00,49.101
1280.00,49.081
1281.00,49.119
1282.00,49.118
1283.00,49.108
1284.00,49.118
1285.00,49.133
1286.00,49.156
1287.00,49.138
1288.00,49.135
1289.00,49.125
1290.00,49.159
1291.00,49.139
1292.00,49.161
1293.00,49.163
1294.00,49.167
1295.00,49.215
1296.00,49.234
1297.00,49.211
1298.00,49.255
1299.00,49.213
1300.00,49.218
1301.00,49.226
1302.00,49.233
1303.00,49.243
1304.00,49.242
1305.00,49.247
1306.00,49.265
1307.00,49.286
1308.00,49.290
1309.00,49.307
1310.00,49.293
1311.00,49.293
1312.00,49.312
1313.00,49.308
1314.00,49.338
1315.00,49.345
1316.00,49.329
1317.00,49.370
1318.00,49.375
1319.00,49.362
1320.00,49.378
1321.00,49.511
1322.00,49.512
1323.00,49.511
1324.00,49.519
1325.00,49.500
1326.00,49.527
1327.00,49.495
1328.00,49.492
1329.00,49.512
1330.00,49.521
1331.00,49.522
1332.00,49.529
1333.00,49.528
1334.00,49.556
1335.00,49.565
1336.00,49.611
1337.00,49.641
1338.00,49.688
1339.00,49.744
1340.00,49.792
1341.00,49.847
1342.00,49.917
1343.00,49.956
1344.00,50.006
1345.00,50.080
1346.00,50.114
1347.00,50.149
1348.00,50.179
1349.00,50.174
1350.00,50.208
1351.00,50.214
1352.00,50.217
1353.00,50.264
1354.00,50.241
1355.00,50.196
1356.00,50.271
1357.00,50.238
1358.00,50.293
1359.00,50.304
1360.00,50.289
1361.00,50.317
1362.00,50.324
1363.00,50.350
1364.00,50.338
1365.00,50.307
1366.00,50.357
1367.00,50.318
1368.00,50.322
1369.00,50.331
1370.00,50.317
1371.00,50.266
1372.00,50.291
1373.00,50.298
1374.00,50.308
1375.00,50.310
1376.00,50.287
1377.00,50.269
1378.00,50.395
1379.00,50.319
1380.00,50.302
1381.00,50.308
1382.00,50.264
1383.00,50.314
1384.00,50.249
1385.00,50.286
1386.00,50.331
1387.00,50.249
1388.00,50.259
1389.00,50.295
1390.00,50.291
1391.00,50.283
1392.00,50.261
1393.00,50.302
1394.00,50.302
1395.00,50.277
1396.00,50.252
1397.00,50.286
1398.00,50.324
1399.00,50.291
1400.00,50.251
1401.00,50.248
1402.00,50.366
1403.00,50.306
1404.00,50.316
1405.00,50.341
1406.00,50.370
1407.00,50.349
1408.00,50.353
1409.00,50.347
1410.00,50.372
1411.00,50.375
1412.00,50.407
1413.00,50.350
1414.00,50.375
1415.00,50.396
1416.00,50.445
1417.00,50.462
1418.00,50.437
1419.00,50.442
1420.00,50.461
1421.00,50.499
1422.00,50.508
1423.00,50.517
1424.00,50.523
1425.00,50.557
1426.00,50.541
1427.00,50.575
1428.00,50.571
1429.00,50.582
1430.00,50.596
1431.00,50.630
1432.00,50.652
1433.00,50.678
1434.00,50.672
1435.00,50.742
1436.00,50.743
1437.00,50.727
1438.00,50.755
1439.00,50.782
1440.00,50.783
1441.00,50.798
1442.00,50.815
1443.00,50.838
1444.00,50.902
1445.00,50.818
1446.00,50.876
1447.00,50.917
1448.00,50.934
1449.00,50.953
1450.00,50.958
1451.00,50.973
1452.00,51.040
1453.00,51.012
1454.00,51.041
1455.00,51.077
1456.00,51.087
1457.00,51.079
1458.00,51.111
1459.00,51.119
1460.00,51.161
1461.00,51.144
1462.00,51.198
1463.00,51.207
1464.00,51.207
1465.00,51.220
1466.00,51.222
1467.00,51.232
1468.00,51.290
1469.00,51.272
1470.00,51.270
1471.00,51.297
1472.00,51.297
1473.00,51.310
1474.00,51.370
1475.00,51.354
1476.00,51.372
1477.00,51.382
1478.00,51.431
1479.00,51.432
1480.00,51.415
1481.00,51.424
1482.00,51.474
1483.00,51.479
1484.00,51.503
1485.00,51.528
1486.00,51.537
1487.00,51.557
1488.00,51.596
1489.00,51.562
1490.00,51.597
1491.00,51.609
1492.00,51.615
1493.00,51.612
1494.00,51.640
1495.00,51.644
1496.00,51.666
1497.00,51.650
1498.00,51.676
1499.00,51.691
1500.00,51.690
1501.00, 
1502.00, 
1503.00, 
1504.00, 
1505.00, 
1506.00, 
1507.00, 
1508.00, 
1509.00, 
1510.00, 
1511.00, 
1512.00, 
1513.00, 
1514.00, 
1515.00, 
1516.00, 
1517.00, 
1518.00, 
1519.00, 
1520.00, 
1521.00, 
1522.00, 
1523.00, 
1524.00, 
1525.00, 
1526.00, 
1527.00, 
1528.00, 
1529.00, 
1530.00, 
1531.00, 
1532.00, 
1533.00, 
1534.00, 
1535.00, 
1536.00, 
1537.00, 
1538.00, 
1539.00, 
1540.00, 
1541.00, 
1542.00, 
1543.00, 
1544.00, 
1545.00, 
1546.00, 
1547.00, 
1548.00, 
1549.00, 
1550.00, 
1551.00, 
1552.00, 
1553.00, 
1554.00, 
1555.00, 
1556.00, 
1557.00, 
1558.00, 
1559.00, 
1560.00, 
1561.00, 
1562.00, 
1563.00, 
1564.00, 
1565.00, 
1566.00, 
1567.00, 
1568.00, 
1569.00, 
1570.00, 
1571.00, 
1572.00, 
1573.00, 
1574.00, 
1575.00, 
1576.00, 
1577.00, 
1578.00, 
1579.00, 
1580.00, 
1581.00, 
1582.00, 
1583.00, 
1584.00, 
1585.00, 
1586.00, 
1587.00, 
1588.00, 
1589.00, 
1590.00, 
1591.00, 
1592.00, 
1593.00, 
1594.00, 
1595.00, 
1596.00, 
1597.00, 
1598.00, 
1599.00, 
1600.00, 
1601.00, 
1602.00, 
1603.00, 
1604.00, 
1605.00, 
1606.00, 
1607.00, 
1608.00, 
1609.00, 
1610.00, 
1611.00, 
1612.00, 
1613.00, 
1614.00, 
1615.00, 
1616.00, 
1617.00, 
1618.00, 
1619.00, 
1620.00, 
1621.00, 
1622.00, 
1623.00, 
1624.00, 
1625.00, 
1626.00, 
1627.00, 
1628.00, 
1629.00, 
1630.00, 
1631.00, 
1632.00, 
1633.00, 
1634.00, 
1635.00, 
1636.00, 
1637.00, 
1638.00, 
1639.00, 
1640.00, 
1641.00, 
1642.00, 
1643.00, 
1644.00, 
1645.00, 
1646.00, 
1647.00, 
1648.00, 
1649.00, 
1650.00, 
1651.00, 
1652.00, 
1653.00, 
1654.00, 
1655.00, 
1656.00, 
1657.00, 
1658.00, 
1659.00, 
1660.00, 
1661.00, 
1662.00, 
1663.00, 
1664.00, 
1665.00, 
1666.00, 
1667.00, 
1668.00, 
1669.00, 
1670.00, 
1671.00, 
1672.00, 
1673.00, 
1674.00, 
1675.00, 
1676.00, 
1677.00, 
1678.00, 
1679.00, 
1680.00, 
1681.00, 
1682.00, 
1683.00, 
1684.00, 
1685.00, 
1686.00, 
1687.00, 
1688.00, 
1689.00, 
1690.00, 
1691.00, 
1692.00, 
1693.00, 
1694.00, 
1695.00, 
1696.00, 
1697.00, 
1698.00, 
1699.00, 
1700.00, 
1701.00, 
1702.00, 
1703.00, 
1704.00, 
1705.00, 
1706.00, 
1707.00, 
1708.00, 
1709.00, 
1710.00, 
1711.00, 
1712.00, 
1713.00, 
1714.00, 
1715.00, 
1716.00, 
1717.00, 
1718.00, 
1719.00, 
1720.00, 
1721.00, 
1722.00, 
1723.00, 
1724.00, 
1725.00, 
1726.00, 
1727.00, 
1728.00, 
1729.00, 
1730.00, 
1731.00, 
1732.00, 
1733.00, 
1734.00, 
1735.00, 
1736.00, 
1737.00, 
1738.00, 
1739.00, 
1740.00, 
1741.00, 
1742.00, 
1743.00, 
1744.00, 
1745.00, 
1746.00, 
1747.00, 
1748.00, 
1749.00, 
1750.00, 
1751.00, 
1752.00, 
1753.00, 
1754.00, 
1755.00, 
1756.00, 
1757.00, 
1758.00, 
1759.00, 
1760.00, 
1761.00, 
1762.00, 
1763.00, 
1764.00, 
1765.00, 
1766.00, 
1767.00, 
1768.00, 
1769.00, 
1770.00, 
1771.00, 
1772.00, 
1773.00, 
1774.00, 
1775.00, 
1776.00, 
1777.00, 
1778.00, 
1779.00, 
1780.00, 
1781.00, 
1782.00, 
1783.00, 
1784.00, 
1785.00, 
1786.00, 
1787.00, 
1788.00, 
1789.00, 
1790.00, 
1791.00, 
1792.00, 
1793.00, 
1794.00, 
1795.00, 
1796.00, 
1797.00, 
1798.00, 
1799.00, 
1800.00, 
1801.00, 
1802.00, 
1803.00, 
1804.00, 
1805.00, 
1806.00, 
1807.00, 
1808.00, 
1809.00, 
1810.00, 
1811.00, 
1812.00, 
1813.00, 
1814.00, 
1815.00, 
1816.00, 
1817.00, 
1818.00, 
1819.00, 
1820.00, 
1821.00, 
1822.00, 
1823.00, 
1824.00, 
1825.00, 
1826.00, 
1827.00, 
1828.00, 
1829.00, 
1830.00, 
1831.00, 
1832.00, 
1833.00, 
1834.00, 
1835.00, 
1836.00, 
1837.00, 
1838.00, 
1839.00, 
1840.00, 
1841.00, 
1842.00, 
1843.00, 
1844.00, 
1845.00, 
1846.00, 
1847.00, 
1848.00, 
1849.00, 
1850.00, 
1851.00, 
1852.00, 
1853.00, 
1854.00, 
1855.00, 
1856.00, 
1857.00, 
1858.00, 
1859.00, 
1860.00, 
1861.00, 
1862.00, 
1863.00, 
1864.00, 
1865.00, 
1866.00, 
1867.00, 
1868.00, 
1869.00, 
1870.00, 
1871.00, 
1872.00, 
1873.00, 
1874.00, 
1875.00, 
1876.00, 
1877.00, 
1878.00, 
1879.00, 
1880.00, 
1881.00, 
1882.00, 
1883.00, 
1884.00, 
1885.00, 
1886.00, 
1887.00, 
1888.00, 
1889.00, 
1890.00, 
1891.00, 
1892.00, 
1893.00, 
1894.00, 
1895.00, 
1896.00, 
1897.00, 
1898.00, 
1899.00, 
1900.00, 
1901.00, 
1902.00, 
1903.00, 
1904.00, 
1905.00, 
1906.00, 
1907.00, 
1908.00, 
1909.00, 
1910.00, 
1911.00, 
1912.00, 
1913.00, 
1914.00, 
1915.00, 
1916.00, 
1917.00, 
1918.00, 
1919.00, 
1920.00, 
1921.00, 
1922.00, 
1923.00, 
1924.00, 
1925.00, 
1926.00, 
1927.00, 
1928.00, 
1929.00, 
1930.00, 
1931.00, 
1932.00, 
1933.00, 
1934.00, 
1935.00, 
1936.00, 
1937.00, 
1938.00, 
1939.00, 
1940.00, 
1941.00, 
1942.00, 
1943.00, 
1944.00, 
1945.00, 
1946.00, 
1947.00, 
1948.00, 
1949.00, 
1950.00, 
1951.00, 
1952.00, 
1953.00, 
1954.00, 
1955.00, 
1956.00, 
1957.00, 
1958.00, 
1959.00, 
1960.00, 
1961.00, 
1962.00, 
1963.00, 
1964.00, 
1965.00, 
1966.00, 
1967.00, 
1968.00, 
1969.00, 
1970.00, 
1971.00, 
1972.00, 
1973.00, 
1974.00, 
1975.00, 
1976.00, 
1977.00, 
1978.00, 
1979.00, 
1980.00, 
1981.00, 
1982.00, 
1983.00, 
1984.00, 
1985.00, 
1986.00, 
1987.00, 
1988.00, 
1989.00, 
1990.00, 
1991.00, 
1992.00, 
1993.00, 
1994.00, 
1995.00, 
1996.00, 
1997.00, 
1998.00, 
1999.00, 
2000.00, 
2001.00, 
2002.00, 
2003.00, 
2004.00, 
2005.00, 
2006.00, 
2007.00, 
2008.00, 
2009.00, 
2010.00, 
2011.00, 
2012.00, 
2013.00, 
2014.00, 
2015.00, 
2016.00, 
2017.00, 
2018.00, 
2019.00, 
2020.00, 
2021.00, 
2022.00, 
2023.00, 
2024.00, 
2025.00, 
2026.00, 
2027.00, 
2028.00, 
2029.00, 
2030.00, 
2031.00, 
2032.00, 
2033.00, 
2034.00, 
2035.00, 
2036.00, 
2037.00, 
2038.00, 
2039.00, 
2040.00, 
2041.00, 
2042.00, 
2043.00, 
2044.00, 
2045.00, 
2046.00, 
2047.00, 
2048.00, 
2049.00, 
2050.00, 
2051.00, 
2052.00, 
2053.00, 
2054.00, 
2055.00, 
2056.00, 
2057.00, 
2058.00, 
2059.00, 
2060.00, 
2061.00, 
2062.00, 
2063.00, 
2064.00, 
2065.00, 
2066.00, 
2067.00, 
2068.00, 
2069.00, 
2070.00, 
2071.00, 
2072.00, 
2073.00, 
2074.00, 
2075.00, 
2076.00, 
2077.00, 
2078.00, 
2079.00, 
2080.00, 
2081.00, 
2082.00, 
2083.00, 
2084.00, 
2085.00, 
2086.00, 
2087.00, 
2088.00, 
2089.00, 
2090.00, 
2091.00, 
2092.00, 
2093.00, 
2094.00, 
2095.00, 
2096.00, 
2097.00, 
2098.00, 
2099.00, 
2100.00, 
2101.00, 
2102.00, 
2103.00, 
2104.00, 
2105.00, 
2106.00, 
2107.00, 
2108.00, 
2109.00, 
2110.00, 
2111.00, 
2112.00, 
2113.00, 
2114.00, 
2115.00, 
2116.00, 
2117.00, 
2118.00, 
2119.00, 
2120.00, 
2121.00, 
2122.00, 
2123.00, 
2124.00, 
2125.00, 
2126.00, 
2127.00, 
2128.00, 
2129.00, 
2130.00, 
2131.00, 
2132.00, 
2133.00, 
2134.00, 
2135.00, 
2136.00, 
2137.00, 
2138.00, 
2139.00, 
2140.00, 
2141.00, 
2142.00, 
2143.00, 
2144.00, 
2145.00, 
2146.00, 
2147.00, 
2148.00, 
2149.00, 
2150.00, 
2151.00, 
2152.00, 
2153.00, 
2154.00, 
2155.00, 
2156.00, 
2157.00, 
2158.00, 
2159.00, 
2160.00, 
2161.00, 
2162.00, 
2163.00, 
2164.00, 
2165.00, 
2166.00, 
2167.00, 
2168.00, 
2169.00, 
2170.00, 
2171.00, 
2172.00, 
2173.00, 
2174.00, 
2175.00, 
2176.00, 
2177.00, 
2178.00, 
2179.00, 
2180.00, 
2181.00, 
2182.00, 
2183.00, 
2184.00, 
2185.00, 
2186.00, 
2187.00, 
2188.00, 
2189.00, 
2190.00, 
2191.00, 
2192.00, 
2193.00, 
2194.00, 
2195.00, 
2196.00, 
2197.00, 
2198.00, 
2199.00, 
2200.00, 
2201.00, 
2202.00, 
2203.00, 
2204.00, 
2205.00, 
2206.00, 
2207.00, 
2208.00, 
2209.00, 
2210.00, 
2211.00, 
2212.00, 
2213.00, 
2214.00, 
2215.00, 
2216.00, 
2217.00, 
2218.00, 
2219.00, 
2220.00, 
2221.00, 
2222.00, 
2223.00, 
2224.00, 
2225.00, 
2226.00, 
2227.00, 
2228.00, 
2229.00, 
2230.00, 
2231.00, 
2232.00, 
2233.00, 
2234.00, 
2235.00, 
2236.00, 
2237.00, 
2238.00, 
2239.00, 
2240.00, 
2241.00, 
2242.00, 
2243.00, 
2244.00, 
2245.00, 
2246.00, 
2247.00, 
2248.00, 
2249.00, 
2250.00, 
2251.00, 
2252.00, 
2253.00, 
2254.00, 
2255.00, 
2256.00, 
2257.00, 
2258.00, 
2259.00, 
2260.00, 
2261.00, 
2262.00, 
2263.00, 
2264.00, 
2265.00, 
2266.00, 
2267.00, 
2268.00, 
2269.00, 
2270.00, 
2271.00, 
2272.00, 
2273.00, 
2274.00, 
2275.00, 
2276.00, 
2277.00, 
2278.00, 
2279.00, 
2280.00, 
2281.00, 
2282.00, 
2283.00, 
2284.00, 
2285.00, 
2286.00, 
2287.00, 
2288.00, 
2289.00, 
2290.00, 
2291.00, 
2292.00, 
2293.00, 
2294.00, 
2295.00, 
2296.00, 
2297.00, 
2298.00, 
2299.00, 
2300.00, 
2301.00, 
2302.00, 
2303.00, 
2304.00, 
2305.00, 
2306.00, 
2307.00, 
2308.00, 
2309.00, 
2310.00, 
2311.00, 
2312.00, 
2313.00, 
2314.00, 
2315.00, 
2316.00, 
2317.00, 
2318.00, 
2319.00, 
2320.00, 
2321.00, 
2322.00, 
2323.00, 
2324.00, 
2325.00, 
2326.00, 
2327.00, 
2328.00, 
2329.00, 
2330.00, 
2331.00, 
2332.00, 
2333.00, 
2334.00, 
2335.00, 
2336.00, 
2337.00, 
2338.00, 
2339.00, 
2340.00, 
2341.00, 
2342.00, 
2343.00, 
2344.00, 
2345.00, 
2346.00, 
2347.00, 
2348.00, 
2349.00, 
2350.00, 
2351.00, 
2352.00, 
2353.00, 
2354.00, 
2355.00, 
2356.00, 
2357.00, 
2358.00, 
2359.00, 
2360.00, 
2361.00, 
2362.00, 
2363.00, 
2364.00, 
2365.00, 
2366.00, 
2367.00, 
2368.00, 
2369.00, 
2370.00, 
2371.00, 
2372.00, 
2373.00, 
2374.00, 
2375.00, 
2376.00, 
2377.00, 
2378.00, 
2379.00, 
2380.00, 
2381.00, 
2382.00, 
2383.00, 
2384.00, 
2385.00, 
2386.00, 
2387.00, 
2388.00, 
2389.00, 
2390.00, 
2391.00, 
2392.00, 
2393.00, 
2394.00, 
2395.00, 
2396.00, 
2397.00, 
2398.00, 
2399.00, 
2400.00, 
2401.00, 
2402.00, 
2403.00, 
2404.00, 
2405.00, 
2406.00, 
2407.00, 
2408.00, 
2409.00, 
2410.00, 
2411.00, 
2412.00, 
2413.00, 
2414.00, 
2415.00, 
2416.00, 
2417.00, 
2418.00, 
2419.00, 
2420.00, 
2421.00, 
2422.00, 
2423.00, 
2424.00, 
2425.00, 
2426.00, 
2427.00, 
2428.00, 
2429.00, 
2430.00, 
2431.00, 
2432.00, 
2433.00, 
2434.00, 
2435.00, 
2436.00, 
2437.00, 
2438.00, 
2439.00, 
2440.00, 
2441.00, 
2442.00, 
2443.00, 
2444.00, 
2445.00, 
2446.00, 
2447.00, 
2448.00, 
2449.00, 
2450.00, 
2451.00, 
2452.00, 
2453.00, 
2454.00, 
2455.00, 
2456.00, 
2457.00, 
2458.00, 
2459.00, 
2460.00, 
2461.00, 
2462.00, 
2463.00, 
2464.00, 
2465.00, 
2466.00, 
2467.00, 
2468.00, 
2469.00, 
2470.00, 
2471.00, 
2472.00, 
2473.00, 
2474.00, 
2475.00, 
2476.00, 
2477.00, 
2478.00, 
2479.00, 
2480.00, 
2481.00, 
2482.00, 
2483.00, 
2484.00, 
2485.00, 
2486.00, 
2487.00, 
2488.00, 
2489.00, 
2490.00, 
2491.00, 
2492.00, 
2493.00, 
2494.00, 
2495.00, 
2496.00, 
2497.00, 
2498.00, 
2499.00, 
2500.00, 
2501.00, 
2502.00, 
2503.00, 
2504.00, 
2505.00, 
2506.00, 
2507.00, 
2508.00, 
2509.00, 
2510.00, 
2511.00, 
2512.00, 
2513.00, 
2514.00, 
2515.00, 
2516.00, 
2517.00, 
2518.00, 
2519.00, 
2520.00, 
2521.00, 
2522.00, 
2523.00, 
2524.00, 
2525.00, 
2526.00, 
2527.00, 
2528.00, 
2529.00, 
2530.00, 
2531.00, 
2532.00, 
2533.00, 
2534.00, 
2535.00, 
2536.00, 
2537.00, 
2538.00, 
2539.00, 
2540.00, 
2541.00, 
2542.00, 
2543.00, 
2544.00, 
2545.00, 
2546.00, 
2547.00, 
2548.00, 
2549.00, 
2550.00, 
2551.00, 
2552.00, 
2553.00, 
2554.00, 
2555.00, 
2556.00, 
2557.00, 
2558.00, 
2559.00, 
2560.00, 
2561.00, 
2562.00, 
2563.00, 
2564.00, 
2565.00, 
2566.00, 
2567.00, 
2568.00, 
2569.00, 
2570.00, 
2571.00, 
2572.00, 
2573.00, 
2574.00, 
2575.00, 
2576.00, 
2577.00, 
2578.00, 
2579.00, 
2580.00, 
2581.00, 
2582.00, 
2583.00, 
2584.00, 
2585.00, 
2586.00, 
2587.00, 
2588.00, 
2589.00, 
2590.00, 
2591.00, 
2592.00, 
2593.00, 
2594.00, 
2595.00, 
2596.00, 
2597.00, 
2598.00, 
2599.00, 
2600.00, 
