"1cP2 - RawData"
"Wavelength nm.","T%"
200.00,-0.002
201.00,0.002
202.00,-0.001
203.00,-0.001
204.00,0.001
205.00,0.000
206.00,0.002
207.00,0.001
208.00,0.003
209.00,0.002
210.00,-0.000
211.00,-0.001
212.00,0.000
213.00,0.003
214.00,0.001
215.00,0.001
216.00,-0.002
217.00,0.003
218.00,0.003
219.00,-0.001
220.00,0.002
221.00,0.001
222.00,-0.000
223.00,0.000
224.00,0.003
225.00,0.001
226.00,0.001
227.00,0.002
228.00,0.001
229.00,-0.001
230.00,-0.001
231.00,0.003
232.00,0.000
233.00,-0.001
234.00,0.000
235.00,0.000
236.00,0.001
237.00,0.001
238.00,0.000
239.00,0.000
240.00,-0.000
241.00,-0.002
242.00,0.001
243.00,-0.000
244.00,0.000
245.00,-0.000
246.00,-0.001
247.00,0.002
248.00,0.001
249.00,0.002
250.00,-0.003
251.00,-0.001
252.00,0.001
253.00,0.000
254.00,-0.001
255.00,0.001
256.00,0.000
257.00,-0.001
258.00,0.001
259.00,-0.000
260.00,0.001
261.00,0.002
262.00,-0.001
263.00,-0.001
264.00,-0.001
265.00,0.002
266.00,0.001
267.00,-0.000
268.00,0.000
269.00,-0.000
270.00,0.001
271.00,-0.000
272.00,0.000
273.00,-0.001
274.00,-0.001
275.00,0.002
276.00,-0.001
277.00,-0.000
278.00,0.001
279.00,-0.002
280.00,-0.000
281.00,-0.001
282.00,-0.000
283.00,0.002
284.00,0.001
285.00,0.002
286.00,0.002
287.00,-0.000
288.00,0.000
289.00,0.000
290.00,-0.001
291.00,-0.001
292.00,-0.000
293.00,-0.000
294.00,0.001
295.00,0.001
296.00,0.001
297.00,0.002
298.00,-0.000
299.00,0.000
300.00,0.001
301.00,0.002
302.00,0.001
303.00,0.001
304.00,0.002
305.00,0.001
306.00,0.003
307.00,0.004
308.00,0.008
309.00,0.015
310.00,0.026
311.00,0.040
312.00,0.062
313.00,0.099
314.00,0.148
315.00,0.210
316.00,0.305
317.00,0.440
318.00,0.598
319.00,0.812
320.00,1.082
321.00,1.408
322.00,1.784
323.00,2.277
324.00,2.815
325.00,3.386
326.00,4.026
327.00,4.821
328.00,5.643
329.00,6.476
330.00,7.443
331.00,8.418
332.00,9.505
333.00,10.616
334.00,11.701
335.00,12.815
336.00,14.079
337.00,15.334
338.00,16.530
339.00,17.659
340.00,18.878
341.00,20.064
342.00,21.172
343.00,22.260
344.00,23.329
345.00,24.381
346.00,25.378
347.00,26.247
348.00,27.216
349.00,28.018
350.00,28.817
351.00,29.607
352.00,30.316
353.00,31.034
354.00,31.643
355.00,32.253
356.00,32.830
357.00,33.378
358.00,33.891
359.00,34.423
360.00,34.991
361.00,35.331
362.00,35.756
363.00,36.065
364.00,36.364
365.00,36.600
366.00,36.869
367.00,37.107
368.00,37.332
369.00,37.453
370.00,37.684
371.00,37.795
372.00,37.784
373.00,37.830
374.00,37.912
375.00,37.911
376.00,37.790
377.00,37.763
378.00,37.623
379.00,37.499
380.00,37.570
381.00,37.582
382.00,37.624
383.00,37.810
384.00,37.856
385.00,38.087
386.00,38.047
387.00,38.405
388.00,38.630
389.00,38.631
390.00,38.865
391.00,38.995
392.00,39.112
393.00,39.219
394.00,39.277
395.00,39.393
396.00,39.370
397.00,39.497
398.00,39.573
399.00,39.573
400.00,39.660
401.00,39.646
402.00,39.673
403.00,39.673
404.00,39.696
405.00,39.641
406.00,39.658
407.00,39.638
408.00,39.675
409.00,39.560
410.00,39.410
411.00,39.449
412.00,39.409
413.00,39.460
414.00,39.449
415.00,39.538
416.00,39.399
417.00,39.309
418.00,39.378
419.00,39.519
420.00,39.525
421.00,39.501
422.00,39.533
423.00,39.551
424.00,39.572
425.00,39.606
426.00,39.624
427.00,39.681
428.00,39.690
429.00,39.642
430.00,39.681
431.00,39.753
432.00,39.757
433.00,39.762
434.00,39.782
435.00,39.832
436.00,39.881
437.00,39.907
438.00,39.951
439.00,39.980
440.00,40.007
441.00,40.053
442.00,40.115
443.00,40.114
444.00,40.217
445.00,40.337
446.00,40.379
447.00,40.386
448.00,40.467
449.00,40.555
450.00,40.658
451.00,40.646
452.00,40.729
453.00,40.837
454.00,40.856
455.00,40.962
456.00,41.032
457.00,41.088
458.00,41.119
459.00,41.232
460.00,41.333
461.00,41.441
462.00,41.497
463.00,41.593
464.00,41.723
465.00,41.761
466.00,41.820
467.00,41.928
468.00,41.927
469.00,42.020
470.00,42.004
471.00,42.064
472.00,42.111
473.00,42.103
474.00,42.199
475.00,42.261
476.00,42.282
477.00,42.361
478.00,42.406
479.00,42.588
480.00,42.614
481.00,42.686
482.00,42.807
483.00,42.885
484.00,43.008
485.00,43.081
486.00,43.215
487.00,43.324
488.00,43.356
489.00,43.483
490.00,43.566
491.00,43.615
492.00,43.893
493.00,43.982
494.00,43.867
495.00,43.954
496.00,44.032
497.00,44.036
498.00,44.244
499.00,44.248
500.00,44.334
501.00,44.450
502.00,44.426
503.00,44.534
504.00,44.525
505.00,44.603
506.00,44.751
507.00,44.842
508.00,44.824
509.00,44.912
510.00,44.947
511.00,44.954
512.00,45.185
513.00,45.281
514.00,45.214
515.00,45.320
516.00,45.439
517.00,45.399
518.00,45.653
519.00,45.590
520.00,45.645
521.00,45.668
522.00,45.728
523.00,45.704
524.00,45.776
525.00,45.879
526.00,45.889
527.00,45.925
528.00,45.940
529.00,46.127
530.00,46.276
531.00,46.380
532.00,46.382
533.00,46.459
534.00,46.510
535.00,46.562
536.00,46.597
537.00,46.678
538.00,46.697
539.00,46.686
540.00,46.734
541.00,46.775
542.00,46.770
543.00,46.765
544.00,46.860
545.00,46.900
546.00,46.906
547.00,47.014
548.00,47.130
549.00,47.080
550.00,47.144
551.00,47.242
552.00,47.260
553.00,47.256
554.00,47.283
555.00,47.394
556.00,47.413
557.00,47.419
558.00,47.370
559.00,47.417
560.00,47.646
561.00,47.595
562.00,47.717
563.00,47.693
564.00,47.657
565.00,47.673
566.00,47.701
567.00,47.646
568.00,47.695
569.00,47.808
570.00,47.754
571.00,47.831
572.00,47.797
573.00,47.624
574.00,47.673
575.00,47.830
576.00,47.705
577.00,47.812
578.00,47.931
579.00,47.952
580.00,47.963
581.00,48.187
582.00,48.230
583.00,48.174
584.00,48.275
585.00,48.313
586.00,48.360
587.00,48.342
588.00,48.393
589.00,48.306
590.00,48.379
591.00,48.449
592.00,48.371
593.00,48.317
594.00,48.424
595.00,48.532
596.00,48.483
597.00,48.527
598.00,48.594
599.00,48.636
600.00,48.579
601.00,48.631
602.00,48.611
603.00,48.625
604.00,48.558
605.00,48.701
606.00,48.737
607.00,48.703
608.00,48.866
609.00,48.940
610.00,48.711
611.00,48.687
612.00,48.716
613.00,48.802
614.00,48.803
615.00,48.774
616.00,48.921
617.00,48.857
618.00,48.763
619.00,48.830
620.00,48.847
621.00,48.895
622.00,48.924
623.00,48.933
624.00,48.997
625.00,48.999
626.00,49.029
627.00,49.057
628.00,48.982
629.00,48.932
630.00,48.990
631.00,49.059
632.00,49.084
633.00,49.143
634.00,49.184
635.00,49.217
636.00,49.129
637.00,49.176
638.00,49.257
639.00,49.247
640.00,49.225
641.00,49.233
642.00,49.138
643.00,49.357
644.00,49.364
645.00,49.257
646.00,49.384
647.00,49.435
648.00,49.420
649.00,49.378
650.00,49.364
651.00,49.510
652.00,49.528
653.00,49.480
654.00,49.459
655.00,49.613
656.00,49.828
657.00,49.700
658.00,49.605
659.00,49.715
660.00,49.640
661.00,49.634
662.00,49.638
663.00,49.705
664.00,49.817
665.00,49.958
666.00,49.882
667.00,49.908
668.00,49.847
669.00,49.988
670.00,50.181
671.00,49.943
672.00,49.994
673.00,49.981
674.00,50.024
675.00,50.071
676.00,50.189
677.00,50.157
678.00,49.930
679.00,50.137
680.00,50.168
681.00,50.251
682.00,50.103
683.00,50.094
684.00,50.232
685.00,50.259
686.00,50.007
687.00,50.133
688.00,50.186
689.00,50.110
690.00,50.360
691.00,50.435
692.00,50.309
693.00,50.096
694.00,50.219
695.00,50.405
696.00,50.232
697.00,50.048
698.00,50.478
699.00,50.853
700.00,50.372
701.00,50.232
702.00,50.441
703.00,50.554
704.00,50.436
705.00,50.205
706.00,50.294
707.00,50.251
708.00,50.401
709.00,50.892
710.00,50.449
711.00,50.229
712.00,50.298
713.00,50.334
714.00,50.476
715.00,50.312
716.00,50.359
717.00,50.558
718.00,50.480
719.00,50.443
720.00,50.459
721.00,55.103
722.00,54.933
723.00,54.977
724.00,54.863
725.00,54.743
726.00,54.851
727.00,54.783
728.00,54.709
729.00,54.691
730.00,54.674
731.00,54.586
732.00,54.558
733.00,54.562
734.00,54.535
735.00,54.468
736.00,54.424
737.00,54.449
738.00,54.443
739.00,54.330
740.00,54.336
741.00,54.379
742.00,54.323
743.00,54.292
744.00,54.196
745.00,54.165
746.00,54.146
747.00,54.077
748.00,54.031
749.00,53.996
750.00,53.924
751.00,53.815
752.00,53.834
753.00,53.764
754.00,53.706
755.00,53.706
756.00,53.714
757.00,53.652
758.00,53.553
759.00,53.626
760.00,53.510
761.00,53.530
762.00,53.455
763.00,53.495
764.00,53.445
765.00,53.301
766.00,53.406
767.00,53.474
768.00,53.254
769.00,53.309
770.00,53.336
771.00,53.203
772.00,53.301
773.00,53.182
774.00,53.185
775.00,53.126
776.00,53.075
777.00,53.092
778.00,52.990
779.00,53.072
780.00,52.962
781.00,53.021
782.00,52.925
783.00,52.835
784.00,52.900
785.00,52.761
786.00,52.885
787.00,52.826
788.00,52.762
789.00,52.713
790.00,52.615
791.00,52.637
792.00,52.573
793.00,52.502
794.00,52.488
795.00,52.513
796.00,52.451
797.00,52.355
798.00,52.407
799.00,52.308
800.00,52.274
801.00,52.312
802.00,52.256
803.00,52.179
804.00,52.126
805.00,52.176
806.00,52.097
807.00,52.102
808.00,52.051
809.00,52.028
810.00,52.014
811.00,51.999
812.00,51.964
813.00,51.739
814.00,51.841
815.00,51.845
816.00,51.825
817.00,51.785
818.00,51.711
819.00,51.666
820.00,51.605
821.00,51.730
822.00,51.696
823.00,51.529
824.00,51.527
825.00,51.741
826.00,51.530
827.00,51.551
828.00,51.467
829.00,51.334
830.00,51.579
831.00,53.767
832.00,53.767
833.00,53.755
834.00,53.701
835.00,53.649
836.00,53.658
837.00,53.614
838.00,53.546
839.00,53.533
840.00,53.432
841.00,53.464
842.00,53.408
843.00,53.448
844.00,53.380
845.00,53.359
846.00,53.356
847.00,53.308
848.00,53.303
849.00,53.198
850.00,53.173
851.00,53.097
852.00,53.109
853.00,53.032
854.00,53.014
855.00,52.929
856.00,52.943
857.00,52.913
858.00,52.898
859.00,52.822
860.00,52.852
861.00,52.830
862.00,52.759
863.00,52.790
864.00,52.728
865.00,52.753
866.00,52.701
867.00,52.681
868.00,52.649
869.00,52.639
870.00,52.608
871.00,52.599
872.00,52.587
873.00,52.557
874.00,52.582
875.00,52.522
876.00,52.542
877.00,52.513
878.00,52.497
879.00,52.478
880.00,52.468
881.00,52.427
882.00,52.469
883.00,52.389
884.00,52.354
885.00,52.355
886.00,52.322
887.00,52.299
888.00,52.259
889.00,52.232
890.00,52.224
891.00,52.191
892.00,52.184
893.00,52.044
894.00,52.152
895.00,52.092
896.00,52.072
897.00,52.044
898.00,52.041
899.00,51.998
900.00,51.985
901.00,51.998
902.00,51.975
903.00,51.939
904.00,51.941
905.00,51.906
906.00,51.936
907.00,51.877
908.00,51.824
909.00,51.816
910.00,51.778
911.00,51.784
912.00,51.762
913.00,51.709
914.00,51.689
915.00,51.640
916.00,51.695
917.00,51.545
918.00,51.634
919.00,51.615
920.00,51.540
921.00,51.548
922.00,51.520
923.00,51.468
924.00,51.443
925.00,51.447
926.00,51.437
927.00,51.401
928.00,51.359
929.00,51.376
930.00,51.349
931.00,51.329
932.00,51.288
933.00,51.291
934.00,51.270
935.00,51.236
936.00,51.230
937.00,51.211
938.00,51.201
939.00,51.193
940.00,51.144
941.00,51.150
942.00,51.095
943.00,51.102
944.00,51.061
945.00,51.038
946.00,51.051
947.00,51.004
948.00,50.925
949.00,51.019
950.00,50.956
951.00,50.919
952.00,50.907
953.00,50.850
954.00,50.830
955.00,50.801
956.00,50.798
957.00,50.752
958.00,50.762
959.00,50.700
960.00,50.700
961.00,50.695
962.00,50.692
963.00,50.647
964.00,50.639
965.00,50.630
966.00,50.607
967.00,50.597
968.00,50.569
969.00,50.609
970.00,50.571
971.00,50.578
972.00,50.521
973.00,50.557
974.00,50.593
975.00,50.557
976.00,50.574
977.00,50.571
978.00,50.608
979.00,50.599
980.00,50.566
981.00,50.576
982.00,50.533
983.00,50.526
984.00,50.505
985.00,50.542
986.00,50.484
987.00,50.513
988.00,50.473
989.00,50.471
990.00,50.481
991.00,50.449
992.00,50.448
993.00,50.440
994.00,50.426
995.00,50.403
996.00,50.417
997.00,50.389
998.00,50.373
999.00,50.382
1000.00,50.331
1001.00,50.339
1002.00,50.334
1003.00,50.313
1004.00,50.284
1005.00,50.249
1006.00,50.288
1007.00,50.260
1008.00,50.234
1009.00,50.213
1010.00,50.201
1011.00,50.185
1012.00,50.157
1013.00,50.156
1014.00,50.128
1015.00,50.145
1016.00,50.105
1017.00,50.094
1018.00,50.085
1019.00,50.046
1020.00,50.046
1021.00,50.035
1022.00,50.029
1023.00,49.982
1024.00,49.980
1025.00,50.005
1026.00,49.962
1027.00,49.939
1028.00,49.938
1029.00,49.933
1030.00,49.885
1031.00,49.902
1032.00,49.854
1033.00,49.853
1034.00,49.825
1035.00,49.798
1036.00,49.761
1037.00,49.756
1038.00,49.718
1039.00,49.696
1040.00,49.718
1041.00,49.669
1042.00,49.675
1043.00,49.649
1044.00,49.677
1045.00,49.670
1046.00,49.656
1047.00,49.674
1048.00,49.683
1049.00,49.684
1050.00,49.686
1051.00,49.730
1052.00,49.726
1053.00,49.726
1054.00,49.717
1055.00,49.742
1056.00,49.748
1057.00,49.741
1058.00,49.733
1059.00,49.736
1060.00,49.746
1061.00,49.724
1062.00,49.722
1063.00,49.715
1064.00,49.714
1065.00,49.703
1066.00,49.696
1067.00,49.684
1068.00,49.714
1069.00,49.682
1070.00,49.673
1071.00,49.640
1072.00,49.661
1073.00,49.649
1074.00,49.635
1075.00,49.621
1076.00,49.620
1077.00,49.602
1078.00,49.587
1079.00,49.605
1080.00,49.615
1081.00,49.594
1082.00,49.590
1083.00,49.573
1084.00,49.580
1085.00,49.577
1086.00,49.584
1087.00,49.553
1088.00,49.533
1089.00,49.509
1090.00,49.516
1091.00,49.523
1092.00,49.519
1093.00,49.499
1094.00,49.484
1095.00,49.494
1096.00,49.452
1097.00,49.450
1098.00,49.451
1099.00,49.438
1100.00,49.430
1101.00,49.440
1102.00,49.401
1103.00,49.413
1104.00,49.391
1105.00,49.379
1106.00,49.381
1107.00,49.373
1108.00,49.358
1109.00,49.345
1110.00,49.326
1111.00,49.313
1112.00,49.319
1113.00,49.319
1114.00,49.311
1115.00,49.322
1116.00,49.314
1117.00,49.302
1118.00,49.275
1119.00,49.280
1120.00,49.285
1121.00,49.266
1122.00,49.256
1123.00,49.252
1124.00,49.248
1125.00,49.251
1126.00,49.228
1127.00,49.248
1128.00,49.236
1129.00,49.203
1130.00,49.203
1131.00,49.204
1132.00,49.181
1133.00,49.187
1134.00,49.185
1135.00,49.180
1136.00,49.178
1137.00,49.182
1138.00,49.187
1139.00,49.210
1140.00,49.178
1141.00,49.183
1142.00,49.167
1143.00,49.160
1144.00,49.149
1145.00,49.144
1146.00,49.145
1147.00,49.156
1148.00,49.126
1149.00,49.134
1150.00,49.145
1151.00,49.129
1152.00,49.118
1153.00,49.121
1154.00,49.112
1155.00,49.129
1156.00,49.123
1157.00,49.134
1158.00,49.119
1159.00,49.117
1160.00,49.106
1161.00,49.130
1162.00,49.117
1163.00,49.105
1164.00,49.125
1165.00,49.116
1166.00,49.112
1167.00,49.097
1168.00,49.123
1169.00,49.116
1170.00,49.113
1171.00,49.096
1172.00,49.115
1173.00,49.095
1174.00,49.108
1175.00,49.093
1176.00,49.098
1177.00,49.084
1178.00,49.102
1179.00,49.115
1180.00,49.095
1181.00,49.100
1182.00,49.075
1183.00,49.073
1184.00,49.066
1185.00,49.083
1186.00,49.078
1187.00,49.075
1188.00,49.080
1189.00,49.089
1190.00,49.086
1191.00,49.077
1192.00,49.090
1193.00,49.067
1194.00,49.079
1195.00,49.052
1196.00,49.091
1197.00,49.084
1198.00,49.073
1199.00,49.071
1200.00,49.095
1201.00,49.114
1202.00,49.090
1203.00,49.094
1204.00,49.074
1205.00,49.114
1206.00,49.079
1207.00,49.103
1208.00,49.094
1209.00,49.088
1210.00,49.088
1211.00,49.091
1212.00,49.109
1213.00,49.065
1214.00,49.088
1215.00,49.063
1216.00,49.086
1217.00,49.069
1218.00,49.070
1219.00,49.100
1220.00,49.071
1221.00,49.092
1222.00,49.080
1223.00,49.140
1224.00,49.131
1225.00,49.089
1226.00,49.100
1227.00,49.101
1228.00,49.105
1229.00,49.121
1230.00,49.172
1231.00,49.150
1232.00,49.171
1233.00,49.168
1234.00,49.170
1235.00,49.160
1236.00,49.158
1237.00,49.156
1238.00,49.155
1239.00,49.145
1240.00,49.139
1241.00,49.166
1242.00,49.162
1243.00,49.174
1244.00,49.169
1245.00,49.194
1246.00,49.214
1247.00,49.203
1248.00,49.189
1249.00,49.212
1250.00,49.211
1251.00,49.206
1252.00,49.208
1253.00,49.194
1254.00,49.258
1255.00,49.230
1256.00,49.210
1257.00,49.200
1258.00,49.254
1259.00,49.237
1260.00,49.272
1261.00,49.264
1262.00,49.246
1263.00,49.251
1264.00,49.253
1265.00,49.264
1266.00,49.268
1267.00,49.271
1268.00,49.288
1269.00,49.284
1270.00,49.286
1271.00,49.296
1272.00,49.285
1273.00,49.301
1274.00,49.306
1275.00,49.324
1276.00,49.310
1277.00,49.313
1278.00,49.330
1279.00,49.342
1280.00,49.331
1281.00,49.367
1282.00,49.393
1283.00,49.364
1284.00,49.368
1285.00,49.368
1286.00,49.387
1287.00,49.374
1288.00,49.379
1289.00,49.383
1290.00,49.416
1291.00,49.413
1292.00,49.410
1293.00,49.424
1294.00,49.431
1295.00,49.437
1296.00,49.441
1297.00,49.447
1298.00,49.478
1299.00,49.459
1300.00,49.464
1301.00,49.467
1302.00,49.476
1303.00,49.479
1304.00,49.476
1305.00,49.487
1306.00,49.500
1307.00,49.508
1308.00,49.507
1309.00,49.519
1310.00,49.515
1311.00,49.507
1312.00,49.517
1313.00,49.529
1314.00,49.552
1315.00,49.576
1316.00,49.563
1317.00,49.601
1318.00,49.599
1319.00,49.601
1320.00,49.609
1321.00,49.785
1322.00,49.783
1323.00,49.765
1324.00,49.742
1325.00,49.736
1326.00,49.765
1327.00,49.759
1328.00,49.763
1329.00,49.776
1330.00,49.784
1331.00,49.773
1332.00,49.778
1333.00,49.795
1334.00,49.809
1335.00,49.825
1336.00,49.870
1337.00,49.906
1338.00,49.950
1339.00,49.994
1340.00,50.053
1341.00,50.122
1342.00,50.181
1343.00,50.218
1344.00,50.274
1345.00,50.342
1346.00,50.361
1347.00,50.398
1348.00,50.424
1349.00,50.439
1350.00,50.459
1351.00,50.481
1352.00,50.495
1353.00,50.498
1354.00,50.488
1355.00,50.461
1356.00,50.504
1357.00,50.494
1358.00,50.558
1359.00,50.566
1360.00,50.560
1361.00,50.595
1362.00,50.572
1363.00,50.607
1364.00,50.562
1365.00,50.562
1366.00,50.602
1367.00,50.545
1368.00,50.520
1369.00,50.557
1370.00,50.544
1371.00,50.517
1372.00,50.532
1373.00,50.556
1374.00,50.568
1375.00,50.550
1376.00,50.546
1377.00,50.547
1378.00,50.610
1379.00,50.572
1380.00,50.541
1381.00,50.579
1382.00,50.506
1383.00,50.554
1384.00,50.531
1385.00,50.532
1386.00,50.571
1387.00,50.527
1388.00,50.514
1389.00,50.547
1390.00,50.539
1391.00,50.530
1392.00,50.531
1393.00,50.558
1394.00,50.536
1395.00,50.541
1396.00,50.488
1397.00,50.566
1398.00,50.511
1399.00,50.518
1400.00,50.506
1401.00,50.507
1402.00,50.542
1403.00,50.557
1404.00,50.549
1405.00,50.536
1406.00,50.623
1407.00,50.593
1408.00,50.615
1409.00,50.599
1410.00,50.637
1411.00,50.619
1412.00,50.685
1413.00,50.613
1414.00,50.636
1415.00,50.657
1416.00,50.671
1417.00,50.695
1418.00,50.688
1419.00,50.679
1420.00,50.715
1421.00,50.773
1422.00,50.768
1423.00,50.790
1424.00,50.795
1425.00,50.816
1426.00,50.819
1427.00,50.828
1428.00,50.814
1429.00,50.826
1430.00,50.837
1431.00,50.866
1432.00,50.900
1433.00,50.917
1434.00,50.928
1435.00,51.013
1436.00,50.982
1437.00,50.976
1438.00,50.993
1439.00,51.042
1440.00,51.050
1441.00,51.035
1442.00,51.055
1443.00,51.081
1444.00,51.168
1445.00,51.095
1446.00,51.125
1447.00,51.165
1448.00,51.191
1449.00,51.211
1450.00,51.230
1451.00,51.265
1452.00,51.269
1453.00,51.275
1454.00,51.313
1455.00,51.334
1456.00,51.351
1457.00,51.341
1458.00,51.365
1459.00,51.377
1460.00,51.403
1461.00,51.390
1462.00,51.428
1463.00,51.439
1464.00,51.442
1465.00,51.487
1466.00,51.488
1467.00,51.494
1468.00,51.558
1469.00,51.540
1470.00,51.549
1471.00,51.567
1472.00,51.576
1473.00,51.586
1474.00,51.618
1475.00,51.619
1476.00,51.639
1477.00,51.620
1478.00,51.654
1479.00,51.669
1480.00,51.664
1481.00,51.658
1482.00,51.700
1483.00,51.727
1484.00,51.747
1485.00,51.750
1486.00,51.763
1487.00,51.795
1488.00,51.816
1489.00,51.788
1490.00,51.819
1491.00,51.830
1492.00,51.846
1493.00,51.834
1494.00,51.877
1495.00,51.872
1496.00,51.887
1497.00,51.878
1498.00,51.920
1499.00,51.925
1500.00,51.928
1501.00, 
1502.00, 
1503.00, 
1504.00, 
1505.00, 
1506.00, 
1507.00, 
1508.00, 
1509.00, 
1510.00, 
1511.00, 
1512.00, 
1513.00, 
1514.00, 
1515.00, 
1516.00, 
1517.00, 
1518.00, 
1519.00, 
1520.00, 
1521.00, 
1522.00, 
1523.00, 
1524.00, 
1525.00, 
1526.00, 
1527.00, 
1528.00, 
1529.00, 
1530.00, 
1531.00, 
1532.00, 
1533.00, 
1534.00, 
1535.00, 
1536.00, 
1537.00, 
1538.00, 
1539.00, 
1540.00, 
1541.00, 
1542.00, 
1543.00, 
1544.00, 
1545.00, 
1546.00, 
1547.00, 
1548.00, 
1549.00, 
1550.00, 
1551.00, 
1552.00, 
1553.00, 
1554.00, 
1555.00, 
1556.00, 
1557.00, 
1558.00, 
1559.00, 
1560.00, 
1561.00, 
1562.00, 
1563.00, 
1564.00, 
1565.00, 
1566.00, 
1567.00, 
1568.00, 
1569.00, 
1570.00, 
1571.00, 
1572.00, 
1573.00, 
1574.00, 
1575.00, 
1576.00, 
1577.00, 
1578.00, 
1579.00, 
1580.00, 
1581.00, 
1582.00, 
1583.00, 
1584.00, 
1585.00, 
1586.00, 
1587.00, 
1588.00, 
1589.00, 
1590.00, 
1591.00, 
1592.00, 
1593.00, 
1594.00, 
1595.00, 
1596.00, 
1597.00, 
1598.00, 
1599.00, 
1600.00, 
1601.00, 
1602.00, 
1603.00, 
1604.00, 
1605.00, 
1606.00, 
1607.00, 
1608.00, 
1609.00, 
1610.00, 
1611.00, 
1612.00, 
1613.00, 
1614.00, 
1615.00, 
1616.00, 
1617.00, 
1618.00, 
1619.00, 
1620.00, 
1621.00, 
1622.00, 
1623.00, 
1624.00, 
1625.00, 
1626.00, 
1627.00, 
1628.00, 
1629.00, 
1630.00, 
1631.00, 
1632.00, 
1633.00, 
1634.00, 
1635.00, 
1636.00, 
1637.00, 
1638.00, 
1639.00, 
1640.00, 
1641.00, 
1642.00, 
1643.00, 
1644.00, 
1645.00, 
1646.00, 
1647.00, 
1648.00, 
1649.00, 
1650.00, 
1651.00, 
1652.00, 
1653.00, 
1654.00, 
1655.00, 
1656.00, 
1657.00, 
1658.00, 
1659.00, 
1660.00, 
1661.00, 
1662.00, 
1663.00, 
1664.00, 
1665.00, 
1666.00, 
1667.00, 
1668.00, 
1669.00, 
1670.00, 
1671.00, 
1672.00, 
1673.00, 
1674.00, 
1675.00, 
1676.00, 
1677.00, 
1678.00, 
1679.00, 
1680.00, 
1681.00, 
1682.00, 
1683.00, 
1684.00, 
1685.00, 
1686.00, 
1687.00, 
1688.00, 
1689.00, 
1690.00, 
1691.00, 
1692.00, 
1693.00, 
1694.00, 
1695.00, 
1696.00, 
1697.00, 
1698.00, 
1699.00, 
1700.00, 
1701.00, 
1702.00, 
1703.00, 
1704.00, 
1705.00, 
1706.00, 
1707.00, 
1708.00, 
1709.00, 
1710.00, 
1711.00, 
1712.00, 
1713.00, 
1714.00, 
1715.00, 
1716.00, 
1717.00, 
1718.00, 
1719.00, 
1720.00, 
1721.00, 
1722.00, 
1723.00, 
1724.00, 
1725.00, 
1726.00, 
1727.00, 
1728.00, 
1729.00, 
1730.00, 
1731.00, 
1732.00, 
1733.00, 
1734.00, 
1735.00, 
1736.00, 
1737.00, 
1738.00, 
1739.00, 
1740.00, 
1741.00, 
1742.00, 
1743.00, 
1744.00, 
1745.00, 
1746.00, 
1747.00, 
1748.00, 
1749.00, 
1750.00, 
1751.00, 
1752.00, 
1753.00, 
1754.00, 
1755.00, 
1756.00, 
1757.00, 
1758.00, 
1759.00, 
1760.00, 
1761.00, 
1762.00, 
1763.00, 
1764.00, 
1765.00, 
1766.00, 
1767.00, 
1768.00, 
1769.00, 
1770.00, 
1771.00, 
1772.00, 
1773.00, 
1774.00, 
1775.00, 
1776.00, 
1777.00, 
1778.00, 
1779.00, 
1780.00, 
1781.00, 
1782.00, 
1783.00, 
1784.00, 
1785.00, 
1786.00, 
1787.00, 
1788.00, 
1789.00, 
1790.00, 
1791.00, 
1792.00, 
1793.00, 
1794.00, 
1795.00, 
1796.00, 
1797.00, 
1798.00, 
1799.00, 
1800.00, 
1801.00, 
1802.00, 
1803.00, 
1804.00, 
1805.00, 
1806.00, 
1807.00, 
1808.00, 
1809.00, 
1810.00, 
1811.00, 
1812.00, 
1813.00, 
1814.00, 
1815.00, 
1816.00, 
1817.00, 
1818.00, 
1819.00, 
1820.00, 
1821.00, 
1822.00, 
1823.00, 
1824.00, 
1825.00, 
1826.00, 
1827.00, 
1828.00, 
1829.00, 
1830.00, 
1831.00, 
1832.00, 
1833.00, 
1834.00, 
1835.00, 
1836.00, 
1837.00, 
1838.00, 
1839.00, 
1840.00, 
1841.00, 
1842.00, 
1843.00, 
1844.00, 
1845.00, 
1846.00, 
1847.00, 
1848.00, 
1849.00, 
1850.00, 
1851.00, 
1852.00, 
1853.00, 
1854.00, 
1855.00, 
1856.00, 
1857.00, 
1858.00, 
1859.00, 
1860.00, 
1861.00, 
1862.00, 
1863.00, 
1864.00, 
1865.00, 
1866.00, 
1867.00, 
1868.00, 
1869.00, 
1870.00, 
1871.00, 
1872.00, 
1873.00, 
1874.00, 
1875.00, 
1876.00, 
1877.00, 
1878.00, 
1879.00, 
1880.00, 
1881.00, 
1882.00, 
1883.00, 
1884.00, 
1885.00, 
1886.00, 
1887.00, 
1888.00, 
1889.00, 
1890.00, 
1891.00, 
1892.00, 
1893.00, 
1894.00, 
1895.00, 
1896.00, 
1897.00, 
1898.00, 
1899.00, 
1900.00, 
1901.00, 
1902.00, 
1903.00, 
1904.00, 
1905.00, 
1906.00, 
1907.00, 
1908.00, 
1909.00, 
1910.00, 
1911.00, 
1912.00, 
1913.00, 
1914.00, 
1915.00, 
1916.00, 
1917.00, 
1918.00, 
1919.00, 
1920.00, 
1921.00, 
1922.00, 
1923.00, 
1924.00, 
1925.00, 
1926.00, 
1927.00, 
1928.00, 
1929.00, 
1930.00, 
1931.00, 
1932.00, 
1933.00, 
1934.00, 
1935.00, 
1936.00, 
1937.00, 
1938.00, 
1939.00, 
1940.00, 
1941.00, 
1942.00, 
1943.00, 
1944.00, 
1945.00, 
1946.00, 
1947.00, 
1948.00, 
1949.00, 
1950.00, 
1951.00, 
1952.00, 
1953.00, 
1954.00, 
1955.00, 
1956.00, 
1957.00, 
1958.00, 
1959.00, 
1960.00, 
1961.00, 
1962.00, 
1963.00, 
1964.00, 
1965.00, 
1966.00, 
1967.00, 
1968.00, 
1969.00, 
1970.00, 
1971.00, 
1972.00, 
1973.00, 
1974.00, 
1975.00, 
1976.00, 
1977.00, 
1978.00, 
1979.00, 
1980.00, 
1981.00, 
1982.00, 
1983.00, 
1984.00, 
1985.00, 
1986.00, 
1987.00, 
1988.00, 
1989.00, 
1990.00, 
1991.00, 
1992.00, 
1993.00, 
1994.00, 
1995.00, 
1996.00, 
1997.00, 
1998.00, 
1999.00, 
2000.00, 
2001.00, 
2002.00, 
2003.00, 
2004.00, 
2005.00, 
2006.00, 
2007.00, 
2008.00, 
2009.00, 
2010.00, 
2011.00, 
2012.00, 
2013.00, 
2014.00, 
2015.00, 
2016.00, 
2017.00, 
2018.00, 
2019.00, 
2020.00, 
2021.00, 
2022.00, 
2023.00, 
2024.00, 
2025.00, 
2026.00, 
2027.00, 
2028.00, 
2029.00, 
2030.00, 
2031.00, 
2032.00, 
2033.00, 
2034.00, 
2035.00, 
2036.00, 
2037.00, 
2038.00, 
2039.00, 
2040.00, 
2041.00, 
2042.00, 
2043.00, 
2044.00, 
2045.00, 
2046.00, 
2047.00, 
2048.00, 
2049.00, 
2050.00, 
2051.00, 
2052.00, 
2053.00, 
2054.00, 
2055.00, 
2056.00, 
2057.00, 
2058.00, 
2059.00, 
2060.00, 
2061.00, 
2062.00, 
2063.00, 
2064.00, 
2065.00, 
2066.00, 
2067.00, 
2068.00, 
2069.00, 
2070.00, 
2071.00, 
2072.00, 
2073.00, 
2074.00, 
2075.00, 
2076.00, 
2077.00, 
2078.00, 
2079.00, 
2080.00, 
2081.00, 
2082.00, 
2083.00, 
2084.00, 
2085.00, 
2086.00, 
2087.00, 
2088.00, 
2089.00, 
2090.00, 
2091.00, 
2092.00, 
2093.00, 
2094.00, 
2095.00, 
2096.00, 
2097.00, 
2098.00, 
2099.00, 
2100.00, 
2101.00, 
2102.00, 
2103.00, 
2104.00, 
2105.00, 
2106.00, 
2107.00, 
2108.00, 
2109.00, 
2110.00, 
2111.00, 
2112.00, 
2113.00, 
2114.00, 
2115.00, 
2116.00, 
2117.00, 
2118.00, 
2119.00, 
2120.00, 
2121.00, 
2122.00, 
2123.00, 
2124.00, 
2125.00, 
2126.00, 
2127.00, 
2128.00, 
2129.00, 
2130.00, 
2131.00, 
2132.00, 
2133.00, 
2134.00, 
2135.00, 
2136.00, 
2137.00, 
2138.00, 
2139.00, 
2140.00, 
2141.00, 
2142.00, 
2143.00, 
2144.00, 
2145.00, 
2146.00, 
2147.00, 
2148.00, 
2149.00, 
2150.00, 
2151.00, 
2152.00, 
2153.00, 
2154.00, 
2155.00, 
2156.00, 
2157.00, 
2158.00, 
2159.00, 
2160.00, 
2161.00, 
2162.00, 
2163.00, 
2164.00, 
2165.00, 
2166.00, 
2167.00, 
2168.00, 
2169.00, 
2170.00, 
2171.00, 
2172.00, 
2173.00, 
2174.00, 
2175.00, 
2176.00, 
2177.00, 
2178.00, 
2179.00, 
2180.00, 
2181.00, 
2182.00, 
2183.00, 
2184.00, 
2185.00, 
2186.00, 
2187.00, 
2188.00, 
2189.00, 
2190.00, 
2191.00, 
2192.00, 
2193.00, 
2194.00, 
2195.00, 
2196.00, 
2197.00, 
2198.00, 
2199.00, 
2200.00, 
2201.00, 
2202.00, 
2203.00, 
2204.00, 
2205.00, 
2206.00, 
2207.00, 
2208.00, 
2209.00, 
2210.00, 
2211.00, 
2212.00, 
2213.00, 
2214.00, 
2215.00, 
2216.00, 
2217.00, 
2218.00, 
2219.00, 
2220.00, 
2221.00, 
2222.00, 
2223.00, 
2224.00, 
2225.00, 
2226.00, 
2227.00, 
2228.00, 
2229.00, 
2230.00, 
2231.00, 
2232.00, 
2233.00, 
2234.00, 
2235.00, 
2236.00, 
2237.00, 
2238.00, 
2239.00, 
2240.00, 
2241.00, 
2242.00, 
2243.00, 
2244.00, 
2245.00, 
2246.00, 
2247.00, 
2248.00, 
2249.00, 
2250.00, 
2251.00, 
2252.00, 
2253.00, 
2254.00, 
2255.00, 
2256.00, 
2257.00, 
2258.00, 
2259.00, 
2260.00, 
2261.00, 
2262.00, 
2263.00, 
2264.00, 
2265.00, 
2266.00, 
2267.00, 
2268.00, 
2269.00, 
2270.00, 
2271.00, 
2272.00, 
2273.00, 
2274.00, 
2275.00, 
2276.00, 
2277.00, 
2278.00, 
2279.00, 
2280.00, 
2281.00, 
2282.00, 
2283.00, 
2284.00, 
2285.00, 
2286.00, 
2287.00, 
2288.00, 
2289.00, 
2290.00, 
2291.00, 
2292.00, 
2293.00, 
2294.00, 
2295.00, 
2296.00, 
2297.00, 
2298.00, 
2299.00, 
2300.00, 
2301.00, 
2302.00, 
2303.00, 
2304.00, 
2305.00, 
2306.00, 
2307.00, 
2308.00, 
2309.00, 
2310.00, 
2311.00, 
2312.00, 
2313.00, 
2314.00, 
2315.00, 
2316.00, 
2317.00, 
2318.00, 
2319.00, 
2320.00, 
2321.00, 
2322.00, 
2323.00, 
2324.00, 
2325.00, 
2326.00, 
2327.00, 
2328.00, 
2329.00, 
2330.00, 
2331.00, 
2332.00, 
2333.00, 
2334.00, 
2335.00, 
2336.00, 
2337.00, 
2338.00, 
2339.00, 
2340.00, 
2341.00, 
2342.00, 
2343.00, 
2344.00, 
2345.00, 
2346.00, 
2347.00, 
2348.00, 
2349.00, 
2350.00, 
2351.00, 
2352.00, 
2353.00, 
2354.00, 
2355.00, 
2356.00, 
2357.00, 
2358.00, 
2359.00, 
2360.00, 
2361.00, 
2362.00, 
2363.00, 
2364.00, 
2365.00, 
2366.00, 
2367.00, 
2368.00, 
2369.00, 
2370.00, 
2371.00, 
2372.00, 
2373.00, 
2374.00, 
2375.00, 
2376.00, 
2377.00, 
2378.00, 
2379.00, 
2380.00, 
2381.00, 
2382.00, 
2383.00, 
2384.00, 
2385.00, 
2386.00, 
2387.00, 
2388.00, 
2389.00, 
2390.00, 
2391.00, 
2392.00, 
2393.00, 
2394.00, 
2395.00, 
2396.00, 
2397.00, 
2398.00, 
2399.00, 
2400.00, 
2401.00, 
2402.00, 
2403.00, 
2404.00, 
2405.00, 
2406.00, 
2407.00, 
2408.00, 
2409.00, 
2410.00, 
2411.00, 
2412.00, 
2413.00, 
2414.00, 
2415.00, 
2416.00, 
2417.00, 
2418.00, 
2419.00, 
2420.00, 
2421.00, 
2422.00, 
2423.00, 
2424.00, 
2425.00, 
2426.00, 
2427.00, 
2428.00, 
2429.00, 
2430.00, 
2431.00, 
2432.00, 
2433.00, 
2434.00, 
2435.00, 
2436.00, 
2437.00, 
2438.00, 
2439.00, 
2440.00, 
2441.00, 
2442.00, 
2443.00, 
2444.00, 
2445.00, 
2446.00, 
2447.00, 
2448.00, 
2449.00, 
2450.00, 
2451.00, 
2452.00, 
2453.00, 
2454.00, 
2455.00, 
2456.00, 
2457.00, 
2458.00, 
2459.00, 
2460.00, 
2461.00, 
2462.00, 
2463.00, 
2464.00, 
2465.00, 
2466.00, 
2467.00, 
2468.00, 
2469.00, 
2470.00, 
2471.00, 
2472.00, 
2473.00, 
2474.00, 
2475.00, 
2476.00, 
2477.00, 
2478.00, 
2479.00, 
2480.00, 
2481.00, 
2482.00, 
2483.00, 
2484.00, 
2485.00, 
2486.00, 
2487.00, 
2488.00, 
2489.00, 
2490.00, 
2491.00, 
2492.00, 
2493.00, 
2494.00, 
2495.00, 
2496.00, 
2497.00, 
2498.00, 
2499.00, 
2500.00, 
2501.00, 
2502.00, 
2503.00, 
2504.00, 
2505.00, 
2506.00, 
2507.00, 
2508.00, 
2509.00, 
2510.00, 
2511.00, 
2512.00, 
2513.00, 
2514.00, 
2515.00, 
2516.00, 
2517.00, 
2518.00, 
2519.00, 
2520.00, 
2521.00, 
2522.00, 
2523.00, 
2524.00, 
2525.00, 
2526.00, 
2527.00, 
2528.00, 
2529.00, 
2530.00, 
2531.00, 
2532.00, 
2533.00, 
2534.00, 
2535.00, 
2536.00, 
2537.00, 
2538.00, 
2539.00, 
2540.00, 
2541.00, 
2542.00, 
2543.00, 
2544.00, 
2545.00, 
2546.00, 
2547.00, 
2548.00, 
2549.00, 
2550.00, 
2551.00, 
2552.00, 
2553.00, 
2554.00, 
2555.00, 
2556.00, 
2557.00, 
2558.00, 
2559.00, 
2560.00, 
2561.00, 
2562.00, 
2563.00, 
2564.00, 
2565.00, 
2566.00, 
2567.00, 
2568.00, 
2569.00, 
2570.00, 
2571.00, 
2572.00, 
2573.00, 
2574.00, 
2575.00, 
2576.00, 
2577.00, 
2578.00, 
2579.00, 
2580.00, 
2581.00, 
2582.00, 
2583.00, 
2584.00, 
2585.00, 
2586.00, 
2587.00, 
2588.00, 
2589.00, 
2590.00, 
2591.00, 
2592.00, 
2593.00, 
2594.00, 
2595.00, 
2596.00, 
2597.00, 
2598.00, 
2599.00, 
2600.00, 
