"1cP3 - RawData"
"Wavelength nm.","T%"
200.00,-0.000
201.00,0.000
202.00,0.000
203.00,0.001
204.00,0.003
205.00,0.003
206.00,-0.000
207.00,0.003
208.00,0.001
209.00,-0.000
210.00,0.001
211.00,0.001
212.00,0.002
213.00,0.001
214.00,-0.001
215.00,-0.001
216.00,0.001
217.00,0.006
218.00,0.001
219.00,0.002
220.00,0.001
221.00,0.000
222.00,0.001
223.00,-0.001
224.00,0.002
225.00,0.001
226.00,0.001
227.00,0.000
228.00,-0.000
229.00,-0.000
230.00,0.001
231.00,0.001
232.00,-0.001
233.00,0.001
234.00,0.001
235.00,-0.001
236.00,0.000
237.00,-0.000
238.00,0.001
239.00,0.000
240.00,0.001
241.00,0.001
242.00,-0.000
243.00,0.001
244.00,0.000
245.00,-0.001
246.00,-0.002
247.00,-0.000
248.00,0.001
249.00,-0.000
250.00,-0.001
251.00,-0.002
252.00,0.001
253.00,-0.000
254.00,0.001
255.00,0.001
256.00,0.000
257.00,0.002
258.00,0.001
259.00,-0.001
260.00,-0.002
261.00,0.000
262.00,0.002
263.00,-0.000
264.00,-0.001
265.00,-0.000
266.00,-0.000
267.00,-0.000
268.00,0.000
269.00,0.001
270.00,0.001
271.00,0.001
272.00,0.000
273.00,0.001
274.00,0.001
275.00,-0.000
276.00,-0.001
277.00,0.001
278.00,-0.000
279.00,0.002
280.00,-0.000
281.00,-0.001
282.00,0.001
283.00,-0.001
284.00,-0.001
285.00,0.001
286.00,0.001
287.00,0.001
288.00,-0.001
289.00,-0.000
290.00,-0.000
291.00,-0.002
292.00,0.000
293.00,-0.000
294.00,-0.000
295.00,0.000
296.00,-0.001
297.00,-0.000
298.00,0.000
299.00,0.002
300.00,0.000
301.00,0.000
302.00,-0.001
303.00,0.000
304.00,0.000
305.00,0.002
306.00,0.003
307.00,0.004
308.00,0.008
309.00,0.011
310.00,0.019
311.00,0.030
312.00,0.048
313.00,0.072
314.00,0.106
315.00,0.158
316.00,0.224
317.00,0.320
318.00,0.434
319.00,0.585
320.00,0.777
321.00,1.015
322.00,1.293
323.00,1.634
324.00,2.022
325.00,2.440
326.00,2.897
327.00,3.451
328.00,4.030
329.00,4.636
330.00,5.316
331.00,6.008
332.00,6.764
333.00,7.570
334.00,8.352
335.00,9.206
336.00,10.050
337.00,10.897
338.00,11.738
339.00,12.512
340.00,13.342
341.00,14.201
342.00,14.991
343.00,15.731
344.00,16.484
345.00,17.238
346.00,17.885
347.00,18.517
348.00,19.208
349.00,19.719
350.00,20.281
351.00,20.827
352.00,21.263
353.00,21.711
354.00,22.158
355.00,22.633
356.00,22.919
357.00,23.375
358.00,23.705
359.00,24.061
360.00,24.404
361.00,24.617
362.00,24.923
363.00,25.118
364.00,25.253
365.00,25.415
366.00,25.577
367.00,25.723
368.00,25.844
369.00,25.918
370.00,26.054
371.00,26.057
372.00,26.038
373.00,26.068
374.00,26.103
375.00,26.072
376.00,25.985
377.00,25.930
378.00,25.800
379.00,25.741
380.00,25.726
381.00,25.711
382.00,25.732
383.00,25.791
384.00,25.862
385.00,25.945
386.00,25.958
387.00,26.117
388.00,26.277
389.00,26.291
390.00,26.366
391.00,26.456
392.00,26.501
393.00,26.562
394.00,26.584
395.00,26.638
396.00,26.611
397.00,26.658
398.00,26.731
399.00,26.713
400.00,26.705
401.00,26.752
402.00,26.730
403.00,26.708
404.00,26.726
405.00,26.701
406.00,26.706
407.00,26.670
408.00,26.681
409.00,26.581
410.00,26.443
411.00,26.539
412.00,26.509
413.00,26.508
414.00,26.532
415.00,26.575
416.00,26.539
417.00,26.483
418.00,26.492
419.00,26.625
420.00,26.619
421.00,26.645
422.00,26.650
423.00,26.687
424.00,26.708
425.00,26.732
426.00,26.783
427.00,26.834
428.00,26.852
429.00,26.844
430.00,26.886
431.00,26.989
432.00,27.000
433.00,27.010
434.00,27.073
435.00,27.133
436.00,27.227
437.00,27.246
438.00,27.293
439.00,27.336
440.00,27.372
441.00,27.502
442.00,27.551
443.00,27.591
444.00,27.720
445.00,27.819
446.00,27.860
447.00,27.963
448.00,28.041
449.00,28.142
450.00,28.251
451.00,28.305
452.00,28.425
453.00,28.549
454.00,28.602
455.00,28.758
456.00,28.846
457.00,28.943
458.00,28.992
459.00,29.138
460.00,29.278
461.00,29.363
462.00,29.490
463.00,29.644
464.00,29.770
465.00,29.855
466.00,29.968
467.00,30.055
468.00,30.120
469.00,30.296
470.00,30.401
471.00,30.338
472.00,30.569
473.00,30.630
474.00,30.730
475.00,30.836
476.00,30.914
477.00,31.046
478.00,31.151
479.00,31.321
480.00,31.438
481.00,31.542
482.00,31.680
483.00,31.848
484.00,31.985
485.00,32.100
486.00,32.263
487.00,32.409
488.00,32.521
489.00,32.670
490.00,32.801
491.00,32.910
492.00,33.171
493.00,33.279
494.00,33.177
495.00,33.390
496.00,33.400
497.00,33.639
498.00,33.805
499.00,33.861
500.00,33.956
501.00,34.113
502.00,34.237
503.00,34.363
504.00,34.439
505.00,34.551
506.00,34.683
507.00,34.816
508.00,34.833
509.00,35.021
510.00,35.130
511.00,35.205
512.00,35.375
513.00,35.518
514.00,35.623
515.00,35.744
516.00,35.830
517.00,35.918
518.00,36.064
519.00,36.043
520.00,36.214
521.00,36.280
522.00,36.373
523.00,36.371
524.00,36.471
525.00,36.588
526.00,36.686
527.00,36.778
528.00,36.837
529.00,37.054
530.00,37.193
531.00,37.292
532.00,37.314
533.00,37.457
534.00,37.535
535.00,37.608
536.00,37.730
537.00,37.801
538.00,37.789
539.00,37.809
540.00,37.979
541.00,37.995
542.00,38.125
543.00,38.155
544.00,38.237
545.00,38.318
546.00,38.364
547.00,38.518
548.00,38.617
549.00,38.632
550.00,38.723
551.00,38.834
552.00,38.901
553.00,38.913
554.00,39.041
555.00,39.076
556.00,39.152
557.00,39.190
558.00,39.266
559.00,39.362
560.00,39.403
561.00,39.468
562.00,39.562
563.00,39.573
564.00,39.588
565.00,39.599
566.00,39.684
567.00,39.720
568.00,39.799
569.00,39.853
570.00,39.874
571.00,39.917
572.00,39.938
573.00,39.962
574.00,39.961
575.00,40.008
576.00,40.003
577.00,40.051
578.00,40.190
579.00,40.266
580.00,40.253
581.00,40.492
582.00,40.537
583.00,40.504
584.00,40.618
585.00,40.683
586.00,40.715
587.00,40.815
588.00,40.801
589.00,40.812
590.00,40.825
591.00,40.877
592.00,40.893
593.00,40.887
594.00,41.063
595.00,41.155
596.00,41.140
597.00,41.220
598.00,41.251
599.00,41.275
600.00,41.368
601.00,41.356
602.00,41.385
603.00,41.452
604.00,41.465
605.00,41.531
606.00,41.523
607.00,41.536
608.00,41.762
609.00,41.836
610.00,41.678
611.00,41.685
612.00,41.721
613.00,41.854
614.00,41.889
615.00,41.977
616.00,42.084
617.00,42.048
618.00,42.042
619.00,42.072
620.00,42.178
621.00,42.198
622.00,42.258
623.00,42.306
624.00,42.383
625.00,42.492
626.00,42.503
627.00,42.548
628.00,42.561
629.00,42.581
630.00,42.608
631.00,42.637
632.00,42.715
633.00,42.791
634.00,42.900
635.00,42.971
636.00,42.977
637.00,43.002
638.00,43.048
639.00,43.217
640.00,43.220
641.00,43.149
642.00,43.126
643.00,43.385
644.00,43.486
645.00,43.447
646.00,43.606
647.00,43.631
648.00,43.762
649.00,43.730
650.00,43.657
651.00,43.839
652.00,43.901
653.00,43.889
654.00,43.951
655.00,44.120
656.00,44.473
657.00,44.325
658.00,44.409
659.00,44.620
660.00,44.490
661.00,44.473
662.00,44.554
663.00,44.644
664.00,44.915
665.00,45.026
666.00,44.882
667.00,44.959
668.00,44.887
669.00,45.238
670.00,45.411
671.00,45.295
672.00,45.381
673.00,45.421
674.00,45.477
675.00,45.554
676.00,45.791
677.00,45.836
678.00,45.617
679.00,45.862
680.00,45.889
681.00,45.986
682.00,45.988
683.00,46.034
684.00,46.212
685.00,46.268
686.00,46.066
687.00,46.114
688.00,46.283
689.00,46.341
690.00,46.639
691.00,46.814
692.00,46.567
693.00,46.517
694.00,46.685
695.00,46.884
696.00,46.917
697.00,46.866
698.00,46.889
699.00,47.343
700.00,47.348
701.00,47.113
702.00,47.271
703.00,47.492
704.00,47.482
705.00,47.340
706.00,47.347
707.00,47.364
708.00,47.590
709.00,48.091
710.00,47.667
711.00,47.474
712.00,47.681
713.00,47.747
714.00,47.952
715.00,47.864
716.00,47.848
717.00,48.088
718.00,48.049
719.00,48.086
720.00,48.113
721.00,52.683
722.00,52.651
723.00,52.705
724.00,52.647
725.00,52.575
726.00,52.723
727.00,52.674
728.00,52.643
729.00,52.675
730.00,52.707
731.00,52.709
732.00,52.759
733.00,52.793
734.00,52.701
735.00,52.848
736.00,52.769
737.00,52.833
738.00,52.828
739.00,52.792
740.00,52.739
741.00,52.828
742.00,52.822
743.00,52.853
744.00,52.768
745.00,52.906
746.00,52.814
747.00,52.869
748.00,52.864
749.00,52.881
750.00,52.774
751.00,52.706
752.00,52.741
753.00,52.713
754.00,52.762
755.00,52.769
756.00,52.734
757.00,52.723
758.00,52.752
759.00,52.791
760.00,52.793
761.00,52.756
762.00,52.719
763.00,52.771
764.00,52.733
765.00,52.648
766.00,52.686
767.00,52.760
768.00,52.685
769.00,52.687
770.00,52.764
771.00,52.731
772.00,52.818
773.00,52.688
774.00,52.738
775.00,52.667
776.00,52.681
777.00,52.700
778.00,52.702
779.00,52.720
780.00,52.646
781.00,52.721
782.00,52.667
783.00,52.620
784.00,52.611
785.00,52.491
786.00,52.652
787.00,52.570
788.00,52.562
789.00,52.507
790.00,52.434
791.00,52.600
792.00,52.472
793.00,52.472
794.00,52.448
795.00,52.424
796.00,52.410
797.00,52.330
798.00,52.330
799.00,52.284
800.00,52.299
801.00,52.286
802.00,52.326
803.00,52.256
804.00,52.185
805.00,52.235
806.00,52.188
807.00,52.193
808.00,52.126
809.00,52.130
810.00,52.112
811.00,52.155
812.00,52.136
813.00,51.978
814.00,52.071
815.00,52.026
816.00,51.954
817.00,52.064
818.00,51.884
819.00,51.965
820.00,51.838
821.00,51.924
822.00,51.924
823.00,51.783
824.00,51.800
825.00,52.071
826.00,51.867
827.00,51.913
828.00,51.782
829.00,51.776
830.00,51.824
831.00,54.161
832.00,54.138
833.00,54.089
834.00,54.085
835.00,54.044
836.00,54.051
837.00,54.023
838.00,54.008
839.00,54.000
840.00,53.900
841.00,53.935
842.00,53.878
843.00,53.898
844.00,53.841
845.00,53.851
846.00,53.802
847.00,53.808
848.00,53.787
849.00,53.696
850.00,53.699
851.00,53.638
852.00,53.683
853.00,53.608
854.00,53.580
855.00,53.518
856.00,53.533
857.00,53.466
858.00,53.464
859.00,53.406
860.00,53.430
861.00,53.413
862.00,53.362
863.00,53.380
864.00,53.338
865.00,53.353
866.00,53.352
867.00,53.324
868.00,53.210
869.00,53.288
870.00,53.255
871.00,53.242
872.00,53.244
873.00,53.190
874.00,53.217
875.00,53.159
876.00,53.200
877.00,53.176
878.00,53.134
879.00,53.132
880.00,53.102
881.00,53.088
882.00,53.119
883.00,53.083
884.00,53.029
885.00,53.053
886.00,53.015
887.00,52.983
888.00,52.962
889.00,52.930
890.00,52.925
891.00,52.896
892.00,52.908
893.00,52.741
894.00,52.869
895.00,52.807
896.00,52.797
897.00,52.781
898.00,52.732
899.00,52.724
900.00,52.712
901.00,52.719
902.00,52.704
903.00,52.673
904.00,52.650
905.00,52.624
906.00,52.642
907.00,52.591
908.00,52.551
909.00,52.544
910.00,52.505
911.00,52.501
912.00,52.484
913.00,52.476
914.00,52.453
915.00,52.416
916.00,52.483
917.00,52.316
918.00,52.410
919.00,52.372
920.00,52.302
921.00,52.299
922.00,52.290
923.00,52.264
924.00,52.228
925.00,52.245
926.00,52.233
927.00,52.183
928.00,52.101
929.00,52.174
930.00,52.120
931.00,52.089
932.00,52.074
933.00,52.083
934.00,52.062
935.00,52.037
936.00,52.021
937.00,52.011
938.00,51.990
939.00,51.992
940.00,51.952
941.00,51.955
942.00,51.911
943.00,51.897
944.00,51.894
945.00,51.837
946.00,51.848
947.00,51.802
948.00,51.773
949.00,51.743
950.00,51.729
951.00,51.710
952.00,51.702
953.00,51.645
954.00,51.640
955.00,51.608
956.00,51.596
957.00,51.551
958.00,51.567
959.00,51.506
960.00,51.509
961.00,51.494
962.00,51.497
963.00,51.443
964.00,51.425
965.00,51.433
966.00,51.416
967.00,51.392
968.00,51.364
969.00,51.410
970.00,51.382
971.00,51.381
972.00,51.343
973.00,51.382
974.00,51.389
975.00,51.338
976.00,51.378
977.00,51.369
978.00,51.399
979.00,51.346
980.00,51.378
981.00,51.392
982.00,51.342
983.00,51.356
984.00,51.333
985.00,51.352
986.00,51.291
987.00,51.332
988.00,51.289
989.00,51.268
990.00,51.298
991.00,51.255
992.00,51.261
993.00,51.251
994.00,51.225
995.00,51.205
996.00,51.205
997.00,51.182
998.00,51.178
999.00,51.174
1000.00,51.135
1001.00,51.138
1002.00,51.138
1003.00,51.139
1004.00,51.077
1005.00,51.052
1006.00,51.150
1007.00,51.060
1008.00,51.041
1009.00,51.038
1010.00,51.033
1011.00,51.025
1012.00,51.008
1013.00,50.999
1014.00,50.974
1015.00,50.972
1016.00,50.937
1017.00,50.937
1018.00,50.921
1019.00,50.887
1020.00,50.890
1021.00,50.858
1022.00,50.850
1023.00,50.804
1024.00,50.797
1025.00,50.782
1026.00,50.765
1027.00,50.735
1028.00,50.745
1029.00,50.730
1030.00,50.693
1031.00,50.729
1032.00,50.683
1033.00,50.686
1034.00,50.664
1035.00,50.631
1036.00,50.601
1037.00,50.577
1038.00,50.559
1039.00,50.529
1040.00,50.529
1041.00,50.491
1042.00,50.509
1043.00,50.475
1044.00,50.507
1045.00,50.483
1046.00,50.472
1047.00,50.494
1048.00,50.498
1049.00,50.501
1050.00,50.511
1051.00,50.565
1052.00,50.541
1053.00,50.547
1054.00,50.545
1055.00,50.564
1056.00,50.578
1057.00,50.570
1058.00,50.561
1059.00,50.552
1060.00,50.557
1061.00,50.553
1062.00,50.539
1063.00,50.534
1064.00,50.545
1065.00,50.531
1066.00,50.532
1067.00,50.515
1068.00,50.545
1069.00,50.509
1070.00,50.486
1071.00,50.470
1072.00,50.508
1073.00,50.480
1074.00,50.465
1075.00,50.467
1076.00,50.457
1077.00,50.441
1078.00,50.433
1079.00,50.424
1080.00,50.437
1081.00,50.412
1082.00,50.411
1083.00,50.389
1084.00,50.392
1085.00,50.381
1086.00,50.378
1087.00,50.378
1088.00,50.360
1089.00,50.334
1090.00,50.344
1091.00,50.352
1092.00,50.328
1093.00,50.320
1094.00,50.311
1095.00,50.300
1096.00,50.279
1097.00,50.290
1098.00,50.280
1099.00,50.260
1100.00,50.244
1101.00,50.250
1102.00,50.246
1103.00,50.250
1104.00,50.236
1105.00,50.230
1106.00,50.203
1107.00,50.185
1108.00,50.192
1109.00,50.183
1110.00,50.158
1111.00,50.158
1112.00,50.155
1113.00,50.135
1114.00,50.110
1115.00,50.128
1116.00,50.122
1117.00,50.096
1118.00,50.086
1119.00,50.106
1120.00,50.096
1121.00,50.079
1122.00,50.074
1123.00,50.062
1124.00,50.053
1125.00,50.041
1126.00,50.044
1127.00,50.068
1128.00,50.039
1129.00,50.016
1130.00,50.017
1131.00,50.013
1132.00,49.996
1133.00,50.002
1134.00,49.993
1135.00,49.979
1136.00,49.986
1137.00,49.985
1138.00,49.991
1139.00,49.995
1140.00,49.979
1141.00,49.990
1142.00,49.970
1143.00,49.975
1144.00,49.948
1145.00,49.945
1146.00,49.955
1147.00,49.930
1148.00,49.928
1149.00,49.949
1150.00,49.950
1151.00,49.945
1152.00,49.948
1153.00,49.929
1154.00,49.908
1155.00,49.922
1156.00,49.928
1157.00,49.963
1158.00,49.938
1159.00,49.927
1160.00,49.923
1161.00,49.929
1162.00,49.906
1163.00,49.911
1164.00,49.927
1165.00,49.921
1166.00,49.921
1167.00,49.905
1168.00,49.930
1169.00,49.909
1170.00,49.909
1171.00,49.908
1172.00,49.923
1173.00,49.911
1174.00,49.922
1175.00,49.904
1176.00,49.906
1177.00,49.893
1178.00,49.901
1179.00,49.915
1180.00,49.891
1181.00,49.916
1182.00,49.892
1183.00,49.895
1184.00,49.883
1185.00,49.912
1186.00,49.884
1187.00,49.863
1188.00,49.868
1189.00,49.865
1190.00,49.876
1191.00,49.854
1192.00,49.878
1193.00,49.876
1194.00,49.892
1195.00,49.856
1196.00,49.897
1197.00,49.891
1198.00,49.881
1199.00,49.868
1200.00,49.874
1201.00,49.905
1202.00,49.872
1203.00,49.877
1204.00,49.886
1205.00,49.907
1206.00,49.882
1207.00,49.906
1208.00,49.892
1209.00,49.905
1210.00,49.895
1211.00,49.890
1212.00,49.907
1213.00,49.851
1214.00,49.892
1215.00,49.867
1216.00,49.891
1217.00,49.876
1218.00,49.890
1219.00,49.930
1220.00,49.889
1221.00,49.915
1222.00,49.898
1223.00,49.928
1224.00,49.909
1225.00,49.898
1226.00,49.907
1227.00,49.897
1228.00,49.896
1229.00,49.902
1230.00,49.938
1231.00,49.939
1232.00,49.955
1233.00,49.940
1234.00,49.965
1235.00,49.943
1236.00,49.946
1237.00,49.965
1238.00,49.954
1239.00,49.953
1240.00,49.942
1241.00,49.968
1242.00,49.970
1243.00,49.977
1244.00,49.957
1245.00,49.996
1246.00,50.002
1247.00,49.982
1248.00,49.984
1249.00,49.996
1250.00,49.993
1251.00,49.996
1252.00,50.003
1253.00,49.984
1254.00,50.010
1255.00,49.990
1256.00,49.988
1257.00,49.969
1258.00,50.028
1259.00,50.027
1260.00,50.057
1261.00,50.046
1262.00,50.048
1263.00,50.053
1264.00,50.065
1265.00,50.085
1266.00,50.070
1267.00,50.088
1268.00,50.086
1269.00,50.072
1270.00,50.109
1271.00,50.098
1272.00,50.096
1273.00,50.138
1274.00,50.125
1275.00,50.142
1276.00,50.131
1277.00,50.145
1278.00,50.157
1279.00,50.173
1280.00,50.160
1281.00,50.172
1282.00,50.185
1283.00,50.172
1284.00,50.206
1285.00,50.180
1286.00,50.210
1287.00,50.191
1288.00,50.185
1289.00,50.186
1290.00,50.210
1291.00,50.225
1292.00,50.197
1293.00,50.250
1294.00,50.295
1295.00,50.265
1296.00,50.265
1297.00,50.271
1298.00,50.313
1299.00,50.271
1300.00,50.280
1301.00,50.283
1302.00,50.302
1303.00,50.317
1304.00,50.310
1305.00,50.340
1306.00,50.334
1307.00,50.340
1308.00,50.357
1309.00,50.364
1310.00,50.354
1311.00,50.359
1312.00,50.374
1313.00,50.377
1314.00,50.406
1315.00,50.419
1316.00,50.405
1317.00,50.444
1318.00,50.441
1319.00,50.449
1320.00,50.450
1321.00,50.601
1322.00,50.609
1323.00,50.595
1324.00,50.574
1325.00,50.581
1326.00,50.608
1327.00,50.585
1328.00,50.596
1329.00,50.582
1330.00,50.595
1331.00,50.604
1332.00,50.584
1333.00,50.617
1334.00,50.640
1335.00,50.643
1336.00,50.675
1337.00,50.700
1338.00,50.785
1339.00,50.821
1340.00,50.871
1341.00,50.947
1342.00,51.008
1343.00,51.058
1344.00,51.120
1345.00,51.175
1346.00,51.201
1347.00,51.241
1348.00,51.261
1349.00,51.270
1350.00,51.297
1351.00,51.308
1352.00,51.340
1353.00,51.357
1354.00,51.353
1355.00,51.347
1356.00,51.374
1357.00,51.352
1358.00,51.399
1359.00,51.399
1360.00,51.397
1361.00,51.395
1362.00,51.390
1363.00,51.458
1364.00,51.451
1365.00,51.400
1366.00,51.448
1367.00,51.423
1368.00,51.396
1369.00,51.357
1370.00,51.410
1371.00,51.410
1372.00,51.409
1373.00,51.402
1374.00,51.449
1375.00,51.420
1376.00,51.404
1377.00,51.385
1378.00,51.490
1379.00,51.424
1380.00,51.434
1381.00,51.427
1382.00,51.378
1383.00,51.431
1384.00,51.342
1385.00,51.373
1386.00,51.440
1387.00,51.400
1388.00,51.376
1389.00,51.426
1390.00,51.407
1391.00,51.412
1392.00,51.406
1393.00,51.417
1394.00,51.438
1395.00,51.389
1396.00,51.377
1397.00,51.436
1398.00,51.407
1399.00,51.429
1400.00,51.405
1401.00,51.394
1402.00,51.539
1403.00,51.447
1404.00,51.467
1405.00,51.487
1406.00,51.505
1407.00,51.500
1408.00,51.510
1409.00,51.512
1410.00,51.531
1411.00,51.515
1412.00,51.577
1413.00,51.494
1414.00,51.534
1415.00,51.569
1416.00,51.601
1417.00,51.601
1418.00,51.590
1419.00,51.593
1420.00,51.618
1421.00,51.667
1422.00,51.648
1423.00,51.665
1424.00,51.665
1425.00,51.684
1426.00,51.684
1427.00,51.721
1428.00,51.723
1429.00,51.739
1430.00,51.746
1431.00,51.777
1432.00,51.812
1433.00,51.835
1434.00,51.815
1435.00,51.897
1436.00,51.884
1437.00,51.886
1438.00,51.908
1439.00,51.950
1440.00,51.963
1441.00,51.971
1442.00,51.978
1443.00,52.001
1444.00,52.061
1445.00,52.016
1446.00,52.074
1447.00,52.080
1448.00,52.115
1449.00,52.136
1450.00,52.124
1451.00,52.147
1452.00,52.174
1453.00,52.176
1454.00,52.208
1455.00,52.232
1456.00,52.250
1457.00,52.252
1458.00,52.276
1459.00,52.287
1460.00,52.327
1461.00,52.314
1462.00,52.364
1463.00,52.378
1464.00,52.368
1465.00,52.401
1466.00,52.411
1467.00,52.420
1468.00,52.496
1469.00,52.460
1470.00,52.483
1471.00,52.513
1472.00,52.511
1473.00,52.528
1474.00,52.575
1475.00,52.554
1476.00,52.603
1477.00,52.577
1478.00,52.585
1479.00,52.623
1480.00,52.614
1481.00,52.616
1482.00,52.671
1483.00,52.673
1484.00,52.703
1485.00,52.717
1486.00,52.721
1487.00,52.765
1488.00,52.775
1489.00,52.752
1490.00,52.781
1491.00,52.790
1492.00,52.826
1493.00,52.805
1494.00,52.834
1495.00,52.840
1496.00,52.885
1497.00,52.868
1498.00,52.916
1499.00,52.918
1500.00,52.925
1501.00, 
1502.00, 
1503.00, 
1504.00, 
1505.00, 
1506.00, 
1507.00, 
1508.00, 
1509.00, 
1510.00, 
1511.00, 
1512.00, 
1513.00, 
1514.00, 
1515.00, 
1516.00, 
1517.00, 
1518.00, 
1519.00, 
1520.00, 
1521.00, 
1522.00, 
1523.00, 
1524.00, 
1525.00, 
1526.00, 
1527.00, 
1528.00, 
1529.00, 
1530.00, 
1531.00, 
1532.00, 
1533.00, 
1534.00, 
1535.00, 
1536.00, 
1537.00, 
1538.00, 
1539.00, 
1540.00, 
1541.00, 
1542.00, 
1543.00, 
1544.00, 
1545.00, 
1546.00, 
1547.00, 
1548.00, 
1549.00, 
1550.00, 
1551.00, 
1552.00, 
1553.00, 
1554.00, 
1555.00, 
1556.00, 
1557.00, 
1558.00, 
1559.00, 
1560.00, 
1561.00, 
1562.00, 
1563.00, 
1564.00, 
1565.00, 
1566.00, 
1567.00, 
1568.00, 
1569.00, 
1570.00, 
1571.00, 
1572.00, 
1573.00, 
1574.00, 
1575.00, 
1576.00, 
1577.00, 
1578.00, 
1579.00, 
1580.00, 
1581.00, 
1582.00, 
1583.00, 
1584.00, 
1585.00, 
1586.00, 
1587.00, 
1588.00, 
1589.00, 
1590.00, 
1591.00, 
1592.00, 
1593.00, 
1594.00, 
1595.00, 
1596.00, 
1597.00, 
1598.00, 
1599.00, 
1600.00, 
1601.00, 
1602.00, 
1603.00, 
1604.00, 
1605.00, 
1606.00, 
1607.00, 
1608.00, 
1609.00, 
1610.00, 
1611.00, 
1612.00, 
1613.00, 
1614.00, 
1615.00, 
1616.00, 
1617.00, 
1618.00, 
1619.00, 
1620.00, 
1621.00, 
1622.00, 
1623.00, 
1624.00, 
1625.00, 
1626.00, 
1627.00, 
1628.00, 
1629.00, 
1630.00, 
1631.00, 
1632.00, 
1633.00, 
1634.00, 
1635.00, 
1636.00, 
1637.00, 
1638.00, 
1639.00, 
1640.00, 
1641.00, 
1642.00, 
1643.00, 
1644.00, 
1645.00, 
1646.00, 
1647.00, 
1648.00, 
1649.00, 
1650.00, 
1651.00, 
1652.00, 
1653.00, 
1654.00, 
1655.00, 
1656.00, 
1657.00, 
1658.00, 
1659.00, 
1660.00, 
1661.00, 
1662.00, 
1663.00, 
1664.00, 
1665.00, 
1666.00, 
1667.00, 
1668.00, 
1669.00, 
1670.00, 
1671.00, 
1672.00, 
1673.00, 
1674.00, 
1675.00, 
1676.00, 
1677.00, 
1678.00, 
1679.00, 
1680.00, 
1681.00, 
1682.00, 
1683.00, 
1684.00, 
1685.00, 
1686.00, 
1687.00, 
1688.00, 
1689.00, 
1690.00, 
1691.00, 
1692.00, 
1693.00, 
1694.00, 
1695.00, 
1696.00, 
1697.00, 
1698.00, 
1699.00, 
1700.00, 
1701.00, 
1702.00, 
1703.00, 
1704.00, 
1705.00, 
1706.00, 
1707.00, 
1708.00, 
1709.00, 
1710.00, 
1711.00, 
1712.00, 
1713.00, 
1714.00, 
1715.00, 
1716.00, 
1717.00, 
1718.00, 
1719.00, 
1720.00, 
1721.00, 
1722.00, 
1723.00, 
1724.00, 
1725.00, 
1726.00, 
1727.00, 
1728.00, 
1729.00, 
1730.00, 
1731.00, 
1732.00, 
1733.00, 
1734.00, 
1735.00, 
1736.00, 
1737.00, 
1738.00, 
1739.00, 
1740.00, 
1741.00, 
1742.00, 
1743.00, 
1744.00, 
1745.00, 
1746.00, 
1747.00, 
1748.00, 
1749.00, 
1750.00, 
1751.00, 
1752.00, 
1753.00, 
1754.00, 
1755.00, 
1756.00, 
1757.00, 
1758.00, 
1759.00, 
1760.00, 
1761.00, 
1762.00, 
1763.00, 
1764.00, 
1765.00, 
1766.00, 
1767.00, 
1768.00, 
1769.00, 
1770.00, 
1771.00, 
1772.00, 
1773.00, 
1774.00, 
1775.00, 
1776.00, 
1777.00, 
1778.00, 
1779.00, 
1780.00, 
1781.00, 
1782.00, 
1783.00, 
1784.00, 
1785.00, 
1786.00, 
1787.00, 
1788.00, 
1789.00, 
1790.00, 
1791.00, 
1792.00, 
1793.00, 
1794.00, 
1795.00, 
1796.00, 
1797.00, 
1798.00, 
1799.00, 
1800.00, 
1801.00, 
1802.00, 
1803.00, 
1804.00, 
1805.00, 
1806.00, 
1807.00, 
1808.00, 
1809.00, 
1810.00, 
1811.00, 
1812.00, 
1813.00, 
1814.00, 
1815.00, 
1816.00, 
1817.00, 
1818.00, 
1819.00, 
1820.00, 
1821.00, 
1822.00, 
1823.00, 
1824.00, 
1825.00, 
1826.00, 
1827.00, 
1828.00, 
1829.00, 
1830.00, 
1831.00, 
1832.00, 
1833.00, 
1834.00, 
1835.00, 
1836.00, 
1837.00, 
1838.00, 
1839.00, 
1840.00, 
1841.00, 
1842.00, 
1843.00, 
1844.00, 
1845.00, 
1846.00, 
1847.00, 
1848.00, 
1849.00, 
1850.00, 
1851.00, 
1852.00, 
1853.00, 
1854.00, 
1855.00, 
1856.00, 
1857.00, 
1858.00, 
1859.00, 
1860.00, 
1861.00, 
1862.00, 
1863.00, 
1864.00, 
1865.00, 
1866.00, 
1867.00, 
1868.00, 
1869.00, 
1870.00, 
1871.00, 
1872.00, 
1873.00, 
1874.00, 
1875.00, 
1876.00, 
1877.00, 
1878.00, 
1879.00, 
1880.00, 
1881.00, 
1882.00, 
1883.00, 
1884.00, 
1885.00, 
1886.00, 
1887.00, 
1888.00, 
1889.00, 
1890.00, 
1891.00, 
1892.00, 
1893.00, 
1894.00, 
1895.00, 
1896.00, 
1897.00, 
1898.00, 
1899.00, 
1900.00, 
1901.00, 
1902.00, 
1903.00, 
1904.00, 
1905.00, 
1906.00, 
1907.00, 
1908.00, 
1909.00, 
1910.00, 
1911.00, 
1912.00, 
1913.00, 
1914.00, 
1915.00, 
1916.00, 
1917.00, 
1918.00, 
1919.00, 
1920.00, 
1921.00, 
1922.00, 
1923.00, 
1924.00, 
1925.00, 
1926.00, 
1927.00, 
1928.00, 
1929.00, 
1930.00, 
1931.00, 
1932.00, 
1933.00, 
1934.00, 
1935.00, 
1936.00, 
1937.00, 
1938.00, 
1939.00, 
1940.00, 
1941.00, 
1942.00, 
1943.00, 
1944.00, 
1945.00, 
1946.00, 
1947.00, 
1948.00, 
1949.00, 
1950.00, 
1951.00, 
1952.00, 
1953.00, 
1954.00, 
1955.00, 
1956.00, 
1957.00, 
1958.00, 
1959.00, 
1960.00, 
1961.00, 
1962.00, 
1963.00, 
1964.00, 
1965.00, 
1966.00, 
1967.00, 
1968.00, 
1969.00, 
1970.00, 
1971.00, 
1972.00, 
1973.00, 
1974.00, 
1975.00, 
1976.00, 
1977.00, 
1978.00, 
1979.00, 
1980.00, 
1981.00, 
1982.00, 
1983.00, 
1984.00, 
1985.00, 
1986.00, 
1987.00, 
1988.00, 
1989.00, 
1990.00, 
1991.00, 
1992.00, 
1993.00, 
1994.00, 
1995.00, 
1996.00, 
1997.00, 
1998.00, 
1999.00, 
2000.00, 
2001.00, 
2002.00, 
2003.00, 
2004.00, 
2005.00, 
2006.00, 
2007.00, 
2008.00, 
2009.00, 
2010.00, 
2011.00, 
2012.00, 
2013.00, 
2014.00, 
2015.00, 
2016.00, 
2017.00, 
2018.00, 
2019.00, 
2020.00, 
2021.00, 
2022.00, 
2023.00, 
2024.00, 
2025.00, 
2026.00, 
2027.00, 
2028.00, 
2029.00, 
2030.00, 
2031.00, 
2032.00, 
2033.00, 
2034.00, 
2035.00, 
2036.00, 
2037.00, 
2038.00, 
2039.00, 
2040.00, 
2041.00, 
2042.00, 
2043.00, 
2044.00, 
2045.00, 
2046.00, 
2047.00, 
2048.00, 
2049.00, 
2050.00, 
2051.00, 
2052.00, 
2053.00, 
2054.00, 
2055.00, 
2056.00, 
2057.00, 
2058.00, 
2059.00, 
2060.00, 
2061.00, 
2062.00, 
2063.00, 
2064.00, 
2065.00, 
2066.00, 
2067.00, 
2068.00, 
2069.00, 
2070.00, 
2071.00, 
2072.00, 
2073.00, 
2074.00, 
2075.00, 
2076.00, 
2077.00, 
2078.00, 
2079.00, 
2080.00, 
2081.00, 
2082.00, 
2083.00, 
2084.00, 
2085.00, 
2086.00, 
2087.00, 
2088.00, 
2089.00, 
2090.00, 
2091.00, 
2092.00, 
2093.00, 
2094.00, 
2095.00, 
2096.00, 
2097.00, 
2098.00, 
2099.00, 
2100.00, 
2101.00, 
2102.00, 
2103.00, 
2104.00, 
2105.00, 
2106.00, 
2107.00, 
2108.00, 
2109.00, 
2110.00, 
2111.00, 
2112.00, 
2113.00, 
2114.00, 
2115.00, 
2116.00, 
2117.00, 
2118.00, 
2119.00, 
2120.00, 
2121.00, 
2122.00, 
2123.00, 
2124.00, 
2125.00, 
2126.00, 
2127.00, 
2128.00, 
2129.00, 
2130.00, 
2131.00, 
2132.00, 
2133.00, 
2134.00, 
2135.00, 
2136.00, 
2137.00, 
2138.00, 
2139.00, 
2140.00, 
2141.00, 
2142.00, 
2143.00, 
2144.00, 
2145.00, 
2146.00, 
2147.00, 
2148.00, 
2149.00, 
2150.00, 
2151.00, 
2152.00, 
2153.00, 
2154.00, 
2155.00, 
2156.00, 
2157.00, 
2158.00, 
2159.00, 
2160.00, 
2161.00, 
2162.00, 
2163.00, 
2164.00, 
2165.00, 
2166.00, 
2167.00, 
2168.00, 
2169.00, 
2170.00, 
2171.00, 
2172.00, 
2173.00, 
2174.00, 
2175.00, 
2176.00, 
2177.00, 
2178.00, 
2179.00, 
2180.00, 
2181.00, 
2182.00, 
2183.00, 
2184.00, 
2185.00, 
2186.00, 
2187.00, 
2188.00, 
2189.00, 
2190.00, 
2191.00, 
2192.00, 
2193.00, 
2194.00, 
2195.00, 
2196.00, 
2197.00, 
2198.00, 
2199.00, 
2200.00, 
2201.00, 
2202.00, 
2203.00, 
2204.00, 
2205.00, 
2206.00, 
2207.00, 
2208.00, 
2209.00, 
2210.00, 
2211.00, 
2212.00, 
2213.00, 
2214.00, 
2215.00, 
2216.00, 
2217.00, 
2218.00, 
2219.00, 
2220.00, 
2221.00, 
2222.00, 
2223.00, 
2224.00, 
2225.00, 
2226.00, 
2227.00, 
2228.00, 
2229.00, 
2230.00, 
2231.00, 
2232.00, 
2233.00, 
2234.00, 
2235.00, 
2236.00, 
2237.00, 
2238.00, 
2239.00, 
2240.00, 
2241.00, 
2242.00, 
2243.00, 
2244.00, 
2245.00, 
2246.00, 
2247.00, 
2248.00, 
2249.00, 
2250.00, 
2251.00, 
2252.00, 
2253.00, 
2254.00, 
2255.00, 
2256.00, 
2257.00, 
2258.00, 
2259.00, 
2260.00, 
2261.00, 
2262.00, 
2263.00, 
2264.00, 
2265.00, 
2266.00, 
2267.00, 
2268.00, 
2269.00, 
2270.00, 
2271.00, 
2272.00, 
2273.00, 
2274.00, 
2275.00, 
2276.00, 
2277.00, 
2278.00, 
2279.00, 
2280.00, 
2281.00, 
2282.00, 
2283.00, 
2284.00, 
2285.00, 
2286.00, 
2287.00, 
2288.00, 
2289.00, 
2290.00, 
2291.00, 
2292.00, 
2293.00, 
2294.00, 
2295.00, 
2296.00, 
2297.00, 
2298.00, 
2299.00, 
2300.00, 
2301.00, 
2302.00, 
2303.00, 
2304.00, 
2305.00, 
2306.00, 
2307.00, 
2308.00, 
2309.00, 
2310.00, 
2311.00, 
2312.00, 
2313.00, 
2314.00, 
2315.00, 
2316.00, 
2317.00, 
2318.00, 
2319.00, 
2320.00, 
2321.00, 
2322.00, 
2323.00, 
2324.00, 
2325.00, 
2326.00, 
2327.00, 
2328.00, 
2329.00, 
2330.00, 
2331.00, 
2332.00, 
2333.00, 
2334.00, 
2335.00, 
2336.00, 
2337.00, 
2338.00, 
2339.00, 
2340.00, 
2341.00, 
2342.00, 
2343.00, 
2344.00, 
2345.00, 
2346.00, 
2347.00, 
2348.00, 
2349.00, 
2350.00, 
2351.00, 
2352.00, 
2353.00, 
2354.00, 
2355.00, 
2356.00, 
2357.00, 
2358.00, 
2359.00, 
2360.00, 
2361.00, 
2362.00, 
2363.00, 
2364.00, 
2365.00, 
2366.00, 
2367.00, 
2368.00, 
2369.00, 
2370.00, 
2371.00, 
2372.00, 
2373.00, 
2374.00, 
2375.00, 
2376.00, 
2377.00, 
2378.00, 
2379.00, 
2380.00, 
2381.00, 
2382.00, 
2383.00, 
2384.00, 
2385.00, 
2386.00, 
2387.00, 
2388.00, 
2389.00, 
2390.00, 
2391.00, 
2392.00, 
2393.00, 
2394.00, 
2395.00, 
2396.00, 
2397.00, 
2398.00, 
2399.00, 
2400.00, 
2401.00, 
2402.00, 
2403.00, 
2404.00, 
2405.00, 
2406.00, 
2407.00, 
2408.00, 
2409.00, 
2410.00, 
2411.00, 
2412.00, 
2413.00, 
2414.00, 
2415.00, 
2416.00, 
2417.00, 
2418.00, 
2419.00, 
2420.00, 
2421.00, 
2422.00, 
2423.00, 
2424.00, 
2425.00, 
2426.00, 
2427.00, 
2428.00, 
2429.00, 
2430.00, 
2431.00, 
2432.00, 
2433.00, 
2434.00, 
2435.00, 
2436.00, 
2437.00, 
2438.00, 
2439.00, 
2440.00, 
2441.00, 
2442.00, 
2443.00, 
2444.00, 
2445.00, 
2446.00, 
2447.00, 
2448.00, 
2449.00, 
2450.00, 
2451.00, 
2452.00, 
2453.00, 
2454.00, 
2455.00, 
2456.00, 
2457.00, 
2458.00, 
2459.00, 
2460.00, 
2461.00, 
2462.00, 
2463.00, 
2464.00, 
2465.00, 
2466.00, 
2467.00, 
2468.00, 
2469.00, 
2470.00, 
2471.00, 
2472.00, 
2473.00, 
2474.00, 
2475.00, 
2476.00, 
2477.00, 
2478.00, 
2479.00, 
2480.00, 
2481.00, 
2482.00, 
2483.00, 
2484.00, 
2485.00, 
2486.00, 
2487.00, 
2488.00, 
2489.00, 
2490.00, 
2491.00, 
2492.00, 
2493.00, 
2494.00, 
2495.00, 
2496.00, 
2497.00, 
2498.00, 
2499.00, 
2500.00, 
2501.00, 
2502.00, 
2503.00, 
2504.00, 
2505.00, 
2506.00, 
2507.00, 
2508.00, 
2509.00, 
2510.00, 
2511.00, 
2512.00, 
2513.00, 
2514.00, 
2515.00, 
2516.00, 
2517.00, 
2518.00, 
2519.00, 
2520.00, 
2521.00, 
2522.00, 
2523.00, 
2524.00, 
2525.00, 
2526.00, 
2527.00, 
2528.00, 
2529.00, 
2530.00, 
2531.00, 
2532.00, 
2533.00, 
2534.00, 
2535.00, 
2536.00, 
2537.00, 
2538.00, 
2539.00, 
2540.00, 
2541.00, 
2542.00, 
2543.00, 
2544.00, 
2545.00, 
2546.00, 
2547.00, 
2548.00, 
2549.00, 
2550.00, 
2551.00, 
2552.00, 
2553.00, 
2554.00, 
2555.00, 
2556.00, 
2557.00, 
2558.00, 
2559.00, 
2560.00, 
2561.00, 
2562.00, 
2563.00, 
2564.00, 
2565.00, 
2566.00, 
2567.00, 
2568.00, 
2569.00, 
2570.00, 
2571.00, 
2572.00, 
2573.00, 
2574.00, 
2575.00, 
2576.00, 
2577.00, 
2578.00, 
2579.00, 
2580.00, 
2581.00, 
2582.00, 
2583.00, 
2584.00, 
2585.00, 
2586.00, 
2587.00, 
2588.00, 
2589.00, 
2590.00, 
2591.00, 
2592.00, 
2593.00, 
2594.00, 
2595.00, 
2596.00, 
2597.00, 
2598.00, 
2599.00, 
2600.00, 
