"2cP2 - RawData"
"Wavelength nm.","T%"
200.00,0.002
201.00,0.000
202.00,0.002
203.00,0.001
204.00,0.001
205.00,0.001
206.00,0.001
207.00,0.004
208.00,0.001
209.00,0.002
210.00,-0.000
211.00,0.004
212.00,0.005
213.00,0.001
214.00,0.000
215.00,-0.000
216.00,0.003
217.00,0.003
218.00,0.000
219.00,0.004
220.00,0.001
221.00,0.003
222.00,0.004
223.00,-0.002
224.00,-0.002
225.00,-0.001
226.00,0.001
227.00,0.002
228.00,0.001
229.00,0.003
230.00,-0.000
231.00,0.000
232.00,0.002
233.00,-0.001
234.00,0.000
235.00,0.000
236.00,0.002
237.00,0.000
238.00,-0.001
239.00,0.001
240.00,0.001
241.00,-0.000
242.00,0.001
243.00,-0.000
244.00,0.000
245.00,0.000
246.00,0.000
247.00,0.002
248.00,0.001
249.00,0.001
250.00,-0.000
251.00,0.000
252.00,0.001
253.00,0.001
254.00,-0.000
255.00,-0.001
256.00,-0.000
257.00,-0.000
258.00,0.000
259.00,0.003
260.00,0.000
261.00,0.001
262.00,0.000
263.00,0.001
264.00,0.001
265.00,0.001
266.00,-0.001
267.00,-0.001
268.00,0.000
269.00,0.001
270.00,0.001
271.00,-0.000
272.00,0.000
273.00,0.001
274.00,-0.002
275.00,-0.001
276.00,-0.000
277.00,-0.001
278.00,0.000
279.00,0.000
280.00,-0.000
281.00,0.001
282.00,-0.001
283.00,0.001
284.00,0.000
285.00,0.001
286.00,-0.001
287.00,-0.000
288.00,-0.002
289.00,0.002
290.00,0.000
291.00,0.001
292.00,0.000
293.00,-0.001
294.00,0.001
295.00,0.000
296.00,-0.000
297.00,-0.000
298.00,0.002
299.00,0.001
300.00,0.004
301.00,0.005
302.00,0.007
303.00,0.012
304.00,0.016
305.00,0.028
306.00,0.044
307.00,0.066
308.00,0.105
309.00,0.163
310.00,0.230
311.00,0.308
312.00,0.427
313.00,0.572
314.00,0.755
315.00,0.990
316.00,1.254
317.00,1.595
318.00,1.960
319.00,2.429
320.00,2.960
321.00,3.535
322.00,4.192
323.00,4.965
324.00,5.762
325.00,6.533
326.00,7.412
327.00,8.380
328.00,9.380
329.00,10.369
330.00,11.444
331.00,12.521
332.00,13.617
333.00,14.742
334.00,15.816
335.00,16.991
336.00,18.144
337.00,19.257
338.00,20.362
339.00,21.439
340.00,22.500
341.00,23.513
342.00,24.508
343.00,25.464
344.00,26.327
345.00,27.214
346.00,27.994
347.00,28.820
348.00,29.588
349.00,30.302
350.00,31.010
351.00,31.650
352.00,32.235
353.00,32.785
354.00,33.324
355.00,33.817
356.00,34.339
357.00,34.879
358.00,35.288
359.00,35.615
360.00,36.018
361.00,36.336
362.00,36.712
363.00,37.011
364.00,37.341
365.00,37.568
366.00,37.825
367.00,38.056
368.00,38.197
369.00,38.314
370.00,38.530
371.00,38.595
372.00,38.631
373.00,38.733
374.00,38.787
375.00,38.773
376.00,38.823
377.00,38.776
378.00,38.811
379.00,38.805
380.00,38.815
381.00,38.822
382.00,38.870
383.00,38.958
384.00,39.094
385.00,39.168
386.00,39.254
387.00,39.425
388.00,39.520
389.00,39.605
390.00,39.684
391.00,39.831
392.00,39.842
393.00,39.964
394.00,40.045
395.00,40.109
396.00,40.086
397.00,40.169
398.00,40.246
399.00,40.274
400.00,40.347
401.00,40.344
402.00,40.371
403.00,40.340
404.00,40.387
405.00,40.364
406.00,40.397
407.00,40.404
408.00,40.421
409.00,40.325
410.00,40.238
411.00,40.237
412.00,40.243
413.00,40.268
414.00,40.295
415.00,40.412
416.00,40.280
417.00,40.285
418.00,40.256
419.00,40.298
420.00,40.289
421.00,40.420
422.00,40.454
423.00,40.450
424.00,40.405
425.00,40.438
426.00,40.454
427.00,40.460
428.00,40.471
429.00,40.428
430.00,40.632
431.00,40.641
432.00,40.667
433.00,40.725
434.00,40.716
435.00,40.762
436.00,40.823
437.00,40.872
438.00,40.847
439.00,40.939
440.00,40.980
441.00,41.010
442.00,41.068
443.00,41.063
444.00,41.159
445.00,41.269
446.00,41.270
447.00,41.364
448.00,41.362
449.00,41.445
450.00,41.537
451.00,41.525
452.00,41.629
453.00,41.720
454.00,41.637
455.00,41.917
456.00,41.979
457.00,41.971
458.00,42.009
459.00,42.108
460.00,42.137
461.00,42.258
462.00,42.368
463.00,42.464
464.00,42.551
465.00,42.605
466.00,42.640
467.00,42.691
468.00,42.706
469.00,42.835
470.00,42.821
471.00,42.900
472.00,42.960
473.00,42.929
474.00,42.995
475.00,43.057
476.00,43.099
477.00,43.170
478.00,43.243
479.00,43.354
480.00,43.426
481.00,43.491
482.00,43.596
483.00,43.667
484.00,43.700
485.00,43.914
486.00,43.983
487.00,44.116
488.00,44.137
489.00,44.285
490.00,44.353
491.00,44.399
492.00,44.605
493.00,44.617
494.00,44.570
495.00,44.659
496.00,44.692
497.00,44.774
498.00,44.868
499.00,44.896
500.00,44.928
501.00,44.945
502.00,45.108
503.00,45.211
504.00,45.254
505.00,45.330
506.00,45.446
507.00,45.559
508.00,45.548
509.00,45.598
510.00,45.631
511.00,45.671
512.00,45.789
513.00,45.853
514.00,45.819
515.00,45.916
516.00,45.955
517.00,45.915
518.00,46.207
519.00,46.176
520.00,46.297
521.00,46.300
522.00,46.335
523.00,46.372
524.00,46.345
525.00,46.502
526.00,46.493
527.00,46.563
528.00,46.605
529.00,46.663
530.00,46.723
531.00,46.877
532.00,46.920
533.00,46.938
534.00,47.004
535.00,47.044
536.00,47.120
537.00,47.150
538.00,47.216
539.00,47.243
540.00,47.263
541.00,47.292
542.00,47.339
543.00,47.393
544.00,47.404
545.00,47.467
546.00,47.491
547.00,47.578
548.00,47.605
549.00,47.666
550.00,47.730
551.00,47.721
552.00,47.808
553.00,47.841
554.00,47.934
555.00,47.979
556.00,47.962
557.00,47.985
558.00,48.020
559.00,47.992
560.00,48.055
561.00,48.079
562.00,48.158
563.00,48.147
564.00,48.196
565.00,48.188
566.00,48.163
567.00,48.223
568.00,48.238
569.00,48.257
570.00,48.282
571.00,48.294
572.00,48.304
573.00,48.365
574.00,48.345
575.00,48.353
576.00,48.336
577.00,48.432
578.00,48.467
579.00,48.531
580.00,48.583
581.00,48.653
582.00,48.686
583.00,48.757
584.00,48.876
585.00,48.791
586.00,48.865
587.00,48.963
588.00,48.938
589.00,48.999
590.00,48.960
591.00,48.986
592.00,49.019
593.00,49.004
594.00,49.022
595.00,49.028
596.00,49.074
597.00,49.098
598.00,49.176
599.00,49.200
600.00,49.185
601.00,49.292
602.00,49.249
603.00,49.317
604.00,49.212
605.00,49.247
606.00,49.329
607.00,49.318
608.00,49.414
609.00,49.402
610.00,49.397
611.00,49.394
612.00,49.384
613.00,49.427
614.00,49.407
615.00,49.443
616.00,49.542
617.00,49.533
618.00,49.582
619.00,49.534
620.00,49.560
621.00,49.550
622.00,49.616
623.00,49.628
624.00,49.562
625.00,49.686
626.00,49.650
627.00,49.638
628.00,49.696
629.00,49.653
630.00,49.695
631.00,49.681
632.00,49.605
633.00,49.660
634.00,49.813
635.00,49.890
636.00,49.893
637.00,49.933
638.00,49.973
639.00,49.984
640.00,49.968
641.00,49.978
642.00,49.956
643.00,50.009
644.00,50.055
645.00,50.089
646.00,50.132
647.00,50.051
648.00,50.101
649.00,50.179
650.00,50.133
651.00,50.189
652.00,50.225
653.00,50.264
654.00,50.206
655.00,50.235
656.00,50.252
657.00,50.459
658.00,50.392
659.00,49.802
660.00,50.420
661.00,50.336
662.00,50.479
663.00,50.466
664.00,50.489
665.00,50.451
666.00,50.508
667.00,50.575
668.00,50.509
669.00,50.531
670.00,50.613
671.00,50.611
672.00,50.551
673.00,50.751
674.00,50.741
675.00,50.701
676.00,50.768
677.00,50.655
678.00,50.603
679.00,50.716
680.00,50.735
681.00,50.771
682.00,50.717
683.00,50.747
684.00,50.853
685.00,50.868
686.00,50.720
687.00,50.858
688.00,50.874
689.00,50.844
690.00,50.852
691.00,50.933
692.00,50.992
693.00,50.825
694.00,50.925
695.00,50.963
696.00,51.021
697.00,51.037
698.00,51.065
699.00,51.141
700.00,50.964
701.00,50.990
702.00,51.067
703.00,51.051
704.00,51.053
705.00,50.932
706.00,51.067
707.00,51.003
708.00,51.018
709.00,51.140
710.00,51.085
711.00,50.933
712.00,50.944
713.00,50.944
714.00,50.974
715.00,51.096
716.00,51.084
717.00,51.176
718.00,51.113
719.00,51.066
720.00,51.097
721.00,55.468
722.00,55.290
723.00,55.291
724.00,55.136
725.00,55.065
726.00,55.119
727.00,55.075
728.00,55.011
729.00,54.943
730.00,54.991
731.00,54.903
732.00,54.900
733.00,54.824
734.00,54.847
735.00,54.804
736.00,54.837
737.00,54.751
738.00,54.715
739.00,54.717
740.00,54.678
741.00,54.673
742.00,54.564
743.00,54.602
744.00,54.508
745.00,54.473
746.00,54.414
747.00,54.442
748.00,54.359
749.00,54.263
750.00,54.202
751.00,54.125
752.00,54.187
753.00,54.059
754.00,54.058
755.00,54.009
756.00,54.033
757.00,53.968
758.00,53.896
759.00,53.932
760.00,53.810
761.00,53.841
762.00,53.781
763.00,53.770
764.00,53.776
765.00,53.654
766.00,53.653
767.00,53.669
768.00,53.617
769.00,53.623
770.00,53.664
771.00,53.501
772.00,53.585
773.00,53.503
774.00,53.529
775.00,53.475
776.00,53.439
777.00,53.416
778.00,53.414
779.00,53.432
780.00,53.402
781.00,53.320
782.00,53.285
783.00,53.280
784.00,53.192
785.00,53.161
786.00,53.140
787.00,53.187
788.00,53.128
789.00,53.103
790.00,52.955
791.00,52.975
792.00,52.944
793.00,52.822
794.00,52.933
795.00,52.800
796.00,52.843
797.00,52.742
798.00,52.710
799.00,52.743
800.00,52.666
801.00,52.685
802.00,52.580
803.00,52.591
804.00,52.494
805.00,52.512
806.00,52.490
807.00,52.433
808.00,52.410
809.00,52.396
810.00,52.405
811.00,52.268
812.00,52.326
813.00,52.235
814.00,52.236
815.00,52.244
816.00,52.215
817.00,52.099
818.00,52.012
819.00,52.011
820.00,52.023
821.00,52.021
822.00,52.032
823.00,51.916
824.00,51.841
825.00,52.127
826.00,51.963
827.00,51.931
828.00,51.828
829.00,51.773
830.00,51.876
831.00,54.399
832.00,54.368
833.00,54.358
834.00,54.306
835.00,54.237
836.00,54.217
837.00,54.292
838.00,54.137
839.00,54.147
840.00,54.055
841.00,54.057
842.00,54.033
843.00,54.046
844.00,53.992
845.00,53.933
846.00,53.939
847.00,53.911
848.00,54.041
849.00,53.817
850.00,53.774
851.00,53.703
852.00,53.708
853.00,53.641
854.00,53.628
855.00,53.585
856.00,53.560
857.00,53.527
858.00,53.512
859.00,53.466
860.00,53.461
861.00,53.440
862.00,53.376
863.00,53.399
864.00,53.344
865.00,53.345
866.00,53.315
867.00,53.286
868.00,53.272
869.00,53.273
870.00,53.198
871.00,53.210
872.00,53.204
873.00,53.172
874.00,53.161
875.00,53.154
876.00,53.129
877.00,53.092
878.00,53.086
879.00,53.059
880.00,53.062
881.00,53.017
882.00,53.028
883.00,53.012
884.00,52.955
885.00,52.930
886.00,52.909
887.00,52.889
888.00,52.893
889.00,52.843
890.00,52.846
891.00,52.823
892.00,52.815
893.00,52.585
894.00,52.858
895.00,52.688
896.00,52.686
897.00,52.662
898.00,52.639
899.00,52.606
900.00,52.622
901.00,52.590
902.00,52.574
903.00,52.553
904.00,52.561
905.00,52.504
906.00,52.506
907.00,52.484
908.00,52.437
909.00,52.429
910.00,52.377
911.00,52.389
912.00,52.386
913.00,52.319
914.00,52.301
915.00,52.276
916.00,52.340
917.00,52.148
918.00,52.223
919.00,52.213
920.00,52.171
921.00,52.152
922.00,52.126
923.00,52.100
924.00,52.074
925.00,52.041
926.00,52.029
927.00,52.019
928.00,52.012
929.00,51.980
930.00,51.973
931.00,51.948
932.00,51.871
933.00,51.935
934.00,51.893
935.00,51.871
936.00,51.834
937.00,51.824
938.00,51.801
939.00,51.803
940.00,51.764
941.00,51.751
942.00,51.693
943.00,51.705
944.00,51.678
945.00,51.658
946.00,51.671
947.00,51.638
948.00,51.566
949.00,51.647
950.00,51.571
951.00,51.548
952.00,51.495
953.00,51.462
954.00,51.453
955.00,51.415
956.00,51.402
957.00,51.351
958.00,51.387
959.00,51.333
960.00,51.325
961.00,51.288
962.00,51.319
963.00,51.259
964.00,51.251
965.00,51.232
966.00,51.229
967.00,51.215
968.00,51.182
969.00,51.216
970.00,51.186
971.00,51.188
972.00,51.160
973.00,51.184
974.00,51.193
975.00,51.171
976.00,51.192
977.00,51.173
978.00,51.213
979.00,51.232
980.00,51.177
981.00,51.184
982.00,51.139
983.00,51.140
984.00,51.139
985.00,51.160
986.00,51.110
987.00,51.127
988.00,51.100
989.00,51.095
990.00,51.103
991.00,51.079
992.00,51.082
993.00,51.057
994.00,51.037
995.00,51.031
996.00,51.018
997.00,50.995
998.00,50.969
999.00,50.978
1000.00,50.935
1001.00,50.951
1002.00,50.934
1003.00,50.919
1004.00,50.899
1005.00,50.873
1006.00,50.899
1007.00,50.873
1008.00,50.841
1009.00,50.830
1010.00,50.811
1011.00,50.806
1012.00,50.765
1013.00,50.768
1014.00,50.744
1015.00,50.753
1016.00,50.709
1017.00,50.716
1018.00,50.706
1019.00,50.667
1020.00,50.669
1021.00,50.645
1022.00,50.640
1023.00,50.598
1024.00,50.597
1025.00,50.587
1026.00,50.573
1027.00,50.534
1028.00,50.539
1029.00,50.529
1030.00,50.492
1031.00,50.509
1032.00,50.467
1033.00,50.458
1034.00,50.441
1035.00,50.409
1036.00,50.382
1037.00,50.357
1038.00,50.336
1039.00,50.312
1040.00,50.296
1041.00,50.261
1042.00,50.266
1043.00,50.233
1044.00,50.259
1045.00,50.254
1046.00,50.248
1047.00,50.259
1048.00,50.264
1049.00,50.278
1050.00,50.293
1051.00,50.301
1052.00,50.315
1053.00,50.329
1054.00,50.324
1055.00,50.344
1056.00,50.353
1057.00,50.342
1058.00,50.338
1059.00,50.331
1060.00,50.323
1061.00,50.324
1062.00,50.312
1063.00,50.309
1064.00,50.291
1065.00,50.296
1066.00,50.290
1067.00,50.265
1068.00,50.284
1069.00,50.257
1070.00,50.239
1071.00,50.213
1072.00,50.236
1073.00,50.202
1074.00,50.193
1075.00,50.186
1076.00,50.175
1077.00,50.162
1078.00,50.162
1079.00,50.145
1080.00,50.155
1081.00,50.122
1082.00,50.132
1083.00,50.124
1084.00,50.110
1085.00,50.101
1086.00,50.095
1087.00,50.089
1088.00,50.065
1089.00,50.041
1090.00,50.058
1091.00,50.050
1092.00,50.048
1093.00,50.019
1094.00,50.003
1095.00,50.019
1096.00,49.990
1097.00,49.977
1098.00,49.987
1099.00,49.963
1100.00,49.949
1101.00,49.950
1102.00,49.931
1103.00,49.931
1104.00,49.914
1105.00,49.905
1106.00,49.900
1107.00,49.885
1108.00,49.888
1109.00,49.867
1110.00,49.873
1111.00,49.860
1112.00,49.860
1113.00,49.844
1114.00,49.844
1115.00,49.851
1116.00,49.833
1117.00,49.813
1118.00,49.808
1119.00,49.795
1120.00,49.801
1121.00,49.787
1122.00,49.781
1123.00,49.773
1124.00,49.773
1125.00,49.761
1126.00,49.756
1127.00,49.766
1128.00,49.753
1129.00,49.720
1130.00,49.714
1131.00,49.711
1132.00,49.697
1133.00,49.686
1134.00,49.702
1135.00,49.671
1136.00,49.665
1137.00,49.661
1138.00,49.672
1139.00,49.669
1140.00,49.648
1141.00,49.647
1142.00,49.644
1143.00,49.651
1144.00,49.633
1145.00,49.631
1146.00,49.638
1147.00,49.623
1148.00,49.613
1149.00,49.627
1150.00,49.622
1151.00,49.613
1152.00,49.594
1153.00,49.594
1154.00,49.595
1155.00,49.605
1156.00,49.583
1157.00,49.606
1158.00,49.583
1159.00,49.578
1160.00,49.582
1161.00,49.592
1162.00,49.579
1163.00,49.573
1164.00,49.570
1165.00,49.560
1166.00,49.553
1167.00,49.546
1168.00,49.561
1169.00,49.563
1170.00,49.549
1171.00,49.540
1172.00,49.551
1173.00,49.532
1174.00,49.548
1175.00,49.541
1176.00,49.547
1177.00,49.534
1178.00,49.534
1179.00,49.548
1180.00,49.523
1181.00,49.538
1182.00,49.536
1183.00,49.514
1184.00,49.508
1185.00,49.535
1186.00,49.507
1187.00,49.517
1188.00,49.505
1189.00,49.511
1190.00,49.512
1191.00,49.503
1192.00,49.522
1193.00,49.504
1194.00,49.517
1195.00,49.475
1196.00,49.503
1197.00,49.493
1198.00,49.494
1199.00,49.496
1200.00,49.489
1201.00,49.509
1202.00,49.492
1203.00,49.492
1204.00,49.492
1205.00,49.506
1206.00,49.488
1207.00,49.502
1208.00,49.471
1209.00,49.477
1210.00,49.482
1211.00,49.478
1212.00,49.494
1213.00,49.449
1214.00,49.481
1215.00,49.473
1216.00,49.482
1217.00,49.478
1218.00,49.474
1219.00,49.490
1220.00,49.470
1221.00,49.479
1222.00,49.458
1223.00,49.487
1224.00,49.466
1225.00,49.453
1226.00,49.462
1227.00,49.450
1228.00,49.461
1229.00,49.466
1230.00,49.513
1231.00,49.498
1232.00,49.516
1233.00,49.509
1234.00,49.519
1235.00,49.512
1236.00,49.507
1237.00,49.507
1238.00,49.510
1239.00,49.513
1240.00,49.502
1241.00,49.518
1242.00,49.506
1243.00,49.520
1244.00,49.497
1245.00,49.523
1246.00,49.542
1247.00,49.536
1248.00,49.533
1249.00,49.541
1250.00,49.536
1251.00,49.552
1252.00,49.561
1253.00,49.552
1254.00,49.575
1255.00,49.549
1256.00,49.535
1257.00,49.511
1258.00,49.557
1259.00,49.551
1260.00,49.572
1261.00,49.576
1262.00,49.577
1263.00,49.579
1264.00,49.583
1265.00,49.592
1266.00,49.586
1267.00,49.601
1268.00,49.611
1269.00,49.584
1270.00,49.613
1271.00,49.625
1272.00,49.612
1273.00,49.625
1274.00,49.627
1275.00,49.625
1276.00,49.627
1277.00,49.625
1278.00,49.639
1279.00,49.632
1280.00,49.641
1281.00,49.659
1282.00,49.667
1283.00,49.646
1284.00,49.662
1285.00,49.645
1286.00,49.656
1287.00,49.650
1288.00,49.654
1289.00,49.646
1290.00,49.665
1291.00,49.669
1292.00,49.690
1293.00,49.673
1294.00,49.697
1295.00,49.705
1296.00,49.704
1297.00,49.718
1298.00,49.736
1299.00,49.709
1300.00,49.709
1301.00,49.720
1302.00,49.714
1303.00,49.740
1304.00,49.726
1305.00,49.731
1306.00,49.740
1307.00,49.756
1308.00,49.766
1309.00,49.772
1310.00,49.773
1311.00,49.777
1312.00,49.777
1313.00,49.769
1314.00,49.787
1315.00,49.796
1316.00,49.785
1317.00,49.808
1318.00,49.803
1319.00,49.799
1320.00,49.818
1321.00,49.967
1322.00,49.986
1323.00,49.976
1324.00,49.940
1325.00,49.965
1326.00,49.988
1327.00,49.972
1328.00,49.991
1329.00,49.969
1330.00,49.968
1331.00,49.972
1332.00,49.965
1333.00,49.983
1334.00,50.003
1335.00,49.998
1336.00,50.040
1337.00,50.075
1338.00,50.132
1339.00,50.188
1340.00,50.234
1341.00,50.302
1342.00,50.375
1343.00,50.415
1344.00,50.471
1345.00,50.524
1346.00,50.554
1347.00,50.577
1348.00,50.596
1349.00,50.606
1350.00,50.627
1351.00,50.644
1352.00,50.649
1353.00,50.705
1354.00,50.679
1355.00,50.663
1356.00,50.694
1357.00,50.675
1358.00,50.705
1359.00,50.706
1360.00,50.719
1361.00,50.726
1362.00,50.687
1363.00,50.749
1364.00,50.742
1365.00,50.690
1366.00,50.751
1367.00,50.702
1368.00,50.647
1369.00,50.715
1370.00,50.678
1371.00,50.674
1372.00,50.678
1373.00,50.683
1374.00,50.686
1375.00,50.680
1376.00,50.663
1377.00,50.649
1378.00,50.732
1379.00,50.681
1380.00,50.661
1381.00,50.676
1382.00,50.596
1383.00,50.663
1384.00,50.622
1385.00,50.592
1386.00,50.684
1387.00,50.623
1388.00,50.605
1389.00,50.618
1390.00,50.681
1391.00,50.651
1392.00,50.634
1393.00,50.676
1394.00,50.637
1395.00,50.670
1396.00,50.603
1397.00,50.643
1398.00,50.650
1399.00,50.628
1400.00,50.590
1401.00,50.632
1402.00,50.689
1403.00,50.610
1404.00,50.610
1405.00,50.689
1406.00,50.674
1407.00,50.695
1408.00,50.692
1409.00,50.675
1410.00,50.713
1411.00,50.714
1412.00,50.737
1413.00,50.672
1414.00,50.708
1415.00,50.738
1416.00,50.790
1417.00,50.763
1418.00,50.762
1419.00,50.767
1420.00,50.790
1421.00,50.826
1422.00,50.818
1423.00,50.815
1424.00,50.842
1425.00,50.848
1426.00,50.858
1427.00,50.885
1428.00,50.890
1429.00,50.899
1430.00,50.917
1431.00,50.908
1432.00,50.946
1433.00,50.962
1434.00,50.941
1435.00,51.017
1436.00,51.007
1437.00,51.003
1438.00,51.012
1439.00,51.049
1440.00,51.052
1441.00,51.063
1442.00,51.073
1443.00,51.115
1444.00,51.144
1445.00,51.106
1446.00,51.139
1447.00,51.169
1448.00,51.183
1449.00,51.202
1450.00,51.178
1451.00,51.218
1452.00,51.230
1453.00,51.243
1454.00,51.254
1455.00,51.273
1456.00,51.285
1457.00,51.290
1458.00,51.299
1459.00,51.316
1460.00,51.337
1461.00,51.339
1462.00,51.365
1463.00,51.397
1464.00,51.403
1465.00,51.424
1466.00,51.417
1467.00,51.426
1468.00,51.470
1469.00,51.463
1470.00,51.465
1471.00,51.492
1472.00,51.498
1473.00,51.508
1474.00,51.541
1475.00,51.540
1476.00,51.558
1477.00,51.559
1478.00,51.559
1479.00,51.584
1480.00,51.575
1481.00,51.575
1482.00,51.627
1483.00,51.622
1484.00,51.644
1485.00,51.667
1486.00,51.655
1487.00,51.690
1488.00,51.703
1489.00,51.683
1490.00,51.711
1491.00,51.723
1492.00,51.733
1493.00,51.745
1494.00,51.746
1495.00,51.763
1496.00,51.765
1497.00,51.770
1498.00,51.785
1499.00,51.791
1500.00,51.795
1501.00, 
1502.00, 
1503.00, 
1504.00, 
1505.00, 
1506.00, 
1507.00, 
1508.00, 
1509.00, 
1510.00, 
1511.00, 
1512.00, 
1513.00, 
1514.00, 
1515.00, 
1516.00, 
1517.00, 
1518.00, 
1519.00, 
1520.00, 
1521.00, 
1522.00, 
1523.00, 
1524.00, 
1525.00, 
1526.00, 
1527.00, 
1528.00, 
1529.00, 
1530.00, 
1531.00, 
1532.00, 
1533.00, 
1534.00, 
1535.00, 
1536.00, 
1537.00, 
1538.00, 
1539.00, 
1540.00, 
1541.00, 
1542.00, 
1543.00, 
1544.00, 
1545.00, 
1546.00, 
1547.00, 
1548.00, 
1549.00, 
1550.00, 
1551.00, 
1552.00, 
1553.00, 
1554.00, 
1555.00, 
1556.00, 
1557.00, 
1558.00, 
1559.00, 
1560.00, 
1561.00, 
1562.00, 
1563.00, 
1564.00, 
1565.00, 
1566.00, 
1567.00, 
1568.00, 
1569.00, 
1570.00, 
1571.00, 
1572.00, 
1573.00, 
1574.00, 
1575.00, 
1576.00, 
1577.00, 
1578.00, 
1579.00, 
1580.00, 
1581.00, 
1582.00, 
1583.00, 
1584.00, 
1585.00, 
1586.00, 
1587.00, 
1588.00, 
1589.00, 
1590.00, 
1591.00, 
1592.00, 
1593.00, 
1594.00, 
1595.00, 
1596.00, 
1597.00, 
1598.00, 
1599.00, 
1600.00, 
1601.00, 
1602.00, 
1603.00, 
1604.00, 
1605.00, 
1606.00, 
1607.00, 
1608.00, 
1609.00, 
1610.00, 
1611.00, 
1612.00, 
1613.00, 
1614.00, 
1615.00, 
1616.00, 
1617.00, 
1618.00, 
1619.00, 
1620.00, 
1621.00, 
1622.00, 
1623.00, 
1624.00, 
1625.00, 
1626.00, 
1627.00, 
1628.00, 
1629.00, 
1630.00, 
1631.00, 
1632.00, 
1633.00, 
1634.00, 
1635.00, 
1636.00, 
1637.00, 
1638.00, 
1639.00, 
1640.00, 
1641.00, 
1642.00, 
1643.00, 
1644.00, 
1645.00, 
1646.00, 
1647.00, 
1648.00, 
1649.00, 
1650.00, 
1651.00, 
1652.00, 
1653.00, 
1654.00, 
1655.00, 
1656.00, 
1657.00, 
1658.00, 
1659.00, 
1660.00, 
1661.00, 
1662.00, 
1663.00, 
1664.00, 
1665.00, 
1666.00, 
1667.00, 
1668.00, 
1669.00, 
1670.00, 
1671.00, 
1672.00, 
1673.00, 
1674.00, 
1675.00, 
1676.00, 
1677.00, 
1678.00, 
1679.00, 
1680.00, 
1681.00, 
1682.00, 
1683.00, 
1684.00, 
1685.00, 
1686.00, 
1687.00, 
1688.00, 
1689.00, 
1690.00, 
1691.00, 
1692.00, 
1693.00, 
1694.00, 
1695.00, 
1696.00, 
1697.00, 
1698.00, 
1699.00, 
1700.00, 
1701.00, 
1702.00, 
1703.00, 
1704.00, 
1705.00, 
1706.00, 
1707.00, 
1708.00, 
1709.00, 
1710.00, 
1711.00, 
1712.00, 
1713.00, 
1714.00, 
1715.00, 
1716.00, 
1717.00, 
1718.00, 
1719.00, 
1720.00, 
1721.00, 
1722.00, 
1723.00, 
1724.00, 
1725.00, 
1726.00, 
1727.00, 
1728.00, 
1729.00, 
1730.00, 
1731.00, 
1732.00, 
1733.00, 
1734.00, 
1735.00, 
1736.00, 
1737.00, 
1738.00, 
1739.00, 
1740.00, 
1741.00, 
1742.00, 
1743.00, 
1744.00, 
1745.00, 
1746.00, 
1747.00, 
1748.00, 
1749.00, 
1750.00, 
1751.00, 
1752.00, 
1753.00, 
1754.00, 
1755.00, 
1756.00, 
1757.00, 
1758.00, 
1759.00, 
1760.00, 
1761.00, 
1762.00, 
1763.00, 
1764.00, 
1765.00, 
1766.00, 
1767.00, 
1768.00, 
1769.00, 
1770.00, 
1771.00, 
1772.00, 
1773.00, 
1774.00, 
1775.00, 
1776.00, 
1777.00, 
1778.00, 
1779.00, 
1780.00, 
1781.00, 
1782.00, 
1783.00, 
1784.00, 
1785.00, 
1786.00, 
1787.00, 
1788.00, 
1789.00, 
1790.00, 
1791.00, 
1792.00, 
1793.00, 
1794.00, 
1795.00, 
1796.00, 
1797.00, 
1798.00, 
1799.00, 
1800.00, 
1801.00, 
1802.00, 
1803.00, 
1804.00, 
1805.00, 
1806.00, 
1807.00, 
1808.00, 
1809.00, 
1810.00, 
1811.00, 
1812.00, 
1813.00, 
1814.00, 
1815.00, 
1816.00, 
1817.00, 
1818.00, 
1819.00, 
1820.00, 
1821.00, 
1822.00, 
1823.00, 
1824.00, 
1825.00, 
1826.00, 
1827.00, 
1828.00, 
1829.00, 
1830.00, 
1831.00, 
1832.00, 
1833.00, 
1834.00, 
1835.00, 
1836.00, 
1837.00, 
1838.00, 
1839.00, 
1840.00, 
1841.00, 
1842.00, 
1843.00, 
1844.00, 
1845.00, 
1846.00, 
1847.00, 
1848.00, 
1849.00, 
1850.00, 
1851.00, 
1852.00, 
1853.00, 
1854.00, 
1855.00, 
1856.00, 
1857.00, 
1858.00, 
1859.00, 
1860.00, 
1861.00, 
1862.00, 
1863.00, 
1864.00, 
1865.00, 
1866.00, 
1867.00, 
1868.00, 
1869.00, 
1870.00, 
1871.00, 
1872.00, 
1873.00, 
1874.00, 
1875.00, 
1876.00, 
1877.00, 
1878.00, 
1879.00, 
1880.00, 
1881.00, 
1882.00, 
1883.00, 
1884.00, 
1885.00, 
1886.00, 
1887.00, 
1888.00, 
1889.00, 
1890.00, 
1891.00, 
1892.00, 
1893.00, 
1894.00, 
1895.00, 
1896.00, 
1897.00, 
1898.00, 
1899.00, 
1900.00, 
1901.00, 
1902.00, 
1903.00, 
1904.00, 
1905.00, 
1906.00, 
1907.00, 
1908.00, 
1909.00, 
1910.00, 
1911.00, 
1912.00, 
1913.00, 
1914.00, 
1915.00, 
1916.00, 
1917.00, 
1918.00, 
1919.00, 
1920.00, 
1921.00, 
1922.00, 
1923.00, 
1924.00, 
1925.00, 
1926.00, 
1927.00, 
1928.00, 
1929.00, 
1930.00, 
1931.00, 
1932.00, 
1933.00, 
1934.00, 
1935.00, 
1936.00, 
1937.00, 
1938.00, 
1939.00, 
1940.00, 
1941.00, 
1942.00, 
1943.00, 
1944.00, 
1945.00, 
1946.00, 
1947.00, 
1948.00, 
1949.00, 
1950.00, 
1951.00, 
1952.00, 
1953.00, 
1954.00, 
1955.00, 
1956.00, 
1957.00, 
1958.00, 
1959.00, 
1960.00, 
1961.00, 
1962.00, 
1963.00, 
1964.00, 
1965.00, 
1966.00, 
1967.00, 
1968.00, 
1969.00, 
1970.00, 
1971.00, 
1972.00, 
1973.00, 
1974.00, 
1975.00, 
1976.00, 
1977.00, 
1978.00, 
1979.00, 
1980.00, 
1981.00, 
1982.00, 
1983.00, 
1984.00, 
1985.00, 
1986.00, 
1987.00, 
1988.00, 
1989.00, 
1990.00, 
1991.00, 
1992.00, 
1993.00, 
1994.00, 
1995.00, 
1996.00, 
1997.00, 
1998.00, 
1999.00, 
2000.00, 
2001.00, 
2002.00, 
2003.00, 
2004.00, 
2005.00, 
2006.00, 
2007.00, 
2008.00, 
2009.00, 
2010.00, 
2011.00, 
2012.00, 
2013.00, 
2014.00, 
2015.00, 
2016.00, 
2017.00, 
2018.00, 
2019.00, 
2020.00, 
2021.00, 
2022.00, 
2023.00, 
2024.00, 
2025.00, 
2026.00, 
2027.00, 
2028.00, 
2029.00, 
2030.00, 
2031.00, 
2032.00, 
2033.00, 
2034.00, 
2035.00, 
2036.00, 
2037.00, 
2038.00, 
2039.00, 
2040.00, 
2041.00, 
2042.00, 
2043.00, 
2044.00, 
2045.00, 
2046.00, 
2047.00, 
2048.00, 
2049.00, 
2050.00, 
2051.00, 
2052.00, 
2053.00, 
2054.00, 
2055.00, 
2056.00, 
2057.00, 
2058.00, 
2059.00, 
2060.00, 
2061.00, 
2062.00, 
2063.00, 
2064.00, 
2065.00, 
2066.00, 
2067.00, 
2068.00, 
2069.00, 
2070.00, 
2071.00, 
2072.00, 
2073.00, 
2074.00, 
2075.00, 
2076.00, 
2077.00, 
2078.00, 
2079.00, 
2080.00, 
2081.00, 
2082.00, 
2083.00, 
2084.00, 
2085.00, 
2086.00, 
2087.00, 
2088.00, 
2089.00, 
2090.00, 
2091.00, 
2092.00, 
2093.00, 
2094.00, 
2095.00, 
2096.00, 
2097.00, 
2098.00, 
2099.00, 
2100.00, 
2101.00, 
2102.00, 
2103.00, 
2104.00, 
2105.00, 
2106.00, 
2107.00, 
2108.00, 
2109.00, 
2110.00, 
2111.00, 
2112.00, 
2113.00, 
2114.00, 
2115.00, 
2116.00, 
2117.00, 
2118.00, 
2119.00, 
2120.00, 
2121.00, 
2122.00, 
2123.00, 
2124.00, 
2125.00, 
2126.00, 
2127.00, 
2128.00, 
2129.00, 
2130.00, 
2131.00, 
2132.00, 
2133.00, 
2134.00, 
2135.00, 
2136.00, 
2137.00, 
2138.00, 
2139.00, 
2140.00, 
2141.00, 
2142.00, 
2143.00, 
2144.00, 
2145.00, 
2146.00, 
2147.00, 
2148.00, 
2149.00, 
2150.00, 
2151.00, 
2152.00, 
2153.00, 
2154.00, 
2155.00, 
2156.00, 
2157.00, 
2158.00, 
2159.00, 
2160.00, 
2161.00, 
2162.00, 
2163.00, 
2164.00, 
2165.00, 
2166.00, 
2167.00, 
2168.00, 
2169.00, 
2170.00, 
2171.00, 
2172.00, 
2173.00, 
2174.00, 
2175.00, 
2176.00, 
2177.00, 
2178.00, 
2179.00, 
2180.00, 
2181.00, 
2182.00, 
2183.00, 
2184.00, 
2185.00, 
2186.00, 
2187.00, 
2188.00, 
2189.00, 
2190.00, 
2191.00, 
2192.00, 
2193.00, 
2194.00, 
2195.00, 
2196.00, 
2197.00, 
2198.00, 
2199.00, 
2200.00, 
2201.00, 
2202.00, 
2203.00, 
2204.00, 
2205.00, 
2206.00, 
2207.00, 
2208.00, 
2209.00, 
2210.00, 
2211.00, 
2212.00, 
2213.00, 
2214.00, 
2215.00, 
2216.00, 
2217.00, 
2218.00, 
2219.00, 
2220.00, 
2221.00, 
2222.00, 
2223.00, 
2224.00, 
2225.00, 
2226.00, 
2227.00, 
2228.00, 
2229.00, 
2230.00, 
2231.00, 
2232.00, 
2233.00, 
2234.00, 
2235.00, 
2236.00, 
2237.00, 
2238.00, 
2239.00, 
2240.00, 
2241.00, 
2242.00, 
2243.00, 
2244.00, 
2245.00, 
2246.00, 
2247.00, 
2248.00, 
2249.00, 
2250.00, 
2251.00, 
2252.00, 
2253.00, 
2254.00, 
2255.00, 
2256.00, 
2257.00, 
2258.00, 
2259.00, 
2260.00, 
2261.00, 
2262.00, 
2263.00, 
2264.00, 
2265.00, 
2266.00, 
2267.00, 
2268.00, 
2269.00, 
2270.00, 
2271.00, 
2272.00, 
2273.00, 
2274.00, 
2275.00, 
2276.00, 
2277.00, 
2278.00, 
2279.00, 
2280.00, 
2281.00, 
2282.00, 
2283.00, 
2284.00, 
2285.00, 
2286.00, 
2287.00, 
2288.00, 
2289.00, 
2290.00, 
2291.00, 
2292.00, 
2293.00, 
2294.00, 
2295.00, 
2296.00, 
2297.00, 
2298.00, 
2299.00, 
2300.00, 
2301.00, 
2302.00, 
2303.00, 
2304.00, 
2305.00, 
2306.00, 
2307.00, 
2308.00, 
2309.00, 
2310.00, 
2311.00, 
2312.00, 
2313.00, 
2314.00, 
2315.00, 
2316.00, 
2317.00, 
2318.00, 
2319.00, 
2320.00, 
2321.00, 
2322.00, 
2323.00, 
2324.00, 
2325.00, 
2326.00, 
2327.00, 
2328.00, 
2329.00, 
2330.00, 
2331.00, 
2332.00, 
2333.00, 
2334.00, 
2335.00, 
2336.00, 
2337.00, 
2338.00, 
2339.00, 
2340.00, 
2341.00, 
2342.00, 
2343.00, 
2344.00, 
2345.00, 
2346.00, 
2347.00, 
2348.00, 
2349.00, 
2350.00, 
2351.00, 
2352.00, 
2353.00, 
2354.00, 
2355.00, 
2356.00, 
2357.00, 
2358.00, 
2359.00, 
2360.00, 
2361.00, 
2362.00, 
2363.00, 
2364.00, 
2365.00, 
2366.00, 
2367.00, 
2368.00, 
2369.00, 
2370.00, 
2371.00, 
2372.00, 
2373.00, 
2374.00, 
2375.00, 
2376.00, 
2377.00, 
2378.00, 
2379.00, 
2380.00, 
2381.00, 
2382.00, 
2383.00, 
2384.00, 
2385.00, 
2386.00, 
2387.00, 
2388.00, 
2389.00, 
2390.00, 
2391.00, 
2392.00, 
2393.00, 
2394.00, 
2395.00, 
2396.00, 
2397.00, 
2398.00, 
2399.00, 
2400.00, 
2401.00, 
2402.00, 
2403.00, 
2404.00, 
2405.00, 
2406.00, 
2407.00, 
2408.00, 
2409.00, 
2410.00, 
2411.00, 
2412.00, 
2413.00, 
2414.00, 
2415.00, 
2416.00, 
2417.00, 
2418.00, 
2419.00, 
2420.00, 
2421.00, 
2422.00, 
2423.00, 
2424.00, 
2425.00, 
2426.00, 
2427.00, 
2428.00, 
2429.00, 
2430.00, 
2431.00, 
2432.00, 
2433.00, 
2434.00, 
2435.00, 
2436.00, 
2437.00, 
2438.00, 
2439.00, 
2440.00, 
2441.00, 
2442.00, 
2443.00, 
2444.00, 
2445.00, 
2446.00, 
2447.00, 
2448.00, 
2449.00, 
2450.00, 
2451.00, 
2452.00, 
2453.00, 
2454.00, 
2455.00, 
2456.00, 
2457.00, 
2458.00, 
2459.00, 
2460.00, 
2461.00, 
2462.00, 
2463.00, 
2464.00, 
2465.00, 
2466.00, 
2467.00, 
2468.00, 
2469.00, 
2470.00, 
2471.00, 
2472.00, 
2473.00, 
2474.00, 
2475.00, 
2476.00, 
2477.00, 
2478.00, 
2479.00, 
2480.00, 
2481.00, 
2482.00, 
2483.00, 
2484.00, 
2485.00, 
2486.00, 
2487.00, 
2488.00, 
2489.00, 
2490.00, 
2491.00, 
2492.00, 
2493.00, 
2494.00, 
2495.00, 
2496.00, 
2497.00, 
2498.00, 
2499.00, 
2500.00, 
2501.00, 
2502.00, 
2503.00, 
2504.00, 
2505.00, 
2506.00, 
2507.00, 
2508.00, 
2509.00, 
2510.00, 
2511.00, 
2512.00, 
2513.00, 
2514.00, 
2515.00, 
2516.00, 
2517.00, 
2518.00, 
2519.00, 
2520.00, 
2521.00, 
2522.00, 
2523.00, 
2524.00, 
2525.00, 
2526.00, 
2527.00, 
2528.00, 
2529.00, 
2530.00, 
2531.00, 
2532.00, 
2533.00, 
2534.00, 
2535.00, 
2536.00, 
2537.00, 
2538.00, 
2539.00, 
2540.00, 
2541.00, 
2542.00, 
2543.00, 
2544.00, 
2545.00, 
2546.00, 
2547.00, 
2548.00, 
2549.00, 
2550.00, 
2551.00, 
2552.00, 
2553.00, 
2554.00, 
2555.00, 
2556.00, 
2557.00, 
2558.00, 
2559.00, 
2560.00, 
2561.00, 
2562.00, 
2563.00, 
2564.00, 
2565.00, 
2566.00, 
2567.00, 
2568.00, 
2569.00, 
2570.00, 
2571.00, 
2572.00, 
2573.00, 
2574.00, 
2575.00, 
2576.00, 
2577.00, 
2578.00, 
2579.00, 
2580.00, 
2581.00, 
2582.00, 
2583.00, 
2584.00, 
2585.00, 
2586.00, 
2587.00, 
2588.00, 
2589.00, 
2590.00, 
2591.00, 
2592.00, 
2593.00, 
2594.00, 
2595.00, 
2596.00, 
2597.00, 
2598.00, 
2599.00, 
2600.00, 
