"2cP4 - RawData"
"Wavelength nm.","T%"
200.00,0.001
201.00,0.001
202.00,0.005
203.00,0.001
204.00,-0.000
205.00,0.004
206.00,0.001
207.00,0.004
208.00,0.002
209.00,-0.001
210.00,-0.002
211.00,0.001
212.00,0.000
213.00,-0.002
214.00,-0.001
215.00,0.000
216.00,0.003
217.00,0.001
218.00,0.003
219.00,0.001
220.00,-0.001
221.00,-0.000
222.00,0.002
223.00,-0.001
224.00,-0.002
225.00,0.002
226.00,-0.001
227.00,0.002
228.00,0.001
229.00,-0.000
230.00,0.001
231.00,-0.001
232.00,-0.000
233.00,-0.001
234.00,0.002
235.00,0.002
236.00,-0.002
237.00,-0.002
238.00,0.001
239.00,-0.000
240.00,0.000
241.00,0.001
242.00,-0.002
243.00,0.000
244.00,-0.000
245.00,-0.000
246.00,0.000
247.00,-0.001
248.00,0.003
249.00,-0.000
250.00,-0.001
251.00,-0.002
252.00,0.000
253.00,-0.000
254.00,0.000
255.00,0.001
256.00,0.002
257.00,-0.000
258.00,0.001
259.00,0.001
260.00,0.001
261.00,0.000
262.00,0.000
263.00,-0.000
264.00,0.001
265.00,0.001
266.00,-0.001
267.00,0.000
268.00,0.002
269.00,0.001
270.00,0.000
271.00,0.001
272.00,0.000
273.00,0.001
274.00,0.001
275.00,-0.000
276.00,0.002
277.00,-0.000
278.00,-0.001
279.00,-0.002
280.00,-0.001
281.00,0.001
282.00,0.001
283.00,-0.001
284.00,-0.001
285.00,-0.000
286.00,-0.000
287.00,0.000
288.00,0.001
289.00,0.000
290.00,-0.001
291.00,-0.002
292.00,0.000
293.00,0.000
294.00,0.001
295.00,0.000
296.00,0.001
297.00,0.002
298.00,0.001
299.00,0.002
300.00,0.001
301.00,0.003
302.00,0.004
303.00,0.007
304.00,0.009
305.00,0.016
306.00,0.024
307.00,0.036
308.00,0.058
309.00,0.090
310.00,0.125
311.00,0.170
312.00,0.229
313.00,0.308
314.00,0.407
315.00,0.533
316.00,0.680
317.00,0.853
318.00,1.051
319.00,1.303
320.00,1.590
321.00,1.873
322.00,2.239
323.00,2.630
324.00,3.059
325.00,3.489
326.00,3.928
327.00,4.428
328.00,4.933
329.00,5.489
330.00,6.040
331.00,6.581
332.00,7.125
333.00,7.747
334.00,8.316
335.00,8.907
336.00,9.442
337.00,10.062
338.00,10.603
339.00,11.134
340.00,11.685
341.00,12.201
342.00,12.693
343.00,13.163
344.00,13.622
345.00,14.085
346.00,14.454
347.00,14.844
348.00,15.230
349.00,15.542
350.00,15.864
351.00,16.144
352.00,16.446
353.00,16.718
354.00,16.934
355.00,17.170
356.00,17.399
357.00,17.610
358.00,17.815
359.00,17.953
360.00,18.174
361.00,18.286
362.00,18.404
363.00,18.552
364.00,18.632
365.00,18.713
366.00,18.764
367.00,18.855
368.00,18.909
369.00,18.933
370.00,18.993
371.00,18.986
372.00,18.983
373.00,18.973
374.00,18.984
375.00,18.984
376.00,18.958
377.00,18.888
378.00,18.847
379.00,18.795
380.00,18.773
381.00,18.732
382.00,18.723
383.00,18.748
384.00,18.774
385.00,18.728
386.00,18.745
387.00,18.769
388.00,18.838
389.00,18.851
390.00,18.856
391.00,18.908
392.00,18.909
393.00,18.875
394.00,18.903
395.00,18.921
396.00,18.897
397.00,18.922
398.00,18.947
399.00,18.918
400.00,18.922
401.00,18.921
402.00,18.929
403.00,18.915
404.00,18.908
405.00,18.895
406.00,18.902
407.00,18.879
408.00,18.896
409.00,18.828
410.00,18.789
411.00,18.804
412.00,18.796
413.00,18.800
414.00,18.828
415.00,18.883
416.00,18.841
417.00,18.850
418.00,18.861
419.00,18.914
420.00,18.928
421.00,18.978
422.00,19.009
423.00,19.057
424.00,19.094
425.00,19.123
426.00,19.172
427.00,19.227
428.00,19.261
429.00,19.284
430.00,19.321
431.00,19.400
432.00,19.474
433.00,19.520
434.00,19.573
435.00,19.652
436.00,19.705
437.00,19.771
438.00,19.840
439.00,19.909
440.00,19.983
441.00,20.060
442.00,20.141
443.00,20.202
444.00,20.336
445.00,20.449
446.00,20.551
447.00,20.598
448.00,20.694
449.00,20.808
450.00,20.899
451.00,20.990
452.00,21.099
453.00,21.237
454.00,21.324
455.00,21.436
456.00,21.587
457.00,21.654
458.00,21.768
459.00,21.879
460.00,22.022
461.00,22.136
462.00,22.299
463.00,22.456
464.00,22.575
465.00,22.691
466.00,22.824
467.00,22.969
468.00,23.103
469.00,23.204
470.00,23.296
471.00,23.411
472.00,23.535
473.00,23.629
474.00,23.770
475.00,23.870
476.00,24.014
477.00,24.158
478.00,24.269
479.00,24.447
480.00,24.575
481.00,24.724
482.00,24.875
483.00,25.007
484.00,25.199
485.00,25.304
486.00,25.471
487.00,25.660
488.00,25.809
489.00,25.935
490.00,26.105
491.00,26.199
492.00,26.455
493.00,26.600
494.00,26.654
495.00,26.786
496.00,26.913
497.00,27.085
498.00,27.224
499.00,27.360
500.00,27.453
501.00,27.596
502.00,27.713
503.00,27.878
504.00,27.959
505.00,28.099
506.00,28.274
507.00,28.409
508.00,28.482
509.00,28.612
510.00,28.785
511.00,28.874
512.00,29.040
513.00,29.190
514.00,29.299
515.00,29.410
516.00,29.517
517.00,29.624
518.00,29.785
519.00,29.836
520.00,29.939
521.00,30.026
522.00,30.125
523.00,30.168
524.00,30.242
525.00,30.392
526.00,30.493
527.00,30.574
528.00,30.637
529.00,30.817
530.00,30.970
531.00,31.080
532.00,31.161
533.00,31.271
534.00,31.362
535.00,31.442
536.00,31.512
537.00,31.635
538.00,31.698
539.00,31.748
540.00,31.774
541.00,31.906
542.00,31.930
543.00,32.026
544.00,32.100
545.00,32.152
546.00,32.187
547.00,32.334
548.00,32.437
549.00,32.503
550.00,32.594
551.00,32.666
552.00,32.741
553.00,32.776
554.00,32.859
555.00,32.944
556.00,32.925
557.00,33.015
558.00,33.104
559.00,33.114
560.00,33.171
561.00,33.269
562.00,33.336
563.00,33.440
564.00,33.451
565.00,33.481
566.00,33.533
567.00,33.576
568.00,33.638
569.00,33.698
570.00,33.754
571.00,33.829
572.00,33.831
573.00,33.866
574.00,33.921
575.00,33.933
576.00,33.910
577.00,34.009
578.00,34.074
579.00,34.163
580.00,34.204
581.00,34.351
582.00,34.418
583.00,34.421
584.00,34.555
585.00,34.602
586.00,34.587
587.00,34.706
588.00,34.800
589.00,34.792
590.00,34.783
591.00,34.823
592.00,34.886
593.00,34.959
594.00,35.046
595.00,35.108
596.00,35.134
597.00,35.242
598.00,35.274
599.00,35.317
600.00,35.369
601.00,35.426
602.00,35.464
603.00,35.534
604.00,35.531
605.00,35.562
606.00,35.619
607.00,35.657
608.00,35.796
609.00,35.900
610.00,35.838
611.00,35.870
612.00,35.922
613.00,35.999
614.00,36.021
615.00,36.128
616.00,36.253
617.00,36.285
618.00,36.261
619.00,36.351
620.00,36.440
621.00,36.473
622.00,36.574
623.00,36.620
624.00,36.682
625.00,36.769
626.00,36.810
627.00,36.941
628.00,36.945
629.00,36.942
630.00,37.062
631.00,37.171
632.00,37.134
633.00,37.260
634.00,37.414
635.00,37.515
636.00,37.608
637.00,37.679
638.00,37.729
639.00,37.854
640.00,37.903
641.00,37.968
642.00,38.043
643.00,38.117
644.00,38.230
645.00,38.349
646.00,38.417
647.00,38.492
648.00,38.577
649.00,38.639
650.00,38.708
651.00,38.855
652.00,38.976
653.00,39.102
654.00,39.063
655.00,39.236
656.00,39.487
657.00,39.517
658.00,39.611
659.00,39.842
660.00,39.793
661.00,39.868
662.00,39.986
663.00,40.064
664.00,40.219
665.00,40.399
666.00,40.441
667.00,40.565
668.00,40.570
669.00,40.775
670.00,40.939
671.00,40.958
672.00,41.053
673.00,41.241
674.00,41.341
675.00,41.397
676.00,41.680
677.00,41.676
678.00,41.595
679.00,41.830
680.00,41.921
681.00,42.081
682.00,42.137
683.00,42.262
684.00,42.434
685.00,42.497
686.00,42.359
687.00,42.557
688.00,42.796
689.00,42.813
690.00,43.006
691.00,43.220
692.00,43.203
693.00,43.124
694.00,43.352
695.00,43.457
696.00,43.679
697.00,43.844
698.00,43.763
699.00,43.919
700.00,43.902
701.00,44.009
702.00,43.985
703.00,44.401
704.00,44.682
705.00,44.487
706.00,44.600
707.00,44.635
708.00,44.732
709.00,45.199
710.00,45.079
711.00,44.944
712.00,45.096
713.00,45.229
714.00,45.366
715.00,45.411
716.00,45.447
717.00,45.608
718.00,45.649
719.00,45.838
720.00,45.969
721.00,50.121
722.00,50.136
723.00,50.261
724.00,50.243
725.00,50.171
726.00,50.346
727.00,50.354
728.00,50.407
729.00,50.440
730.00,50.461
731.00,50.527
732.00,50.598
733.00,50.609
734.00,50.644
735.00,50.747
736.00,50.761
737.00,50.779
738.00,50.872
739.00,50.865
740.00,50.947
741.00,51.062
742.00,50.989
743.00,51.111
744.00,51.034
745.00,51.133
746.00,51.110
747.00,51.158
748.00,51.158
749.00,51.220
750.00,51.183
751.00,51.186
752.00,51.217
753.00,51.213
754.00,51.249
755.00,51.288
756.00,51.370
757.00,51.297
758.00,51.327
759.00,51.440
760.00,51.407
761.00,51.446
762.00,51.448
763.00,51.520
764.00,51.574
765.00,51.542
766.00,51.575
767.00,51.603
768.00,51.607
769.00,51.682
770.00,51.700
771.00,51.653
772.00,51.742
773.00,51.763
774.00,51.751
775.00,51.760
776.00,51.742
777.00,51.788
778.00,51.812
779.00,51.920
780.00,51.864
781.00,51.758
782.00,51.838
783.00,51.860
784.00,51.882
785.00,51.840
786.00,51.894
787.00,51.845
788.00,51.822
789.00,51.886
790.00,51.794
791.00,51.897
792.00,51.905
793.00,51.810
794.00,51.874
795.00,51.810
796.00,51.848
797.00,51.813
798.00,51.843
799.00,51.840
800.00,51.851
801.00,51.820
802.00,51.807
803.00,51.843
804.00,51.783
805.00,51.891
806.00,51.820
807.00,51.825
808.00,51.721
809.00,51.747
810.00,51.803
811.00,51.798
812.00,51.829
813.00,51.709
814.00,51.721
815.00,51.805
816.00,51.803
817.00,51.686
818.00,51.681
819.00,51.685
820.00,51.617
821.00,51.724
822.00,51.724
823.00,51.554
824.00,51.573
825.00,51.800
826.00,51.652
827.00,51.674
828.00,51.649
829.00,51.511
830.00,51.687
831.00,53.780
832.00,53.760
833.00,53.745
834.00,53.704
835.00,53.703
836.00,53.726
837.00,53.695
838.00,53.617
839.00,53.820
840.00,53.614
841.00,53.638
842.00,53.617
843.00,53.630
844.00,53.596
845.00,53.565
846.00,53.538
847.00,53.573
848.00,53.517
849.00,53.450
850.00,53.434
851.00,53.387
852.00,53.395
853.00,53.336
854.00,53.365
855.00,53.290
856.00,53.314
857.00,53.260
858.00,53.257
859.00,53.209
860.00,53.220
861.00,53.193
862.00,53.167
863.00,53.201
864.00,53.070
865.00,53.165
866.00,53.162
867.00,53.175
868.00,53.144
869.00,53.143
870.00,53.107
871.00,53.119
872.00,53.111
873.00,53.088
874.00,53.111
875.00,53.085
876.00,53.092
877.00,53.073
878.00,53.048
879.00,52.985
880.00,53.112
881.00,53.020
882.00,53.038
883.00,53.000
884.00,52.954
885.00,52.943
886.00,52.944
887.00,52.929
888.00,52.900
889.00,52.855
890.00,52.864
891.00,52.831
892.00,52.869
893.00,52.685
894.00,52.810
895.00,52.761
896.00,52.736
897.00,52.714
898.00,52.691
899.00,52.677
900.00,52.677
901.00,52.682
902.00,52.676
903.00,52.669
904.00,52.668
905.00,52.622
906.00,52.655
907.00,52.611
908.00,52.483
909.00,52.633
910.00,52.516
911.00,52.530
912.00,52.522
913.00,52.476
914.00,52.460
915.00,52.424
916.00,52.497
917.00,52.331
918.00,52.405
919.00,52.310
920.00,52.362
921.00,52.313
922.00,52.329
923.00,52.276
924.00,52.262
925.00,52.255
926.00,52.240
927.00,52.230
928.00,52.192
929.00,52.193
930.00,52.186
931.00,52.166
932.00,52.132
933.00,52.180
934.00,52.193
935.00,52.062
936.00,52.063
937.00,52.063
938.00,52.053
939.00,52.042
940.00,52.004
941.00,52.006
942.00,51.959
943.00,51.950
944.00,51.928
945.00,51.892
946.00,51.909
947.00,51.880
948.00,51.840
949.00,51.846
950.00,51.831
951.00,51.807
952.00,51.789
953.00,51.742
954.00,51.742
955.00,51.710
956.00,51.696
957.00,51.658
958.00,51.678
959.00,51.611
960.00,51.608
961.00,51.582
962.00,51.599
963.00,51.539
964.00,51.531
965.00,51.530
966.00,51.519
967.00,51.503
968.00,51.476
969.00,51.517
970.00,51.485
971.00,51.512
972.00,51.472
973.00,51.507
974.00,51.535
975.00,51.488
976.00,51.513
977.00,51.487
978.00,51.519
979.00,51.469
980.00,51.503
981.00,51.520
982.00,51.489
983.00,51.477
984.00,51.474
985.00,51.503
986.00,51.437
987.00,51.467
988.00,51.440
989.00,51.433
990.00,51.433
991.00,51.407
992.00,51.414
993.00,51.403
994.00,51.372
995.00,51.368
996.00,51.369
997.00,51.337
998.00,51.318
999.00,51.343
1000.00,51.285
1001.00,51.303
1002.00,51.302
1003.00,51.274
1004.00,51.260
1005.00,51.224
1006.00,51.261
1007.00,51.225
1008.00,51.204
1009.00,51.200
1010.00,51.182
1011.00,51.166
1012.00,51.129
1013.00,51.132
1014.00,51.100
1015.00,51.120
1016.00,51.069
1017.00,51.067
1018.00,51.069
1019.00,51.030
1020.00,51.016
1021.00,51.004
1022.00,50.992
1023.00,50.943
1024.00,50.948
1025.00,50.932
1026.00,50.932
1027.00,50.904
1028.00,50.912
1029.00,50.911
1030.00,50.871
1031.00,50.882
1032.00,50.841
1033.00,50.834
1034.00,50.808
1035.00,50.765
1036.00,50.755
1037.00,50.753
1038.00,50.711
1039.00,50.674
1040.00,50.678
1041.00,50.639
1042.00,50.649
1043.00,50.617
1044.00,50.647
1045.00,50.631
1046.00,50.629
1047.00,50.643
1048.00,50.656
1049.00,50.660
1050.00,50.663
1051.00,50.696
1052.00,50.699
1053.00,50.706
1054.00,50.702
1055.00,50.711
1056.00,50.726
1057.00,50.725
1058.00,50.711
1059.00,50.720
1060.00,50.707
1061.00,50.710
1062.00,50.705
1063.00,50.693
1064.00,50.679
1065.00,50.679
1066.00,50.664
1067.00,50.654
1068.00,50.674
1069.00,50.647
1070.00,50.614
1071.00,50.589
1072.00,50.635
1073.00,50.639
1074.00,50.586
1075.00,50.577
1076.00,50.571
1077.00,50.540
1078.00,50.534
1079.00,50.530
1080.00,50.534
1081.00,50.524
1082.00,50.524
1083.00,50.510
1084.00,50.505
1085.00,50.485
1086.00,50.483
1087.00,50.481
1088.00,50.452
1089.00,50.429
1090.00,50.441
1091.00,50.434
1092.00,50.428
1093.00,50.402
1094.00,50.390
1095.00,50.388
1096.00,50.367
1097.00,50.357
1098.00,50.373
1099.00,50.351
1100.00,50.348
1101.00,50.334
1102.00,50.329
1103.00,50.336
1104.00,50.320
1105.00,50.304
1106.00,50.311
1107.00,50.288
1108.00,50.288
1109.00,50.282
1110.00,50.265
1111.00,50.267
1112.00,50.256
1113.00,50.237
1114.00,50.231
1115.00,50.219
1116.00,50.213
1117.00,50.191
1118.00,50.190
1119.00,50.202
1120.00,50.181
1121.00,50.149
1122.00,50.148
1123.00,50.136
1124.00,50.135
1125.00,50.127
1126.00,50.117
1127.00,50.133
1128.00,50.124
1129.00,50.086
1130.00,50.087
1131.00,50.074
1132.00,50.060
1133.00,50.053
1134.00,50.061
1135.00,50.042
1136.00,50.089
1137.00,50.050
1138.00,50.048
1139.00,50.052
1140.00,50.028
1141.00,50.035
1142.00,50.032
1143.00,50.032
1144.00,50.015
1145.00,50.010
1146.00,50.021
1147.00,50.006
1148.00,49.992
1149.00,50.016
1150.00,50.030
1151.00,50.001
1152.00,49.987
1153.00,49.992
1154.00,49.977
1155.00,49.987
1156.00,49.977
1157.00,49.989
1158.00,49.982
1159.00,49.953
1160.00,49.938
1161.00,49.965
1162.00,49.947
1163.00,49.953
1164.00,49.965
1165.00,49.957
1166.00,49.957
1167.00,49.948
1168.00,49.957
1169.00,49.955
1170.00,49.942
1171.00,49.931
1172.00,49.946
1173.00,49.917
1174.00,49.932
1175.00,49.928
1176.00,49.931
1177.00,49.911
1178.00,49.906
1179.00,49.911
1180.00,49.910
1181.00,49.950
1182.00,49.915
1183.00,49.906
1184.00,49.893
1185.00,49.925
1186.00,49.917
1187.00,49.915
1188.00,49.910
1189.00,49.912
1190.00,49.904
1191.00,49.902
1192.00,49.899
1193.00,49.887
1194.00,49.895
1195.00,49.858
1196.00,49.908
1197.00,49.903
1198.00,49.876
1199.00,49.877
1200.00,49.889
1201.00,49.895
1202.00,49.884
1203.00,49.875
1204.00,49.862
1205.00,49.890
1206.00,49.854
1207.00,49.872
1208.00,49.851
1209.00,49.845
1210.00,49.861
1211.00,49.849
1212.00,49.875
1213.00,49.842
1214.00,49.861
1215.00,49.854
1216.00,49.859
1217.00,49.858
1218.00,49.851
1219.00,49.877
1220.00,49.836
1221.00,49.862
1222.00,49.852
1223.00,49.863
1224.00,49.857
1225.00,49.827
1226.00,49.839
1227.00,49.849
1228.00,49.847
1229.00,49.858
1230.00,49.902
1231.00,49.876
1232.00,49.899
1233.00,49.883
1234.00,49.890
1235.00,49.887
1236.00,49.885
1237.00,49.885
1238.00,49.901
1239.00,49.893
1240.00,49.899
1241.00,49.930
1242.00,49.911
1243.00,49.917
1244.00,49.891
1245.00,49.914
1246.00,49.931
1247.00,49.923
1248.00,49.919
1249.00,49.920
1250.00,49.922
1251.00,49.926
1252.00,49.940
1253.00,49.914
1254.00,49.939
1255.00,49.932
1256.00,49.893
1257.00,49.891
1258.00,49.961
1259.00,49.930
1260.00,49.965
1261.00,49.957
1262.00,49.952
1263.00,49.951
1264.00,49.953
1265.00,49.970
1266.00,49.963
1267.00,49.975
1268.00,49.983
1269.00,49.959
1270.00,49.977
1271.00,49.992
1272.00,49.985
1273.00,50.003
1274.00,50.003
1275.00,50.004
1276.00,50.008
1277.00,50.000
1278.00,50.010
1279.00,50.010
1280.00,50.008
1281.00,50.019
1282.00,50.041
1283.00,50.016
1284.00,50.042
1285.00,50.036
1286.00,50.052
1287.00,50.040
1288.00,50.045
1289.00,50.039
1290.00,50.071
1291.00,50.056
1292.00,50.062
1293.00,50.067
1294.00,50.068
1295.00,50.071
1296.00,50.070
1297.00,50.073
1298.00,50.096
1299.00,50.069
1300.00,50.071
1301.00,50.091
1302.00,50.080
1303.00,50.103
1304.00,50.097
1305.00,50.107
1306.00,50.118
1307.00,50.146
1308.00,50.150
1309.00,50.148
1310.00,50.152
1311.00,50.149
1312.00,50.152
1313.00,50.147
1314.00,50.160
1315.00,50.169
1316.00,50.151
1317.00,50.176
1318.00,50.176
1319.00,50.168
1320.00,50.191
1321.00,50.368
1322.00,50.357
1323.00,50.344
1324.00,50.318
1325.00,50.307
1326.00,50.348
1327.00,50.327
1328.00,50.326
1329.00,50.345
1330.00,50.322
1331.00,50.347
1332.00,50.342
1333.00,50.346
1334.00,50.342
1335.00,50.381
1336.00,50.456
1337.00,50.395
1338.00,50.483
1339.00,50.532
1340.00,50.590
1341.00,50.645
1342.00,50.714
1343.00,50.764
1344.00,50.823
1345.00,50.874
1346.00,50.887
1347.00,50.914
1348.00,50.947
1349.00,50.991
1350.00,50.990
1351.00,51.024
1352.00,51.008
1353.00,51.024
1354.00,51.019
1355.00,50.977
1356.00,51.014
1357.00,51.007
1358.00,51.041
1359.00,51.069
1360.00,51.080
1361.00,51.047
1362.00,51.026
1363.00,51.134
1364.00,51.068
1365.00,51.046
1366.00,51.101
1367.00,51.046
1368.00,51.003
1369.00,51.006
1370.00,51.040
1371.00,50.969
1372.00,50.999
1373.00,51.015
1374.00,51.019
1375.00,51.021
1376.00,51.033
1377.00,50.850
1378.00,51.085
1379.00,51.029
1380.00,50.976
1381.00,50.996
1382.00,50.855
1383.00,51.023
1384.00,50.969
1385.00,50.952
1386.00,51.023
1387.00,50.997
1388.00,50.974
1389.00,50.992
1390.00,50.991
1391.00,50.971
1392.00,50.980
1393.00,51.047
1394.00,51.001
1395.00,51.039
1396.00,50.929
1397.00,51.036
1398.00,50.587
1399.00,51.018
1400.00,50.979
1401.00,50.961
1402.00,51.052
1403.00,51.020
1404.00,50.998
1405.00,51.024
1406.00,51.039
1407.00,51.051
1408.00,51.025
1409.00,51.028
1410.00,51.067
1411.00,51.056
1412.00,51.088
1413.00,51.009
1414.00,51.047
1415.00,51.072
1416.00,51.114
1417.00,51.124
1418.00,51.121
1419.00,51.110
1420.00,51.165
1421.00,51.207
1422.00,51.192
1423.00,51.194
1424.00,51.209
1425.00,51.229
1426.00,51.228
1427.00,51.245
1428.00,51.246
1429.00,51.250
1430.00,51.257
1431.00,51.278
1432.00,51.290
1433.00,51.313
1434.00,51.300
1435.00,51.359
1436.00,51.370
1437.00,51.351
1438.00,51.362
1439.00,51.401
1440.00,51.397
1441.00,51.402
1442.00,51.422
1443.00,51.446
1444.00,51.502
1445.00,51.451
1446.00,51.460
1447.00,51.519
1448.00,51.516
1449.00,51.534
1450.00,51.518
1451.00,51.562
1452.00,51.574
1453.00,51.589
1454.00,51.611
1455.00,51.645
1456.00,51.642
1457.00,51.634
1458.00,51.698
1459.00,51.678
1460.00,51.692
1461.00,51.708
1462.00,51.729
1463.00,51.745
1464.00,51.730
1465.00,51.755
1466.00,51.758
1467.00,51.775
1468.00,51.815
1469.00,51.809
1470.00,51.805
1471.00,51.825
1472.00,51.854
1473.00,51.861
1474.00,51.889
1475.00,51.882
1476.00,51.903
1477.00,51.896
1478.00,51.918
1479.00,51.932
1480.00,51.931
1481.00,51.929
1482.00,51.973
1483.00,51.982
1484.00,52.001
1485.00,52.015
1486.00,52.018
1487.00,52.052
1488.00,52.074
1489.00,52.051
1490.00,52.075
1491.00,52.079
1492.00,52.089
1493.00,52.093
1494.00,52.112
1495.00,52.111
1496.00,52.120
1497.00,52.124
1498.00,52.135
1499.00,52.142
1500.00,52.148
1501.00, 
1502.00, 
1503.00, 
1504.00, 
1505.00, 
1506.00, 
1507.00, 
1508.00, 
1509.00, 
1510.00, 
1511.00, 
1512.00, 
1513.00, 
1514.00, 
1515.00, 
1516.00, 
1517.00, 
1518.00, 
1519.00, 
1520.00, 
1521.00, 
1522.00, 
1523.00, 
1524.00, 
1525.00, 
1526.00, 
1527.00, 
1528.00, 
1529.00, 
1530.00, 
1531.00, 
1532.00, 
1533.00, 
1534.00, 
1535.00, 
1536.00, 
1537.00, 
1538.00, 
1539.00, 
1540.00, 
1541.00, 
1542.00, 
1543.00, 
1544.00, 
1545.00, 
1546.00, 
1547.00, 
1548.00, 
1549.00, 
1550.00, 
1551.00, 
1552.00, 
1553.00, 
1554.00, 
1555.00, 
1556.00, 
1557.00, 
1558.00, 
1559.00, 
1560.00, 
1561.00, 
1562.00, 
1563.00, 
1564.00, 
1565.00, 
1566.00, 
1567.00, 
1568.00, 
1569.00, 
1570.00, 
1571.00, 
1572.00, 
1573.00, 
1574.00, 
1575.00, 
1576.00, 
1577.00, 
1578.00, 
1579.00, 
1580.00, 
1581.00, 
1582.00, 
1583.00, 
1584.00, 
1585.00, 
1586.00, 
1587.00, 
1588.00, 
1589.00, 
1590.00, 
1591.00, 
1592.00, 
1593.00, 
1594.00, 
1595.00, 
1596.00, 
1597.00, 
1598.00, 
1599.00, 
1600.00, 
1601.00, 
1602.00, 
1603.00, 
1604.00, 
1605.00, 
1606.00, 
1607.00, 
1608.00, 
1609.00, 
1610.00, 
1611.00, 
1612.00, 
1613.00, 
1614.00, 
1615.00, 
1616.00, 
1617.00, 
1618.00, 
1619.00, 
1620.00, 
1621.00, 
1622.00, 
1623.00, 
1624.00, 
1625.00, 
1626.00, 
1627.00, 
1628.00, 
1629.00, 
1630.00, 
1631.00, 
1632.00, 
1633.00, 
1634.00, 
1635.00, 
1636.00, 
1637.00, 
1638.00, 
1639.00, 
1640.00, 
1641.00, 
1642.00, 
1643.00, 
1644.00, 
1645.00, 
1646.00, 
1647.00, 
1648.00, 
1649.00, 
1650.00, 
1651.00, 
1652.00, 
1653.00, 
1654.00, 
1655.00, 
1656.00, 
1657.00, 
1658.00, 
1659.00, 
1660.00, 
1661.00, 
1662.00, 
1663.00, 
1664.00, 
1665.00, 
1666.00, 
1667.00, 
1668.00, 
1669.00, 
1670.00, 
1671.00, 
1672.00, 
1673.00, 
1674.00, 
1675.00, 
1676.00, 
1677.00, 
1678.00, 
1679.00, 
1680.00, 
1681.00, 
1682.00, 
1683.00, 
1684.00, 
1685.00, 
1686.00, 
1687.00, 
1688.00, 
1689.00, 
1690.00, 
1691.00, 
1692.00, 
1693.00, 
1694.00, 
1695.00, 
1696.00, 
1697.00, 
1698.00, 
1699.00, 
1700.00, 
1701.00, 
1702.00, 
1703.00, 
1704.00, 
1705.00, 
1706.00, 
1707.00, 
1708.00, 
1709.00, 
1710.00, 
1711.00, 
1712.00, 
1713.00, 
1714.00, 
1715.00, 
1716.00, 
1717.00, 
1718.00, 
1719.00, 
1720.00, 
1721.00, 
1722.00, 
1723.00, 
1724.00, 
1725.00, 
1726.00, 
1727.00, 
1728.00, 
1729.00, 
1730.00, 
1731.00, 
1732.00, 
1733.00, 
1734.00, 
1735.00, 
1736.00, 
1737.00, 
1738.00, 
1739.00, 
1740.00, 
1741.00, 
1742.00, 
1743.00, 
1744.00, 
1745.00, 
1746.00, 
1747.00, 
1748.00, 
1749.00, 
1750.00, 
1751.00, 
1752.00, 
1753.00, 
1754.00, 
1755.00, 
1756.00, 
1757.00, 
1758.00, 
1759.00, 
1760.00, 
1761.00, 
1762.00, 
1763.00, 
1764.00, 
1765.00, 
1766.00, 
1767.00, 
1768.00, 
1769.00, 
1770.00, 
1771.00, 
1772.00, 
1773.00, 
1774.00, 
1775.00, 
1776.00, 
1777.00, 
1778.00, 
1779.00, 
1780.00, 
1781.00, 
1782.00, 
1783.00, 
1784.00, 
1785.00, 
1786.00, 
1787.00, 
1788.00, 
1789.00, 
1790.00, 
1791.00, 
1792.00, 
1793.00, 
1794.00, 
1795.00, 
1796.00, 
1797.00, 
1798.00, 
1799.00, 
1800.00, 
1801.00, 
1802.00, 
1803.00, 
1804.00, 
1805.00, 
1806.00, 
1807.00, 
1808.00, 
1809.00, 
1810.00, 
1811.00, 
1812.00, 
1813.00, 
1814.00, 
1815.00, 
1816.00, 
1817.00, 
1818.00, 
1819.00, 
1820.00, 
1821.00, 
1822.00, 
1823.00, 
1824.00, 
1825.00, 
1826.00, 
1827.00, 
1828.00, 
1829.00, 
1830.00, 
1831.00, 
1832.00, 
1833.00, 
1834.00, 
1835.00, 
1836.00, 
1837.00, 
1838.00, 
1839.00, 
1840.00, 
1841.00, 
1842.00, 
1843.00, 
1844.00, 
1845.00, 
1846.00, 
1847.00, 
1848.00, 
1849.00, 
1850.00, 
1851.00, 
1852.00, 
1853.00, 
1854.00, 
1855.00, 
1856.00, 
1857.00, 
1858.00, 
1859.00, 
1860.00, 
1861.00, 
1862.00, 
1863.00, 
1864.00, 
1865.00, 
1866.00, 
1867.00, 
1868.00, 
1869.00, 
1870.00, 
1871.00, 
1872.00, 
1873.00, 
1874.00, 
1875.00, 
1876.00, 
1877.00, 
1878.00, 
1879.00, 
1880.00, 
1881.00, 
1882.00, 
1883.00, 
1884.00, 
1885.00, 
1886.00, 
1887.00, 
1888.00, 
1889.00, 
1890.00, 
1891.00, 
1892.00, 
1893.00, 
1894.00, 
1895.00, 
1896.00, 
1897.00, 
1898.00, 
1899.00, 
1900.00, 
1901.00, 
1902.00, 
1903.00, 
1904.00, 
1905.00, 
1906.00, 
1907.00, 
1908.00, 
1909.00, 
1910.00, 
1911.00, 
1912.00, 
1913.00, 
1914.00, 
1915.00, 
1916.00, 
1917.00, 
1918.00, 
1919.00, 
1920.00, 
1921.00, 
1922.00, 
1923.00, 
1924.00, 
1925.00, 
1926.00, 
1927.00, 
1928.00, 
1929.00, 
1930.00, 
1931.00, 
1932.00, 
1933.00, 
1934.00, 
1935.00, 
1936.00, 
1937.00, 
1938.00, 
1939.00, 
1940.00, 
1941.00, 
1942.00, 
1943.00, 
1944.00, 
1945.00, 
1946.00, 
1947.00, 
1948.00, 
1949.00, 
1950.00, 
1951.00, 
1952.00, 
1953.00, 
1954.00, 
1955.00, 
1956.00, 
1957.00, 
1958.00, 
1959.00, 
1960.00, 
1961.00, 
1962.00, 
1963.00, 
1964.00, 
1965.00, 
1966.00, 
1967.00, 
1968.00, 
1969.00, 
1970.00, 
1971.00, 
1972.00, 
1973.00, 
1974.00, 
1975.00, 
1976.00, 
1977.00, 
1978.00, 
1979.00, 
1980.00, 
1981.00, 
1982.00, 
1983.00, 
1984.00, 
1985.00, 
1986.00, 
1987.00, 
1988.00, 
1989.00, 
1990.00, 
1991.00, 
1992.00, 
1993.00, 
1994.00, 
1995.00, 
1996.00, 
1997.00, 
1998.00, 
1999.00, 
2000.00, 
2001.00, 
2002.00, 
2003.00, 
2004.00, 
2005.00, 
2006.00, 
2007.00, 
2008.00, 
2009.00, 
2010.00, 
2011.00, 
2012.00, 
2013.00, 
2014.00, 
2015.00, 
2016.00, 
2017.00, 
2018.00, 
2019.00, 
2020.00, 
2021.00, 
2022.00, 
2023.00, 
2024.00, 
2025.00, 
2026.00, 
2027.00, 
2028.00, 
2029.00, 
2030.00, 
2031.00, 
2032.00, 
2033.00, 
2034.00, 
2035.00, 
2036.00, 
2037.00, 
2038.00, 
2039.00, 
2040.00, 
2041.00, 
2042.00, 
2043.00, 
2044.00, 
2045.00, 
2046.00, 
2047.00, 
2048.00, 
2049.00, 
2050.00, 
2051.00, 
2052.00, 
2053.00, 
2054.00, 
2055.00, 
2056.00, 
2057.00, 
2058.00, 
2059.00, 
2060.00, 
2061.00, 
2062.00, 
2063.00, 
2064.00, 
2065.00, 
2066.00, 
2067.00, 
2068.00, 
2069.00, 
2070.00, 
2071.00, 
2072.00, 
2073.00, 
2074.00, 
2075.00, 
2076.00, 
2077.00, 
2078.00, 
2079.00, 
2080.00, 
2081.00, 
2082.00, 
2083.00, 
2084.00, 
2085.00, 
2086.00, 
2087.00, 
2088.00, 
2089.00, 
2090.00, 
2091.00, 
2092.00, 
2093.00, 
2094.00, 
2095.00, 
2096.00, 
2097.00, 
2098.00, 
2099.00, 
2100.00, 
2101.00, 
2102.00, 
2103.00, 
2104.00, 
2105.00, 
2106.00, 
2107.00, 
2108.00, 
2109.00, 
2110.00, 
2111.00, 
2112.00, 
2113.00, 
2114.00, 
2115.00, 
2116.00, 
2117.00, 
2118.00, 
2119.00, 
2120.00, 
2121.00, 
2122.00, 
2123.00, 
2124.00, 
2125.00, 
2126.00, 
2127.00, 
2128.00, 
2129.00, 
2130.00, 
2131.00, 
2132.00, 
2133.00, 
2134.00, 
2135.00, 
2136.00, 
2137.00, 
2138.00, 
2139.00, 
2140.00, 
2141.00, 
2142.00, 
2143.00, 
2144.00, 
2145.00, 
2146.00, 
2147.00, 
2148.00, 
2149.00, 
2150.00, 
2151.00, 
2152.00, 
2153.00, 
2154.00, 
2155.00, 
2156.00, 
2157.00, 
2158.00, 
2159.00, 
2160.00, 
2161.00, 
2162.00, 
2163.00, 
2164.00, 
2165.00, 
2166.00, 
2167.00, 
2168.00, 
2169.00, 
2170.00, 
2171.00, 
2172.00, 
2173.00, 
2174.00, 
2175.00, 
2176.00, 
2177.00, 
2178.00, 
2179.00, 
2180.00, 
2181.00, 
2182.00, 
2183.00, 
2184.00, 
2185.00, 
2186.00, 
2187.00, 
2188.00, 
2189.00, 
2190.00, 
2191.00, 
2192.00, 
2193.00, 
2194.00, 
2195.00, 
2196.00, 
2197.00, 
2198.00, 
2199.00, 
2200.00, 
2201.00, 
2202.00, 
2203.00, 
2204.00, 
2205.00, 
2206.00, 
2207.00, 
2208.00, 
2209.00, 
2210.00, 
2211.00, 
2212.00, 
2213.00, 
2214.00, 
2215.00, 
2216.00, 
2217.00, 
2218.00, 
2219.00, 
2220.00, 
2221.00, 
2222.00, 
2223.00, 
2224.00, 
2225.00, 
2226.00, 
2227.00, 
2228.00, 
2229.00, 
2230.00, 
2231.00, 
2232.00, 
2233.00, 
2234.00, 
2235.00, 
2236.00, 
2237.00, 
2238.00, 
2239.00, 
2240.00, 
2241.00, 
2242.00, 
2243.00, 
2244.00, 
2245.00, 
2246.00, 
2247.00, 
2248.00, 
2249.00, 
2250.00, 
2251.00, 
2252.00, 
2253.00, 
2254.00, 
2255.00, 
2256.00, 
2257.00, 
2258.00, 
2259.00, 
2260.00, 
2261.00, 
2262.00, 
2263.00, 
2264.00, 
2265.00, 
2266.00, 
2267.00, 
2268.00, 
2269.00, 
2270.00, 
2271.00, 
2272.00, 
2273.00, 
2274.00, 
2275.00, 
2276.00, 
2277.00, 
2278.00, 
2279.00, 
2280.00, 
2281.00, 
2282.00, 
2283.00, 
2284.00, 
2285.00, 
2286.00, 
2287.00, 
2288.00, 
2289.00, 
2290.00, 
2291.00, 
2292.00, 
2293.00, 
2294.00, 
2295.00, 
2296.00, 
2297.00, 
2298.00, 
2299.00, 
2300.00, 
2301.00, 
2302.00, 
2303.00, 
2304.00, 
2305.00, 
2306.00, 
2307.00, 
2308.00, 
2309.00, 
2310.00, 
2311.00, 
2312.00, 
2313.00, 
2314.00, 
2315.00, 
2316.00, 
2317.00, 
2318.00, 
2319.00, 
2320.00, 
2321.00, 
2322.00, 
2323.00, 
2324.00, 
2325.00, 
2326.00, 
2327.00, 
2328.00, 
2329.00, 
2330.00, 
2331.00, 
2332.00, 
2333.00, 
2334.00, 
2335.00, 
2336.00, 
2337.00, 
2338.00, 
2339.00, 
2340.00, 
2341.00, 
2342.00, 
2343.00, 
2344.00, 
2345.00, 
2346.00, 
2347.00, 
2348.00, 
2349.00, 
2350.00, 
2351.00, 
2352.00, 
2353.00, 
2354.00, 
2355.00, 
2356.00, 
2357.00, 
2358.00, 
2359.00, 
2360.00, 
2361.00, 
2362.00, 
2363.00, 
2364.00, 
2365.00, 
2366.00, 
2367.00, 
2368.00, 
2369.00, 
2370.00, 
2371.00, 
2372.00, 
2373.00, 
2374.00, 
2375.00, 
2376.00, 
2377.00, 
2378.00, 
2379.00, 
2380.00, 
2381.00, 
2382.00, 
2383.00, 
2384.00, 
2385.00, 
2386.00, 
2387.00, 
2388.00, 
2389.00, 
2390.00, 
2391.00, 
2392.00, 
2393.00, 
2394.00, 
2395.00, 
2396.00, 
2397.00, 
2398.00, 
2399.00, 
2400.00, 
2401.00, 
2402.00, 
2403.00, 
2404.00, 
2405.00, 
2406.00, 
2407.00, 
2408.00, 
2409.00, 
2410.00, 
2411.00, 
2412.00, 
2413.00, 
2414.00, 
2415.00, 
2416.00, 
2417.00, 
2418.00, 
2419.00, 
2420.00, 
2421.00, 
2422.00, 
2423.00, 
2424.00, 
2425.00, 
2426.00, 
2427.00, 
2428.00, 
2429.00, 
2430.00, 
2431.00, 
2432.00, 
2433.00, 
2434.00, 
2435.00, 
2436.00, 
2437.00, 
2438.00, 
2439.00, 
2440.00, 
2441.00, 
2442.00, 
2443.00, 
2444.00, 
2445.00, 
2446.00, 
2447.00, 
2448.00, 
2449.00, 
2450.00, 
2451.00, 
2452.00, 
2453.00, 
2454.00, 
2455.00, 
2456.00, 
2457.00, 
2458.00, 
2459.00, 
2460.00, 
2461.00, 
2462.00, 
2463.00, 
2464.00, 
2465.00, 
2466.00, 
2467.00, 
2468.00, 
2469.00, 
2470.00, 
2471.00, 
2472.00, 
2473.00, 
2474.00, 
2475.00, 
2476.00, 
2477.00, 
2478.00, 
2479.00, 
2480.00, 
2481.00, 
2482.00, 
2483.00, 
2484.00, 
2485.00, 
2486.00, 
2487.00, 
2488.00, 
2489.00, 
2490.00, 
2491.00, 
2492.00, 
2493.00, 
2494.00, 
2495.00, 
2496.00, 
2497.00, 
2498.00, 
2499.00, 
2500.00, 
2501.00, 
2502.00, 
2503.00, 
2504.00, 
2505.00, 
2506.00, 
2507.00, 
2508.00, 
2509.00, 
2510.00, 
2511.00, 
2512.00, 
2513.00, 
2514.00, 
2515.00, 
2516.00, 
2517.00, 
2518.00, 
2519.00, 
2520.00, 
2521.00, 
2522.00, 
2523.00, 
2524.00, 
2525.00, 
2526.00, 
2527.00, 
2528.00, 
2529.00, 
2530.00, 
2531.00, 
2532.00, 
2533.00, 
2534.00, 
2535.00, 
2536.00, 
2537.00, 
2538.00, 
2539.00, 
2540.00, 
2541.00, 
2542.00, 
2543.00, 
2544.00, 
2545.00, 
2546.00, 
2547.00, 
2548.00, 
2549.00, 
2550.00, 
2551.00, 
2552.00, 
2553.00, 
2554.00, 
2555.00, 
2556.00, 
2557.00, 
2558.00, 
2559.00, 
2560.00, 
2561.00, 
2562.00, 
2563.00, 
2564.00, 
2565.00, 
2566.00, 
2567.00, 
2568.00, 
2569.00, 
2570.00, 
2571.00, 
2572.00, 
2573.00, 
2574.00, 
2575.00, 
2576.00, 
2577.00, 
2578.00, 
2579.00, 
2580.00, 
2581.00, 
2582.00, 
2583.00, 
2584.00, 
2585.00, 
2586.00, 
2587.00, 
2588.00, 
2589.00, 
2590.00, 
2591.00, 
2592.00, 
2593.00, 
2594.00, 
2595.00, 
2596.00, 
2597.00, 
2598.00, 
2599.00, 
2600.00, 
