"1cP4 - RawData"
"Wavelength nm.","T%"
200.00,0.003
201.00,0.000
202.00,-0.001
203.00,0.003
204.00,0.003
205.00,0.002
206.00,0.004
207.00,0.000
208.00,-0.001
209.00,0.002
210.00,0.001
211.00,-0.000
212.00,0.002
213.00,0.001
214.00,-0.002
215.00,0.001
216.00,-0.001
217.00,0.003
218.00,0.003
219.00,0.001
220.00,-0.000
221.00,0.000
222.00,0.002
223.00,0.001
224.00,-0.002
225.00,0.001
226.00,-0.002
227.00,-0.001
228.00,0.002
229.00,-0.000
230.00,0.000
231.00,0.003
232.00,0.002
233.00,-0.003
234.00,0.002
235.00,0.001
236.00,0.002
237.00,-0.000
238.00,-0.000
239.00,0.002
240.00,-0.000
241.00,0.001
242.00,0.001
243.00,-0.000
244.00,-0.000
245.00,0.000
246.00,0.002
247.00,0.001
248.00,0.001
249.00,0.002
250.00,-0.001
251.00,-0.001
252.00,0.001
253.00,0.001
254.00,-0.000
255.00,-0.000
256.00,-0.000
257.00,0.000
258.00,-0.001
259.00,0.002
260.00,-0.002
261.00,0.001
262.00,0.000
263.00,-0.001
264.00,0.002
265.00,-0.000
266.00,0.000
267.00,0.001
268.00,-0.001
269.00,0.001
270.00,0.000
271.00,0.000
272.00,-0.000
273.00,0.000
274.00,-0.001
275.00,0.001
276.00,0.001
277.00,0.000
278.00,0.001
279.00,0.001
280.00,-0.000
281.00,-0.000
282.00,0.001
283.00,0.001
284.00,0.000
285.00,0.000
286.00,0.000
287.00,0.001
288.00,-0.000
289.00,0.001
290.00,0.000
291.00,-0.000
292.00,-0.001
293.00,0.002
294.00,-0.001
295.00,0.000
296.00,-0.000
297.00,0.000
298.00,0.000
299.00,-0.000
300.00,0.001
301.00,-0.000
302.00,0.001
303.00,0.001
304.00,0.001
305.00,0.003
306.00,0.002
307.00,0.001
308.00,0.006
309.00,0.011
310.00,0.016
311.00,0.026
312.00,0.041
313.00,0.064
314.00,0.093
315.00,0.139
316.00,0.188
317.00,0.278
318.00,0.375
319.00,0.507
320.00,0.665
321.00,0.863
322.00,1.120
323.00,1.403
324.00,1.734
325.00,2.091
326.00,2.489
327.00,2.929
328.00,3.434
329.00,3.945
330.00,4.545
331.00,5.125
332.00,5.750
333.00,6.459
334.00,7.094
335.00,7.816
336.00,8.500
337.00,9.251
338.00,9.951
339.00,10.640
340.00,11.346
341.00,12.065
342.00,12.590
343.00,13.305
344.00,13.894
345.00,14.528
346.00,15.093
347.00,15.617
348.00,16.058
349.00,16.582
350.00,17.044
351.00,17.468
352.00,17.836
353.00,18.230
354.00,18.573
355.00,18.932
356.00,19.208
357.00,19.489
358.00,19.743
359.00,20.064
360.00,20.269
361.00,20.423
362.00,20.673
363.00,20.783
364.00,20.897
365.00,21.041
366.00,21.098
367.00,21.218
368.00,21.301
369.00,21.327
370.00,21.424
371.00,21.402
372.00,21.388
373.00,21.363
374.00,21.366
375.00,21.337
376.00,21.274
377.00,21.158
378.00,21.063
379.00,20.992
380.00,20.987
381.00,20.961
382.00,20.954
383.00,21.015
384.00,20.996
385.00,21.129
386.00,21.104
387.00,21.212
388.00,21.302
389.00,21.325
390.00,21.345
391.00,21.412
392.00,21.403
393.00,21.457
394.00,21.521
395.00,21.556
396.00,21.509
397.00,21.557
398.00,21.520
399.00,21.530
400.00,21.541
401.00,21.537
402.00,21.519
403.00,21.524
404.00,21.543
405.00,21.510
406.00,21.500
407.00,21.424
408.00,21.459
409.00,21.396
410.00,21.369
411.00,21.373
412.00,21.327
413.00,21.316
414.00,21.319
415.00,21.370
416.00,21.350
417.00,21.313
418.00,21.344
419.00,21.428
420.00,21.465
421.00,21.465
422.00,21.465
423.00,21.557
424.00,21.573
425.00,21.587
426.00,21.614
427.00,21.666
428.00,21.715
429.00,21.739
430.00,21.808
431.00,21.871
432.00,21.869
433.00,21.951
434.00,22.028
435.00,22.078
436.00,22.140
437.00,22.194
438.00,22.243
439.00,22.323
440.00,22.372
441.00,22.462
442.00,22.563
443.00,22.627
444.00,22.720
445.00,22.831
446.00,22.877
447.00,23.009
448.00,23.126
449.00,23.209
450.00,23.318
451.00,23.437
452.00,23.448
453.00,23.667
454.00,23.749
455.00,23.868
456.00,23.982
457.00,24.114
458.00,24.192
459.00,24.358
460.00,24.474
461.00,24.604
462.00,24.718
463.00,24.885
464.00,24.978
465.00,25.096
466.00,25.261
467.00,25.411
468.00,25.495
469.00,25.619
470.00,25.705
471.00,25.781
472.00,25.955
473.00,26.051
474.00,26.172
475.00,26.291
476.00,26.375
477.00,26.519
478.00,26.634
479.00,26.829
480.00,26.955
481.00,27.063
482.00,27.244
483.00,27.378
484.00,27.560
485.00,27.665
486.00,27.863
487.00,28.013
488.00,28.117
489.00,28.296
490.00,28.438
491.00,28.575
492.00,28.800
493.00,28.978
494.00,28.971
495.00,29.159
496.00,29.255
497.00,29.383
498.00,29.501
499.00,29.622
500.00,29.835
501.00,29.915
502.00,30.077
503.00,30.183
504.00,30.239
505.00,30.373
506.00,30.495
507.00,30.631
508.00,30.762
509.00,30.904
510.00,31.017
511.00,31.102
512.00,31.293
513.00,31.404
514.00,31.523
515.00,31.652
516.00,31.754
517.00,31.854
518.00,31.946
519.00,32.013
520.00,32.122
521.00,32.170
522.00,32.219
523.00,32.271
524.00,32.496
525.00,32.589
526.00,32.645
527.00,32.742
528.00,32.804
529.00,33.037
530.00,33.170
531.00,33.282
532.00,33.339
533.00,33.424
534.00,33.533
535.00,33.622
536.00,33.706
537.00,33.778
538.00,33.849
539.00,33.905
540.00,33.963
541.00,33.989
542.00,34.097
543.00,34.121
544.00,34.191
545.00,34.280
546.00,34.332
547.00,34.412
548.00,34.577
549.00,34.678
550.00,34.605
551.00,34.743
552.00,34.822
553.00,34.848
554.00,35.030
555.00,34.989
556.00,35.087
557.00,35.158
558.00,35.199
559.00,35.275
560.00,35.322
561.00,35.413
562.00,35.479
563.00,35.517
564.00,35.568
565.00,35.597
566.00,35.580
567.00,35.680
568.00,35.695
569.00,35.749
570.00,35.786
571.00,35.835
572.00,35.865
573.00,35.804
574.00,35.870
575.00,35.882
576.00,35.887
577.00,35.950
578.00,36.066
579.00,36.114
580.00,36.121
581.00,36.318
582.00,36.373
583.00,36.378
584.00,36.464
585.00,36.527
586.00,36.575
587.00,36.649
588.00,36.658
589.00,36.573
590.00,36.708
591.00,36.805
592.00,36.697
593.00,36.747
594.00,36.890
595.00,36.957
596.00,36.978
597.00,37.024
598.00,37.086
599.00,37.127
600.00,37.214
601.00,37.203
602.00,37.218
603.00,37.253
604.00,37.321
605.00,37.377
606.00,37.373
607.00,37.406
608.00,37.576
609.00,37.707
610.00,37.523
611.00,37.668
612.00,37.644
613.00,37.704
614.00,37.780
615.00,37.881
616.00,37.902
617.00,37.934
618.00,37.915
619.00,38.046
620.00,38.075
621.00,38.145
622.00,38.232
623.00,38.324
624.00,38.387
625.00,38.446
626.00,38.487
627.00,38.545
628.00,38.557
629.00,38.569
630.00,38.649
631.00,38.675
632.00,38.804
633.00,38.895
634.00,38.948
635.00,39.103
636.00,39.136
637.00,39.130
638.00,39.260
639.00,39.347
640.00,39.430
641.00,39.419
642.00,39.594
643.00,39.577
644.00,39.658
645.00,39.773
646.00,39.900
647.00,39.962
648.00,40.033
649.00,40.025
650.00,40.078
651.00,40.216
652.00,40.266
653.00,40.334
654.00,40.437
655.00,40.606
656.00,40.865
657.00,40.731
658.00,40.924
659.00,40.921
660.00,40.936
661.00,41.022
662.00,41.089
663.00,41.259
664.00,41.537
665.00,41.670
666.00,41.590
667.00,41.640
668.00,41.677
669.00,41.919
670.00,42.138
671.00,41.889
672.00,42.285
673.00,42.441
674.00,42.410
675.00,42.500
676.00,42.703
677.00,42.832
678.00,42.555
679.00,42.803
680.00,42.910
681.00,43.109
682.00,43.080
683.00,43.160
684.00,43.277
685.00,43.340
686.00,43.305
687.00,43.539
688.00,43.683
689.00,43.585
690.00,43.887
691.00,44.168
692.00,43.853
693.00,43.863
694.00,44.079
695.00,44.276
696.00,44.389
697.00,44.285
698.00,44.380
699.00,44.641
700.00,44.602
701.00,44.725
702.00,44.873
703.00,45.019
704.00,45.054
705.00,44.923
706.00,45.132
707.00,45.039
708.00,45.279
709.00,45.812
710.00,45.468
711.00,45.415
712.00,45.452
713.00,45.759
714.00,45.783
715.00,45.743
716.00,45.785
717.00,45.944
718.00,46.128
719.00,46.064
720.00,46.104
721.00,50.591
722.00,50.533
723.00,50.625
724.00,50.540
725.00,50.693
726.00,50.635
727.00,50.764
728.00,50.701
729.00,50.761
730.00,50.856
731.00,50.823
732.00,50.839
733.00,50.930
734.00,50.922
735.00,51.070
736.00,51.022
737.00,51.083
738.00,51.148
739.00,51.087
740.00,51.154
741.00,51.229
742.00,51.228
743.00,51.200
744.00,51.155
745.00,51.260
746.00,51.235
747.00,51.190
748.00,51.193
749.00,51.257
750.00,51.213
751.00,51.282
752.00,51.270
753.00,51.237
754.00,51.299
755.00,51.305
756.00,51.287
757.00,51.329
758.00,51.421
759.00,51.396
760.00,51.346
761.00,51.338
762.00,51.355
763.00,51.420
764.00,51.406
765.00,51.445
766.00,51.421
767.00,51.424
768.00,51.440
769.00,51.528
770.00,51.525
771.00,51.500
772.00,51.569
773.00,51.575
774.00,51.629
775.00,51.489
776.00,51.587
777.00,51.658
778.00,51.517
779.00,51.623
780.00,51.551
781.00,51.647
782.00,51.661
783.00,51.590
784.00,51.624
785.00,51.486
786.00,51.572
787.00,51.545
788.00,51.529
789.00,51.448
790.00,51.445
791.00,51.503
792.00,51.432
793.00,51.479
794.00,51.495
795.00,51.443
796.00,51.427
797.00,51.408
798.00,51.462
799.00,51.412
800.00,51.361
801.00,51.375
802.00,51.390
803.00,51.309
804.00,51.285
805.00,51.318
806.00,51.320
807.00,51.223
808.00,51.332
809.00,51.314
810.00,51.251
811.00,51.360
812.00,51.327
813.00,51.214
814.00,51.151
815.00,51.202
816.00,51.263
817.00,51.176
818.00,51.136
819.00,51.196
820.00,51.081
821.00,51.080
822.00,51.067
823.00,51.036
824.00,51.093
825.00,50.990
826.00,51.054
827.00,51.092
828.00,51.079
829.00,51.034
830.00,51.049
831.00,53.334
832.00,53.320
833.00,53.223
834.00,53.286
835.00,53.243
836.00,53.234
837.00,53.197
838.00,53.177
839.00,53.187
840.00,53.089
841.00,53.164
842.00,53.108
843.00,53.102
844.00,53.097
845.00,53.038
846.00,53.047
847.00,53.039
848.00,53.036
849.00,52.948
850.00,52.914
851.00,52.886
852.00,52.891
853.00,52.823
854.00,52.834
855.00,52.750
856.00,52.775
857.00,52.726
858.00,52.696
859.00,52.684
860.00,52.682
861.00,52.685
862.00,52.668
863.00,52.671
864.00,52.602
865.00,52.647
866.00,52.617
867.00,52.602
868.00,52.627
869.00,52.569
870.00,52.583
871.00,52.535
872.00,52.678
873.00,52.544
874.00,52.558
875.00,52.494
876.00,52.519
877.00,52.510
878.00,52.505
879.00,52.488
880.00,52.465
881.00,52.440
882.00,52.462
883.00,52.407
884.00,52.389
885.00,52.360
886.00,52.346
887.00,52.337
888.00,52.304
889.00,52.289
890.00,52.299
891.00,52.238
892.00,52.214
893.00,52.201
894.00,52.213
895.00,52.202
896.00,52.166
897.00,52.133
898.00,52.144
899.00,52.180
900.00,52.103
901.00,52.099
902.00,52.115
903.00,52.053
904.00,52.017
905.00,52.034
906.00,52.014
907.00,51.998
908.00,51.945
909.00,51.959
910.00,51.928
911.00,51.906
912.00,51.911
913.00,51.851
914.00,51.852
915.00,51.826
916.00,51.809
917.00,51.790
918.00,51.774
919.00,51.741
920.00,51.705
921.00,51.734
922.00,51.691
923.00,51.678
924.00,51.659
925.00,51.674
926.00,51.565
927.00,51.653
928.00,51.576
929.00,51.582
930.00,51.543
931.00,51.534
932.00,51.502
933.00,51.530
934.00,51.482
935.00,51.448
936.00,51.450
937.00,51.433
938.00,51.397
939.00,51.380
940.00,51.415
941.00,51.413
942.00,51.329
943.00,51.307
944.00,51.288
945.00,51.294
946.00,51.286
947.00,51.245
948.00,51.233
949.00,51.212
950.00,51.194
951.00,51.170
952.00,51.167
953.00,51.110
954.00,51.086
955.00,51.047
956.00,51.048
957.00,51.010
958.00,51.034
959.00,50.971
960.00,50.974
961.00,50.948
962.00,50.952
963.00,50.909
964.00,50.922
965.00,50.906
966.00,50.878
967.00,50.884
968.00,50.833
969.00,50.884
970.00,50.850
971.00,50.866
972.00,50.817
973.00,50.897
974.00,50.889
975.00,50.839
976.00,50.863
977.00,50.844
978.00,50.869
979.00,50.824
980.00,50.834
981.00,50.839
982.00,50.800
983.00,50.817
984.00,50.788
985.00,50.816
986.00,50.768
987.00,50.787
988.00,50.832
989.00,50.746
990.00,50.773
991.00,50.739
992.00,50.764
993.00,50.734
994.00,50.715
995.00,50.688
996.00,50.701
997.00,50.680
998.00,50.649
999.00,50.677
1000.00,50.618
1001.00,50.628
1002.00,50.624
1003.00,50.628
1004.00,50.622
1005.00,50.571
1006.00,50.599
1007.00,50.576
1008.00,50.560
1009.00,50.535
1010.00,50.533
1011.00,50.523
1012.00,50.494
1013.00,50.498
1014.00,50.469
1015.00,50.507
1016.00,50.444
1017.00,50.444
1018.00,50.451
1019.00,50.409
1020.00,50.406
1021.00,50.376
1022.00,50.362
1023.00,50.325
1024.00,50.332
1025.00,50.308
1026.00,50.300
1027.00,50.264
1028.00,50.250
1029.00,50.256
1030.00,50.219
1031.00,50.244
1032.00,50.206
1033.00,50.199
1034.00,50.188
1035.00,50.150
1036.00,50.115
1037.00,50.113
1038.00,50.093
1039.00,50.043
1040.00,50.048
1041.00,50.023
1042.00,50.015
1043.00,49.997
1044.00,50.021
1045.00,50.007
1046.00,49.989
1047.00,50.003
1048.00,50.023
1049.00,50.031
1050.00,50.025
1051.00,50.083
1052.00,50.068
1053.00,50.072
1054.00,50.071
1055.00,50.107
1056.00,50.099
1057.00,50.097
1058.00,50.084
1059.00,50.079
1060.00,50.089
1061.00,50.066
1062.00,50.076
1063.00,50.075
1064.00,50.080
1065.00,50.084
1066.00,50.061
1067.00,50.060
1068.00,50.090
1069.00,50.041
1070.00,50.036
1071.00,50.017
1072.00,50.018
1073.00,50.013
1074.00,49.995
1075.00,49.960
1076.00,50.002
1077.00,49.973
1078.00,49.959
1079.00,49.973
1080.00,49.962
1081.00,49.956
1082.00,49.931
1083.00,49.919
1084.00,49.930
1085.00,49.926
1086.00,49.901
1087.00,49.918
1088.00,49.888
1089.00,49.886
1090.00,49.889
1091.00,49.884
1092.00,49.885
1093.00,49.843
1094.00,49.835
1095.00,49.869
1096.00,49.795
1097.00,49.811
1098.00,49.815
1099.00,49.796
1100.00,49.799
1101.00,49.792
1102.00,49.767
1103.00,49.779
1104.00,49.761
1105.00,49.740
1106.00,49.742
1107.00,49.731
1108.00,49.723
1109.00,49.742
1110.00,49.735
1111.00,49.712
1112.00,49.702
1113.00,49.690
1114.00,49.685
1115.00,49.691
1116.00,49.670
1117.00,49.660
1118.00,49.639
1119.00,49.640
1120.00,49.646
1121.00,49.639
1122.00,49.622
1123.00,49.621
1124.00,49.625
1125.00,49.636
1126.00,49.608
1127.00,49.612
1128.00,49.606
1129.00,49.582
1130.00,49.570
1131.00,49.579
1132.00,49.561
1133.00,49.563
1134.00,49.549
1135.00,49.551
1136.00,49.551
1137.00,49.552
1138.00,49.534
1139.00,49.568
1140.00,49.548
1141.00,49.543
1142.00,49.532
1143.00,49.528
1144.00,49.507
1145.00,49.512
1146.00,49.501
1147.00,49.502
1148.00,49.486
1149.00,49.487
1150.00,49.504
1151.00,49.496
1152.00,49.490
1153.00,49.492
1154.00,49.471
1155.00,49.483
1156.00,49.476
1157.00,49.485
1158.00,49.494
1159.00,49.487
1160.00,49.471
1161.00,49.500
1162.00,49.488
1163.00,49.469
1164.00,49.488
1165.00,49.479
1166.00,49.493
1167.00,49.466
1168.00,49.476
1169.00,49.470
1170.00,49.486
1171.00,49.469
1172.00,49.478
1173.00,49.462
1174.00,49.478
1175.00,49.480
1176.00,49.467
1177.00,49.453
1178.00,49.467
1179.00,49.478
1180.00,49.472
1181.00,49.487
1182.00,49.472
1183.00,49.471
1184.00,49.453
1185.00,49.467
1186.00,49.465
1187.00,49.463
1188.00,49.457
1189.00,49.459
1190.00,49.454
1191.00,49.459
1192.00,49.477
1193.00,49.462
1194.00,49.475
1195.00,49.435
1196.00,49.466
1197.00,49.473
1198.00,49.452
1199.00,49.458
1200.00,49.464
1201.00,49.480
1202.00,49.447
1203.00,49.451
1204.00,49.438
1205.00,49.476
1206.00,49.457
1207.00,49.478
1208.00,49.465
1209.00,49.458
1210.00,49.467
1211.00,49.460
1212.00,49.474
1213.00,49.446
1214.00,49.489
1215.00,49.456
1216.00,49.484
1217.00,49.488
1218.00,49.443
1219.00,49.469
1220.00,49.461
1221.00,49.488
1222.00,49.473
1223.00,49.498
1224.00,49.500
1225.00,49.464
1226.00,49.463
1227.00,49.482
1228.00,49.501
1229.00,49.484
1230.00,49.517
1231.00,49.503
1232.00,49.540
1233.00,49.535
1234.00,49.531
1235.00,49.534
1236.00,49.526
1237.00,49.527
1238.00,49.537
1239.00,49.541
1240.00,49.523
1241.00,49.547
1242.00,49.534
1243.00,49.561
1244.00,49.530
1245.00,49.564
1246.00,49.586
1247.00,49.567
1248.00,49.550
1249.00,49.576
1250.00,49.574
1251.00,49.550
1252.00,49.585
1253.00,49.570
1254.00,49.599
1255.00,49.577
1256.00,49.556
1257.00,49.577
1258.00,49.606
1259.00,49.583
1260.00,49.626
1261.00,49.614
1262.00,49.622
1263.00,49.629
1264.00,49.611
1265.00,49.632
1266.00,49.628
1267.00,49.640
1268.00,49.653
1269.00,49.658
1270.00,49.681
1271.00,49.696
1272.00,49.685
1273.00,49.699
1274.00,49.702
1275.00,49.705
1276.00,49.707
1277.00,49.715
1278.00,49.716
1279.00,49.726
1280.00,49.711
1281.00,49.715
1282.00,49.742
1283.00,49.705
1284.00,49.720
1285.00,49.732
1286.00,49.752
1287.00,49.735
1288.00,49.748
1289.00,49.748
1290.00,49.793
1291.00,49.767
1292.00,49.764
1293.00,49.782
1294.00,49.796
1295.00,49.805
1296.00,49.821
1297.00,49.813
1298.00,49.848
1299.00,49.837
1300.00,49.848
1301.00,49.861
1302.00,49.879
1303.00,49.850
1304.00,49.859
1305.00,49.877
1306.00,49.894
1307.00,49.910
1308.00,49.886
1309.00,49.924
1310.00,49.907
1311.00,49.885
1312.00,49.906
1313.00,49.927
1314.00,49.929
1315.00,49.955
1316.00,49.956
1317.00,49.984
1318.00,49.978
1319.00,49.976
1320.00,49.985
1321.00,50.173
1322.00,50.134
1323.00,50.148
1324.00,50.134
1325.00,50.140
1326.00,50.169
1327.00,50.124
1328.00,50.129
1329.00,50.135
1330.00,50.178
1331.00,50.125
1332.00,50.172
1333.00,50.145
1334.00,50.197
1335.00,50.214
1336.00,50.237
1337.00,50.269
1338.00,50.320
1339.00,50.368
1340.00,50.423
1341.00,50.470
1342.00,50.544
1343.00,50.618
1344.00,50.651
1345.00,50.732
1346.00,50.771
1347.00,50.760
1348.00,50.793
1349.00,50.800
1350.00,50.829
1351.00,50.856
1352.00,50.847
1353.00,50.862
1354.00,50.873
1355.00,50.820
1356.00,50.902
1357.00,50.888
1358.00,50.877
1359.00,50.943
1360.00,50.914
1361.00,50.933
1362.00,50.869
1363.00,50.955
1364.00,51.028
1365.00,50.902
1366.00,50.966
1367.00,50.940
1368.00,50.851
1369.00,50.917
1370.00,50.922
1371.00,50.843
1372.00,50.892
1373.00,50.923
1374.00,50.922
1375.00,50.921
1376.00,50.926
1377.00,50.891
1378.00,50.984
1379.00,50.942
1380.00,50.928
1381.00,50.954
1382.00,50.924
1383.00,50.941
1384.00,50.890
1385.00,50.893
1386.00,50.920
1387.00,50.918
1388.00,50.850
1389.00,50.939
1390.00,50.565
1391.00,50.872
1392.00,50.901
1393.00,50.866
1394.00,50.922
1395.00,50.926
1396.00,50.844
1397.00,50.868
1398.00,50.971
1399.00,50.924
1400.00,50.891
1401.00,50.882
1402.00,50.955
1403.00,50.981
1404.00,50.940
1405.00,50.979
1406.00,50.986
1407.00,50.984
1408.00,51.025
1409.00,50.891
1410.00,51.019
1411.00,50.944
1412.00,50.983
1413.00,51.003
1414.00,51.009
1415.00,51.027
1416.00,51.067
1417.00,51.115
1418.00,51.052
1419.00,51.054
1420.00,51.094
1421.00,51.113
1422.00,51.116
1423.00,51.164
1424.00,51.169
1425.00,51.206
1426.00,51.167
1427.00,51.214
1428.00,51.221
1429.00,51.223
1430.00,51.248
1431.00,51.278
1432.00,51.268
1433.00,51.288
1434.00,51.300
1435.00,51.389
1436.00,51.365
1437.00,51.352
1438.00,51.375
1439.00,51.414
1440.00,51.414
1441.00,51.428
1442.00,51.464
1443.00,51.458
1444.00,51.523
1445.00,51.478
1446.00,51.501
1447.00,51.552
1448.00,51.566
1449.00,51.603
1450.00,51.593
1451.00,51.608
1452.00,51.663
1453.00,51.644
1454.00,51.656
1455.00,51.700
1456.00,51.707
1457.00,51.682
1458.00,51.733
1459.00,51.733
1460.00,51.783
1461.00,51.782
1462.00,51.799
1463.00,51.822
1464.00,51.842
1465.00,51.837
1466.00,51.845
1467.00,51.881
1468.00,51.918
1469.00,51.903
1470.00,51.929
1471.00,51.956
1472.00,52.000
1473.00,51.981
1474.00,52.013
1475.00,52.034
1476.00,52.028
1477.00,52.031
1478.00,52.066
1479.00,52.081
1480.00,52.086
1481.00,52.075
1482.00,52.122
1483.00,52.131
1484.00,52.128
1485.00,52.146
1486.00,52.164
1487.00,52.178
1488.00,52.214
1489.00,52.224
1490.00,52.224
1491.00,52.244
1492.00,52.262
1493.00,52.248
1494.00,52.305
1495.00,52.276
1496.00,52.328
1497.00,52.317
1498.00,52.316
1499.00,52.350
1500.00,52.362
1501.00, 
1502.00, 
1503.00, 
1504.00, 
1505.00, 
1506.00, 
1507.00, 
1508.00, 
1509.00, 
1510.00, 
1511.00, 
1512.00, 
1513.00, 
1514.00, 
1515.00, 
1516.00, 
1517.00, 
1518.00, 
1519.00, 
1520.00, 
1521.00, 
1522.00, 
1523.00, 
1524.00, 
1525.00, 
1526.00, 
1527.00, 
1528.00, 
1529.00, 
1530.00, 
1531.00, 
1532.00, 
1533.00, 
1534.00, 
1535.00, 
1536.00, 
1537.00, 
1538.00, 
1539.00, 
1540.00, 
1541.00, 
1542.00, 
1543.00, 
1544.00, 
1545.00, 
1546.00, 
1547.00, 
1548.00, 
1549.00, 
1550.00, 
1551.00, 
1552.00, 
1553.00, 
1554.00, 
1555.00, 
1556.00, 
1557.00, 
1558.00, 
1559.00, 
1560.00, 
1561.00, 
1562.00, 
1563.00, 
1564.00, 
1565.00, 
1566.00, 
1567.00, 
1568.00, 
1569.00, 
1570.00, 
1571.00, 
1572.00, 
1573.00, 
1574.00, 
1575.00, 
1576.00, 
1577.00, 
1578.00, 
1579.00, 
1580.00, 
1581.00, 
1582.00, 
1583.00, 
1584.00, 
1585.00, 
1586.00, 
1587.00, 
1588.00, 
1589.00, 
1590.00, 
1591.00, 
1592.00, 
1593.00, 
1594.00, 
1595.00, 
1596.00, 
1597.00, 
1598.00, 
1599.00, 
1600.00, 
1601.00, 
1602.00, 
1603.00, 
1604.00, 
1605.00, 
1606.00, 
1607.00, 
1608.00, 
1609.00, 
1610.00, 
1611.00, 
1612.00, 
1613.00, 
1614.00, 
1615.00, 
1616.00, 
1617.00, 
1618.00, 
1619.00, 
1620.00, 
1621.00, 
1622.00, 
1623.00, 
1624.00, 
1625.00, 
1626.00, 
1627.00, 
1628.00, 
1629.00, 
1630.00, 
1631.00, 
1632.00, 
1633.00, 
1634.00, 
1635.00, 
1636.00, 
1637.00, 
1638.00, 
1639.00, 
1640.00, 
1641.00, 
1642.00, 
1643.00, 
1644.00, 
1645.00, 
1646.00, 
1647.00, 
1648.00, 
1649.00, 
1650.00, 
1651.00, 
1652.00, 
1653.00, 
1654.00, 
1655.00, 
1656.00, 
1657.00, 
1658.00, 
1659.00, 
1660.00, 
1661.00, 
1662.00, 
1663.00, 
1664.00, 
1665.00, 
1666.00, 
1667.00, 
1668.00, 
1669.00, 
1670.00, 
1671.00, 
1672.00, 
1673.00, 
1674.00, 
1675.00, 
1676.00, 
1677.00, 
1678.00, 
1679.00, 
1680.00, 
1681.00, 
1682.00, 
1683.00, 
1684.00, 
1685.00, 
1686.00, 
1687.00, 
1688.00, 
1689.00, 
1690.00, 
1691.00, 
1692.00, 
1693.00, 
1694.00, 
1695.00, 
1696.00, 
1697.00, 
1698.00, 
1699.00, 
1700.00, 
1701.00, 
1702.00, 
1703.00, 
1704.00, 
1705.00, 
1706.00, 
1707.00, 
1708.00, 
1709.00, 
1710.00, 
1711.00, 
1712.00, 
1713.00, 
1714.00, 
1715.00, 
1716.00, 
1717.00, 
1718.00, 
1719.00, 
1720.00, 
1721.00, 
1722.00, 
1723.00, 
1724.00, 
1725.00, 
1726.00, 
1727.00, 
1728.00, 
1729.00, 
1730.00, 
1731.00, 
1732.00, 
1733.00, 
1734.00, 
1735.00, 
1736.00, 
1737.00, 
1738.00, 
1739.00, 
1740.00, 
1741.00, 
1742.00, 
1743.00, 
1744.00, 
1745.00, 
1746.00, 
1747.00, 
1748.00, 
1749.00, 
1750.00, 
1751.00, 
1752.00, 
1753.00, 
1754.00, 
1755.00, 
1756.00, 
1757.00, 
1758.00, 
1759.00, 
1760.00, 
1761.00, 
1762.00, 
1763.00, 
1764.00, 
1765.00, 
1766.00, 
1767.00, 
1768.00, 
1769.00, 
1770.00, 
1771.00, 
1772.00, 
1773.00, 
1774.00, 
1775.00, 
1776.00, 
1777.00, 
1778.00, 
1779.00, 
1780.00, 
1781.00, 
1782.00, 
1783.00, 
1784.00, 
1785.00, 
1786.00, 
1787.00, 
1788.00, 
1789.00, 
1790.00, 
1791.00, 
1792.00, 
1793.00, 
1794.00, 
1795.00, 
1796.00, 
1797.00, 
1798.00, 
1799.00, 
1800.00, 
1801.00, 
1802.00, 
1803.00, 
1804.00, 
1805.00, 
1806.00, 
1807.00, 
1808.00, 
1809.00, 
1810.00, 
1811.00, 
1812.00, 
1813.00, 
1814.00, 
1815.00, 
1816.00, 
1817.00, 
1818.00, 
1819.00, 
1820.00, 
1821.00, 
1822.00, 
1823.00, 
1824.00, 
1825.00, 
1826.00, 
1827.00, 
1828.00, 
1829.00, 
1830.00, 
1831.00, 
1832.00, 
1833.00, 
1834.00, 
1835.00, 
1836.00, 
1837.00, 
1838.00, 
1839.00, 
1840.00, 
1841.00, 
1842.00, 
1843.00, 
1844.00, 
1845.00, 
1846.00, 
1847.00, 
1848.00, 
1849.00, 
1850.00, 
1851.00, 
1852.00, 
1853.00, 
1854.00, 
1855.00, 
1856.00, 
1857.00, 
1858.00, 
1859.00, 
1860.00, 
1861.00, 
1862.00, 
1863.00, 
1864.00, 
1865.00, 
1866.00, 
1867.00, 
1868.00, 
1869.00, 
1870.00, 
1871.00, 
1872.00, 
1873.00, 
1874.00, 
1875.00, 
1876.00, 
1877.00, 
1878.00, 
1879.00, 
1880.00, 
1881.00, 
1882.00, 
1883.00, 
1884.00, 
1885.00, 
1886.00, 
1887.00, 
1888.00, 
1889.00, 
1890.00, 
1891.00, 
1892.00, 
1893.00, 
1894.00, 
1895.00, 
1896.00, 
1897.00, 
1898.00, 
1899.00, 
1900.00, 
1901.00, 
1902.00, 
1903.00, 
1904.00, 
1905.00, 
1906.00, 
1907.00, 
1908.00, 
1909.00, 
1910.00, 
1911.00, 
1912.00, 
1913.00, 
1914.00, 
1915.00, 
1916.00, 
1917.00, 
1918.00, 
1919.00, 
1920.00, 
1921.00, 
1922.00, 
1923.00, 
1924.00, 
1925.00, 
1926.00, 
1927.00, 
1928.00, 
1929.00, 
1930.00, 
1931.00, 
1932.00, 
1933.00, 
1934.00, 
1935.00, 
1936.00, 
1937.00, 
1938.00, 
1939.00, 
1940.00, 
1941.00, 
1942.00, 
1943.00, 
1944.00, 
1945.00, 
1946.00, 
1947.00, 
1948.00, 
1949.00, 
1950.00, 
1951.00, 
1952.00, 
1953.00, 
1954.00, 
1955.00, 
1956.00, 
1957.00, 
1958.00, 
1959.00, 
1960.00, 
1961.00, 
1962.00, 
1963.00, 
1964.00, 
1965.00, 
1966.00, 
1967.00, 
1968.00, 
1969.00, 
1970.00, 
1971.00, 
1972.00, 
1973.00, 
1974.00, 
1975.00, 
1976.00, 
1977.00, 
1978.00, 
1979.00, 
1980.00, 
1981.00, 
1982.00, 
1983.00, 
1984.00, 
1985.00, 
1986.00, 
1987.00, 
1988.00, 
1989.00, 
1990.00, 
1991.00, 
1992.00, 
1993.00, 
1994.00, 
1995.00, 
1996.00, 
1997.00, 
1998.00, 
1999.00, 
2000.00, 
2001.00, 
2002.00, 
2003.00, 
2004.00, 
2005.00, 
2006.00, 
2007.00, 
2008.00, 
2009.00, 
2010.00, 
2011.00, 
2012.00, 
2013.00, 
2014.00, 
2015.00, 
2016.00, 
2017.00, 
2018.00, 
2019.00, 
2020.00, 
2021.00, 
2022.00, 
2023.00, 
2024.00, 
2025.00, 
2026.00, 
2027.00, 
2028.00, 
2029.00, 
2030.00, 
2031.00, 
2032.00, 
2033.00, 
2034.00, 
2035.00, 
2036.00, 
2037.00, 
2038.00, 
2039.00, 
2040.00, 
2041.00, 
2042.00, 
2043.00, 
2044.00, 
2045.00, 
2046.00, 
2047.00, 
2048.00, 
2049.00, 
2050.00, 
2051.00, 
2052.00, 
2053.00, 
2054.00, 
2055.00, 
2056.00, 
2057.00, 
2058.00, 
2059.00, 
2060.00, 
2061.00, 
2062.00, 
2063.00, 
2064.00, 
2065.00, 
2066.00, 
2067.00, 
2068.00, 
2069.00, 
2070.00, 
2071.00, 
2072.00, 
2073.00, 
2074.00, 
2075.00, 
2076.00, 
2077.00, 
2078.00, 
2079.00, 
2080.00, 
2081.00, 
2082.00, 
2083.00, 
2084.00, 
2085.00, 
2086.00, 
2087.00, 
2088.00, 
2089.00, 
2090.00, 
2091.00, 
2092.00, 
2093.00, 
2094.00, 
2095.00, 
2096.00, 
2097.00, 
2098.00, 
2099.00, 
2100.00, 
2101.00, 
2102.00, 
2103.00, 
2104.00, 
2105.00, 
2106.00, 
2107.00, 
2108.00, 
2109.00, 
2110.00, 
2111.00, 
2112.00, 
2113.00, 
2114.00, 
2115.00, 
2116.00, 
2117.00, 
2118.00, 
2119.00, 
2120.00, 
2121.00, 
2122.00, 
2123.00, 
2124.00, 
2125.00, 
2126.00, 
2127.00, 
2128.00, 
2129.00, 
2130.00, 
2131.00, 
2132.00, 
2133.00, 
2134.00, 
2135.00, 
2136.00, 
2137.00, 
2138.00, 
2139.00, 
2140.00, 
2141.00, 
2142.00, 
2143.00, 
2144.00, 
2145.00, 
2146.00, 
2147.00, 
2148.00, 
2149.00, 
2150.00, 
2151.00, 
2152.00, 
2153.00, 
2154.00, 
2155.00, 
2156.00, 
2157.00, 
2158.00, 
2159.00, 
2160.00, 
2161.00, 
2162.00, 
2163.00, 
2164.00, 
2165.00, 
2166.00, 
2167.00, 
2168.00, 
2169.00, 
2170.00, 
2171.00, 
2172.00, 
2173.00, 
2174.00, 
2175.00, 
2176.00, 
2177.00, 
2178.00, 
2179.00, 
2180.00, 
2181.00, 
2182.00, 
2183.00, 
2184.00, 
2185.00, 
2186.00, 
2187.00, 
2188.00, 
2189.00, 
2190.00, 
2191.00, 
2192.00, 
2193.00, 
2194.00, 
2195.00, 
2196.00, 
2197.00, 
2198.00, 
2199.00, 
2200.00, 
2201.00, 
2202.00, 
2203.00, 
2204.00, 
2205.00, 
2206.00, 
2207.00, 
2208.00, 
2209.00, 
2210.00, 
2211.00, 
2212.00, 
2213.00, 
2214.00, 
2215.00, 
2216.00, 
2217.00, 
2218.00, 
2219.00, 
2220.00, 
2221.00, 
2222.00, 
2223.00, 
2224.00, 
2225.00, 
2226.00, 
2227.00, 
2228.00, 
2229.00, 
2230.00, 
2231.00, 
2232.00, 
2233.00, 
2234.00, 
2235.00, 
2236.00, 
2237.00, 
2238.00, 
2239.00, 
2240.00, 
2241.00, 
2242.00, 
2243.00, 
2244.00, 
2245.00, 
2246.00, 
2247.00, 
2248.00, 
2249.00, 
2250.00, 
2251.00, 
2252.00, 
2253.00, 
2254.00, 
2255.00, 
2256.00, 
2257.00, 
2258.00, 
2259.00, 
2260.00, 
2261.00, 
2262.00, 
2263.00, 
2264.00, 
2265.00, 
2266.00, 
2267.00, 
2268.00, 
2269.00, 
2270.00, 
2271.00, 
2272.00, 
2273.00, 
2274.00, 
2275.00, 
2276.00, 
2277.00, 
2278.00, 
2279.00, 
2280.00, 
2281.00, 
2282.00, 
2283.00, 
2284.00, 
2285.00, 
2286.00, 
2287.00, 
2288.00, 
2289.00, 
2290.00, 
2291.00, 
2292.00, 
2293.00, 
2294.00, 
2295.00, 
2296.00, 
2297.00, 
2298.00, 
2299.00, 
2300.00, 
2301.00, 
2302.00, 
2303.00, 
2304.00, 
2305.00, 
2306.00, 
2307.00, 
2308.00, 
2309.00, 
2310.00, 
2311.00, 
2312.00, 
2313.00, 
2314.00, 
2315.00, 
2316.00, 
2317.00, 
2318.00, 
2319.00, 
2320.00, 
2321.00, 
2322.00, 
2323.00, 
2324.00, 
2325.00, 
2326.00, 
2327.00, 
2328.00, 
2329.00, 
2330.00, 
2331.00, 
2332.00, 
2333.00, 
2334.00, 
2335.00, 
2336.00, 
2337.00, 
2338.00, 
2339.00, 
2340.00, 
2341.00, 
2342.00, 
2343.00, 
2344.00, 
2345.00, 
2346.00, 
2347.00, 
2348.00, 
2349.00, 
2350.00, 
2351.00, 
2352.00, 
2353.00, 
2354.00, 
2355.00, 
2356.00, 
2357.00, 
2358.00, 
2359.00, 
2360.00, 
2361.00, 
2362.00, 
2363.00, 
2364.00, 
2365.00, 
2366.00, 
2367.00, 
2368.00, 
2369.00, 
2370.00, 
2371.00, 
2372.00, 
2373.00, 
2374.00, 
2375.00, 
2376.00, 
2377.00, 
2378.00, 
2379.00, 
2380.00, 
2381.00, 
2382.00, 
2383.00, 
2384.00, 
2385.00, 
2386.00, 
2387.00, 
2388.00, 
2389.00, 
2390.00, 
2391.00, 
2392.00, 
2393.00, 
2394.00, 
2395.00, 
2396.00, 
2397.00, 
2398.00, 
2399.00, 
2400.00, 
2401.00, 
2402.00, 
2403.00, 
2404.00, 
2405.00, 
2406.00, 
2407.00, 
2408.00, 
2409.00, 
2410.00, 
2411.00, 
2412.00, 
2413.00, 
2414.00, 
2415.00, 
2416.00, 
2417.00, 
2418.00, 
2419.00, 
2420.00, 
2421.00, 
2422.00, 
2423.00, 
2424.00, 
2425.00, 
2426.00, 
2427.00, 
2428.00, 
2429.00, 
2430.00, 
2431.00, 
2432.00, 
2433.00, 
2434.00, 
2435.00, 
2436.00, 
2437.00, 
2438.00, 
2439.00, 
2440.00, 
2441.00, 
2442.00, 
2443.00, 
2444.00, 
2445.00, 
2446.00, 
2447.00, 
2448.00, 
2449.00, 
2450.00, 
2451.00, 
2452.00, 
2453.00, 
2454.00, 
2455.00, 
2456.00, 
2457.00, 
2458.00, 
2459.00, 
2460.00, 
2461.00, 
2462.00, 
2463.00, 
2464.00, 
2465.00, 
2466.00, 
2467.00, 
2468.00, 
2469.00, 
2470.00, 
2471.00, 
2472.00, 
2473.00, 
2474.00, 
2475.00, 
2476.00, 
2477.00, 
2478.00, 
2479.00, 
2480.00, 
2481.00, 
2482.00, 
2483.00, 
2484.00, 
2485.00, 
2486.00, 
2487.00, 
2488.00, 
2489.00, 
2490.00, 
2491.00, 
2492.00, 
2493.00, 
2494.00, 
2495.00, 
2496.00, 
2497.00, 
2498.00, 
2499.00, 
2500.00, 
2501.00, 
2502.00, 
2503.00, 
2504.00, 
2505.00, 
2506.00, 
2507.00, 
2508.00, 
2509.00, 
2510.00, 
2511.00, 
2512.00, 
2513.00, 
2514.00, 
2515.00, 
2516.00, 
2517.00, 
2518.00, 
2519.00, 
2520.00, 
2521.00, 
2522.00, 
2523.00, 
2524.00, 
2525.00, 
2526.00, 
2527.00, 
2528.00, 
2529.00, 
2530.00, 
2531.00, 
2532.00, 
2533.00, 
2534.00, 
2535.00, 
2536.00, 
2537.00, 
2538.00, 
2539.00, 
2540.00, 
2541.00, 
2542.00, 
2543.00, 
2544.00, 
2545.00, 
2546.00, 
2547.00, 
2548.00, 
2549.00, 
2550.00, 
2551.00, 
2552.00, 
2553.00, 
2554.00, 
2555.00, 
2556.00, 
2557.00, 
2558.00, 
2559.00, 
2560.00, 
2561.00, 
2562.00, 
2563.00, 
2564.00, 
2565.00, 
2566.00, 
2567.00, 
2568.00, 
2569.00, 
2570.00, 
2571.00, 
2572.00, 
2573.00, 
2574.00, 
2575.00, 
2576.00, 
2577.00, 
2578.00, 
2579.00, 
2580.00, 
2581.00, 
2582.00, 
2583.00, 
2584.00, 
2585.00, 
2586.00, 
2587.00, 
2588.00, 
2589.00, 
2590.00, 
2591.00, 
2592.00, 
2593.00, 
2594.00, 
2595.00, 
2596.00, 
2597.00, 
2598.00, 
2599.00, 
2600.00, 
