"1cP5 - RawData"
"Wavelength nm.","T%"
200.00,0.002
201.00,0.003
202.00,0.005
203.00,0.002
204.00,0.001
205.00,0.002
206.00,0.000
207.00,0.007
208.00,-0.002
209.00,0.000
210.00,0.001
211.00,-0.000
212.00,-0.002
213.00,0.001
214.00,0.000
215.00,-0.000
216.00,0.002
217.00,-0.002
218.00,-0.004
219.00,0.002
220.00,0.001
221.00,0.002
222.00,0.002
223.00,0.000
224.00,0.000
225.00,0.003
226.00,0.000
227.00,0.001
228.00,0.001
229.00,0.001
230.00,-0.001
231.00,0.000
232.00,-0.001
233.00,0.002
234.00,-0.001
235.00,-0.001
236.00,0.001
237.00,-0.000
238.00,0.000
239.00,-0.000
240.00,-0.001
241.00,-0.000
242.00,0.001
243.00,0.002
244.00,0.001
245.00,0.000
246.00,-0.001
247.00,0.001
248.00,0.000
249.00,-0.000
250.00,0.001
251.00,0.001
252.00,-0.000
253.00,0.001
254.00,0.000
255.00,0.000
256.00,-0.000
257.00,-0.001
258.00,-0.000
259.00,0.001
260.00,-0.000
261.00,0.001
262.00,0.001
263.00,0.001
264.00,0.001
265.00,-0.001
266.00,0.001
267.00,-0.001
268.00,-0.000
269.00,0.000
270.00,0.000
271.00,0.000
272.00,-0.001
273.00,0.001
274.00,-0.001
275.00,-0.000
276.00,0.001
277.00,0.000
278.00,-0.001
279.00,0.001
280.00,0.001
281.00,0.001
282.00,0.002
283.00,0.001
284.00,0.001
285.00,-0.002
286.00,0.001
287.00,0.000
288.00,0.002
289.00,-0.001
290.00,-0.000
291.00,-0.001
292.00,-0.000
293.00,0.001
294.00,-0.001
295.00,0.000
296.00,0.001
297.00,0.002
298.00,-0.001
299.00,-0.001
300.00,0.002
301.00,-0.000
302.00,0.001
303.00,0.002
304.00,0.001
305.00,-0.000
306.00,0.002
307.00,0.002
308.00,0.006
309.00,0.011
310.00,0.016
311.00,0.024
312.00,0.038
313.00,0.063
314.00,0.085
315.00,0.131
316.00,0.186
317.00,0.267
318.00,0.356
319.00,0.484
320.00,0.638
321.00,0.826
322.00,1.062
323.00,1.341
324.00,1.655
325.00,1.983
326.00,2.350
327.00,2.807
328.00,3.280
329.00,3.769
330.00,4.332
331.00,4.888
332.00,5.491
333.00,6.143
334.00,6.746
335.00,7.413
336.00,8.078
337.00,8.799
338.00,9.475
339.00,10.088
340.00,10.807
341.00,11.460
342.00,12.067
343.00,12.636
344.00,13.229
345.00,13.853
346.00,14.351
347.00,14.869
348.00,15.271
349.00,15.774
350.00,16.211
351.00,16.640
352.00,16.944
353.00,17.315
354.00,17.643
355.00,17.960
356.00,18.265
357.00,18.470
358.00,18.737
359.00,19.037
360.00,19.256
361.00,19.347
362.00,19.542
363.00,19.653
364.00,19.829
365.00,19.935
366.00,20.046
367.00,20.117
368.00,20.172
369.00,20.168
370.00,20.255
371.00,20.244
372.00,20.240
373.00,20.195
374.00,20.214
375.00,20.180
376.00,20.100
377.00,19.994
378.00,19.924
379.00,19.831
380.00,19.816
381.00,19.810
382.00,19.760
383.00,19.825
384.00,19.769
385.00,19.921
386.00,19.891
387.00,20.007
388.00,20.065
389.00,20.090
390.00,20.121
391.00,20.163
392.00,20.176
393.00,20.178
394.00,20.227
395.00,20.273
396.00,20.243
397.00,20.233
398.00,20.219
399.00,20.245
400.00,20.239
401.00,20.274
402.00,20.235
403.00,20.200
404.00,20.199
405.00,20.181
406.00,20.185
407.00,20.121
408.00,20.135
409.00,20.070
410.00,20.024
411.00,20.023
412.00,20.000
413.00,20.022
414.00,20.026
415.00,20.053
416.00,20.020
417.00,19.981
418.00,20.022
419.00,20.099
420.00,20.133
421.00,20.142
422.00,20.158
423.00,20.200
424.00,20.228
425.00,20.246
426.00,20.271
427.00,20.341
428.00,20.354
429.00,20.414
430.00,20.460
431.00,20.534
432.00,20.536
433.00,20.605
434.00,20.674
435.00,20.729
436.00,20.785
437.00,20.841
438.00,20.903
439.00,20.970
440.00,21.044
441.00,21.106
442.00,21.215
443.00,21.241
444.00,21.371
445.00,21.481
446.00,21.541
447.00,21.622
448.00,21.772
449.00,21.797
450.00,21.995
451.00,22.073
452.00,22.160
453.00,22.287
454.00,22.397
455.00,22.503
456.00,22.628
457.00,22.760
458.00,22.835
459.00,22.982
460.00,23.141
461.00,23.246
462.00,23.345
463.00,23.544
464.00,23.581
465.00,23.772
466.00,23.889
467.00,24.051
468.00,24.132
469.00,24.222
470.00,24.343
471.00,24.438
472.00,24.608
473.00,24.684
474.00,24.831
475.00,24.946
476.00,25.032
477.00,25.172
478.00,25.307
479.00,25.495
480.00,25.620
481.00,25.729
482.00,25.890
483.00,26.069
484.00,26.212
485.00,26.399
486.00,26.552
487.00,26.689
488.00,26.817
489.00,26.990
490.00,27.112
491.00,27.282
492.00,27.545
493.00,27.677
494.00,27.686
495.00,27.883
496.00,27.960
497.00,28.068
498.00,28.252
499.00,28.370
500.00,28.556
501.00,28.648
502.00,28.784
503.00,28.879
504.00,28.946
505.00,29.099
506.00,29.252
507.00,29.361
508.00,29.501
509.00,29.654
510.00,29.777
511.00,29.809
512.00,30.026
513.00,30.136
514.00,30.278
515.00,30.443
516.00,30.481
517.00,30.541
518.00,30.748
519.00,30.830
520.00,30.906
521.00,30.990
522.00,31.123
523.00,31.182
524.00,31.291
525.00,31.385
526.00,31.531
527.00,31.577
528.00,31.642
529.00,31.864
530.00,31.985
531.00,32.101
532.00,32.170
533.00,32.262
534.00,32.368
535.00,32.465
536.00,32.547
537.00,32.620
538.00,32.720
539.00,32.752
540.00,32.851
541.00,32.885
542.00,32.928
543.00,33.012
544.00,33.115
545.00,33.193
546.00,33.212
547.00,33.338
548.00,33.444
549.00,33.468
550.00,33.609
551.00,33.728
552.00,33.749
553.00,33.811
554.00,33.930
555.00,33.898
556.00,33.989
557.00,34.072
558.00,34.105
559.00,34.212
560.00,34.187
561.00,34.281
562.00,34.380
563.00,34.420
564.00,34.485
565.00,34.459
566.00,34.484
567.00,34.562
568.00,34.543
569.00,34.720
570.00,34.720
571.00,34.658
572.00,34.709
573.00,34.744
574.00,34.777
575.00,34.820
576.00,34.823
577.00,34.893
578.00,34.997
579.00,35.077
580.00,35.071
581.00,35.229
582.00,35.270
583.00,35.251
584.00,35.371
585.00,35.469
586.00,35.453
587.00,35.505
588.00,35.559
589.00,35.491
590.00,35.614
591.00,35.702
592.00,35.604
593.00,35.562
594.00,35.738
595.00,35.900
596.00,35.888
597.00,35.970
598.00,36.080
599.00,36.063
600.00,36.098
601.00,36.118
602.00,36.092
603.00,36.154
604.00,36.282
605.00,36.337
606.00,36.336
607.00,36.387
608.00,36.545
609.00,36.604
610.00,36.445
611.00,36.539
612.00,36.603
613.00,36.642
614.00,36.720
615.00,36.785
616.00,36.857
617.00,36.905
618.00,36.843
619.00,36.970
620.00,37.005
621.00,37.072
622.00,37.146
623.00,37.224
624.00,37.325
625.00,37.343
626.00,37.314
627.00,37.433
628.00,37.400
629.00,37.431
630.00,37.580
631.00,37.545
632.00,37.708
633.00,37.813
634.00,37.806
635.00,37.861
636.00,38.039
637.00,38.161
638.00,38.161
639.00,38.291
640.00,38.313
641.00,38.348
642.00,38.483
643.00,38.499
644.00,38.591
645.00,38.695
646.00,38.723
647.00,38.892
648.00,38.951
649.00,38.915
650.00,38.919
651.00,39.159
652.00,39.330
653.00,39.270
654.00,39.235
655.00,39.614
656.00,39.757
657.00,39.708
658.00,39.857
659.00,39.782
660.00,39.767
661.00,39.941
662.00,40.082
663.00,40.203
664.00,40.502
665.00,40.621
666.00,40.639
667.00,40.676
668.00,40.697
669.00,40.948
670.00,41.171
671.00,41.132
672.00,41.306
673.00,41.308
674.00,41.397
675.00,41.486
676.00,41.723
677.00,41.796
678.00,41.595
679.00,41.914
680.00,42.034
681.00,42.196
682.00,42.236
683.00,42.184
684.00,42.368
685.00,42.517
686.00,42.421
687.00,42.630
688.00,42.670
689.00,42.678
690.00,42.909
691.00,43.266
692.00,43.055
693.00,43.134
694.00,43.299
695.00,43.412
696.00,43.515
697.00,43.447
698.00,43.585
699.00,43.802
700.00,43.900
701.00,43.895
702.00,44.093
703.00,44.308
704.00,44.214
705.00,44.043
706.00,44.201
707.00,44.345
708.00,44.633
709.00,45.042
710.00,44.774
711.00,44.763
712.00,44.781
713.00,44.991
714.00,45.060
715.00,45.107
716.00,45.104
717.00,45.280
718.00,45.479
719.00,45.427
720.00,45.500
721.00,49.848
722.00,49.880
723.00,49.930
724.00,49.863
725.00,49.977
726.00,49.950
727.00,50.036
728.00,50.006
729.00,50.138
730.00,50.112
731.00,50.149
732.00,50.160
733.00,50.285
734.00,50.326
735.00,50.356
736.00,50.404
737.00,50.451
738.00,50.539
739.00,50.512
740.00,50.594
741.00,50.710
742.00,50.617
743.00,50.681
744.00,50.612
745.00,50.661
746.00,50.636
747.00,50.737
748.00,50.651
749.00,50.718
750.00,50.745
751.00,50.811
752.00,50.761
753.00,50.747
754.00,50.811
755.00,50.768
756.00,50.785
757.00,50.784
758.00,50.929
759.00,50.863
760.00,50.850
761.00,50.970
762.00,50.928
763.00,51.010
764.00,50.913
765.00,51.032
766.00,50.993
767.00,51.008
768.00,50.954
769.00,51.029
770.00,51.071
771.00,51.056
772.00,51.062
773.00,51.086
774.00,51.166
775.00,51.111
776.00,51.157
777.00,51.208
778.00,51.067
779.00,51.230
780.00,51.209
781.00,51.183
782.00,51.261
783.00,51.156
784.00,51.204
785.00,51.119
786.00,51.158
787.00,51.164
788.00,51.189
789.00,51.137
790.00,51.106
791.00,51.158
792.00,51.093
793.00,51.150
794.00,51.174
795.00,51.179
796.00,51.066
797.00,51.061
798.00,51.180
799.00,51.059
800.00,51.016
801.00,51.037
802.00,51.005
803.00,51.052
804.00,50.965
805.00,51.001
806.00,51.043
807.00,50.996
808.00,50.981
809.00,50.963
810.00,51.007
811.00,50.980
812.00,50.964
813.00,50.936
814.00,50.917
815.00,50.964
816.00,50.927
817.00,50.911
818.00,50.796
819.00,50.884
820.00,50.763
821.00,50.910
822.00,50.782
823.00,50.743
824.00,50.792
825.00,50.638
826.00,50.747
827.00,50.774
828.00,50.766
829.00,50.778
830.00,50.842
831.00,53.069
832.00,53.084
833.00,53.005
834.00,53.013
835.00,52.976
836.00,53.028
837.00,52.977
838.00,52.953
839.00,52.942
840.00,52.876
841.00,52.923
842.00,52.878
843.00,52.909
844.00,52.854
845.00,52.818
846.00,52.834
847.00,52.803
848.00,52.861
849.00,52.723
850.00,52.719
851.00,52.688
852.00,52.689
853.00,52.611
854.00,52.618
855.00,52.557
856.00,52.593
857.00,52.553
858.00,52.512
859.00,52.468
860.00,52.503
861.00,52.502
862.00,52.449
863.00,52.463
864.00,52.436
865.00,52.447
866.00,52.426
867.00,52.409
868.00,52.443
869.00,52.416
870.00,52.420
871.00,52.336
872.00,52.481
873.00,52.369
874.00,52.406
875.00,52.336
876.00,52.360
877.00,52.358
878.00,52.342
879.00,52.308
880.00,52.283
881.00,52.262
882.00,52.297
883.00,52.231
884.00,52.182
885.00,52.239
886.00,52.282
887.00,52.175
888.00,52.142
889.00,52.139
890.00,52.157
891.00,52.087
892.00,52.073
893.00,52.031
894.00,52.023
895.00,52.019
896.00,51.986
897.00,51.966
898.00,51.962
899.00,51.988
900.00,51.922
901.00,51.925
902.00,51.956
903.00,51.875
904.00,51.868
905.00,51.866
906.00,51.856
907.00,51.828
908.00,51.801
909.00,51.795
910.00,51.759
911.00,51.744
912.00,51.743
913.00,51.706
914.00,51.705
915.00,51.698
916.00,51.652
917.00,51.640
918.00,51.619
919.00,51.596
920.00,51.553
921.00,51.554
922.00,51.555
923.00,51.523
924.00,51.500
925.00,51.497
926.00,51.434
927.00,51.482
928.00,51.427
929.00,51.429
930.00,51.398
931.00,51.395
932.00,51.337
933.00,51.370
934.00,51.344
935.00,51.320
936.00,51.287
937.00,51.276
938.00,51.291
939.00,51.258
940.00,51.218
941.00,51.231
942.00,51.205
943.00,51.184
944.00,51.156
945.00,51.148
946.00,51.158
947.00,51.084
948.00,51.059
949.00,51.066
950.00,51.021
951.00,50.974
952.00,51.054
953.00,50.970
954.00,50.942
955.00,50.907
956.00,50.914
957.00,50.879
958.00,50.887
959.00,50.817
960.00,50.828
961.00,50.806
962.00,50.808
963.00,50.760
964.00,50.772
965.00,50.769
966.00,50.741
967.00,50.755
968.00,50.696
969.00,50.742
970.00,50.712
971.00,50.728
972.00,50.679
973.00,50.758
974.00,50.745
975.00,50.707
976.00,50.718
977.00,50.704
978.00,50.737
979.00,50.702
980.00,50.706
981.00,50.727
982.00,50.683
983.00,50.687
984.00,50.668
985.00,50.698
986.00,50.653
987.00,50.660
988.00,50.706
989.00,50.625
990.00,50.638
991.00,50.607
992.00,50.626
993.00,50.598
994.00,50.577
995.00,50.571
996.00,50.572
997.00,50.558
998.00,50.524
999.00,50.532
1000.00,50.483
1001.00,50.490
1002.00,50.477
1003.00,50.464
1004.00,50.466
1005.00,50.425
1006.00,50.466
1007.00,50.443
1008.00,50.430
1009.00,50.399
1010.00,50.400
1011.00,50.382
1012.00,50.351
1013.00,50.350
1014.00,50.323
1015.00,50.352
1016.00,50.313
1017.00,50.278
1018.00,50.283
1019.00,50.262
1020.00,50.241
1021.00,50.228
1022.00,50.213
1023.00,50.188
1024.00,50.192
1025.00,50.162
1026.00,50.158
1027.00,50.124
1028.00,50.109
1029.00,50.102
1030.00,50.064
1031.00,50.084
1032.00,50.040
1033.00,50.046
1034.00,50.084
1035.00,50.014
1036.00,49.985
1037.00,49.975
1038.00,49.964
1039.00,49.915
1040.00,49.910
1041.00,49.880
1042.00,49.867
1043.00,49.869
1044.00,49.882
1045.00,49.879
1046.00,49.893
1047.00,49.919
1048.00,49.920
1049.00,49.914
1050.00,49.896
1051.00,49.955
1052.00,49.941
1053.00,49.928
1054.00,49.931
1055.00,49.965
1056.00,49.982
1057.00,49.959
1058.00,49.946
1059.00,49.963
1060.00,49.977
1061.00,49.941
1062.00,49.947
1063.00,49.962
1064.00,49.960
1065.00,49.949
1066.00,49.942
1067.00,49.951
1068.00,49.948
1069.00,49.884
1070.00,49.884
1071.00,49.861
1072.00,49.878
1073.00,49.877
1074.00,49.859
1075.00,49.822
1076.00,49.868
1077.00,49.856
1078.00,49.834
1079.00,49.840
1080.00,49.841
1081.00,49.836
1082.00,49.808
1083.00,49.787
1084.00,49.790
1085.00,49.791
1086.00,49.760
1087.00,49.773
1088.00,49.760
1089.00,49.755
1090.00,49.755
1091.00,49.785
1092.00,49.743
1093.00,49.717
1094.00,49.703
1095.00,49.706
1096.00,49.690
1097.00,49.695
1098.00,49.697
1099.00,49.672
1100.00,49.674
1101.00,49.664
1102.00,49.637
1103.00,49.655
1104.00,49.632
1105.00,49.617
1106.00,49.610
1107.00,49.605
1108.00,49.581
1109.00,49.592
1110.00,49.580
1111.00,49.579
1112.00,49.558
1113.00,49.554
1114.00,49.551
1115.00,49.547
1116.00,49.524
1117.00,49.523
1118.00,49.521
1119.00,49.509
1120.00,49.506
1121.00,49.503
1122.00,49.500
1123.00,49.480
1124.00,49.466
1125.00,49.482
1126.00,49.458
1127.00,49.454
1128.00,49.465
1129.00,49.440
1130.00,49.426
1131.00,49.453
1132.00,49.414
1133.00,49.414
1134.00,49.399
1135.00,49.401
1136.00,49.406
1137.00,49.406
1138.00,49.395
1139.00,49.425
1140.00,49.416
1141.00,49.403
1142.00,49.397
1143.00,49.390
1144.00,49.376
1145.00,49.380
1146.00,49.387
1147.00,49.369
1148.00,49.360
1149.00,49.367
1150.00,49.379
1151.00,49.371
1152.00,49.344
1153.00,49.367
1154.00,49.360
1155.00,49.372
1156.00,49.366
1157.00,49.368
1158.00,49.354
1159.00,49.370
1160.00,49.361
1161.00,49.366
1162.00,49.360
1163.00,49.342
1164.00,49.359
1165.00,49.346
1166.00,49.359
1167.00,49.340
1168.00,49.365
1169.00,49.352
1170.00,49.357
1171.00,49.332
1172.00,49.350
1173.00,49.333
1174.00,49.330
1175.00,49.327
1176.00,49.322
1177.00,49.317
1178.00,49.316
1179.00,49.325
1180.00,49.327
1181.00,49.341
1182.00,49.324
1183.00,49.332
1184.00,49.333
1185.00,49.339
1186.00,49.345
1187.00,49.332
1188.00,49.333
1189.00,49.333
1190.00,49.322
1191.00,49.333
1192.00,49.362
1193.00,49.316
1194.00,49.340
1195.00,49.314
1196.00,49.338
1197.00,49.343
1198.00,49.320
1199.00,49.334
1200.00,49.319
1201.00,49.344
1202.00,49.320
1203.00,49.309
1204.00,49.314
1205.00,49.339
1206.00,49.317
1207.00,49.328
1208.00,49.320
1209.00,49.328
1210.00,49.336
1211.00,49.324
1212.00,49.340
1213.00,49.311
1214.00,49.324
1215.00,49.293
1216.00,49.324
1217.00,49.333
1218.00,49.312
1219.00,49.341
1220.00,49.331
1221.00,49.360
1222.00,49.330
1223.00,49.352
1224.00,49.352
1225.00,49.332
1226.00,49.337
1227.00,49.353
1228.00,49.373
1229.00,49.349
1230.00,49.389
1231.00,49.367
1232.00,49.404
1233.00,49.394
1234.00,49.388
1235.00,49.389
1236.00,49.381
1237.00,49.400
1238.00,49.413
1239.00,49.396
1240.00,49.363
1241.00,49.384
1242.00,49.388
1243.00,49.413
1244.00,49.382
1245.00,49.415
1246.00,49.433
1247.00,49.416
1248.00,49.415
1249.00,49.434
1250.00,49.445
1251.00,49.429
1252.00,49.450
1253.00,49.427
1254.00,49.460
1255.00,49.434
1256.00,49.420
1257.00,49.434
1258.00,49.483
1259.00,49.459
1260.00,49.489
1261.00,49.489
1262.00,49.479
1263.00,49.489
1264.00,49.493
1265.00,49.513
1266.00,49.498
1267.00,49.518
1268.00,49.519
1269.00,49.519
1270.00,49.531
1271.00,49.540
1272.00,49.551
1273.00,49.564
1274.00,49.567
1275.00,49.570
1276.00,49.575
1277.00,49.570
1278.00,49.578
1279.00,49.590
1280.00,49.581
1281.00,49.586
1282.00,49.613
1283.00,49.595
1284.00,49.605
1285.00,49.598
1286.00,49.624
1287.00,49.623
1288.00,49.627
1289.00,49.615
1290.00,49.673
1291.00,49.646
1292.00,49.639
1293.00,49.655
1294.00,49.677
1295.00,49.682
1296.00,49.660
1297.00,49.678
1298.00,49.733
1299.00,49.683
1300.00,49.702
1301.00,49.700
1302.00,49.724
1303.00,49.717
1304.00,49.726
1305.00,49.755
1306.00,49.761
1307.00,49.776
1308.00,49.762
1309.00,49.799
1310.00,49.776
1311.00,49.760
1312.00,49.762
1313.00,49.789
1314.00,49.805
1315.00,49.828
1316.00,49.809
1317.00,49.832
1318.00,49.838
1319.00,49.845
1320.00,49.863
1321.00,50.022
1322.00,50.004
1323.00,50.018
1324.00,49.997
1325.00,50.000
1326.00,50.038
1327.00,49.997
1328.00,50.015
1329.00,50.010
1330.00,50.008
1331.00,50.024
1332.00,50.030
1333.00,50.008
1334.00,50.051
1335.00,50.073
1336.00,50.101
1337.00,50.124
1338.00,50.183
1339.00,50.224
1340.00,50.288
1341.00,50.342
1342.00,50.416
1343.00,50.455
1344.00,50.494
1345.00,50.580
1346.00,50.593
1347.00,50.607
1348.00,50.639
1349.00,50.648
1350.00,50.666
1351.00,50.694
1352.00,50.703
1353.00,50.722
1354.00,50.715
1355.00,50.688
1356.00,50.778
1357.00,50.773
1358.00,50.711
1359.00,50.798
1360.00,50.746
1361.00,50.796
1362.00,50.795
1363.00,50.842
1364.00,50.840
1365.00,50.776
1366.00,50.826
1367.00,50.792
1368.00,50.747
1369.00,50.774
1370.00,50.799
1371.00,50.655
1372.00,50.754
1373.00,50.749
1374.00,50.797
1375.00,50.784
1376.00,50.778
1377.00,50.742
1378.00,50.843
1379.00,50.825
1380.00,50.781
1381.00,50.815
1382.00,50.764
1383.00,50.812
1384.00,50.749
1385.00,50.740
1386.00,50.851
1387.00,50.702
1388.00,50.671
1389.00,50.660
1390.00,50.755
1391.00,50.719
1392.00,50.745
1393.00,50.748
1394.00,50.783
1395.00,50.762
1396.00,50.709
1397.00,50.745
1398.00,50.793
1399.00,50.793
1400.00,50.774
1401.00,50.757
1402.00,50.835
1403.00,50.832
1404.00,50.798
1405.00,50.829
1406.00,50.840
1407.00,50.822
1408.00,50.892
1409.00,50.809
1410.00,50.850
1411.00,50.805
1412.00,50.821
1413.00,50.862
1414.00,50.867
1415.00,50.884
1416.00,50.912
1417.00,50.969
1418.00,50.935
1419.00,50.938
1420.00,50.962
1421.00,51.011
1422.00,51.004
1423.00,51.013
1424.00,51.003
1425.00,51.044
1426.00,51.013
1427.00,51.070
1428.00,51.078
1429.00,51.092
1430.00,51.104
1431.00,51.137
1432.00,51.139
1433.00,51.150
1434.00,51.151
1435.00,51.202
1436.00,51.213
1437.00,51.200
1438.00,51.246
1439.00,51.263
1440.00,51.266
1441.00,51.282
1442.00,51.310
1443.00,51.308
1444.00,51.386
1445.00,51.326
1446.00,51.351
1447.00,51.400
1448.00,51.437
1449.00,51.422
1450.00,51.429
1451.00,51.452
1452.00,51.490
1453.00,51.493
1454.00,51.504
1455.00,51.562
1456.00,51.565
1457.00,51.564
1458.00,51.607
1459.00,51.592
1460.00,51.650
1461.00,51.621
1462.00,51.645
1463.00,51.654
1464.00,51.673
1465.00,51.691
1466.00,51.702
1467.00,51.730
1468.00,51.777
1469.00,51.772
1470.00,51.783
1471.00,51.814
1472.00,51.843
1473.00,51.819
1474.00,51.860
1475.00,51.875
1476.00,51.860
1477.00,51.876
1478.00,51.900
1479.00,51.926
1480.00,51.925
1481.00,51.926
1482.00,51.978
1483.00,51.994
1484.00,52.015
1485.00,52.021
1486.00,52.030
1487.00,52.050
1488.00,52.072
1489.00,52.059
1490.00,52.064
1491.00,52.092
1492.00,52.098
1493.00,52.090
1494.00,52.136
1495.00,52.117
1496.00,52.154
1497.00,52.141
1498.00,52.158
1499.00,52.195
1500.00,52.196
1501.00, 
1502.00, 
1503.00, 
1504.00, 
1505.00, 
1506.00, 
1507.00, 
1508.00, 
1509.00, 
1510.00, 
1511.00, 
1512.00, 
1513.00, 
1514.00, 
1515.00, 
1516.00, 
1517.00, 
1518.00, 
1519.00, 
1520.00, 
1521.00, 
1522.00, 
1523.00, 
1524.00, 
1525.00, 
1526.00, 
1527.00, 
1528.00, 
1529.00, 
1530.00, 
1531.00, 
1532.00, 
1533.00, 
1534.00, 
1535.00, 
1536.00, 
1537.00, 
1538.00, 
1539.00, 
1540.00, 
1541.00, 
1542.00, 
1543.00, 
1544.00, 
1545.00, 
1546.00, 
1547.00, 
1548.00, 
1549.00, 
1550.00, 
1551.00, 
1552.00, 
1553.00, 
1554.00, 
1555.00, 
1556.00, 
1557.00, 
1558.00, 
1559.00, 
1560.00, 
1561.00, 
1562.00, 
1563.00, 
1564.00, 
1565.00, 
1566.00, 
1567.00, 
1568.00, 
1569.00, 
1570.00, 
1571.00, 
1572.00, 
1573.00, 
1574.00, 
1575.00, 
1576.00, 
1577.00, 
1578.00, 
1579.00, 
1580.00, 
1581.00, 
1582.00, 
1583.00, 
1584.00, 
1585.00, 
1586.00, 
1587.00, 
1588.00, 
1589.00, 
1590.00, 
1591.00, 
1592.00, 
1593.00, 
1594.00, 
1595.00, 
1596.00, 
1597.00, 
1598.00, 
1599.00, 
1600.00, 
1601.00, 
1602.00, 
1603.00, 
1604.00, 
1605.00, 
1606.00, 
1607.00, 
1608.00, 
1609.00, 
1610.00, 
1611.00, 
1612.00, 
1613.00, 
1614.00, 
1615.00, 
1616.00, 
1617.00, 
1618.00, 
1619.00, 
1620.00, 
1621.00, 
1622.00, 
1623.00, 
1624.00, 
1625.00, 
1626.00, 
1627.00, 
1628.00, 
1629.00, 
1630.00, 
1631.00, 
1632.00, 
1633.00, 
1634.00, 
1635.00, 
1636.00, 
1637.00, 
1638.00, 
1639.00, 
1640.00, 
1641.00, 
1642.00, 
1643.00, 
1644.00, 
1645.00, 
1646.00, 
1647.00, 
1648.00, 
1649.00, 
1650.00, 
1651.00, 
1652.00, 
1653.00, 
1654.00, 
1655.00, 
1656.00, 
1657.00, 
1658.00, 
1659.00, 
1660.00, 
1661.00, 
1662.00, 
1663.00, 
1664.00, 
1665.00, 
1666.00, 
1667.00, 
1668.00, 
1669.00, 
1670.00, 
1671.00, 
1672.00, 
1673.00, 
1674.00, 
1675.00, 
1676.00, 
1677.00, 
1678.00, 
1679.00, 
1680.00, 
1681.00, 
1682.00, 
1683.00, 
1684.00, 
1685.00, 
1686.00, 
1687.00, 
1688.00, 
1689.00, 
1690.00, 
1691.00, 
1692.00, 
1693.00, 
1694.00, 
1695.00, 
1696.00, 
1697.00, 
1698.00, 
1699.00, 
1700.00, 
1701.00, 
1702.00, 
1703.00, 
1704.00, 
1705.00, 
1706.00, 
1707.00, 
1708.00, 
1709.00, 
1710.00, 
1711.00, 
1712.00, 
1713.00, 
1714.00, 
1715.00, 
1716.00, 
1717.00, 
1718.00, 
1719.00, 
1720.00, 
1721.00, 
1722.00, 
1723.00, 
1724.00, 
1725.00, 
1726.00, 
1727.00, 
1728.00, 
1729.00, 
1730.00, 
1731.00, 
1732.00, 
1733.00, 
1734.00, 
1735.00, 
1736.00, 
1737.00, 
1738.00, 
1739.00, 
1740.00, 
1741.00, 
1742.00, 
1743.00, 
1744.00, 
1745.00, 
1746.00, 
1747.00, 
1748.00, 
1749.00, 
1750.00, 
1751.00, 
1752.00, 
1753.00, 
1754.00, 
1755.00, 
1756.00, 
1757.00, 
1758.00, 
1759.00, 
1760.00, 
1761.00, 
1762.00, 
1763.00, 
1764.00, 
1765.00, 
1766.00, 
1767.00, 
1768.00, 
1769.00, 
1770.00, 
1771.00, 
1772.00, 
1773.00, 
1774.00, 
1775.00, 
1776.00, 
1777.00, 
1778.00, 
1779.00, 
1780.00, 
1781.00, 
1782.00, 
1783.00, 
1784.00, 
1785.00, 
1786.00, 
1787.00, 
1788.00, 
1789.00, 
1790.00, 
1791.00, 
1792.00, 
1793.00, 
1794.00, 
1795.00, 
1796.00, 
1797.00, 
1798.00, 
1799.00, 
1800.00, 
1801.00, 
1802.00, 
1803.00, 
1804.00, 
1805.00, 
1806.00, 
1807.00, 
1808.00, 
1809.00, 
1810.00, 
1811.00, 
1812.00, 
1813.00, 
1814.00, 
1815.00, 
1816.00, 
1817.00, 
1818.00, 
1819.00, 
1820.00, 
1821.00, 
1822.00, 
1823.00, 
1824.00, 
1825.00, 
1826.00, 
1827.00, 
1828.00, 
1829.00, 
1830.00, 
1831.00, 
1832.00, 
1833.00, 
1834.00, 
1835.00, 
1836.00, 
1837.00, 
1838.00, 
1839.00, 
1840.00, 
1841.00, 
1842.00, 
1843.00, 
1844.00, 
1845.00, 
1846.00, 
1847.00, 
1848.00, 
1849.00, 
1850.00, 
1851.00, 
1852.00, 
1853.00, 
1854.00, 
1855.00, 
1856.00, 
1857.00, 
1858.00, 
1859.00, 
1860.00, 
1861.00, 
1862.00, 
1863.00, 
1864.00, 
1865.00, 
1866.00, 
1867.00, 
1868.00, 
1869.00, 
1870.00, 
1871.00, 
1872.00, 
1873.00, 
1874.00, 
1875.00, 
1876.00, 
1877.00, 
1878.00, 
1879.00, 
1880.00, 
1881.00, 
1882.00, 
1883.00, 
1884.00, 
1885.00, 
1886.00, 
1887.00, 
1888.00, 
1889.00, 
1890.00, 
1891.00, 
1892.00, 
1893.00, 
1894.00, 
1895.00, 
1896.00, 
1897.00, 
1898.00, 
1899.00, 
1900.00, 
1901.00, 
1902.00, 
1903.00, 
1904.00, 
1905.00, 
1906.00, 
1907.00, 
1908.00, 
1909.00, 
1910.00, 
1911.00, 
1912.00, 
1913.00, 
1914.00, 
1915.00, 
1916.00, 
1917.00, 
1918.00, 
1919.00, 
1920.00, 
1921.00, 
1922.00, 
1923.00, 
1924.00, 
1925.00, 
1926.00, 
1927.00, 
1928.00, 
1929.00, 
1930.00, 
1931.00, 
1932.00, 
1933.00, 
1934.00, 
1935.00, 
1936.00, 
1937.00, 
1938.00, 
1939.00, 
1940.00, 
1941.00, 
1942.00, 
1943.00, 
1944.00, 
1945.00, 
1946.00, 
1947.00, 
1948.00, 
1949.00, 
1950.00, 
1951.00, 
1952.00, 
1953.00, 
1954.00, 
1955.00, 
1956.00, 
1957.00, 
1958.00, 
1959.00, 
1960.00, 
1961.00, 
1962.00, 
1963.00, 
1964.00, 
1965.00, 
1966.00, 
1967.00, 
1968.00, 
1969.00, 
1970.00, 
1971.00, 
1972.00, 
1973.00, 
1974.00, 
1975.00, 
1976.00, 
1977.00, 
1978.00, 
1979.00, 
1980.00, 
1981.00, 
1982.00, 
1983.00, 
1984.00, 
1985.00, 
1986.00, 
1987.00, 
1988.00, 
1989.00, 
1990.00, 
1991.00, 
1992.00, 
1993.00, 
1994.00, 
1995.00, 
1996.00, 
1997.00, 
1998.00, 
1999.00, 
2000.00, 
2001.00, 
2002.00, 
2003.00, 
2004.00, 
2005.00, 
2006.00, 
2007.00, 
2008.00, 
2009.00, 
2010.00, 
2011.00, 
2012.00, 
2013.00, 
2014.00, 
2015.00, 
2016.00, 
2017.00, 
2018.00, 
2019.00, 
2020.00, 
2021.00, 
2022.00, 
2023.00, 
2024.00, 
2025.00, 
2026.00, 
2027.00, 
2028.00, 
2029.00, 
2030.00, 
2031.00, 
2032.00, 
2033.00, 
2034.00, 
2035.00, 
2036.00, 
2037.00, 
2038.00, 
2039.00, 
2040.00, 
2041.00, 
2042.00, 
2043.00, 
2044.00, 
2045.00, 
2046.00, 
2047.00, 
2048.00, 
2049.00, 
2050.00, 
2051.00, 
2052.00, 
2053.00, 
2054.00, 
2055.00, 
2056.00, 
2057.00, 
2058.00, 
2059.00, 
2060.00, 
2061.00, 
2062.00, 
2063.00, 
2064.00, 
2065.00, 
2066.00, 
2067.00, 
2068.00, 
2069.00, 
2070.00, 
2071.00, 
2072.00, 
2073.00, 
2074.00, 
2075.00, 
2076.00, 
2077.00, 
2078.00, 
2079.00, 
2080.00, 
2081.00, 
2082.00, 
2083.00, 
2084.00, 
2085.00, 
2086.00, 
2087.00, 
2088.00, 
2089.00, 
2090.00, 
2091.00, 
2092.00, 
2093.00, 
2094.00, 
2095.00, 
2096.00, 
2097.00, 
2098.00, 
2099.00, 
2100.00, 
2101.00, 
2102.00, 
2103.00, 
2104.00, 
2105.00, 
2106.00, 
2107.00, 
2108.00, 
2109.00, 
2110.00, 
2111.00, 
2112.00, 
2113.00, 
2114.00, 
2115.00, 
2116.00, 
2117.00, 
2118.00, 
2119.00, 
2120.00, 
2121.00, 
2122.00, 
2123.00, 
2124.00, 
2125.00, 
2126.00, 
2127.00, 
2128.00, 
2129.00, 
2130.00, 
2131.00, 
2132.00, 
2133.00, 
2134.00, 
2135.00, 
2136.00, 
2137.00, 
2138.00, 
2139.00, 
2140.00, 
2141.00, 
2142.00, 
2143.00, 
2144.00, 
2145.00, 
2146.00, 
2147.00, 
2148.00, 
2149.00, 
2150.00, 
2151.00, 
2152.00, 
2153.00, 
2154.00, 
2155.00, 
2156.00, 
2157.00, 
2158.00, 
2159.00, 
2160.00, 
2161.00, 
2162.00, 
2163.00, 
2164.00, 
2165.00, 
2166.00, 
2167.00, 
2168.00, 
2169.00, 
2170.00, 
2171.00, 
2172.00, 
2173.00, 
2174.00, 
2175.00, 
2176.00, 
2177.00, 
2178.00, 
2179.00, 
2180.00, 
2181.00, 
2182.00, 
2183.00, 
2184.00, 
2185.00, 
2186.00, 
2187.00, 
2188.00, 
2189.00, 
2190.00, 
2191.00, 
2192.00, 
2193.00, 
2194.00, 
2195.00, 
2196.00, 
2197.00, 
2198.00, 
2199.00, 
2200.00, 
2201.00, 
2202.00, 
2203.00, 
2204.00, 
2205.00, 
2206.00, 
2207.00, 
2208.00, 
2209.00, 
2210.00, 
2211.00, 
2212.00, 
2213.00, 
2214.00, 
2215.00, 
2216.00, 
2217.00, 
2218.00, 
2219.00, 
2220.00, 
2221.00, 
2222.00, 
2223.00, 
2224.00, 
2225.00, 
2226.00, 
2227.00, 
2228.00, 
2229.00, 
2230.00, 
2231.00, 
2232.00, 
2233.00, 
2234.00, 
2235.00, 
2236.00, 
2237.00, 
2238.00, 
2239.00, 
2240.00, 
2241.00, 
2242.00, 
2243.00, 
2244.00, 
2245.00, 
2246.00, 
2247.00, 
2248.00, 
2249.00, 
2250.00, 
2251.00, 
2252.00, 
2253.00, 
2254.00, 
2255.00, 
2256.00, 
2257.00, 
2258.00, 
2259.00, 
2260.00, 
2261.00, 
2262.00, 
2263.00, 
2264.00, 
2265.00, 
2266.00, 
2267.00, 
2268.00, 
2269.00, 
2270.00, 
2271.00, 
2272.00, 
2273.00, 
2274.00, 
2275.00, 
2276.00, 
2277.00, 
2278.00, 
2279.00, 
2280.00, 
2281.00, 
2282.00, 
2283.00, 
2284.00, 
2285.00, 
2286.00, 
2287.00, 
2288.00, 
2289.00, 
2290.00, 
2291.00, 
2292.00, 
2293.00, 
2294.00, 
2295.00, 
2296.00, 
2297.00, 
2298.00, 
2299.00, 
2300.00, 
2301.00, 
2302.00, 
2303.00, 
2304.00, 
2305.00, 
2306.00, 
2307.00, 
2308.00, 
2309.00, 
2310.00, 
2311.00, 
2312.00, 
2313.00, 
2314.00, 
2315.00, 
2316.00, 
2317.00, 
2318.00, 
2319.00, 
2320.00, 
2321.00, 
2322.00, 
2323.00, 
2324.00, 
2325.00, 
2326.00, 
2327.00, 
2328.00, 
2329.00, 
2330.00, 
2331.00, 
2332.00, 
2333.00, 
2334.00, 
2335.00, 
2336.00, 
2337.00, 
2338.00, 
2339.00, 
2340.00, 
2341.00, 
2342.00, 
2343.00, 
2344.00, 
2345.00, 
2346.00, 
2347.00, 
2348.00, 
2349.00, 
2350.00, 
2351.00, 
2352.00, 
2353.00, 
2354.00, 
2355.00, 
2356.00, 
2357.00, 
2358.00, 
2359.00, 
2360.00, 
2361.00, 
2362.00, 
2363.00, 
2364.00, 
2365.00, 
2366.00, 
2367.00, 
2368.00, 
2369.00, 
2370.00, 
2371.00, 
2372.00, 
2373.00, 
2374.00, 
2375.00, 
2376.00, 
2377.00, 
2378.00, 
2379.00, 
2380.00, 
2381.00, 
2382.00, 
2383.00, 
2384.00, 
2385.00, 
2386.00, 
2387.00, 
2388.00, 
2389.00, 
2390.00, 
2391.00, 
2392.00, 
2393.00, 
2394.00, 
2395.00, 
2396.00, 
2397.00, 
2398.00, 
2399.00, 
2400.00, 
2401.00, 
2402.00, 
2403.00, 
2404.00, 
2405.00, 
2406.00, 
2407.00, 
2408.00, 
2409.00, 
2410.00, 
2411.00, 
2412.00, 
2413.00, 
2414.00, 
2415.00, 
2416.00, 
2417.00, 
2418.00, 
2419.00, 
2420.00, 
2421.00, 
2422.00, 
2423.00, 
2424.00, 
2425.00, 
2426.00, 
2427.00, 
2428.00, 
2429.00, 
2430.00, 
2431.00, 
2432.00, 
2433.00, 
2434.00, 
2435.00, 
2436.00, 
2437.00, 
2438.00, 
2439.00, 
2440.00, 
2441.00, 
2442.00, 
2443.00, 
2444.00, 
2445.00, 
2446.00, 
2447.00, 
2448.00, 
2449.00, 
2450.00, 
2451.00, 
2452.00, 
2453.00, 
2454.00, 
2455.00, 
2456.00, 
2457.00, 
2458.00, 
2459.00, 
2460.00, 
2461.00, 
2462.00, 
2463.00, 
2464.00, 
2465.00, 
2466.00, 
2467.00, 
2468.00, 
2469.00, 
2470.00, 
2471.00, 
2472.00, 
2473.00, 
2474.00, 
2475.00, 
2476.00, 
2477.00, 
2478.00, 
2479.00, 
2480.00, 
2481.00, 
2482.00, 
2483.00, 
2484.00, 
2485.00, 
2486.00, 
2487.00, 
2488.00, 
2489.00, 
2490.00, 
2491.00, 
2492.00, 
2493.00, 
2494.00, 
2495.00, 
2496.00, 
2497.00, 
2498.00, 
2499.00, 
2500.00, 
2501.00, 
2502.00, 
2503.00, 
2504.00, 
2505.00, 
2506.00, 
2507.00, 
2508.00, 
2509.00, 
2510.00, 
2511.00, 
2512.00, 
2513.00, 
2514.00, 
2515.00, 
2516.00, 
2517.00, 
2518.00, 
2519.00, 
2520.00, 
2521.00, 
2522.00, 
2523.00, 
2524.00, 
2525.00, 
2526.00, 
2527.00, 
2528.00, 
2529.00, 
2530.00, 
2531.00, 
2532.00, 
2533.00, 
2534.00, 
2535.00, 
2536.00, 
2537.00, 
2538.00, 
2539.00, 
2540.00, 
2541.00, 
2542.00, 
2543.00, 
2544.00, 
2545.00, 
2546.00, 
2547.00, 
2548.00, 
2549.00, 
2550.00, 
2551.00, 
2552.00, 
2553.00, 
2554.00, 
2555.00, 
2556.00, 
2557.00, 
2558.00, 
2559.00, 
2560.00, 
2561.00, 
2562.00, 
2563.00, 
2564.00, 
2565.00, 
2566.00, 
2567.00, 
2568.00, 
2569.00, 
2570.00, 
2571.00, 
2572.00, 
2573.00, 
2574.00, 
2575.00, 
2576.00, 
2577.00, 
2578.00, 
2579.00, 
2580.00, 
2581.00, 
2582.00, 
2583.00, 
2584.00, 
2585.00, 
2586.00, 
2587.00, 
2588.00, 
2589.00, 
2590.00, 
2591.00, 
2592.00, 
2593.00, 
2594.00, 
2595.00, 
2596.00, 
2597.00, 
2598.00, 
2599.00, 
2600.00, 
