"2aP2 - RawData"
"Wavelength nm.","T%"
200.00,-0.000
201.00,0.002
202.00,0.001
203.00,0.002
204.00,0.003
205.00,0.000
206.00,0.001
207.00,0.003
208.00,-0.000
209.00,0.001
210.00,0.000
211.00,0.000
212.00,0.000
213.00,0.001
214.00,0.003
215.00,0.000
216.00,-0.001
217.00,0.002
218.00,0.004
219.00,0.000
220.00,0.001
221.00,0.002
222.00,0.000
223.00,0.002
224.00,0.002
225.00,0.001
226.00,0.001
227.00,0.001
228.00,0.002
229.00,0.001
230.00,0.001
231.00,0.001
232.00,-0.002
233.00,0.003
234.00,0.000
235.00,0.001
236.00,-0.000
237.00,0.003
238.00,-0.001
239.00,0.002
240.00,0.004
241.00,0.001
242.00,0.002
243.00,0.001
244.00,-0.000
245.00,-0.000
246.00,0.002
247.00,0.001
248.00,0.002
249.00,0.001
250.00,0.000
251.00,0.002
252.00,-0.000
253.00,0.000
254.00,0.002
255.00,-0.001
256.00,0.000
257.00,0.001
258.00,0.000
259.00,0.000
260.00,0.000
261.00,0.002
262.00,0.001
263.00,-0.000
264.00,0.002
265.00,0.002
266.00,0.001
267.00,0.001
268.00,-0.001
269.00,0.000
270.00,0.002
271.00,0.001
272.00,0.001
273.00,0.000
274.00,0.002
275.00,0.000
276.00,0.001
277.00,0.002
278.00,-0.000
279.00,0.002
280.00,0.000
281.00,-0.000
282.00,0.001
283.00,0.000
284.00,0.001
285.00,0.002
286.00,0.000
287.00,-0.000
288.00,-0.000
289.00,0.001
290.00,0.000
291.00,-0.000
292.00,0.001
293.00,0.002
294.00,-0.000
295.00,-0.000
296.00,0.001
297.00,0.001
298.00,-0.000
299.00,0.001
300.00,0.003
301.00,0.001
302.00,0.004
303.00,0.006
304.00,0.009
305.00,0.017
306.00,0.025
307.00,0.035
308.00,0.055
309.00,0.084
310.00,0.120
311.00,0.165
312.00,0.224
313.00,0.298
314.00,0.381
315.00,0.505
316.00,0.644
317.00,0.810
318.00,1.002
319.00,1.229
320.00,1.491
321.00,1.786
322.00,2.101
323.00,2.474
324.00,2.863
325.00,3.254
326.00,3.683
327.00,4.142
328.00,4.633
329.00,5.126
330.00,5.643
331.00,6.137
332.00,6.648
333.00,7.250
334.00,7.764
335.00,8.303
336.00,8.825
337.00,9.389
338.00,9.928
339.00,10.384
340.00,10.914
341.00,11.383
342.00,11.855
343.00,12.267
344.00,12.669
345.00,13.142
346.00,13.491
347.00,13.840
348.00,14.195
349.00,14.490
350.00,14.814
351.00,15.086
352.00,15.313
353.00,15.562
354.00,15.779
355.00,15.993
356.00,16.232
357.00,16.364
358.00,16.542
359.00,16.738
360.00,16.852
361.00,16.992
362.00,17.137
363.00,17.225
364.00,17.334
365.00,17.360
366.00,17.449
367.00,17.484
368.00,17.512
369.00,17.485
370.00,17.573
371.00,17.564
372.00,17.562
373.00,17.547
374.00,17.558
375.00,17.542
376.00,17.516
377.00,17.442
378.00,17.391
379.00,17.348
380.00,17.326
381.00,17.286
382.00,17.281
383.00,17.278
384.00,17.283
385.00,17.323
386.00,17.270
387.00,17.350
388.00,17.353
389.00,17.349
390.00,17.371
391.00,17.373
392.00,17.401
393.00,17.369
394.00,17.385
395.00,17.420
396.00,17.370
397.00,17.378
398.00,17.324
399.00,17.357
400.00,17.338
401.00,17.363
402.00,17.357
403.00,17.332
404.00,17.325
405.00,17.326
406.00,17.293
407.00,17.276
408.00,17.274
409.00,17.224
410.00,17.208
411.00,17.209
412.00,17.209
413.00,17.190
414.00,17.218
415.00,17.265
416.00,17.249
417.00,17.227
418.00,17.259
419.00,17.323
420.00,17.353
421.00,17.375
422.00,17.389
423.00,17.462
424.00,17.476
425.00,17.498
426.00,17.520
427.00,17.591
428.00,17.633
429.00,17.677
430.00,17.713
431.00,17.782
432.00,17.797
433.00,17.913
434.00,17.949
435.00,17.989
436.00,18.080
437.00,18.115
438.00,18.229
439.00,18.294
440.00,18.376
441.00,18.446
442.00,18.529
443.00,18.597
444.00,18.722
445.00,18.802
446.00,18.865
447.00,19.011
448.00,19.093
449.00,19.195
450.00,19.288
451.00,19.383
452.00,19.452
453.00,19.647
454.00,19.721
455.00,19.816
456.00,19.958
457.00,20.073
458.00,20.137
459.00,20.292
460.00,20.428
461.00,20.569
462.00,20.664
463.00,20.820
464.00,20.959
465.00,21.091
466.00,21.223
467.00,21.373
468.00,21.486
469.00,21.582
470.00,21.688
471.00,21.804
472.00,21.940
473.00,22.056
474.00,22.185
475.00,22.331
476.00,22.420
477.00,22.552
478.00,22.664
479.00,22.862
480.00,22.986
481.00,23.111
482.00,23.314
483.00,23.447
484.00,23.614
485.00,23.776
486.00,23.936
487.00,24.068
488.00,24.225
489.00,24.375
490.00,24.523
491.00,24.684
492.00,24.917
493.00,25.078
494.00,25.054
495.00,25.295
496.00,25.403
497.00,25.521
498.00,25.683
499.00,25.833
500.00,25.986
501.00,26.109
502.00,26.291
503.00,26.358
504.00,26.470
505.00,26.634
506.00,26.764
507.00,26.842
508.00,26.991
509.00,27.132
510.00,27.323
511.00,27.392
512.00,27.570
513.00,27.693
514.00,27.811
515.00,27.982
516.00,28.071
517.00,28.179
518.00,28.346
519.00,28.418
520.00,28.463
521.00,28.540
522.00,28.698
523.00,28.751
524.00,28.873
525.00,29.001
526.00,29.106
527.00,29.200
528.00,29.249
529.00,29.418
530.00,29.607
531.00,29.725
532.00,29.801
533.00,29.885
534.00,29.988
535.00,30.105
536.00,30.180
537.00,30.275
538.00,30.351
539.00,30.402
540.00,30.503
541.00,30.535
542.00,30.607
543.00,30.687
544.00,30.766
545.00,30.848
546.00,30.873
547.00,31.017
548.00,31.152
549.00,31.208
550.00,31.212
551.00,31.337
552.00,31.426
553.00,31.429
554.00,31.623
555.00,31.634
556.00,31.709
557.00,31.784
558.00,31.859
559.00,31.902
560.00,31.935
561.00,32.003
562.00,32.068
563.00,32.188
564.00,32.240
565.00,32.202
566.00,32.245
567.00,32.371
568.00,32.319
569.00,32.456
570.00,32.476
571.00,32.530
572.00,32.563
573.00,32.555
574.00,32.630
575.00,32.643
576.00,32.649
577.00,32.729
578.00,32.879
579.00,32.896
580.00,32.971
581.00,33.116
582.00,33.150
583.00,33.168
584.00,33.257
585.00,33.333
586.00,33.371
587.00,33.446
588.00,33.485
589.00,33.475
590.00,33.557
591.00,33.649
592.00,33.598
593.00,33.661
594.00,33.744
595.00,33.804
596.00,33.813
597.00,33.925
598.00,34.078
599.00,34.094
600.00,34.110
601.00,34.133
602.00,34.108
603.00,34.226
604.00,34.272
605.00,34.336
606.00,34.387
607.00,34.416
608.00,34.582
609.00,34.666
610.00,34.513
611.00,34.660
612.00,34.700
613.00,34.776
614.00,34.837
615.00,34.946
616.00,35.014
617.00,35.056
618.00,35.020
619.00,35.110
620.00,35.147
621.00,35.208
622.00,35.344
623.00,35.444
624.00,35.490
625.00,35.572
626.00,35.606
627.00,35.722
628.00,35.752
629.00,35.824
630.00,35.867
631.00,35.975
632.00,36.071
633.00,36.207
634.00,36.266
635.00,36.364
636.00,36.484
637.00,36.544
638.00,36.618
639.00,36.705
640.00,36.765
641.00,36.830
642.00,36.943
643.00,36.941
644.00,37.134
645.00,37.187
646.00,37.375
647.00,37.468
648.00,37.509
649.00,37.578
650.00,37.627
651.00,37.845
652.00,37.933
653.00,37.943
654.00,38.043
655.00,38.250
656.00,38.493
657.00,38.353
658.00,38.528
659.00,38.690
660.00,38.584
661.00,38.801
662.00,38.920
663.00,39.030
664.00,39.306
665.00,39.470
666.00,39.478
667.00,39.577
668.00,39.680
669.00,39.782
670.00,40.078
671.00,40.115
672.00,40.301
673.00,40.317
674.00,40.441
675.00,40.531
676.00,40.743
677.00,40.895
678.00,40.757
679.00,41.083
680.00,41.150
681.00,41.339
682.00,41.392
683.00,41.412
684.00,41.533
685.00,41.681
686.00,41.718
687.00,41.901
688.00,41.918
689.00,41.972
690.00,42.259
691.00,42.563
692.00,42.448
693.00,42.481
694.00,42.646
695.00,42.803
696.00,42.994
697.00,42.957
698.00,43.019
699.00,43.378
700.00,43.446
701.00,43.417
702.00,43.664
703.00,43.867
704.00,43.913
705.00,43.820
706.00,43.954
707.00,44.077
708.00,44.253
709.00,44.810
710.00,44.438
711.00,44.441
712.00,44.576
713.00,44.810
714.00,44.879
715.00,44.941
716.00,44.999
717.00,45.164
718.00,45.402
719.00,45.278
720.00,45.373
721.00,49.854
722.00,49.823
723.00,49.864
724.00,49.879
725.00,50.017
726.00,50.022
727.00,50.135
728.00,50.146
729.00,50.264
730.00,50.223
731.00,50.314
732.00,50.361
733.00,50.494
734.00,50.577
735.00,50.652
736.00,50.666
737.00,50.728
738.00,50.857
739.00,50.879
740.00,50.933
741.00,50.970
742.00,51.105
743.00,51.025
744.00,51.032
745.00,51.151
746.00,51.123
747.00,51.124
748.00,51.140
749.00,51.245
750.00,51.255
751.00,51.247
752.00,51.268
753.00,51.386
754.00,51.393
755.00,51.333
756.00,51.400
757.00,51.435
758.00,51.518
759.00,51.506
760.00,51.504
761.00,51.642
762.00,51.589
763.00,51.672
764.00,51.667
765.00,51.713
766.00,51.711
767.00,51.726
768.00,51.868
769.00,51.863
770.00,51.883
771.00,51.954
772.00,51.958
773.00,51.962
774.00,52.066
775.00,52.046
776.00,52.056
777.00,52.096
778.00,52.062
779.00,52.128
780.00,52.082
781.00,52.181
782.00,52.219
783.00,52.180
784.00,52.256
785.00,52.141
786.00,52.176
787.00,52.145
788.00,52.207
789.00,52.137
790.00,52.179
791.00,52.211
792.00,52.095
793.00,52.231
794.00,52.247
795.00,52.245
796.00,52.202
797.00,52.211
798.00,52.297
799.00,52.150
800.00,52.158
801.00,52.206
802.00,52.250
803.00,52.203
804.00,52.161
805.00,52.194
806.00,52.222
807.00,52.205
808.00,52.191
809.00,52.167
810.00,52.162
811.00,52.219
812.00,52.262
813.00,52.148
814.00,52.121
815.00,52.194
816.00,52.254
817.00,52.141
818.00,52.080
819.00,52.211
820.00,52.051
821.00,52.114
822.00,52.158
823.00,52.035
824.00,52.128
825.00,51.998
826.00,52.061
827.00,52.138
828.00,52.198
829.00,52.109
830.00,52.170
831.00,54.233
832.00,54.252
833.00,54.162
834.00,54.218
835.00,54.179
836.00,54.307
837.00,54.190
838.00,54.165
839.00,54.155
840.00,54.084
841.00,54.131
842.00,54.098
843.00,54.119
844.00,54.096
845.00,54.068
846.00,54.080
847.00,54.075
848.00,54.078
849.00,53.964
850.00,53.943
851.00,53.915
852.00,53.931
853.00,53.884
854.00,53.895
855.00,53.793
856.00,53.851
857.00,53.801
858.00,53.767
859.00,53.744
860.00,53.797
861.00,53.783
862.00,53.837
863.00,53.780
864.00,53.707
865.00,53.770
866.00,53.714
867.00,53.724
868.00,53.714
869.00,53.694
870.00,53.711
871.00,53.701
872.00,53.729
873.00,53.686
874.00,53.705
875.00,53.636
876.00,53.647
877.00,53.681
878.00,53.750
879.00,53.619
880.00,53.607
881.00,53.570
882.00,53.624
883.00,53.567
884.00,53.546
885.00,53.526
886.00,53.512
887.00,53.486
888.00,53.475
889.00,53.463
890.00,53.466
891.00,53.401
892.00,53.382
893.00,53.380
894.00,53.381
895.00,53.363
896.00,53.335
897.00,53.335
898.00,53.334
899.00,53.359
900.00,53.293
901.00,53.275
902.00,53.296
903.00,53.244
904.00,53.238
905.00,53.238
906.00,53.222
907.00,53.215
908.00,53.140
909.00,53.135
910.00,53.118
911.00,53.111
912.00,53.114
913.00,53.089
914.00,53.088
915.00,53.059
916.00,52.983
917.00,53.041
918.00,52.988
919.00,52.976
920.00,52.962
921.00,52.948
922.00,52.928
923.00,52.894
924.00,52.880
925.00,52.892
926.00,52.864
927.00,52.850
928.00,52.810
929.00,52.830
930.00,52.798
931.00,52.767
932.00,52.680
933.00,52.818
934.00,52.717
935.00,52.689
936.00,52.667
937.00,52.642
938.00,52.649
939.00,52.631
940.00,52.595
941.00,52.618
942.00,52.574
943.00,52.559
944.00,52.528
945.00,52.555
946.00,52.536
947.00,52.480
948.00,52.482
949.00,52.453
950.00,52.464
951.00,52.435
952.00,52.428
953.00,52.363
954.00,52.343
955.00,52.309
956.00,52.304
957.00,52.276
958.00,52.281
959.00,52.216
960.00,52.203
961.00,52.189
962.00,52.199
963.00,52.173
964.00,52.186
965.00,52.168
966.00,52.156
967.00,52.144
968.00,52.097
969.00,52.169
970.00,52.105
971.00,52.137
972.00,52.089
973.00,52.137
974.00,52.158
975.00,52.100
976.00,52.127
977.00,52.119
978.00,52.147
979.00,52.108
980.00,52.128
981.00,52.128
982.00,52.092
983.00,52.128
984.00,52.077
985.00,52.120
986.00,52.074
987.00,52.081
988.00,52.060
989.00,52.049
990.00,52.062
991.00,52.026
992.00,52.038
993.00,52.007
994.00,52.004
995.00,51.977
996.00,51.971
997.00,51.965
998.00,51.923
999.00,51.957
1000.00,51.902
1001.00,51.914
1002.00,51.902
1003.00,51.889
1004.00,51.891
1005.00,51.839
1006.00,51.865
1007.00,51.842
1008.00,51.826
1009.00,51.796
1010.00,51.808
1011.00,51.794
1012.00,51.747
1013.00,51.767
1014.00,51.723
1015.00,51.752
1016.00,51.707
1017.00,51.700
1018.00,51.706
1019.00,51.651
1020.00,51.648
1021.00,51.637
1022.00,51.616
1023.00,51.586
1024.00,51.591
1025.00,51.564
1026.00,51.550
1027.00,51.536
1028.00,51.527
1029.00,51.525
1030.00,51.482
1031.00,51.487
1032.00,51.458
1033.00,51.455
1034.00,51.451
1035.00,51.415
1036.00,51.376
1037.00,51.373
1038.00,51.365
1039.00,51.309
1040.00,51.318
1041.00,51.273
1042.00,51.255
1043.00,51.232
1044.00,51.269
1045.00,51.256
1046.00,51.250
1047.00,51.273
1048.00,51.289
1049.00,51.300
1050.00,51.293
1051.00,51.347
1052.00,51.328
1053.00,51.319
1054.00,51.330
1055.00,51.348
1056.00,51.347
1057.00,51.334
1058.00,51.333
1059.00,51.329
1060.00,51.356
1061.00,51.318
1062.00,51.324
1063.00,51.323
1064.00,51.309
1065.00,51.298
1066.00,51.270
1067.00,51.294
1068.00,51.304
1069.00,51.245
1070.00,51.266
1071.00,51.230
1072.00,51.245
1073.00,51.228
1074.00,51.215
1075.00,51.184
1076.00,51.219
1077.00,51.198
1078.00,51.177
1079.00,51.191
1080.00,51.165
1081.00,51.152
1082.00,51.149
1083.00,51.132
1084.00,51.147
1085.00,51.161
1086.00,51.112
1087.00,51.121
1088.00,51.092
1089.00,51.094
1090.00,51.090
1091.00,51.087
1092.00,51.071
1093.00,51.052
1094.00,51.029
1095.00,51.030
1096.00,51.015
1097.00,51.021
1098.00,51.023
1099.00,51.010
1100.00,51.011
1101.00,51.001
1102.00,50.980
1103.00,50.990
1104.00,50.968
1105.00,50.946
1106.00,50.940
1107.00,50.934
1108.00,50.899
1109.00,50.906
1110.00,50.888
1111.00,50.889
1112.00,50.876
1113.00,50.870
1114.00,50.873
1115.00,50.877
1116.00,50.851
1117.00,50.851
1118.00,50.833
1119.00,50.824
1120.00,50.828
1121.00,50.820
1122.00,50.816
1123.00,50.810
1124.00,50.798
1125.00,50.796
1126.00,50.783
1127.00,50.774
1128.00,50.777
1129.00,50.752
1130.00,50.735
1131.00,50.762
1132.00,50.713
1133.00,50.716
1134.00,50.707
1135.00,50.698
1136.00,50.700
1137.00,50.713
1138.00,50.694
1139.00,50.712
1140.00,50.695
1141.00,50.682
1142.00,50.679
1143.00,50.684
1144.00,50.668
1145.00,50.685
1146.00,50.677
1147.00,50.653
1148.00,50.640
1149.00,50.650
1150.00,50.675
1151.00,50.675
1152.00,50.654
1153.00,50.648
1154.00,50.623
1155.00,50.634
1156.00,50.618
1157.00,50.627
1158.00,50.622
1159.00,50.628
1160.00,50.618
1161.00,50.629
1162.00,50.607
1163.00,50.590
1164.00,50.610
1165.00,50.592
1166.00,50.621
1167.00,50.592
1168.00,50.610
1169.00,50.604
1170.00,50.617
1171.00,50.595
1172.00,50.593
1173.00,50.584
1174.00,50.576
1175.00,50.579
1176.00,50.576
1177.00,50.573
1178.00,50.578
1179.00,50.583
1180.00,50.577
1181.00,50.589
1182.00,50.568
1183.00,50.568
1184.00,50.555
1185.00,50.550
1186.00,50.545
1187.00,50.536
1188.00,50.538
1189.00,50.557
1190.00,50.543
1191.00,50.553
1192.00,50.583
1193.00,50.537
1194.00,50.555
1195.00,50.521
1196.00,50.558
1197.00,50.569
1198.00,50.528
1199.00,50.547
1200.00,50.537
1201.00,50.552
1202.00,50.531
1203.00,50.539
1204.00,50.530
1205.00,50.545
1206.00,50.526
1207.00,50.534
1208.00,50.527
1209.00,50.519
1210.00,50.521
1211.00,50.514
1212.00,50.523
1213.00,50.503
1214.00,50.518
1215.00,50.482
1216.00,50.508
1217.00,50.510
1218.00,50.485
1219.00,50.522
1220.00,50.504
1221.00,50.521
1222.00,50.511
1223.00,50.524
1224.00,50.523
1225.00,50.507
1226.00,50.509
1227.00,50.521
1228.00,50.524
1229.00,50.503
1230.00,50.541
1231.00,50.525
1232.00,50.560
1233.00,50.550
1234.00,50.545
1235.00,50.538
1236.00,50.538
1237.00,50.543
1238.00,50.543
1239.00,50.557
1240.00,50.536
1241.00,50.547
1242.00,50.526
1243.00,50.555
1244.00,50.542
1245.00,50.568
1246.00,50.593
1247.00,50.566
1248.00,50.548
1249.00,50.573
1250.00,50.573
1251.00,50.532
1252.00,50.554
1253.00,50.554
1254.00,50.599
1255.00,50.556
1256.00,50.551
1257.00,50.554
1258.00,50.604
1259.00,50.580
1260.00,50.621
1261.00,50.594
1262.00,50.573
1263.00,50.593
1264.00,50.585
1265.00,50.597
1266.00,50.589
1267.00,50.610
1268.00,50.603
1269.00,50.614
1270.00,50.617
1271.00,50.637
1272.00,50.632
1273.00,50.640
1274.00,50.653
1275.00,50.649
1276.00,50.650
1277.00,50.664
1278.00,50.661
1279.00,50.675
1280.00,50.671
1281.00,50.652
1282.00,50.671
1283.00,50.645
1284.00,50.644
1285.00,50.656
1286.00,50.669
1287.00,50.670
1288.00,50.695
1289.00,50.679
1290.00,50.720
1291.00,50.716
1292.00,50.708
1293.00,50.724
1294.00,50.732
1295.00,50.732
1296.00,50.740
1297.00,50.744
1298.00,50.792
1299.00,50.757
1300.00,50.773
1301.00,50.761
1302.00,50.781
1303.00,50.765
1304.00,50.762
1305.00,50.786
1306.00,50.786
1307.00,50.805
1308.00,50.787
1309.00,50.812
1310.00,50.802
1311.00,50.792
1312.00,50.797
1313.00,50.813
1314.00,50.820
1315.00,50.865
1316.00,50.861
1317.00,50.868
1318.00,50.866
1319.00,50.855
1320.00,50.872
1321.00,51.037
1322.00,51.001
1323.00,51.014
1324.00,50.997
1325.00,50.976
1326.00,51.008
1327.00,50.990
1328.00,51.022
1329.00,50.956
1330.00,50.985
1331.00,50.986
1332.00,51.009
1333.00,50.981
1334.00,51.036
1335.00,51.055
1336.00,51.061
1337.00,51.094
1338.00,51.155
1339.00,51.197
1340.00,51.259
1341.00,51.314
1342.00,51.385
1343.00,51.429
1344.00,51.451
1345.00,51.543
1346.00,51.568
1347.00,51.591
1348.00,51.627
1349.00,51.639
1350.00,51.639
1351.00,51.663
1352.00,51.665
1353.00,51.676
1354.00,51.672
1355.00,51.609
1356.00,51.692
1357.00,51.677
1358.00,51.663
1359.00,51.735
1360.00,51.710
1361.00,51.668
1362.00,51.601
1363.00,51.763
1364.00,51.765
1365.00,51.684
1366.00,51.763
1367.00,51.712
1368.00,51.625
1369.00,51.698
1370.00,51.694
1371.00,51.593
1372.00,51.675
1373.00,51.710
1374.00,51.683
1375.00,51.680
1376.00,51.689
1377.00,51.674
1378.00,51.691
1379.00,51.733
1380.00,51.693
1381.00,51.719
1382.00,51.679
1383.00,51.681
1384.00,51.656
1385.00,51.642
1386.00,51.788
1387.00,51.705
1388.00,51.615
1389.00,51.683
1390.00,51.695
1391.00,51.650
1392.00,51.639
1393.00,51.639
1394.00,51.689
1395.00,51.736
1396.00,51.622
1397.00,51.640
1398.00,51.715
1399.00,51.702
1400.00,51.634
1401.00,51.673
1402.00,51.686
1403.00,51.703
1404.00,51.714
1405.00,51.728
1406.00,51.741
1407.00,51.742
1408.00,51.768
1409.00,51.695
1410.00,51.753
1411.00,51.722
1412.00,51.701
1413.00,51.736
1414.00,51.741
1415.00,51.773
1416.00,51.777
1417.00,51.826
1418.00,51.789
1419.00,51.789
1420.00,51.831
1421.00,51.854
1422.00,51.857
1423.00,51.875
1424.00,51.868
1425.00,51.891
1426.00,51.881
1427.00,51.927
1428.00,51.932
1429.00,51.919
1430.00,51.937
1431.00,51.974
1432.00,51.975
1433.00,51.981
1434.00,51.982
1435.00,52.053
1436.00,52.039
1437.00,52.026
1438.00,52.057
1439.00,52.085
1440.00,52.075
1441.00,52.090
1442.00,52.121
1443.00,52.118
1444.00,52.177
1445.00,52.124
1446.00,52.130
1447.00,52.181
1448.00,52.216
1449.00,52.217
1450.00,52.214
1451.00,52.217
1452.00,52.253
1453.00,52.269
1454.00,52.285
1455.00,52.324
1456.00,52.328
1457.00,52.311
1458.00,52.352
1459.00,52.345
1460.00,52.383
1461.00,52.371
1462.00,52.402
1463.00,52.402
1464.00,52.442
1465.00,52.436
1466.00,52.440
1467.00,52.483
1468.00,52.514
1469.00,52.510
1470.00,52.514
1471.00,52.539
1472.00,52.569
1473.00,52.542
1474.00,52.579
1475.00,52.603
1476.00,52.588
1477.00,52.586
1478.00,52.621
1479.00,52.642
1480.00,52.647
1481.00,52.666
1482.00,52.670
1483.00,52.680
1484.00,52.689
1485.00,52.698
1486.00,52.713
1487.00,52.717
1488.00,52.765
1489.00,52.765
1490.00,52.758
1491.00,52.772
1492.00,52.797
1493.00,52.783
1494.00,52.823
1495.00,52.804
1496.00,52.821
1497.00,52.820
1498.00,52.818
1499.00,52.864
1500.00,52.888
1501.00, 
1502.00, 
1503.00, 
1504.00, 
1505.00, 
1506.00, 
1507.00, 
1508.00, 
1509.00, 
1510.00, 
1511.00, 
1512.00, 
1513.00, 
1514.00, 
1515.00, 
1516.00, 
1517.00, 
1518.00, 
1519.00, 
1520.00, 
1521.00, 
1522.00, 
1523.00, 
1524.00, 
1525.00, 
1526.00, 
1527.00, 
1528.00, 
1529.00, 
1530.00, 
1531.00, 
1532.00, 
1533.00, 
1534.00, 
1535.00, 
1536.00, 
1537.00, 
1538.00, 
1539.00, 
1540.00, 
1541.00, 
1542.00, 
1543.00, 
1544.00, 
1545.00, 
1546.00, 
1547.00, 
1548.00, 
1549.00, 
1550.00, 
1551.00, 
1552.00, 
1553.00, 
1554.00, 
1555.00, 
1556.00, 
1557.00, 
1558.00, 
1559.00, 
1560.00, 
1561.00, 
1562.00, 
1563.00, 
1564.00, 
1565.00, 
1566.00, 
1567.00, 
1568.00, 
1569.00, 
1570.00, 
1571.00, 
1572.00, 
1573.00, 
1574.00, 
1575.00, 
1576.00, 
1577.00, 
1578.00, 
1579.00, 
1580.00, 
1581.00, 
1582.00, 
1583.00, 
1584.00, 
1585.00, 
1586.00, 
1587.00, 
1588.00, 
1589.00, 
1590.00, 
1591.00, 
1592.00, 
1593.00, 
1594.00, 
1595.00, 
1596.00, 
1597.00, 
1598.00, 
1599.00, 
1600.00, 
1601.00, 
1602.00, 
1603.00, 
1604.00, 
1605.00, 
1606.00, 
1607.00, 
1608.00, 
1609.00, 
1610.00, 
1611.00, 
1612.00, 
1613.00, 
1614.00, 
1615.00, 
1616.00, 
1617.00, 
1618.00, 
1619.00, 
1620.00, 
1621.00, 
1622.00, 
1623.00, 
1624.00, 
1625.00, 
1626.00, 
1627.00, 
1628.00, 
1629.00, 
1630.00, 
1631.00, 
1632.00, 
1633.00, 
1634.00, 
1635.00, 
1636.00, 
1637.00, 
1638.00, 
1639.00, 
1640.00, 
1641.00, 
1642.00, 
1643.00, 
1644.00, 
1645.00, 
1646.00, 
1647.00, 
1648.00, 
1649.00, 
1650.00, 
1651.00, 
1652.00, 
1653.00, 
1654.00, 
1655.00, 
1656.00, 
1657.00, 
1658.00, 
1659.00, 
1660.00, 
1661.00, 
1662.00, 
1663.00, 
1664.00, 
1665.00, 
1666.00, 
1667.00, 
1668.00, 
1669.00, 
1670.00, 
1671.00, 
1672.00, 
1673.00, 
1674.00, 
1675.00, 
1676.00, 
1677.00, 
1678.00, 
1679.00, 
1680.00, 
1681.00, 
1682.00, 
1683.00, 
1684.00, 
1685.00, 
1686.00, 
1687.00, 
1688.00, 
1689.00, 
1690.00, 
1691.00, 
1692.00, 
1693.00, 
1694.00, 
1695.00, 
1696.00, 
1697.00, 
1698.00, 
1699.00, 
1700.00, 
1701.00, 
1702.00, 
1703.00, 
1704.00, 
1705.00, 
1706.00, 
1707.00, 
1708.00, 
1709.00, 
1710.00, 
1711.00, 
1712.00, 
1713.00, 
1714.00, 
1715.00, 
1716.00, 
1717.00, 
1718.00, 
1719.00, 
1720.00, 
1721.00, 
1722.00, 
1723.00, 
1724.00, 
1725.00, 
1726.00, 
1727.00, 
1728.00, 
1729.00, 
1730.00, 
1731.00, 
1732.00, 
1733.00, 
1734.00, 
1735.00, 
1736.00, 
1737.00, 
1738.00, 
1739.00, 
1740.00, 
1741.00, 
1742.00, 
1743.00, 
1744.00, 
1745.00, 
1746.00, 
1747.00, 
1748.00, 
1749.00, 
1750.00, 
1751.00, 
1752.00, 
1753.00, 
1754.00, 
1755.00, 
1756.00, 
1757.00, 
1758.00, 
1759.00, 
1760.00, 
1761.00, 
1762.00, 
1763.00, 
1764.00, 
1765.00, 
1766.00, 
1767.00, 
1768.00, 
1769.00, 
1770.00, 
1771.00, 
1772.00, 
1773.00, 
1774.00, 
1775.00, 
1776.00, 
1777.00, 
1778.00, 
1779.00, 
1780.00, 
1781.00, 
1782.00, 
1783.00, 
1784.00, 
1785.00, 
1786.00, 
1787.00, 
1788.00, 
1789.00, 
1790.00, 
1791.00, 
1792.00, 
1793.00, 
1794.00, 
1795.00, 
1796.00, 
1797.00, 
1798.00, 
1799.00, 
1800.00, 
1801.00, 
1802.00, 
1803.00, 
1804.00, 
1805.00, 
1806.00, 
1807.00, 
1808.00, 
1809.00, 
1810.00, 
1811.00, 
1812.00, 
1813.00, 
1814.00, 
1815.00, 
1816.00, 
1817.00, 
1818.00, 
1819.00, 
1820.00, 
1821.00, 
1822.00, 
1823.00, 
1824.00, 
1825.00, 
1826.00, 
1827.00, 
1828.00, 
1829.00, 
1830.00, 
1831.00, 
1832.00, 
1833.00, 
1834.00, 
1835.00, 
1836.00, 
1837.00, 
1838.00, 
1839.00, 
1840.00, 
1841.00, 
1842.00, 
1843.00, 
1844.00, 
1845.00, 
1846.00, 
1847.00, 
1848.00, 
1849.00, 
1850.00, 
1851.00, 
1852.00, 
1853.00, 
1854.00, 
1855.00, 
1856.00, 
1857.00, 
1858.00, 
1859.00, 
1860.00, 
1861.00, 
1862.00, 
1863.00, 
1864.00, 
1865.00, 
1866.00, 
1867.00, 
1868.00, 
1869.00, 
1870.00, 
1871.00, 
1872.00, 
1873.00, 
1874.00, 
1875.00, 
1876.00, 
1877.00, 
1878.00, 
1879.00, 
1880.00, 
1881.00, 
1882.00, 
1883.00, 
1884.00, 
1885.00, 
1886.00, 
1887.00, 
1888.00, 
1889.00, 
1890.00, 
1891.00, 
1892.00, 
1893.00, 
1894.00, 
1895.00, 
1896.00, 
1897.00, 
1898.00, 
1899.00, 
1900.00, 
1901.00, 
1902.00, 
1903.00, 
1904.00, 
1905.00, 
1906.00, 
1907.00, 
1908.00, 
1909.00, 
1910.00, 
1911.00, 
1912.00, 
1913.00, 
1914.00, 
1915.00, 
1916.00, 
1917.00, 
1918.00, 
1919.00, 
1920.00, 
1921.00, 
1922.00, 
1923.00, 
1924.00, 
1925.00, 
1926.00, 
1927.00, 
1928.00, 
1929.00, 
1930.00, 
1931.00, 
1932.00, 
1933.00, 
1934.00, 
1935.00, 
1936.00, 
1937.00, 
1938.00, 
1939.00, 
1940.00, 
1941.00, 
1942.00, 
1943.00, 
1944.00, 
1945.00, 
1946.00, 
1947.00, 
1948.00, 
1949.00, 
1950.00, 
1951.00, 
1952.00, 
1953.00, 
1954.00, 
1955.00, 
1956.00, 
1957.00, 
1958.00, 
1959.00, 
1960.00, 
1961.00, 
1962.00, 
1963.00, 
1964.00, 
1965.00, 
1966.00, 
1967.00, 
1968.00, 
1969.00, 
1970.00, 
1971.00, 
1972.00, 
1973.00, 
1974.00, 
1975.00, 
1976.00, 
1977.00, 
1978.00, 
1979.00, 
1980.00, 
1981.00, 
1982.00, 
1983.00, 
1984.00, 
1985.00, 
1986.00, 
1987.00, 
1988.00, 
1989.00, 
1990.00, 
1991.00, 
1992.00, 
1993.00, 
1994.00, 
1995.00, 
1996.00, 
1997.00, 
1998.00, 
1999.00, 
2000.00, 
2001.00, 
2002.00, 
2003.00, 
2004.00, 
2005.00, 
2006.00, 
2007.00, 
2008.00, 
2009.00, 
2010.00, 
2011.00, 
2012.00, 
2013.00, 
2014.00, 
2015.00, 
2016.00, 
2017.00, 
2018.00, 
2019.00, 
2020.00, 
2021.00, 
2022.00, 
2023.00, 
2024.00, 
2025.00, 
2026.00, 
2027.00, 
2028.00, 
2029.00, 
2030.00, 
2031.00, 
2032.00, 
2033.00, 
2034.00, 
2035.00, 
2036.00, 
2037.00, 
2038.00, 
2039.00, 
2040.00, 
2041.00, 
2042.00, 
2043.00, 
2044.00, 
2045.00, 
2046.00, 
2047.00, 
2048.00, 
2049.00, 
2050.00, 
2051.00, 
2052.00, 
2053.00, 
2054.00, 
2055.00, 
2056.00, 
2057.00, 
2058.00, 
2059.00, 
2060.00, 
2061.00, 
2062.00, 
2063.00, 
2064.00, 
2065.00, 
2066.00, 
2067.00, 
2068.00, 
2069.00, 
2070.00, 
2071.00, 
2072.00, 
2073.00, 
2074.00, 
2075.00, 
2076.00, 
2077.00, 
2078.00, 
2079.00, 
2080.00, 
2081.00, 
2082.00, 
2083.00, 
2084.00, 
2085.00, 
2086.00, 
2087.00, 
2088.00, 
2089.00, 
2090.00, 
2091.00, 
2092.00, 
2093.00, 
2094.00, 
2095.00, 
2096.00, 
2097.00, 
2098.00, 
2099.00, 
2100.00, 
2101.00, 
2102.00, 
2103.00, 
2104.00, 
2105.00, 
2106.00, 
2107.00, 
2108.00, 
2109.00, 
2110.00, 
2111.00, 
2112.00, 
2113.00, 
2114.00, 
2115.00, 
2116.00, 
2117.00, 
2118.00, 
2119.00, 
2120.00, 
2121.00, 
2122.00, 
2123.00, 
2124.00, 
2125.00, 
2126.00, 
2127.00, 
2128.00, 
2129.00, 
2130.00, 
2131.00, 
2132.00, 
2133.00, 
2134.00, 
2135.00, 
2136.00, 
2137.00, 
2138.00, 
2139.00, 
2140.00, 
2141.00, 
2142.00, 
2143.00, 
2144.00, 
2145.00, 
2146.00, 
2147.00, 
2148.00, 
2149.00, 
2150.00, 
2151.00, 
2152.00, 
2153.00, 
2154.00, 
2155.00, 
2156.00, 
2157.00, 
2158.00, 
2159.00, 
2160.00, 
2161.00, 
2162.00, 
2163.00, 
2164.00, 
2165.00, 
2166.00, 
2167.00, 
2168.00, 
2169.00, 
2170.00, 
2171.00, 
2172.00, 
2173.00, 
2174.00, 
2175.00, 
2176.00, 
2177.00, 
2178.00, 
2179.00, 
2180.00, 
2181.00, 
2182.00, 
2183.00, 
2184.00, 
2185.00, 
2186.00, 
2187.00, 
2188.00, 
2189.00, 
2190.00, 
2191.00, 
2192.00, 
2193.00, 
2194.00, 
2195.00, 
2196.00, 
2197.00, 
2198.00, 
2199.00, 
2200.00, 
2201.00, 
2202.00, 
2203.00, 
2204.00, 
2205.00, 
2206.00, 
2207.00, 
2208.00, 
2209.00, 
2210.00, 
2211.00, 
2212.00, 
2213.00, 
2214.00, 
2215.00, 
2216.00, 
2217.00, 
2218.00, 
2219.00, 
2220.00, 
2221.00, 
2222.00, 
2223.00, 
2224.00, 
2225.00, 
2226.00, 
2227.00, 
2228.00, 
2229.00, 
2230.00, 
2231.00, 
2232.00, 
2233.00, 
2234.00, 
2235.00, 
2236.00, 
2237.00, 
2238.00, 
2239.00, 
2240.00, 
2241.00, 
2242.00, 
2243.00, 
2244.00, 
2245.00, 
2246.00, 
2247.00, 
2248.00, 
2249.00, 
2250.00, 
2251.00, 
2252.00, 
2253.00, 
2254.00, 
2255.00, 
2256.00, 
2257.00, 
2258.00, 
2259.00, 
2260.00, 
2261.00, 
2262.00, 
2263.00, 
2264.00, 
2265.00, 
2266.00, 
2267.00, 
2268.00, 
2269.00, 
2270.00, 
2271.00, 
2272.00, 
2273.00, 
2274.00, 
2275.00, 
2276.00, 
2277.00, 
2278.00, 
2279.00, 
2280.00, 
2281.00, 
2282.00, 
2283.00, 
2284.00, 
2285.00, 
2286.00, 
2287.00, 
2288.00, 
2289.00, 
2290.00, 
2291.00, 
2292.00, 
2293.00, 
2294.00, 
2295.00, 
2296.00, 
2297.00, 
2298.00, 
2299.00, 
2300.00, 
2301.00, 
2302.00, 
2303.00, 
2304.00, 
2305.00, 
2306.00, 
2307.00, 
2308.00, 
2309.00, 
2310.00, 
2311.00, 
2312.00, 
2313.00, 
2314.00, 
2315.00, 
2316.00, 
2317.00, 
2318.00, 
2319.00, 
2320.00, 
2321.00, 
2322.00, 
2323.00, 
2324.00, 
2325.00, 
2326.00, 
2327.00, 
2328.00, 
2329.00, 
2330.00, 
2331.00, 
2332.00, 
2333.00, 
2334.00, 
2335.00, 
2336.00, 
2337.00, 
2338.00, 
2339.00, 
2340.00, 
2341.00, 
2342.00, 
2343.00, 
2344.00, 
2345.00, 
2346.00, 
2347.00, 
2348.00, 
2349.00, 
2350.00, 
2351.00, 
2352.00, 
2353.00, 
2354.00, 
2355.00, 
2356.00, 
2357.00, 
2358.00, 
2359.00, 
2360.00, 
2361.00, 
2362.00, 
2363.00, 
2364.00, 
2365.00, 
2366.00, 
2367.00, 
2368.00, 
2369.00, 
2370.00, 
2371.00, 
2372.00, 
2373.00, 
2374.00, 
2375.00, 
2376.00, 
2377.00, 
2378.00, 
2379.00, 
2380.00, 
2381.00, 
2382.00, 
2383.00, 
2384.00, 
2385.00, 
2386.00, 
2387.00, 
2388.00, 
2389.00, 
2390.00, 
2391.00, 
2392.00, 
2393.00, 
2394.00, 
2395.00, 
2396.00, 
2397.00, 
2398.00, 
2399.00, 
2400.00, 
2401.00, 
2402.00, 
2403.00, 
2404.00, 
2405.00, 
2406.00, 
2407.00, 
2408.00, 
2409.00, 
2410.00, 
2411.00, 
2412.00, 
2413.00, 
2414.00, 
2415.00, 
2416.00, 
2417.00, 
2418.00, 
2419.00, 
2420.00, 
2421.00, 
2422.00, 
2423.00, 
2424.00, 
2425.00, 
2426.00, 
2427.00, 
2428.00, 
2429.00, 
2430.00, 
2431.00, 
2432.00, 
2433.00, 
2434.00, 
2435.00, 
2436.00, 
2437.00, 
2438.00, 
2439.00, 
2440.00, 
2441.00, 
2442.00, 
2443.00, 
2444.00, 
2445.00, 
2446.00, 
2447.00, 
2448.00, 
2449.00, 
2450.00, 
2451.00, 
2452.00, 
2453.00, 
2454.00, 
2455.00, 
2456.00, 
2457.00, 
2458.00, 
2459.00, 
2460.00, 
2461.00, 
2462.00, 
2463.00, 
2464.00, 
2465.00, 
2466.00, 
2467.00, 
2468.00, 
2469.00, 
2470.00, 
2471.00, 
2472.00, 
2473.00, 
2474.00, 
2475.00, 
2476.00, 
2477.00, 
2478.00, 
2479.00, 
2480.00, 
2481.00, 
2482.00, 
2483.00, 
2484.00, 
2485.00, 
2486.00, 
2487.00, 
2488.00, 
2489.00, 
2490.00, 
2491.00, 
2492.00, 
2493.00, 
2494.00, 
2495.00, 
2496.00, 
2497.00, 
2498.00, 
2499.00, 
2500.00, 
2501.00, 
2502.00, 
2503.00, 
2504.00, 
2505.00, 
2506.00, 
2507.00, 
2508.00, 
2509.00, 
2510.00, 
2511.00, 
2512.00, 
2513.00, 
2514.00, 
2515.00, 
2516.00, 
2517.00, 
2518.00, 
2519.00, 
2520.00, 
2521.00, 
2522.00, 
2523.00, 
2524.00, 
2525.00, 
2526.00, 
2527.00, 
2528.00, 
2529.00, 
2530.00, 
2531.00, 
2532.00, 
2533.00, 
2534.00, 
2535.00, 
2536.00, 
2537.00, 
2538.00, 
2539.00, 
2540.00, 
2541.00, 
2542.00, 
2543.00, 
2544.00, 
2545.00, 
2546.00, 
2547.00, 
2548.00, 
2549.00, 
2550.00, 
2551.00, 
2552.00, 
2553.00, 
2554.00, 
2555.00, 
2556.00, 
2557.00, 
2558.00, 
2559.00, 
2560.00, 
2561.00, 
2562.00, 
2563.00, 
2564.00, 
2565.00, 
2566.00, 
2567.00, 
2568.00, 
2569.00, 
2570.00, 
2571.00, 
2572.00, 
2573.00, 
2574.00, 
2575.00, 
2576.00, 
2577.00, 
2578.00, 
2579.00, 
2580.00, 
2581.00, 
2582.00, 
2583.00, 
2584.00, 
2585.00, 
2586.00, 
2587.00, 
2588.00, 
2589.00, 
2590.00, 
2591.00, 
2592.00, 
2593.00, 
2594.00, 
2595.00, 
2596.00, 
2597.00, 
2598.00, 
2599.00, 
2600.00, 
