"2bP2 - RawData"
"Wavelength nm.","T%"
200.00,0.002
201.00,-0.000
202.00,0.005
203.00,0.001
204.00,0.001
205.00,-0.002
206.00,0.001
207.00,-0.000
208.00,0.000
209.00,0.003
210.00,0.003
211.00,-0.000
212.00,-0.000
213.00,0.000
214.00,-0.000
215.00,0.002
216.00,0.001
217.00,-0.000
218.00,-0.000
219.00,0.002
220.00,0.002
221.00,0.002
222.00,0.001
223.00,-0.000
224.00,0.001
225.00,-0.001
226.00,-0.000
227.00,-0.001
228.00,-0.000
229.00,-0.002
230.00,0.002
231.00,0.003
232.00,0.003
233.00,0.001
234.00,0.000
235.00,-0.001
236.00,0.000
237.00,-0.000
238.00,0.002
239.00,0.003
240.00,-0.001
241.00,-0.002
242.00,0.001
243.00,-0.000
244.00,0.001
245.00,-0.000
246.00,-0.001
247.00,0.001
248.00,0.000
249.00,0.000
250.00,0.000
251.00,0.001
252.00,0.001
253.00,0.001
254.00,0.002
255.00,0.000
256.00,0.000
257.00,-0.001
258.00,-0.001
259.00,-0.001
260.00,-0.000
261.00,0.001
262.00,-0.001
263.00,0.001
264.00,-0.001
265.00,0.002
266.00,0.001
267.00,-0.001
268.00,0.000
269.00,-0.001
270.00,0.001
271.00,-0.001
272.00,0.000
273.00,0.000
274.00,0.000
275.00,0.000
276.00,-0.001
277.00,0.001
278.00,-0.001
279.00,0.001
280.00,0.001
281.00,-0.001
282.00,0.002
283.00,0.001
284.00,-0.002
285.00,0.001
286.00,0.001
287.00,0.000
288.00,0.001
289.00,-0.001
290.00,-0.001
291.00,0.001
292.00,0.002
293.00,0.001
294.00,0.001
295.00,0.002
296.00,0.001
297.00,0.001
298.00,-0.000
299.00,0.001
300.00,0.003
301.00,0.003
302.00,0.007
303.00,0.008
304.00,0.014
305.00,0.021
306.00,0.031
307.00,0.048
308.00,0.076
309.00,0.114
310.00,0.159
311.00,0.216
312.00,0.288
313.00,0.383
314.00,0.504
315.00,0.650
316.00,0.815
317.00,1.032
318.00,1.275
319.00,1.536
320.00,1.843
321.00,2.207
322.00,2.601
323.00,3.050
324.00,3.525
325.00,3.990
326.00,4.479
327.00,5.041
328.00,5.623
329.00,6.188
330.00,6.813
331.00,7.389
332.00,8.000
333.00,8.675
334.00,9.278
335.00,9.930
336.00,10.535
337.00,11.207
338.00,11.790
339.00,12.370
340.00,12.948
341.00,13.521
342.00,14.012
343.00,14.505
344.00,14.993
345.00,15.499
346.00,15.963
347.00,16.333
348.00,16.734
349.00,17.106
350.00,17.440
351.00,17.736
352.00,18.018
353.00,18.329
354.00,18.566
355.00,18.850
356.00,19.073
357.00,19.251
358.00,19.458
359.00,19.690
360.00,19.835
361.00,19.958
362.00,20.112
363.00,20.197
364.00,20.289
365.00,20.409
366.00,20.479
367.00,20.546
368.00,20.553
369.00,20.598
370.00,20.617
371.00,20.662
372.00,20.680
373.00,20.651
374.00,20.647
375.00,20.627
376.00,20.569
377.00,20.542
378.00,20.447
379.00,20.412
380.00,20.391
381.00,20.363
382.00,20.372
383.00,20.351
384.00,20.358
385.00,20.390
386.00,20.351
387.00,20.431
388.00,20.445
389.00,20.420
390.00,20.439
391.00,20.471
392.00,20.491
393.00,20.464
394.00,20.477
395.00,20.473
396.00,20.487
397.00,20.471
398.00,20.456
399.00,20.485
400.00,20.458
401.00,20.443
402.00,20.446
403.00,20.418
404.00,20.417
405.00,20.403
406.00,20.379
407.00,20.378
408.00,20.360
409.00,20.304
410.00,20.257
411.00,20.260
412.00,20.277
413.00,20.294
414.00,20.280
415.00,20.309
416.00,20.281
417.00,20.272
418.00,20.286
419.00,20.365
420.00,20.395
421.00,20.450
422.00,20.451
423.00,20.488
424.00,20.502
425.00,20.502
426.00,20.560
427.00,20.604
428.00,20.643
429.00,20.681
430.00,20.748
431.00,20.782
432.00,20.826
433.00,20.887
434.00,20.944
435.00,21.002
436.00,21.054
437.00,21.147
438.00,21.195
439.00,21.275
440.00,21.346
441.00,21.425
442.00,21.524
443.00,21.574
444.00,21.708
445.00,21.780
446.00,21.855
447.00,21.964
448.00,22.048
449.00,22.168
450.00,22.284
451.00,22.349
452.00,22.483
453.00,22.592
454.00,22.691
455.00,22.799
456.00,22.903
457.00,23.035
458.00,23.138
459.00,23.231
460.00,23.387
461.00,23.514
462.00,23.613
463.00,23.753
464.00,23.882
465.00,23.987
466.00,24.153
467.00,24.274
468.00,24.347
469.00,24.465
470.00,24.640
471.00,24.636
472.00,24.846
473.00,24.932
474.00,25.067
475.00,25.208
476.00,25.287
477.00,25.432
478.00,25.481
479.00,25.727
480.00,25.847
481.00,25.992
482.00,26.175
483.00,26.301
484.00,26.426
485.00,26.585
486.00,26.748
487.00,26.943
488.00,27.066
489.00,27.251
490.00,27.398
491.00,27.517
492.00,27.726
493.00,27.909
494.00,27.831
495.00,28.001
496.00,28.115
497.00,28.254
498.00,28.471
499.00,28.616
500.00,28.767
501.00,28.852
502.00,29.050
503.00,29.150
504.00,29.256
505.00,29.379
506.00,29.534
507.00,29.600
508.00,29.725
509.00,29.900
510.00,30.024
511.00,30.109
512.00,30.299
513.00,30.410
514.00,30.536
515.00,30.687
516.00,30.799
517.00,30.892
518.00,31.012
519.00,31.087
520.00,31.163
521.00,31.242
522.00,31.333
523.00,31.361
524.00,31.542
525.00,31.636
526.00,31.691
527.00,31.792
528.00,31.847
529.00,32.070
530.00,32.235
531.00,32.339
532.00,32.397
533.00,32.526
534.00,32.575
535.00,32.664
536.00,32.787
537.00,32.893
538.00,32.932
539.00,32.950
540.00,33.082
541.00,33.102
542.00,33.206
543.00,33.251
544.00,33.351
545.00,33.423
546.00,33.458
547.00,33.609
548.00,33.711
549.00,33.747
550.00,33.830
551.00,33.948
552.00,33.994
553.00,34.043
554.00,34.137
555.00,34.132
556.00,34.193
557.00,34.294
558.00,34.360
559.00,34.423
560.00,34.489
561.00,34.534
562.00,34.619
563.00,34.674
564.00,34.715
565.00,34.741
566.00,34.749
567.00,34.872
568.00,34.846
569.00,34.945
570.00,34.982
571.00,35.001
572.00,35.044
573.00,35.028
574.00,35.103
575.00,35.078
576.00,35.115
577.00,35.190
578.00,35.295
579.00,35.350
580.00,35.395
581.00,35.552
582.00,35.606
583.00,35.605
584.00,35.715
585.00,35.781
586.00,35.822
587.00,35.875
588.00,35.932
589.00,35.930
590.00,35.998
591.00,36.070
592.00,36.013
593.00,36.106
594.00,36.208
595.00,36.320
596.00,36.338
597.00,36.367
598.00,36.429
599.00,36.415
600.00,36.477
601.00,36.543
602.00,36.567
603.00,36.659
604.00,36.696
605.00,36.704
606.00,36.713
607.00,36.780
608.00,36.959
609.00,37.063
610.00,36.864
611.00,37.026
612.00,37.063
613.00,37.097
614.00,37.150
615.00,37.250
616.00,37.331
617.00,37.358
618.00,37.354
619.00,37.464
620.00,37.473
621.00,37.519
622.00,37.624
623.00,37.699
624.00,37.777
625.00,37.870
626.00,37.883
627.00,37.936
628.00,38.005
629.00,38.050
630.00,38.126
631.00,38.194
632.00,38.257
633.00,38.377
634.00,38.463
635.00,38.560
636.00,38.654
637.00,38.659
638.00,38.714
639.00,38.907
640.00,38.894
641.00,38.886
642.00,38.967
643.00,39.094
644.00,39.219
645.00,39.242
646.00,39.392
647.00,39.513
648.00,39.578
649.00,39.617
650.00,39.649
651.00,39.799
652.00,39.901
653.00,39.918
654.00,39.991
655.00,40.250
656.00,40.441
657.00,40.224
658.00,40.571
659.00,40.576
660.00,40.551
661.00,40.696
662.00,40.799
663.00,40.884
664.00,41.204
665.00,41.356
666.00,41.274
667.00,41.358
668.00,41.368
669.00,41.585
670.00,41.851
671.00,41.877
672.00,42.026
673.00,41.936
674.00,42.108
675.00,42.233
676.00,42.367
677.00,42.492
678.00,42.408
679.00,42.662
680.00,42.668
681.00,42.849
682.00,42.893
683.00,42.935
684.00,43.084
685.00,43.220
686.00,43.158
687.00,43.106
688.00,43.447
689.00,43.629
690.00,43.716
691.00,44.015
692.00,43.873
693.00,43.836
694.00,44.035
695.00,44.163
696.00,44.299
697.00,44.282
698.00,44.457
699.00,44.736
700.00,44.702
701.00,44.679
702.00,44.889
703.00,45.068
704.00,45.074
705.00,45.060
706.00,45.244
707.00,45.235
708.00,45.353
709.00,45.898
710.00,45.599
711.00,45.628
712.00,45.652
713.00,45.855
714.00,46.009
715.00,45.918
716.00,45.993
717.00,46.091
718.00,46.326
719.00,46.272
720.00,46.393
721.00,50.795
722.00,50.778
723.00,50.745
724.00,50.754
725.00,50.954
726.00,50.938
727.00,51.011
728.00,50.957
729.00,51.067
730.00,51.099
731.00,51.138
732.00,51.119
733.00,51.296
734.00,51.303
735.00,51.293
736.00,51.364
737.00,51.351
738.00,51.567
739.00,51.446
740.00,51.565
741.00,51.689
742.00,51.724
743.00,51.600
744.00,51.597
745.00,51.644
746.00,51.716
747.00,51.639
748.00,51.754
749.00,51.695
750.00,51.720
751.00,51.747
752.00,51.765
753.00,51.844
754.00,51.870
755.00,51.827
756.00,51.770
757.00,51.838
758.00,51.995
759.00,51.946
760.00,51.960
761.00,51.969
762.00,51.960
763.00,52.025
764.00,51.974
765.00,52.066
766.00,52.054
767.00,52.031
768.00,52.131
769.00,52.171
770.00,52.223
771.00,52.232
772.00,52.179
773.00,52.227
774.00,52.326
775.00,52.234
776.00,52.288
777.00,52.302
778.00,52.265
779.00,52.369
780.00,52.254
781.00,52.334
782.00,52.364
783.00,52.260
784.00,52.368
785.00,52.313
786.00,52.306
787.00,52.300
788.00,52.387
789.00,52.226
790.00,52.312
791.00,52.349
792.00,52.287
793.00,52.292
794.00,52.329
795.00,52.342
796.00,52.347
797.00,52.306
798.00,52.345
799.00,52.237
800.00,52.270
801.00,52.247
802.00,52.301
803.00,52.224
804.00,52.237
805.00,52.208
806.00,52.257
807.00,52.251
808.00,52.216
809.00,52.266
810.00,52.137
811.00,52.283
812.00,52.233
813.00,52.178
814.00,52.200
815.00,52.225
816.00,52.225
817.00,52.144
818.00,52.078
819.00,52.193
820.00,52.019
821.00,52.086
822.00,52.014
823.00,51.986
824.00,52.124
825.00,51.833
826.00,52.059
827.00,52.059
828.00,52.114
829.00,52.050
830.00,52.042
831.00,54.439
832.00,54.478
833.00,54.350
834.00,54.398
835.00,54.384
836.00,54.443
837.00,54.417
838.00,54.358
839.00,54.371
840.00,54.307
841.00,54.355
842.00,54.316
843.00,54.320
844.00,54.256
845.00,54.228
846.00,54.307
847.00,54.219
848.00,54.253
849.00,54.159
850.00,54.145
851.00,54.092
852.00,54.109
853.00,54.048
854.00,54.030
855.00,53.975
856.00,53.987
857.00,54.121
858.00,53.963
859.00,53.909
860.00,53.958
861.00,53.942
862.00,53.912
863.00,53.936
864.00,53.840
865.00,53.909
866.00,53.865
867.00,53.863
868.00,53.876
869.00,53.840
870.00,53.852
871.00,53.836
872.00,53.854
873.00,53.813
874.00,53.816
875.00,53.756
876.00,53.798
877.00,53.763
878.00,53.766
879.00,53.757
880.00,53.774
881.00,53.718
882.00,53.752
883.00,53.699
884.00,53.680
885.00,53.654
886.00,53.640
887.00,53.648
888.00,53.620
889.00,53.586
890.00,53.606
891.00,53.538
892.00,53.527
893.00,53.533
894.00,53.530
895.00,53.502
896.00,53.481
897.00,53.461
898.00,53.452
899.00,53.472
900.00,53.407
901.00,53.400
902.00,53.414
903.00,53.344
904.00,53.339
905.00,53.327
906.00,53.314
907.00,53.314
908.00,53.243
909.00,53.263
910.00,53.250
911.00,53.239
912.00,53.238
913.00,53.185
914.00,53.179
915.00,53.152
916.00,53.117
917.00,53.133
918.00,53.104
919.00,53.099
920.00,53.047
921.00,53.058
922.00,53.058
923.00,53.032
924.00,53.024
925.00,53.017
926.00,52.979
927.00,52.965
928.00,52.913
929.00,52.943
930.00,52.907
931.00,52.896
932.00,52.850
933.00,52.898
934.00,52.842
935.00,52.805
936.00,52.804
937.00,52.763
938.00,52.772
939.00,52.757
940.00,52.733
941.00,52.726
942.00,52.669
943.00,52.695
944.00,52.643
945.00,52.669
946.00,52.659
947.00,52.611
948.00,52.591
949.00,52.553
950.00,52.548
951.00,52.522
952.00,52.530
953.00,52.468
954.00,52.447
955.00,52.411
956.00,52.404
957.00,52.384
958.00,52.388
959.00,52.325
960.00,52.320
961.00,52.309
962.00,52.310
963.00,52.270
964.00,52.267
965.00,52.241
966.00,52.245
967.00,52.239
968.00,52.197
969.00,52.258
970.00,52.202
971.00,52.235
972.00,52.196
973.00,52.221
974.00,52.246
975.00,52.193
976.00,52.199
977.00,52.186
978.00,52.229
979.00,52.203
980.00,52.222
981.00,52.208
982.00,52.170
983.00,52.222
984.00,52.189
985.00,52.231
986.00,52.185
987.00,52.194
988.00,52.197
989.00,52.137
990.00,52.155
991.00,52.128
992.00,52.151
993.00,52.114
994.00,52.096
995.00,52.072
996.00,52.084
997.00,52.087
998.00,52.042
999.00,52.074
1000.00,52.006
1001.00,52.031
1002.00,51.999
1003.00,51.977
1004.00,52.016
1005.00,51.936
1006.00,51.961
1007.00,51.931
1008.00,51.931
1009.00,51.903
1010.00,51.906
1011.00,51.909
1012.00,51.876
1013.00,51.879
1014.00,51.823
1015.00,51.856
1016.00,51.809
1017.00,51.796
1018.00,51.813
1019.00,51.765
1020.00,51.763
1021.00,51.743
1022.00,51.733
1023.00,51.685
1024.00,51.692
1025.00,51.672
1026.00,51.656
1027.00,51.641
1028.00,51.617
1029.00,51.615
1030.00,51.581
1031.00,51.587
1032.00,51.566
1033.00,51.562
1034.00,51.558
1035.00,51.515
1036.00,51.480
1037.00,51.469
1038.00,51.456
1039.00,51.410
1040.00,51.422
1041.00,51.384
1042.00,51.369
1043.00,51.355
1044.00,51.388
1045.00,51.374
1046.00,51.372
1047.00,51.374
1048.00,51.385
1049.00,51.400
1050.00,51.375
1051.00,51.433
1052.00,51.424
1053.00,51.411
1054.00,51.423
1055.00,51.457
1056.00,51.459
1057.00,51.452
1058.00,51.441
1059.00,51.419
1060.00,51.439
1061.00,51.407
1062.00,51.418
1063.00,51.423
1064.00,51.440
1065.00,51.441
1066.00,51.384
1067.00,51.388
1068.00,51.419
1069.00,51.379
1070.00,51.372
1071.00,51.356
1072.00,51.349
1073.00,51.334
1074.00,51.329
1075.00,51.288
1076.00,51.342
1077.00,51.320
1078.00,51.290
1079.00,51.304
1080.00,51.285
1081.00,51.278
1082.00,51.271
1083.00,51.264
1084.00,51.277
1085.00,51.278
1086.00,51.241
1087.00,51.247
1088.00,51.217
1089.00,51.209
1090.00,51.216
1091.00,51.201
1092.00,51.187
1093.00,51.189
1094.00,51.157
1095.00,51.145
1096.00,51.124
1097.00,51.124
1098.00,51.132
1099.00,51.113
1100.00,51.106
1101.00,51.100
1102.00,51.089
1103.00,51.094
1104.00,51.077
1105.00,51.060
1106.00,51.059
1107.00,51.069
1108.00,51.046
1109.00,51.060
1110.00,51.048
1111.00,51.028
1112.00,51.013
1113.00,50.990
1114.00,50.981
1115.00,50.981
1116.00,50.949
1117.00,50.946
1118.00,50.940
1119.00,50.947
1120.00,50.952
1121.00,50.955
1122.00,50.937
1123.00,50.939
1124.00,50.921
1125.00,50.935
1126.00,50.941
1127.00,50.901
1128.00,50.903
1129.00,50.874
1130.00,50.860
1131.00,50.876
1132.00,50.851
1133.00,50.856
1134.00,50.842
1135.00,50.861
1136.00,50.845
1137.00,50.850
1138.00,50.849
1139.00,50.871
1140.00,50.837
1141.00,50.818
1142.00,50.814
1143.00,50.810
1144.00,50.790
1145.00,50.795
1146.00,50.781
1147.00,50.785
1148.00,50.776
1149.00,50.776
1150.00,50.779
1151.00,50.783
1152.00,50.760
1153.00,50.772
1154.00,50.757
1155.00,50.755
1156.00,50.747
1157.00,50.742
1158.00,50.732
1159.00,50.727
1160.00,50.718
1161.00,50.743
1162.00,50.738
1163.00,50.727
1164.00,50.738
1165.00,50.726
1166.00,50.742
1167.00,50.726
1168.00,50.737
1169.00,50.725
1170.00,50.745
1171.00,50.712
1172.00,50.724
1173.00,50.714
1174.00,50.697
1175.00,50.710
1176.00,50.705
1177.00,50.695
1178.00,50.696
1179.00,50.695
1180.00,50.685
1181.00,50.716
1182.00,50.688
1183.00,50.689
1184.00,50.701
1185.00,50.705
1186.00,50.703
1187.00,50.683
1188.00,50.674
1189.00,50.677
1190.00,50.668
1191.00,50.657
1192.00,50.683
1193.00,50.658
1194.00,50.684
1195.00,50.653
1196.00,50.680
1197.00,50.692
1198.00,50.659
1199.00,50.661
1200.00,50.675
1201.00,50.692
1202.00,50.663
1203.00,50.660
1204.00,50.637
1205.00,50.664
1206.00,50.649
1207.00,50.656
1208.00,50.660
1209.00,50.646
1210.00,50.655
1211.00,50.660
1212.00,50.671
1213.00,50.636
1214.00,50.671
1215.00,50.630
1216.00,50.655
1217.00,50.676
1218.00,50.633
1219.00,50.657
1220.00,50.643
1221.00,50.653
1222.00,50.645
1223.00,50.651
1224.00,50.647
1225.00,50.638
1226.00,50.630
1227.00,50.644
1228.00,50.651
1229.00,50.631
1230.00,50.664
1231.00,50.656
1232.00,50.691
1233.00,50.691
1234.00,50.676
1235.00,50.673
1236.00,50.674
1237.00,50.671
1238.00,50.692
1239.00,50.701
1240.00,50.665
1241.00,50.695
1242.00,50.690
1243.00,50.699
1244.00,50.682
1245.00,50.701
1246.00,50.705
1247.00,50.691
1248.00,50.671
1249.00,50.692
1250.00,50.697
1251.00,50.668
1252.00,50.703
1253.00,50.693
1254.00,50.721
1255.00,50.718
1256.00,50.691
1257.00,50.691
1258.00,50.737
1259.00,50.719
1260.00,50.762
1261.00,50.759
1262.00,50.736
1263.00,50.743
1264.00,50.737
1265.00,50.731
1266.00,50.729
1267.00,50.747
1268.00,50.753
1269.00,50.752
1270.00,50.754
1271.00,50.774
1272.00,50.771
1273.00,50.780
1274.00,50.783
1275.00,50.774
1276.00,50.782
1277.00,50.794
1278.00,50.802
1279.00,50.798
1280.00,50.791
1281.00,50.795
1282.00,50.810
1283.00,50.800
1284.00,50.808
1285.00,50.795
1286.00,50.818
1287.00,50.815
1288.00,50.828
1289.00,50.812
1290.00,50.856
1291.00,50.838
1292.00,50.818
1293.00,50.847
1294.00,50.864
1295.00,50.851
1296.00,50.859
1297.00,50.873
1298.00,50.903
1299.00,50.887
1300.00,50.891
1301.00,50.880
1302.00,50.901
1303.00,50.891
1304.00,50.890
1305.00,50.906
1306.00,50.905
1307.00,50.927
1308.00,50.907
1309.00,50.920
1310.00,50.912
1311.00,50.900
1312.00,50.907
1313.00,50.929
1314.00,50.926
1315.00,50.941
1316.00,50.946
1317.00,50.977
1318.00,50.984
1319.00,50.966
1320.00,50.978
1321.00,51.140
1322.00,51.117
1323.00,51.130
1324.00,51.115
1325.00,51.104
1326.00,51.123
1327.00,51.103
1328.00,51.103
1329.00,51.093
1330.00,51.093
1331.00,51.090
1332.00,51.106
1333.00,51.091
1334.00,51.128
1335.00,51.178
1336.00,51.212
1337.00,51.201
1338.00,51.276
1339.00,51.324
1340.00,51.383
1341.00,51.433
1342.00,51.503
1343.00,51.547
1344.00,51.595
1345.00,51.673
1346.00,51.699
1347.00,51.719
1348.00,51.745
1349.00,51.751
1350.00,51.758
1351.00,51.778
1352.00,51.792
1353.00,51.790
1354.00,51.822
1355.00,51.747
1356.00,51.850
1357.00,51.829
1358.00,51.811
1359.00,51.858
1360.00,51.786
1361.00,51.830
1362.00,51.813
1363.00,51.893
1364.00,51.948
1365.00,51.819
1366.00,51.842
1367.00,51.842
1368.00,51.760
1369.00,51.819
1370.00,51.835
1371.00,51.740
1372.00,51.796
1373.00,51.813
1374.00,51.810
1375.00,51.795
1376.00,51.792
1377.00,51.791
1378.00,51.799
1379.00,51.812
1380.00,51.790
1381.00,51.821
1382.00,51.843
1383.00,51.792
1384.00,51.766
1385.00,51.793
1386.00,51.823
1387.00,51.772
1388.00,51.733
1389.00,51.787
1390.00,51.784
1391.00,51.760
1392.00,51.741
1393.00,51.705
1394.00,51.772
1395.00,51.810
1396.00,51.718
1397.00,51.706
1398.00,51.837
1399.00,51.801
1400.00,51.740
1401.00,51.745
1402.00,51.755
1403.00,51.797
1404.00,51.769
1405.00,51.823
1406.00,51.823
1407.00,51.819
1408.00,51.873
1409.00,51.766
1410.00,51.833
1411.00,51.785
1412.00,51.794
1413.00,51.815
1414.00,51.844
1415.00,51.872
1416.00,51.864
1417.00,51.915
1418.00,51.888
1419.00,51.895
1420.00,51.930
1421.00,51.944
1422.00,51.938
1423.00,51.961
1424.00,51.959
1425.00,51.978
1426.00,51.960
1427.00,51.997
1428.00,51.993
1429.00,52.008
1430.00,52.019
1431.00,52.065
1432.00,52.049
1433.00,52.072
1434.00,52.073
1435.00,52.100
1436.00,52.122
1437.00,52.109
1438.00,52.140
1439.00,52.174
1440.00,52.161
1441.00,52.185
1442.00,52.194
1443.00,52.252
1444.00,52.316
1445.00,52.217
1446.00,52.235
1447.00,52.274
1448.00,52.298
1449.00,52.290
1450.00,52.302
1451.00,52.316
1452.00,52.336
1453.00,52.342
1454.00,52.342
1455.00,52.376
1456.00,52.391
1457.00,52.389
1458.00,52.429
1459.00,52.438
1460.00,52.475
1461.00,52.469
1462.00,52.498
1463.00,52.506
1464.00,52.526
1465.00,52.526
1466.00,52.526
1467.00,52.570
1468.00,52.602
1469.00,52.574
1470.00,52.578
1471.00,52.598
1472.00,52.639
1473.00,52.612
1474.00,52.651
1475.00,52.679
1476.00,52.666
1477.00,52.677
1478.00,52.712
1479.00,52.702
1480.00,52.699
1481.00,52.706
1482.00,52.737
1483.00,52.747
1484.00,52.750
1485.00,52.752
1486.00,52.766
1487.00,52.782
1488.00,52.815
1489.00,52.814
1490.00,52.816
1491.00,52.825
1492.00,52.845
1493.00,52.829
1494.00,52.865
1495.00,52.854
1496.00,52.874
1497.00,52.878
1498.00,52.862
1499.00,52.891
1500.00,52.913
1501.00, 
1502.00, 
1503.00, 
1504.00, 
1505.00, 
1506.00, 
1507.00, 
1508.00, 
1509.00, 
1510.00, 
1511.00, 
1512.00, 
1513.00, 
1514.00, 
1515.00, 
1516.00, 
1517.00, 
1518.00, 
1519.00, 
1520.00, 
1521.00, 
1522.00, 
1523.00, 
1524.00, 
1525.00, 
1526.00, 
1527.00, 
1528.00, 
1529.00, 
1530.00, 
1531.00, 
1532.00, 
1533.00, 
1534.00, 
1535.00, 
1536.00, 
1537.00, 
1538.00, 
1539.00, 
1540.00, 
1541.00, 
1542.00, 
1543.00, 
1544.00, 
1545.00, 
1546.00, 
1547.00, 
1548.00, 
1549.00, 
1550.00, 
1551.00, 
1552.00, 
1553.00, 
1554.00, 
1555.00, 
1556.00, 
1557.00, 
1558.00, 
1559.00, 
1560.00, 
1561.00, 
1562.00, 
1563.00, 
1564.00, 
1565.00, 
1566.00, 
1567.00, 
1568.00, 
1569.00, 
1570.00, 
1571.00, 
1572.00, 
1573.00, 
1574.00, 
1575.00, 
1576.00, 
1577.00, 
1578.00, 
1579.00, 
1580.00, 
1581.00, 
1582.00, 
1583.00, 
1584.00, 
1585.00, 
1586.00, 
1587.00, 
1588.00, 
1589.00, 
1590.00, 
1591.00, 
1592.00, 
1593.00, 
1594.00, 
1595.00, 
1596.00, 
1597.00, 
1598.00, 
1599.00, 
1600.00, 
1601.00, 
1602.00, 
1603.00, 
1604.00, 
1605.00, 
1606.00, 
1607.00, 
1608.00, 
1609.00, 
1610.00, 
1611.00, 
1612.00, 
1613.00, 
1614.00, 
1615.00, 
1616.00, 
1617.00, 
1618.00, 
1619.00, 
1620.00, 
1621.00, 
1622.00, 
1623.00, 
1624.00, 
1625.00, 
1626.00, 
1627.00, 
1628.00, 
1629.00, 
1630.00, 
1631.00, 
1632.00, 
1633.00, 
1634.00, 
1635.00, 
1636.00, 
1637.00, 
1638.00, 
1639.00, 
1640.00, 
1641.00, 
1642.00, 
1643.00, 
1644.00, 
1645.00, 
1646.00, 
1647.00, 
1648.00, 
1649.00, 
1650.00, 
1651.00, 
1652.00, 
1653.00, 
1654.00, 
1655.00, 
1656.00, 
1657.00, 
1658.00, 
1659.00, 
1660.00, 
1661.00, 
1662.00, 
1663.00, 
1664.00, 
1665.00, 
1666.00, 
1667.00, 
1668.00, 
1669.00, 
1670.00, 
1671.00, 
1672.00, 
1673.00, 
1674.00, 
1675.00, 
1676.00, 
1677.00, 
1678.00, 
1679.00, 
1680.00, 
1681.00, 
1682.00, 
1683.00, 
1684.00, 
1685.00, 
1686.00, 
1687.00, 
1688.00, 
1689.00, 
1690.00, 
1691.00, 
1692.00, 
1693.00, 
1694.00, 
1695.00, 
1696.00, 
1697.00, 
1698.00, 
1699.00, 
1700.00, 
1701.00, 
1702.00, 
1703.00, 
1704.00, 
1705.00, 
1706.00, 
1707.00, 
1708.00, 
1709.00, 
1710.00, 
1711.00, 
1712.00, 
1713.00, 
1714.00, 
1715.00, 
1716.00, 
1717.00, 
1718.00, 
1719.00, 
1720.00, 
1721.00, 
1722.00, 
1723.00, 
1724.00, 
1725.00, 
1726.00, 
1727.00, 
1728.00, 
1729.00, 
1730.00, 
1731.00, 
1732.00, 
1733.00, 
1734.00, 
1735.00, 
1736.00, 
1737.00, 
1738.00, 
1739.00, 
1740.00, 
1741.00, 
1742.00, 
1743.00, 
1744.00, 
1745.00, 
1746.00, 
1747.00, 
1748.00, 
1749.00, 
1750.00, 
1751.00, 
1752.00, 
1753.00, 
1754.00, 
1755.00, 
1756.00, 
1757.00, 
1758.00, 
1759.00, 
1760.00, 
1761.00, 
1762.00, 
1763.00, 
1764.00, 
1765.00, 
1766.00, 
1767.00, 
1768.00, 
1769.00, 
1770.00, 
1771.00, 
1772.00, 
1773.00, 
1774.00, 
1775.00, 
1776.00, 
1777.00, 
1778.00, 
1779.00, 
1780.00, 
1781.00, 
1782.00, 
1783.00, 
1784.00, 
1785.00, 
1786.00, 
1787.00, 
1788.00, 
1789.00, 
1790.00, 
1791.00, 
1792.00, 
1793.00, 
1794.00, 
1795.00, 
1796.00, 
1797.00, 
1798.00, 
1799.00, 
1800.00, 
1801.00, 
1802.00, 
1803.00, 
1804.00, 
1805.00, 
1806.00, 
1807.00, 
1808.00, 
1809.00, 
1810.00, 
1811.00, 
1812.00, 
1813.00, 
1814.00, 
1815.00, 
1816.00, 
1817.00, 
1818.00, 
1819.00, 
1820.00, 
1821.00, 
1822.00, 
1823.00, 
1824.00, 
1825.00, 
1826.00, 
1827.00, 
1828.00, 
1829.00, 
1830.00, 
1831.00, 
1832.00, 
1833.00, 
1834.00, 
1835.00, 
1836.00, 
1837.00, 
1838.00, 
1839.00, 
1840.00, 
1841.00, 
1842.00, 
1843.00, 
1844.00, 
1845.00, 
1846.00, 
1847.00, 
1848.00, 
1849.00, 
1850.00, 
1851.00, 
1852.00, 
1853.00, 
1854.00, 
1855.00, 
1856.00, 
1857.00, 
1858.00, 
1859.00, 
1860.00, 
1861.00, 
1862.00, 
1863.00, 
1864.00, 
1865.00, 
1866.00, 
1867.00, 
1868.00, 
1869.00, 
1870.00, 
1871.00, 
1872.00, 
1873.00, 
1874.00, 
1875.00, 
1876.00, 
1877.00, 
1878.00, 
1879.00, 
1880.00, 
1881.00, 
1882.00, 
1883.00, 
1884.00, 
1885.00, 
1886.00, 
1887.00, 
1888.00, 
1889.00, 
1890.00, 
1891.00, 
1892.00, 
1893.00, 
1894.00, 
1895.00, 
1896.00, 
1897.00, 
1898.00, 
1899.00, 
1900.00, 
1901.00, 
1902.00, 
1903.00, 
1904.00, 
1905.00, 
1906.00, 
1907.00, 
1908.00, 
1909.00, 
1910.00, 
1911.00, 
1912.00, 
1913.00, 
1914.00, 
1915.00, 
1916.00, 
1917.00, 
1918.00, 
1919.00, 
1920.00, 
1921.00, 
1922.00, 
1923.00, 
1924.00, 
1925.00, 
1926.00, 
1927.00, 
1928.00, 
1929.00, 
1930.00, 
1931.00, 
1932.00, 
1933.00, 
1934.00, 
1935.00, 
1936.00, 
1937.00, 
1938.00, 
1939.00, 
1940.00, 
1941.00, 
1942.00, 
1943.00, 
1944.00, 
1945.00, 
1946.00, 
1947.00, 
1948.00, 
1949.00, 
1950.00, 
1951.00, 
1952.00, 
1953.00, 
1954.00, 
1955.00, 
1956.00, 
1957.00, 
1958.00, 
1959.00, 
1960.00, 
1961.00, 
1962.00, 
1963.00, 
1964.00, 
1965.00, 
1966.00, 
1967.00, 
1968.00, 
1969.00, 
1970.00, 
1971.00, 
1972.00, 
1973.00, 
1974.00, 
1975.00, 
1976.00, 
1977.00, 
1978.00, 
1979.00, 
1980.00, 
1981.00, 
1982.00, 
1983.00, 
1984.00, 
1985.00, 
1986.00, 
1987.00, 
1988.00, 
1989.00, 
1990.00, 
1991.00, 
1992.00, 
1993.00, 
1994.00, 
1995.00, 
1996.00, 
1997.00, 
1998.00, 
1999.00, 
2000.00, 
2001.00, 
2002.00, 
2003.00, 
2004.00, 
2005.00, 
2006.00, 
2007.00, 
2008.00, 
2009.00, 
2010.00, 
2011.00, 
2012.00, 
2013.00, 
2014.00, 
2015.00, 
2016.00, 
2017.00, 
2018.00, 
2019.00, 
2020.00, 
2021.00, 
2022.00, 
2023.00, 
2024.00, 
2025.00, 
2026.00, 
2027.00, 
2028.00, 
2029.00, 
2030.00, 
2031.00, 
2032.00, 
2033.00, 
2034.00, 
2035.00, 
2036.00, 
2037.00, 
2038.00, 
2039.00, 
2040.00, 
2041.00, 
2042.00, 
2043.00, 
2044.00, 
2045.00, 
2046.00, 
2047.00, 
2048.00, 
2049.00, 
2050.00, 
2051.00, 
2052.00, 
2053.00, 
2054.00, 
2055.00, 
2056.00, 
2057.00, 
2058.00, 
2059.00, 
2060.00, 
2061.00, 
2062.00, 
2063.00, 
2064.00, 
2065.00, 
2066.00, 
2067.00, 
2068.00, 
2069.00, 
2070.00, 
2071.00, 
2072.00, 
2073.00, 
2074.00, 
2075.00, 
2076.00, 
2077.00, 
2078.00, 
2079.00, 
2080.00, 
2081.00, 
2082.00, 
2083.00, 
2084.00, 
2085.00, 
2086.00, 
2087.00, 
2088.00, 
2089.00, 
2090.00, 
2091.00, 
2092.00, 
2093.00, 
2094.00, 
2095.00, 
2096.00, 
2097.00, 
2098.00, 
2099.00, 
2100.00, 
2101.00, 
2102.00, 
2103.00, 
2104.00, 
2105.00, 
2106.00, 
2107.00, 
2108.00, 
2109.00, 
2110.00, 
2111.00, 
2112.00, 
2113.00, 
2114.00, 
2115.00, 
2116.00, 
2117.00, 
2118.00, 
2119.00, 
2120.00, 
2121.00, 
2122.00, 
2123.00, 
2124.00, 
2125.00, 
2126.00, 
2127.00, 
2128.00, 
2129.00, 
2130.00, 
2131.00, 
2132.00, 
2133.00, 
2134.00, 
2135.00, 
2136.00, 
2137.00, 
2138.00, 
2139.00, 
2140.00, 
2141.00, 
2142.00, 
2143.00, 
2144.00, 
2145.00, 
2146.00, 
2147.00, 
2148.00, 
2149.00, 
2150.00, 
2151.00, 
2152.00, 
2153.00, 
2154.00, 
2155.00, 
2156.00, 
2157.00, 
2158.00, 
2159.00, 
2160.00, 
2161.00, 
2162.00, 
2163.00, 
2164.00, 
2165.00, 
2166.00, 
2167.00, 
2168.00, 
2169.00, 
2170.00, 
2171.00, 
2172.00, 
2173.00, 
2174.00, 
2175.00, 
2176.00, 
2177.00, 
2178.00, 
2179.00, 
2180.00, 
2181.00, 
2182.00, 
2183.00, 
2184.00, 
2185.00, 
2186.00, 
2187.00, 
2188.00, 
2189.00, 
2190.00, 
2191.00, 
2192.00, 
2193.00, 
2194.00, 
2195.00, 
2196.00, 
2197.00, 
2198.00, 
2199.00, 
2200.00, 
2201.00, 
2202.00, 
2203.00, 
2204.00, 
2205.00, 
2206.00, 
2207.00, 
2208.00, 
2209.00, 
2210.00, 
2211.00, 
2212.00, 
2213.00, 
2214.00, 
2215.00, 
2216.00, 
2217.00, 
2218.00, 
2219.00, 
2220.00, 
2221.00, 
2222.00, 
2223.00, 
2224.00, 
2225.00, 
2226.00, 
2227.00, 
2228.00, 
2229.00, 
2230.00, 
2231.00, 
2232.00, 
2233.00, 
2234.00, 
2235.00, 
2236.00, 
2237.00, 
2238.00, 
2239.00, 
2240.00, 
2241.00, 
2242.00, 
2243.00, 
2244.00, 
2245.00, 
2246.00, 
2247.00, 
2248.00, 
2249.00, 
2250.00, 
2251.00, 
2252.00, 
2253.00, 
2254.00, 
2255.00, 
2256.00, 
2257.00, 
2258.00, 
2259.00, 
2260.00, 
2261.00, 
2262.00, 
2263.00, 
2264.00, 
2265.00, 
2266.00, 
2267.00, 
2268.00, 
2269.00, 
2270.00, 
2271.00, 
2272.00, 
2273.00, 
2274.00, 
2275.00, 
2276.00, 
2277.00, 
2278.00, 
2279.00, 
2280.00, 
2281.00, 
2282.00, 
2283.00, 
2284.00, 
2285.00, 
2286.00, 
2287.00, 
2288.00, 
2289.00, 
2290.00, 
2291.00, 
2292.00, 
2293.00, 
2294.00, 
2295.00, 
2296.00, 
2297.00, 
2298.00, 
2299.00, 
2300.00, 
2301.00, 
2302.00, 
2303.00, 
2304.00, 
2305.00, 
2306.00, 
2307.00, 
2308.00, 
2309.00, 
2310.00, 
2311.00, 
2312.00, 
2313.00, 
2314.00, 
2315.00, 
2316.00, 
2317.00, 
2318.00, 
2319.00, 
2320.00, 
2321.00, 
2322.00, 
2323.00, 
2324.00, 
2325.00, 
2326.00, 
2327.00, 
2328.00, 
2329.00, 
2330.00, 
2331.00, 
2332.00, 
2333.00, 
2334.00, 
2335.00, 
2336.00, 
2337.00, 
2338.00, 
2339.00, 
2340.00, 
2341.00, 
2342.00, 
2343.00, 
2344.00, 
2345.00, 
2346.00, 
2347.00, 
2348.00, 
2349.00, 
2350.00, 
2351.00, 
2352.00, 
2353.00, 
2354.00, 
2355.00, 
2356.00, 
2357.00, 
2358.00, 
2359.00, 
2360.00, 
2361.00, 
2362.00, 
2363.00, 
2364.00, 
2365.00, 
2366.00, 
2367.00, 
2368.00, 
2369.00, 
2370.00, 
2371.00, 
2372.00, 
2373.00, 
2374.00, 
2375.00, 
2376.00, 
2377.00, 
2378.00, 
2379.00, 
2380.00, 
2381.00, 
2382.00, 
2383.00, 
2384.00, 
2385.00, 
2386.00, 
2387.00, 
2388.00, 
2389.00, 
2390.00, 
2391.00, 
2392.00, 
2393.00, 
2394.00, 
2395.00, 
2396.00, 
2397.00, 
2398.00, 
2399.00, 
2400.00, 
2401.00, 
2402.00, 
2403.00, 
2404.00, 
2405.00, 
2406.00, 
2407.00, 
2408.00, 
2409.00, 
2410.00, 
2411.00, 
2412.00, 
2413.00, 
2414.00, 
2415.00, 
2416.00, 
2417.00, 
2418.00, 
2419.00, 
2420.00, 
2421.00, 
2422.00, 
2423.00, 
2424.00, 
2425.00, 
2426.00, 
2427.00, 
2428.00, 
2429.00, 
2430.00, 
2431.00, 
2432.00, 
2433.00, 
2434.00, 
2435.00, 
2436.00, 
2437.00, 
2438.00, 
2439.00, 
2440.00, 
2441.00, 
2442.00, 
2443.00, 
2444.00, 
2445.00, 
2446.00, 
2447.00, 
2448.00, 
2449.00, 
2450.00, 
2451.00, 
2452.00, 
2453.00, 
2454.00, 
2455.00, 
2456.00, 
2457.00, 
2458.00, 
2459.00, 
2460.00, 
2461.00, 
2462.00, 
2463.00, 
2464.00, 
2465.00, 
2466.00, 
2467.00, 
2468.00, 
2469.00, 
2470.00, 
2471.00, 
2472.00, 
2473.00, 
2474.00, 
2475.00, 
2476.00, 
2477.00, 
2478.00, 
2479.00, 
2480.00, 
2481.00, 
2482.00, 
2483.00, 
2484.00, 
2485.00, 
2486.00, 
2487.00, 
2488.00, 
2489.00, 
2490.00, 
2491.00, 
2492.00, 
2493.00, 
2494.00, 
2495.00, 
2496.00, 
2497.00, 
2498.00, 
2499.00, 
2500.00, 
2501.00, 
2502.00, 
2503.00, 
2504.00, 
2505.00, 
2506.00, 
2507.00, 
2508.00, 
2509.00, 
2510.00, 
2511.00, 
2512.00, 
2513.00, 
2514.00, 
2515.00, 
2516.00, 
2517.00, 
2518.00, 
2519.00, 
2520.00, 
2521.00, 
2522.00, 
2523.00, 
2524.00, 
2525.00, 
2526.00, 
2527.00, 
2528.00, 
2529.00, 
2530.00, 
2531.00, 
2532.00, 
2533.00, 
2534.00, 
2535.00, 
2536.00, 
2537.00, 
2538.00, 
2539.00, 
2540.00, 
2541.00, 
2542.00, 
2543.00, 
2544.00, 
2545.00, 
2546.00, 
2547.00, 
2548.00, 
2549.00, 
2550.00, 
2551.00, 
2552.00, 
2553.00, 
2554.00, 
2555.00, 
2556.00, 
2557.00, 
2558.00, 
2559.00, 
2560.00, 
2561.00, 
2562.00, 
2563.00, 
2564.00, 
2565.00, 
2566.00, 
2567.00, 
2568.00, 
2569.00, 
2570.00, 
2571.00, 
2572.00, 
2573.00, 
2574.00, 
2575.00, 
2576.00, 
2577.00, 
2578.00, 
2579.00, 
2580.00, 
2581.00, 
2582.00, 
2583.00, 
2584.00, 
2585.00, 
2586.00, 
2587.00, 
2588.00, 
2589.00, 
2590.00, 
2591.00, 
2592.00, 
2593.00, 
2594.00, 
2595.00, 
2596.00, 
2597.00, 
2598.00, 
2599.00, 
2600.00, 
