"2cP2 - RawData"
"Wavelength nm.","T%"
200.00,0.001
201.00,0.001
202.00,0.002
203.00,0.004
204.00,-0.000
205.00,0.004
206.00,0.004
207.00,0.001
208.00,0.001
209.00,0.002
210.00,0.003
211.00,0.003
212.00,0.002
213.00,-0.001
214.00,-0.001
215.00,0.000
216.00,0.001
217.00,0.000
218.00,0.001
219.00,0.001
220.00,-0.002
221.00,0.002
222.00,0.001
223.00,0.001
224.00,0.002
225.00,0.001
226.00,0.001
227.00,0.001
228.00,0.001
229.00,0.001
230.00,0.001
231.00,0.000
232.00,0.002
233.00,0.001
234.00,0.001
235.00,-0.001
236.00,-0.000
237.00,-0.000
238.00,0.002
239.00,0.001
240.00,0.000
241.00,0.001
242.00,-0.000
243.00,0.003
244.00,0.001
245.00,-0.000
246.00,-0.000
247.00,0.000
248.00,-0.001
249.00,-0.001
250.00,-0.002
251.00,0.001
252.00,0.001
253.00,0.000
254.00,0.000
255.00,0.001
256.00,0.001
257.00,-0.001
258.00,0.001
259.00,-0.000
260.00,-0.001
261.00,-0.000
262.00,-0.001
263.00,-0.000
264.00,0.001
265.00,-0.001
266.00,-0.001
267.00,-0.001
268.00,-0.002
269.00,-0.001
270.00,-0.001
271.00,0.000
272.00,-0.000
273.00,0.001
274.00,0.001
275.00,-0.001
276.00,0.000
277.00,-0.001
278.00,0.000
279.00,-0.001
280.00,0.002
281.00,-0.000
282.00,0.000
283.00,0.001
284.00,-0.001
285.00,-0.000
286.00,-0.000
287.00,-0.001
288.00,0.001
289.00,0.000
290.00,-0.001
291.00,0.001
292.00,-0.001
293.00,0.000
294.00,0.000
295.00,0.001
296.00,0.000
297.00,0.002
298.00,0.002
299.00,0.003
300.00,0.004
301.00,0.007
302.00,0.009
303.00,0.012
304.00,0.019
305.00,0.031
306.00,0.046
307.00,0.069
308.00,0.106
309.00,0.166
310.00,0.234
311.00,0.319
312.00,0.440
313.00,0.599
314.00,0.784
315.00,1.012
316.00,1.297
317.00,1.637
318.00,2.023
319.00,2.492
320.00,3.035
321.00,3.652
322.00,4.327
323.00,5.079
324.00,5.897
325.00,6.647
326.00,7.555
327.00,8.525
328.00,9.561
329.00,10.611
330.00,11.683
331.00,12.754
332.00,13.868
333.00,15.088
334.00,16.150
335.00,17.345
336.00,18.469
337.00,19.628
338.00,20.789
339.00,21.831
340.00,22.933
341.00,24.048
342.00,24.970
343.00,25.969
344.00,26.903
345.00,27.813
346.00,28.633
347.00,29.478
348.00,30.294
349.00,31.023
350.00,31.657
351.00,32.308
352.00,32.901
353.00,33.490
354.00,34.052
355.00,34.606
356.00,35.118
357.00,35.567
358.00,36.049
359.00,36.494
360.00,36.825
361.00,37.194
362.00,37.545
363.00,37.876
364.00,38.167
365.00,38.432
366.00,38.683
367.00,38.846
368.00,39.028
369.00,39.115
370.00,39.342
371.00,39.453
372.00,39.602
373.00,39.606
374.00,39.594
375.00,39.637
376.00,39.612
377.00,39.683
378.00,39.650
379.00,39.739
380.00,39.707
381.00,39.712
382.00,39.819
383.00,39.876
384.00,39.929
385.00,40.115
386.00,40.185
387.00,40.344
388.00,40.428
389.00,40.579
390.00,40.545
391.00,40.714
392.00,40.656
393.00,40.884
394.00,40.961
395.00,41.054
396.00,41.117
397.00,41.150
398.00,41.196
399.00,41.246
400.00,41.260
401.00,41.346
402.00,41.381
403.00,41.415
404.00,41.396
405.00,41.446
406.00,41.424
407.00,41.361
408.00,41.315
409.00,41.288
410.00,41.288
411.00,41.230
412.00,41.222
413.00,41.240
414.00,41.270
415.00,41.374
416.00,41.293
417.00,41.243
418.00,41.284
419.00,41.289
420.00,41.288
421.00,41.414
422.00,41.437
423.00,41.486
424.00,41.443
425.00,41.463
426.00,41.487
427.00,41.527
428.00,41.557
429.00,41.547
430.00,41.647
431.00,41.652
432.00,41.602
433.00,41.722
434.00,41.724
435.00,41.756
436.00,41.754
437.00,41.796
438.00,41.893
439.00,41.905
440.00,41.925
441.00,42.001
442.00,42.067
443.00,42.052
444.00,42.139
445.00,42.181
446.00,42.254
447.00,42.311
448.00,42.405
449.00,42.497
450.00,42.509
451.00,42.590
452.00,42.692
453.00,42.699
454.00,42.754
455.00,42.838
456.00,42.863
457.00,42.976
458.00,43.003
459.00,43.078
460.00,43.163
461.00,43.240
462.00,43.265
463.00,43.383
464.00,43.435
465.00,43.505
466.00,43.530
467.00,43.637
468.00,43.658
469.00,43.672
470.00,43.725
471.00,43.738
472.00,43.804
473.00,43.826
474.00,43.878
475.00,43.971
476.00,43.935
477.00,44.026
478.00,44.070
479.00,44.181
480.00,44.269
481.00,44.369
482.00,44.467
483.00,44.483
484.00,44.557
485.00,44.760
486.00,44.778
487.00,44.880
488.00,44.940
489.00,45.060
490.00,45.147
491.00,45.216
492.00,45.344
493.00,45.361
494.00,45.359
495.00,45.482
496.00,45.489
497.00,45.563
498.00,45.643
499.00,45.676
500.00,45.785
501.00,45.803
502.00,45.904
503.00,45.987
504.00,46.024
505.00,46.079
506.00,46.134
507.00,46.205
508.00,46.270
509.00,46.327
510.00,46.406
511.00,46.427
512.00,46.477
513.00,46.540
514.00,46.647
515.00,46.696
516.00,46.743
517.00,46.826
518.00,46.886
519.00,46.905
520.00,46.964
521.00,46.918
522.00,46.996
523.00,47.065
524.00,47.071
525.00,47.154
526.00,47.187
527.00,47.252
528.00,47.230
529.00,47.317
530.00,47.390
531.00,47.495
532.00,47.520
533.00,47.529
534.00,47.632
535.00,47.637
536.00,47.652
537.00,47.789
538.00,47.848
539.00,47.891
540.00,47.877
541.00,47.893
542.00,47.916
543.00,47.941
544.00,47.981
545.00,47.991
546.00,47.995
547.00,48.046
548.00,48.069
549.00,48.061
550.00,48.181
551.00,48.378
552.00,48.395
553.00,48.455
554.00,48.547
555.00,48.564
556.00,48.555
557.00,48.613
558.00,48.641
559.00,48.649
560.00,48.614
561.00,48.669
562.00,48.747
563.00,48.753
564.00,48.769
565.00,48.815
566.00,48.743
567.00,48.825
568.00,48.762
569.00,48.797
570.00,48.763
571.00,48.782
572.00,48.885
573.00,48.833
574.00,48.921
575.00,48.894
576.00,48.860
577.00,48.935
578.00,49.001
579.00,49.007
580.00,49.021
581.00,49.157
582.00,49.083
583.00,49.281
584.00,49.348
585.00,49.356
586.00,49.452
587.00,49.452
588.00,49.508
589.00,49.507
590.00,49.517
591.00,49.551
592.00,49.506
593.00,49.555
594.00,49.565
595.00,49.545
596.00,49.577
597.00,49.500
598.00,49.774
599.00,49.786
600.00,49.785
601.00,49.795
602.00,49.754
603.00,49.750
604.00,49.816
605.00,49.869
606.00,49.894
607.00,49.838
608.00,49.952
609.00,49.895
610.00,49.857
611.00,49.945
612.00,50.011
613.00,49.944
614.00,50.020
615.00,49.989
616.00,50.000
617.00,50.035
618.00,50.017
619.00,50.061
620.00,50.017
621.00,50.040
622.00,50.094
623.00,50.097
624.00,50.146
625.00,50.163
626.00,50.121
627.00,50.134
628.00,50.136
629.00,50.239
630.00,50.161
631.00,50.177
632.00,50.217
633.00,50.132
634.00,50.226
635.00,50.313
636.00,50.260
637.00,50.194
638.00,50.286
639.00,50.431
640.00,50.349
641.00,50.395
642.00,50.443
643.00,50.369
644.00,50.416
645.00,50.456
646.00,50.501
647.00,50.505
648.00,50.566
649.00,50.558
650.00,50.517
651.00,50.595
652.00,50.559
653.00,50.589
654.00,50.608
655.00,50.652
656.00,50.690
657.00,50.593
658.00,50.704
659.00,50.562
660.00,50.629
661.00,50.660
662.00,50.803
663.00,50.818
664.00,50.872
665.00,50.835
666.00,50.881
667.00,50.905
668.00,50.917
669.00,50.922
670.00,50.987
671.00,51.035
672.00,51.081
673.00,51.048
674.00,51.011
675.00,50.938
676.00,51.052
677.00,50.976
678.00,50.995
679.00,51.092
680.00,51.099
681.00,51.032
682.00,51.063
683.00,51.043
684.00,51.176
685.00,51.115
686.00,51.079
687.00,51.193
688.00,51.151
689.00,51.056
690.00,51.036
691.00,51.061
692.00,50.969
693.00,50.923
694.00,50.847
695.00,50.850
696.00,51.032
697.00,51.104
698.00,51.232
699.00,51.361
700.00,51.294
701.00,51.205
702.00,51.391
703.00,51.264
704.00,51.286
705.00,51.149
706.00,51.307
707.00,51.275
708.00,51.161
709.00,51.433
710.00,51.319
711.00,51.245
712.00,51.117
713.00,51.312
714.00,51.205
715.00,51.242
716.00,51.261
717.00,51.141
718.00,51.223
719.00,51.157
720.00,51.203
721.00,55.546
722.00,55.459
723.00,55.441
724.00,55.313
725.00,55.380
726.00,55.258
727.00,55.234
728.00,55.087
729.00,55.185
730.00,55.062
731.00,55.032
732.00,54.990
733.00,55.018
734.00,54.980
735.00,54.932
736.00,54.997
737.00,54.901
738.00,54.933
739.00,54.941
740.00,54.846
741.00,54.826
742.00,54.811
743.00,54.683
744.00,54.598
745.00,54.591
746.00,54.503
747.00,54.446
748.00,54.378
749.00,54.296
750.00,54.256
751.00,54.265
752.00,54.237
753.00,54.197
754.00,54.170
755.00,54.098
756.00,54.021
757.00,54.024
758.00,54.012
759.00,53.952
760.00,53.911
761.00,53.935
762.00,53.838
763.00,53.893
764.00,53.817
765.00,53.742
766.00,53.720
767.00,53.666
768.00,53.724
769.00,53.741
770.00,53.683
771.00,53.657
772.00,53.577
773.00,53.643
774.00,53.633
775.00,53.590
776.00,53.500
777.00,53.525
778.00,53.412
779.00,53.442
780.00,53.418
781.00,53.400
782.00,53.388
783.00,53.286
784.00,53.365
785.00,53.222
786.00,53.131
787.00,53.198
788.00,53.079
789.00,53.066
790.00,53.021
791.00,52.985
792.00,52.974
793.00,52.925
794.00,52.882
795.00,52.916
796.00,52.818
797.00,52.764
798.00,52.812
799.00,52.690
800.00,52.676
801.00,52.644
802.00,52.679
803.00,52.561
804.00,52.584
805.00,52.460
806.00,52.543
807.00,52.417
808.00,52.420
809.00,52.468
810.00,52.393
811.00,52.353
812.00,52.293
813.00,52.243
814.00,52.273
815.00,52.288
816.00,52.245
817.00,52.175
818.00,52.095
819.00,52.156
820.00,51.971
821.00,52.033
822.00,51.953
823.00,51.909
824.00,52.002
825.00,51.843
826.00,51.944
827.00,51.935
828.00,51.941
829.00,51.794
830.00,51.810
831.00,54.423
832.00,54.420
833.00,54.313
834.00,54.330
835.00,54.284
836.00,54.268
837.00,54.209
838.00,54.197
839.00,54.162
840.00,54.099
841.00,54.095
842.00,54.110
843.00,54.049
844.00,53.966
845.00,54.015
846.00,53.949
847.00,53.946
848.00,53.896
849.00,53.808
850.00,53.833
851.00,53.766
852.00,53.738
853.00,53.650
854.00,53.639
855.00,53.562
856.00,53.592
857.00,53.542
858.00,53.502
859.00,53.454
860.00,53.476
861.00,53.440
862.00,53.405
863.00,53.412
864.00,53.341
865.00,53.373
866.00,53.285
867.00,53.316
868.00,53.297
869.00,53.277
870.00,53.243
871.00,53.246
872.00,53.244
873.00,53.204
874.00,53.211
875.00,53.166
876.00,53.149
877.00,53.155
878.00,53.119
879.00,53.103
880.00,53.081
881.00,53.019
882.00,53.029
883.00,53.002
884.00,52.988
885.00,52.947
886.00,52.880
887.00,53.032
888.00,52.878
889.00,52.858
890.00,52.859
891.00,52.792
892.00,52.768
893.00,52.754
894.00,52.744
895.00,52.706
896.00,52.678
897.00,52.652
898.00,52.642
899.00,52.640
900.00,52.607
901.00,52.598
902.00,52.613
903.00,52.557
904.00,52.531
905.00,52.511
906.00,52.498
907.00,52.496
908.00,52.446
909.00,52.424
910.00,52.402
911.00,52.379
912.00,52.384
913.00,52.333
914.00,52.316
915.00,52.295
916.00,52.265
917.00,52.258
918.00,52.204
919.00,52.184
920.00,52.147
921.00,52.128
922.00,52.125
923.00,52.109
924.00,52.077
925.00,52.072
926.00,52.047
927.00,52.045
928.00,52.009
929.00,51.988
930.00,51.967
931.00,51.965
932.00,51.881
933.00,51.898
934.00,51.887
935.00,51.845
936.00,51.829
937.00,51.806
938.00,51.809
939.00,51.794
940.00,51.737
941.00,51.741
942.00,51.832
943.00,51.682
944.00,51.664
945.00,51.654
946.00,51.655
947.00,51.620
948.00,51.589
949.00,51.543
950.00,51.548
951.00,51.528
952.00,51.498
953.00,51.464
954.00,51.432
955.00,51.405
956.00,51.403
957.00,51.346
958.00,51.370
959.00,51.307
960.00,51.293
961.00,51.275
962.00,51.277
963.00,51.237
964.00,51.226
965.00,51.194
966.00,51.218
967.00,51.200
968.00,51.150
969.00,51.254
970.00,51.162
971.00,51.184
972.00,51.154
973.00,51.175
974.00,51.206
975.00,51.149
976.00,51.174
977.00,51.161
978.00,51.194
979.00,51.154
980.00,51.181
981.00,51.170
982.00,51.133
983.00,51.154
984.00,51.135
985.00,51.150
986.00,51.112
987.00,51.116
988.00,51.203
989.00,51.077
990.00,51.087
991.00,51.054
992.00,51.072
993.00,51.058
994.00,51.027
995.00,50.998
996.00,50.998
997.00,51.002
998.00,50.948
999.00,50.963
1000.00,50.940
1001.00,50.935
1002.00,50.896
1003.00,50.898
1004.00,50.914
1005.00,50.880
1006.00,50.882
1007.00,50.865
1008.00,50.854
1009.00,50.831
1010.00,50.824
1011.00,50.805
1012.00,50.766
1013.00,50.777
1014.00,50.733
1015.00,50.760
1016.00,50.709
1017.00,50.710
1018.00,50.744
1019.00,50.673
1020.00,50.656
1021.00,50.640
1022.00,50.622
1023.00,50.578
1024.00,50.593
1025.00,50.570
1026.00,50.563
1027.00,50.542
1028.00,50.519
1029.00,50.522
1030.00,50.484
1031.00,50.490
1032.00,50.463
1033.00,50.456
1034.00,50.432
1035.00,50.401
1036.00,50.379
1037.00,50.366
1038.00,50.349
1039.00,50.291
1040.00,50.304
1041.00,50.264
1042.00,50.254
1043.00,50.233
1044.00,50.272
1045.00,50.252
1046.00,50.255
1047.00,50.248
1048.00,50.255
1049.00,50.270
1050.00,50.255
1051.00,50.296
1052.00,50.307
1053.00,50.303
1054.00,50.309
1055.00,50.332
1056.00,50.336
1057.00,50.342
1058.00,50.339
1059.00,50.330
1060.00,50.333
1061.00,50.319
1062.00,50.305
1063.00,50.303
1064.00,50.319
1065.00,50.280
1066.00,50.258
1067.00,50.246
1068.00,50.268
1069.00,50.224
1070.00,50.223
1071.00,50.212
1072.00,50.207
1073.00,50.195
1074.00,50.201
1075.00,50.153
1076.00,50.187
1077.00,50.163
1078.00,50.145
1079.00,50.153
1080.00,50.132
1081.00,50.115
1082.00,50.115
1083.00,50.099
1084.00,50.103
1085.00,50.094
1086.00,50.080
1087.00,50.084
1088.00,50.059
1089.00,50.054
1090.00,50.064
1091.00,50.035
1092.00,50.035
1093.00,50.017
1094.00,49.995
1095.00,49.989
1096.00,49.981
1097.00,49.962
1098.00,49.970
1099.00,49.960
1100.00,49.951
1101.00,49.930
1102.00,49.917
1103.00,49.916
1104.00,49.925
1105.00,49.887
1106.00,49.890
1107.00,49.890
1108.00,49.867
1109.00,49.865
1110.00,49.868
1111.00,49.856
1112.00,49.850
1113.00,49.830
1114.00,49.828
1115.00,49.829
1116.00,49.807
1117.00,49.795
1118.00,49.798
1119.00,49.776
1120.00,49.797
1121.00,49.784
1122.00,49.771
1123.00,49.770
1124.00,49.758
1125.00,49.755
1126.00,49.756
1127.00,49.736
1128.00,49.735
1129.00,49.714
1130.00,49.698
1131.00,49.702
1132.00,49.680
1133.00,49.669
1134.00,49.670
1135.00,49.659
1136.00,49.656
1137.00,49.659
1138.00,49.642
1139.00,49.654
1140.00,49.665
1141.00,49.676
1142.00,49.646
1143.00,49.646
1144.00,49.622
1145.00,49.634
1146.00,49.622
1147.00,49.610
1148.00,49.610
1149.00,49.603
1150.00,49.615
1151.00,49.617
1152.00,49.594
1153.00,49.595
1154.00,49.593
1155.00,49.608
1156.00,49.609
1157.00,49.577
1158.00,49.571
1159.00,49.570
1160.00,49.556
1161.00,49.571
1162.00,49.562
1163.00,49.549
1164.00,49.559
1165.00,49.554
1166.00,49.565
1167.00,49.557
1168.00,49.552
1169.00,49.558
1170.00,49.566
1171.00,49.525
1172.00,49.538
1173.00,49.528
1174.00,49.527
1175.00,49.528
1176.00,49.527
1177.00,49.511
1178.00,49.510
1179.00,49.517
1180.00,49.519
1181.00,49.540
1182.00,49.519
1183.00,49.522
1184.00,49.518
1185.00,49.522
1186.00,49.518
1187.00,49.513
1188.00,49.494
1189.00,49.515
1190.00,49.504
1191.00,49.491
1192.00,49.497
1193.00,49.485
1194.00,49.513
1195.00,49.484
1196.00,49.499
1197.00,49.507
1198.00,49.483
1199.00,49.488
1200.00,49.495
1201.00,49.484
1202.00,49.468
1203.00,49.496
1204.00,49.460
1205.00,49.479
1206.00,49.471
1207.00,49.471
1208.00,49.474
1209.00,49.465
1210.00,49.467
1211.00,49.465
1212.00,49.470
1213.00,49.447
1214.00,49.480
1215.00,49.442
1216.00,49.461
1217.00,49.483
1218.00,49.448
1219.00,49.472
1220.00,49.461
1221.00,49.467
1222.00,49.458
1223.00,49.461
1224.00,49.464
1225.00,49.450
1226.00,49.454
1227.00,49.455
1228.00,49.456
1229.00,49.442
1230.00,49.502
1231.00,49.488
1232.00,49.501
1233.00,49.495
1234.00,49.501
1235.00,49.492
1236.00,49.501
1237.00,49.484
1238.00,49.496
1239.00,49.503
1240.00,49.488
1241.00,49.517
1242.00,49.509
1243.00,49.521
1244.00,49.507
1245.00,49.518
1246.00,49.535
1247.00,49.541
1248.00,49.513
1249.00,49.532
1250.00,49.539
1251.00,49.529
1252.00,49.552
1253.00,49.531
1254.00,49.552
1255.00,49.560
1256.00,49.530
1257.00,49.513
1258.00,49.573
1259.00,49.549
1260.00,49.576
1261.00,49.589
1262.00,49.571
1263.00,49.575
1264.00,49.584
1265.00,49.581
1266.00,49.585
1267.00,49.580
1268.00,49.585
1269.00,49.584
1270.00,49.586
1271.00,49.598
1272.00,49.598
1273.00,49.597
1274.00,49.619
1275.00,49.607
1276.00,49.613
1277.00,49.632
1278.00,49.648
1279.00,49.638
1280.00,49.640
1281.00,49.629
1282.00,49.649
1283.00,49.636
1284.00,49.634
1285.00,49.629
1286.00,49.648
1287.00,49.632
1288.00,49.666
1289.00,49.648
1290.00,49.680
1291.00,49.676
1292.00,49.665
1293.00,49.672
1294.00,49.699
1295.00,49.702
1296.00,49.707
1297.00,49.709
1298.00,49.719
1299.00,49.706
1300.00,49.711
1301.00,49.721
1302.00,49.728
1303.00,49.728
1304.00,49.720
1305.00,49.746
1306.00,49.742
1307.00,49.766
1308.00,49.758
1309.00,49.770
1310.00,49.764
1311.00,49.757
1312.00,49.755
1313.00,49.770
1314.00,49.765
1315.00,49.771
1316.00,49.781
1317.00,49.824
1318.00,49.825
1319.00,49.805
1320.00,49.826
1321.00,49.986
1322.00,49.982
1323.00,49.979
1324.00,49.981
1325.00,49.956
1326.00,49.985
1327.00,49.965
1328.00,49.970
1329.00,49.970
1330.00,49.966
1331.00,49.979
1332.00,49.985
1333.00,49.966
1334.00,49.990
1335.00,50.017
1336.00,50.063
1337.00,50.030
1338.00,50.129
1339.00,50.182
1340.00,50.236
1341.00,50.294
1342.00,50.374
1343.00,50.426
1344.00,50.461
1345.00,50.535
1346.00,50.578
1347.00,50.588
1348.00,50.605
1349.00,50.649
1350.00,50.630
1351.00,50.662
1352.00,50.651
1353.00,50.669
1354.00,50.681
1355.00,50.615
1356.00,50.697
1357.00,50.703
1358.00,50.690
1359.00,50.748
1360.00,50.741
1361.00,50.646
1362.00,50.731
1363.00,50.772
1364.00,50.739
1365.00,50.698
1366.00,50.727
1367.00,50.706
1368.00,50.634
1369.00,50.694
1370.00,50.697
1371.00,50.595
1372.00,50.665
1373.00,50.685
1374.00,50.682
1375.00,50.671
1376.00,50.683
1377.00,50.651
1378.00,50.708
1379.00,50.719
1380.00,50.660
1381.00,50.703
1382.00,50.678
1383.00,50.647
1384.00,50.612
1385.00,50.596
1386.00,50.658
1387.00,50.596
1388.00,50.586
1389.00,50.656
1390.00,50.698
1391.00,50.582
1392.00,50.631
1393.00,50.602
1394.00,50.622
1395.00,50.654
1396.00,50.593
1397.00,50.601
1398.00,50.677
1399.00,50.622
1400.00,50.597
1401.00,50.627
1402.00,50.654
1403.00,50.667
1404.00,50.651
1405.00,50.686
1406.00,50.675
1407.00,50.711
1408.00,50.696
1409.00,50.668
1410.00,50.690
1411.00,50.675
1412.00,50.703
1413.00,50.951
1414.00,50.706
1415.00,50.748
1416.00,50.764
1417.00,50.777
1418.00,50.765
1419.00,50.748
1420.00,50.796
1421.00,50.821
1422.00,50.819
1423.00,50.819
1424.00,50.828
1425.00,50.848
1426.00,50.852
1427.00,50.874
1428.00,50.881
1429.00,50.891
1430.00,50.903
1431.00,50.921
1432.00,50.921
1433.00,50.944
1434.00,50.947
1435.00,50.988
1436.00,50.994
1437.00,50.991
1438.00,51.001
1439.00,51.048
1440.00,51.059
1441.00,51.055
1442.00,51.079
1443.00,51.090
1444.00,51.125
1445.00,51.110
1446.00,51.102
1447.00,51.151
1448.00,51.181
1449.00,51.195
1450.00,51.165
1451.00,51.192
1452.00,51.201
1453.00,51.241
1454.00,51.236
1455.00,51.267
1456.00,51.296
1457.00,51.273
1458.00,51.311
1459.00,51.320
1460.00,51.345
1461.00,51.337
1462.00,51.356
1463.00,51.378
1464.00,51.385
1465.00,51.387
1466.00,51.396
1467.00,51.429
1468.00,51.451
1469.00,51.459
1470.00,51.460
1471.00,51.488
1472.00,51.517
1473.00,51.503
1474.00,51.555
1475.00,51.535
1476.00,51.538
1477.00,51.542
1478.00,51.566
1479.00,51.570
1480.00,51.586
1481.00,51.588
1482.00,51.616
1483.00,51.625
1484.00,51.623
1485.00,51.641
1486.00,51.662
1487.00,51.675
1488.00,51.690
1489.00,51.704
1490.00,51.702
1491.00,51.719
1492.00,51.726
1493.00,51.742
1494.00,51.747
1495.00,51.756
1496.00,51.753
1497.00,51.787
1498.00,51.771
1499.00,51.803
1500.00,51.832
1501.00, 
1502.00, 
1503.00, 
1504.00, 
1505.00, 
1506.00, 
1507.00, 
1508.00, 
1509.00, 
1510.00, 
1511.00, 
1512.00, 
1513.00, 
1514.00, 
1515.00, 
1516.00, 
1517.00, 
1518.00, 
1519.00, 
1520.00, 
1521.00, 
1522.00, 
1523.00, 
1524.00, 
1525.00, 
1526.00, 
1527.00, 
1528.00, 
1529.00, 
1530.00, 
1531.00, 
1532.00, 
1533.00, 
1534.00, 
1535.00, 
1536.00, 
1537.00, 
1538.00, 
1539.00, 
1540.00, 
1541.00, 
1542.00, 
1543.00, 
1544.00, 
1545.00, 
1546.00, 
1547.00, 
1548.00, 
1549.00, 
1550.00, 
1551.00, 
1552.00, 
1553.00, 
1554.00, 
1555.00, 
1556.00, 
1557.00, 
1558.00, 
1559.00, 
1560.00, 
1561.00, 
1562.00, 
1563.00, 
1564.00, 
1565.00, 
1566.00, 
1567.00, 
1568.00, 
1569.00, 
1570.00, 
1571.00, 
1572.00, 
1573.00, 
1574.00, 
1575.00, 
1576.00, 
1577.00, 
1578.00, 
1579.00, 
1580.00, 
1581.00, 
1582.00, 
1583.00, 
1584.00, 
1585.00, 
1586.00, 
1587.00, 
1588.00, 
1589.00, 
1590.00, 
1591.00, 
1592.00, 
1593.00, 
1594.00, 
1595.00, 
1596.00, 
1597.00, 
1598.00, 
1599.00, 
1600.00, 
1601.00, 
1602.00, 
1603.00, 
1604.00, 
1605.00, 
1606.00, 
1607.00, 
1608.00, 
1609.00, 
1610.00, 
1611.00, 
1612.00, 
1613.00, 
1614.00, 
1615.00, 
1616.00, 
1617.00, 
1618.00, 
1619.00, 
1620.00, 
1621.00, 
1622.00, 
1623.00, 
1624.00, 
1625.00, 
1626.00, 
1627.00, 
1628.00, 
1629.00, 
1630.00, 
1631.00, 
1632.00, 
1633.00, 
1634.00, 
1635.00, 
1636.00, 
1637.00, 
1638.00, 
1639.00, 
1640.00, 
1641.00, 
1642.00, 
1643.00, 
1644.00, 
1645.00, 
1646.00, 
1647.00, 
1648.00, 
1649.00, 
1650.00, 
1651.00, 
1652.00, 
1653.00, 
1654.00, 
1655.00, 
1656.00, 
1657.00, 
1658.00, 
1659.00, 
1660.00, 
1661.00, 
1662.00, 
1663.00, 
1664.00, 
1665.00, 
1666.00, 
1667.00, 
1668.00, 
1669.00, 
1670.00, 
1671.00, 
1672.00, 
1673.00, 
1674.00, 
1675.00, 
1676.00, 
1677.00, 
1678.00, 
1679.00, 
1680.00, 
1681.00, 
1682.00, 
1683.00, 
1684.00, 
1685.00, 
1686.00, 
1687.00, 
1688.00, 
1689.00, 
1690.00, 
1691.00, 
1692.00, 
1693.00, 
1694.00, 
1695.00, 
1696.00, 
1697.00, 
1698.00, 
1699.00, 
1700.00, 
1701.00, 
1702.00, 
1703.00, 
1704.00, 
1705.00, 
1706.00, 
1707.00, 
1708.00, 
1709.00, 
1710.00, 
1711.00, 
1712.00, 
1713.00, 
1714.00, 
1715.00, 
1716.00, 
1717.00, 
1718.00, 
1719.00, 
1720.00, 
1721.00, 
1722.00, 
1723.00, 
1724.00, 
1725.00, 
1726.00, 
1727.00, 
1728.00, 
1729.00, 
1730.00, 
1731.00, 
1732.00, 
1733.00, 
1734.00, 
1735.00, 
1736.00, 
1737.00, 
1738.00, 
1739.00, 
1740.00, 
1741.00, 
1742.00, 
1743.00, 
1744.00, 
1745.00, 
1746.00, 
1747.00, 
1748.00, 
1749.00, 
1750.00, 
1751.00, 
1752.00, 
1753.00, 
1754.00, 
1755.00, 
1756.00, 
1757.00, 
1758.00, 
1759.00, 
1760.00, 
1761.00, 
1762.00, 
1763.00, 
1764.00, 
1765.00, 
1766.00, 
1767.00, 
1768.00, 
1769.00, 
1770.00, 
1771.00, 
1772.00, 
1773.00, 
1774.00, 
1775.00, 
1776.00, 
1777.00, 
1778.00, 
1779.00, 
1780.00, 
1781.00, 
1782.00, 
1783.00, 
1784.00, 
1785.00, 
1786.00, 
1787.00, 
1788.00, 
1789.00, 
1790.00, 
1791.00, 
1792.00, 
1793.00, 
1794.00, 
1795.00, 
1796.00, 
1797.00, 
1798.00, 
1799.00, 
1800.00, 
1801.00, 
1802.00, 
1803.00, 
1804.00, 
1805.00, 
1806.00, 
1807.00, 
1808.00, 
1809.00, 
1810.00, 
1811.00, 
1812.00, 
1813.00, 
1814.00, 
1815.00, 
1816.00, 
1817.00, 
1818.00, 
1819.00, 
1820.00, 
1821.00, 
1822.00, 
1823.00, 
1824.00, 
1825.00, 
1826.00, 
1827.00, 
1828.00, 
1829.00, 
1830.00, 
1831.00, 
1832.00, 
1833.00, 
1834.00, 
1835.00, 
1836.00, 
1837.00, 
1838.00, 
1839.00, 
1840.00, 
1841.00, 
1842.00, 
1843.00, 
1844.00, 
1845.00, 
1846.00, 
1847.00, 
1848.00, 
1849.00, 
1850.00, 
1851.00, 
1852.00, 
1853.00, 
1854.00, 
1855.00, 
1856.00, 
1857.00, 
1858.00, 
1859.00, 
1860.00, 
1861.00, 
1862.00, 
1863.00, 
1864.00, 
1865.00, 
1866.00, 
1867.00, 
1868.00, 
1869.00, 
1870.00, 
1871.00, 
1872.00, 
1873.00, 
1874.00, 
1875.00, 
1876.00, 
1877.00, 
1878.00, 
1879.00, 
1880.00, 
1881.00, 
1882.00, 
1883.00, 
1884.00, 
1885.00, 
1886.00, 
1887.00, 
1888.00, 
1889.00, 
1890.00, 
1891.00, 
1892.00, 
1893.00, 
1894.00, 
1895.00, 
1896.00, 
1897.00, 
1898.00, 
1899.00, 
1900.00, 
1901.00, 
1902.00, 
1903.00, 
1904.00, 
1905.00, 
1906.00, 
1907.00, 
1908.00, 
1909.00, 
1910.00, 
1911.00, 
1912.00, 
1913.00, 
1914.00, 
1915.00, 
1916.00, 
1917.00, 
1918.00, 
1919.00, 
1920.00, 
1921.00, 
1922.00, 
1923.00, 
1924.00, 
1925.00, 
1926.00, 
1927.00, 
1928.00, 
1929.00, 
1930.00, 
1931.00, 
1932.00, 
1933.00, 
1934.00, 
1935.00, 
1936.00, 
1937.00, 
1938.00, 
1939.00, 
1940.00, 
1941.00, 
1942.00, 
1943.00, 
1944.00, 
1945.00, 
1946.00, 
1947.00, 
1948.00, 
1949.00, 
1950.00, 
1951.00, 
1952.00, 
1953.00, 
1954.00, 
1955.00, 
1956.00, 
1957.00, 
1958.00, 
1959.00, 
1960.00, 
1961.00, 
1962.00, 
1963.00, 
1964.00, 
1965.00, 
1966.00, 
1967.00, 
1968.00, 
1969.00, 
1970.00, 
1971.00, 
1972.00, 
1973.00, 
1974.00, 
1975.00, 
1976.00, 
1977.00, 
1978.00, 
1979.00, 
1980.00, 
1981.00, 
1982.00, 
1983.00, 
1984.00, 
1985.00, 
1986.00, 
1987.00, 
1988.00, 
1989.00, 
1990.00, 
1991.00, 
1992.00, 
1993.00, 
1994.00, 
1995.00, 
1996.00, 
1997.00, 
1998.00, 
1999.00, 
2000.00, 
2001.00, 
2002.00, 
2003.00, 
2004.00, 
2005.00, 
2006.00, 
2007.00, 
2008.00, 
2009.00, 
2010.00, 
2011.00, 
2012.00, 
2013.00, 
2014.00, 
2015.00, 
2016.00, 
2017.00, 
2018.00, 
2019.00, 
2020.00, 
2021.00, 
2022.00, 
2023.00, 
2024.00, 
2025.00, 
2026.00, 
2027.00, 
2028.00, 
2029.00, 
2030.00, 
2031.00, 
2032.00, 
2033.00, 
2034.00, 
2035.00, 
2036.00, 
2037.00, 
2038.00, 
2039.00, 
2040.00, 
2041.00, 
2042.00, 
2043.00, 
2044.00, 
2045.00, 
2046.00, 
2047.00, 
2048.00, 
2049.00, 
2050.00, 
2051.00, 
2052.00, 
2053.00, 
2054.00, 
2055.00, 
2056.00, 
2057.00, 
2058.00, 
2059.00, 
2060.00, 
2061.00, 
2062.00, 
2063.00, 
2064.00, 
2065.00, 
2066.00, 
2067.00, 
2068.00, 
2069.00, 
2070.00, 
2071.00, 
2072.00, 
2073.00, 
2074.00, 
2075.00, 
2076.00, 
2077.00, 
2078.00, 
2079.00, 
2080.00, 
2081.00, 
2082.00, 
2083.00, 
2084.00, 
2085.00, 
2086.00, 
2087.00, 
2088.00, 
2089.00, 
2090.00, 
2091.00, 
2092.00, 
2093.00, 
2094.00, 
2095.00, 
2096.00, 
2097.00, 
2098.00, 
2099.00, 
2100.00, 
2101.00, 
2102.00, 
2103.00, 
2104.00, 
2105.00, 
2106.00, 
2107.00, 
2108.00, 
2109.00, 
2110.00, 
2111.00, 
2112.00, 
2113.00, 
2114.00, 
2115.00, 
2116.00, 
2117.00, 
2118.00, 
2119.00, 
2120.00, 
2121.00, 
2122.00, 
2123.00, 
2124.00, 
2125.00, 
2126.00, 
2127.00, 
2128.00, 
2129.00, 
2130.00, 
2131.00, 
2132.00, 
2133.00, 
2134.00, 
2135.00, 
2136.00, 
2137.00, 
2138.00, 
2139.00, 
2140.00, 
2141.00, 
2142.00, 
2143.00, 
2144.00, 
2145.00, 
2146.00, 
2147.00, 
2148.00, 
2149.00, 
2150.00, 
2151.00, 
2152.00, 
2153.00, 
2154.00, 
2155.00, 
2156.00, 
2157.00, 
2158.00, 
2159.00, 
2160.00, 
2161.00, 
2162.00, 
2163.00, 
2164.00, 
2165.00, 
2166.00, 
2167.00, 
2168.00, 
2169.00, 
2170.00, 
2171.00, 
2172.00, 
2173.00, 
2174.00, 
2175.00, 
2176.00, 
2177.00, 
2178.00, 
2179.00, 
2180.00, 
2181.00, 
2182.00, 
2183.00, 
2184.00, 
2185.00, 
2186.00, 
2187.00, 
2188.00, 
2189.00, 
2190.00, 
2191.00, 
2192.00, 
2193.00, 
2194.00, 
2195.00, 
2196.00, 
2197.00, 
2198.00, 
2199.00, 
2200.00, 
2201.00, 
2202.00, 
2203.00, 
2204.00, 
2205.00, 
2206.00, 
2207.00, 
2208.00, 
2209.00, 
2210.00, 
2211.00, 
2212.00, 
2213.00, 
2214.00, 
2215.00, 
2216.00, 
2217.00, 
2218.00, 
2219.00, 
2220.00, 
2221.00, 
2222.00, 
2223.00, 
2224.00, 
2225.00, 
2226.00, 
2227.00, 
2228.00, 
2229.00, 
2230.00, 
2231.00, 
2232.00, 
2233.00, 
2234.00, 
2235.00, 
2236.00, 
2237.00, 
2238.00, 
2239.00, 
2240.00, 
2241.00, 
2242.00, 
2243.00, 
2244.00, 
2245.00, 
2246.00, 
2247.00, 
2248.00, 
2249.00, 
2250.00, 
2251.00, 
2252.00, 
2253.00, 
2254.00, 
2255.00, 
2256.00, 
2257.00, 
2258.00, 
2259.00, 
2260.00, 
2261.00, 
2262.00, 
2263.00, 
2264.00, 
2265.00, 
2266.00, 
2267.00, 
2268.00, 
2269.00, 
2270.00, 
2271.00, 
2272.00, 
2273.00, 
2274.00, 
2275.00, 
2276.00, 
2277.00, 
2278.00, 
2279.00, 
2280.00, 
2281.00, 
2282.00, 
2283.00, 
2284.00, 
2285.00, 
2286.00, 
2287.00, 
2288.00, 
2289.00, 
2290.00, 
2291.00, 
2292.00, 
2293.00, 
2294.00, 
2295.00, 
2296.00, 
2297.00, 
2298.00, 
2299.00, 
2300.00, 
2301.00, 
2302.00, 
2303.00, 
2304.00, 
2305.00, 
2306.00, 
2307.00, 
2308.00, 
2309.00, 
2310.00, 
2311.00, 
2312.00, 
2313.00, 
2314.00, 
2315.00, 
2316.00, 
2317.00, 
2318.00, 
2319.00, 
2320.00, 
2321.00, 
2322.00, 
2323.00, 
2324.00, 
2325.00, 
2326.00, 
2327.00, 
2328.00, 
2329.00, 
2330.00, 
2331.00, 
2332.00, 
2333.00, 
2334.00, 
2335.00, 
2336.00, 
2337.00, 
2338.00, 
2339.00, 
2340.00, 
2341.00, 
2342.00, 
2343.00, 
2344.00, 
2345.00, 
2346.00, 
2347.00, 
2348.00, 
2349.00, 
2350.00, 
2351.00, 
2352.00, 
2353.00, 
2354.00, 
2355.00, 
2356.00, 
2357.00, 
2358.00, 
2359.00, 
2360.00, 
2361.00, 
2362.00, 
2363.00, 
2364.00, 
2365.00, 
2366.00, 
2367.00, 
2368.00, 
2369.00, 
2370.00, 
2371.00, 
2372.00, 
2373.00, 
2374.00, 
2375.00, 
2376.00, 
2377.00, 
2378.00, 
2379.00, 
2380.00, 
2381.00, 
2382.00, 
2383.00, 
2384.00, 
2385.00, 
2386.00, 
2387.00, 
2388.00, 
2389.00, 
2390.00, 
2391.00, 
2392.00, 
2393.00, 
2394.00, 
2395.00, 
2396.00, 
2397.00, 
2398.00, 
2399.00, 
2400.00, 
2401.00, 
2402.00, 
2403.00, 
2404.00, 
2405.00, 
2406.00, 
2407.00, 
2408.00, 
2409.00, 
2410.00, 
2411.00, 
2412.00, 
2413.00, 
2414.00, 
2415.00, 
2416.00, 
2417.00, 
2418.00, 
2419.00, 
2420.00, 
2421.00, 
2422.00, 
2423.00, 
2424.00, 
2425.00, 
2426.00, 
2427.00, 
2428.00, 
2429.00, 
2430.00, 
2431.00, 
2432.00, 
2433.00, 
2434.00, 
2435.00, 
2436.00, 
2437.00, 
2438.00, 
2439.00, 
2440.00, 
2441.00, 
2442.00, 
2443.00, 
2444.00, 
2445.00, 
2446.00, 
2447.00, 
2448.00, 
2449.00, 
2450.00, 
2451.00, 
2452.00, 
2453.00, 
2454.00, 
2455.00, 
2456.00, 
2457.00, 
2458.00, 
2459.00, 
2460.00, 
2461.00, 
2462.00, 
2463.00, 
2464.00, 
2465.00, 
2466.00, 
2467.00, 
2468.00, 
2469.00, 
2470.00, 
2471.00, 
2472.00, 
2473.00, 
2474.00, 
2475.00, 
2476.00, 
2477.00, 
2478.00, 
2479.00, 
2480.00, 
2481.00, 
2482.00, 
2483.00, 
2484.00, 
2485.00, 
2486.00, 
2487.00, 
2488.00, 
2489.00, 
2490.00, 
2491.00, 
2492.00, 
2493.00, 
2494.00, 
2495.00, 
2496.00, 
2497.00, 
2498.00, 
2499.00, 
2500.00, 
2501.00, 
2502.00, 
2503.00, 
2504.00, 
2505.00, 
2506.00, 
2507.00, 
2508.00, 
2509.00, 
2510.00, 
2511.00, 
2512.00, 
2513.00, 
2514.00, 
2515.00, 
2516.00, 
2517.00, 
2518.00, 
2519.00, 
2520.00, 
2521.00, 
2522.00, 
2523.00, 
2524.00, 
2525.00, 
2526.00, 
2527.00, 
2528.00, 
2529.00, 
2530.00, 
2531.00, 
2532.00, 
2533.00, 
2534.00, 
2535.00, 
2536.00, 
2537.00, 
2538.00, 
2539.00, 
2540.00, 
2541.00, 
2542.00, 
2543.00, 
2544.00, 
2545.00, 
2546.00, 
2547.00, 
2548.00, 
2549.00, 
2550.00, 
2551.00, 
2552.00, 
2553.00, 
2554.00, 
2555.00, 
2556.00, 
2557.00, 
2558.00, 
2559.00, 
2560.00, 
2561.00, 
2562.00, 
2563.00, 
2564.00, 
2565.00, 
2566.00, 
2567.00, 
2568.00, 
2569.00, 
2570.00, 
2571.00, 
2572.00, 
2573.00, 
2574.00, 
2575.00, 
2576.00, 
2577.00, 
2578.00, 
2579.00, 
2580.00, 
2581.00, 
2582.00, 
2583.00, 
2584.00, 
2585.00, 
2586.00, 
2587.00, 
2588.00, 
2589.00, 
2590.00, 
2591.00, 
2592.00, 
2593.00, 
2594.00, 
2595.00, 
2596.00, 
2597.00, 
2598.00, 
2599.00, 
2600.00, 
