"2cP3 - RawData"
"Wavelength nm.","T%"
200.00,-0.001
201.00,0.002
202.00,-0.001
203.00,0.001
204.00,-0.000
205.00,0.004
206.00,0.001
207.00,0.001
208.00,0.002
209.00,0.002
210.00,0.000
211.00,0.003
212.00,0.001
213.00,-0.000
214.00,0.002
215.00,-0.001
216.00,0.003
217.00,0.001
218.00,-0.000
219.00,0.001
220.00,0.003
221.00,0.002
222.00,0.004
223.00,0.002
224.00,-0.001
225.00,0.000
226.00,0.000
227.00,-0.002
228.00,0.001
229.00,-0.000
230.00,-0.000
231.00,-0.001
232.00,0.000
233.00,0.002
234.00,-0.000
235.00,0.002
236.00,-0.001
237.00,0.001
238.00,-0.002
239.00,0.003
240.00,-0.001
241.00,0.002
242.00,0.002
243.00,-0.001
244.00,0.000
245.00,-0.000
246.00,0.002
247.00,0.001
248.00,-0.001
249.00,0.000
250.00,-0.001
251.00,0.001
252.00,-0.001
253.00,-0.001
254.00,-0.000
255.00,0.001
256.00,-0.001
257.00,0.000
258.00,0.000
259.00,0.002
260.00,0.001
261.00,0.001
262.00,0.001
263.00,-0.001
264.00,-0.000
265.00,-0.002
266.00,0.001
267.00,0.001
268.00,-0.000
269.00,0.001
270.00,0.001
271.00,0.000
272.00,-0.001
273.00,-0.001
274.00,0.001
275.00,0.000
276.00,0.001
277.00,-0.000
278.00,0.000
279.00,0.001
280.00,0.000
281.00,0.001
282.00,0.000
283.00,0.001
284.00,0.000
285.00,-0.001
286.00,0.001
287.00,0.001
288.00,0.001
289.00,0.002
290.00,0.001
291.00,-0.001
292.00,0.000
293.00,-0.000
294.00,0.001
295.00,0.000
296.00,0.001
297.00,0.002
298.00,0.002
299.00,0.002
300.00,0.002
301.00,0.005
302.00,0.005
303.00,0.010
304.00,0.013
305.00,0.019
306.00,0.032
307.00,0.046
308.00,0.071
309.00,0.110
310.00,0.155
311.00,0.212
312.00,0.288
313.00,0.395
314.00,0.526
315.00,0.687
316.00,0.878
317.00,1.076
318.00,1.347
319.00,1.659
320.00,2.010
321.00,2.406
322.00,2.865
323.00,3.374
324.00,3.914
325.00,4.461
326.00,5.035
327.00,5.688
328.00,6.368
329.00,7.029
330.00,7.745
331.00,8.482
332.00,9.210
333.00,10.019
334.00,10.752
335.00,11.528
336.00,12.303
337.00,13.031
338.00,13.794
339.00,14.464
340.00,15.216
341.00,15.966
342.00,16.557
343.00,17.207
344.00,17.703
345.00,18.414
346.00,18.962
347.00,19.456
348.00,20.017
349.00,20.460
350.00,20.822
351.00,21.365
352.00,21.740
353.00,22.120
354.00,22.452
355.00,22.810
356.00,23.129
357.00,23.422
358.00,23.726
359.00,23.997
360.00,24.201
361.00,24.359
362.00,24.627
363.00,24.767
364.00,24.987
365.00,25.147
366.00,25.282
367.00,25.363
368.00,25.489
369.00,25.513
370.00,25.615
371.00,25.683
372.00,25.748
373.00,25.745
374.00,25.716
375.00,25.706
376.00,25.757
377.00,25.695
378.00,25.633
379.00,25.645
380.00,25.612
381.00,25.601
382.00,25.650
383.00,25.658
384.00,25.681
385.00,25.794
386.00,25.777
387.00,25.864
388.00,25.896
389.00,25.967
390.00,26.018
391.00,26.066
392.00,26.084
393.00,26.114
394.00,26.152
395.00,26.174
396.00,26.175
397.00,26.209
398.00,26.180
399.00,26.227
400.00,26.193
401.00,26.222
402.00,26.263
403.00,26.257
404.00,26.216
405.00,26.258
406.00,26.250
407.00,26.239
408.00,26.174
409.00,26.109
410.00,26.067
411.00,26.105
412.00,26.123
413.00,26.128
414.00,26.142
415.00,26.209
416.00,26.110
417.00,26.157
418.00,26.174
419.00,26.206
420.00,26.198
421.00,26.284
422.00,26.326
423.00,26.347
424.00,26.364
425.00,26.384
426.00,26.425
427.00,26.462
428.00,26.493
429.00,26.538
430.00,26.594
431.00,26.625
432.00,26.658
433.00,26.751
434.00,26.778
435.00,26.840
436.00,26.845
437.00,26.921
438.00,26.971
439.00,26.963
440.00,27.112
441.00,27.200
442.00,27.274
443.00,27.330
444.00,27.422
445.00,27.496
446.00,27.556
447.00,27.673
448.00,27.751
449.00,27.861
450.00,27.955
451.00,28.021
452.00,28.129
453.00,28.200
454.00,28.250
455.00,28.440
456.00,28.503
457.00,28.654
458.00,28.713
459.00,28.802
460.00,28.945
461.00,29.015
462.00,29.161
463.00,29.268
464.00,29.368
465.00,29.491
466.00,29.571
467.00,29.732
468.00,29.829
469.00,29.931
470.00,30.013
471.00,30.098
472.00,30.233
473.00,30.305
474.00,30.405
475.00,30.529
476.00,30.561
477.00,30.708
478.00,30.796
479.00,30.943
480.00,31.078
481.00,31.213
482.00,31.367
483.00,31.461
484.00,31.574
485.00,31.773
486.00,31.877
487.00,32.011
488.00,32.159
489.00,32.293
490.00,32.456
491.00,32.591
492.00,32.741
493.00,32.864
494.00,32.861
495.00,33.019
496.00,33.093
497.00,33.209
498.00,33.356
499.00,33.420
500.00,33.588
501.00,33.676
502.00,33.793
503.00,33.903
504.00,33.990
505.00,34.009
506.00,34.259
507.00,34.352
508.00,34.431
509.00,34.555
510.00,34.686
511.00,34.684
512.00,34.964
513.00,35.031
514.00,35.169
515.00,35.296
516.00,35.353
517.00,35.483
518.00,35.620
519.00,35.668
520.00,35.786
521.00,35.804
522.00,35.903
523.00,35.948
524.00,36.065
525.00,36.186
526.00,36.284
527.00,36.348
528.00,36.463
529.00,36.571
530.00,36.670
531.00,36.816
532.00,36.854
533.00,36.970
534.00,37.023
535.00,37.123
536.00,37.260
537.00,37.309
538.00,37.412
539.00,37.458
540.00,37.516
541.00,37.559
542.00,37.644
543.00,37.743
544.00,37.796
545.00,37.816
546.00,37.895
547.00,38.035
548.00,38.116
549.00,38.166
550.00,38.274
551.00,38.331
552.00,38.406
553.00,38.493
554.00,38.612
555.00,38.622
556.00,38.650
557.00,38.738
558.00,38.827
559.00,38.833
560.00,38.897
561.00,38.986
562.00,39.078
563.00,39.091
564.00,39.168
565.00,39.211
566.00,39.224
567.00,39.283
568.00,39.295
569.00,39.327
570.00,39.345
571.00,39.402
572.00,39.500
573.00,39.482
574.00,39.602
575.00,39.596
576.00,39.617
577.00,39.683
578.00,39.760
579.00,39.794
580.00,39.918
581.00,40.024
582.00,40.057
583.00,40.140
584.00,40.217
585.00,40.289
586.00,40.372
587.00,40.390
588.00,40.443
589.00,40.460
590.00,40.553
591.00,40.584
592.00,40.575
593.00,40.624
594.00,40.661
595.00,40.737
596.00,40.762
597.00,40.769
598.00,40.903
599.00,40.939
600.00,41.024
601.00,41.079
602.00,41.120
603.00,41.118
604.00,41.180
605.00,41.278
606.00,41.331
607.00,41.253
608.00,41.397
609.00,41.452
610.00,41.249
611.00,41.371
612.00,41.507
613.00,41.524
614.00,41.604
615.00,41.665
616.00,41.688
617.00,41.783
618.00,41.719
619.00,41.862
620.00,41.891
621.00,41.816
622.00,42.002
623.00,42.103
624.00,42.051
625.00,42.147
626.00,42.128
627.00,42.233
628.00,42.352
629.00,42.380
630.00,42.405
631.00,42.459
632.00,42.545
633.00,42.607
634.00,42.629
635.00,42.750
636.00,42.786
637.00,42.886
638.00,42.965
639.00,42.993
640.00,43.043
641.00,43.036
642.00,43.157
643.00,43.217
644.00,43.316
645.00,43.332
646.00,43.391
647.00,43.493
648.00,43.575
649.00,43.623
650.00,43.609
651.00,43.711
652.00,43.810
653.00,43.841
654.00,43.896
655.00,43.933
656.00,44.007
657.00,44.202
658.00,44.266
659.00,44.318
660.00,44.247
661.00,44.289
662.00,44.426
663.00,44.529
664.00,44.745
665.00,44.733
666.00,44.704
667.00,44.928
668.00,45.021
669.00,44.955
670.00,45.138
671.00,45.441
672.00,45.203
673.00,45.272
674.00,45.405
675.00,45.477
676.00,45.581
677.00,45.590
678.00,45.497
679.00,45.635
680.00,45.710
681.00,45.697
682.00,45.777
683.00,45.855
684.00,46.030
685.00,46.080
686.00,46.058
687.00,46.237
688.00,46.372
689.00,46.283
690.00,46.365
691.00,46.524
692.00,46.458
693.00,46.470
694.00,46.582
695.00,46.633
696.00,46.746
697.00,46.736
698.00,46.876
699.00,47.094
700.00,46.956
701.00,47.072
702.00,47.304
703.00,47.291
704.00,47.334
705.00,47.373
706.00,47.505
707.00,47.479
708.00,47.485
709.00,47.684
710.00,47.624
711.00,47.640
712.00,47.578
713.00,47.793
714.00,47.850
715.00,47.817
716.00,47.879
717.00,47.931
718.00,47.982
719.00,47.955
720.00,48.067
721.00,52.321
722.00,52.277
723.00,52.362
724.00,52.266
725.00,52.314
726.00,52.306
727.00,52.307
728.00,52.298
729.00,52.353
730.00,52.275
731.00,52.302
732.00,52.319
733.00,52.431
734.00,52.467
735.00,52.419
736.00,52.442
737.00,52.383
738.00,52.484
739.00,52.476
740.00,52.496
741.00,52.524
742.00,52.544
743.00,52.465
744.00,52.447
745.00,52.462
746.00,52.435
747.00,52.426
748.00,52.423
749.00,52.406
750.00,52.419
751.00,52.394
752.00,52.349
753.00,52.373
754.00,52.462
755.00,52.426
756.00,52.380
757.00,52.397
758.00,52.399
759.00,52.389
760.00,52.353
761.00,52.438
762.00,52.291
763.00,52.384
764.00,52.362
765.00,52.457
766.00,52.344
767.00,52.320
768.00,52.363
769.00,52.424
770.00,52.405
771.00,52.487
772.00,52.441
773.00,52.453
774.00,52.502
775.00,52.439
776.00,52.379
777.00,52.454
778.00,52.380
779.00,52.380
780.00,52.461
781.00,52.419
782.00,52.427
783.00,52.337
784.00,52.416
785.00,52.365
786.00,52.276
787.00,52.396
788.00,52.315
789.00,52.280
790.00,52.240
791.00,52.262
792.00,52.191
793.00,52.232
794.00,52.254
795.00,52.164
796.00,52.180
797.00,52.111
798.00,52.232
799.00,52.124
800.00,52.070
801.00,52.107
802.00,52.063
803.00,52.099
804.00,52.030
805.00,51.970
806.00,52.071
807.00,51.974
808.00,51.988
809.00,51.980
810.00,52.026
811.00,51.986
812.00,51.964
813.00,51.921
814.00,51.932
815.00,51.961
816.00,51.898
817.00,51.891
818.00,51.800
819.00,51.752
820.00,51.691
821.00,51.766
822.00,51.730
823.00,51.625
824.00,51.735
825.00,51.630
826.00,51.751
827.00,51.765
828.00,51.689
829.00,51.594
830.00,51.640
831.00,54.171
832.00,54.175
833.00,54.103
834.00,54.105
835.00,54.094
836.00,54.069
837.00,54.015
838.00,53.993
839.00,54.000
840.00,53.945
841.00,53.939
842.00,54.033
843.00,53.921
844.00,53.921
845.00,53.880
846.00,53.856
847.00,53.865
848.00,53.824
849.00,53.744
850.00,53.735
851.00,53.706
852.00,53.688
853.00,53.598
854.00,53.625
855.00,53.563
856.00,53.587
857.00,53.541
858.00,53.511
859.00,53.468
860.00,53.489
861.00,53.469
862.00,53.418
863.00,53.443
864.00,53.365
865.00,53.395
866.00,53.353
867.00,53.334
868.00,53.356
869.00,53.298
870.00,53.309
871.00,53.295
872.00,53.316
873.00,53.285
874.00,53.266
875.00,53.246
876.00,53.244
877.00,53.224
878.00,53.218
879.00,53.183
880.00,53.167
881.00,53.156
882.00,53.148
883.00,53.133
884.00,53.077
885.00,53.237
886.00,53.080
887.00,53.076
888.00,53.027
889.00,53.023
890.00,53.019
891.00,52.959
892.00,52.922
893.00,52.912
894.00,52.911
895.00,52.883
896.00,52.844
897.00,52.842
898.00,52.833
899.00,52.826
900.00,52.789
901.00,52.799
902.00,52.821
903.00,52.784
904.00,52.741
905.00,52.727
906.00,52.700
907.00,52.697
908.00,52.644
909.00,52.624
910.00,52.603
911.00,52.603
912.00,52.613
913.00,52.577
914.00,52.559
915.00,52.529
916.00,52.501
917.00,52.506
918.00,52.468
919.00,52.452
920.00,52.400
921.00,52.396
922.00,52.380
923.00,52.347
924.00,52.333
925.00,52.322
926.00,52.301
927.00,52.297
928.00,52.262
929.00,52.248
930.00,52.226
931.00,52.218
932.00,52.170
933.00,52.190
934.00,52.174
935.00,52.119
936.00,52.129
937.00,52.090
938.00,52.102
939.00,52.033
940.00,52.092
941.00,52.045
942.00,51.982
943.00,51.967
944.00,51.948
945.00,51.948
946.00,51.945
947.00,51.913
948.00,51.883
949.00,51.855
950.00,51.842
951.00,51.830
952.00,51.820
953.00,51.765
954.00,51.726
955.00,51.768
956.00,51.709
957.00,51.677
958.00,51.682
959.00,51.638
960.00,51.621
961.00,51.591
962.00,51.602
963.00,51.561
964.00,51.550
965.00,51.526
966.00,51.538
967.00,51.521
968.00,51.480
969.00,51.525
970.00,51.518
971.00,51.500
972.00,51.466
973.00,51.495
974.00,51.514
975.00,51.473
976.00,51.499
977.00,51.490
978.00,51.522
979.00,51.485
980.00,51.508
981.00,51.502
982.00,51.468
983.00,51.489
984.00,51.464
985.00,51.498
986.00,51.439
987.00,51.445
988.00,51.436
989.00,51.401
990.00,51.415
991.00,51.388
992.00,51.413
993.00,51.377
994.00,51.362
995.00,51.342
996.00,51.349
997.00,51.339
998.00,51.303
999.00,51.336
1000.00,51.265
1001.00,51.301
1002.00,51.285
1003.00,51.266
1004.00,51.273
1005.00,51.234
1006.00,51.249
1007.00,51.222
1008.00,51.205
1009.00,51.179
1010.00,51.165
1011.00,51.152
1012.00,51.120
1013.00,51.137
1014.00,51.089
1015.00,51.124
1016.00,51.067
1017.00,51.065
1018.00,51.066
1019.00,51.025
1020.00,51.009
1021.00,50.992
1022.00,50.978
1023.00,50.939
1024.00,50.945
1025.00,50.922
1026.00,50.916
1027.00,50.904
1028.00,50.877
1029.00,50.876
1030.00,50.836
1031.00,50.844
1032.00,50.812
1033.00,50.804
1034.00,50.790
1035.00,50.760
1036.00,50.726
1037.00,50.721
1038.00,50.702
1039.00,50.648
1040.00,50.669
1041.00,50.629
1042.00,50.620
1043.00,50.588
1044.00,50.622
1045.00,50.604
1046.00,50.603
1047.00,50.612
1048.00,50.640
1049.00,50.646
1050.00,50.638
1051.00,50.682
1052.00,50.668
1053.00,50.662
1054.00,50.664
1055.00,50.670
1056.00,50.673
1057.00,50.673
1058.00,50.668
1059.00,50.675
1060.00,50.701
1061.00,50.676
1062.00,50.672
1063.00,50.670
1064.00,50.656
1065.00,50.652
1066.00,50.621
1067.00,50.632
1068.00,50.651
1069.00,50.603
1070.00,50.602
1071.00,50.575
1072.00,50.569
1073.00,50.560
1074.00,50.553
1075.00,50.523
1076.00,50.565
1077.00,50.550
1078.00,50.519
1079.00,50.512
1080.00,50.508
1081.00,50.504
1082.00,50.488
1083.00,50.487
1084.00,50.497
1085.00,50.482
1086.00,50.457
1087.00,50.454
1088.00,50.423
1089.00,50.409
1090.00,50.422
1091.00,50.414
1092.00,50.431
1093.00,50.392
1094.00,50.378
1095.00,50.377
1096.00,50.353
1097.00,50.334
1098.00,50.342
1099.00,50.317
1100.00,50.312
1101.00,50.304
1102.00,50.294
1103.00,50.294
1104.00,50.283
1105.00,50.257
1106.00,50.268
1107.00,50.260
1108.00,50.240
1109.00,50.237
1110.00,50.223
1111.00,50.222
1112.00,50.216
1113.00,50.191
1114.00,50.206
1115.00,50.189
1116.00,50.179
1117.00,50.173
1118.00,50.168
1119.00,50.140
1120.00,50.137
1121.00,50.133
1122.00,50.135
1123.00,50.126
1124.00,50.123
1125.00,50.109
1126.00,50.102
1127.00,50.098
1128.00,50.085
1129.00,50.046
1130.00,50.044
1131.00,50.048
1132.00,50.033
1133.00,50.037
1134.00,50.043
1135.00,50.028
1136.00,50.021
1137.00,50.024
1138.00,50.017
1139.00,50.028
1140.00,50.010
1141.00,50.002
1142.00,50.003
1143.00,50.002
1144.00,49.986
1145.00,49.984
1146.00,49.991
1147.00,49.978
1148.00,49.968
1149.00,49.964
1150.00,49.978
1151.00,49.974
1152.00,49.960
1153.00,49.969
1154.00,49.942
1155.00,49.950
1156.00,49.937
1157.00,49.940
1158.00,49.931
1159.00,49.920
1160.00,49.916
1161.00,49.931
1162.00,49.917
1163.00,49.921
1164.00,49.920
1165.00,49.904
1166.00,49.906
1167.00,49.901
1168.00,49.917
1169.00,49.911
1170.00,49.922
1171.00,49.877
1172.00,49.902
1173.00,49.887
1174.00,49.891
1175.00,49.895
1176.00,49.881
1177.00,49.880
1178.00,49.879
1179.00,49.882
1180.00,49.885
1181.00,49.895
1182.00,49.883
1183.00,49.888
1184.00,49.880
1185.00,49.879
1186.00,49.867
1187.00,49.866
1188.00,49.856
1189.00,49.867
1190.00,49.854
1191.00,49.863
1192.00,49.868
1193.00,49.848
1194.00,49.878
1195.00,49.832
1196.00,49.854
1197.00,49.850
1198.00,49.831
1199.00,49.841
1200.00,49.844
1201.00,49.847
1202.00,49.828
1203.00,49.840
1204.00,49.813
1205.00,49.843
1206.00,49.827
1207.00,49.835
1208.00,49.822
1209.00,49.808
1210.00,49.825
1211.00,49.824
1212.00,49.821
1213.00,49.805
1214.00,49.831
1215.00,49.792
1216.00,49.813
1217.00,49.820
1218.00,49.791
1219.00,49.812
1220.00,49.794
1221.00,49.811
1222.00,49.808
1223.00,49.814
1224.00,49.832
1225.00,49.800
1226.00,49.819
1227.00,49.834
1228.00,49.819
1229.00,49.805
1230.00,49.847
1231.00,49.832
1232.00,49.864
1233.00,49.846
1234.00,49.837
1235.00,49.841
1236.00,49.841
1237.00,49.840
1238.00,49.854
1239.00,49.849
1240.00,49.827
1241.00,49.853
1242.00,49.837
1243.00,49.860
1244.00,49.833
1245.00,49.859
1246.00,49.884
1247.00,49.883
1248.00,49.863
1249.00,49.877
1250.00,49.883
1251.00,49.870
1252.00,49.898
1253.00,49.871
1254.00,49.898
1255.00,49.892
1256.00,49.861
1257.00,49.854
1258.00,49.898
1259.00,49.887
1260.00,49.922
1261.00,49.921
1262.00,49.921
1263.00,49.935
1264.00,49.914
1265.00,49.917
1266.00,49.920
1267.00,49.913
1268.00,49.921
1269.00,49.912
1270.00,49.915
1271.00,49.934
1272.00,49.931
1273.00,49.940
1274.00,49.946
1275.00,49.927
1276.00,49.951
1277.00,49.958
1278.00,49.969
1279.00,49.968
1280.00,49.974
1281.00,49.967
1282.00,49.997
1283.00,49.990
1284.00,49.985
1285.00,49.977
1286.00,50.000
1287.00,49.990
1288.00,50.005
1289.00,49.994
1290.00,50.028
1291.00,50.008
1292.00,50.002
1293.00,50.019
1294.00,50.029
1295.00,50.024
1296.00,50.023
1297.00,50.024
1298.00,50.060
1299.00,50.035
1300.00,50.029
1301.00,50.034
1302.00,50.035
1303.00,50.057
1304.00,50.055
1305.00,50.066
1306.00,50.072
1307.00,50.102
1308.00,50.080
1309.00,50.110
1310.00,50.111
1311.00,50.099
1312.00,50.103
1313.00,50.114
1314.00,50.100
1315.00,50.127
1316.00,50.122
1317.00,50.130
1318.00,50.126
1319.00,50.131
1320.00,50.155
1321.00,50.328
1322.00,50.315
1323.00,50.305
1324.00,50.306
1325.00,50.284
1326.00,50.329
1327.00,50.292
1328.00,50.297
1329.00,50.290
1330.00,50.293
1331.00,50.293
1332.00,50.299
1333.00,50.265
1334.00,50.361
1335.00,50.324
1336.00,50.365
1337.00,50.396
1338.00,50.455
1339.00,50.504
1340.00,50.570
1341.00,50.614
1342.00,50.682
1343.00,50.729
1344.00,50.757
1345.00,50.849
1346.00,50.888
1347.00,50.897
1348.00,50.915
1349.00,50.930
1350.00,50.944
1351.00,50.966
1352.00,50.964
1353.00,50.981
1354.00,50.986
1355.00,50.947
1356.00,51.002
1357.00,51.012
1358.00,50.999
1359.00,51.019
1360.00,51.007
1361.00,50.879
1362.00,50.967
1363.00,51.047
1364.00,51.012
1365.00,50.993
1366.00,51.036
1367.00,50.970
1368.00,50.837
1369.00,51.000
1370.00,51.008
1371.00,50.914
1372.00,50.974
1373.00,50.996
1374.00,50.984
1375.00,50.970
1376.00,50.987
1377.00,50.934
1378.00,51.046
1379.00,51.020
1380.00,50.959
1381.00,50.997
1382.00,50.858
1383.00,50.975
1384.00,50.929
1385.00,50.926
1386.00,50.986
1387.00,50.919
1388.00,50.895
1389.00,50.957
1390.00,50.991
1391.00,50.902
1392.00,50.946
1393.00,50.934
1394.00,50.947
1395.00,50.970
1396.00,50.896
1397.00,50.936
1398.00,51.049
1399.00,50.949
1400.00,50.897
1401.00,50.961
1402.00,50.990
1403.00,50.974
1404.00,50.955
1405.00,51.010
1406.00,50.985
1407.00,50.994
1408.00,51.044
1409.00,50.975
1410.00,51.017
1411.00,50.969
1412.00,50.999
1413.00,51.023
1414.00,51.016
1415.00,51.051
1416.00,51.081
1417.00,51.115
1418.00,51.080
1419.00,51.062
1420.00,51.097
1421.00,51.111
1422.00,51.122
1423.00,51.125
1424.00,51.132
1425.00,51.168
1426.00,51.165
1427.00,51.194
1428.00,51.204
1429.00,51.209
1430.00,51.227
1431.00,51.249
1432.00,51.240
1433.00,51.273
1434.00,51.261
1435.00,51.306
1436.00,51.314
1437.00,51.312
1438.00,51.327
1439.00,51.363
1440.00,51.353
1441.00,51.366
1442.00,51.374
1443.00,51.397
1444.00,51.464
1445.00,51.400
1446.00,51.396
1447.00,51.468
1448.00,51.485
1449.00,51.510
1450.00,51.492
1451.00,51.508
1452.00,51.521
1453.00,51.545
1454.00,51.548
1455.00,51.579
1456.00,51.580
1457.00,51.574
1458.00,51.624
1459.00,51.624
1460.00,51.646
1461.00,51.661
1462.00,51.682
1463.00,51.696
1464.00,51.713
1465.00,51.710
1466.00,51.719
1467.00,51.751
1468.00,51.765
1469.00,51.782
1470.00,51.773
1471.00,51.798
1472.00,51.838
1473.00,51.807
1474.00,51.851
1475.00,51.872
1476.00,51.854
1477.00,51.873
1478.00,51.898
1479.00,51.895
1480.00,51.919
1481.00,51.910
1482.00,51.949
1483.00,51.961
1484.00,51.957
1485.00,51.983
1486.00,51.980
1487.00,51.990
1488.00,52.011
1489.00,52.018
1490.00,52.024
1491.00,52.047
1492.00,52.048
1493.00,52.048
1494.00,52.078
1495.00,52.071
1496.00,52.081
1497.00,52.096
1498.00,52.072
1499.00,52.118
1500.00,52.143
1501.00, 
1502.00, 
1503.00, 
1504.00, 
1505.00, 
1506.00, 
1507.00, 
1508.00, 
1509.00, 
1510.00, 
1511.00, 
1512.00, 
1513.00, 
1514.00, 
1515.00, 
1516.00, 
1517.00, 
1518.00, 
1519.00, 
1520.00, 
1521.00, 
1522.00, 
1523.00, 
1524.00, 
1525.00, 
1526.00, 
1527.00, 
1528.00, 
1529.00, 
1530.00, 
1531.00, 
1532.00, 
1533.00, 
1534.00, 
1535.00, 
1536.00, 
1537.00, 
1538.00, 
1539.00, 
1540.00, 
1541.00, 
1542.00, 
1543.00, 
1544.00, 
1545.00, 
1546.00, 
1547.00, 
1548.00, 
1549.00, 
1550.00, 
1551.00, 
1552.00, 
1553.00, 
1554.00, 
1555.00, 
1556.00, 
1557.00, 
1558.00, 
1559.00, 
1560.00, 
1561.00, 
1562.00, 
1563.00, 
1564.00, 
1565.00, 
1566.00, 
1567.00, 
1568.00, 
1569.00, 
1570.00, 
1571.00, 
1572.00, 
1573.00, 
1574.00, 
1575.00, 
1576.00, 
1577.00, 
1578.00, 
1579.00, 
1580.00, 
1581.00, 
1582.00, 
1583.00, 
1584.00, 
1585.00, 
1586.00, 
1587.00, 
1588.00, 
1589.00, 
1590.00, 
1591.00, 
1592.00, 
1593.00, 
1594.00, 
1595.00, 
1596.00, 
1597.00, 
1598.00, 
1599.00, 
1600.00, 
1601.00, 
1602.00, 
1603.00, 
1604.00, 
1605.00, 
1606.00, 
1607.00, 
1608.00, 
1609.00, 
1610.00, 
1611.00, 
1612.00, 
1613.00, 
1614.00, 
1615.00, 
1616.00, 
1617.00, 
1618.00, 
1619.00, 
1620.00, 
1621.00, 
1622.00, 
1623.00, 
1624.00, 
1625.00, 
1626.00, 
1627.00, 
1628.00, 
1629.00, 
1630.00, 
1631.00, 
1632.00, 
1633.00, 
1634.00, 
1635.00, 
1636.00, 
1637.00, 
1638.00, 
1639.00, 
1640.00, 
1641.00, 
1642.00, 
1643.00, 
1644.00, 
1645.00, 
1646.00, 
1647.00, 
1648.00, 
1649.00, 
1650.00, 
1651.00, 
1652.00, 
1653.00, 
1654.00, 
1655.00, 
1656.00, 
1657.00, 
1658.00, 
1659.00, 
1660.00, 
1661.00, 
1662.00, 
1663.00, 
1664.00, 
1665.00, 
1666.00, 
1667.00, 
1668.00, 
1669.00, 
1670.00, 
1671.00, 
1672.00, 
1673.00, 
1674.00, 
1675.00, 
1676.00, 
1677.00, 
1678.00, 
1679.00, 
1680.00, 
1681.00, 
1682.00, 
1683.00, 
1684.00, 
1685.00, 
1686.00, 
1687.00, 
1688.00, 
1689.00, 
1690.00, 
1691.00, 
1692.00, 
1693.00, 
1694.00, 
1695.00, 
1696.00, 
1697.00, 
1698.00, 
1699.00, 
1700.00, 
1701.00, 
1702.00, 
1703.00, 
1704.00, 
1705.00, 
1706.00, 
1707.00, 
1708.00, 
1709.00, 
1710.00, 
1711.00, 
1712.00, 
1713.00, 
1714.00, 
1715.00, 
1716.00, 
1717.00, 
1718.00, 
1719.00, 
1720.00, 
1721.00, 
1722.00, 
1723.00, 
1724.00, 
1725.00, 
1726.00, 
1727.00, 
1728.00, 
1729.00, 
1730.00, 
1731.00, 
1732.00, 
1733.00, 
1734.00, 
1735.00, 
1736.00, 
1737.00, 
1738.00, 
1739.00, 
1740.00, 
1741.00, 
1742.00, 
1743.00, 
1744.00, 
1745.00, 
1746.00, 
1747.00, 
1748.00, 
1749.00, 
1750.00, 
1751.00, 
1752.00, 
1753.00, 
1754.00, 
1755.00, 
1756.00, 
1757.00, 
1758.00, 
1759.00, 
1760.00, 
1761.00, 
1762.00, 
1763.00, 
1764.00, 
1765.00, 
1766.00, 
1767.00, 
1768.00, 
1769.00, 
1770.00, 
1771.00, 
1772.00, 
1773.00, 
1774.00, 
1775.00, 
1776.00, 
1777.00, 
1778.00, 
1779.00, 
1780.00, 
1781.00, 
1782.00, 
1783.00, 
1784.00, 
1785.00, 
1786.00, 
1787.00, 
1788.00, 
1789.00, 
1790.00, 
1791.00, 
1792.00, 
1793.00, 
1794.00, 
1795.00, 
1796.00, 
1797.00, 
1798.00, 
1799.00, 
1800.00, 
1801.00, 
1802.00, 
1803.00, 
1804.00, 
1805.00, 
1806.00, 
1807.00, 
1808.00, 
1809.00, 
1810.00, 
1811.00, 
1812.00, 
1813.00, 
1814.00, 
1815.00, 
1816.00, 
1817.00, 
1818.00, 
1819.00, 
1820.00, 
1821.00, 
1822.00, 
1823.00, 
1824.00, 
1825.00, 
1826.00, 
1827.00, 
1828.00, 
1829.00, 
1830.00, 
1831.00, 
1832.00, 
1833.00, 
1834.00, 
1835.00, 
1836.00, 
1837.00, 
1838.00, 
1839.00, 
1840.00, 
1841.00, 
1842.00, 
1843.00, 
1844.00, 
1845.00, 
1846.00, 
1847.00, 
1848.00, 
1849.00, 
1850.00, 
1851.00, 
1852.00, 
1853.00, 
1854.00, 
1855.00, 
1856.00, 
1857.00, 
1858.00, 
1859.00, 
1860.00, 
1861.00, 
1862.00, 
1863.00, 
1864.00, 
1865.00, 
1866.00, 
1867.00, 
1868.00, 
1869.00, 
1870.00, 
1871.00, 
1872.00, 
1873.00, 
1874.00, 
1875.00, 
1876.00, 
1877.00, 
1878.00, 
1879.00, 
1880.00, 
1881.00, 
1882.00, 
1883.00, 
1884.00, 
1885.00, 
1886.00, 
1887.00, 
1888.00, 
1889.00, 
1890.00, 
1891.00, 
1892.00, 
1893.00, 
1894.00, 
1895.00, 
1896.00, 
1897.00, 
1898.00, 
1899.00, 
1900.00, 
1901.00, 
1902.00, 
1903.00, 
1904.00, 
1905.00, 
1906.00, 
1907.00, 
1908.00, 
1909.00, 
1910.00, 
1911.00, 
1912.00, 
1913.00, 
1914.00, 
1915.00, 
1916.00, 
1917.00, 
1918.00, 
1919.00, 
1920.00, 
1921.00, 
1922.00, 
1923.00, 
1924.00, 
1925.00, 
1926.00, 
1927.00, 
1928.00, 
1929.00, 
1930.00, 
1931.00, 
1932.00, 
1933.00, 
1934.00, 
1935.00, 
1936.00, 
1937.00, 
1938.00, 
1939.00, 
1940.00, 
1941.00, 
1942.00, 
1943.00, 
1944.00, 
1945.00, 
1946.00, 
1947.00, 
1948.00, 
1949.00, 
1950.00, 
1951.00, 
1952.00, 
1953.00, 
1954.00, 
1955.00, 
1956.00, 
1957.00, 
1958.00, 
1959.00, 
1960.00, 
1961.00, 
1962.00, 
1963.00, 
1964.00, 
1965.00, 
1966.00, 
1967.00, 
1968.00, 
1969.00, 
1970.00, 
1971.00, 
1972.00, 
1973.00, 
1974.00, 
1975.00, 
1976.00, 
1977.00, 
1978.00, 
1979.00, 
1980.00, 
1981.00, 
1982.00, 
1983.00, 
1984.00, 
1985.00, 
1986.00, 
1987.00, 
1988.00, 
1989.00, 
1990.00, 
1991.00, 
1992.00, 
1993.00, 
1994.00, 
1995.00, 
1996.00, 
1997.00, 
1998.00, 
1999.00, 
2000.00, 
2001.00, 
2002.00, 
2003.00, 
2004.00, 
2005.00, 
2006.00, 
2007.00, 
2008.00, 
2009.00, 
2010.00, 
2011.00, 
2012.00, 
2013.00, 
2014.00, 
2015.00, 
2016.00, 
2017.00, 
2018.00, 
2019.00, 
2020.00, 
2021.00, 
2022.00, 
2023.00, 
2024.00, 
2025.00, 
2026.00, 
2027.00, 
2028.00, 
2029.00, 
2030.00, 
2031.00, 
2032.00, 
2033.00, 
2034.00, 
2035.00, 
2036.00, 
2037.00, 
2038.00, 
2039.00, 
2040.00, 
2041.00, 
2042.00, 
2043.00, 
2044.00, 
2045.00, 
2046.00, 
2047.00, 
2048.00, 
2049.00, 
2050.00, 
2051.00, 
2052.00, 
2053.00, 
2054.00, 
2055.00, 
2056.00, 
2057.00, 
2058.00, 
2059.00, 
2060.00, 
2061.00, 
2062.00, 
2063.00, 
2064.00, 
2065.00, 
2066.00, 
2067.00, 
2068.00, 
2069.00, 
2070.00, 
2071.00, 
2072.00, 
2073.00, 
2074.00, 
2075.00, 
2076.00, 
2077.00, 
2078.00, 
2079.00, 
2080.00, 
2081.00, 
2082.00, 
2083.00, 
2084.00, 
2085.00, 
2086.00, 
2087.00, 
2088.00, 
2089.00, 
2090.00, 
2091.00, 
2092.00, 
2093.00, 
2094.00, 
2095.00, 
2096.00, 
2097.00, 
2098.00, 
2099.00, 
2100.00, 
2101.00, 
2102.00, 
2103.00, 
2104.00, 
2105.00, 
2106.00, 
2107.00, 
2108.00, 
2109.00, 
2110.00, 
2111.00, 
2112.00, 
2113.00, 
2114.00, 
2115.00, 
2116.00, 
2117.00, 
2118.00, 
2119.00, 
2120.00, 
2121.00, 
2122.00, 
2123.00, 
2124.00, 
2125.00, 
2126.00, 
2127.00, 
2128.00, 
2129.00, 
2130.00, 
2131.00, 
2132.00, 
2133.00, 
2134.00, 
2135.00, 
2136.00, 
2137.00, 
2138.00, 
2139.00, 
2140.00, 
2141.00, 
2142.00, 
2143.00, 
2144.00, 
2145.00, 
2146.00, 
2147.00, 
2148.00, 
2149.00, 
2150.00, 
2151.00, 
2152.00, 
2153.00, 
2154.00, 
2155.00, 
2156.00, 
2157.00, 
2158.00, 
2159.00, 
2160.00, 
2161.00, 
2162.00, 
2163.00, 
2164.00, 
2165.00, 
2166.00, 
2167.00, 
2168.00, 
2169.00, 
2170.00, 
2171.00, 
2172.00, 
2173.00, 
2174.00, 
2175.00, 
2176.00, 
2177.00, 
2178.00, 
2179.00, 
2180.00, 
2181.00, 
2182.00, 
2183.00, 
2184.00, 
2185.00, 
2186.00, 
2187.00, 
2188.00, 
2189.00, 
2190.00, 
2191.00, 
2192.00, 
2193.00, 
2194.00, 
2195.00, 
2196.00, 
2197.00, 
2198.00, 
2199.00, 
2200.00, 
2201.00, 
2202.00, 
2203.00, 
2204.00, 
2205.00, 
2206.00, 
2207.00, 
2208.00, 
2209.00, 
2210.00, 
2211.00, 
2212.00, 
2213.00, 
2214.00, 
2215.00, 
2216.00, 
2217.00, 
2218.00, 
2219.00, 
2220.00, 
2221.00, 
2222.00, 
2223.00, 
2224.00, 
2225.00, 
2226.00, 
2227.00, 
2228.00, 
2229.00, 
2230.00, 
2231.00, 
2232.00, 
2233.00, 
2234.00, 
2235.00, 
2236.00, 
2237.00, 
2238.00, 
2239.00, 
2240.00, 
2241.00, 
2242.00, 
2243.00, 
2244.00, 
2245.00, 
2246.00, 
2247.00, 
2248.00, 
2249.00, 
2250.00, 
2251.00, 
2252.00, 
2253.00, 
2254.00, 
2255.00, 
2256.00, 
2257.00, 
2258.00, 
2259.00, 
2260.00, 
2261.00, 
2262.00, 
2263.00, 
2264.00, 
2265.00, 
2266.00, 
2267.00, 
2268.00, 
2269.00, 
2270.00, 
2271.00, 
2272.00, 
2273.00, 
2274.00, 
2275.00, 
2276.00, 
2277.00, 
2278.00, 
2279.00, 
2280.00, 
2281.00, 
2282.00, 
2283.00, 
2284.00, 
2285.00, 
2286.00, 
2287.00, 
2288.00, 
2289.00, 
2290.00, 
2291.00, 
2292.00, 
2293.00, 
2294.00, 
2295.00, 
2296.00, 
2297.00, 
2298.00, 
2299.00, 
2300.00, 
2301.00, 
2302.00, 
2303.00, 
2304.00, 
2305.00, 
2306.00, 
2307.00, 
2308.00, 
2309.00, 
2310.00, 
2311.00, 
2312.00, 
2313.00, 
2314.00, 
2315.00, 
2316.00, 
2317.00, 
2318.00, 
2319.00, 
2320.00, 
2321.00, 
2322.00, 
2323.00, 
2324.00, 
2325.00, 
2326.00, 
2327.00, 
2328.00, 
2329.00, 
2330.00, 
2331.00, 
2332.00, 
2333.00, 
2334.00, 
2335.00, 
2336.00, 
2337.00, 
2338.00, 
2339.00, 
2340.00, 
2341.00, 
2342.00, 
2343.00, 
2344.00, 
2345.00, 
2346.00, 
2347.00, 
2348.00, 
2349.00, 
2350.00, 
2351.00, 
2352.00, 
2353.00, 
2354.00, 
2355.00, 
2356.00, 
2357.00, 
2358.00, 
2359.00, 
2360.00, 
2361.00, 
2362.00, 
2363.00, 
2364.00, 
2365.00, 
2366.00, 
2367.00, 
2368.00, 
2369.00, 
2370.00, 
2371.00, 
2372.00, 
2373.00, 
2374.00, 
2375.00, 
2376.00, 
2377.00, 
2378.00, 
2379.00, 
2380.00, 
2381.00, 
2382.00, 
2383.00, 
2384.00, 
2385.00, 
2386.00, 
2387.00, 
2388.00, 
2389.00, 
2390.00, 
2391.00, 
2392.00, 
2393.00, 
2394.00, 
2395.00, 
2396.00, 
2397.00, 
2398.00, 
2399.00, 
2400.00, 
2401.00, 
2402.00, 
2403.00, 
2404.00, 
2405.00, 
2406.00, 
2407.00, 
2408.00, 
2409.00, 
2410.00, 
2411.00, 
2412.00, 
2413.00, 
2414.00, 
2415.00, 
2416.00, 
2417.00, 
2418.00, 
2419.00, 
2420.00, 
2421.00, 
2422.00, 
2423.00, 
2424.00, 
2425.00, 
2426.00, 
2427.00, 
2428.00, 
2429.00, 
2430.00, 
2431.00, 
2432.00, 
2433.00, 
2434.00, 
2435.00, 
2436.00, 
2437.00, 
2438.00, 
2439.00, 
2440.00, 
2441.00, 
2442.00, 
2443.00, 
2444.00, 
2445.00, 
2446.00, 
2447.00, 
2448.00, 
2449.00, 
2450.00, 
2451.00, 
2452.00, 
2453.00, 
2454.00, 
2455.00, 
2456.00, 
2457.00, 
2458.00, 
2459.00, 
2460.00, 
2461.00, 
2462.00, 
2463.00, 
2464.00, 
2465.00, 
2466.00, 
2467.00, 
2468.00, 
2469.00, 
2470.00, 
2471.00, 
2472.00, 
2473.00, 
2474.00, 
2475.00, 
2476.00, 
2477.00, 
2478.00, 
2479.00, 
2480.00, 
2481.00, 
2482.00, 
2483.00, 
2484.00, 
2485.00, 
2486.00, 
2487.00, 
2488.00, 
2489.00, 
2490.00, 
2491.00, 
2492.00, 
2493.00, 
2494.00, 
2495.00, 
2496.00, 
2497.00, 
2498.00, 
2499.00, 
2500.00, 
2501.00, 
2502.00, 
2503.00, 
2504.00, 
2505.00, 
2506.00, 
2507.00, 
2508.00, 
2509.00, 
2510.00, 
2511.00, 
2512.00, 
2513.00, 
2514.00, 
2515.00, 
2516.00, 
2517.00, 
2518.00, 
2519.00, 
2520.00, 
2521.00, 
2522.00, 
2523.00, 
2524.00, 
2525.00, 
2526.00, 
2527.00, 
2528.00, 
2529.00, 
2530.00, 
2531.00, 
2532.00, 
2533.00, 
2534.00, 
2535.00, 
2536.00, 
2537.00, 
2538.00, 
2539.00, 
2540.00, 
2541.00, 
2542.00, 
2543.00, 
2544.00, 
2545.00, 
2546.00, 
2547.00, 
2548.00, 
2549.00, 
2550.00, 
2551.00, 
2552.00, 
2553.00, 
2554.00, 
2555.00, 
2556.00, 
2557.00, 
2558.00, 
2559.00, 
2560.00, 
2561.00, 
2562.00, 
2563.00, 
2564.00, 
2565.00, 
2566.00, 
2567.00, 
2568.00, 
2569.00, 
2570.00, 
2571.00, 
2572.00, 
2573.00, 
2574.00, 
2575.00, 
2576.00, 
2577.00, 
2578.00, 
2579.00, 
2580.00, 
2581.00, 
2582.00, 
2583.00, 
2584.00, 
2585.00, 
2586.00, 
2587.00, 
2588.00, 
2589.00, 
2590.00, 
2591.00, 
2592.00, 
2593.00, 
2594.00, 
2595.00, 
2596.00, 
2597.00, 
2598.00, 
2599.00, 
2600.00, 
