"2cP4 - RawData"
"Wavelength nm.","T%"
200.00,-0.001
201.00,0.002
202.00,0.003
203.00,0.001
204.00,0.002
205.00,-0.001
206.00,0.001
207.00,0.004
208.00,0.003
209.00,0.002
210.00,0.001
211.00,0.000
212.00,0.001
213.00,0.000
214.00,-0.001
215.00,0.004
216.00,-0.001
217.00,-0.001
218.00,0.001
219.00,0.003
220.00,-0.001
221.00,0.001
222.00,0.001
223.00,0.000
224.00,0.000
225.00,0.004
226.00,0.002
227.00,-0.001
228.00,-0.003
229.00,-0.001
230.00,-0.000
231.00,-0.001
232.00,0.001
233.00,0.001
234.00,0.001
235.00,0.000
236.00,0.001
237.00,0.001
238.00,0.003
239.00,0.002
240.00,-0.003
241.00,-0.000
242.00,0.003
243.00,0.002
244.00,-0.001
245.00,0.001
246.00,0.000
247.00,0.001
248.00,-0.000
249.00,-0.000
250.00,-0.000
251.00,-0.000
252.00,0.002
253.00,0.000
254.00,0.001
255.00,0.002
256.00,0.003
257.00,0.002
258.00,-0.002
259.00,0.001
260.00,-0.000
261.00,-0.002
262.00,0.001
263.00,0.001
264.00,-0.000
265.00,0.000
266.00,0.000
267.00,0.001
268.00,0.001
269.00,0.001
270.00,-0.001
271.00,0.000
272.00,-0.000
273.00,0.000
274.00,-0.002
275.00,-0.000
276.00,0.000
277.00,-0.000
278.00,0.001
279.00,-0.000
280.00,-0.001
281.00,0.000
282.00,-0.001
283.00,-0.000
284.00,-0.001
285.00,-0.001
286.00,0.001
287.00,-0.001
288.00,0.001
289.00,-0.001
290.00,0.000
291.00,-0.000
292.00,-0.000
293.00,-0.001
294.00,0.001
295.00,-0.001
296.00,0.000
297.00,-0.000
298.00,0.001
299.00,0.002
300.00,0.002
301.00,0.004
302.00,0.005
303.00,0.004
304.00,0.011
305.00,0.017
306.00,0.027
307.00,0.037
308.00,0.059
309.00,0.089
310.00,0.128
311.00,0.173
312.00,0.239
313.00,0.321
314.00,0.420
315.00,0.548
316.00,0.700
317.00,0.880
318.00,1.078
319.00,1.346
320.00,1.619
321.00,1.939
322.00,2.239
323.00,2.702
324.00,3.119
325.00,3.534
326.00,3.997
327.00,4.528
328.00,5.053
329.00,5.573
330.00,6.139
331.00,6.711
332.00,7.299
333.00,7.916
334.00,8.466
335.00,9.101
336.00,9.681
337.00,10.267
338.00,10.867
339.00,11.404
340.00,11.974
341.00,12.507
342.00,12.994
343.00,13.499
344.00,13.931
345.00,14.387
346.00,14.788
347.00,15.235
348.00,15.611
349.00,15.919
350.00,16.283
351.00,16.600
352.00,16.901
353.00,17.143
354.00,17.336
355.00,17.656
356.00,17.894
357.00,18.083
358.00,18.293
359.00,18.480
360.00,18.613
361.00,18.734
362.00,18.886
363.00,19.015
364.00,19.141
365.00,19.242
366.00,19.296
367.00,19.364
368.00,19.404
369.00,19.396
370.00,19.481
371.00,19.495
372.00,19.517
373.00,19.479
374.00,19.489
375.00,19.468
376.00,19.456
377.00,19.371
378.00,19.349
379.00,19.327
380.00,19.304
381.00,19.276
382.00,19.308
383.00,19.270
384.00,19.239
385.00,19.321
386.00,19.320
387.00,19.367
388.00,19.359
389.00,19.402
390.00,19.403
391.00,19.414
392.00,19.437
393.00,19.454
394.00,19.450
395.00,19.477
396.00,19.464
397.00,19.457
398.00,19.469
399.00,19.451
400.00,19.458
401.00,19.488
402.00,19.490
403.00,19.471
404.00,19.451
405.00,19.449
406.00,19.439
407.00,19.421
408.00,19.413
409.00,19.385
410.00,19.368
411.00,19.337
412.00,19.343
413.00,19.344
414.00,19.380
415.00,19.431
416.00,19.391
417.00,19.403
418.00,19.425
419.00,19.461
420.00,19.489
421.00,19.549
422.00,19.579
423.00,19.617
424.00,19.641
425.00,19.683
426.00,19.706
427.00,19.775
428.00,19.814
429.00,19.853
430.00,19.917
431.00,19.956
432.00,20.003
433.00,20.099
434.00,20.137
435.00,20.221
436.00,20.272
437.00,20.305
438.00,20.385
439.00,20.473
440.00,20.539
441.00,20.644
442.00,20.719
443.00,20.789
444.00,20.891
445.00,20.966
446.00,21.086
447.00,21.154
448.00,21.285
449.00,21.394
450.00,21.475
451.00,21.598
452.00,21.648
453.00,21.796
454.00,21.925
455.00,22.036
456.00,22.128
457.00,22.285
458.00,22.371
459.00,22.486
460.00,22.637
461.00,22.753
462.00,22.888
463.00,23.043
464.00,23.174
465.00,23.315
466.00,23.403
467.00,23.547
468.00,23.667
469.00,23.772
470.00,23.878
471.00,23.997
472.00,24.149
473.00,24.234
474.00,24.354
475.00,24.483
476.00,24.597
477.00,24.721
478.00,24.839
479.00,25.014
480.00,25.169
481.00,25.291
482.00,25.454
483.00,25.514
484.00,25.722
485.00,25.924
486.00,26.060
487.00,26.239
488.00,26.378
489.00,26.551
490.00,26.696
491.00,26.836
492.00,27.030
493.00,27.190
494.00,27.205
495.00,27.380
496.00,27.475
497.00,27.643
498.00,27.781
499.00,27.921
500.00,28.056
501.00,28.161
502.00,28.307
503.00,28.452
504.00,28.535
505.00,28.680
506.00,28.803
507.00,28.936
508.00,29.058
509.00,29.183
510.00,29.304
511.00,29.419
512.00,29.579
513.00,29.681
514.00,29.846
515.00,29.941
516.00,30.043
517.00,30.197
518.00,30.311
519.00,30.432
520.00,30.520
521.00,30.563
522.00,30.681
523.00,30.732
524.00,30.854
525.00,30.937
526.00,31.037
527.00,31.137
528.00,31.213
529.00,31.325
530.00,31.466
531.00,31.633
532.00,31.709
533.00,31.802
534.00,31.909
535.00,31.963
536.00,32.077
537.00,32.134
538.00,32.232
539.00,32.311
540.00,32.382
541.00,32.418
542.00,32.482
543.00,32.582
544.00,32.650
545.00,32.694
546.00,32.736
547.00,32.863
548.00,32.953
549.00,33.022
550.00,33.115
551.00,33.196
552.00,33.230
553.00,33.303
554.00,33.446
555.00,33.429
556.00,33.514
557.00,33.511
558.00,33.598
559.00,33.711
560.00,33.763
561.00,33.834
562.00,33.942
563.00,33.964
564.00,34.040
565.00,34.041
566.00,34.040
567.00,34.147
568.00,34.126
569.00,34.211
570.00,34.236
571.00,34.287
572.00,34.331
573.00,34.366
574.00,34.405
575.00,34.373
576.00,34.456
577.00,34.544
578.00,34.641
579.00,34.671
580.00,34.746
581.00,34.855
582.00,34.930
583.00,34.972
584.00,35.043
585.00,35.099
586.00,35.149
587.00,35.233
588.00,35.266
589.00,35.279
590.00,35.354
591.00,35.388
592.00,35.388
593.00,35.439
594.00,35.472
595.00,35.566
596.00,35.628
597.00,35.660
598.00,35.816
599.00,35.837
600.00,35.888
601.00,35.907
602.00,35.930
603.00,35.981
604.00,35.974
605.00,36.037
606.00,36.199
607.00,36.226
608.00,36.296
609.00,36.361
610.00,36.301
611.00,36.397
612.00,36.457
613.00,36.463
614.00,36.567
615.00,36.630
616.00,36.700
617.00,36.760
618.00,36.780
619.00,36.885
620.00,36.912
621.00,36.955
622.00,37.039
623.00,37.131
624.00,37.192
625.00,37.294
626.00,37.288
627.00,37.337
628.00,37.439
629.00,37.499
630.00,37.565
631.00,37.626
632.00,37.705
633.00,37.809
634.00,37.863
635.00,37.994
636.00,38.089
637.00,38.145
638.00,38.264
639.00,38.331
640.00,38.375
641.00,38.422
642.00,38.477
643.00,38.587
644.00,38.750
645.00,38.762
646.00,38.824
647.00,38.889
648.00,38.991
649.00,39.176
650.00,39.198
651.00,39.375
652.00,39.455
653.00,39.523
654.00,39.635
655.00,39.750
656.00,39.879
657.00,39.943
658.00,39.997
659.00,40.071
660.00,40.197
661.00,40.350
662.00,40.475
663.00,40.518
664.00,40.684
665.00,40.773
666.00,40.882
667.00,41.051
668.00,41.052
669.00,41.105
670.00,41.364
671.00,41.348
672.00,41.535
673.00,41.585
674.00,41.791
675.00,41.876
676.00,42.019
677.00,42.030
678.00,42.013
679.00,42.212
680.00,42.312
681.00,42.448
682.00,42.557
683.00,42.720
684.00,42.797
685.00,42.901
686.00,42.877
687.00,43.079
688.00,43.185
689.00,43.201
690.00,43.328
691.00,43.544
692.00,43.596
693.00,43.639
694.00,43.716
695.00,43.789
696.00,43.920
697.00,44.018
698.00,44.135
699.00,44.399
700.00,44.446
701.00,44.550
702.00,44.642
703.00,44.776
704.00,44.766
705.00,44.777
706.00,45.041
707.00,45.049
708.00,45.092
709.00,45.484
710.00,45.409
711.00,45.426
712.00,45.352
713.00,45.625
714.00,45.681
715.00,45.682
716.00,45.826
717.00,45.893
718.00,45.972
719.00,45.993
720.00,46.150
721.00,50.395
722.00,50.447
723.00,50.420
724.00,50.465
725.00,50.567
726.00,50.552
727.00,50.617
728.00,50.603
729.00,50.681
730.00,50.669
731.00,50.696
732.00,50.797
733.00,50.801
734.00,50.892
735.00,50.943
736.00,51.056
737.00,51.036
738.00,51.095
739.00,51.146
740.00,51.224
741.00,51.256
742.00,51.283
743.00,51.275
744.00,51.245
745.00,51.360
746.00,51.331
747.00,51.365
748.00,51.325
749.00,51.335
750.00,51.340
751.00,51.412
752.00,51.370
753.00,51.417
754.00,51.514
755.00,51.468
756.00,51.465
757.00,51.533
758.00,51.583
759.00,51.616
760.00,51.540
761.00,51.651
762.00,51.622
763.00,51.670
764.00,51.667
765.00,51.712
766.00,51.675
767.00,51.749
768.00,51.755
769.00,51.834
770.00,51.825
771.00,51.856
772.00,51.867
773.00,51.867
774.00,51.951
775.00,51.930
776.00,51.899
777.00,52.035
778.00,51.941
779.00,52.059
780.00,51.983
781.00,51.981
782.00,52.085
783.00,51.983
784.00,52.071
785.00,51.942
786.00,52.026
787.00,51.987
788.00,52.010
789.00,51.980
790.00,51.975
791.00,52.029
792.00,51.985
793.00,51.963
794.00,51.969
795.00,51.951
796.00,51.988
797.00,51.958
798.00,52.032
799.00,51.959
800.00,51.859
801.00,51.910
802.00,51.954
803.00,51.926
804.00,51.933
805.00,51.800
806.00,51.853
807.00,51.874
808.00,51.986
809.00,51.964
810.00,51.912
811.00,51.910
812.00,51.898
813.00,51.817
814.00,51.833
815.00,51.870
816.00,51.867
817.00,51.833
818.00,51.751
819.00,51.816
820.00,51.687
821.00,51.856
822.00,51.712
823.00,51.650
824.00,51.683
825.00,51.688
826.00,51.724
827.00,51.800
828.00,51.713
829.00,51.680
830.00,51.759
831.00,53.869
832.00,53.861
833.00,53.820
834.00,53.831
835.00,53.798
836.00,53.817
837.00,53.799
838.00,53.743
839.00,53.757
840.00,53.700
841.00,53.733
842.00,53.737
843.00,53.715
844.00,53.705
845.00,53.649
846.00,53.658
847.00,53.631
848.00,53.773
849.00,53.536
850.00,53.531
851.00,53.500
852.00,53.511
853.00,53.465
854.00,53.477
855.00,53.407
856.00,53.397
857.00,53.361
858.00,53.358
859.00,53.290
860.00,53.303
861.00,53.294
862.00,53.271
863.00,53.296
864.00,53.222
865.00,53.263
866.00,53.215
867.00,53.226
868.00,53.222
869.00,53.204
870.00,53.253
871.00,53.226
872.00,53.215
873.00,53.329
874.00,53.215
875.00,53.147
876.00,53.171
877.00,53.165
878.00,53.137
879.00,53.125
880.00,53.137
881.00,53.089
882.00,53.111
883.00,53.075
884.00,53.068
885.00,53.028
886.00,53.023
887.00,53.009
888.00,52.979
889.00,52.961
890.00,52.970
891.00,52.917
892.00,52.887
893.00,52.883
894.00,52.881
895.00,52.854
896.00,52.815
897.00,52.806
898.00,52.802
899.00,52.826
900.00,52.756
901.00,52.789
902.00,52.799
903.00,52.744
904.00,52.721
905.00,52.726
906.00,52.693
907.00,52.686
908.00,52.622
909.00,52.632
910.00,52.600
911.00,52.588
912.00,52.597
913.00,52.578
914.00,52.552
915.00,52.536
916.00,52.509
917.00,52.480
918.00,52.504
919.00,52.448
920.00,52.411
921.00,52.399
922.00,52.381
923.00,52.351
924.00,52.337
925.00,52.324
926.00,52.302
927.00,52.324
928.00,52.279
929.00,52.272
930.00,52.260
931.00,52.243
932.00,52.160
933.00,52.260
934.00,52.187
935.00,52.150
936.00,52.133
937.00,52.111
938.00,52.125
939.00,52.098
940.00,52.055
941.00,52.083
942.00,52.039
943.00,52.031
944.00,52.002
945.00,52.001
946.00,51.990
947.00,51.936
948.00,51.931
949.00,51.903
950.00,51.896
951.00,51.864
952.00,51.859
953.00,51.823
954.00,51.782
955.00,51.766
956.00,51.741
957.00,51.695
958.00,51.745
959.00,51.662
960.00,51.662
961.00,51.639
962.00,51.649
963.00,51.596
964.00,51.629
965.00,51.575
966.00,51.583
967.00,51.575
968.00,51.538
969.00,51.585
970.00,51.539
971.00,51.565
972.00,51.529
973.00,51.563
974.00,51.598
975.00,51.553
976.00,51.575
977.00,51.617
978.00,51.670
979.00,51.658
980.00,51.568
981.00,51.565
982.00,51.525
983.00,51.533
984.00,51.522
985.00,51.568
986.00,51.508
987.00,51.506
988.00,51.505
989.00,51.461
990.00,51.483
991.00,51.452
992.00,51.468
993.00,51.420
994.00,51.417
995.00,51.419
996.00,51.414
997.00,51.408
998.00,51.365
999.00,51.396
1000.00,51.342
1001.00,51.353
1002.00,51.350
1003.00,51.330
1004.00,51.337
1005.00,51.295
1006.00,51.315
1007.00,51.286
1008.00,51.267
1009.00,51.244
1010.00,51.238
1011.00,51.225
1012.00,51.189
1013.00,51.207
1014.00,51.162
1015.00,51.191
1016.00,51.138
1017.00,51.132
1018.00,51.138
1019.00,51.105
1020.00,51.088
1021.00,51.075
1022.00,51.063
1023.00,51.024
1024.00,51.044
1025.00,51.059
1026.00,51.009
1027.00,50.977
1028.00,50.940
1029.00,50.954
1030.00,50.917
1031.00,50.932
1032.00,50.905
1033.00,50.903
1034.00,50.878
1035.00,50.846
1036.00,50.810
1037.00,50.810
1038.00,50.786
1039.00,50.731
1040.00,50.747
1041.00,50.710
1042.00,50.706
1043.00,50.683
1044.00,50.710
1045.00,50.694
1046.00,50.693
1047.00,50.694
1048.00,50.707
1049.00,50.716
1050.00,50.707
1051.00,50.754
1052.00,50.746
1053.00,50.748
1054.00,50.750
1055.00,50.773
1056.00,50.782
1057.00,50.794
1058.00,50.790
1059.00,50.781
1060.00,50.787
1061.00,50.766
1062.00,50.754
1063.00,50.748
1064.00,50.720
1065.00,50.722
1066.00,50.706
1067.00,50.712
1068.00,50.738
1069.00,50.689
1070.00,50.698
1071.00,50.679
1072.00,50.685
1073.00,50.671
1074.00,50.650
1075.00,50.611
1076.00,50.637
1077.00,50.617
1078.00,50.602
1079.00,50.593
1080.00,50.590
1081.00,50.584
1082.00,50.573
1083.00,50.562
1084.00,50.561
1085.00,50.542
1086.00,50.527
1087.00,50.534
1088.00,50.505
1089.00,50.507
1090.00,50.511
1091.00,50.494
1092.00,50.494
1093.00,50.472
1094.00,50.457
1095.00,50.456
1096.00,50.436
1097.00,50.417
1098.00,50.419
1099.00,50.395
1100.00,50.398
1101.00,50.377
1102.00,50.359
1103.00,50.377
1104.00,50.381
1105.00,50.351
1106.00,50.354
1107.00,50.353
1108.00,50.336
1109.00,50.338
1110.00,50.333
1111.00,50.326
1112.00,50.317
1113.00,50.286
1114.00,50.299
1115.00,50.312
1116.00,50.282
1117.00,50.263
1118.00,50.264
1119.00,50.237
1120.00,50.237
1121.00,50.234
1122.00,50.227
1123.00,50.221
1124.00,50.219
1125.00,50.207
1126.00,50.196
1127.00,50.192
1128.00,50.192
1129.00,50.172
1130.00,50.153
1131.00,50.161
1132.00,50.138
1133.00,50.137
1134.00,50.141
1135.00,50.128
1136.00,50.129
1137.00,50.136
1138.00,50.119
1139.00,50.140
1140.00,50.117
1141.00,50.101
1142.00,50.102
1143.00,50.099
1144.00,50.087
1145.00,50.090
1146.00,50.072
1147.00,50.078
1148.00,50.066
1149.00,50.061
1150.00,50.080
1151.00,50.072
1152.00,50.051
1153.00,50.052
1154.00,50.034
1155.00,50.055
1156.00,50.031
1157.00,50.029
1158.00,50.028
1159.00,50.030
1160.00,50.023
1161.00,50.046
1162.00,50.039
1163.00,50.007
1164.00,50.012
1165.00,50.003
1166.00,50.016
1167.00,50.001
1168.00,50.007
1169.00,50.016
1170.00,50.026
1171.00,49.986
1172.00,50.008
1173.00,49.982
1174.00,49.985
1175.00,49.979
1176.00,49.971
1177.00,49.975
1178.00,49.966
1179.00,49.973
1180.00,49.979
1181.00,49.993
1182.00,49.974
1183.00,49.979
1184.00,49.957
1185.00,49.973
1186.00,49.964
1187.00,49.961
1188.00,49.946
1189.00,49.946
1190.00,49.948
1191.00,49.948
1192.00,49.951
1193.00,49.926
1194.00,49.954
1195.00,49.926
1196.00,49.946
1197.00,49.944
1198.00,49.928
1199.00,49.937
1200.00,49.925
1201.00,49.940
1202.00,49.925
1203.00,49.933
1204.00,49.912
1205.00,49.943
1206.00,49.919
1207.00,49.921
1208.00,49.911
1209.00,49.908
1210.00,49.921
1211.00,49.919
1212.00,49.923
1213.00,49.897
1214.00,49.919
1215.00,49.885
1216.00,49.905
1217.00,49.911
1218.00,49.897
1219.00,49.909
1220.00,49.892
1221.00,49.907
1222.00,49.899
1223.00,49.917
1224.00,49.911
1225.00,49.896
1226.00,49.893
1227.00,49.904
1228.00,49.915
1229.00,49.893
1230.00,49.939
1231.00,49.921
1232.00,49.964
1233.00,49.955
1234.00,49.949
1235.00,49.947
1236.00,49.950
1237.00,49.945
1238.00,49.956
1239.00,49.955
1240.00,49.929
1241.00,49.942
1242.00,49.939
1243.00,49.967
1244.00,49.956
1245.00,49.965
1246.00,49.984
1247.00,49.975
1248.00,49.955
1249.00,49.982
1250.00,49.982
1251.00,49.969
1252.00,49.991
1253.00,49.997
1254.00,50.027
1255.00,49.991
1256.00,49.968
1257.00,49.963
1258.00,50.003
1259.00,49.980
1260.00,50.015
1261.00,50.002
1262.00,49.985
1263.00,50.001
1264.00,49.997
1265.00,49.993
1266.00,49.996
1267.00,50.001
1268.00,50.017
1269.00,50.020
1270.00,50.030
1271.00,50.045
1272.00,50.041
1273.00,50.043
1274.00,50.061
1275.00,50.043
1276.00,50.050
1277.00,50.059
1278.00,50.059
1279.00,50.074
1280.00,50.078
1281.00,50.068
1282.00,50.088
1283.00,50.086
1284.00,50.066
1285.00,50.068
1286.00,50.071
1287.00,50.068
1288.00,50.095
1289.00,50.066
1290.00,50.112
1291.00,50.107
1292.00,50.082
1293.00,50.107
1294.00,50.127
1295.00,50.132
1296.00,50.130
1297.00,50.129
1298.00,50.161
1299.00,50.141
1300.00,50.146
1301.00,50.150
1302.00,50.150
1303.00,50.159
1304.00,50.148
1305.00,50.175
1306.00,50.165
1307.00,50.177
1308.00,50.168
1309.00,50.187
1310.00,50.181
1311.00,50.170
1312.00,50.169
1313.00,50.183
1314.00,50.188
1315.00,50.217
1316.00,50.217
1317.00,50.231
1318.00,50.229
1319.00,50.232
1320.00,50.254
1321.00,50.414
1322.00,50.415
1323.00,50.403
1324.00,50.398
1325.00,50.374
1326.00,50.420
1327.00,50.393
1328.00,50.396
1329.00,50.393
1330.00,50.403
1331.00,50.404
1332.00,50.406
1333.00,50.369
1334.00,50.435
1335.00,50.438
1336.00,50.454
1337.00,50.488
1338.00,50.557
1339.00,50.596
1340.00,50.656
1341.00,50.715
1342.00,50.787
1343.00,50.856
1344.00,50.861
1345.00,50.944
1346.00,50.978
1347.00,50.996
1348.00,51.007
1349.00,51.014
1350.00,51.028
1351.00,51.054
1352.00,51.048
1353.00,51.049
1354.00,51.072
1355.00,51.035
1356.00,51.097
1357.00,51.105
1358.00,51.079
1359.00,51.028
1360.00,51.120
1361.00,51.120
1362.00,51.088
1363.00,51.189
1364.00,51.225
1365.00,51.095
1366.00,51.146
1367.00,51.116
1368.00,51.025
1369.00,51.086
1370.00,51.107
1371.00,51.003
1372.00,51.073
1373.00,51.086
1374.00,51.097
1375.00,51.072
1376.00,51.092
1377.00,51.050
1378.00,51.089
1379.00,51.087
1380.00,51.057
1381.00,51.081
1382.00,51.085
1383.00,51.071
1384.00,51.057
1385.00,51.044
1386.00,51.077
1387.00,51.009
1388.00,51.000
1389.00,51.050
1390.00,51.069
1391.00,51.000
1392.00,51.037
1393.00,51.021
1394.00,51.052
1395.00,51.077
1396.00,50.996
1397.00,51.017
1398.00,51.030
1399.00,51.065
1400.00,51.078
1401.00,51.023
1402.00,51.038
1403.00,51.101
1404.00,51.042
1405.00,51.129
1406.00,51.092
1407.00,51.080
1408.00,51.123
1409.00,51.041
1410.00,51.105
1411.00,51.073
1412.00,51.089
1413.00,51.124
1414.00,51.133
1415.00,51.150
1416.00,51.177
1417.00,51.213
1418.00,51.191
1419.00,51.176
1420.00,51.221
1421.00,51.249
1422.00,51.246
1423.00,51.246
1424.00,51.245
1425.00,51.272
1426.00,51.256
1427.00,51.294
1428.00,51.292
1429.00,51.292
1430.00,51.308
1431.00,51.334
1432.00,51.323
1433.00,51.358
1434.00,51.349
1435.00,51.392
1436.00,51.413
1437.00,51.402
1438.00,51.422
1439.00,51.461
1440.00,51.474
1441.00,51.484
1442.00,51.493
1443.00,51.506
1444.00,51.548
1445.00,51.519
1446.00,51.535
1447.00,51.578
1448.00,51.603
1449.00,51.611
1450.00,51.596
1451.00,51.611
1452.00,51.632
1453.00,51.661
1454.00,51.660
1455.00,51.699
1456.00,51.710
1457.00,51.682
1458.00,51.727
1459.00,51.747
1460.00,51.774
1461.00,51.772
1462.00,51.795
1463.00,51.789
1464.00,51.810
1465.00,51.801
1466.00,51.811
1467.00,51.842
1468.00,51.865
1469.00,51.875
1470.00,51.870
1471.00,51.895
1472.00,51.925
1473.00,51.915
1474.00,51.956
1475.00,51.956
1476.00,51.943
1477.00,51.963
1478.00,51.982
1479.00,51.987
1480.00,51.997
1481.00,52.011
1482.00,52.036
1483.00,52.035
1484.00,52.053
1485.00,52.066
1486.00,52.075
1487.00,52.089
1488.00,52.113
1489.00,52.120
1490.00,52.118
1491.00,52.145
1492.00,52.144
1493.00,52.142
1494.00,52.166
1495.00,52.150
1496.00,52.170
1497.00,52.189
1498.00,52.169
1499.00,52.203
1500.00,52.230
1501.00, 
1502.00, 
1503.00, 
1504.00, 
1505.00, 
1506.00, 
1507.00, 
1508.00, 
1509.00, 
1510.00, 
1511.00, 
1512.00, 
1513.00, 
1514.00, 
1515.00, 
1516.00, 
1517.00, 
1518.00, 
1519.00, 
1520.00, 
1521.00, 
1522.00, 
1523.00, 
1524.00, 
1525.00, 
1526.00, 
1527.00, 
1528.00, 
1529.00, 
1530.00, 
1531.00, 
1532.00, 
1533.00, 
1534.00, 
1535.00, 
1536.00, 
1537.00, 
1538.00, 
1539.00, 
1540.00, 
1541.00, 
1542.00, 
1543.00, 
1544.00, 
1545.00, 
1546.00, 
1547.00, 
1548.00, 
1549.00, 
1550.00, 
1551.00, 
1552.00, 
1553.00, 
1554.00, 
1555.00, 
1556.00, 
1557.00, 
1558.00, 
1559.00, 
1560.00, 
1561.00, 
1562.00, 
1563.00, 
1564.00, 
1565.00, 
1566.00, 
1567.00, 
1568.00, 
1569.00, 
1570.00, 
1571.00, 
1572.00, 
1573.00, 
1574.00, 
1575.00, 
1576.00, 
1577.00, 
1578.00, 
1579.00, 
1580.00, 
1581.00, 
1582.00, 
1583.00, 
1584.00, 
1585.00, 
1586.00, 
1587.00, 
1588.00, 
1589.00, 
1590.00, 
1591.00, 
1592.00, 
1593.00, 
1594.00, 
1595.00, 
1596.00, 
1597.00, 
1598.00, 
1599.00, 
1600.00, 
1601.00, 
1602.00, 
1603.00, 
1604.00, 
1605.00, 
1606.00, 
1607.00, 
1608.00, 
1609.00, 
1610.00, 
1611.00, 
1612.00, 
1613.00, 
1614.00, 
1615.00, 
1616.00, 
1617.00, 
1618.00, 
1619.00, 
1620.00, 
1621.00, 
1622.00, 
1623.00, 
1624.00, 
1625.00, 
1626.00, 
1627.00, 
1628.00, 
1629.00, 
1630.00, 
1631.00, 
1632.00, 
1633.00, 
1634.00, 
1635.00, 
1636.00, 
1637.00, 
1638.00, 
1639.00, 
1640.00, 
1641.00, 
1642.00, 
1643.00, 
1644.00, 
1645.00, 
1646.00, 
1647.00, 
1648.00, 
1649.00, 
1650.00, 
1651.00, 
1652.00, 
1653.00, 
1654.00, 
1655.00, 
1656.00, 
1657.00, 
1658.00, 
1659.00, 
1660.00, 
1661.00, 
1662.00, 
1663.00, 
1664.00, 
1665.00, 
1666.00, 
1667.00, 
1668.00, 
1669.00, 
1670.00, 
1671.00, 
1672.00, 
1673.00, 
1674.00, 
1675.00, 
1676.00, 
1677.00, 
1678.00, 
1679.00, 
1680.00, 
1681.00, 
1682.00, 
1683.00, 
1684.00, 
1685.00, 
1686.00, 
1687.00, 
1688.00, 
1689.00, 
1690.00, 
1691.00, 
1692.00, 
1693.00, 
1694.00, 
1695.00, 
1696.00, 
1697.00, 
1698.00, 
1699.00, 
1700.00, 
1701.00, 
1702.00, 
1703.00, 
1704.00, 
1705.00, 
1706.00, 
1707.00, 
1708.00, 
1709.00, 
1710.00, 
1711.00, 
1712.00, 
1713.00, 
1714.00, 
1715.00, 
1716.00, 
1717.00, 
1718.00, 
1719.00, 
1720.00, 
1721.00, 
1722.00, 
1723.00, 
1724.00, 
1725.00, 
1726.00, 
1727.00, 
1728.00, 
1729.00, 
1730.00, 
1731.00, 
1732.00, 
1733.00, 
1734.00, 
1735.00, 
1736.00, 
1737.00, 
1738.00, 
1739.00, 
1740.00, 
1741.00, 
1742.00, 
1743.00, 
1744.00, 
1745.00, 
1746.00, 
1747.00, 
1748.00, 
1749.00, 
1750.00, 
1751.00, 
1752.00, 
1753.00, 
1754.00, 
1755.00, 
1756.00, 
1757.00, 
1758.00, 
1759.00, 
1760.00, 
1761.00, 
1762.00, 
1763.00, 
1764.00, 
1765.00, 
1766.00, 
1767.00, 
1768.00, 
1769.00, 
1770.00, 
1771.00, 
1772.00, 
1773.00, 
1774.00, 
1775.00, 
1776.00, 
1777.00, 
1778.00, 
1779.00, 
1780.00, 
1781.00, 
1782.00, 
1783.00, 
1784.00, 
1785.00, 
1786.00, 
1787.00, 
1788.00, 
1789.00, 
1790.00, 
1791.00, 
1792.00, 
1793.00, 
1794.00, 
1795.00, 
1796.00, 
1797.00, 
1798.00, 
1799.00, 
1800.00, 
1801.00, 
1802.00, 
1803.00, 
1804.00, 
1805.00, 
1806.00, 
1807.00, 
1808.00, 
1809.00, 
1810.00, 
1811.00, 
1812.00, 
1813.00, 
1814.00, 
1815.00, 
1816.00, 
1817.00, 
1818.00, 
1819.00, 
1820.00, 
1821.00, 
1822.00, 
1823.00, 
1824.00, 
1825.00, 
1826.00, 
1827.00, 
1828.00, 
1829.00, 
1830.00, 
1831.00, 
1832.00, 
1833.00, 
1834.00, 
1835.00, 
1836.00, 
1837.00, 
1838.00, 
1839.00, 
1840.00, 
1841.00, 
1842.00, 
1843.00, 
1844.00, 
1845.00, 
1846.00, 
1847.00, 
1848.00, 
1849.00, 
1850.00, 
1851.00, 
1852.00, 
1853.00, 
1854.00, 
1855.00, 
1856.00, 
1857.00, 
1858.00, 
1859.00, 
1860.00, 
1861.00, 
1862.00, 
1863.00, 
1864.00, 
1865.00, 
1866.00, 
1867.00, 
1868.00, 
1869.00, 
1870.00, 
1871.00, 
1872.00, 
1873.00, 
1874.00, 
1875.00, 
1876.00, 
1877.00, 
1878.00, 
1879.00, 
1880.00, 
1881.00, 
1882.00, 
1883.00, 
1884.00, 
1885.00, 
1886.00, 
1887.00, 
1888.00, 
1889.00, 
1890.00, 
1891.00, 
1892.00, 
1893.00, 
1894.00, 
1895.00, 
1896.00, 
1897.00, 
1898.00, 
1899.00, 
1900.00, 
1901.00, 
1902.00, 
1903.00, 
1904.00, 
1905.00, 
1906.00, 
1907.00, 
1908.00, 
1909.00, 
1910.00, 
1911.00, 
1912.00, 
1913.00, 
1914.00, 
1915.00, 
1916.00, 
1917.00, 
1918.00, 
1919.00, 
1920.00, 
1921.00, 
1922.00, 
1923.00, 
1924.00, 
1925.00, 
1926.00, 
1927.00, 
1928.00, 
1929.00, 
1930.00, 
1931.00, 
1932.00, 
1933.00, 
1934.00, 
1935.00, 
1936.00, 
1937.00, 
1938.00, 
1939.00, 
1940.00, 
1941.00, 
1942.00, 
1943.00, 
1944.00, 
1945.00, 
1946.00, 
1947.00, 
1948.00, 
1949.00, 
1950.00, 
1951.00, 
1952.00, 
1953.00, 
1954.00, 
1955.00, 
1956.00, 
1957.00, 
1958.00, 
1959.00, 
1960.00, 
1961.00, 
1962.00, 
1963.00, 
1964.00, 
1965.00, 
1966.00, 
1967.00, 
1968.00, 
1969.00, 
1970.00, 
1971.00, 
1972.00, 
1973.00, 
1974.00, 
1975.00, 
1976.00, 
1977.00, 
1978.00, 
1979.00, 
1980.00, 
1981.00, 
1982.00, 
1983.00, 
1984.00, 
1985.00, 
1986.00, 
1987.00, 
1988.00, 
1989.00, 
1990.00, 
1991.00, 
1992.00, 
1993.00, 
1994.00, 
1995.00, 
1996.00, 
1997.00, 
1998.00, 
1999.00, 
2000.00, 
2001.00, 
2002.00, 
2003.00, 
2004.00, 
2005.00, 
2006.00, 
2007.00, 
2008.00, 
2009.00, 
2010.00, 
2011.00, 
2012.00, 
2013.00, 
2014.00, 
2015.00, 
2016.00, 
2017.00, 
2018.00, 
2019.00, 
2020.00, 
2021.00, 
2022.00, 
2023.00, 
2024.00, 
2025.00, 
2026.00, 
2027.00, 
2028.00, 
2029.00, 
2030.00, 
2031.00, 
2032.00, 
2033.00, 
2034.00, 
2035.00, 
2036.00, 
2037.00, 
2038.00, 
2039.00, 
2040.00, 
2041.00, 
2042.00, 
2043.00, 
2044.00, 
2045.00, 
2046.00, 
2047.00, 
2048.00, 
2049.00, 
2050.00, 
2051.00, 
2052.00, 
2053.00, 
2054.00, 
2055.00, 
2056.00, 
2057.00, 
2058.00, 
2059.00, 
2060.00, 
2061.00, 
2062.00, 
2063.00, 
2064.00, 
2065.00, 
2066.00, 
2067.00, 
2068.00, 
2069.00, 
2070.00, 
2071.00, 
2072.00, 
2073.00, 
2074.00, 
2075.00, 
2076.00, 
2077.00, 
2078.00, 
2079.00, 
2080.00, 
2081.00, 
2082.00, 
2083.00, 
2084.00, 
2085.00, 
2086.00, 
2087.00, 
2088.00, 
2089.00, 
2090.00, 
2091.00, 
2092.00, 
2093.00, 
2094.00, 
2095.00, 
2096.00, 
2097.00, 
2098.00, 
2099.00, 
2100.00, 
2101.00, 
2102.00, 
2103.00, 
2104.00, 
2105.00, 
2106.00, 
2107.00, 
2108.00, 
2109.00, 
2110.00, 
2111.00, 
2112.00, 
2113.00, 
2114.00, 
2115.00, 
2116.00, 
2117.00, 
2118.00, 
2119.00, 
2120.00, 
2121.00, 
2122.00, 
2123.00, 
2124.00, 
2125.00, 
2126.00, 
2127.00, 
2128.00, 
2129.00, 
2130.00, 
2131.00, 
2132.00, 
2133.00, 
2134.00, 
2135.00, 
2136.00, 
2137.00, 
2138.00, 
2139.00, 
2140.00, 
2141.00, 
2142.00, 
2143.00, 
2144.00, 
2145.00, 
2146.00, 
2147.00, 
2148.00, 
2149.00, 
2150.00, 
2151.00, 
2152.00, 
2153.00, 
2154.00, 
2155.00, 
2156.00, 
2157.00, 
2158.00, 
2159.00, 
2160.00, 
2161.00, 
2162.00, 
2163.00, 
2164.00, 
2165.00, 
2166.00, 
2167.00, 
2168.00, 
2169.00, 
2170.00, 
2171.00, 
2172.00, 
2173.00, 
2174.00, 
2175.00, 
2176.00, 
2177.00, 
2178.00, 
2179.00, 
2180.00, 
2181.00, 
2182.00, 
2183.00, 
2184.00, 
2185.00, 
2186.00, 
2187.00, 
2188.00, 
2189.00, 
2190.00, 
2191.00, 
2192.00, 
2193.00, 
2194.00, 
2195.00, 
2196.00, 
2197.00, 
2198.00, 
2199.00, 
2200.00, 
2201.00, 
2202.00, 
2203.00, 
2204.00, 
2205.00, 
2206.00, 
2207.00, 
2208.00, 
2209.00, 
2210.00, 
2211.00, 
2212.00, 
2213.00, 
2214.00, 
2215.00, 
2216.00, 
2217.00, 
2218.00, 
2219.00, 
2220.00, 
2221.00, 
2222.00, 
2223.00, 
2224.00, 
2225.00, 
2226.00, 
2227.00, 
2228.00, 
2229.00, 
2230.00, 
2231.00, 
2232.00, 
2233.00, 
2234.00, 
2235.00, 
2236.00, 
2237.00, 
2238.00, 
2239.00, 
2240.00, 
2241.00, 
2242.00, 
2243.00, 
2244.00, 
2245.00, 
2246.00, 
2247.00, 
2248.00, 
2249.00, 
2250.00, 
2251.00, 
2252.00, 
2253.00, 
2254.00, 
2255.00, 
2256.00, 
2257.00, 
2258.00, 
2259.00, 
2260.00, 
2261.00, 
2262.00, 
2263.00, 
2264.00, 
2265.00, 
2266.00, 
2267.00, 
2268.00, 
2269.00, 
2270.00, 
2271.00, 
2272.00, 
2273.00, 
2274.00, 
2275.00, 
2276.00, 
2277.00, 
2278.00, 
2279.00, 
2280.00, 
2281.00, 
2282.00, 
2283.00, 
2284.00, 
2285.00, 
2286.00, 
2287.00, 
2288.00, 
2289.00, 
2290.00, 
2291.00, 
2292.00, 
2293.00, 
2294.00, 
2295.00, 
2296.00, 
2297.00, 
2298.00, 
2299.00, 
2300.00, 
2301.00, 
2302.00, 
2303.00, 
2304.00, 
2305.00, 
2306.00, 
2307.00, 
2308.00, 
2309.00, 
2310.00, 
2311.00, 
2312.00, 
2313.00, 
2314.00, 
2315.00, 
2316.00, 
2317.00, 
2318.00, 
2319.00, 
2320.00, 
2321.00, 
2322.00, 
2323.00, 
2324.00, 
2325.00, 
2326.00, 
2327.00, 
2328.00, 
2329.00, 
2330.00, 
2331.00, 
2332.00, 
2333.00, 
2334.00, 
2335.00, 
2336.00, 
2337.00, 
2338.00, 
2339.00, 
2340.00, 
2341.00, 
2342.00, 
2343.00, 
2344.00, 
2345.00, 
2346.00, 
2347.00, 
2348.00, 
2349.00, 
2350.00, 
2351.00, 
2352.00, 
2353.00, 
2354.00, 
2355.00, 
2356.00, 
2357.00, 
2358.00, 
2359.00, 
2360.00, 
2361.00, 
2362.00, 
2363.00, 
2364.00, 
2365.00, 
2366.00, 
2367.00, 
2368.00, 
2369.00, 
2370.00, 
2371.00, 
2372.00, 
2373.00, 
2374.00, 
2375.00, 
2376.00, 
2377.00, 
2378.00, 
2379.00, 
2380.00, 
2381.00, 
2382.00, 
2383.00, 
2384.00, 
2385.00, 
2386.00, 
2387.00, 
2388.00, 
2389.00, 
2390.00, 
2391.00, 
2392.00, 
2393.00, 
2394.00, 
2395.00, 
2396.00, 
2397.00, 
2398.00, 
2399.00, 
2400.00, 
2401.00, 
2402.00, 
2403.00, 
2404.00, 
2405.00, 
2406.00, 
2407.00, 
2408.00, 
2409.00, 
2410.00, 
2411.00, 
2412.00, 
2413.00, 
2414.00, 
2415.00, 
2416.00, 
2417.00, 
2418.00, 
2419.00, 
2420.00, 
2421.00, 
2422.00, 
2423.00, 
2424.00, 
2425.00, 
2426.00, 
2427.00, 
2428.00, 
2429.00, 
2430.00, 
2431.00, 
2432.00, 
2433.00, 
2434.00, 
2435.00, 
2436.00, 
2437.00, 
2438.00, 
2439.00, 
2440.00, 
2441.00, 
2442.00, 
2443.00, 
2444.00, 
2445.00, 
2446.00, 
2447.00, 
2448.00, 
2449.00, 
2450.00, 
2451.00, 
2452.00, 
2453.00, 
2454.00, 
2455.00, 
2456.00, 
2457.00, 
2458.00, 
2459.00, 
2460.00, 
2461.00, 
2462.00, 
2463.00, 
2464.00, 
2465.00, 
2466.00, 
2467.00, 
2468.00, 
2469.00, 
2470.00, 
2471.00, 
2472.00, 
2473.00, 
2474.00, 
2475.00, 
2476.00, 
2477.00, 
2478.00, 
2479.00, 
2480.00, 
2481.00, 
2482.00, 
2483.00, 
2484.00, 
2485.00, 
2486.00, 
2487.00, 
2488.00, 
2489.00, 
2490.00, 
2491.00, 
2492.00, 
2493.00, 
2494.00, 
2495.00, 
2496.00, 
2497.00, 
2498.00, 
2499.00, 
2500.00, 
2501.00, 
2502.00, 
2503.00, 
2504.00, 
2505.00, 
2506.00, 
2507.00, 
2508.00, 
2509.00, 
2510.00, 
2511.00, 
2512.00, 
2513.00, 
2514.00, 
2515.00, 
2516.00, 
2517.00, 
2518.00, 
2519.00, 
2520.00, 
2521.00, 
2522.00, 
2523.00, 
2524.00, 
2525.00, 
2526.00, 
2527.00, 
2528.00, 
2529.00, 
2530.00, 
2531.00, 
2532.00, 
2533.00, 
2534.00, 
2535.00, 
2536.00, 
2537.00, 
2538.00, 
2539.00, 
2540.00, 
2541.00, 
2542.00, 
2543.00, 
2544.00, 
2545.00, 
2546.00, 
2547.00, 
2548.00, 
2549.00, 
2550.00, 
2551.00, 
2552.00, 
2553.00, 
2554.00, 
2555.00, 
2556.00, 
2557.00, 
2558.00, 
2559.00, 
2560.00, 
2561.00, 
2562.00, 
2563.00, 
2564.00, 
2565.00, 
2566.00, 
2567.00, 
2568.00, 
2569.00, 
2570.00, 
2571.00, 
2572.00, 
2573.00, 
2574.00, 
2575.00, 
2576.00, 
2577.00, 
2578.00, 
2579.00, 
2580.00, 
2581.00, 
2582.00, 
2583.00, 
2584.00, 
2585.00, 
2586.00, 
2587.00, 
2588.00, 
2589.00, 
2590.00, 
2591.00, 
2592.00, 
2593.00, 
2594.00, 
2595.00, 
2596.00, 
2597.00, 
2598.00, 
2599.00, 
2600.00, 
