"2cP5 - RawData"
"Wavelength nm.","T%"
200.00,0.002
201.00,-0.001
202.00,0.003
203.00,-0.002
204.00,0.002
205.00,-0.000
206.00,0.000
207.00,-0.001
208.00,0.001
209.00,0.002
210.00,0.004
211.00,0.000
212.00,0.001
213.00,0.001
214.00,0.000
215.00,0.001
216.00,-0.003
217.00,0.000
218.00,-0.000
219.00,0.001
220.00,0.001
221.00,0.003
222.00,0.001
223.00,0.001
224.00,0.001
225.00,0.000
226.00,-0.002
227.00,0.002
228.00,0.001
229.00,-0.002
230.00,0.003
231.00,-0.000
232.00,0.001
233.00,0.002
234.00,0.001
235.00,0.003
236.00,-0.000
237.00,0.001
238.00,0.001
239.00,-0.001
240.00,-0.001
241.00,0.000
242.00,0.000
243.00,-0.000
244.00,0.001
245.00,-0.001
246.00,-0.000
247.00,0.002
248.00,0.000
249.00,0.000
250.00,0.002
251.00,-0.000
252.00,-0.002
253.00,0.002
254.00,-0.000
255.00,0.001
256.00,-0.000
257.00,0.001
258.00,-0.000
259.00,0.001
260.00,0.002
261.00,-0.000
262.00,-0.001
263.00,-0.001
264.00,0.000
265.00,0.001
266.00,0.001
267.00,-0.001
268.00,-0.001
269.00,-0.001
270.00,-0.000
271.00,0.001
272.00,-0.000
273.00,0.001
274.00,0.001
275.00,0.001
276.00,-0.001
277.00,0.002
278.00,0.002
279.00,0.001
280.00,0.001
281.00,0.000
282.00,-0.001
283.00,0.000
284.00,0.000
285.00,0.000
286.00,0.001
287.00,-0.002
288.00,0.001
289.00,0.001
290.00,0.000
291.00,-0.000
292.00,0.001
293.00,-0.002
294.00,-0.001
295.00,-0.001
296.00,-0.000
297.00,-0.000
298.00,0.001
299.00,0.003
300.00,0.002
301.00,0.002
302.00,0.004
303.00,0.007
304.00,0.009
305.00,0.014
306.00,0.024
307.00,0.037
308.00,0.053
309.00,0.085
310.00,0.118
311.00,0.160
312.00,0.222
313.00,0.299
314.00,0.393
315.00,0.516
316.00,0.655
317.00,0.830
318.00,1.013
319.00,1.247
320.00,1.500
321.00,1.803
322.00,2.145
323.00,2.531
324.00,2.912
325.00,3.333
326.00,3.751
327.00,4.260
328.00,4.737
329.00,5.185
330.00,5.728
331.00,6.280
332.00,6.819
333.00,7.417
334.00,7.943
335.00,8.522
336.00,9.070
337.00,9.639
338.00,10.183
339.00,10.675
340.00,11.205
341.00,11.713
342.00,12.190
343.00,12.631
344.00,13.059
345.00,13.521
346.00,13.878
347.00,14.247
348.00,14.545
349.00,14.908
350.00,15.212
351.00,15.531
352.00,15.783
353.00,16.025
354.00,16.268
355.00,16.503
356.00,16.705
357.00,16.891
358.00,17.046
359.00,17.272
360.00,17.406
361.00,17.509
362.00,17.665
363.00,17.762
364.00,17.824
365.00,17.915
366.00,18.003
367.00,18.072
368.00,18.094
369.00,18.084
370.00,18.154
371.00,18.142
372.00,18.170
373.00,18.141
374.00,18.146
375.00,18.138
376.00,18.079
377.00,18.059
378.00,17.979
379.00,17.951
380.00,17.935
381.00,17.903
382.00,17.882
383.00,17.910
384.00,17.897
385.00,17.943
386.00,17.886
387.00,17.950
388.00,17.994
389.00,17.985
390.00,17.981
391.00,17.995
392.00,18.014
393.00,18.038
394.00,17.978
395.00,18.029
396.00,18.003
397.00,18.044
398.00,18.027
399.00,18.020
400.00,18.011
401.00,18.037
402.00,18.003
403.00,18.003
404.00,18.014
405.00,17.989
406.00,17.965
407.00,17.939
408.00,17.952
409.00,17.882
410.00,17.864
411.00,17.878
412.00,17.904
413.00,17.870
414.00,17.900
415.00,17.938
416.00,17.917
417.00,17.923
418.00,17.915
419.00,17.994
420.00,18.020
421.00,18.070
422.00,18.086
423.00,18.137
424.00,18.166
425.00,18.189
426.00,18.205
427.00,18.252
428.00,18.314
429.00,18.344
430.00,18.404
431.00,18.460
432.00,18.523
433.00,18.564
434.00,18.652
435.00,18.711
436.00,18.751
437.00,18.826
438.00,18.871
439.00,18.941
440.00,19.034
441.00,19.127
442.00,19.203
443.00,19.273
444.00,19.372
445.00,19.475
446.00,19.577
447.00,19.666
448.00,19.749
449.00,19.868
450.00,19.975
451.00,20.066
452.00,20.162
453.00,20.290
454.00,20.381
455.00,20.508
456.00,20.616
457.00,20.752
458.00,20.843
459.00,20.967
460.00,21.112
461.00,21.247
462.00,21.362
463.00,21.500
464.00,21.646
465.00,21.759
466.00,21.872
467.00,22.047
468.00,22.126
469.00,22.261
470.00,22.363
471.00,22.468
472.00,22.603
473.00,22.693
474.00,22.833
475.00,22.972
476.00,23.063
477.00,23.187
478.00,23.326
479.00,23.505
480.00,23.654
481.00,23.775
482.00,23.940
483.00,24.083
484.00,24.265
485.00,24.415
486.00,24.574
487.00,24.727
488.00,24.873
489.00,25.032
490.00,25.163
491.00,25.318
492.00,25.536
493.00,25.734
494.00,25.709
495.00,25.927
496.00,26.019
497.00,26.154
498.00,26.285
499.00,26.433
500.00,26.599
501.00,26.682
502.00,26.878
503.00,27.008
504.00,27.070
505.00,27.226
506.00,27.295
507.00,27.470
508.00,27.639
509.00,27.735
510.00,27.839
511.00,27.903
512.00,28.119
513.00,28.306
514.00,28.410
515.00,28.573
516.00,28.674
517.00,28.783
518.00,28.914
519.00,28.973
520.00,29.048
521.00,29.162
522.00,29.254
523.00,29.313
524.00,29.452
525.00,29.561
526.00,29.656
527.00,29.705
528.00,29.817
529.00,29.991
530.00,30.180
531.00,30.248
532.00,30.376
533.00,30.450
534.00,30.568
535.00,30.635
536.00,30.746
537.00,30.830
538.00,30.904
539.00,30.948
540.00,31.061
541.00,31.096
542.00,31.147
543.00,31.248
544.00,31.315
545.00,31.408
546.00,31.470
547.00,31.573
548.00,31.688
549.00,31.757
550.00,31.825
551.00,31.936
552.00,31.960
553.00,32.062
554.00,32.146
555.00,32.122
556.00,32.219
557.00,32.301
558.00,32.365
559.00,32.440
560.00,32.447
561.00,32.543
562.00,32.607
563.00,32.609
564.00,32.702
565.00,32.729
566.00,32.778
567.00,32.843
568.00,32.829
569.00,32.859
570.00,32.918
571.00,32.887
572.00,33.078
573.00,33.077
574.00,33.162
575.00,33.139
576.00,33.154
577.00,33.238
578.00,33.376
579.00,33.435
580.00,33.431
581.00,33.581
582.00,33.656
583.00,33.675
584.00,33.722
585.00,33.836
586.00,33.909
587.00,33.973
588.00,33.981
589.00,33.923
590.00,34.042
591.00,34.167
592.00,34.106
593.00,34.147
594.00,34.226
595.00,34.295
596.00,34.345
597.00,34.388
598.00,34.449
599.00,34.435
600.00,34.593
601.00,34.706
602.00,34.653
603.00,34.649
604.00,34.730
605.00,34.797
606.00,34.845
607.00,34.855
608.00,35.036
609.00,35.152
610.00,34.948
611.00,35.074
612.00,35.136
613.00,35.150
614.00,35.268
615.00,35.353
616.00,35.397
617.00,35.438
618.00,35.456
619.00,35.566
620.00,35.505
621.00,35.653
622.00,35.845
623.00,35.838
624.00,35.870
625.00,35.951
626.00,36.010
627.00,36.072
628.00,36.116
629.00,36.130
630.00,36.206
631.00,36.311
632.00,36.417
633.00,36.525
634.00,36.564
635.00,36.713
636.00,36.833
637.00,36.807
638.00,36.892
639.00,37.031
640.00,37.101
641.00,37.087
642.00,37.233
643.00,37.289
644.00,37.409
645.00,37.460
646.00,37.574
647.00,37.705
648.00,37.790
649.00,37.806
650.00,37.862
651.00,38.067
652.00,38.128
653.00,38.169
654.00,38.259
655.00,38.482
656.00,38.725
657.00,38.626
658.00,38.773
659.00,38.749
660.00,38.820
661.00,38.944
662.00,39.011
663.00,39.168
664.00,39.364
665.00,39.580
666.00,39.810
667.00,39.702
668.00,39.799
669.00,39.945
670.00,40.173
671.00,40.117
672.00,40.323
673.00,40.360
674.00,40.425
675.00,40.580
676.00,40.823
677.00,40.872
678.00,40.768
679.00,40.981
680.00,41.119
681.00,41.249
682.00,41.322
683.00,41.400
684.00,41.545
685.00,41.587
686.00,41.399
687.00,41.894
688.00,42.136
689.00,41.952
690.00,42.224
691.00,42.488
692.00,42.348
693.00,42.365
694.00,42.589
695.00,42.745
696.00,42.892
697.00,42.876
698.00,43.043
699.00,43.273
700.00,43.189
701.00,43.279
702.00,43.516
703.00,43.585
704.00,43.679
705.00,43.717
706.00,43.698
707.00,43.822
708.00,43.993
709.00,44.296
710.00,44.465
711.00,44.604
712.00,44.307
713.00,44.589
714.00,44.677
715.00,44.673
716.00,44.642
717.00,44.873
718.00,45.084
719.00,45.031
720.00,45.158
721.00,49.508
722.00,49.538
723.00,49.579
724.00,49.582
725.00,49.710
726.00,49.768
727.00,49.833
728.00,49.802
729.00,49.836
730.00,49.923
731.00,49.958
732.00,49.998
733.00,50.142
734.00,50.162
735.00,50.203
736.00,50.293
737.00,50.298
738.00,50.413
739.00,50.418
740.00,50.468
741.00,50.605
742.00,50.639
743.00,50.610
744.00,50.589
745.00,50.636
746.00,50.699
747.00,50.625
748.00,50.690
749.00,50.745
750.00,50.719
751.00,50.739
752.00,50.805
753.00,50.803
754.00,50.867
755.00,50.861
756.00,50.893
757.00,50.910
758.00,51.031
759.00,50.970
760.00,51.051
761.00,51.080
762.00,51.067
763.00,51.118
764.00,51.115
765.00,51.140
766.00,51.213
767.00,51.115
768.00,51.254
769.00,51.274
770.00,51.305
771.00,51.328
772.00,51.369
773.00,51.318
774.00,51.451
775.00,51.367
776.00,51.472
777.00,51.507
778.00,51.435
779.00,51.459
780.00,51.486
781.00,51.528
782.00,51.569
783.00,51.534
784.00,51.613
785.00,51.550
786.00,51.570
787.00,51.582
788.00,51.605
789.00,51.539
790.00,51.550
791.00,51.544
792.00,51.560
793.00,51.541
794.00,51.598
795.00,51.562
796.00,51.555
797.00,51.558
798.00,51.600
799.00,51.528
800.00,51.485
801.00,51.482
802.00,51.532
803.00,51.496
804.00,51.489
805.00,51.506
806.00,51.526
807.00,51.497
808.00,51.497
809.00,51.502
810.00,51.485
811.00,51.531
812.00,51.546
813.00,51.552
814.00,51.501
815.00,51.497
816.00,51.529
817.00,51.472
818.00,51.377
819.00,51.396
820.00,51.330
821.00,51.481
822.00,51.349
823.00,51.346
824.00,51.398
825.00,51.328
826.00,51.372
827.00,51.417
828.00,51.415
829.00,51.390
830.00,51.386
831.00,53.536
832.00,53.565
833.00,53.480
834.00,53.551
835.00,53.472
836.00,53.499
837.00,53.420
838.00,53.405
839.00,53.531
840.00,53.362
841.00,53.416
842.00,53.368
843.00,53.383
844.00,53.358
845.00,53.328
846.00,53.325
847.00,53.332
848.00,53.354
849.00,53.279
850.00,53.274
851.00,53.218
852.00,53.245
853.00,53.153
854.00,53.161
855.00,53.105
856.00,53.142
857.00,53.088
858.00,53.050
859.00,53.048
860.00,53.069
861.00,53.053
862.00,52.999
863.00,53.055
864.00,52.958
865.00,52.998
866.00,52.959
867.00,52.971
868.00,52.967
869.00,52.931
870.00,52.932
871.00,52.941
872.00,52.951
873.00,52.923
874.00,52.936
875.00,52.878
876.00,52.911
877.00,52.902
878.00,52.859
879.00,52.840
880.00,52.845
881.00,52.785
882.00,52.821
883.00,52.827
884.00,52.803
885.00,52.706
886.00,52.812
887.00,52.736
888.00,52.727
889.00,52.711
890.00,52.730
891.00,52.664
892.00,52.641
893.00,52.632
894.00,52.625
895.00,52.613
896.00,52.571
897.00,52.544
898.00,52.550
899.00,52.554
900.00,52.529
901.00,52.513
902.00,52.524
903.00,52.482
904.00,52.484
905.00,52.462
906.00,52.452
907.00,52.447
908.00,52.409
909.00,52.396
910.00,52.359
911.00,52.347
912.00,52.354
913.00,52.304
914.00,52.291
915.00,52.265
916.00,52.247
917.00,52.223
918.00,52.210
919.00,52.212
920.00,52.166
921.00,52.154
922.00,52.145
923.00,52.147
924.00,52.116
925.00,52.107
926.00,52.240
927.00,52.100
928.00,52.048
929.00,52.055
930.00,52.027
931.00,52.016
932.00,51.957
933.00,51.978
934.00,51.959
935.00,51.935
936.00,51.912
937.00,51.902
938.00,51.903
939.00,51.873
940.00,51.828
941.00,51.843
942.00,51.795
943.00,51.794
944.00,51.761
945.00,51.777
946.00,51.787
947.00,51.737
948.00,51.713
949.00,51.689
950.00,51.686
951.00,51.652
952.00,51.633
953.00,51.582
954.00,51.564
955.00,51.503
956.00,51.523
957.00,51.484
958.00,51.505
959.00,51.445
960.00,51.442
961.00,51.431
962.00,51.423
963.00,51.371
964.00,51.367
965.00,51.355
966.00,51.344
967.00,51.343
968.00,51.295
969.00,51.363
970.00,51.311
971.00,51.349
972.00,51.360
973.00,51.333
974.00,51.365
975.00,51.318
976.00,51.339
977.00,51.334
978.00,51.372
979.00,51.337
980.00,51.353
981.00,51.360
982.00,51.316
983.00,51.336
984.00,51.321
985.00,51.324
986.00,51.259
987.00,51.344
988.00,51.285
989.00,51.249
990.00,51.270
991.00,51.246
992.00,51.274
993.00,51.235
994.00,51.221
995.00,51.199
996.00,51.198
997.00,51.197
998.00,51.170
999.00,51.187
1000.00,51.122
1001.00,51.131
1002.00,51.122
1003.00,51.105
1004.00,51.094
1005.00,51.053
1006.00,51.078
1007.00,51.044
1008.00,51.038
1009.00,51.026
1010.00,51.009
1011.00,51.001
1012.00,50.979
1013.00,50.991
1014.00,50.950
1015.00,50.975
1016.00,50.929
1017.00,50.928
1018.00,50.955
1019.00,50.876
1020.00,50.878
1021.00,50.867
1022.00,50.842
1023.00,50.811
1024.00,50.853
1025.00,50.793
1026.00,50.789
1027.00,50.769
1028.00,50.746
1029.00,50.745
1030.00,50.710
1031.00,50.726
1032.00,50.680
1033.00,50.669
1034.00,50.653
1035.00,50.605
1036.00,50.580
1037.00,50.592
1038.00,50.596
1039.00,50.540
1040.00,50.537
1041.00,50.502
1042.00,50.487
1043.00,50.461
1044.00,50.490
1045.00,50.484
1046.00,50.469
1047.00,50.480
1048.00,50.494
1049.00,50.505
1050.00,50.481
1051.00,50.533
1052.00,50.534
1053.00,50.533
1054.00,50.530
1055.00,50.543
1056.00,50.568
1057.00,50.568
1058.00,50.556
1059.00,50.550
1060.00,50.558
1061.00,50.532
1062.00,50.529
1063.00,50.533
1064.00,50.540
1065.00,50.528
1066.00,50.504
1067.00,50.503
1068.00,50.523
1069.00,50.475
1070.00,50.479
1071.00,50.462
1072.00,50.466
1073.00,50.451
1074.00,50.438
1075.00,50.406
1076.00,50.426
1077.00,50.418
1078.00,50.405
1079.00,50.406
1080.00,50.401
1081.00,50.386
1082.00,50.384
1083.00,50.367
1084.00,50.374
1085.00,50.411
1086.00,50.345
1087.00,50.342
1088.00,50.313
1089.00,50.321
1090.00,50.315
1091.00,50.307
1092.00,50.298
1093.00,50.276
1094.00,50.255
1095.00,50.254
1096.00,50.237
1097.00,50.240
1098.00,50.224
1099.00,50.223
1100.00,50.229
1101.00,50.208
1102.00,50.185
1103.00,50.189
1104.00,50.175
1105.00,50.155
1106.00,50.156
1107.00,50.154
1108.00,50.135
1109.00,50.129
1110.00,50.113
1111.00,50.117
1112.00,50.106
1113.00,50.089
1114.00,50.097
1115.00,50.098
1116.00,50.058
1117.00,50.056
1118.00,50.050
1119.00,50.041
1120.00,50.035
1121.00,50.027
1122.00,50.031
1123.00,50.023
1124.00,50.013
1125.00,50.046
1126.00,50.000
1127.00,49.994
1128.00,50.000
1129.00,49.963
1130.00,49.955
1131.00,49.981
1132.00,49.931
1133.00,49.935
1134.00,49.941
1135.00,49.936
1136.00,49.930
1137.00,49.934
1138.00,49.911
1139.00,49.929
1140.00,49.912
1141.00,49.912
1142.00,49.900
1143.00,49.897
1144.00,49.881
1145.00,49.898
1146.00,49.890
1147.00,49.860
1148.00,49.852
1149.00,49.849
1150.00,49.861
1151.00,49.864
1152.00,49.841
1153.00,49.849
1154.00,49.829
1155.00,49.849
1156.00,49.844
1157.00,49.836
1158.00,49.837
1159.00,49.830
1160.00,49.832
1161.00,49.858
1162.00,49.829
1163.00,49.815
1164.00,49.818
1165.00,49.800
1166.00,49.823
1167.00,49.806
1168.00,49.821
1169.00,49.819
1170.00,49.820
1171.00,49.784
1172.00,49.797
1173.00,49.793
1174.00,49.791
1175.00,49.803
1176.00,49.798
1177.00,49.783
1178.00,49.780
1179.00,49.782
1180.00,49.767
1181.00,49.794
1182.00,49.778
1183.00,49.767
1184.00,49.760
1185.00,49.762
1186.00,49.767
1187.00,49.747
1188.00,49.741
1189.00,49.751
1190.00,49.741
1191.00,49.754
1192.00,49.783
1193.00,49.727
1194.00,49.744
1195.00,49.719
1196.00,49.750
1197.00,49.751
1198.00,49.725
1199.00,49.747
1200.00,49.741
1201.00,49.751
1202.00,49.743
1203.00,49.739
1204.00,49.725
1205.00,49.732
1206.00,49.725
1207.00,49.749
1208.00,49.723
1209.00,49.722
1210.00,49.740
1211.00,49.726
1212.00,49.728
1213.00,49.709
1214.00,49.734
1215.00,49.697
1216.00,49.727
1217.00,49.733
1218.00,49.712
1219.00,49.748
1220.00,49.723
1221.00,49.722
1222.00,49.700
1223.00,49.710
1224.00,49.701
1225.00,49.679
1226.00,49.676
1227.00,49.690
1228.00,49.708
1229.00,49.701
1230.00,49.751
1231.00,49.738
1232.00,49.774
1233.00,49.767
1234.00,49.761
1235.00,49.765
1236.00,49.760
1237.00,49.762
1238.00,49.763
1239.00,49.773
1240.00,49.744
1241.00,49.754
1242.00,49.752
1243.00,49.774
1244.00,49.750
1245.00,49.759
1246.00,49.777
1247.00,49.766
1248.00,49.749
1249.00,49.769
1250.00,49.786
1251.00,49.764
1252.00,49.805
1253.00,49.794
1254.00,49.798
1255.00,49.798
1256.00,49.756
1257.00,49.763
1258.00,49.811
1259.00,49.787
1260.00,49.812
1261.00,49.824
1262.00,49.801
1263.00,49.807
1264.00,49.795
1265.00,49.811
1266.00,49.787
1267.00,49.832
1268.00,49.844
1269.00,49.829
1270.00,49.829
1271.00,49.839
1272.00,49.853
1273.00,49.859
1274.00,49.854
1275.00,49.840
1276.00,49.855
1277.00,49.848
1278.00,49.859
1279.00,49.874
1280.00,49.873
1281.00,49.867
1282.00,49.884
1283.00,49.879
1284.00,49.881
1285.00,49.873
1286.00,49.891
1287.00,49.888
1288.00,49.895
1289.00,49.880
1290.00,49.913
1291.00,49.904
1292.00,49.878
1293.00,49.905
1294.00,49.927
1295.00,49.921
1296.00,49.927
1297.00,49.921
1298.00,49.954
1299.00,49.937
1300.00,49.951
1301.00,49.942
1302.00,49.960
1303.00,49.961
1304.00,49.952
1305.00,49.968
1306.00,49.978
1307.00,49.999
1308.00,49.974
1309.00,49.997
1310.00,50.001
1311.00,49.991
1312.00,49.995
1313.00,50.004
1314.00,50.009
1315.00,50.034
1316.00,50.018
1317.00,50.050
1318.00,50.045
1319.00,50.038
1320.00,50.060
1321.00,50.209
1322.00,50.186
1323.00,50.197
1324.00,50.202
1325.00,50.189
1326.00,50.190
1327.00,50.172
1328.00,50.163
1329.00,50.174
1330.00,50.176
1331.00,50.189
1332.00,50.181
1333.00,50.159
1334.00,50.222
1335.00,50.251
1336.00,50.251
1337.00,50.293
1338.00,50.337
1339.00,50.385
1340.00,50.429
1341.00,50.488
1342.00,50.569
1343.00,50.613
1344.00,50.645
1345.00,50.731
1346.00,50.773
1347.00,50.798
1348.00,50.830
1349.00,50.834
1350.00,50.838
1351.00,50.855
1352.00,50.840
1353.00,50.836
1354.00,50.873
1355.00,50.841
1356.00,50.927
1357.00,50.854
1358.00,50.856
1359.00,50.933
1360.00,50.846
1361.00,50.954
1362.00,50.954
1363.00,50.946
1364.00,51.016
1365.00,50.906
1366.00,50.906
1367.00,50.938
1368.00,50.871
1369.00,50.880
1370.00,50.926
1371.00,50.822
1372.00,50.872
1373.00,50.884
1374.00,50.881
1375.00,50.888
1376.00,50.866
1377.00,50.848
1378.00,50.903
1379.00,50.928
1380.00,50.868
1381.00,50.921
1382.00,50.875
1383.00,50.875
1384.00,50.835
1385.00,50.812
1386.00,50.880
1387.00,50.818
1388.00,50.795
1389.00,50.847
1390.00,50.882
1391.00,50.833
1392.00,50.832
1393.00,50.773
1394.00,50.832
1395.00,50.917
1396.00,50.784
1397.00,50.775
1398.00,50.873
1399.00,50.857
1400.00,50.823
1401.00,50.818
1402.00,50.808
1403.00,50.885
1404.00,50.853
1405.00,50.889
1406.00,50.880
1407.00,50.897
1408.00,50.941
1409.00,50.856
1410.00,50.902
1411.00,50.884
1412.00,50.878
1413.00,50.934
1414.00,50.949
1415.00,50.952
1416.00,50.958
1417.00,50.994
1418.00,50.970
1419.00,50.974
1420.00,50.990
1421.00,51.015
1422.00,51.023
1423.00,51.037
1424.00,51.036
1425.00,51.072
1426.00,51.054
1427.00,51.094
1428.00,51.093
1429.00,51.091
1430.00,51.118
1431.00,51.147
1432.00,51.127
1433.00,51.153
1434.00,51.144
1435.00,51.183
1436.00,51.195
1437.00,51.185
1438.00,51.216
1439.00,51.247
1440.00,51.276
1441.00,51.273
1442.00,51.266
1443.00,51.264
1444.00,51.344
1445.00,51.297
1446.00,51.303
1447.00,51.347
1448.00,51.375
1449.00,51.378
1450.00,51.377
1451.00,51.402
1452.00,51.431
1453.00,51.431
1454.00,51.436
1455.00,51.479
1456.00,51.493
1457.00,51.471
1458.00,51.510
1459.00,51.506
1460.00,51.541
1461.00,51.530
1462.00,51.555
1463.00,51.568
1464.00,51.578
1465.00,51.592
1466.00,51.597
1467.00,51.618
1468.00,51.661
1469.00,51.667
1470.00,51.666
1471.00,51.687
1472.00,51.723
1473.00,51.703
1474.00,51.741
1475.00,51.751
1476.00,51.738
1477.00,51.748
1478.00,51.766
1479.00,51.788
1480.00,51.789
1481.00,51.782
1482.00,51.822
1483.00,51.819
1484.00,51.816
1485.00,51.851
1486.00,51.850
1487.00,51.854
1488.00,51.887
1489.00,51.907
1490.00,51.904
1491.00,51.931
1492.00,51.949
1493.00,51.934
1494.00,51.961
1495.00,51.947
1496.00,51.981
1497.00,51.981
1498.00,51.954
1499.00,52.000
1500.00,52.026
1501.00, 
1502.00, 
1503.00, 
1504.00, 
1505.00, 
1506.00, 
1507.00, 
1508.00, 
1509.00, 
1510.00, 
1511.00, 
1512.00, 
1513.00, 
1514.00, 
1515.00, 
1516.00, 
1517.00, 
1518.00, 
1519.00, 
1520.00, 
1521.00, 
1522.00, 
1523.00, 
1524.00, 
1525.00, 
1526.00, 
1527.00, 
1528.00, 
1529.00, 
1530.00, 
1531.00, 
1532.00, 
1533.00, 
1534.00, 
1535.00, 
1536.00, 
1537.00, 
1538.00, 
1539.00, 
1540.00, 
1541.00, 
1542.00, 
1543.00, 
1544.00, 
1545.00, 
1546.00, 
1547.00, 
1548.00, 
1549.00, 
1550.00, 
1551.00, 
1552.00, 
1553.00, 
1554.00, 
1555.00, 
1556.00, 
1557.00, 
1558.00, 
1559.00, 
1560.00, 
1561.00, 
1562.00, 
1563.00, 
1564.00, 
1565.00, 
1566.00, 
1567.00, 
1568.00, 
1569.00, 
1570.00, 
1571.00, 
1572.00, 
1573.00, 
1574.00, 
1575.00, 
1576.00, 
1577.00, 
1578.00, 
1579.00, 
1580.00, 
1581.00, 
1582.00, 
1583.00, 
1584.00, 
1585.00, 
1586.00, 
1587.00, 
1588.00, 
1589.00, 
1590.00, 
1591.00, 
1592.00, 
1593.00, 
1594.00, 
1595.00, 
1596.00, 
1597.00, 
1598.00, 
1599.00, 
1600.00, 
1601.00, 
1602.00, 
1603.00, 
1604.00, 
1605.00, 
1606.00, 
1607.00, 
1608.00, 
1609.00, 
1610.00, 
1611.00, 
1612.00, 
1613.00, 
1614.00, 
1615.00, 
1616.00, 
1617.00, 
1618.00, 
1619.00, 
1620.00, 
1621.00, 
1622.00, 
1623.00, 
1624.00, 
1625.00, 
1626.00, 
1627.00, 
1628.00, 
1629.00, 
1630.00, 
1631.00, 
1632.00, 
1633.00, 
1634.00, 
1635.00, 
1636.00, 
1637.00, 
1638.00, 
1639.00, 
1640.00, 
1641.00, 
1642.00, 
1643.00, 
1644.00, 
1645.00, 
1646.00, 
1647.00, 
1648.00, 
1649.00, 
1650.00, 
1651.00, 
1652.00, 
1653.00, 
1654.00, 
1655.00, 
1656.00, 
1657.00, 
1658.00, 
1659.00, 
1660.00, 
1661.00, 
1662.00, 
1663.00, 
1664.00, 
1665.00, 
1666.00, 
1667.00, 
1668.00, 
1669.00, 
1670.00, 
1671.00, 
1672.00, 
1673.00, 
1674.00, 
1675.00, 
1676.00, 
1677.00, 
1678.00, 
1679.00, 
1680.00, 
1681.00, 
1682.00, 
1683.00, 
1684.00, 
1685.00, 
1686.00, 
1687.00, 
1688.00, 
1689.00, 
1690.00, 
1691.00, 
1692.00, 
1693.00, 
1694.00, 
1695.00, 
1696.00, 
1697.00, 
1698.00, 
1699.00, 
1700.00, 
1701.00, 
1702.00, 
1703.00, 
1704.00, 
1705.00, 
1706.00, 
1707.00, 
1708.00, 
1709.00, 
1710.00, 
1711.00, 
1712.00, 
1713.00, 
1714.00, 
1715.00, 
1716.00, 
1717.00, 
1718.00, 
1719.00, 
1720.00, 
1721.00, 
1722.00, 
1723.00, 
1724.00, 
1725.00, 
1726.00, 
1727.00, 
1728.00, 
1729.00, 
1730.00, 
1731.00, 
1732.00, 
1733.00, 
1734.00, 
1735.00, 
1736.00, 
1737.00, 
1738.00, 
1739.00, 
1740.00, 
1741.00, 
1742.00, 
1743.00, 
1744.00, 
1745.00, 
1746.00, 
1747.00, 
1748.00, 
1749.00, 
1750.00, 
1751.00, 
1752.00, 
1753.00, 
1754.00, 
1755.00, 
1756.00, 
1757.00, 
1758.00, 
1759.00, 
1760.00, 
1761.00, 
1762.00, 
1763.00, 
1764.00, 
1765.00, 
1766.00, 
1767.00, 
1768.00, 
1769.00, 
1770.00, 
1771.00, 
1772.00, 
1773.00, 
1774.00, 
1775.00, 
1776.00, 
1777.00, 
1778.00, 
1779.00, 
1780.00, 
1781.00, 
1782.00, 
1783.00, 
1784.00, 
1785.00, 
1786.00, 
1787.00, 
1788.00, 
1789.00, 
1790.00, 
1791.00, 
1792.00, 
1793.00, 
1794.00, 
1795.00, 
1796.00, 
1797.00, 
1798.00, 
1799.00, 
1800.00, 
1801.00, 
1802.00, 
1803.00, 
1804.00, 
1805.00, 
1806.00, 
1807.00, 
1808.00, 
1809.00, 
1810.00, 
1811.00, 
1812.00, 
1813.00, 
1814.00, 
1815.00, 
1816.00, 
1817.00, 
1818.00, 
1819.00, 
1820.00, 
1821.00, 
1822.00, 
1823.00, 
1824.00, 
1825.00, 
1826.00, 
1827.00, 
1828.00, 
1829.00, 
1830.00, 
1831.00, 
1832.00, 
1833.00, 
1834.00, 
1835.00, 
1836.00, 
1837.00, 
1838.00, 
1839.00, 
1840.00, 
1841.00, 
1842.00, 
1843.00, 
1844.00, 
1845.00, 
1846.00, 
1847.00, 
1848.00, 
1849.00, 
1850.00, 
1851.00, 
1852.00, 
1853.00, 
1854.00, 
1855.00, 
1856.00, 
1857.00, 
1858.00, 
1859.00, 
1860.00, 
1861.00, 
1862.00, 
1863.00, 
1864.00, 
1865.00, 
1866.00, 
1867.00, 
1868.00, 
1869.00, 
1870.00, 
1871.00, 
1872.00, 
1873.00, 
1874.00, 
1875.00, 
1876.00, 
1877.00, 
1878.00, 
1879.00, 
1880.00, 
1881.00, 
1882.00, 
1883.00, 
1884.00, 
1885.00, 
1886.00, 
1887.00, 
1888.00, 
1889.00, 
1890.00, 
1891.00, 
1892.00, 
1893.00, 
1894.00, 
1895.00, 
1896.00, 
1897.00, 
1898.00, 
1899.00, 
1900.00, 
1901.00, 
1902.00, 
1903.00, 
1904.00, 
1905.00, 
1906.00, 
1907.00, 
1908.00, 
1909.00, 
1910.00, 
1911.00, 
1912.00, 
1913.00, 
1914.00, 
1915.00, 
1916.00, 
1917.00, 
1918.00, 
1919.00, 
1920.00, 
1921.00, 
1922.00, 
1923.00, 
1924.00, 
1925.00, 
1926.00, 
1927.00, 
1928.00, 
1929.00, 
1930.00, 
1931.00, 
1932.00, 
1933.00, 
1934.00, 
1935.00, 
1936.00, 
1937.00, 
1938.00, 
1939.00, 
1940.00, 
1941.00, 
1942.00, 
1943.00, 
1944.00, 
1945.00, 
1946.00, 
1947.00, 
1948.00, 
1949.00, 
1950.00, 
1951.00, 
1952.00, 
1953.00, 
1954.00, 
1955.00, 
1956.00, 
1957.00, 
1958.00, 
1959.00, 
1960.00, 
1961.00, 
1962.00, 
1963.00, 
1964.00, 
1965.00, 
1966.00, 
1967.00, 
1968.00, 
1969.00, 
1970.00, 
1971.00, 
1972.00, 
1973.00, 
1974.00, 
1975.00, 
1976.00, 
1977.00, 
1978.00, 
1979.00, 
1980.00, 
1981.00, 
1982.00, 
1983.00, 
1984.00, 
1985.00, 
1986.00, 
1987.00, 
1988.00, 
1989.00, 
1990.00, 
1991.00, 
1992.00, 
1993.00, 
1994.00, 
1995.00, 
1996.00, 
1997.00, 
1998.00, 
1999.00, 
2000.00, 
2001.00, 
2002.00, 
2003.00, 
2004.00, 
2005.00, 
2006.00, 
2007.00, 
2008.00, 
2009.00, 
2010.00, 
2011.00, 
2012.00, 
2013.00, 
2014.00, 
2015.00, 
2016.00, 
2017.00, 
2018.00, 
2019.00, 
2020.00, 
2021.00, 
2022.00, 
2023.00, 
2024.00, 
2025.00, 
2026.00, 
2027.00, 
2028.00, 
2029.00, 
2030.00, 
2031.00, 
2032.00, 
2033.00, 
2034.00, 
2035.00, 
2036.00, 
2037.00, 
2038.00, 
2039.00, 
2040.00, 
2041.00, 
2042.00, 
2043.00, 
2044.00, 
2045.00, 
2046.00, 
2047.00, 
2048.00, 
2049.00, 
2050.00, 
2051.00, 
2052.00, 
2053.00, 
2054.00, 
2055.00, 
2056.00, 
2057.00, 
2058.00, 
2059.00, 
2060.00, 
2061.00, 
2062.00, 
2063.00, 
2064.00, 
2065.00, 
2066.00, 
2067.00, 
2068.00, 
2069.00, 
2070.00, 
2071.00, 
2072.00, 
2073.00, 
2074.00, 
2075.00, 
2076.00, 
2077.00, 
2078.00, 
2079.00, 
2080.00, 
2081.00, 
2082.00, 
2083.00, 
2084.00, 
2085.00, 
2086.00, 
2087.00, 
2088.00, 
2089.00, 
2090.00, 
2091.00, 
2092.00, 
2093.00, 
2094.00, 
2095.00, 
2096.00, 
2097.00, 
2098.00, 
2099.00, 
2100.00, 
2101.00, 
2102.00, 
2103.00, 
2104.00, 
2105.00, 
2106.00, 
2107.00, 
2108.00, 
2109.00, 
2110.00, 
2111.00, 
2112.00, 
2113.00, 
2114.00, 
2115.00, 
2116.00, 
2117.00, 
2118.00, 
2119.00, 
2120.00, 
2121.00, 
2122.00, 
2123.00, 
2124.00, 
2125.00, 
2126.00, 
2127.00, 
2128.00, 
2129.00, 
2130.00, 
2131.00, 
2132.00, 
2133.00, 
2134.00, 
2135.00, 
2136.00, 
2137.00, 
2138.00, 
2139.00, 
2140.00, 
2141.00, 
2142.00, 
2143.00, 
2144.00, 
2145.00, 
2146.00, 
2147.00, 
2148.00, 
2149.00, 
2150.00, 
2151.00, 
2152.00, 
2153.00, 
2154.00, 
2155.00, 
2156.00, 
2157.00, 
2158.00, 
2159.00, 
2160.00, 
2161.00, 
2162.00, 
2163.00, 
2164.00, 
2165.00, 
2166.00, 
2167.00, 
2168.00, 
2169.00, 
2170.00, 
2171.00, 
2172.00, 
2173.00, 
2174.00, 
2175.00, 
2176.00, 
2177.00, 
2178.00, 
2179.00, 
2180.00, 
2181.00, 
2182.00, 
2183.00, 
2184.00, 
2185.00, 
2186.00, 
2187.00, 
2188.00, 
2189.00, 
2190.00, 
2191.00, 
2192.00, 
2193.00, 
2194.00, 
2195.00, 
2196.00, 
2197.00, 
2198.00, 
2199.00, 
2200.00, 
2201.00, 
2202.00, 
2203.00, 
2204.00, 
2205.00, 
2206.00, 
2207.00, 
2208.00, 
2209.00, 
2210.00, 
2211.00, 
2212.00, 
2213.00, 
2214.00, 
2215.00, 
2216.00, 
2217.00, 
2218.00, 
2219.00, 
2220.00, 
2221.00, 
2222.00, 
2223.00, 
2224.00, 
2225.00, 
2226.00, 
2227.00, 
2228.00, 
2229.00, 
2230.00, 
2231.00, 
2232.00, 
2233.00, 
2234.00, 
2235.00, 
2236.00, 
2237.00, 
2238.00, 
2239.00, 
2240.00, 
2241.00, 
2242.00, 
2243.00, 
2244.00, 
2245.00, 
2246.00, 
2247.00, 
2248.00, 
2249.00, 
2250.00, 
2251.00, 
2252.00, 
2253.00, 
2254.00, 
2255.00, 
2256.00, 
2257.00, 
2258.00, 
2259.00, 
2260.00, 
2261.00, 
2262.00, 
2263.00, 
2264.00, 
2265.00, 
2266.00, 
2267.00, 
2268.00, 
2269.00, 
2270.00, 
2271.00, 
2272.00, 
2273.00, 
2274.00, 
2275.00, 
2276.00, 
2277.00, 
2278.00, 
2279.00, 
2280.00, 
2281.00, 
2282.00, 
2283.00, 
2284.00, 
2285.00, 
2286.00, 
2287.00, 
2288.00, 
2289.00, 
2290.00, 
2291.00, 
2292.00, 
2293.00, 
2294.00, 
2295.00, 
2296.00, 
2297.00, 
2298.00, 
2299.00, 
2300.00, 
2301.00, 
2302.00, 
2303.00, 
2304.00, 
2305.00, 
2306.00, 
2307.00, 
2308.00, 
2309.00, 
2310.00, 
2311.00, 
2312.00, 
2313.00, 
2314.00, 
2315.00, 
2316.00, 
2317.00, 
2318.00, 
2319.00, 
2320.00, 
2321.00, 
2322.00, 
2323.00, 
2324.00, 
2325.00, 
2326.00, 
2327.00, 
2328.00, 
2329.00, 
2330.00, 
2331.00, 
2332.00, 
2333.00, 
2334.00, 
2335.00, 
2336.00, 
2337.00, 
2338.00, 
2339.00, 
2340.00, 
2341.00, 
2342.00, 
2343.00, 
2344.00, 
2345.00, 
2346.00, 
2347.00, 
2348.00, 
2349.00, 
2350.00, 
2351.00, 
2352.00, 
2353.00, 
2354.00, 
2355.00, 
2356.00, 
2357.00, 
2358.00, 
2359.00, 
2360.00, 
2361.00, 
2362.00, 
2363.00, 
2364.00, 
2365.00, 
2366.00, 
2367.00, 
2368.00, 
2369.00, 
2370.00, 
2371.00, 
2372.00, 
2373.00, 
2374.00, 
2375.00, 
2376.00, 
2377.00, 
2378.00, 
2379.00, 
2380.00, 
2381.00, 
2382.00, 
2383.00, 
2384.00, 
2385.00, 
2386.00, 
2387.00, 
2388.00, 
2389.00, 
2390.00, 
2391.00, 
2392.00, 
2393.00, 
2394.00, 
2395.00, 
2396.00, 
2397.00, 
2398.00, 
2399.00, 
2400.00, 
2401.00, 
2402.00, 
2403.00, 
2404.00, 
2405.00, 
2406.00, 
2407.00, 
2408.00, 
2409.00, 
2410.00, 
2411.00, 
2412.00, 
2413.00, 
2414.00, 
2415.00, 
2416.00, 
2417.00, 
2418.00, 
2419.00, 
2420.00, 
2421.00, 
2422.00, 
2423.00, 
2424.00, 
2425.00, 
2426.00, 
2427.00, 
2428.00, 
2429.00, 
2430.00, 
2431.00, 
2432.00, 
2433.00, 
2434.00, 
2435.00, 
2436.00, 
2437.00, 
2438.00, 
2439.00, 
2440.00, 
2441.00, 
2442.00, 
2443.00, 
2444.00, 
2445.00, 
2446.00, 
2447.00, 
2448.00, 
2449.00, 
2450.00, 
2451.00, 
2452.00, 
2453.00, 
2454.00, 
2455.00, 
2456.00, 
2457.00, 
2458.00, 
2459.00, 
2460.00, 
2461.00, 
2462.00, 
2463.00, 
2464.00, 
2465.00, 
2466.00, 
2467.00, 
2468.00, 
2469.00, 
2470.00, 
2471.00, 
2472.00, 
2473.00, 
2474.00, 
2475.00, 
2476.00, 
2477.00, 
2478.00, 
2479.00, 
2480.00, 
2481.00, 
2482.00, 
2483.00, 
2484.00, 
2485.00, 
2486.00, 
2487.00, 
2488.00, 
2489.00, 
2490.00, 
2491.00, 
2492.00, 
2493.00, 
2494.00, 
2495.00, 
2496.00, 
2497.00, 
2498.00, 
2499.00, 
2500.00, 
2501.00, 
2502.00, 
2503.00, 
2504.00, 
2505.00, 
2506.00, 
2507.00, 
2508.00, 
2509.00, 
2510.00, 
2511.00, 
2512.00, 
2513.00, 
2514.00, 
2515.00, 
2516.00, 
2517.00, 
2518.00, 
2519.00, 
2520.00, 
2521.00, 
2522.00, 
2523.00, 
2524.00, 
2525.00, 
2526.00, 
2527.00, 
2528.00, 
2529.00, 
2530.00, 
2531.00, 
2532.00, 
2533.00, 
2534.00, 
2535.00, 
2536.00, 
2537.00, 
2538.00, 
2539.00, 
2540.00, 
2541.00, 
2542.00, 
2543.00, 
2544.00, 
2545.00, 
2546.00, 
2547.00, 
2548.00, 
2549.00, 
2550.00, 
2551.00, 
2552.00, 
2553.00, 
2554.00, 
2555.00, 
2556.00, 
2557.00, 
2558.00, 
2559.00, 
2560.00, 
2561.00, 
2562.00, 
2563.00, 
2564.00, 
2565.00, 
2566.00, 
2567.00, 
2568.00, 
2569.00, 
2570.00, 
2571.00, 
2572.00, 
2573.00, 
2574.00, 
2575.00, 
2576.00, 
2577.00, 
2578.00, 
2579.00, 
2580.00, 
2581.00, 
2582.00, 
2583.00, 
2584.00, 
2585.00, 
2586.00, 
2587.00, 
2588.00, 
2589.00, 
2590.00, 
2591.00, 
2592.00, 
2593.00, 
2594.00, 
2595.00, 
2596.00, 
2597.00, 
2598.00, 
2599.00, 
2600.00, 
