"1bP2 - RawData"
"Wavelength nm.","T%"
200.00,0.002
201.00,-0.000
202.00,0.001
203.00,0.002
204.00,-0.000
205.00,0.001
206.00,0.001
207.00,0.002
208.00,-0.000
209.00,0.002
210.00,0.000
211.00,0.001
212.00,-0.001
213.00,0.002
214.00,0.001
215.00,0.001
216.00,0.002
217.00,0.001
218.00,0.001
219.00,0.002
220.00,0.004
221.00,0.003
222.00,0.003
223.00,-0.003
224.00,0.001
225.00,0.002
226.00,0.001
227.00,0.002
228.00,-0.001
229.00,-0.000
230.00,-0.000
231.00,0.000
232.00,0.002
233.00,0.000
234.00,-0.000
235.00,-0.001
236.00,-0.000
237.00,0.001
238.00,-0.001
239.00,0.001
240.00,-0.001
241.00,-0.000
242.00,0.000
243.00,-0.001
244.00,0.001
245.00,0.002
246.00,-0.001
247.00,0.001
248.00,-0.000
249.00,-0.000
250.00,-0.001
251.00,-0.000
252.00,0.000
253.00,-0.001
254.00,0.000
255.00,0.001
256.00,-0.001
257.00,0.002
258.00,-0.002
259.00,-0.001
260.00,0.000
261.00,0.000
262.00,-0.003
263.00,0.002
264.00,-0.000
265.00,0.000
266.00,0.001
267.00,0.001
268.00,-0.000
269.00,0.002
270.00,-0.000
271.00,-0.000
272.00,-0.000
273.00,-0.001
274.00,0.001
275.00,-0.001
276.00,-0.001
277.00,0.000
278.00,0.001
279.00,-0.000
280.00,-0.000
281.00,0.000
282.00,-0.000
283.00,0.001
284.00,0.001
285.00,0.001
286.00,0.002
287.00,-0.000
288.00,0.002
289.00,0.000
290.00,-0.000
291.00,0.001
292.00,-0.000
293.00,0.000
294.00,-0.001
295.00,-0.001
296.00,0.001
297.00,0.002
298.00,0.002
299.00,0.002
300.00,0.005
301.00,0.007
302.00,0.010
303.00,0.015
304.00,0.023
305.00,0.036
306.00,0.055
307.00,0.076
308.00,0.125
309.00,0.186
310.00,0.256
311.00,0.344
312.00,0.470
313.00,0.636
314.00,0.840
315.00,1.062
316.00,1.355
317.00,1.694
318.00,2.084
319.00,2.522
320.00,3.024
321.00,3.585
322.00,4.220
323.00,4.956
324.00,5.697
325.00,6.436
326.00,7.226
327.00,8.051
328.00,8.906
329.00,9.800
330.00,10.662
331.00,11.577
332.00,12.555
333.00,13.503
334.00,14.409
335.00,15.357
336.00,16.275
337.00,17.182
338.00,18.029
339.00,18.832
340.00,19.627
341.00,20.462
342.00,21.222
343.00,21.907
344.00,22.557
345.00,23.311
346.00,23.902
347.00,24.456
348.00,24.997
349.00,25.476
350.00,25.950
351.00,26.421
352.00,26.770
353.00,27.197
354.00,27.548
355.00,27.888
356.00,28.170
357.00,28.446
358.00,28.712
359.00,29.002
360.00,29.288
361.00,29.428
362.00,29.675
363.00,29.851
364.00,29.982
365.00,30.088
366.00,30.221
367.00,30.368
368.00,30.402
369.00,30.437
370.00,30.513
371.00,30.554
372.00,30.513
373.00,30.511
374.00,30.549
375.00,30.557
376.00,30.427
377.00,30.431
378.00,30.347
379.00,30.238
380.00,30.261
381.00,30.247
382.00,30.148
383.00,30.197
384.00,30.308
385.00,30.272
386.00,30.329
387.00,30.319
388.00,30.528
389.00,30.516
390.00,30.552
391.00,30.599
392.00,30.645
393.00,30.632
394.00,30.718
395.00,30.744
396.00,30.705
397.00,30.751
398.00,30.723
399.00,30.775
400.00,30.671
401.00,30.709
402.00,30.699
403.00,30.719
404.00,30.721
405.00,30.701
406.00,30.697
407.00,30.631
408.00,30.667
409.00,30.573
410.00,30.518
411.00,30.515
412.00,30.437
413.00,30.546
414.00,30.454
415.00,30.424
416.00,30.545
417.00,30.536
418.00,30.550
419.00,30.601
420.00,30.680
421.00,30.644
422.00,30.674
423.00,30.707
424.00,30.771
425.00,30.824
426.00,30.831
427.00,30.884
428.00,30.893
429.00,30.914
430.00,30.947
431.00,31.072
432.00,31.086
433.00,31.116
434.00,31.166
435.00,31.244
436.00,31.277
437.00,31.329
438.00,31.399
439.00,31.422
440.00,31.528
441.00,31.562
442.00,31.644
443.00,31.694
444.00,31.825
445.00,31.895
446.00,31.991
447.00,32.096
448.00,32.154
449.00,32.272
450.00,32.383
451.00,32.453
452.00,32.485
453.00,32.621
454.00,32.684
455.00,32.752
456.00,32.930
457.00,33.006
458.00,33.135
459.00,33.257
460.00,33.351
461.00,33.487
462.00,33.561
463.00,33.676
464.00,33.848
465.00,33.912
466.00,34.085
467.00,34.121
468.00,34.221
469.00,34.302
470.00,34.381
471.00,34.442
472.00,34.592
473.00,34.599
474.00,34.694
475.00,34.819
476.00,34.840
477.00,35.005
478.00,35.107
479.00,35.270
480.00,35.413
481.00,35.466
482.00,35.636
483.00,35.762
484.00,35.892
485.00,36.031
486.00,36.195
487.00,36.302
488.00,36.406
489.00,36.512
490.00,36.674
491.00,36.807
492.00,36.927
493.00,37.122
494.00,37.293
495.00,37.251
496.00,37.351
497.00,37.366
498.00,37.539
499.00,37.654
500.00,37.737
501.00,37.778
502.00,37.954
503.00,38.053
504.00,38.124
505.00,38.228
506.00,38.357
507.00,38.382
508.00,38.476
509.00,38.687
510.00,38.738
511.00,38.783
512.00,39.036
513.00,39.102
514.00,39.166
515.00,39.309
516.00,39.408
517.00,39.448
518.00,39.605
519.00,39.646
520.00,39.602
521.00,39.717
522.00,39.842
523.00,39.851
524.00,39.916
525.00,39.984
526.00,40.159
527.00,40.186
528.00,40.227
529.00,40.314
530.00,40.512
531.00,40.588
532.00,40.618
533.00,40.697
534.00,40.807
535.00,40.883
536.00,40.905
537.00,40.965
538.00,40.991
539.00,41.042
540.00,41.109
541.00,41.136
542.00,41.159
543.00,41.167
544.00,41.250
545.00,41.325
546.00,41.343
547.00,41.445
548.00,41.518
549.00,41.537
550.00,41.611
551.00,41.750
552.00,41.753
553.00,41.768
554.00,41.878
555.00,41.837
556.00,41.925
557.00,42.013
558.00,42.033
559.00,42.117
560.00,42.111
561.00,42.184
562.00,42.233
563.00,42.262
564.00,42.295
565.00,42.274
566.00,42.282
567.00,42.336
568.00,42.377
569.00,42.392
570.00,42.438
571.00,42.422
572.00,42.467
573.00,42.471
574.00,42.464
575.00,42.428
576.00,42.472
577.00,42.477
578.00,42.631
579.00,42.700
580.00,42.703
581.00,42.847
582.00,42.931
583.00,42.877
584.00,43.018
585.00,43.022
586.00,43.090
587.00,43.118
588.00,43.148
589.00,43.128
590.00,43.167
591.00,43.209
592.00,43.176
593.00,43.185
594.00,43.280
595.00,43.335
596.00,43.418
597.00,43.380
598.00,43.468
599.00,43.427
600.00,43.583
601.00,43.596
602.00,43.539
603.00,43.549
604.00,43.369
605.00,43.605
606.00,43.816
607.00,43.692
608.00,43.716
609.00,43.783
610.00,43.974
611.00,43.815
612.00,43.842
613.00,43.774
614.00,43.862
615.00,43.960
616.00,43.966
617.00,43.950
618.00,43.960
619.00,44.095
620.00,44.094
621.00,44.120
622.00,44.157
623.00,44.263
624.00,44.287
625.00,44.357
626.00,44.404
627.00,44.412
628.00,44.438
629.00,44.411
630.00,44.512
631.00,44.538
632.00,44.575
633.00,44.696
634.00,44.763
635.00,44.795
636.00,44.885
637.00,44.906
638.00,44.843
639.00,44.923
640.00,44.973
641.00,45.001
642.00,45.054
643.00,45.144
644.00,45.206
645.00,45.210
646.00,45.320
647.00,45.380
648.00,45.395
649.00,45.379
650.00,45.381
651.00,45.532
652.00,45.570
653.00,45.557
654.00,45.590
655.00,45.791
656.00,46.013
657.00,45.862
658.00,45.917
659.00,45.992
660.00,46.031
661.00,45.991
662.00,46.083
663.00,46.114
664.00,46.370
665.00,46.502
666.00,46.359
667.00,46.485
668.00,46.410
669.00,46.511
670.00,46.803
671.00,46.578
672.00,46.674
673.00,46.823
674.00,46.838
675.00,46.836
676.00,47.052
677.00,47.147
678.00,46.973
679.00,46.986
680.00,47.114
681.00,47.385
682.00,47.359
683.00,47.308
684.00,47.471
685.00,47.525
686.00,47.349
687.00,47.432
688.00,47.551
689.00,47.432
690.00,47.708
691.00,47.941
692.00,47.657
693.00,47.720
694.00,47.748
695.00,47.935
696.00,47.956
697.00,47.942
698.00,47.952
699.00,48.232
700.00,48.338
701.00,48.206
702.00,48.268
703.00,48.409
704.00,48.458
705.00,48.319
706.00,48.345
707.00,48.432
708.00,48.261
709.00,48.546
710.00,48.999
711.00,48.594
712.00,48.542
713.00,48.646
714.00,48.699
715.00,48.806
716.00,48.691
717.00,48.831
718.00,49.022
719.00,48.919
720.00,48.960
721.00,53.509
722.00,53.507
723.00,53.470
724.00,53.520
725.00,53.510
726.00,53.490
727.00,53.427
728.00,53.484
729.00,53.440
730.00,53.391
731.00,53.464
732.00,53.483
733.00,53.491
734.00,53.404
735.00,53.512
736.00,53.473
737.00,53.515
738.00,53.546
739.00,53.484
740.00,53.535
741.00,53.509
742.00,53.481
743.00,53.455
744.00,53.435
745.00,53.475
746.00,53.454
747.00,53.414
748.00,53.358
749.00,53.405
750.00,53.404
751.00,53.282
752.00,53.334
753.00,53.347
754.00,53.315
755.00,53.178
756.00,53.248
757.00,53.236
758.00,53.223
759.00,53.191
760.00,53.194
761.00,53.240
762.00,53.183
763.00,53.288
764.00,53.172
765.00,53.213
766.00,53.229
767.00,53.188
768.00,53.301
769.00,53.148
770.00,53.205
771.00,53.160
772.00,53.187
773.00,53.133
774.00,53.149
775.00,53.142
776.00,53.102
777.00,53.153
778.00,53.112
779.00,53.169
780.00,53.039
781.00,53.114
782.00,53.132
783.00,53.008
784.00,53.039
785.00,52.995
786.00,53.119
787.00,52.971
788.00,52.948
789.00,52.969
790.00,52.890
791.00,52.969
792.00,52.851
793.00,52.958
794.00,52.905
795.00,52.781
796.00,52.878
797.00,52.692
798.00,52.776
799.00,52.809
800.00,52.751
801.00,52.744
802.00,52.722
803.00,52.719
804.00,52.668
805.00,52.720
806.00,52.702
807.00,52.640
808.00,52.692
809.00,52.547
810.00,52.465
811.00,52.564
812.00,52.550
813.00,52.467
814.00,52.534
815.00,52.465
816.00,52.424
817.00,52.345
818.00,52.331
819.00,52.393
820.00,52.294
821.00,52.307
822.00,52.342
823.00,52.345
824.00,52.363
825.00,52.263
826.00,52.295
827.00,52.312
828.00,52.321
829.00,52.288
830.00,52.249
831.00,54.903
832.00,54.903
833.00,54.844
834.00,54.848
835.00,54.800
836.00,54.813
837.00,54.769
838.00,54.791
839.00,54.749
840.00,54.735
841.00,54.710
842.00,54.665
843.00,54.684
844.00,54.674
845.00,54.616
846.00,54.629
847.00,54.585
848.00,54.561
849.00,54.479
850.00,54.502
851.00,54.406
852.00,54.458
853.00,54.376
854.00,54.344
855.00,54.279
856.00,54.294
857.00,54.293
858.00,54.269
859.00,54.229
860.00,54.250
861.00,54.240
862.00,54.157
863.00,54.178
864.00,54.191
865.00,54.146
866.00,54.140
867.00,54.099
868.00,54.157
869.00,54.150
870.00,54.090
871.00,54.040
872.00,54.081
873.00,54.075
874.00,54.075
875.00,54.030
876.00,54.018
877.00,53.996
878.00,54.037
879.00,53.956
880.00,53.948
881.00,53.922
882.00,53.987
883.00,53.881
884.00,53.900
885.00,53.885
886.00,53.893
887.00,53.836
888.00,53.817
889.00,53.827
890.00,53.789
891.00,53.771
892.00,53.747
893.00,53.708
894.00,53.722
895.00,53.689
896.00,53.666
897.00,53.668
898.00,53.662
899.00,53.529
900.00,53.628
901.00,53.579
902.00,53.612
903.00,53.559
904.00,53.544
905.00,53.546
906.00,53.528
907.00,53.471
908.00,53.462
909.00,53.458
910.00,53.436
911.00,53.439
912.00,53.421
913.00,53.388
914.00,53.392
915.00,53.343
916.00,53.337
917.00,53.313
918.00,53.298
919.00,53.187
920.00,53.266
921.00,53.226
922.00,53.215
923.00,53.175
924.00,53.164
925.00,53.180
926.00,53.154
927.00,53.146
928.00,53.117
929.00,53.130
930.00,53.055
931.00,53.050
932.00,53.026
933.00,53.029
934.00,52.922
935.00,52.963
936.00,52.965
937.00,52.947
938.00,52.940
939.00,52.946
940.00,52.890
941.00,52.895
942.00,52.889
943.00,52.865
944.00,52.822
945.00,52.847
946.00,52.824
947.00,52.810
948.00,52.775
949.00,52.689
950.00,52.779
951.00,52.682
952.00,52.685
953.00,52.648
954.00,52.639
955.00,52.593
956.00,52.606
957.00,52.569
958.00,52.585
959.00,52.525
960.00,52.527
961.00,52.508
962.00,52.502
963.00,52.461
964.00,52.453
965.00,52.475
966.00,52.441
967.00,52.435
968.00,52.416
969.00,52.439
970.00,52.399
971.00,52.430
972.00,52.386
973.00,52.412
974.00,52.407
975.00,52.410
976.00,52.420
977.00,52.381
978.00,52.448
979.00,52.408
980.00,52.426
981.00,52.432
982.00,52.418
983.00,52.429
984.00,52.379
985.00,52.435
986.00,52.396
987.00,52.432
988.00,52.396
989.00,52.397
990.00,52.395
991.00,52.379
992.00,52.381
993.00,52.344
994.00,52.328
995.00,52.315
996.00,52.303
997.00,52.293
998.00,52.261
999.00,52.292
1000.00,52.248
1001.00,52.268
1002.00,52.248
1003.00,52.239
1004.00,52.231
1005.00,52.207
1006.00,52.239
1007.00,52.200
1008.00,52.192
1009.00,52.162
1010.00,52.139
1011.00,52.173
1012.00,52.129
1013.00,52.150
1014.00,52.094
1015.00,52.122
1016.00,52.076
1017.00,52.085
1018.00,52.065
1019.00,52.021
1020.00,52.032
1021.00,52.007
1022.00,52.018
1023.00,51.965
1024.00,51.983
1025.00,51.967
1026.00,51.954
1027.00,51.941
1028.00,51.925
1029.00,51.928
1030.00,51.886
1031.00,51.894
1032.00,51.851
1033.00,51.865
1034.00,51.856
1035.00,51.796
1036.00,51.776
1037.00,51.766
1038.00,51.769
1039.00,51.719
1040.00,51.726
1041.00,51.685
1042.00,51.673
1043.00,51.652
1044.00,51.688
1045.00,51.680
1046.00,51.656
1047.00,51.673
1048.00,51.677
1049.00,51.696
1050.00,51.701
1051.00,51.757
1052.00,51.747
1053.00,51.726
1054.00,51.722
1055.00,51.748
1056.00,51.760
1057.00,51.805
1058.00,51.768
1059.00,51.764
1060.00,51.775
1061.00,51.761
1062.00,51.776
1063.00,51.760
1064.00,51.759
1065.00,51.747
1066.00,51.736
1067.00,51.730
1068.00,51.757
1069.00,51.725
1070.00,51.678
1071.00,51.668
1072.00,51.707
1073.00,51.656
1074.00,51.659
1075.00,51.634
1076.00,51.646
1077.00,51.622
1078.00,51.607
1079.00,51.617
1080.00,51.603
1081.00,51.590
1082.00,51.582
1083.00,51.567
1084.00,51.582
1085.00,51.595
1086.00,51.555
1087.00,51.545
1088.00,51.530
1089.00,51.534
1090.00,51.533
1091.00,51.523
1092.00,51.520
1093.00,51.502
1094.00,51.472
1095.00,51.479
1096.00,51.457
1097.00,51.459
1098.00,51.440
1099.00,51.448
1100.00,51.428
1101.00,51.422
1102.00,51.419
1103.00,51.426
1104.00,51.415
1105.00,51.402
1106.00,51.394
1107.00,51.375
1108.00,51.358
1109.00,51.345
1110.00,51.351
1111.00,51.354
1112.00,51.332
1113.00,51.322
1114.00,51.322
1115.00,51.328
1116.00,51.304
1117.00,51.311
1118.00,51.322
1119.00,51.294
1120.00,51.268
1121.00,51.288
1122.00,51.271
1123.00,51.285
1124.00,51.269
1125.00,51.288
1126.00,51.262
1127.00,51.271
1128.00,51.265
1129.00,51.273
1130.00,51.250
1131.00,51.234
1132.00,51.248
1133.00,51.228
1134.00,51.232
1135.00,51.227
1136.00,51.207
1137.00,51.207
1138.00,51.197
1139.00,51.213
1140.00,51.195
1141.00,51.185
1142.00,51.169
1143.00,51.195
1144.00,51.163
1145.00,51.159
1146.00,51.158
1147.00,51.156
1148.00,51.157
1149.00,51.175
1150.00,51.156
1151.00,51.180
1152.00,51.169
1153.00,51.157
1154.00,51.139
1155.00,51.144
1156.00,51.128
1157.00,51.133
1158.00,51.128
1159.00,51.122
1160.00,51.094
1161.00,51.118
1162.00,51.114
1163.00,51.107
1164.00,51.105
1165.00,51.106
1166.00,51.107
1167.00,51.091
1168.00,51.103
1169.00,51.112
1170.00,51.106
1171.00,51.081
1172.00,51.089
1173.00,51.081
1174.00,51.080
1175.00,51.068
1176.00,51.098
1177.00,51.072
1178.00,51.078
1179.00,51.101
1180.00,51.056
1181.00,51.092
1182.00,51.082
1183.00,51.084
1184.00,51.091
1185.00,51.097
1186.00,51.085
1187.00,51.060
1188.00,51.060
1189.00,51.067
1190.00,51.050
1191.00,51.078
1192.00,51.110
1193.00,51.090
1194.00,51.096
1195.00,51.057
1196.00,51.087
1197.00,51.085
1198.00,51.072
1199.00,51.055
1200.00,51.078
1201.00,51.086
1202.00,51.061
1203.00,51.062
1204.00,51.056
1205.00,51.077
1206.00,51.058
1207.00,51.054
1208.00,51.042
1209.00,51.055
1210.00,51.064
1211.00,51.059
1212.00,51.091
1213.00,51.061
1214.00,51.090
1215.00,51.059
1216.00,51.082
1217.00,51.082
1218.00,51.056
1219.00,51.080
1220.00,51.048
1221.00,51.070
1222.00,51.060
1223.00,51.078
1224.00,51.081
1225.00,51.063
1226.00,51.064
1227.00,51.058
1228.00,51.077
1229.00,51.085
1230.00,51.124
1231.00,51.119
1232.00,51.133
1233.00,51.141
1234.00,51.128
1235.00,51.131
1236.00,51.129
1237.00,51.121
1238.00,51.131
1239.00,51.136
1240.00,51.108
1241.00,51.108
1242.00,51.119
1243.00,51.152
1244.00,51.117
1245.00,51.149
1246.00,51.162
1247.00,51.143
1248.00,51.136
1249.00,51.157
1250.00,51.144
1251.00,51.120
1252.00,51.143
1253.00,51.135
1254.00,51.187
1255.00,51.177
1256.00,51.147
1257.00,51.145
1258.00,51.200
1259.00,51.179
1260.00,51.211
1261.00,51.201
1262.00,51.189
1263.00,51.184
1264.00,51.204
1265.00,51.214
1266.00,51.218
1267.00,51.220
1268.00,51.239
1269.00,51.236
1270.00,51.267
1271.00,51.265
1272.00,51.243
1273.00,51.265
1274.00,51.248
1275.00,51.261
1276.00,51.265
1277.00,51.256
1278.00,51.267
1279.00,51.264
1280.00,51.263
1281.00,51.275
1282.00,51.282
1283.00,51.289
1284.00,51.274
1285.00,51.274
1286.00,51.298
1287.00,51.286
1288.00,51.281
1289.00,51.277
1290.00,51.313
1291.00,51.302
1292.00,51.309
1293.00,51.303
1294.00,51.321
1295.00,51.327
1296.00,51.324
1297.00,51.357
1298.00,51.383
1299.00,51.367
1300.00,51.398
1301.00,51.372
1302.00,51.386
1303.00,51.380
1304.00,51.370
1305.00,51.395
1306.00,51.388
1307.00,51.392
1308.00,51.400
1309.00,51.408
1310.00,51.396
1311.00,51.381
1312.00,51.389
1313.00,51.404
1314.00,51.423
1315.00,51.442
1316.00,51.444
1317.00,51.459
1318.00,51.463
1319.00,51.450
1320.00,51.461
1321.00,51.647
1322.00,51.635
1323.00,51.621
1324.00,51.598
1325.00,51.581
1326.00,51.612
1327.00,51.605
1328.00,51.605
1329.00,51.602
1330.00,51.612
1331.00,51.591
1332.00,51.590
1333.00,51.607
1334.00,51.643
1335.00,51.661
1336.00,51.686
1337.00,51.719
1338.00,51.780
1339.00,51.835
1340.00,51.888
1341.00,51.952
1342.00,52.016
1343.00,52.072
1344.00,52.122
1345.00,52.164
1346.00,52.193
1347.00,52.219
1348.00,52.237
1349.00,52.228
1350.00,52.251
1351.00,52.269
1352.00,52.278
1353.00,52.274
1354.00,52.294
1355.00,52.237
1356.00,52.327
1357.00,52.298
1358.00,52.330
1359.00,52.373
1360.00,52.335
1361.00,52.393
1362.00,52.250
1363.00,52.359
1364.00,52.468
1365.00,52.334
1366.00,52.417
1367.00,52.383
1368.00,52.253
1369.00,52.359
1370.00,52.326
1371.00,52.270
1372.00,52.294
1373.00,52.366
1374.00,52.318
1375.00,52.298
1376.00,52.325
1377.00,52.286
1378.00,52.302
1379.00,52.329
1380.00,52.289
1381.00,52.327
1382.00,52.294
1383.00,52.366
1384.00,52.280
1385.00,52.214
1386.00,52.322
1387.00,52.293
1388.00,52.278
1389.00,52.233
1390.00,52.404
1391.00,52.277
1392.00,52.300
1393.00,52.200
1394.00,52.376
1395.00,52.327
1396.00,52.235
1397.00,52.166
1398.00,52.220
1399.00,52.274
1400.00,52.264
1401.00,52.223
1402.00,52.281
1403.00,52.368
1404.00,52.246
1405.00,52.205
1406.00,52.324
1407.00,52.310
1408.00,52.386
1409.00,52.299
1410.00,52.351
1411.00,52.289
1412.00,52.370
1413.00,52.315
1414.00,52.360
1415.00,52.338
1416.00,52.383
1417.00,52.383
1418.00,52.376
1419.00,52.406
1420.00,52.408
1421.00,52.456
1422.00,52.434
1423.00,52.471
1424.00,52.465
1425.00,52.484
1426.00,52.488
1427.00,52.512
1428.00,52.507
1429.00,52.533
1430.00,52.529
1431.00,52.545
1432.00,52.555
1433.00,52.564
1434.00,52.584
1435.00,52.612
1436.00,52.646
1437.00,52.609
1438.00,52.621
1439.00,52.658
1440.00,52.670
1441.00,52.654
1442.00,52.661
1443.00,52.699
1444.00,52.754
1445.00,52.691
1446.00,52.723
1447.00,52.745
1448.00,52.769
1449.00,52.791
1450.00,52.789
1451.00,52.792
1452.00,52.829
1453.00,52.824
1454.00,52.837
1455.00,52.854
1456.00,52.893
1457.00,52.878
1458.00,52.907
1459.00,52.935
1460.00,52.947
1461.00,52.940
1462.00,52.975
1463.00,52.966
1464.00,52.982
1465.00,53.009
1466.00,53.000
1467.00,53.006
1468.00,53.074
1469.00,53.058
1470.00,53.054
1471.00,53.061
1472.00,53.080
1473.00,53.096
1474.00,53.109
1475.00,53.118
1476.00,53.137
1477.00,53.091
1478.00,53.101
1479.00,53.150
1480.00,53.166
1481.00,53.158
1482.00,53.194
1483.00,53.202
1484.00,53.216
1485.00,53.226
1486.00,53.222
1487.00,53.264
1488.00,53.254
1489.00,53.247
1490.00,53.288
1491.00,53.284
1492.00,53.296
1493.00,53.273
1494.00,53.296
1495.00,53.299
1496.00,53.303
1497.00,53.314
1498.00,53.339
1499.00,53.335
1500.00,53.378
1501.00, 
1502.00, 
1503.00, 
1504.00, 
1505.00, 
1506.00, 
1507.00, 
1508.00, 
1509.00, 
1510.00, 
1511.00, 
1512.00, 
1513.00, 
1514.00, 
1515.00, 
1516.00, 
1517.00, 
1518.00, 
1519.00, 
1520.00, 
1521.00, 
1522.00, 
1523.00, 
1524.00, 
1525.00, 
1526.00, 
1527.00, 
1528.00, 
1529.00, 
1530.00, 
1531.00, 
1532.00, 
1533.00, 
1534.00, 
1535.00, 
1536.00, 
1537.00, 
1538.00, 
1539.00, 
1540.00, 
1541.00, 
1542.00, 
1543.00, 
1544.00, 
1545.00, 
1546.00, 
1547.00, 
1548.00, 
1549.00, 
1550.00, 
1551.00, 
1552.00, 
1553.00, 
1554.00, 
1555.00, 
1556.00, 
1557.00, 
1558.00, 
1559.00, 
1560.00, 
1561.00, 
1562.00, 
1563.00, 
1564.00, 
1565.00, 
1566.00, 
1567.00, 
1568.00, 
1569.00, 
1570.00, 
1571.00, 
1572.00, 
1573.00, 
1574.00, 
1575.00, 
1576.00, 
1577.00, 
1578.00, 
1579.00, 
1580.00, 
1581.00, 
1582.00, 
1583.00, 
1584.00, 
1585.00, 
1586.00, 
1587.00, 
1588.00, 
1589.00, 
1590.00, 
1591.00, 
1592.00, 
1593.00, 
1594.00, 
1595.00, 
1596.00, 
1597.00, 
1598.00, 
1599.00, 
1600.00, 
1601.00, 
1602.00, 
1603.00, 
1604.00, 
1605.00, 
1606.00, 
1607.00, 
1608.00, 
1609.00, 
1610.00, 
1611.00, 
1612.00, 
1613.00, 
1614.00, 
1615.00, 
1616.00, 
1617.00, 
1618.00, 
1619.00, 
1620.00, 
1621.00, 
1622.00, 
1623.00, 
1624.00, 
1625.00, 
1626.00, 
1627.00, 
1628.00, 
1629.00, 
1630.00, 
1631.00, 
1632.00, 
1633.00, 
1634.00, 
1635.00, 
1636.00, 
1637.00, 
1638.00, 
1639.00, 
1640.00, 
1641.00, 
1642.00, 
1643.00, 
1644.00, 
1645.00, 
1646.00, 
1647.00, 
1648.00, 
1649.00, 
1650.00, 
1651.00, 
1652.00, 
1653.00, 
1654.00, 
1655.00, 
1656.00, 
1657.00, 
1658.00, 
1659.00, 
1660.00, 
1661.00, 
1662.00, 
1663.00, 
1664.00, 
1665.00, 
1666.00, 
1667.00, 
1668.00, 
1669.00, 
1670.00, 
1671.00, 
1672.00, 
1673.00, 
1674.00, 
1675.00, 
1676.00, 
1677.00, 
1678.00, 
1679.00, 
1680.00, 
1681.00, 
1682.00, 
1683.00, 
1684.00, 
1685.00, 
1686.00, 
1687.00, 
1688.00, 
1689.00, 
1690.00, 
1691.00, 
1692.00, 
1693.00, 
1694.00, 
1695.00, 
1696.00, 
1697.00, 
1698.00, 
1699.00, 
1700.00, 
1701.00, 
1702.00, 
1703.00, 
1704.00, 
1705.00, 
1706.00, 
1707.00, 
1708.00, 
1709.00, 
1710.00, 
1711.00, 
1712.00, 
1713.00, 
1714.00, 
1715.00, 
1716.00, 
1717.00, 
1718.00, 
1719.00, 
1720.00, 
1721.00, 
1722.00, 
1723.00, 
1724.00, 
1725.00, 
1726.00, 
1727.00, 
1728.00, 
1729.00, 
1730.00, 
1731.00, 
1732.00, 
1733.00, 
1734.00, 
1735.00, 
1736.00, 
1737.00, 
1738.00, 
1739.00, 
1740.00, 
1741.00, 
1742.00, 
1743.00, 
1744.00, 
1745.00, 
1746.00, 
1747.00, 
1748.00, 
1749.00, 
1750.00, 
1751.00, 
1752.00, 
1753.00, 
1754.00, 
1755.00, 
1756.00, 
1757.00, 
1758.00, 
1759.00, 
1760.00, 
1761.00, 
1762.00, 
1763.00, 
1764.00, 
1765.00, 
1766.00, 
1767.00, 
1768.00, 
1769.00, 
1770.00, 
1771.00, 
1772.00, 
1773.00, 
1774.00, 
1775.00, 
1776.00, 
1777.00, 
1778.00, 
1779.00, 
1780.00, 
1781.00, 
1782.00, 
1783.00, 
1784.00, 
1785.00, 
1786.00, 
1787.00, 
1788.00, 
1789.00, 
1790.00, 
1791.00, 
1792.00, 
1793.00, 
1794.00, 
1795.00, 
1796.00, 
1797.00, 
1798.00, 
1799.00, 
1800.00, 
1801.00, 
1802.00, 
1803.00, 
1804.00, 
1805.00, 
1806.00, 
1807.00, 
1808.00, 
1809.00, 
1810.00, 
1811.00, 
1812.00, 
1813.00, 
1814.00, 
1815.00, 
1816.00, 
1817.00, 
1818.00, 
1819.00, 
1820.00, 
1821.00, 
1822.00, 
1823.00, 
1824.00, 
1825.00, 
1826.00, 
1827.00, 
1828.00, 
1829.00, 
1830.00, 
1831.00, 
1832.00, 
1833.00, 
1834.00, 
1835.00, 
1836.00, 
1837.00, 
1838.00, 
1839.00, 
1840.00, 
1841.00, 
1842.00, 
1843.00, 
1844.00, 
1845.00, 
1846.00, 
1847.00, 
1848.00, 
1849.00, 
1850.00, 
1851.00, 
1852.00, 
1853.00, 
1854.00, 
1855.00, 
1856.00, 
1857.00, 
1858.00, 
1859.00, 
1860.00, 
1861.00, 
1862.00, 
1863.00, 
1864.00, 
1865.00, 
1866.00, 
1867.00, 
1868.00, 
1869.00, 
1870.00, 
1871.00, 
1872.00, 
1873.00, 
1874.00, 
1875.00, 
1876.00, 
1877.00, 
1878.00, 
1879.00, 
1880.00, 
1881.00, 
1882.00, 
1883.00, 
1884.00, 
1885.00, 
1886.00, 
1887.00, 
1888.00, 
1889.00, 
1890.00, 
1891.00, 
1892.00, 
1893.00, 
1894.00, 
1895.00, 
1896.00, 
1897.00, 
1898.00, 
1899.00, 
1900.00, 
1901.00, 
1902.00, 
1903.00, 
1904.00, 
1905.00, 
1906.00, 
1907.00, 
1908.00, 
1909.00, 
1910.00, 
1911.00, 
1912.00, 
1913.00, 
1914.00, 
1915.00, 
1916.00, 
1917.00, 
1918.00, 
1919.00, 
1920.00, 
1921.00, 
1922.00, 
1923.00, 
1924.00, 
1925.00, 
1926.00, 
1927.00, 
1928.00, 
1929.00, 
1930.00, 
1931.00, 
1932.00, 
1933.00, 
1934.00, 
1935.00, 
1936.00, 
1937.00, 
1938.00, 
1939.00, 
1940.00, 
1941.00, 
1942.00, 
1943.00, 
1944.00, 
1945.00, 
1946.00, 
1947.00, 
1948.00, 
1949.00, 
1950.00, 
1951.00, 
1952.00, 
1953.00, 
1954.00, 
1955.00, 
1956.00, 
1957.00, 
1958.00, 
1959.00, 
1960.00, 
1961.00, 
1962.00, 
1963.00, 
1964.00, 
1965.00, 
1966.00, 
1967.00, 
1968.00, 
1969.00, 
1970.00, 
1971.00, 
1972.00, 
1973.00, 
1974.00, 
1975.00, 
1976.00, 
1977.00, 
1978.00, 
1979.00, 
1980.00, 
1981.00, 
1982.00, 
1983.00, 
1984.00, 
1985.00, 
1986.00, 
1987.00, 
1988.00, 
1989.00, 
1990.00, 
1991.00, 
1992.00, 
1993.00, 
1994.00, 
1995.00, 
1996.00, 
1997.00, 
1998.00, 
1999.00, 
2000.00, 
2001.00, 
2002.00, 
2003.00, 
2004.00, 
2005.00, 
2006.00, 
2007.00, 
2008.00, 
2009.00, 
2010.00, 
2011.00, 
2012.00, 
2013.00, 
2014.00, 
2015.00, 
2016.00, 
2017.00, 
2018.00, 
2019.00, 
2020.00, 
2021.00, 
2022.00, 
2023.00, 
2024.00, 
2025.00, 
2026.00, 
2027.00, 
2028.00, 
2029.00, 
2030.00, 
2031.00, 
2032.00, 
2033.00, 
2034.00, 
2035.00, 
2036.00, 
2037.00, 
2038.00, 
2039.00, 
2040.00, 
2041.00, 
2042.00, 
2043.00, 
2044.00, 
2045.00, 
2046.00, 
2047.00, 
2048.00, 
2049.00, 
2050.00, 
2051.00, 
2052.00, 
2053.00, 
2054.00, 
2055.00, 
2056.00, 
2057.00, 
2058.00, 
2059.00, 
2060.00, 
2061.00, 
2062.00, 
2063.00, 
2064.00, 
2065.00, 
2066.00, 
2067.00, 
2068.00, 
2069.00, 
2070.00, 
2071.00, 
2072.00, 
2073.00, 
2074.00, 
2075.00, 
2076.00, 
2077.00, 
2078.00, 
2079.00, 
2080.00, 
2081.00, 
2082.00, 
2083.00, 
2084.00, 
2085.00, 
2086.00, 
2087.00, 
2088.00, 
2089.00, 
2090.00, 
2091.00, 
2092.00, 
2093.00, 
2094.00, 
2095.00, 
2096.00, 
2097.00, 
2098.00, 
2099.00, 
2100.00, 
2101.00, 
2102.00, 
2103.00, 
2104.00, 
2105.00, 
2106.00, 
2107.00, 
2108.00, 
2109.00, 
2110.00, 
2111.00, 
2112.00, 
2113.00, 
2114.00, 
2115.00, 
2116.00, 
2117.00, 
2118.00, 
2119.00, 
2120.00, 
2121.00, 
2122.00, 
2123.00, 
2124.00, 
2125.00, 
2126.00, 
2127.00, 
2128.00, 
2129.00, 
2130.00, 
2131.00, 
2132.00, 
2133.00, 
2134.00, 
2135.00, 
2136.00, 
2137.00, 
2138.00, 
2139.00, 
2140.00, 
2141.00, 
2142.00, 
2143.00, 
2144.00, 
2145.00, 
2146.00, 
2147.00, 
2148.00, 
2149.00, 
2150.00, 
2151.00, 
2152.00, 
2153.00, 
2154.00, 
2155.00, 
2156.00, 
2157.00, 
2158.00, 
2159.00, 
2160.00, 
2161.00, 
2162.00, 
2163.00, 
2164.00, 
2165.00, 
2166.00, 
2167.00, 
2168.00, 
2169.00, 
2170.00, 
2171.00, 
2172.00, 
2173.00, 
2174.00, 
2175.00, 
2176.00, 
2177.00, 
2178.00, 
2179.00, 
2180.00, 
2181.00, 
2182.00, 
2183.00, 
2184.00, 
2185.00, 
2186.00, 
2187.00, 
2188.00, 
2189.00, 
2190.00, 
2191.00, 
2192.00, 
2193.00, 
2194.00, 
2195.00, 
2196.00, 
2197.00, 
2198.00, 
2199.00, 
2200.00, 
2201.00, 
2202.00, 
2203.00, 
2204.00, 
2205.00, 
2206.00, 
2207.00, 
2208.00, 
2209.00, 
2210.00, 
2211.00, 
2212.00, 
2213.00, 
2214.00, 
2215.00, 
2216.00, 
2217.00, 
2218.00, 
2219.00, 
2220.00, 
2221.00, 
2222.00, 
2223.00, 
2224.00, 
2225.00, 
2226.00, 
2227.00, 
2228.00, 
2229.00, 
2230.00, 
2231.00, 
2232.00, 
2233.00, 
2234.00, 
2235.00, 
2236.00, 
2237.00, 
2238.00, 
2239.00, 
2240.00, 
2241.00, 
2242.00, 
2243.00, 
2244.00, 
2245.00, 
2246.00, 
2247.00, 
2248.00, 
2249.00, 
2250.00, 
2251.00, 
2252.00, 
2253.00, 
2254.00, 
2255.00, 
2256.00, 
2257.00, 
2258.00, 
2259.00, 
2260.00, 
2261.00, 
2262.00, 
2263.00, 
2264.00, 
2265.00, 
2266.00, 
2267.00, 
2268.00, 
2269.00, 
2270.00, 
2271.00, 
2272.00, 
2273.00, 
2274.00, 
2275.00, 
2276.00, 
2277.00, 
2278.00, 
2279.00, 
2280.00, 
2281.00, 
2282.00, 
2283.00, 
2284.00, 
2285.00, 
2286.00, 
2287.00, 
2288.00, 
2289.00, 
2290.00, 
2291.00, 
2292.00, 
2293.00, 
2294.00, 
2295.00, 
2296.00, 
2297.00, 
2298.00, 
2299.00, 
2300.00, 
2301.00, 
2302.00, 
2303.00, 
2304.00, 
2305.00, 
2306.00, 
2307.00, 
2308.00, 
2309.00, 
2310.00, 
2311.00, 
2312.00, 
2313.00, 
2314.00, 
2315.00, 
2316.00, 
2317.00, 
2318.00, 
2319.00, 
2320.00, 
2321.00, 
2322.00, 
2323.00, 
2324.00, 
2325.00, 
2326.00, 
2327.00, 
2328.00, 
2329.00, 
2330.00, 
2331.00, 
2332.00, 
2333.00, 
2334.00, 
2335.00, 
2336.00, 
2337.00, 
2338.00, 
2339.00, 
2340.00, 
2341.00, 
2342.00, 
2343.00, 
2344.00, 
2345.00, 
2346.00, 
2347.00, 
2348.00, 
2349.00, 
2350.00, 
2351.00, 
2352.00, 
2353.00, 
2354.00, 
2355.00, 
2356.00, 
2357.00, 
2358.00, 
2359.00, 
2360.00, 
2361.00, 
2362.00, 
2363.00, 
2364.00, 
2365.00, 
2366.00, 
2367.00, 
2368.00, 
2369.00, 
2370.00, 
2371.00, 
2372.00, 
2373.00, 
2374.00, 
2375.00, 
2376.00, 
2377.00, 
2378.00, 
2379.00, 
2380.00, 
2381.00, 
2382.00, 
2383.00, 
2384.00, 
2385.00, 
2386.00, 
2387.00, 
2388.00, 
2389.00, 
2390.00, 
2391.00, 
2392.00, 
2393.00, 
2394.00, 
2395.00, 
2396.00, 
2397.00, 
2398.00, 
2399.00, 
2400.00, 
2401.00, 
2402.00, 
2403.00, 
2404.00, 
2405.00, 
2406.00, 
2407.00, 
2408.00, 
2409.00, 
2410.00, 
2411.00, 
2412.00, 
2413.00, 
2414.00, 
2415.00, 
2416.00, 
2417.00, 
2418.00, 
2419.00, 
2420.00, 
2421.00, 
2422.00, 
2423.00, 
2424.00, 
2425.00, 
2426.00, 
2427.00, 
2428.00, 
2429.00, 
2430.00, 
2431.00, 
2432.00, 
2433.00, 
2434.00, 
2435.00, 
2436.00, 
2437.00, 
2438.00, 
2439.00, 
2440.00, 
2441.00, 
2442.00, 
2443.00, 
2444.00, 
2445.00, 
2446.00, 
2447.00, 
2448.00, 
2449.00, 
2450.00, 
2451.00, 
2452.00, 
2453.00, 
2454.00, 
2455.00, 
2456.00, 
2457.00, 
2458.00, 
2459.00, 
2460.00, 
2461.00, 
2462.00, 
2463.00, 
2464.00, 
2465.00, 
2466.00, 
2467.00, 
2468.00, 
2469.00, 
2470.00, 
2471.00, 
2472.00, 
2473.00, 
2474.00, 
2475.00, 
2476.00, 
2477.00, 
2478.00, 
2479.00, 
2480.00, 
2481.00, 
2482.00, 
2483.00, 
2484.00, 
2485.00, 
2486.00, 
2487.00, 
2488.00, 
2489.00, 
2490.00, 
2491.00, 
2492.00, 
2493.00, 
2494.00, 
2495.00, 
2496.00, 
2497.00, 
2498.00, 
2499.00, 
2500.00, 
2501.00, 
2502.00, 
2503.00, 
2504.00, 
2505.00, 
2506.00, 
2507.00, 
2508.00, 
2509.00, 
2510.00, 
2511.00, 
2512.00, 
2513.00, 
2514.00, 
2515.00, 
2516.00, 
2517.00, 
2518.00, 
2519.00, 
2520.00, 
2521.00, 
2522.00, 
2523.00, 
2524.00, 
2525.00, 
2526.00, 
2527.00, 
2528.00, 
2529.00, 
2530.00, 
2531.00, 
2532.00, 
2533.00, 
2534.00, 
2535.00, 
2536.00, 
2537.00, 
2538.00, 
2539.00, 
2540.00, 
2541.00, 
2542.00, 
2543.00, 
2544.00, 
2545.00, 
2546.00, 
2547.00, 
2548.00, 
2549.00, 
2550.00, 
2551.00, 
2552.00, 
2553.00, 
2554.00, 
2555.00, 
2556.00, 
2557.00, 
2558.00, 
2559.00, 
2560.00, 
2561.00, 
2562.00, 
2563.00, 
2564.00, 
2565.00, 
2566.00, 
2567.00, 
2568.00, 
2569.00, 
2570.00, 
2571.00, 
2572.00, 
2573.00, 
2574.00, 
2575.00, 
2576.00, 
2577.00, 
2578.00, 
2579.00, 
2580.00, 
2581.00, 
2582.00, 
2583.00, 
2584.00, 
2585.00, 
2586.00, 
2587.00, 
2588.00, 
2589.00, 
2590.00, 
2591.00, 
2592.00, 
2593.00, 
2594.00, 
2595.00, 
2596.00, 
2597.00, 
2598.00, 
2599.00, 
2600.00, 
