"1cP2 - RawData"
"Wavelength nm.","T%"
200.00,0.002
201.00,-0.000
202.00,0.005
203.00,0.004
204.00,0.002
205.00,0.001
206.00,-0.002
207.00,0.001
208.00,-0.000
209.00,0.001
210.00,0.003
211.00,0.003
212.00,-0.000
213.00,0.000
214.00,0.001
215.00,-0.000
216.00,-0.001
217.00,0.001
218.00,0.002
219.00,-0.001
220.00,0.001
221.00,-0.002
222.00,0.001
223.00,-0.001
224.00,0.003
225.00,0.004
226.00,0.002
227.00,0.002
228.00,0.000
229.00,-0.002
230.00,0.003
231.00,0.001
232.00,0.000
233.00,-0.002
234.00,-0.001
235.00,0.000
236.00,0.001
237.00,-0.000
238.00,0.002
239.00,-0.000
240.00,0.000
241.00,-0.001
242.00,-0.001
243.00,0.002
244.00,-0.001
245.00,0.002
246.00,-0.001
247.00,-0.001
248.00,0.001
249.00,0.000
250.00,0.001
251.00,0.003
252.00,-0.001
253.00,0.001
254.00,0.000
255.00,0.000
256.00,0.000
257.00,0.001
258.00,0.002
259.00,-0.000
260.00,-0.000
261.00,0.000
262.00,-0.002
263.00,-0.000
264.00,-0.002
265.00,0.000
266.00,0.001
267.00,0.001
268.00,0.000
269.00,-0.000
270.00,0.001
271.00,0.000
272.00,-0.000
273.00,0.001
274.00,0.000
275.00,-0.001
276.00,-0.001
277.00,-0.001
278.00,0.002
279.00,0.003
280.00,0.000
281.00,-0.001
282.00,-0.000
283.00,0.001
284.00,0.001
285.00,-0.000
286.00,0.001
287.00,0.000
288.00,-0.001
289.00,-0.000
290.00,-0.000
291.00,-0.001
292.00,0.000
293.00,0.000
294.00,0.001
295.00,0.001
296.00,0.000
297.00,-0.001
298.00,0.001
299.00,0.002
300.00,-0.000
301.00,0.002
302.00,-0.000
303.00,0.000
304.00,0.001
305.00,0.003
306.00,0.005
307.00,0.005
308.00,0.011
309.00,0.019
310.00,0.029
311.00,0.041
312.00,0.071
313.00,0.107
314.00,0.163
315.00,0.240
316.00,0.344
317.00,0.487
318.00,0.667
319.00,0.889
320.00,1.185
321.00,1.542
322.00,1.966
323.00,2.507
324.00,3.103
325.00,3.751
326.00,4.440
327.00,5.284
328.00,6.209
329.00,7.162
330.00,8.209
331.00,9.231
332.00,10.466
333.00,11.690
334.00,12.908
335.00,14.101
336.00,15.575
337.00,16.952
338.00,18.247
339.00,19.479
340.00,20.760
341.00,22.075
342.00,23.341
343.00,24.505
344.00,25.692
345.00,26.929
346.00,27.961
347.00,29.001
348.00,29.966
349.00,30.920
350.00,31.758
351.00,32.635
352.00,33.322
353.00,34.143
354.00,34.916
355.00,35.641
356.00,36.196
357.00,36.774
358.00,37.347
359.00,37.999
360.00,38.519
361.00,39.004
362.00,39.454
363.00,39.873
364.00,40.145
365.00,40.457
366.00,40.812
367.00,41.057
368.00,41.206
369.00,41.417
370.00,41.617
371.00,41.738
372.00,41.770
373.00,41.827
374.00,41.924
375.00,41.948
376.00,41.752
377.00,41.784
378.00,41.729
379.00,41.569
380.00,41.620
381.00,41.698
382.00,41.756
383.00,41.893
384.00,42.083
385.00,42.302
386.00,42.424
387.00,42.714
388.00,43.003
389.00,43.083
390.00,43.234
391.00,43.392
392.00,43.581
393.00,43.630
394.00,43.816
395.00,43.963
396.00,43.943
397.00,44.075
398.00,44.124
399.00,44.184
400.00,44.246
401.00,44.277
402.00,44.319
403.00,44.333
404.00,44.369
405.00,44.336
406.00,44.389
407.00,44.310
408.00,44.385
409.00,44.147
410.00,44.144
411.00,44.165
412.00,44.052
413.00,44.142
414.00,44.076
415.00,44.009
416.00,44.095
417.00,44.109
418.00,44.172
419.00,44.205
420.00,44.337
421.00,44.267
422.00,44.232
423.00,44.298
424.00,44.351
425.00,44.306
426.00,44.275
427.00,44.344
428.00,44.366
429.00,44.401
430.00,44.455
431.00,44.506
432.00,44.511
433.00,44.473
434.00,44.556
435.00,44.611
436.00,44.580
437.00,44.603
438.00,44.635
439.00,44.680
440.00,44.747
441.00,44.773
442.00,44.740
443.00,44.798
444.00,44.838
445.00,44.934
446.00,45.026
447.00,45.036
448.00,45.138
449.00,45.147
450.00,45.217
451.00,45.263
452.00,45.285
453.00,45.447
454.00,45.405
455.00,45.467
456.00,45.624
457.00,45.619
458.00,45.689
459.00,45.808
460.00,45.839
461.00,45.920
462.00,45.954
463.00,46.027
464.00,46.138
465.00,46.161
466.00,46.283
467.00,46.295
468.00,46.330
469.00,46.345
470.00,46.366
471.00,46.348
472.00,46.448
473.00,46.367
474.00,46.438
475.00,46.477
476.00,46.449
477.00,46.519
478.00,46.590
479.00,46.698
480.00,46.747
481.00,46.766
482.00,46.903
483.00,46.926
484.00,47.043
485.00,47.130
486.00,47.221
487.00,47.280
488.00,47.370
489.00,47.435
490.00,47.525
491.00,47.587
492.00,47.605
493.00,47.759
494.00,47.903
495.00,47.798
496.00,47.753
497.00,47.841
498.00,48.081
499.00,48.029
500.00,48.006
501.00,48.104
502.00,48.077
503.00,48.257
504.00,48.188
505.00,48.218
506.00,48.340
507.00,48.298
508.00,48.359
509.00,48.510
510.00,48.533
511.00,48.521
512.00,48.675
513.00,48.788
514.00,48.774
515.00,48.874
516.00,48.898
517.00,48.827
518.00,49.074
519.00,48.992
520.00,48.953
521.00,49.053
522.00,49.077
523.00,49.013
524.00,49.080
525.00,49.145
526.00,49.241
527.00,49.224
528.00,49.214
529.00,49.302
530.00,49.499
531.00,49.549
532.00,49.507
533.00,49.613
534.00,49.705
535.00,49.731
536.00,49.736
537.00,49.778
538.00,49.781
539.00,49.746
540.00,49.812
541.00,49.831
542.00,49.814
543.00,49.827
544.00,49.892
545.00,49.938
546.00,49.966
547.00,50.055
548.00,50.075
549.00,50.062
550.00,50.113
551.00,50.240
552.00,50.194
553.00,50.207
554.00,50.305
555.00,50.248
556.00,50.370
557.00,50.382
558.00,50.316
559.00,50.346
560.00,50.502
561.00,50.391
562.00,50.533
563.00,50.518
564.00,50.588
565.00,50.532
566.00,50.476
567.00,50.515
568.00,50.558
569.00,50.575
570.00,50.606
571.00,50.561
572.00,50.544
573.00,50.466
574.00,50.516
575.00,50.519
576.00,50.482
577.00,50.507
578.00,50.604
579.00,50.625
580.00,50.581
581.00,50.806
582.00,50.861
583.00,50.722
584.00,50.888
585.00,50.856
586.00,50.855
587.00,50.995
588.00,50.989
589.00,50.832
590.00,50.767
591.00,50.872
592.00,50.868
593.00,50.914
594.00,51.021
595.00,51.070
596.00,51.097
597.00,51.091
598.00,51.156
599.00,51.046
600.00,51.193
601.00,51.185
602.00,51.045
603.00,51.078
604.00,51.083
605.00,51.104
606.00,51.201
607.00,51.100
608.00,51.143
609.00,51.182
610.00,51.412
611.00,51.120
612.00,51.170
613.00,51.177
614.00,51.143
615.00,51.211
616.00,51.295
617.00,51.210
618.00,51.161
619.00,51.155
620.00,51.181
621.00,51.156
622.00,51.202
623.00,51.221
624.00,51.269
625.00,51.262
626.00,51.229
627.00,51.276
628.00,51.193
629.00,51.146
630.00,51.201
631.00,51.180
632.00,51.225
633.00,51.339
634.00,51.379
635.00,51.341
636.00,51.330
637.00,51.305
638.00,51.212
639.00,51.303
640.00,51.307
641.00,51.290
642.00,51.310
643.00,51.318
644.00,51.342
645.00,51.285
646.00,51.421
647.00,51.445
648.00,51.374
649.00,51.335
650.00,51.275
651.00,51.412
652.00,51.368
653.00,51.249
654.00,51.269
655.00,51.431
656.00,51.643
657.00,51.435
658.00,51.396
659.00,51.480
660.00,51.382
661.00,51.298
662.00,51.365
663.00,51.375
664.00,51.588
665.00,51.691
666.00,51.435
667.00,51.481
668.00,51.332
669.00,51.482
670.00,51.777
671.00,51.445
672.00,51.541
673.00,51.596
674.00,51.500
675.00,51.512
676.00,51.717
677.00,51.696
678.00,51.401
679.00,51.386
680.00,51.551
681.00,51.703
682.00,51.585
683.00,51.530
684.00,51.607
685.00,51.627
686.00,51.313
687.00,51.403
688.00,51.387
689.00,51.226
690.00,51.518
691.00,51.774
692.00,51.343
693.00,51.304
694.00,51.427
695.00,51.588
696.00,51.467
697.00,51.401
698.00,51.269
699.00,51.487
700.00,51.505
701.00,51.474
702.00,51.402
703.00,51.619
704.00,51.523
705.00,51.335
706.00,51.298
707.00,51.294
708.00,51.055
709.00,51.350
710.00,51.749
711.00,50.977
712.00,51.024
713.00,51.358
714.00,51.384
715.00,51.264
716.00,51.235
717.00,51.270
718.00,51.342
719.00,51.256
720.00,51.209
721.00,55.853
722.00,55.875
723.00,55.772
724.00,55.760
725.00,55.667
726.00,55.563
727.00,55.466
728.00,55.525
729.00,55.431
730.00,55.308
731.00,55.373
732.00,55.265
733.00,55.196
734.00,55.176
735.00,55.155
736.00,55.048
737.00,55.104
738.00,55.075
739.00,54.993
740.00,54.953
741.00,54.836
742.00,54.853
743.00,54.796
744.00,54.717
745.00,54.730
746.00,54.606
747.00,54.570
748.00,54.440
749.00,54.439
750.00,54.394
751.00,54.245
752.00,54.287
753.00,54.209
754.00,54.169
755.00,54.063
756.00,54.106
757.00,54.043
758.00,54.030
759.00,53.938
760.00,53.882
761.00,53.846
762.00,53.831
763.00,53.862
764.00,53.696
765.00,53.701
766.00,53.735
767.00,53.688
768.00,53.609
769.00,53.496
770.00,53.570
771.00,53.505
772.00,53.470
773.00,53.470
774.00,53.416
775.00,53.402
776.00,53.274
777.00,53.344
778.00,53.309
779.00,53.313
780.00,53.172
781.00,53.149
782.00,53.203
783.00,53.037
784.00,53.060
785.00,52.988
786.00,53.021
787.00,52.958
788.00,52.864
789.00,52.841
790.00,52.714
791.00,52.808
792.00,52.733
793.00,52.737
794.00,52.705
795.00,52.566
796.00,52.600
797.00,52.450
798.00,52.504
799.00,52.527
800.00,52.378
801.00,52.397
802.00,52.389
803.00,52.369
804.00,52.237
805.00,52.275
806.00,52.247
807.00,52.235
808.00,52.170
809.00,52.053
810.00,52.060
811.00,52.045
812.00,52.050
813.00,51.930
814.00,51.898
815.00,51.929
816.00,51.854
817.00,51.774
818.00,51.764
819.00,51.791
820.00,51.684
821.00,51.650
822.00,51.648
823.00,51.745
824.00,51.637
825.00,51.564
826.00,51.563
827.00,51.622
828.00,51.506
829.00,51.452
830.00,51.466
831.00,53.886
832.00,53.894
833.00,53.831
834.00,53.848
835.00,53.751
836.00,53.779
837.00,53.758
838.00,53.702
839.00,53.662
840.00,53.605
841.00,53.596
842.00,53.531
843.00,53.506
844.00,53.499
845.00,53.425
846.00,53.455
847.00,53.391
848.00,53.384
849.00,53.276
850.00,53.247
851.00,53.149
852.00,53.210
853.00,53.120
854.00,53.090
855.00,53.034
856.00,53.044
857.00,52.959
858.00,52.976
859.00,52.938
860.00,52.933
861.00,52.912
862.00,52.800
863.00,52.872
864.00,52.789
865.00,52.804
866.00,52.759
867.00,52.706
868.00,52.759
869.00,52.737
870.00,52.681
871.00,52.650
872.00,52.660
873.00,52.637
874.00,52.635
875.00,52.591
876.00,52.577
877.00,52.533
878.00,52.530
879.00,52.603
880.00,52.475
881.00,52.421
882.00,52.467
883.00,52.397
884.00,52.384
885.00,52.352
886.00,52.348
887.00,52.309
888.00,52.278
889.00,52.293
890.00,52.260
891.00,52.203
892.00,52.180
893.00,52.141
894.00,52.169
895.00,52.075
896.00,52.052
897.00,52.030
898.00,52.054
899.00,51.909
900.00,52.012
901.00,51.978
902.00,51.968
903.00,51.924
904.00,51.931
905.00,51.920
906.00,51.876
907.00,51.850
908.00,51.844
909.00,51.811
910.00,51.777
911.00,51.775
912.00,51.777
913.00,51.705
914.00,51.692
915.00,51.668
916.00,51.652
917.00,51.600
918.00,51.548
919.00,51.669
920.00,51.515
921.00,51.512
922.00,51.473
923.00,51.461
924.00,51.448
925.00,51.438
926.00,51.397
927.00,51.385
928.00,51.361
929.00,51.358
930.00,51.318
931.00,51.320
932.00,51.293
933.00,51.300
934.00,51.251
935.00,51.226
936.00,51.190
937.00,51.184
938.00,51.145
939.00,51.140
940.00,51.099
941.00,51.101
942.00,51.070
943.00,51.046
944.00,51.020
945.00,51.054
946.00,51.003
947.00,50.927
948.00,51.005
949.00,50.896
950.00,50.885
951.00,50.854
952.00,50.858
953.00,50.834
954.00,50.812
955.00,50.757
956.00,50.765
957.00,50.714
958.00,50.721
959.00,50.649
960.00,50.632
961.00,50.634
962.00,50.628
963.00,50.590
964.00,50.594
965.00,50.674
966.00,50.567
967.00,50.562
968.00,50.538
969.00,50.575
970.00,50.548
971.00,50.548
972.00,50.505
973.00,50.532
974.00,50.573
975.00,50.514
976.00,50.535
977.00,50.519
978.00,50.542
979.00,50.482
980.00,50.531
981.00,50.535
982.00,50.515
983.00,50.528
984.00,50.484
985.00,50.538
986.00,50.487
987.00,50.496
988.00,50.458
989.00,50.455
990.00,50.457
991.00,50.430
992.00,50.446
993.00,50.405
994.00,50.393
995.00,50.438
996.00,50.372
997.00,50.354
998.00,50.319
999.00,50.359
1000.00,50.298
1001.00,50.300
1002.00,50.271
1003.00,50.276
1004.00,50.258
1005.00,50.234
1006.00,50.270
1007.00,50.225
1008.00,50.215
1009.00,50.193
1010.00,50.193
1011.00,50.181
1012.00,50.152
1013.00,50.161
1014.00,50.116
1015.00,50.135
1016.00,50.088
1017.00,50.109
1018.00,50.085
1019.00,50.044
1020.00,50.086
1021.00,50.021
1022.00,50.034
1023.00,49.978
1024.00,49.997
1025.00,49.981
1026.00,49.960
1027.00,49.930
1028.00,49.924
1029.00,49.933
1030.00,49.881
1031.00,49.884
1032.00,49.838
1033.00,49.844
1034.00,49.823
1035.00,49.769
1036.00,49.762
1037.00,49.738
1038.00,49.746
1039.00,49.703
1040.00,49.733
1041.00,49.686
1042.00,49.665
1043.00,49.653
1044.00,49.667
1045.00,49.652
1046.00,49.635
1047.00,49.658
1048.00,49.663
1049.00,49.670
1050.00,49.664
1051.00,49.696
1052.00,49.700
1053.00,49.695
1054.00,49.696
1055.00,49.749
1056.00,49.797
1057.00,49.742
1058.00,49.726
1059.00,49.736
1060.00,49.744
1061.00,49.717
1062.00,49.713
1063.00,49.716
1064.00,49.709
1065.00,49.690
1066.00,49.688
1067.00,49.685
1068.00,49.701
1069.00,49.662
1070.00,49.642
1071.00,49.621
1072.00,49.633
1073.00,49.612
1074.00,49.620
1075.00,49.591
1076.00,49.601
1077.00,49.580
1078.00,49.562
1079.00,49.568
1080.00,49.565
1081.00,49.556
1082.00,49.550
1083.00,49.535
1084.00,49.532
1085.00,49.532
1086.00,49.528
1087.00,49.535
1088.00,49.472
1089.00,49.472
1090.00,49.457
1091.00,49.454
1092.00,49.443
1093.00,49.425
1094.00,49.400
1095.00,49.417
1096.00,49.392
1097.00,49.396
1098.00,49.393
1099.00,49.390
1100.00,49.377
1101.00,49.372
1102.00,49.394
1103.00,49.357
1104.00,49.348
1105.00,49.336
1106.00,49.335
1107.00,49.330
1108.00,49.316
1109.00,49.313
1110.00,49.298
1111.00,49.298
1112.00,49.265
1113.00,49.271
1114.00,49.272
1115.00,49.276
1116.00,49.257
1117.00,49.250
1118.00,49.235
1119.00,49.232
1120.00,49.228
1121.00,49.214
1122.00,49.199
1123.00,49.212
1124.00,49.195
1125.00,49.209
1126.00,49.190
1127.00,49.189
1128.00,49.183
1129.00,49.176
1130.00,49.146
1131.00,49.153
1132.00,49.148
1133.00,49.158
1134.00,49.132
1135.00,49.125
1136.00,49.111
1137.00,49.115
1138.00,49.100
1139.00,49.133
1140.00,49.123
1141.00,49.103
1142.00,49.101
1143.00,49.128
1144.00,49.095
1145.00,49.093
1146.00,49.102
1147.00,49.094
1148.00,49.091
1149.00,49.096
1150.00,49.093
1151.00,49.103
1152.00,49.080
1153.00,49.089
1154.00,49.057
1155.00,49.070
1156.00,49.059
1157.00,49.064
1158.00,49.053
1159.00,49.044
1160.00,49.030
1161.00,49.051
1162.00,49.049
1163.00,49.044
1164.00,49.054
1165.00,49.046
1166.00,49.041
1167.00,49.029
1168.00,49.045
1169.00,49.032
1170.00,49.032
1171.00,48.997
1172.00,49.019
1173.00,49.011
1174.00,49.018
1175.00,49.025
1176.00,49.012
1177.00,49.008
1178.00,49.010
1179.00,49.027
1180.00,49.014
1181.00,49.044
1182.00,49.026
1183.00,49.020
1184.00,49.009
1185.00,49.023
1186.00,49.010
1187.00,49.008
1188.00,49.013
1189.00,49.015
1190.00,49.018
1191.00,49.019
1192.00,49.041
1193.00,49.020
1194.00,49.016
1195.00,48.999
1196.00,49.029
1197.00,49.045
1198.00,49.025
1199.00,49.013
1200.00,49.029
1201.00,49.034
1202.00,49.014
1203.00,49.017
1204.00,48.998
1205.00,49.027
1206.00,49.023
1207.00,49.016
1208.00,49.027
1209.00,49.045
1210.00,49.019
1211.00,49.006
1212.00,49.041
1213.00,48.997
1214.00,49.023
1215.00,49.001
1216.00,49.031
1217.00,49.031
1218.00,49.011
1219.00,49.045
1220.00,49.007
1221.00,49.027
1222.00,49.022
1223.00,49.041
1224.00,49.046
1225.00,49.028
1226.00,49.030
1227.00,49.022
1228.00,49.039
1229.00,49.045
1230.00,49.077
1231.00,49.056
1232.00,49.084
1233.00,49.098
1234.00,49.092
1235.00,49.095
1236.00,49.086
1237.00,49.082
1238.00,49.099
1239.00,49.101
1240.00,49.082
1241.00,49.095
1242.00,49.090
1243.00,49.113
1244.00,49.081
1245.00,49.122
1246.00,49.132
1247.00,49.121
1248.00,49.112
1249.00,49.139
1250.00,49.132
1251.00,49.137
1252.00,49.165
1253.00,49.142
1254.00,49.203
1255.00,49.160
1256.00,49.148
1257.00,49.136
1258.00,49.188
1259.00,49.183
1260.00,49.208
1261.00,49.196
1262.00,49.187
1263.00,49.183
1264.00,49.180
1265.00,49.189
1266.00,49.210
1267.00,49.204
1268.00,49.220
1269.00,49.225
1270.00,49.229
1271.00,49.242
1272.00,49.246
1273.00,49.263
1274.00,49.246
1275.00,49.249
1276.00,49.257
1277.00,49.270
1278.00,49.285
1279.00,49.278
1280.00,49.278
1281.00,49.292
1282.00,49.311
1283.00,49.320
1284.00,49.315
1285.00,49.317
1286.00,49.327
1287.00,49.335
1288.00,49.323
1289.00,49.324
1290.00,49.362
1291.00,49.341
1292.00,49.343
1293.00,49.350
1294.00,49.371
1295.00,49.393
1296.00,49.386
1297.00,49.402
1298.00,49.425
1299.00,49.399
1300.00,49.430
1301.00,49.424
1302.00,49.432
1303.00,49.432
1304.00,49.424
1305.00,49.453
1306.00,49.447
1307.00,49.455
1308.00,49.453
1309.00,49.465
1310.00,49.460
1311.00,49.452
1312.00,49.466
1313.00,49.497
1314.00,49.509
1315.00,49.544
1316.00,49.527
1317.00,49.541
1318.00,49.550
1319.00,49.544
1320.00,49.574
1321.00,49.727
1322.00,49.715
1323.00,49.703
1324.00,49.675
1325.00,49.672
1326.00,49.705
1327.00,49.704
1328.00,49.695
1329.00,49.727
1330.00,49.720
1331.00,49.719
1332.00,49.718
1333.00,49.742
1334.00,49.755
1335.00,49.772
1336.00,49.808
1337.00,49.837
1338.00,49.883
1339.00,49.934
1340.00,49.987
1341.00,50.063
1342.00,50.111
1343.00,50.164
1344.00,50.210
1345.00,50.278
1346.00,50.316
1347.00,50.351
1348.00,50.362
1349.00,50.387
1350.00,50.403
1351.00,50.419
1352.00,50.421
1353.00,50.423
1354.00,50.416
1355.00,50.345
1356.00,50.453
1357.00,50.442
1358.00,50.455
1359.00,50.517
1360.00,50.497
1361.00,50.523
1362.00,50.414
1363.00,50.536
1364.00,50.573
1365.00,50.504
1366.00,50.498
1367.00,50.473
1368.00,50.439
1369.00,50.515
1370.00,50.472
1371.00,50.407
1372.00,50.466
1373.00,50.508
1374.00,50.506
1375.00,50.483
1376.00,50.481
1377.00,50.478
1378.00,50.484
1379.00,50.538
1380.00,50.498
1381.00,50.476
1382.00,50.413
1383.00,50.523
1384.00,50.456
1385.00,50.411
1386.00,50.494
1387.00,50.476
1388.00,50.445
1389.00,50.398
1390.00,50.444
1391.00,50.544
1392.00,50.504
1393.00,50.464
1394.00,50.551
1395.00,50.419
1396.00,50.442
1397.00,50.481
1398.00,50.532
1399.00,50.469
1400.00,50.438
1401.00,50.444
1402.00,50.460
1403.00,50.486
1404.00,50.531
1405.00,50.476
1406.00,50.571
1407.00,50.585
1408.00,50.569
1409.00,50.537
1410.00,50.594
1411.00,50.588
1412.00,50.623
1413.00,50.541
1414.00,50.554
1415.00,50.589
1416.00,50.629
1417.00,50.615
1418.00,50.635
1419.00,50.615
1420.00,50.658
1421.00,50.662
1422.00,50.689
1423.00,50.713
1424.00,50.715
1425.00,50.744
1426.00,50.750
1427.00,50.766
1428.00,50.783
1429.00,50.805
1430.00,50.816
1431.00,50.843
1432.00,50.862
1433.00,50.874
1434.00,50.865
1435.00,50.928
1436.00,50.945
1437.00,50.927
1438.00,50.944
1439.00,50.986
1440.00,51.001
1441.00,51.001
1442.00,51.005
1443.00,51.068
1444.00,51.114
1445.00,51.043
1446.00,51.066
1447.00,51.100
1448.00,51.138
1449.00,51.136
1450.00,51.154
1451.00,51.160
1452.00,51.176
1453.00,51.206
1454.00,51.223
1455.00,51.237
1456.00,51.269
1457.00,51.271
1458.00,51.307
1459.00,51.325
1460.00,51.340
1461.00,51.353
1462.00,51.374
1463.00,51.367
1464.00,51.392
1465.00,51.404
1466.00,51.408
1467.00,51.443
1468.00,51.493
1469.00,51.477
1470.00,51.494
1471.00,51.519
1472.00,51.540
1473.00,51.547
1474.00,51.568
1475.00,51.590
1476.00,51.587
1477.00,51.564
1478.00,51.585
1479.00,51.613
1480.00,51.617
1481.00,51.621
1482.00,51.661
1483.00,51.670
1484.00,51.680
1485.00,51.693
1486.00,51.709
1487.00,51.756
1488.00,51.758
1489.00,51.745
1490.00,51.769
1491.00,51.777
1492.00,51.806
1493.00,51.784
1494.00,51.816
1495.00,51.827
1496.00,51.810
1497.00,51.833
1498.00,51.857
1499.00,51.833
1500.00,51.881
1501.00, 
1502.00, 
1503.00, 
1504.00, 
1505.00, 
1506.00, 
1507.00, 
1508.00, 
1509.00, 
1510.00, 
1511.00, 
1512.00, 
1513.00, 
1514.00, 
1515.00, 
1516.00, 
1517.00, 
1518.00, 
1519.00, 
1520.00, 
1521.00, 
1522.00, 
1523.00, 
1524.00, 
1525.00, 
1526.00, 
1527.00, 
1528.00, 
1529.00, 
1530.00, 
1531.00, 
1532.00, 
1533.00, 
1534.00, 
1535.00, 
1536.00, 
1537.00, 
1538.00, 
1539.00, 
1540.00, 
1541.00, 
1542.00, 
1543.00, 
1544.00, 
1545.00, 
1546.00, 
1547.00, 
1548.00, 
1549.00, 
1550.00, 
1551.00, 
1552.00, 
1553.00, 
1554.00, 
1555.00, 
1556.00, 
1557.00, 
1558.00, 
1559.00, 
1560.00, 
1561.00, 
1562.00, 
1563.00, 
1564.00, 
1565.00, 
1566.00, 
1567.00, 
1568.00, 
1569.00, 
1570.00, 
1571.00, 
1572.00, 
1573.00, 
1574.00, 
1575.00, 
1576.00, 
1577.00, 
1578.00, 
1579.00, 
1580.00, 
1581.00, 
1582.00, 
1583.00, 
1584.00, 
1585.00, 
1586.00, 
1587.00, 
1588.00, 
1589.00, 
1590.00, 
1591.00, 
1592.00, 
1593.00, 
1594.00, 
1595.00, 
1596.00, 
1597.00, 
1598.00, 
1599.00, 
1600.00, 
1601.00, 
1602.00, 
1603.00, 
1604.00, 
1605.00, 
1606.00, 
1607.00, 
1608.00, 
1609.00, 
1610.00, 
1611.00, 
1612.00, 
1613.00, 
1614.00, 
1615.00, 
1616.00, 
1617.00, 
1618.00, 
1619.00, 
1620.00, 
1621.00, 
1622.00, 
1623.00, 
1624.00, 
1625.00, 
1626.00, 
1627.00, 
1628.00, 
1629.00, 
1630.00, 
1631.00, 
1632.00, 
1633.00, 
1634.00, 
1635.00, 
1636.00, 
1637.00, 
1638.00, 
1639.00, 
1640.00, 
1641.00, 
1642.00, 
1643.00, 
1644.00, 
1645.00, 
1646.00, 
1647.00, 
1648.00, 
1649.00, 
1650.00, 
1651.00, 
1652.00, 
1653.00, 
1654.00, 
1655.00, 
1656.00, 
1657.00, 
1658.00, 
1659.00, 
1660.00, 
1661.00, 
1662.00, 
1663.00, 
1664.00, 
1665.00, 
1666.00, 
1667.00, 
1668.00, 
1669.00, 
1670.00, 
1671.00, 
1672.00, 
1673.00, 
1674.00, 
1675.00, 
1676.00, 
1677.00, 
1678.00, 
1679.00, 
1680.00, 
1681.00, 
1682.00, 
1683.00, 
1684.00, 
1685.00, 
1686.00, 
1687.00, 
1688.00, 
1689.00, 
1690.00, 
1691.00, 
1692.00, 
1693.00, 
1694.00, 
1695.00, 
1696.00, 
1697.00, 
1698.00, 
1699.00, 
1700.00, 
1701.00, 
1702.00, 
1703.00, 
1704.00, 
1705.00, 
1706.00, 
1707.00, 
1708.00, 
1709.00, 
1710.00, 
1711.00, 
1712.00, 
1713.00, 
1714.00, 
1715.00, 
1716.00, 
1717.00, 
1718.00, 
1719.00, 
1720.00, 
1721.00, 
1722.00, 
1723.00, 
1724.00, 
1725.00, 
1726.00, 
1727.00, 
1728.00, 
1729.00, 
1730.00, 
1731.00, 
1732.00, 
1733.00, 
1734.00, 
1735.00, 
1736.00, 
1737.00, 
1738.00, 
1739.00, 
1740.00, 
1741.00, 
1742.00, 
1743.00, 
1744.00, 
1745.00, 
1746.00, 
1747.00, 
1748.00, 
1749.00, 
1750.00, 
1751.00, 
1752.00, 
1753.00, 
1754.00, 
1755.00, 
1756.00, 
1757.00, 
1758.00, 
1759.00, 
1760.00, 
1761.00, 
1762.00, 
1763.00, 
1764.00, 
1765.00, 
1766.00, 
1767.00, 
1768.00, 
1769.00, 
1770.00, 
1771.00, 
1772.00, 
1773.00, 
1774.00, 
1775.00, 
1776.00, 
1777.00, 
1778.00, 
1779.00, 
1780.00, 
1781.00, 
1782.00, 
1783.00, 
1784.00, 
1785.00, 
1786.00, 
1787.00, 
1788.00, 
1789.00, 
1790.00, 
1791.00, 
1792.00, 
1793.00, 
1794.00, 
1795.00, 
1796.00, 
1797.00, 
1798.00, 
1799.00, 
1800.00, 
1801.00, 
1802.00, 
1803.00, 
1804.00, 
1805.00, 
1806.00, 
1807.00, 
1808.00, 
1809.00, 
1810.00, 
1811.00, 
1812.00, 
1813.00, 
1814.00, 
1815.00, 
1816.00, 
1817.00, 
1818.00, 
1819.00, 
1820.00, 
1821.00, 
1822.00, 
1823.00, 
1824.00, 
1825.00, 
1826.00, 
1827.00, 
1828.00, 
1829.00, 
1830.00, 
1831.00, 
1832.00, 
1833.00, 
1834.00, 
1835.00, 
1836.00, 
1837.00, 
1838.00, 
1839.00, 
1840.00, 
1841.00, 
1842.00, 
1843.00, 
1844.00, 
1845.00, 
1846.00, 
1847.00, 
1848.00, 
1849.00, 
1850.00, 
1851.00, 
1852.00, 
1853.00, 
1854.00, 
1855.00, 
1856.00, 
1857.00, 
1858.00, 
1859.00, 
1860.00, 
1861.00, 
1862.00, 
1863.00, 
1864.00, 
1865.00, 
1866.00, 
1867.00, 
1868.00, 
1869.00, 
1870.00, 
1871.00, 
1872.00, 
1873.00, 
1874.00, 
1875.00, 
1876.00, 
1877.00, 
1878.00, 
1879.00, 
1880.00, 
1881.00, 
1882.00, 
1883.00, 
1884.00, 
1885.00, 
1886.00, 
1887.00, 
1888.00, 
1889.00, 
1890.00, 
1891.00, 
1892.00, 
1893.00, 
1894.00, 
1895.00, 
1896.00, 
1897.00, 
1898.00, 
1899.00, 
1900.00, 
1901.00, 
1902.00, 
1903.00, 
1904.00, 
1905.00, 
1906.00, 
1907.00, 
1908.00, 
1909.00, 
1910.00, 
1911.00, 
1912.00, 
1913.00, 
1914.00, 
1915.00, 
1916.00, 
1917.00, 
1918.00, 
1919.00, 
1920.00, 
1921.00, 
1922.00, 
1923.00, 
1924.00, 
1925.00, 
1926.00, 
1927.00, 
1928.00, 
1929.00, 
1930.00, 
1931.00, 
1932.00, 
1933.00, 
1934.00, 
1935.00, 
1936.00, 
1937.00, 
1938.00, 
1939.00, 
1940.00, 
1941.00, 
1942.00, 
1943.00, 
1944.00, 
1945.00, 
1946.00, 
1947.00, 
1948.00, 
1949.00, 
1950.00, 
1951.00, 
1952.00, 
1953.00, 
1954.00, 
1955.00, 
1956.00, 
1957.00, 
1958.00, 
1959.00, 
1960.00, 
1961.00, 
1962.00, 
1963.00, 
1964.00, 
1965.00, 
1966.00, 
1967.00, 
1968.00, 
1969.00, 
1970.00, 
1971.00, 
1972.00, 
1973.00, 
1974.00, 
1975.00, 
1976.00, 
1977.00, 
1978.00, 
1979.00, 
1980.00, 
1981.00, 
1982.00, 
1983.00, 
1984.00, 
1985.00, 
1986.00, 
1987.00, 
1988.00, 
1989.00, 
1990.00, 
1991.00, 
1992.00, 
1993.00, 
1994.00, 
1995.00, 
1996.00, 
1997.00, 
1998.00, 
1999.00, 
2000.00, 
2001.00, 
2002.00, 
2003.00, 
2004.00, 
2005.00, 
2006.00, 
2007.00, 
2008.00, 
2009.00, 
2010.00, 
2011.00, 
2012.00, 
2013.00, 
2014.00, 
2015.00, 
2016.00, 
2017.00, 
2018.00, 
2019.00, 
2020.00, 
2021.00, 
2022.00, 
2023.00, 
2024.00, 
2025.00, 
2026.00, 
2027.00, 
2028.00, 
2029.00, 
2030.00, 
2031.00, 
2032.00, 
2033.00, 
2034.00, 
2035.00, 
2036.00, 
2037.00, 
2038.00, 
2039.00, 
2040.00, 
2041.00, 
2042.00, 
2043.00, 
2044.00, 
2045.00, 
2046.00, 
2047.00, 
2048.00, 
2049.00, 
2050.00, 
2051.00, 
2052.00, 
2053.00, 
2054.00, 
2055.00, 
2056.00, 
2057.00, 
2058.00, 
2059.00, 
2060.00, 
2061.00, 
2062.00, 
2063.00, 
2064.00, 
2065.00, 
2066.00, 
2067.00, 
2068.00, 
2069.00, 
2070.00, 
2071.00, 
2072.00, 
2073.00, 
2074.00, 
2075.00, 
2076.00, 
2077.00, 
2078.00, 
2079.00, 
2080.00, 
2081.00, 
2082.00, 
2083.00, 
2084.00, 
2085.00, 
2086.00, 
2087.00, 
2088.00, 
2089.00, 
2090.00, 
2091.00, 
2092.00, 
2093.00, 
2094.00, 
2095.00, 
2096.00, 
2097.00, 
2098.00, 
2099.00, 
2100.00, 
2101.00, 
2102.00, 
2103.00, 
2104.00, 
2105.00, 
2106.00, 
2107.00, 
2108.00, 
2109.00, 
2110.00, 
2111.00, 
2112.00, 
2113.00, 
2114.00, 
2115.00, 
2116.00, 
2117.00, 
2118.00, 
2119.00, 
2120.00, 
2121.00, 
2122.00, 
2123.00, 
2124.00, 
2125.00, 
2126.00, 
2127.00, 
2128.00, 
2129.00, 
2130.00, 
2131.00, 
2132.00, 
2133.00, 
2134.00, 
2135.00, 
2136.00, 
2137.00, 
2138.00, 
2139.00, 
2140.00, 
2141.00, 
2142.00, 
2143.00, 
2144.00, 
2145.00, 
2146.00, 
2147.00, 
2148.00, 
2149.00, 
2150.00, 
2151.00, 
2152.00, 
2153.00, 
2154.00, 
2155.00, 
2156.00, 
2157.00, 
2158.00, 
2159.00, 
2160.00, 
2161.00, 
2162.00, 
2163.00, 
2164.00, 
2165.00, 
2166.00, 
2167.00, 
2168.00, 
2169.00, 
2170.00, 
2171.00, 
2172.00, 
2173.00, 
2174.00, 
2175.00, 
2176.00, 
2177.00, 
2178.00, 
2179.00, 
2180.00, 
2181.00, 
2182.00, 
2183.00, 
2184.00, 
2185.00, 
2186.00, 
2187.00, 
2188.00, 
2189.00, 
2190.00, 
2191.00, 
2192.00, 
2193.00, 
2194.00, 
2195.00, 
2196.00, 
2197.00, 
2198.00, 
2199.00, 
2200.00, 
2201.00, 
2202.00, 
2203.00, 
2204.00, 
2205.00, 
2206.00, 
2207.00, 
2208.00, 
2209.00, 
2210.00, 
2211.00, 
2212.00, 
2213.00, 
2214.00, 
2215.00, 
2216.00, 
2217.00, 
2218.00, 
2219.00, 
2220.00, 
2221.00, 
2222.00, 
2223.00, 
2224.00, 
2225.00, 
2226.00, 
2227.00, 
2228.00, 
2229.00, 
2230.00, 
2231.00, 
2232.00, 
2233.00, 
2234.00, 
2235.00, 
2236.00, 
2237.00, 
2238.00, 
2239.00, 
2240.00, 
2241.00, 
2242.00, 
2243.00, 
2244.00, 
2245.00, 
2246.00, 
2247.00, 
2248.00, 
2249.00, 
2250.00, 
2251.00, 
2252.00, 
2253.00, 
2254.00, 
2255.00, 
2256.00, 
2257.00, 
2258.00, 
2259.00, 
2260.00, 
2261.00, 
2262.00, 
2263.00, 
2264.00, 
2265.00, 
2266.00, 
2267.00, 
2268.00, 
2269.00, 
2270.00, 
2271.00, 
2272.00, 
2273.00, 
2274.00, 
2275.00, 
2276.00, 
2277.00, 
2278.00, 
2279.00, 
2280.00, 
2281.00, 
2282.00, 
2283.00, 
2284.00, 
2285.00, 
2286.00, 
2287.00, 
2288.00, 
2289.00, 
2290.00, 
2291.00, 
2292.00, 
2293.00, 
2294.00, 
2295.00, 
2296.00, 
2297.00, 
2298.00, 
2299.00, 
2300.00, 
2301.00, 
2302.00, 
2303.00, 
2304.00, 
2305.00, 
2306.00, 
2307.00, 
2308.00, 
2309.00, 
2310.00, 
2311.00, 
2312.00, 
2313.00, 
2314.00, 
2315.00, 
2316.00, 
2317.00, 
2318.00, 
2319.00, 
2320.00, 
2321.00, 
2322.00, 
2323.00, 
2324.00, 
2325.00, 
2326.00, 
2327.00, 
2328.00, 
2329.00, 
2330.00, 
2331.00, 
2332.00, 
2333.00, 
2334.00, 
2335.00, 
2336.00, 
2337.00, 
2338.00, 
2339.00, 
2340.00, 
2341.00, 
2342.00, 
2343.00, 
2344.00, 
2345.00, 
2346.00, 
2347.00, 
2348.00, 
2349.00, 
2350.00, 
2351.00, 
2352.00, 
2353.00, 
2354.00, 
2355.00, 
2356.00, 
2357.00, 
2358.00, 
2359.00, 
2360.00, 
2361.00, 
2362.00, 
2363.00, 
2364.00, 
2365.00, 
2366.00, 
2367.00, 
2368.00, 
2369.00, 
2370.00, 
2371.00, 
2372.00, 
2373.00, 
2374.00, 
2375.00, 
2376.00, 
2377.00, 
2378.00, 
2379.00, 
2380.00, 
2381.00, 
2382.00, 
2383.00, 
2384.00, 
2385.00, 
2386.00, 
2387.00, 
2388.00, 
2389.00, 
2390.00, 
2391.00, 
2392.00, 
2393.00, 
2394.00, 
2395.00, 
2396.00, 
2397.00, 
2398.00, 
2399.00, 
2400.00, 
2401.00, 
2402.00, 
2403.00, 
2404.00, 
2405.00, 
2406.00, 
2407.00, 
2408.00, 
2409.00, 
2410.00, 
2411.00, 
2412.00, 
2413.00, 
2414.00, 
2415.00, 
2416.00, 
2417.00, 
2418.00, 
2419.00, 
2420.00, 
2421.00, 
2422.00, 
2423.00, 
2424.00, 
2425.00, 
2426.00, 
2427.00, 
2428.00, 
2429.00, 
2430.00, 
2431.00, 
2432.00, 
2433.00, 
2434.00, 
2435.00, 
2436.00, 
2437.00, 
2438.00, 
2439.00, 
2440.00, 
2441.00, 
2442.00, 
2443.00, 
2444.00, 
2445.00, 
2446.00, 
2447.00, 
2448.00, 
2449.00, 
2450.00, 
2451.00, 
2452.00, 
2453.00, 
2454.00, 
2455.00, 
2456.00, 
2457.00, 
2458.00, 
2459.00, 
2460.00, 
2461.00, 
2462.00, 
2463.00, 
2464.00, 
2465.00, 
2466.00, 
2467.00, 
2468.00, 
2469.00, 
2470.00, 
2471.00, 
2472.00, 
2473.00, 
2474.00, 
2475.00, 
2476.00, 
2477.00, 
2478.00, 
2479.00, 
2480.00, 
2481.00, 
2482.00, 
2483.00, 
2484.00, 
2485.00, 
2486.00, 
2487.00, 
2488.00, 
2489.00, 
2490.00, 
2491.00, 
2492.00, 
2493.00, 
2494.00, 
2495.00, 
2496.00, 
2497.00, 
2498.00, 
2499.00, 
2500.00, 
2501.00, 
2502.00, 
2503.00, 
2504.00, 
2505.00, 
2506.00, 
2507.00, 
2508.00, 
2509.00, 
2510.00, 
2511.00, 
2512.00, 
2513.00, 
2514.00, 
2515.00, 
2516.00, 
2517.00, 
2518.00, 
2519.00, 
2520.00, 
2521.00, 
2522.00, 
2523.00, 
2524.00, 
2525.00, 
2526.00, 
2527.00, 
2528.00, 
2529.00, 
2530.00, 
2531.00, 
2532.00, 
2533.00, 
2534.00, 
2535.00, 
2536.00, 
2537.00, 
2538.00, 
2539.00, 
2540.00, 
2541.00, 
2542.00, 
2543.00, 
2544.00, 
2545.00, 
2546.00, 
2547.00, 
2548.00, 
2549.00, 
2550.00, 
2551.00, 
2552.00, 
2553.00, 
2554.00, 
2555.00, 
2556.00, 
2557.00, 
2558.00, 
2559.00, 
2560.00, 
2561.00, 
2562.00, 
2563.00, 
2564.00, 
2565.00, 
2566.00, 
2567.00, 
2568.00, 
2569.00, 
2570.00, 
2571.00, 
2572.00, 
2573.00, 
2574.00, 
2575.00, 
2576.00, 
2577.00, 
2578.00, 
2579.00, 
2580.00, 
2581.00, 
2582.00, 
2583.00, 
2584.00, 
2585.00, 
2586.00, 
2587.00, 
2588.00, 
2589.00, 
2590.00, 
2591.00, 
2592.00, 
2593.00, 
2594.00, 
2595.00, 
2596.00, 
2597.00, 
2598.00, 
2599.00, 
2600.00, 
