"1cP4 - RawData"
"Wavelength nm.","T%"
200.00,0.002
201.00,0.002
202.00,0.003
203.00,0.003
204.00,0.004
205.00,0.002
206.00,0.002
207.00,-0.000
208.00,0.004
209.00,0.001
210.00,0.002
211.00,0.003
212.00,0.002
213.00,0.000
214.00,-0.001
215.00,0.002
216.00,0.002
217.00,0.000
218.00,0.000
219.00,0.002
220.00,0.000
221.00,0.002
222.00,0.003
223.00,0.003
224.00,-0.000
225.00,0.001
226.00,-0.001
227.00,0.003
228.00,0.002
229.00,0.001
230.00,0.000
231.00,-0.001
232.00,0.001
233.00,0.002
234.00,-0.001
235.00,0.001
236.00,0.000
237.00,-0.001
238.00,-0.001
239.00,0.002
240.00,0.000
241.00,-0.002
242.00,0.001
243.00,0.000
244.00,0.000
245.00,0.001
246.00,0.001
247.00,0.001
248.00,0.002
249.00,0.001
250.00,0.001
251.00,0.000
252.00,0.001
253.00,0.003
254.00,0.000
255.00,-0.001
256.00,0.000
257.00,-0.000
258.00,0.001
259.00,0.000
260.00,-0.001
261.00,0.000
262.00,0.001
263.00,-0.000
264.00,0.001
265.00,-0.000
266.00,-0.001
267.00,0.000
268.00,-0.000
269.00,0.000
270.00,-0.001
271.00,0.001
272.00,0.000
273.00,0.000
274.00,0.001
275.00,-0.001
276.00,-0.000
277.00,0.002
278.00,-0.001
279.00,0.001
280.00,-0.000
281.00,0.000
282.00,-0.000
283.00,0.000
284.00,0.001
285.00,0.001
286.00,-0.001
287.00,0.001
288.00,-0.000
289.00,-0.000
290.00,-0.000
291.00,0.001
292.00,-0.000
293.00,-0.000
294.00,-0.000
295.00,-0.001
296.00,0.000
297.00,0.000
298.00,0.001
299.00,0.000
300.00,0.001
301.00,0.001
302.00,0.002
303.00,0.001
304.00,0.001
305.00,0.001
306.00,0.003
307.00,0.003
308.00,0.007
309.00,0.013
310.00,0.019
311.00,0.029
312.00,0.046
313.00,0.069
314.00,0.102
315.00,0.149
316.00,0.214
317.00,0.300
318.00,0.407
319.00,0.547
320.00,0.724
321.00,0.935
322.00,1.206
323.00,1.537
324.00,1.892
325.00,2.286
326.00,2.690
327.00,3.217
328.00,3.755
329.00,4.317
330.00,4.925
331.00,5.570
332.00,6.271
333.00,7.028
334.00,7.726
335.00,8.510
336.00,9.289
337.00,10.063
338.00,10.833
339.00,11.553
340.00,12.309
341.00,13.032
342.00,13.796
343.00,14.465
344.00,15.122
345.00,15.831
346.00,16.427
347.00,16.969
348.00,17.546
349.00,18.042
350.00,18.542
351.00,19.017
352.00,19.383
353.00,19.841
354.00,20.233
355.00,20.610
356.00,20.909
357.00,21.238
358.00,21.540
359.00,21.847
360.00,22.129
361.00,22.332
362.00,22.546
363.00,22.749
364.00,22.904
365.00,22.994
366.00,23.124
367.00,23.265
368.00,23.304
369.00,23.372
370.00,23.462
371.00,23.490
372.00,23.465
373.00,23.467
374.00,23.439
375.00,23.422
376.00,23.301
377.00,23.270
378.00,23.145
379.00,23.077
380.00,23.063
381.00,23.076
382.00,23.046
383.00,23.059
384.00,23.147
385.00,23.243
386.00,23.240
387.00,23.333
388.00,23.485
389.00,23.519
390.00,23.558
391.00,23.624
392.00,23.644
393.00,23.672
394.00,23.727
395.00,23.789
396.00,23.753
397.00,23.801
398.00,23.794
399.00,23.817
400.00,23.834
401.00,23.819
402.00,23.821
403.00,23.832
404.00,23.825
405.00,23.776
406.00,23.795
407.00,23.739
408.00,23.754
409.00,23.704
410.00,23.638
411.00,23.644
412.00,23.572
413.00,23.641
414.00,23.623
415.00,23.564
416.00,23.661
417.00,23.658
418.00,23.668
419.00,23.755
420.00,23.809
421.00,23.766
422.00,23.804
423.00,23.818
424.00,23.918
425.00,23.954
426.00,23.975
427.00,24.055
428.00,24.058
429.00,24.107
430.00,24.121
431.00,24.215
432.00,24.244
433.00,24.294
434.00,24.328
435.00,24.437
436.00,24.486
437.00,24.513
438.00,24.616
439.00,24.661
440.00,24.768
441.00,24.821
442.00,24.904
443.00,24.973
444.00,25.056
445.00,25.171
446.00,25.297
447.00,25.368
448.00,25.478
449.00,25.563
450.00,25.672
451.00,25.766
452.00,25.878
453.00,26.007
454.00,26.085
455.00,26.203
456.00,26.355
457.00,26.412
458.00,26.546
459.00,26.697
460.00,26.811
461.00,26.953
462.00,27.072
463.00,27.206
464.00,27.354
465.00,27.435
466.00,27.657
467.00,27.728
468.00,27.837
469.00,27.951
470.00,28.033
471.00,28.134
472.00,28.264
473.00,28.348
474.00,28.485
475.00,28.606
476.00,28.683
477.00,28.793
478.00,28.939
479.00,29.140
480.00,29.239
481.00,29.349
482.00,29.433
483.00,29.650
484.00,29.841
485.00,29.979
486.00,30.096
487.00,30.263
488.00,30.371
489.00,30.551
490.00,30.695
491.00,30.828
492.00,30.968
493.00,31.165
494.00,31.358
495.00,31.363
496.00,31.455
497.00,31.497
498.00,31.728
499.00,31.818
500.00,31.942
501.00,32.080
502.00,32.197
503.00,32.362
504.00,32.393
505.00,32.489
506.00,32.662
507.00,32.732
508.00,32.835
509.00,33.054
510.00,33.141
511.00,33.217
512.00,33.423
513.00,33.529
514.00,33.587
515.00,33.749
516.00,33.856
517.00,33.901
518.00,34.093
519.00,34.149
520.00,34.162
521.00,34.294
522.00,34.391
523.00,34.383
524.00,34.538
525.00,34.641
526.00,34.767
527.00,34.803
528.00,34.881
529.00,35.018
530.00,35.198
531.00,35.312
532.00,35.379
533.00,35.457
534.00,35.571
535.00,35.636
536.00,35.689
537.00,35.766
538.00,35.807
539.00,35.897
540.00,35.961
541.00,36.024
542.00,36.057
543.00,36.134
544.00,36.198
545.00,36.277
546.00,36.342
547.00,36.432
548.00,36.514
549.00,36.556
550.00,36.623
551.00,36.755
552.00,36.775
553.00,36.846
554.00,36.932
555.00,36.916
556.00,37.031
557.00,37.118
558.00,37.118
559.00,37.181
560.00,37.263
561.00,37.329
562.00,37.372
563.00,37.390
564.00,37.466
565.00,37.481
566.00,37.476
567.00,37.530
568.00,37.564
569.00,37.588
570.00,37.673
571.00,37.712
572.00,37.733
573.00,37.729
574.00,37.711
575.00,37.717
576.00,37.786
577.00,37.763
578.00,37.949
579.00,38.030
580.00,38.005
581.00,38.069
582.00,38.200
583.00,38.154
584.00,38.320
585.00,38.338
586.00,38.405
587.00,38.496
588.00,38.489
589.00,38.452
590.00,38.509
591.00,38.574
592.00,38.518
593.00,38.608
594.00,38.715
595.00,38.765
596.00,38.757
597.00,38.823
598.00,38.926
599.00,38.890
600.00,39.069
601.00,39.078
602.00,39.035
603.00,39.040
604.00,39.139
605.00,39.182
606.00,39.242
607.00,39.262
608.00,39.274
609.00,39.352
610.00,39.555
611.00,39.441
612.00,39.470
613.00,39.462
614.00,39.559
615.00,39.666
616.00,39.695
617.00,39.663
618.00,39.718
619.00,39.715
620.00,39.757
621.00,39.861
622.00,39.822
623.00,39.841
624.00,40.092
625.00,40.129
626.00,40.143
627.00,40.248
628.00,40.225
629.00,40.200
630.00,40.346
631.00,40.383
632.00,40.474
633.00,40.625
634.00,40.648
635.00,40.756
636.00,40.826
637.00,40.771
638.00,40.797
639.00,40.953
640.00,41.023
641.00,41.003
642.00,41.098
643.00,41.208
644.00,41.197
645.00,41.361
646.00,41.523
647.00,41.431
648.00,41.377
649.00,41.550
650.00,41.558
651.00,41.781
652.00,41.835
653.00,41.832
654.00,41.950
655.00,42.131
656.00,42.364
657.00,42.265
658.00,42.403
659.00,42.543
660.00,42.473
661.00,42.507
662.00,42.600
663.00,42.642
664.00,42.926
665.00,43.082
666.00,42.896
667.00,43.086
668.00,42.968
669.00,43.159
670.00,43.590
671.00,43.264
672.00,43.255
673.00,43.663
674.00,43.709
675.00,43.721
676.00,43.954
677.00,44.079
678.00,43.903
679.00,43.994
680.00,44.128
681.00,44.396
682.00,44.374
683.00,44.404
684.00,44.521
685.00,44.581
686.00,44.453
687.00,44.666
688.00,44.773
689.00,44.727
690.00,44.971
691.00,45.225
692.00,44.862
693.00,44.946
694.00,45.225
695.00,45.284
696.00,45.335
697.00,45.362
698.00,45.343
699.00,45.662
700.00,45.680
701.00,45.629
702.00,45.570
703.00,46.037
704.00,46.321
705.00,45.938
706.00,46.024
707.00,46.097
708.00,45.932
709.00,46.351
710.00,46.715
711.00,46.226
712.00,46.277
713.00,46.502
714.00,46.587
715.00,46.578
716.00,46.569
717.00,46.757
718.00,46.874
719.00,46.904
720.00,46.904
721.00,51.383
722.00,51.389
723.00,51.345
724.00,51.363
725.00,51.434
726.00,51.429
727.00,51.420
728.00,51.501
729.00,51.492
730.00,51.415
731.00,51.511
732.00,51.545
733.00,51.559
734.00,51.570
735.00,51.580
736.00,51.599
737.00,51.611
738.00,51.743
739.00,51.672
740.00,51.653
741.00,51.641
742.00,51.732
743.00,51.668
744.00,51.721
745.00,51.773
746.00,51.734
747.00,51.707
748.00,51.734
749.00,51.707
750.00,51.702
751.00,51.680
752.00,51.720
753.00,51.713
754.00,51.722
755.00,51.642
756.00,51.743
757.00,51.665
758.00,51.755
759.00,51.652
760.00,51.656
761.00,51.722
762.00,51.699
763.00,51.809
764.00,51.657
765.00,51.720
766.00,51.796
767.00,51.810
768.00,51.782
769.00,51.728
770.00,51.789
771.00,51.734
772.00,51.793
773.00,51.707
774.00,51.778
775.00,51.787
776.00,51.723
777.00,51.864
778.00,51.750
779.00,51.876
780.00,51.772
781.00,51.795
782.00,51.781
783.00,51.693
784.00,51.792
785.00,51.683
786.00,51.825
787.00,51.673
788.00,51.702
789.00,51.668
790.00,51.646
791.00,51.675
792.00,51.639
793.00,51.678
794.00,51.655
795.00,51.605
796.00,51.635
797.00,51.518
798.00,51.614
799.00,51.552
800.00,51.530
801.00,51.530
802.00,51.498
803.00,51.441
804.00,51.413
805.00,51.528
806.00,51.442
807.00,51.413
808.00,51.402
809.00,51.363
810.00,51.347
811.00,51.343
812.00,51.391
813.00,51.317
814.00,51.333
815.00,51.297
816.00,51.272
817.00,51.253
818.00,51.201
819.00,51.209
820.00,51.241
821.00,51.161
822.00,51.159
823.00,51.165
824.00,51.158
825.00,51.109
826.00,51.088
827.00,51.238
828.00,51.105
829.00,51.050
830.00,51.092
831.00,53.396
832.00,53.454
833.00,53.407
834.00,53.416
835.00,53.322
836.00,53.361
837.00,53.322
838.00,53.318
839.00,53.292
840.00,53.269
841.00,53.277
842.00,53.197
843.00,53.194
844.00,53.330
845.00,53.171
846.00,53.172
847.00,53.112
848.00,53.086
849.00,53.018
850.00,53.050
851.00,52.956
852.00,53.011
853.00,52.929
854.00,52.855
855.00,52.916
856.00,52.863
857.00,52.783
858.00,52.783
859.00,52.783
860.00,52.807
861.00,52.812
862.00,52.705
863.00,52.752
864.00,52.707
865.00,52.722
866.00,52.651
867.00,52.656
868.00,52.697
869.00,52.672
870.00,52.586
871.00,52.703
872.00,52.617
873.00,52.595
874.00,52.610
875.00,52.545
876.00,52.511
877.00,52.516
878.00,52.540
879.00,52.462
880.00,52.444
881.00,52.435
882.00,52.476
883.00,52.389
884.00,52.403
885.00,52.401
886.00,52.518
887.00,52.364
888.00,52.319
889.00,52.336
890.00,52.290
891.00,52.285
892.00,52.245
893.00,52.233
894.00,52.243
895.00,52.188
896.00,52.164
897.00,52.152
898.00,52.180
899.00,52.022
900.00,52.122
901.00,52.081
902.00,52.091
903.00,52.062
904.00,52.064
905.00,52.068
906.00,52.018
907.00,52.002
908.00,51.976
909.00,51.950
910.00,51.921
911.00,51.908
912.00,51.919
913.00,51.861
914.00,51.876
915.00,51.816
916.00,51.804
917.00,51.754
918.00,51.773
919.00,51.752
920.00,51.695
921.00,51.713
922.00,51.686
923.00,51.648
924.00,51.569
925.00,51.669
926.00,51.603
927.00,51.602
928.00,51.561
929.00,51.574
930.00,51.526
931.00,51.513
932.00,51.504
933.00,51.517
934.00,51.471
935.00,51.449
936.00,51.448
937.00,51.431
938.00,51.396
939.00,51.387
940.00,51.397
941.00,51.349
942.00,51.308
943.00,51.292
944.00,51.266
945.00,51.281
946.00,51.248
947.00,51.219
948.00,51.210
949.00,51.176
950.00,51.167
951.00,51.121
952.00,51.131
953.00,51.094
954.00,51.076
955.00,51.044
956.00,51.043
957.00,51.007
958.00,51.022
959.00,50.951
960.00,50.945
961.00,50.930
962.00,50.934
963.00,50.899
964.00,50.888
965.00,50.907
966.00,50.858
967.00,50.841
968.00,50.838
969.00,50.867
970.00,50.835
971.00,50.868
972.00,50.833
973.00,50.849
974.00,50.874
975.00,50.826
976.00,50.859
977.00,50.830
978.00,50.877
979.00,50.840
980.00,50.844
981.00,50.851
982.00,50.833
983.00,50.843
984.00,50.805
985.00,50.850
986.00,50.829
987.00,50.817
988.00,50.807
989.00,50.790
990.00,50.772
991.00,50.750
992.00,50.760
993.00,50.732
994.00,50.708
995.00,50.696
996.00,50.691
997.00,50.672
998.00,50.649
999.00,50.682
1000.00,50.613
1001.00,50.627
1002.00,50.624
1003.00,50.622
1004.00,50.596
1005.00,50.574
1006.00,50.597
1007.00,50.567
1008.00,50.534
1009.00,50.523
1010.00,50.541
1011.00,50.526
1012.00,50.497
1013.00,50.521
1014.00,50.475
1015.00,50.492
1016.00,50.459
1017.00,50.463
1018.00,50.427
1019.00,50.392
1020.00,50.402
1021.00,50.374
1022.00,50.382
1023.00,50.333
1024.00,50.347
1025.00,50.315
1026.00,50.313
1027.00,50.299
1028.00,50.287
1029.00,50.300
1030.00,50.249
1031.00,50.259
1032.00,50.240
1033.00,50.222
1034.00,50.204
1035.00,50.153
1036.00,50.125
1037.00,50.114
1038.00,50.110
1039.00,50.062
1040.00,50.083
1041.00,50.033
1042.00,50.041
1043.00,50.020
1044.00,50.047
1045.00,50.021
1046.00,50.020
1047.00,50.051
1048.00,50.046
1049.00,50.062
1050.00,50.050
1051.00,50.096
1052.00,50.092
1053.00,50.088
1054.00,50.092
1055.00,50.112
1056.00,50.115
1057.00,50.126
1058.00,50.101
1059.00,50.116
1060.00,50.167
1061.00,50.102
1062.00,50.107
1063.00,50.096
1064.00,50.096
1065.00,50.080
1066.00,50.069
1067.00,50.059
1068.00,50.085
1069.00,50.043
1070.00,50.008
1071.00,49.989
1072.00,50.028
1073.00,49.996
1074.00,49.990
1075.00,49.989
1076.00,49.984
1077.00,49.954
1078.00,49.953
1079.00,49.935
1080.00,49.922
1081.00,49.913
1082.00,49.913
1083.00,49.895
1084.00,49.890
1085.00,49.880
1086.00,49.874
1087.00,49.882
1088.00,49.849
1089.00,49.846
1090.00,49.851
1091.00,49.846
1092.00,49.843
1093.00,49.858
1094.00,49.800
1095.00,49.809
1096.00,49.780
1097.00,49.776
1098.00,49.768
1099.00,49.763
1100.00,49.747
1101.00,49.741
1102.00,49.727
1103.00,49.735
1104.00,49.725
1105.00,49.722
1106.00,49.719
1107.00,49.720
1108.00,49.728
1109.00,49.700
1110.00,49.683
1111.00,49.682
1112.00,49.658
1113.00,49.642
1114.00,49.643
1115.00,49.651
1116.00,49.623
1117.00,49.628
1118.00,49.611
1119.00,49.618
1120.00,49.617
1121.00,49.608
1122.00,49.593
1123.00,49.594
1124.00,49.567
1125.00,49.582
1126.00,49.564
1127.00,49.556
1128.00,49.548
1129.00,49.545
1130.00,49.532
1131.00,49.540
1132.00,49.531
1133.00,49.528
1134.00,49.527
1135.00,49.503
1136.00,49.506
1137.00,49.512
1138.00,49.504
1139.00,49.506
1140.00,49.483
1141.00,49.482
1142.00,49.475
1143.00,49.489
1144.00,49.460
1145.00,49.473
1146.00,49.468
1147.00,49.469
1148.00,49.468
1149.00,49.468
1150.00,49.468
1151.00,49.468
1152.00,49.460
1153.00,49.470
1154.00,49.454
1155.00,49.447
1156.00,49.430
1157.00,49.443
1158.00,49.441
1159.00,49.432
1160.00,49.401
1161.00,49.428
1162.00,49.417
1163.00,49.403
1164.00,49.412
1165.00,49.413
1166.00,49.427
1167.00,49.428
1168.00,49.443
1169.00,49.440
1170.00,49.414
1171.00,49.384
1172.00,49.407
1173.00,49.391
1174.00,49.386
1175.00,49.393
1176.00,49.400
1177.00,49.408
1178.00,49.418
1179.00,49.432
1180.00,49.406
1181.00,49.427
1182.00,49.395
1183.00,49.388
1184.00,49.370
1185.00,49.390
1186.00,49.384
1187.00,49.377
1188.00,49.376
1189.00,49.383
1190.00,49.382
1191.00,49.385
1192.00,49.407
1193.00,49.377
1194.00,49.391
1195.00,49.357
1196.00,49.383
1197.00,49.405
1198.00,49.369
1199.00,49.373
1200.00,49.411
1201.00,49.390
1202.00,49.387
1203.00,49.377
1204.00,49.358
1205.00,49.396
1206.00,49.377
1207.00,49.385
1208.00,49.383
1209.00,49.389
1210.00,49.380
1211.00,49.379
1212.00,49.408
1213.00,49.376
1214.00,49.397
1215.00,49.373
1216.00,49.409
1217.00,49.393
1218.00,49.370
1219.00,49.413
1220.00,49.374
1221.00,49.391
1222.00,49.383
1223.00,49.411
1224.00,49.413
1225.00,49.402
1226.00,49.397
1227.00,49.394
1228.00,49.415
1229.00,49.420
1230.00,49.452
1231.00,49.429
1232.00,49.455
1233.00,49.462
1234.00,49.463
1235.00,49.467
1236.00,49.457
1237.00,49.454
1238.00,49.474
1239.00,49.464
1240.00,49.442
1241.00,49.457
1242.00,49.451
1243.00,49.477
1244.00,49.458
1245.00,49.476
1246.00,49.491
1247.00,49.471
1248.00,49.465
1249.00,49.502
1250.00,49.502
1251.00,49.500
1252.00,49.536
1253.00,49.502
1254.00,49.542
1255.00,49.528
1256.00,49.491
1257.00,49.488
1258.00,49.547
1259.00,49.515
1260.00,49.559
1261.00,49.555
1262.00,49.547
1263.00,49.557
1264.00,49.558
1265.00,49.563
1266.00,49.564
1267.00,49.564
1268.00,49.588
1269.00,49.576
1270.00,49.586
1271.00,49.605
1272.00,49.591
1273.00,49.606
1274.00,49.605
1275.00,49.617
1276.00,49.614
1277.00,49.624
1278.00,49.631
1279.00,49.628
1280.00,49.616
1281.00,49.635
1282.00,49.666
1283.00,49.667
1284.00,49.679
1285.00,49.675
1286.00,49.687
1287.00,49.691
1288.00,49.677
1289.00,49.677
1290.00,49.726
1291.00,49.702
1292.00,49.690
1293.00,49.695
1294.00,49.703
1295.00,49.736
1296.00,49.736
1297.00,49.735
1298.00,49.760
1299.00,49.756
1300.00,49.778
1301.00,49.757
1302.00,49.777
1303.00,49.769
1304.00,49.784
1305.00,49.798
1306.00,49.810
1307.00,49.832
1308.00,49.825
1309.00,49.833
1310.00,49.831
1311.00,49.811
1312.00,49.826
1313.00,49.840
1314.00,49.855
1315.00,49.870
1316.00,49.870
1317.00,49.901
1318.00,49.904
1319.00,49.898
1320.00,49.926
1321.00,50.089
1322.00,50.077
1323.00,50.061
1324.00,50.055
1325.00,50.029
1326.00,50.071
1327.00,50.046
1328.00,50.041
1329.00,50.066
1330.00,50.060
1331.00,50.066
1332.00,50.069
1333.00,50.098
1334.00,50.113
1335.00,50.145
1336.00,50.158
1337.00,50.198
1338.00,50.260
1339.00,50.302
1340.00,50.360
1341.00,50.404
1342.00,50.467
1343.00,50.529
1344.00,50.558
1345.00,50.620
1346.00,50.656
1347.00,50.680
1348.00,50.709
1349.00,50.721
1350.00,50.735
1351.00,50.755
1352.00,50.743
1353.00,50.760
1354.00,50.795
1355.00,50.696
1356.00,50.823
1357.00,50.799
1358.00,50.805
1359.00,50.878
1360.00,50.786
1361.00,50.846
1362.00,50.814
1363.00,50.869
1364.00,50.966
1365.00,50.884
1366.00,51.124
1367.00,50.834
1368.00,50.800
1369.00,50.847
1370.00,50.835
1371.00,50.756
1372.00,50.801
1373.00,50.848
1374.00,50.849
1375.00,50.828
1376.00,50.849
1377.00,50.811
1378.00,51.080
1379.00,50.823
1380.00,50.849
1381.00,50.876
1382.00,50.828
1383.00,50.866
1384.00,50.826
1385.00,50.793
1386.00,50.842
1387.00,50.839
1388.00,50.798
1389.00,50.791
1390.00,50.822
1391.00,50.875
1392.00,50.843
1393.00,50.851
1394.00,50.877
1395.00,50.847
1396.00,50.802
1397.00,50.851
1398.00,50.880
1399.00,50.865
1400.00,50.818
1401.00,50.868
1402.00,50.891
1403.00,50.832
1404.00,50.870
1405.00,50.864
1406.00,50.908
1407.00,50.902
1408.00,50.913
1409.00,50.904
1410.00,50.936
1411.00,50.851
1412.00,51.134
1413.00,50.911
1414.00,50.929
1415.00,50.937
1416.00,50.971
1417.00,51.002
1418.00,50.978
1419.00,50.983
1420.00,51.017
1421.00,51.080
1422.00,51.043
1423.00,51.082
1424.00,51.092
1425.00,51.101
1426.00,51.123
1427.00,51.157
1428.00,51.129
1429.00,51.134
1430.00,51.138
1431.00,51.174
1432.00,51.185
1433.00,51.196
1434.00,51.195
1435.00,51.271
1436.00,51.290
1437.00,51.272
1438.00,51.268
1439.00,51.328
1440.00,51.347
1441.00,51.352
1442.00,51.384
1443.00,51.428
1444.00,51.469
1445.00,51.419
1446.00,51.448
1447.00,51.461
1448.00,51.494
1449.00,51.493
1450.00,51.504
1451.00,51.519
1452.00,51.544
1453.00,51.573
1454.00,51.591
1455.00,51.608
1456.00,51.656
1457.00,51.648
1458.00,51.689
1459.00,51.697
1460.00,51.723
1461.00,51.729
1462.00,51.736
1463.00,51.740
1464.00,51.765
1465.00,51.783
1466.00,51.779
1467.00,51.799
1468.00,51.870
1469.00,51.842
1470.00,51.858
1471.00,51.881
1472.00,51.907
1473.00,51.908
1474.00,51.931
1475.00,51.946
1476.00,51.941
1477.00,51.922
1478.00,51.948
1479.00,51.964
1480.00,51.984
1481.00,52.000
1482.00,52.031
1483.00,52.053
1484.00,52.068
1485.00,52.076
1486.00,52.106
1487.00,52.136
1488.00,52.118
1489.00,52.119
1490.00,52.144
1491.00,52.152
1492.00,52.162
1493.00,52.149
1494.00,52.183
1495.00,52.172
1496.00,52.181
1497.00,52.206
1498.00,52.222
1499.00,52.218
1500.00,52.278
1501.00, 
1502.00, 
1503.00, 
1504.00, 
1505.00, 
1506.00, 
1507.00, 
1508.00, 
1509.00, 
1510.00, 
1511.00, 
1512.00, 
1513.00, 
1514.00, 
1515.00, 
1516.00, 
1517.00, 
1518.00, 
1519.00, 
1520.00, 
1521.00, 
1522.00, 
1523.00, 
1524.00, 
1525.00, 
1526.00, 
1527.00, 
1528.00, 
1529.00, 
1530.00, 
1531.00, 
1532.00, 
1533.00, 
1534.00, 
1535.00, 
1536.00, 
1537.00, 
1538.00, 
1539.00, 
1540.00, 
1541.00, 
1542.00, 
1543.00, 
1544.00, 
1545.00, 
1546.00, 
1547.00, 
1548.00, 
1549.00, 
1550.00, 
1551.00, 
1552.00, 
1553.00, 
1554.00, 
1555.00, 
1556.00, 
1557.00, 
1558.00, 
1559.00, 
1560.00, 
1561.00, 
1562.00, 
1563.00, 
1564.00, 
1565.00, 
1566.00, 
1567.00, 
1568.00, 
1569.00, 
1570.00, 
1571.00, 
1572.00, 
1573.00, 
1574.00, 
1575.00, 
1576.00, 
1577.00, 
1578.00, 
1579.00, 
1580.00, 
1581.00, 
1582.00, 
1583.00, 
1584.00, 
1585.00, 
1586.00, 
1587.00, 
1588.00, 
1589.00, 
1590.00, 
1591.00, 
1592.00, 
1593.00, 
1594.00, 
1595.00, 
1596.00, 
1597.00, 
1598.00, 
1599.00, 
1600.00, 
1601.00, 
1602.00, 
1603.00, 
1604.00, 
1605.00, 
1606.00, 
1607.00, 
1608.00, 
1609.00, 
1610.00, 
1611.00, 
1612.00, 
1613.00, 
1614.00, 
1615.00, 
1616.00, 
1617.00, 
1618.00, 
1619.00, 
1620.00, 
1621.00, 
1622.00, 
1623.00, 
1624.00, 
1625.00, 
1626.00, 
1627.00, 
1628.00, 
1629.00, 
1630.00, 
1631.00, 
1632.00, 
1633.00, 
1634.00, 
1635.00, 
1636.00, 
1637.00, 
1638.00, 
1639.00, 
1640.00, 
1641.00, 
1642.00, 
1643.00, 
1644.00, 
1645.00, 
1646.00, 
1647.00, 
1648.00, 
1649.00, 
1650.00, 
1651.00, 
1652.00, 
1653.00, 
1654.00, 
1655.00, 
1656.00, 
1657.00, 
1658.00, 
1659.00, 
1660.00, 
1661.00, 
1662.00, 
1663.00, 
1664.00, 
1665.00, 
1666.00, 
1667.00, 
1668.00, 
1669.00, 
1670.00, 
1671.00, 
1672.00, 
1673.00, 
1674.00, 
1675.00, 
1676.00, 
1677.00, 
1678.00, 
1679.00, 
1680.00, 
1681.00, 
1682.00, 
1683.00, 
1684.00, 
1685.00, 
1686.00, 
1687.00, 
1688.00, 
1689.00, 
1690.00, 
1691.00, 
1692.00, 
1693.00, 
1694.00, 
1695.00, 
1696.00, 
1697.00, 
1698.00, 
1699.00, 
1700.00, 
1701.00, 
1702.00, 
1703.00, 
1704.00, 
1705.00, 
1706.00, 
1707.00, 
1708.00, 
1709.00, 
1710.00, 
1711.00, 
1712.00, 
1713.00, 
1714.00, 
1715.00, 
1716.00, 
1717.00, 
1718.00, 
1719.00, 
1720.00, 
1721.00, 
1722.00, 
1723.00, 
1724.00, 
1725.00, 
1726.00, 
1727.00, 
1728.00, 
1729.00, 
1730.00, 
1731.00, 
1732.00, 
1733.00, 
1734.00, 
1735.00, 
1736.00, 
1737.00, 
1738.00, 
1739.00, 
1740.00, 
1741.00, 
1742.00, 
1743.00, 
1744.00, 
1745.00, 
1746.00, 
1747.00, 
1748.00, 
1749.00, 
1750.00, 
1751.00, 
1752.00, 
1753.00, 
1754.00, 
1755.00, 
1756.00, 
1757.00, 
1758.00, 
1759.00, 
1760.00, 
1761.00, 
1762.00, 
1763.00, 
1764.00, 
1765.00, 
1766.00, 
1767.00, 
1768.00, 
1769.00, 
1770.00, 
1771.00, 
1772.00, 
1773.00, 
1774.00, 
1775.00, 
1776.00, 
1777.00, 
1778.00, 
1779.00, 
1780.00, 
1781.00, 
1782.00, 
1783.00, 
1784.00, 
1785.00, 
1786.00, 
1787.00, 
1788.00, 
1789.00, 
1790.00, 
1791.00, 
1792.00, 
1793.00, 
1794.00, 
1795.00, 
1796.00, 
1797.00, 
1798.00, 
1799.00, 
1800.00, 
1801.00, 
1802.00, 
1803.00, 
1804.00, 
1805.00, 
1806.00, 
1807.00, 
1808.00, 
1809.00, 
1810.00, 
1811.00, 
1812.00, 
1813.00, 
1814.00, 
1815.00, 
1816.00, 
1817.00, 
1818.00, 
1819.00, 
1820.00, 
1821.00, 
1822.00, 
1823.00, 
1824.00, 
1825.00, 
1826.00, 
1827.00, 
1828.00, 
1829.00, 
1830.00, 
1831.00, 
1832.00, 
1833.00, 
1834.00, 
1835.00, 
1836.00, 
1837.00, 
1838.00, 
1839.00, 
1840.00, 
1841.00, 
1842.00, 
1843.00, 
1844.00, 
1845.00, 
1846.00, 
1847.00, 
1848.00, 
1849.00, 
1850.00, 
1851.00, 
1852.00, 
1853.00, 
1854.00, 
1855.00, 
1856.00, 
1857.00, 
1858.00, 
1859.00, 
1860.00, 
1861.00, 
1862.00, 
1863.00, 
1864.00, 
1865.00, 
1866.00, 
1867.00, 
1868.00, 
1869.00, 
1870.00, 
1871.00, 
1872.00, 
1873.00, 
1874.00, 
1875.00, 
1876.00, 
1877.00, 
1878.00, 
1879.00, 
1880.00, 
1881.00, 
1882.00, 
1883.00, 
1884.00, 
1885.00, 
1886.00, 
1887.00, 
1888.00, 
1889.00, 
1890.00, 
1891.00, 
1892.00, 
1893.00, 
1894.00, 
1895.00, 
1896.00, 
1897.00, 
1898.00, 
1899.00, 
1900.00, 
1901.00, 
1902.00, 
1903.00, 
1904.00, 
1905.00, 
1906.00, 
1907.00, 
1908.00, 
1909.00, 
1910.00, 
1911.00, 
1912.00, 
1913.00, 
1914.00, 
1915.00, 
1916.00, 
1917.00, 
1918.00, 
1919.00, 
1920.00, 
1921.00, 
1922.00, 
1923.00, 
1924.00, 
1925.00, 
1926.00, 
1927.00, 
1928.00, 
1929.00, 
1930.00, 
1931.00, 
1932.00, 
1933.00, 
1934.00, 
1935.00, 
1936.00, 
1937.00, 
1938.00, 
1939.00, 
1940.00, 
1941.00, 
1942.00, 
1943.00, 
1944.00, 
1945.00, 
1946.00, 
1947.00, 
1948.00, 
1949.00, 
1950.00, 
1951.00, 
1952.00, 
1953.00, 
1954.00, 
1955.00, 
1956.00, 
1957.00, 
1958.00, 
1959.00, 
1960.00, 
1961.00, 
1962.00, 
1963.00, 
1964.00, 
1965.00, 
1966.00, 
1967.00, 
1968.00, 
1969.00, 
1970.00, 
1971.00, 
1972.00, 
1973.00, 
1974.00, 
1975.00, 
1976.00, 
1977.00, 
1978.00, 
1979.00, 
1980.00, 
1981.00, 
1982.00, 
1983.00, 
1984.00, 
1985.00, 
1986.00, 
1987.00, 
1988.00, 
1989.00, 
1990.00, 
1991.00, 
1992.00, 
1993.00, 
1994.00, 
1995.00, 
1996.00, 
1997.00, 
1998.00, 
1999.00, 
2000.00, 
2001.00, 
2002.00, 
2003.00, 
2004.00, 
2005.00, 
2006.00, 
2007.00, 
2008.00, 
2009.00, 
2010.00, 
2011.00, 
2012.00, 
2013.00, 
2014.00, 
2015.00, 
2016.00, 
2017.00, 
2018.00, 
2019.00, 
2020.00, 
2021.00, 
2022.00, 
2023.00, 
2024.00, 
2025.00, 
2026.00, 
2027.00, 
2028.00, 
2029.00, 
2030.00, 
2031.00, 
2032.00, 
2033.00, 
2034.00, 
2035.00, 
2036.00, 
2037.00, 
2038.00, 
2039.00, 
2040.00, 
2041.00, 
2042.00, 
2043.00, 
2044.00, 
2045.00, 
2046.00, 
2047.00, 
2048.00, 
2049.00, 
2050.00, 
2051.00, 
2052.00, 
2053.00, 
2054.00, 
2055.00, 
2056.00, 
2057.00, 
2058.00, 
2059.00, 
2060.00, 
2061.00, 
2062.00, 
2063.00, 
2064.00, 
2065.00, 
2066.00, 
2067.00, 
2068.00, 
2069.00, 
2070.00, 
2071.00, 
2072.00, 
2073.00, 
2074.00, 
2075.00, 
2076.00, 
2077.00, 
2078.00, 
2079.00, 
2080.00, 
2081.00, 
2082.00, 
2083.00, 
2084.00, 
2085.00, 
2086.00, 
2087.00, 
2088.00, 
2089.00, 
2090.00, 
2091.00, 
2092.00, 
2093.00, 
2094.00, 
2095.00, 
2096.00, 
2097.00, 
2098.00, 
2099.00, 
2100.00, 
2101.00, 
2102.00, 
2103.00, 
2104.00, 
2105.00, 
2106.00, 
2107.00, 
2108.00, 
2109.00, 
2110.00, 
2111.00, 
2112.00, 
2113.00, 
2114.00, 
2115.00, 
2116.00, 
2117.00, 
2118.00, 
2119.00, 
2120.00, 
2121.00, 
2122.00, 
2123.00, 
2124.00, 
2125.00, 
2126.00, 
2127.00, 
2128.00, 
2129.00, 
2130.00, 
2131.00, 
2132.00, 
2133.00, 
2134.00, 
2135.00, 
2136.00, 
2137.00, 
2138.00, 
2139.00, 
2140.00, 
2141.00, 
2142.00, 
2143.00, 
2144.00, 
2145.00, 
2146.00, 
2147.00, 
2148.00, 
2149.00, 
2150.00, 
2151.00, 
2152.00, 
2153.00, 
2154.00, 
2155.00, 
2156.00, 
2157.00, 
2158.00, 
2159.00, 
2160.00, 
2161.00, 
2162.00, 
2163.00, 
2164.00, 
2165.00, 
2166.00, 
2167.00, 
2168.00, 
2169.00, 
2170.00, 
2171.00, 
2172.00, 
2173.00, 
2174.00, 
2175.00, 
2176.00, 
2177.00, 
2178.00, 
2179.00, 
2180.00, 
2181.00, 
2182.00, 
2183.00, 
2184.00, 
2185.00, 
2186.00, 
2187.00, 
2188.00, 
2189.00, 
2190.00, 
2191.00, 
2192.00, 
2193.00, 
2194.00, 
2195.00, 
2196.00, 
2197.00, 
2198.00, 
2199.00, 
2200.00, 
2201.00, 
2202.00, 
2203.00, 
2204.00, 
2205.00, 
2206.00, 
2207.00, 
2208.00, 
2209.00, 
2210.00, 
2211.00, 
2212.00, 
2213.00, 
2214.00, 
2215.00, 
2216.00, 
2217.00, 
2218.00, 
2219.00, 
2220.00, 
2221.00, 
2222.00, 
2223.00, 
2224.00, 
2225.00, 
2226.00, 
2227.00, 
2228.00, 
2229.00, 
2230.00, 
2231.00, 
2232.00, 
2233.00, 
2234.00, 
2235.00, 
2236.00, 
2237.00, 
2238.00, 
2239.00, 
2240.00, 
2241.00, 
2242.00, 
2243.00, 
2244.00, 
2245.00, 
2246.00, 
2247.00, 
2248.00, 
2249.00, 
2250.00, 
2251.00, 
2252.00, 
2253.00, 
2254.00, 
2255.00, 
2256.00, 
2257.00, 
2258.00, 
2259.00, 
2260.00, 
2261.00, 
2262.00, 
2263.00, 
2264.00, 
2265.00, 
2266.00, 
2267.00, 
2268.00, 
2269.00, 
2270.00, 
2271.00, 
2272.00, 
2273.00, 
2274.00, 
2275.00, 
2276.00, 
2277.00, 
2278.00, 
2279.00, 
2280.00, 
2281.00, 
2282.00, 
2283.00, 
2284.00, 
2285.00, 
2286.00, 
2287.00, 
2288.00, 
2289.00, 
2290.00, 
2291.00, 
2292.00, 
2293.00, 
2294.00, 
2295.00, 
2296.00, 
2297.00, 
2298.00, 
2299.00, 
2300.00, 
2301.00, 
2302.00, 
2303.00, 
2304.00, 
2305.00, 
2306.00, 
2307.00, 
2308.00, 
2309.00, 
2310.00, 
2311.00, 
2312.00, 
2313.00, 
2314.00, 
2315.00, 
2316.00, 
2317.00, 
2318.00, 
2319.00, 
2320.00, 
2321.00, 
2322.00, 
2323.00, 
2324.00, 
2325.00, 
2326.00, 
2327.00, 
2328.00, 
2329.00, 
2330.00, 
2331.00, 
2332.00, 
2333.00, 
2334.00, 
2335.00, 
2336.00, 
2337.00, 
2338.00, 
2339.00, 
2340.00, 
2341.00, 
2342.00, 
2343.00, 
2344.00, 
2345.00, 
2346.00, 
2347.00, 
2348.00, 
2349.00, 
2350.00, 
2351.00, 
2352.00, 
2353.00, 
2354.00, 
2355.00, 
2356.00, 
2357.00, 
2358.00, 
2359.00, 
2360.00, 
2361.00, 
2362.00, 
2363.00, 
2364.00, 
2365.00, 
2366.00, 
2367.00, 
2368.00, 
2369.00, 
2370.00, 
2371.00, 
2372.00, 
2373.00, 
2374.00, 
2375.00, 
2376.00, 
2377.00, 
2378.00, 
2379.00, 
2380.00, 
2381.00, 
2382.00, 
2383.00, 
2384.00, 
2385.00, 
2386.00, 
2387.00, 
2388.00, 
2389.00, 
2390.00, 
2391.00, 
2392.00, 
2393.00, 
2394.00, 
2395.00, 
2396.00, 
2397.00, 
2398.00, 
2399.00, 
2400.00, 
2401.00, 
2402.00, 
2403.00, 
2404.00, 
2405.00, 
2406.00, 
2407.00, 
2408.00, 
2409.00, 
2410.00, 
2411.00, 
2412.00, 
2413.00, 
2414.00, 
2415.00, 
2416.00, 
2417.00, 
2418.00, 
2419.00, 
2420.00, 
2421.00, 
2422.00, 
2423.00, 
2424.00, 
2425.00, 
2426.00, 
2427.00, 
2428.00, 
2429.00, 
2430.00, 
2431.00, 
2432.00, 
2433.00, 
2434.00, 
2435.00, 
2436.00, 
2437.00, 
2438.00, 
2439.00, 
2440.00, 
2441.00, 
2442.00, 
2443.00, 
2444.00, 
2445.00, 
2446.00, 
2447.00, 
2448.00, 
2449.00, 
2450.00, 
2451.00, 
2452.00, 
2453.00, 
2454.00, 
2455.00, 
2456.00, 
2457.00, 
2458.00, 
2459.00, 
2460.00, 
2461.00, 
2462.00, 
2463.00, 
2464.00, 
2465.00, 
2466.00, 
2467.00, 
2468.00, 
2469.00, 
2470.00, 
2471.00, 
2472.00, 
2473.00, 
2474.00, 
2475.00, 
2476.00, 
2477.00, 
2478.00, 
2479.00, 
2480.00, 
2481.00, 
2482.00, 
2483.00, 
2484.00, 
2485.00, 
2486.00, 
2487.00, 
2488.00, 
2489.00, 
2490.00, 
2491.00, 
2492.00, 
2493.00, 
2494.00, 
2495.00, 
2496.00, 
2497.00, 
2498.00, 
2499.00, 
2500.00, 
2501.00, 
2502.00, 
2503.00, 
2504.00, 
2505.00, 
2506.00, 
2507.00, 
2508.00, 
2509.00, 
2510.00, 
2511.00, 
2512.00, 
2513.00, 
2514.00, 
2515.00, 
2516.00, 
2517.00, 
2518.00, 
2519.00, 
2520.00, 
2521.00, 
2522.00, 
2523.00, 
2524.00, 
2525.00, 
2526.00, 
2527.00, 
2528.00, 
2529.00, 
2530.00, 
2531.00, 
2532.00, 
2533.00, 
2534.00, 
2535.00, 
2536.00, 
2537.00, 
2538.00, 
2539.00, 
2540.00, 
2541.00, 
2542.00, 
2543.00, 
2544.00, 
2545.00, 
2546.00, 
2547.00, 
2548.00, 
2549.00, 
2550.00, 
2551.00, 
2552.00, 
2553.00, 
2554.00, 
2555.00, 
2556.00, 
2557.00, 
2558.00, 
2559.00, 
2560.00, 
2561.00, 
2562.00, 
2563.00, 
2564.00, 
2565.00, 
2566.00, 
2567.00, 
2568.00, 
2569.00, 
2570.00, 
2571.00, 
2572.00, 
2573.00, 
2574.00, 
2575.00, 
2576.00, 
2577.00, 
2578.00, 
2579.00, 
2580.00, 
2581.00, 
2582.00, 
2583.00, 
2584.00, 
2585.00, 
2586.00, 
2587.00, 
2588.00, 
2589.00, 
2590.00, 
2591.00, 
2592.00, 
2593.00, 
2594.00, 
2595.00, 
2596.00, 
2597.00, 
2598.00, 
2599.00, 
2600.00, 
