"1cP5 - RawData"
"Wavelength nm.","T%"
200.00,0.004
201.00,-0.001
202.00,0.003
203.00,-0.000
204.00,-0.000
205.00,-0.000
206.00,0.001
207.00,0.001
208.00,0.005
209.00,0.003
210.00,0.003
211.00,-0.001
212.00,0.001
213.00,0.001
214.00,-0.001
215.00,0.001
216.00,-0.001
217.00,0.003
218.00,0.003
219.00,0.002
220.00,0.002
221.00,0.001
222.00,0.002
223.00,0.000
224.00,-0.000
225.00,0.001
226.00,0.000
227.00,0.000
228.00,0.002
229.00,-0.001
230.00,-0.002
231.00,0.001
232.00,0.000
233.00,0.000
234.00,0.003
235.00,-0.001
236.00,0.001
237.00,0.001
238.00,-0.001
239.00,-0.001
240.00,-0.001
241.00,0.001
242.00,0.000
243.00,0.000
244.00,-0.000
245.00,0.000
246.00,0.001
247.00,0.001
248.00,-0.000
249.00,0.002
250.00,0.002
251.00,-0.000
252.00,-0.000
253.00,0.002
254.00,-0.001
255.00,0.002
256.00,0.001
257.00,-0.001
258.00,0.001
259.00,0.001
260.00,0.001
261.00,0.001
262.00,0.002
263.00,0.001
264.00,-0.001
265.00,-0.000
266.00,0.001
267.00,-0.001
268.00,-0.001
269.00,-0.000
270.00,0.001
271.00,-0.001
272.00,-0.000
273.00,-0.000
274.00,-0.000
275.00,-0.000
276.00,-0.001
277.00,0.000
278.00,0.002
279.00,-0.001
280.00,0.001
281.00,-0.000
282.00,0.000
283.00,0.001
284.00,0.001
285.00,0.001
286.00,-0.000
287.00,0.001
288.00,-0.001
289.00,0.001
290.00,0.001
291.00,0.002
292.00,0.001
293.00,0.000
294.00,-0.001
295.00,0.000
296.00,0.001
297.00,0.001
298.00,0.001
299.00,0.001
300.00,0.002
301.00,0.001
302.00,0.001
303.00,0.002
304.00,0.001
305.00,0.002
306.00,0.002
307.00,0.002
308.00,0.006
309.00,0.011
310.00,0.018
311.00,0.027
312.00,0.041
313.00,0.064
314.00,0.099
315.00,0.141
316.00,0.195
317.00,0.286
318.00,0.383
319.00,0.519
320.00,0.697
321.00,0.914
322.00,1.119
323.00,1.450
324.00,1.786
325.00,2.167
326.00,2.563
327.00,3.032
328.00,3.567
329.00,4.108
330.00,4.680
331.00,5.286
332.00,5.937
333.00,6.654
334.00,7.297
335.00,8.047
336.00,8.749
337.00,9.505
338.00,10.273
339.00,10.938
340.00,11.663
341.00,12.349
342.00,13.046
343.00,13.656
344.00,14.297
345.00,14.940
346.00,15.504
347.00,16.060
348.00,16.565
349.00,17.044
350.00,17.500
351.00,17.937
352.00,18.320
353.00,18.716
354.00,19.102
355.00,19.447
356.00,19.715
357.00,20.021
358.00,20.295
359.00,20.587
360.00,20.846
361.00,21.021
362.00,21.206
363.00,21.384
364.00,21.536
365.00,21.640
366.00,21.774
367.00,21.873
368.00,21.895
369.00,21.935
370.00,22.021
371.00,22.049
372.00,22.031
373.00,22.033
374.00,22.033
375.00,21.983
376.00,21.862
377.00,21.840
378.00,21.726
379.00,21.603
380.00,21.611
381.00,21.589
382.00,21.558
383.00,21.602
384.00,21.664
385.00,21.738
386.00,21.726
387.00,21.827
388.00,21.906
389.00,21.933
390.00,22.010
391.00,22.059
392.00,22.102
393.00,22.093
394.00,22.162
395.00,22.196
396.00,22.157
397.00,22.189
398.00,22.208
399.00,22.149
400.00,22.145
401.00,22.160
402.00,22.131
403.00,22.186
404.00,22.159
405.00,22.121
406.00,22.138
407.00,22.077
408.00,22.116
409.00,22.049
410.00,21.984
411.00,21.977
412.00,21.916
413.00,21.981
414.00,21.962
415.00,21.967
416.00,22.024
417.00,21.979
418.00,22.019
419.00,22.069
420.00,22.153
421.00,22.133
422.00,22.128
423.00,22.200
424.00,22.238
425.00,22.261
426.00,22.289
427.00,22.356
428.00,22.380
429.00,22.403
430.00,22.450
431.00,22.534
432.00,22.559
433.00,22.623
434.00,22.673
435.00,22.755
436.00,22.781
437.00,22.851
438.00,22.932
439.00,22.981
440.00,23.067
441.00,23.113
442.00,23.226
443.00,23.290
444.00,23.380
445.00,23.412
446.00,23.551
447.00,23.600
448.00,23.774
449.00,23.876
450.00,23.998
451.00,24.083
452.00,24.199
453.00,24.332
454.00,24.408
455.00,24.532
456.00,24.658
457.00,24.785
458.00,24.874
459.00,25.038
460.00,25.162
461.00,25.287
462.00,25.375
463.00,25.511
464.00,25.678
465.00,25.795
466.00,25.962
467.00,26.052
468.00,26.158
469.00,26.276
470.00,26.373
471.00,26.459
472.00,26.609
473.00,26.685
474.00,26.818
475.00,26.944
476.00,26.968
477.00,27.154
478.00,27.268
479.00,27.494
480.00,27.639
481.00,27.724
482.00,27.893
483.00,28.067
484.00,28.214
485.00,28.392
486.00,28.520
487.00,28.660
488.00,28.761
489.00,28.963
490.00,29.102
491.00,29.231
492.00,29.395
493.00,29.551
494.00,29.788
495.00,29.789
496.00,29.908
497.00,29.981
498.00,30.146
499.00,30.313
500.00,30.431
501.00,30.575
502.00,30.700
503.00,30.818
504.00,30.856
505.00,31.021
506.00,31.162
507.00,31.245
508.00,31.350
509.00,31.544
510.00,31.675
511.00,31.736
512.00,31.946
513.00,32.006
514.00,32.116
515.00,32.353
516.00,32.359
517.00,32.427
518.00,32.653
519.00,32.696
520.00,32.734
521.00,32.876
522.00,32.993
523.00,33.004
524.00,33.126
525.00,33.213
526.00,33.360
527.00,33.370
528.00,33.496
529.00,33.626
530.00,33.793
531.00,33.902
532.00,33.970
533.00,34.053
534.00,34.183
535.00,34.262
536.00,34.337
537.00,34.430
538.00,34.472
539.00,34.514
540.00,34.604
541.00,34.667
542.00,34.730
543.00,34.776
544.00,34.839
545.00,34.964
546.00,34.975
547.00,35.078
548.00,35.193
549.00,35.192
550.00,35.296
551.00,35.396
552.00,35.436
553.00,35.513
554.00,35.596
555.00,35.624
556.00,35.726
557.00,35.751
558.00,35.815
559.00,35.922
560.00,35.877
561.00,35.957
562.00,36.081
563.00,36.068
564.00,36.167
565.00,36.189
566.00,36.198
567.00,36.206
568.00,36.300
569.00,36.330
570.00,36.369
571.00,36.437
572.00,36.401
573.00,36.433
574.00,36.481
575.00,36.498
576.00,36.494
577.00,36.499
578.00,36.658
579.00,36.694
580.00,36.704
581.00,36.849
582.00,36.928
583.00,36.917
584.00,37.044
585.00,37.054
586.00,37.091
587.00,37.150
588.00,37.174
589.00,37.152
590.00,37.250
591.00,37.311
592.00,37.254
593.00,37.281
594.00,37.385
595.00,37.448
596.00,37.508
597.00,37.588
598.00,37.662
599.00,37.653
600.00,37.755
601.00,37.751
602.00,37.666
603.00,37.771
604.00,37.841
605.00,37.884
606.00,37.960
607.00,37.941
608.00,37.997
609.00,38.041
610.00,38.300
611.00,38.070
612.00,38.158
613.00,38.186
614.00,38.230
615.00,38.289
616.00,38.436
617.00,38.402
618.00,38.397
619.00,38.474
620.00,38.491
621.00,38.595
622.00,38.657
623.00,38.658
624.00,38.751
625.00,38.824
626.00,38.847
627.00,38.922
628.00,38.947
629.00,38.945
630.00,39.071
631.00,39.096
632.00,39.162
633.00,39.280
634.00,39.362
635.00,39.444
636.00,39.472
637.00,39.521
638.00,39.565
639.00,39.659
640.00,39.744
641.00,39.781
642.00,39.815
643.00,39.852
644.00,40.016
645.00,40.035
646.00,40.135
647.00,40.189
648.00,40.239
649.00,40.289
650.00,40.356
651.00,40.534
652.00,40.593
653.00,40.608
654.00,40.682
655.00,40.882
656.00,41.141
657.00,41.066
658.00,41.148
659.00,41.131
660.00,41.226
661.00,41.278
662.00,41.372
663.00,41.384
664.00,41.695
665.00,41.883
666.00,41.761
667.00,41.906
668.00,41.811
669.00,42.020
670.00,42.363
671.00,42.175
672.00,42.323
673.00,42.455
674.00,42.515
675.00,42.448
676.00,42.702
677.00,42.931
678.00,42.725
679.00,42.665
680.00,43.088
681.00,43.408
682.00,43.227
683.00,43.256
684.00,43.457
685.00,43.589
686.00,43.509
687.00,43.589
688.00,43.677
689.00,43.609
690.00,43.864
691.00,44.173
692.00,43.919
693.00,44.024
694.00,44.210
695.00,44.337
696.00,44.353
697.00,44.325
698.00,44.421
699.00,44.708
700.00,44.801
701.00,44.788
702.00,44.876
703.00,45.053
704.00,45.129
705.00,45.015
706.00,45.145
707.00,45.189
708.00,45.029
709.00,45.492
710.00,45.930
711.00,45.391
712.00,45.499
713.00,45.696
714.00,45.792
715.00,45.802
716.00,45.831
717.00,45.961
718.00,46.121
719.00,46.101
720.00,46.076
721.00,50.490
722.00,50.428
723.00,50.395
724.00,50.596
725.00,50.588
726.00,50.589
727.00,50.552
728.00,50.635
729.00,50.697
730.00,50.661
731.00,50.743
732.00,50.721
733.00,50.819
734.00,50.758
735.00,50.858
736.00,50.838
737.00,50.893
738.00,50.951
739.00,50.966
740.00,50.982
741.00,50.984
742.00,51.007
743.00,51.045
744.00,51.022
745.00,51.073
746.00,51.083
747.00,51.077
748.00,51.035
749.00,51.087
750.00,51.004
751.00,51.005
752.00,51.119
753.00,51.060
754.00,51.164
755.00,51.068
756.00,51.117
757.00,51.091
758.00,51.130
759.00,51.074
760.00,51.118
761.00,51.109
762.00,51.173
763.00,51.212
764.00,51.095
765.00,51.239
766.00,51.203
767.00,51.238
768.00,51.257
769.00,51.241
770.00,51.268
771.00,51.232
772.00,51.287
773.00,51.229
774.00,51.316
775.00,51.271
776.00,51.236
777.00,51.309
778.00,51.275
779.00,51.383
780.00,51.257
781.00,51.306
782.00,51.333
783.00,51.224
784.00,51.252
785.00,51.241
786.00,51.284
787.00,51.296
788.00,51.248
789.00,51.244
790.00,51.198
791.00,51.304
792.00,51.242
793.00,51.225
794.00,51.185
795.00,51.186
796.00,51.214
797.00,51.099
798.00,51.144
799.00,51.131
800.00,51.070
801.00,51.158
802.00,51.094
803.00,51.121
804.00,51.064
805.00,51.134
806.00,51.059
807.00,51.083
808.00,51.001
809.00,51.016
810.00,50.993
811.00,50.956
812.00,51.045
813.00,50.854
814.00,50.979
815.00,50.874
816.00,50.901
817.00,50.878
818.00,50.814
819.00,50.853
820.00,50.836
821.00,50.724
822.00,50.833
823.00,50.793
824.00,50.784
825.00,50.751
826.00,50.805
827.00,50.829
828.00,50.745
829.00,50.750
830.00,50.741
831.00,53.108
832.00,53.125
833.00,53.088
834.00,53.107
835.00,53.066
836.00,53.081
837.00,53.055
838.00,53.057
839.00,52.993
840.00,52.960
841.00,52.979
842.00,52.918
843.00,52.916
844.00,52.912
845.00,52.857
846.00,52.873
847.00,52.828
848.00,52.842
849.00,52.735
850.00,52.736
851.00,52.729
852.00,52.703
853.00,52.619
854.00,52.590
855.00,52.581
856.00,52.569
857.00,52.539
858.00,52.527
859.00,52.520
860.00,52.515
861.00,52.522
862.00,52.443
863.00,52.495
864.00,52.429
865.00,52.471
866.00,52.564
867.00,52.384
868.00,52.440
869.00,52.432
870.00,52.392
871.00,52.354
872.00,52.367
873.00,52.338
874.00,52.335
875.00,52.300
876.00,52.289
877.00,52.297
878.00,52.292
879.00,52.235
880.00,52.205
881.00,52.187
882.00,52.251
883.00,52.152
884.00,52.183
885.00,52.130
886.00,52.140
887.00,52.083
888.00,52.088
889.00,52.094
890.00,52.057
891.00,52.030
892.00,52.020
893.00,52.006
894.00,52.021
895.00,51.971
896.00,51.922
897.00,51.910
898.00,51.915
899.00,51.783
900.00,51.853
901.00,51.861
902.00,51.870
903.00,51.833
904.00,51.840
905.00,51.826
906.00,51.814
907.00,51.769
908.00,51.761
909.00,51.728
910.00,51.694
911.00,51.688
912.00,51.701
913.00,51.650
914.00,51.654
915.00,51.589
916.00,51.577
917.00,51.554
918.00,51.557
919.00,51.517
920.00,51.474
921.00,51.502
922.00,51.470
923.00,51.431
924.00,51.402
925.00,51.417
926.00,51.393
927.00,51.391
928.00,51.364
929.00,51.366
930.00,51.324
931.00,51.305
932.00,51.278
933.00,51.298
934.00,51.264
935.00,51.240
936.00,51.262
937.00,51.213
938.00,51.189
939.00,51.194
940.00,51.151
941.00,51.155
942.00,51.120
943.00,51.108
944.00,51.070
945.00,51.073
946.00,51.064
947.00,51.017
948.00,51.015
949.00,50.977
950.00,50.951
951.00,50.901
952.00,50.964
953.00,50.890
954.00,50.857
955.00,50.817
956.00,50.819
957.00,50.779
958.00,50.794
959.00,50.739
960.00,50.738
961.00,50.725
962.00,50.729
963.00,50.689
964.00,50.700
965.00,50.678
966.00,50.656
967.00,50.699
968.00,50.642
969.00,50.666
970.00,50.632
971.00,50.652
972.00,50.614
973.00,50.637
974.00,50.666
975.00,50.626
976.00,50.642
977.00,50.613
978.00,50.658
979.00,50.632
980.00,50.623
981.00,50.637
982.00,50.613
983.00,50.622
984.00,50.582
985.00,50.639
986.00,50.585
987.00,50.607
988.00,50.595
989.00,50.583
990.00,50.580
991.00,50.560
992.00,50.571
993.00,50.552
994.00,50.522
995.00,50.515
996.00,50.520
997.00,50.501
998.00,50.467
999.00,50.498
1000.00,50.454
1001.00,50.439
1002.00,50.410
1003.00,50.421
1004.00,50.400
1005.00,50.371
1006.00,50.454
1007.00,50.383
1008.00,50.366
1009.00,50.333
1010.00,50.353
1011.00,50.331
1012.00,50.303
1013.00,50.343
1014.00,50.266
1015.00,50.293
1016.00,50.251
1017.00,50.262
1018.00,50.240
1019.00,50.208
1020.00,50.223
1021.00,50.200
1022.00,50.197
1023.00,50.172
1024.00,50.143
1025.00,50.115
1026.00,50.140
1027.00,50.093
1028.00,50.099
1029.00,50.094
1030.00,50.043
1031.00,50.050
1032.00,50.016
1033.00,50.020
1034.00,50.009
1035.00,49.956
1036.00,49.932
1037.00,49.918
1038.00,49.913
1039.00,49.877
1040.00,49.895
1041.00,49.850
1042.00,49.837
1043.00,49.823
1044.00,49.848
1045.00,49.840
1046.00,49.825
1047.00,49.844
1048.00,49.864
1049.00,49.863
1050.00,49.858
1051.00,49.912
1052.00,49.904
1053.00,49.894
1054.00,49.894
1055.00,49.908
1056.00,49.928
1057.00,49.910
1058.00,49.910
1059.00,49.952
1060.00,49.921
1061.00,49.903
1062.00,49.902
1063.00,49.897
1064.00,49.882
1065.00,49.876
1066.00,49.862
1067.00,49.862
1068.00,49.889
1069.00,49.836
1070.00,49.826
1071.00,49.798
1072.00,49.826
1073.00,49.804
1074.00,49.795
1075.00,49.775
1076.00,49.800
1077.00,49.764
1078.00,49.756
1079.00,49.750
1080.00,49.735
1081.00,49.722
1082.00,49.715
1083.00,49.712
1084.00,49.713
1085.00,49.710
1086.00,49.689
1087.00,49.691
1088.00,49.663
1089.00,49.657
1090.00,49.645
1091.00,49.643
1092.00,49.638
1093.00,49.616
1094.00,49.596
1095.00,49.598
1096.00,49.587
1097.00,49.575
1098.00,49.573
1099.00,49.572
1100.00,49.561
1101.00,49.545
1102.00,49.539
1103.00,49.567
1104.00,49.566
1105.00,49.528
1106.00,49.517
1107.00,49.511
1108.00,49.494
1109.00,49.479
1110.00,49.478
1111.00,49.492
1112.00,49.457
1113.00,49.452
1114.00,49.453
1115.00,49.453
1116.00,49.433
1117.00,49.438
1118.00,49.420
1119.00,49.423
1120.00,49.419
1121.00,49.418
1122.00,49.409
1123.00,49.406
1124.00,49.374
1125.00,49.386
1126.00,49.371
1127.00,49.388
1128.00,49.375
1129.00,49.384
1130.00,49.358
1131.00,49.372
1132.00,49.387
1133.00,49.344
1134.00,49.354
1135.00,49.330
1136.00,49.321
1137.00,49.321
1138.00,49.321
1139.00,49.334
1140.00,49.318
1141.00,49.306
1142.00,49.302
1143.00,49.313
1144.00,49.282
1145.00,49.283
1146.00,49.282
1147.00,49.281
1148.00,49.260
1149.00,49.255
1150.00,49.251
1151.00,49.264
1152.00,49.242
1153.00,49.247
1154.00,49.240
1155.00,49.255
1156.00,49.234
1157.00,49.251
1158.00,49.251
1159.00,49.231
1160.00,49.217
1161.00,49.245
1162.00,49.229
1163.00,49.214
1164.00,49.244
1165.00,49.245
1166.00,49.225
1167.00,49.211
1168.00,49.220
1169.00,49.225
1170.00,49.214
1171.00,49.194
1172.00,49.206
1173.00,49.192
1174.00,49.198
1175.00,49.206
1176.00,49.195
1177.00,49.197
1178.00,49.199
1179.00,49.216
1180.00,49.211
1181.00,49.228
1182.00,49.210
1183.00,49.211
1184.00,49.192
1185.00,49.214
1186.00,49.212
1187.00,49.197
1188.00,49.205
1189.00,49.195
1190.00,49.188
1191.00,49.184
1192.00,49.205
1193.00,49.211
1194.00,49.206
1195.00,49.181
1196.00,49.220
1197.00,49.206
1198.00,49.176
1199.00,49.166
1200.00,49.178
1201.00,49.194
1202.00,49.190
1203.00,49.185
1204.00,49.174
1205.00,49.211
1206.00,49.191
1207.00,49.179
1208.00,49.179
1209.00,49.190
1210.00,49.198
1211.00,49.193
1212.00,49.206
1213.00,49.169
1214.00,49.180
1215.00,49.156
1216.00,49.199
1217.00,49.185
1218.00,49.158
1219.00,49.204
1220.00,49.174
1221.00,49.206
1222.00,49.192
1223.00,49.232
1224.00,49.230
1225.00,49.214
1226.00,49.225
1227.00,49.207
1228.00,49.229
1229.00,49.220
1230.00,49.262
1231.00,49.243
1232.00,49.259
1233.00,49.262
1234.00,49.265
1235.00,49.272
1236.00,49.266
1237.00,49.269
1238.00,49.301
1239.00,49.289
1240.00,49.268
1241.00,49.290
1242.00,49.280
1243.00,49.303
1244.00,49.258
1245.00,49.287
1246.00,49.299
1247.00,49.272
1248.00,49.267
1249.00,49.305
1250.00,49.307
1251.00,49.282
1252.00,49.308
1253.00,49.287
1254.00,49.324
1255.00,49.299
1256.00,49.277
1257.00,49.278
1258.00,49.340
1259.00,49.329
1260.00,49.369
1261.00,49.359
1262.00,49.349
1263.00,49.357
1264.00,49.378
1265.00,49.387
1266.00,49.375
1267.00,49.381
1268.00,49.385
1269.00,49.371
1270.00,49.387
1271.00,49.416
1272.00,49.421
1273.00,49.413
1274.00,49.413
1275.00,49.413
1276.00,49.403
1277.00,49.410
1278.00,49.426
1279.00,49.432
1280.00,49.424
1281.00,49.451
1282.00,49.473
1283.00,49.465
1284.00,49.469
1285.00,49.475
1286.00,49.504
1287.00,49.512
1288.00,49.505
1289.00,49.490
1290.00,49.532
1291.00,49.514
1292.00,49.514
1293.00,49.518
1294.00,49.540
1295.00,49.568
1296.00,49.556
1297.00,49.572
1298.00,49.603
1299.00,49.568
1300.00,49.579
1301.00,49.583
1302.00,49.592
1303.00,49.580
1304.00,49.576
1305.00,49.606
1306.00,49.599
1307.00,49.618
1308.00,49.614
1309.00,49.633
1310.00,49.621
1311.00,49.610
1312.00,49.634
1313.00,49.644
1314.00,49.663
1315.00,49.691
1316.00,49.681
1317.00,49.706
1318.00,49.717
1319.00,49.706
1320.00,49.725
1321.00,49.878
1322.00,49.861
1323.00,49.848
1324.00,49.844
1325.00,49.829
1326.00,49.858
1327.00,49.841
1328.00,49.846
1329.00,49.858
1330.00,49.853
1331.00,49.848
1332.00,49.849
1333.00,49.872
1334.00,49.900
1335.00,49.932
1336.00,49.959
1337.00,49.985
1338.00,50.034
1339.00,50.098
1340.00,50.169
1341.00,50.225
1342.00,50.256
1343.00,50.317
1344.00,50.353
1345.00,50.405
1346.00,50.434
1347.00,50.459
1348.00,50.494
1349.00,50.481
1350.00,50.502
1351.00,50.543
1352.00,50.526
1353.00,50.561
1354.00,50.561
1355.00,50.471
1356.00,50.609
1357.00,50.594
1358.00,50.554
1359.00,50.619
1360.00,50.625
1361.00,50.693
1362.00,50.441
1363.00,50.631
1364.00,50.680
1365.00,50.619
1366.00,50.674
1367.00,50.677
1368.00,50.610
1369.00,50.686
1370.00,50.658
1371.00,50.537
1372.00,50.585
1373.00,50.641
1374.00,50.605
1375.00,50.631
1376.00,50.640
1377.00,50.470
1378.00,50.670
1379.00,50.680
1380.00,50.632
1381.00,50.676
1382.00,50.602
1383.00,50.696
1384.00,50.582
1385.00,50.578
1386.00,50.646
1387.00,50.596
1388.00,50.583
1389.00,50.505
1390.00,50.661
1391.00,50.604
1392.00,50.667
1393.00,50.556
1394.00,50.719
1395.00,50.602
1396.00,50.591
1397.00,50.619
1398.00,50.640
1399.00,50.624
1400.00,50.597
1401.00,50.634
1402.00,50.687
1403.00,50.645
1404.00,50.679
1405.00,50.654
1406.00,50.718
1407.00,50.697
1408.00,50.717
1409.00,50.676
1410.00,50.725
1411.00,50.668
1412.00,50.753
1413.00,50.673
1414.00,50.720
1415.00,50.707
1416.00,50.775
1417.00,50.783
1418.00,50.779
1419.00,50.804
1420.00,50.837
1421.00,50.870
1422.00,50.863
1423.00,50.951
1424.00,50.875
1425.00,50.888
1426.00,50.876
1427.00,50.909
1428.00,50.931
1429.00,50.938
1430.00,50.978
1431.00,51.006
1432.00,50.997
1433.00,50.999
1434.00,50.997
1435.00,51.042
1436.00,51.058
1437.00,51.056
1438.00,51.093
1439.00,51.119
1440.00,51.131
1441.00,51.128
1442.00,51.144
1443.00,51.180
1444.00,51.221
1445.00,51.188
1446.00,51.222
1447.00,51.242
1448.00,51.271
1449.00,51.287
1450.00,51.319
1451.00,51.323
1452.00,51.340
1453.00,51.336
1454.00,51.354
1455.00,51.371
1456.00,51.408
1457.00,51.394
1458.00,51.442
1459.00,51.447
1460.00,51.473
1461.00,51.485
1462.00,51.508
1463.00,51.513
1464.00,51.538
1465.00,51.553
1466.00,51.535
1467.00,51.569
1468.00,51.627
1469.00,51.613
1470.00,51.615
1471.00,51.642
1472.00,51.667
1473.00,51.673
1474.00,51.693
1475.00,51.711
1476.00,51.725
1477.00,51.684
1478.00,51.695
1479.00,51.735
1480.00,51.735
1481.00,51.754
1482.00,51.790
1483.00,51.813
1484.00,51.847
1485.00,51.857
1486.00,51.874
1487.00,51.905
1488.00,51.890
1489.00,51.875
1490.00,51.896
1491.00,51.919
1492.00,51.948
1493.00,51.945
1494.00,51.974
1495.00,51.993
1496.00,51.994
1497.00,51.992
1498.00,52.010
1499.00,52.009
1500.00,52.045
1501.00, 
1502.00, 
1503.00, 
1504.00, 
1505.00, 
1506.00, 
1507.00, 
1508.00, 
1509.00, 
1510.00, 
1511.00, 
1512.00, 
1513.00, 
1514.00, 
1515.00, 
1516.00, 
1517.00, 
1518.00, 
1519.00, 
1520.00, 
1521.00, 
1522.00, 
1523.00, 
1524.00, 
1525.00, 
1526.00, 
1527.00, 
1528.00, 
1529.00, 
1530.00, 
1531.00, 
1532.00, 
1533.00, 
1534.00, 
1535.00, 
1536.00, 
1537.00, 
1538.00, 
1539.00, 
1540.00, 
1541.00, 
1542.00, 
1543.00, 
1544.00, 
1545.00, 
1546.00, 
1547.00, 
1548.00, 
1549.00, 
1550.00, 
1551.00, 
1552.00, 
1553.00, 
1554.00, 
1555.00, 
1556.00, 
1557.00, 
1558.00, 
1559.00, 
1560.00, 
1561.00, 
1562.00, 
1563.00, 
1564.00, 
1565.00, 
1566.00, 
1567.00, 
1568.00, 
1569.00, 
1570.00, 
1571.00, 
1572.00, 
1573.00, 
1574.00, 
1575.00, 
1576.00, 
1577.00, 
1578.00, 
1579.00, 
1580.00, 
1581.00, 
1582.00, 
1583.00, 
1584.00, 
1585.00, 
1586.00, 
1587.00, 
1588.00, 
1589.00, 
1590.00, 
1591.00, 
1592.00, 
1593.00, 
1594.00, 
1595.00, 
1596.00, 
1597.00, 
1598.00, 
1599.00, 
1600.00, 
1601.00, 
1602.00, 
1603.00, 
1604.00, 
1605.00, 
1606.00, 
1607.00, 
1608.00, 
1609.00, 
1610.00, 
1611.00, 
1612.00, 
1613.00, 
1614.00, 
1615.00, 
1616.00, 
1617.00, 
1618.00, 
1619.00, 
1620.00, 
1621.00, 
1622.00, 
1623.00, 
1624.00, 
1625.00, 
1626.00, 
1627.00, 
1628.00, 
1629.00, 
1630.00, 
1631.00, 
1632.00, 
1633.00, 
1634.00, 
1635.00, 
1636.00, 
1637.00, 
1638.00, 
1639.00, 
1640.00, 
1641.00, 
1642.00, 
1643.00, 
1644.00, 
1645.00, 
1646.00, 
1647.00, 
1648.00, 
1649.00, 
1650.00, 
1651.00, 
1652.00, 
1653.00, 
1654.00, 
1655.00, 
1656.00, 
1657.00, 
1658.00, 
1659.00, 
1660.00, 
1661.00, 
1662.00, 
1663.00, 
1664.00, 
1665.00, 
1666.00, 
1667.00, 
1668.00, 
1669.00, 
1670.00, 
1671.00, 
1672.00, 
1673.00, 
1674.00, 
1675.00, 
1676.00, 
1677.00, 
1678.00, 
1679.00, 
1680.00, 
1681.00, 
1682.00, 
1683.00, 
1684.00, 
1685.00, 
1686.00, 
1687.00, 
1688.00, 
1689.00, 
1690.00, 
1691.00, 
1692.00, 
1693.00, 
1694.00, 
1695.00, 
1696.00, 
1697.00, 
1698.00, 
1699.00, 
1700.00, 
1701.00, 
1702.00, 
1703.00, 
1704.00, 
1705.00, 
1706.00, 
1707.00, 
1708.00, 
1709.00, 
1710.00, 
1711.00, 
1712.00, 
1713.00, 
1714.00, 
1715.00, 
1716.00, 
1717.00, 
1718.00, 
1719.00, 
1720.00, 
1721.00, 
1722.00, 
1723.00, 
1724.00, 
1725.00, 
1726.00, 
1727.00, 
1728.00, 
1729.00, 
1730.00, 
1731.00, 
1732.00, 
1733.00, 
1734.00, 
1735.00, 
1736.00, 
1737.00, 
1738.00, 
1739.00, 
1740.00, 
1741.00, 
1742.00, 
1743.00, 
1744.00, 
1745.00, 
1746.00, 
1747.00, 
1748.00, 
1749.00, 
1750.00, 
1751.00, 
1752.00, 
1753.00, 
1754.00, 
1755.00, 
1756.00, 
1757.00, 
1758.00, 
1759.00, 
1760.00, 
1761.00, 
1762.00, 
1763.00, 
1764.00, 
1765.00, 
1766.00, 
1767.00, 
1768.00, 
1769.00, 
1770.00, 
1771.00, 
1772.00, 
1773.00, 
1774.00, 
1775.00, 
1776.00, 
1777.00, 
1778.00, 
1779.00, 
1780.00, 
1781.00, 
1782.00, 
1783.00, 
1784.00, 
1785.00, 
1786.00, 
1787.00, 
1788.00, 
1789.00, 
1790.00, 
1791.00, 
1792.00, 
1793.00, 
1794.00, 
1795.00, 
1796.00, 
1797.00, 
1798.00, 
1799.00, 
1800.00, 
1801.00, 
1802.00, 
1803.00, 
1804.00, 
1805.00, 
1806.00, 
1807.00, 
1808.00, 
1809.00, 
1810.00, 
1811.00, 
1812.00, 
1813.00, 
1814.00, 
1815.00, 
1816.00, 
1817.00, 
1818.00, 
1819.00, 
1820.00, 
1821.00, 
1822.00, 
1823.00, 
1824.00, 
1825.00, 
1826.00, 
1827.00, 
1828.00, 
1829.00, 
1830.00, 
1831.00, 
1832.00, 
1833.00, 
1834.00, 
1835.00, 
1836.00, 
1837.00, 
1838.00, 
1839.00, 
1840.00, 
1841.00, 
1842.00, 
1843.00, 
1844.00, 
1845.00, 
1846.00, 
1847.00, 
1848.00, 
1849.00, 
1850.00, 
1851.00, 
1852.00, 
1853.00, 
1854.00, 
1855.00, 
1856.00, 
1857.00, 
1858.00, 
1859.00, 
1860.00, 
1861.00, 
1862.00, 
1863.00, 
1864.00, 
1865.00, 
1866.00, 
1867.00, 
1868.00, 
1869.00, 
1870.00, 
1871.00, 
1872.00, 
1873.00, 
1874.00, 
1875.00, 
1876.00, 
1877.00, 
1878.00, 
1879.00, 
1880.00, 
1881.00, 
1882.00, 
1883.00, 
1884.00, 
1885.00, 
1886.00, 
1887.00, 
1888.00, 
1889.00, 
1890.00, 
1891.00, 
1892.00, 
1893.00, 
1894.00, 
1895.00, 
1896.00, 
1897.00, 
1898.00, 
1899.00, 
1900.00, 
1901.00, 
1902.00, 
1903.00, 
1904.00, 
1905.00, 
1906.00, 
1907.00, 
1908.00, 
1909.00, 
1910.00, 
1911.00, 
1912.00, 
1913.00, 
1914.00, 
1915.00, 
1916.00, 
1917.00, 
1918.00, 
1919.00, 
1920.00, 
1921.00, 
1922.00, 
1923.00, 
1924.00, 
1925.00, 
1926.00, 
1927.00, 
1928.00, 
1929.00, 
1930.00, 
1931.00, 
1932.00, 
1933.00, 
1934.00, 
1935.00, 
1936.00, 
1937.00, 
1938.00, 
1939.00, 
1940.00, 
1941.00, 
1942.00, 
1943.00, 
1944.00, 
1945.00, 
1946.00, 
1947.00, 
1948.00, 
1949.00, 
1950.00, 
1951.00, 
1952.00, 
1953.00, 
1954.00, 
1955.00, 
1956.00, 
1957.00, 
1958.00, 
1959.00, 
1960.00, 
1961.00, 
1962.00, 
1963.00, 
1964.00, 
1965.00, 
1966.00, 
1967.00, 
1968.00, 
1969.00, 
1970.00, 
1971.00, 
1972.00, 
1973.00, 
1974.00, 
1975.00, 
1976.00, 
1977.00, 
1978.00, 
1979.00, 
1980.00, 
1981.00, 
1982.00, 
1983.00, 
1984.00, 
1985.00, 
1986.00, 
1987.00, 
1988.00, 
1989.00, 
1990.00, 
1991.00, 
1992.00, 
1993.00, 
1994.00, 
1995.00, 
1996.00, 
1997.00, 
1998.00, 
1999.00, 
2000.00, 
2001.00, 
2002.00, 
2003.00, 
2004.00, 
2005.00, 
2006.00, 
2007.00, 
2008.00, 
2009.00, 
2010.00, 
2011.00, 
2012.00, 
2013.00, 
2014.00, 
2015.00, 
2016.00, 
2017.00, 
2018.00, 
2019.00, 
2020.00, 
2021.00, 
2022.00, 
2023.00, 
2024.00, 
2025.00, 
2026.00, 
2027.00, 
2028.00, 
2029.00, 
2030.00, 
2031.00, 
2032.00, 
2033.00, 
2034.00, 
2035.00, 
2036.00, 
2037.00, 
2038.00, 
2039.00, 
2040.00, 
2041.00, 
2042.00, 
2043.00, 
2044.00, 
2045.00, 
2046.00, 
2047.00, 
2048.00, 
2049.00, 
2050.00, 
2051.00, 
2052.00, 
2053.00, 
2054.00, 
2055.00, 
2056.00, 
2057.00, 
2058.00, 
2059.00, 
2060.00, 
2061.00, 
2062.00, 
2063.00, 
2064.00, 
2065.00, 
2066.00, 
2067.00, 
2068.00, 
2069.00, 
2070.00, 
2071.00, 
2072.00, 
2073.00, 
2074.00, 
2075.00, 
2076.00, 
2077.00, 
2078.00, 
2079.00, 
2080.00, 
2081.00, 
2082.00, 
2083.00, 
2084.00, 
2085.00, 
2086.00, 
2087.00, 
2088.00, 
2089.00, 
2090.00, 
2091.00, 
2092.00, 
2093.00, 
2094.00, 
2095.00, 
2096.00, 
2097.00, 
2098.00, 
2099.00, 
2100.00, 
2101.00, 
2102.00, 
2103.00, 
2104.00, 
2105.00, 
2106.00, 
2107.00, 
2108.00, 
2109.00, 
2110.00, 
2111.00, 
2112.00, 
2113.00, 
2114.00, 
2115.00, 
2116.00, 
2117.00, 
2118.00, 
2119.00, 
2120.00, 
2121.00, 
2122.00, 
2123.00, 
2124.00, 
2125.00, 
2126.00, 
2127.00, 
2128.00, 
2129.00, 
2130.00, 
2131.00, 
2132.00, 
2133.00, 
2134.00, 
2135.00, 
2136.00, 
2137.00, 
2138.00, 
2139.00, 
2140.00, 
2141.00, 
2142.00, 
2143.00, 
2144.00, 
2145.00, 
2146.00, 
2147.00, 
2148.00, 
2149.00, 
2150.00, 
2151.00, 
2152.00, 
2153.00, 
2154.00, 
2155.00, 
2156.00, 
2157.00, 
2158.00, 
2159.00, 
2160.00, 
2161.00, 
2162.00, 
2163.00, 
2164.00, 
2165.00, 
2166.00, 
2167.00, 
2168.00, 
2169.00, 
2170.00, 
2171.00, 
2172.00, 
2173.00, 
2174.00, 
2175.00, 
2176.00, 
2177.00, 
2178.00, 
2179.00, 
2180.00, 
2181.00, 
2182.00, 
2183.00, 
2184.00, 
2185.00, 
2186.00, 
2187.00, 
2188.00, 
2189.00, 
2190.00, 
2191.00, 
2192.00, 
2193.00, 
2194.00, 
2195.00, 
2196.00, 
2197.00, 
2198.00, 
2199.00, 
2200.00, 
2201.00, 
2202.00, 
2203.00, 
2204.00, 
2205.00, 
2206.00, 
2207.00, 
2208.00, 
2209.00, 
2210.00, 
2211.00, 
2212.00, 
2213.00, 
2214.00, 
2215.00, 
2216.00, 
2217.00, 
2218.00, 
2219.00, 
2220.00, 
2221.00, 
2222.00, 
2223.00, 
2224.00, 
2225.00, 
2226.00, 
2227.00, 
2228.00, 
2229.00, 
2230.00, 
2231.00, 
2232.00, 
2233.00, 
2234.00, 
2235.00, 
2236.00, 
2237.00, 
2238.00, 
2239.00, 
2240.00, 
2241.00, 
2242.00, 
2243.00, 
2244.00, 
2245.00, 
2246.00, 
2247.00, 
2248.00, 
2249.00, 
2250.00, 
2251.00, 
2252.00, 
2253.00, 
2254.00, 
2255.00, 
2256.00, 
2257.00, 
2258.00, 
2259.00, 
2260.00, 
2261.00, 
2262.00, 
2263.00, 
2264.00, 
2265.00, 
2266.00, 
2267.00, 
2268.00, 
2269.00, 
2270.00, 
2271.00, 
2272.00, 
2273.00, 
2274.00, 
2275.00, 
2276.00, 
2277.00, 
2278.00, 
2279.00, 
2280.00, 
2281.00, 
2282.00, 
2283.00, 
2284.00, 
2285.00, 
2286.00, 
2287.00, 
2288.00, 
2289.00, 
2290.00, 
2291.00, 
2292.00, 
2293.00, 
2294.00, 
2295.00, 
2296.00, 
2297.00, 
2298.00, 
2299.00, 
2300.00, 
2301.00, 
2302.00, 
2303.00, 
2304.00, 
2305.00, 
2306.00, 
2307.00, 
2308.00, 
2309.00, 
2310.00, 
2311.00, 
2312.00, 
2313.00, 
2314.00, 
2315.00, 
2316.00, 
2317.00, 
2318.00, 
2319.00, 
2320.00, 
2321.00, 
2322.00, 
2323.00, 
2324.00, 
2325.00, 
2326.00, 
2327.00, 
2328.00, 
2329.00, 
2330.00, 
2331.00, 
2332.00, 
2333.00, 
2334.00, 
2335.00, 
2336.00, 
2337.00, 
2338.00, 
2339.00, 
2340.00, 
2341.00, 
2342.00, 
2343.00, 
2344.00, 
2345.00, 
2346.00, 
2347.00, 
2348.00, 
2349.00, 
2350.00, 
2351.00, 
2352.00, 
2353.00, 
2354.00, 
2355.00, 
2356.00, 
2357.00, 
2358.00, 
2359.00, 
2360.00, 
2361.00, 
2362.00, 
2363.00, 
2364.00, 
2365.00, 
2366.00, 
2367.00, 
2368.00, 
2369.00, 
2370.00, 
2371.00, 
2372.00, 
2373.00, 
2374.00, 
2375.00, 
2376.00, 
2377.00, 
2378.00, 
2379.00, 
2380.00, 
2381.00, 
2382.00, 
2383.00, 
2384.00, 
2385.00, 
2386.00, 
2387.00, 
2388.00, 
2389.00, 
2390.00, 
2391.00, 
2392.00, 
2393.00, 
2394.00, 
2395.00, 
2396.00, 
2397.00, 
2398.00, 
2399.00, 
2400.00, 
2401.00, 
2402.00, 
2403.00, 
2404.00, 
2405.00, 
2406.00, 
2407.00, 
2408.00, 
2409.00, 
2410.00, 
2411.00, 
2412.00, 
2413.00, 
2414.00, 
2415.00, 
2416.00, 
2417.00, 
2418.00, 
2419.00, 
2420.00, 
2421.00, 
2422.00, 
2423.00, 
2424.00, 
2425.00, 
2426.00, 
2427.00, 
2428.00, 
2429.00, 
2430.00, 
2431.00, 
2432.00, 
2433.00, 
2434.00, 
2435.00, 
2436.00, 
2437.00, 
2438.00, 
2439.00, 
2440.00, 
2441.00, 
2442.00, 
2443.00, 
2444.00, 
2445.00, 
2446.00, 
2447.00, 
2448.00, 
2449.00, 
2450.00, 
2451.00, 
2452.00, 
2453.00, 
2454.00, 
2455.00, 
2456.00, 
2457.00, 
2458.00, 
2459.00, 
2460.00, 
2461.00, 
2462.00, 
2463.00, 
2464.00, 
2465.00, 
2466.00, 
2467.00, 
2468.00, 
2469.00, 
2470.00, 
2471.00, 
2472.00, 
2473.00, 
2474.00, 
2475.00, 
2476.00, 
2477.00, 
2478.00, 
2479.00, 
2480.00, 
2481.00, 
2482.00, 
2483.00, 
2484.00, 
2485.00, 
2486.00, 
2487.00, 
2488.00, 
2489.00, 
2490.00, 
2491.00, 
2492.00, 
2493.00, 
2494.00, 
2495.00, 
2496.00, 
2497.00, 
2498.00, 
2499.00, 
2500.00, 
2501.00, 
2502.00, 
2503.00, 
2504.00, 
2505.00, 
2506.00, 
2507.00, 
2508.00, 
2509.00, 
2510.00, 
2511.00, 
2512.00, 
2513.00, 
2514.00, 
2515.00, 
2516.00, 
2517.00, 
2518.00, 
2519.00, 
2520.00, 
2521.00, 
2522.00, 
2523.00, 
2524.00, 
2525.00, 
2526.00, 
2527.00, 
2528.00, 
2529.00, 
2530.00, 
2531.00, 
2532.00, 
2533.00, 
2534.00, 
2535.00, 
2536.00, 
2537.00, 
2538.00, 
2539.00, 
2540.00, 
2541.00, 
2542.00, 
2543.00, 
2544.00, 
2545.00, 
2546.00, 
2547.00, 
2548.00, 
2549.00, 
2550.00, 
2551.00, 
2552.00, 
2553.00, 
2554.00, 
2555.00, 
2556.00, 
2557.00, 
2558.00, 
2559.00, 
2560.00, 
2561.00, 
2562.00, 
2563.00, 
2564.00, 
2565.00, 
2566.00, 
2567.00, 
2568.00, 
2569.00, 
2570.00, 
2571.00, 
2572.00, 
2573.00, 
2574.00, 
2575.00, 
2576.00, 
2577.00, 
2578.00, 
2579.00, 
2580.00, 
2581.00, 
2582.00, 
2583.00, 
2584.00, 
2585.00, 
2586.00, 
2587.00, 
2588.00, 
2589.00, 
2590.00, 
2591.00, 
2592.00, 
2593.00, 
2594.00, 
2595.00, 
2596.00, 
2597.00, 
2598.00, 
2599.00, 
2600.00, 
