"2aP2 - RawData"
"Wavelength nm.","T%"
200.00,0.003
201.00,0.001
202.00,0.001
203.00,0.002
204.00,-0.001
205.00,0.002
206.00,0.003
207.00,0.002
208.00,0.002
209.00,0.002
210.00,0.001
211.00,0.002
212.00,0.003
213.00,0.000
214.00,0.004
215.00,0.002
216.00,0.001
217.00,0.003
218.00,0.002
219.00,0.001
220.00,0.004
221.00,0.004
222.00,0.001
223.00,0.003
224.00,0.001
225.00,0.002
226.00,0.004
227.00,0.001
228.00,0.003
229.00,0.002
230.00,0.001
231.00,0.001
232.00,0.001
233.00,0.002
234.00,0.000
235.00,0.001
236.00,0.002
237.00,-0.001
238.00,0.002
239.00,0.001
240.00,0.003
241.00,0.001
242.00,0.002
243.00,0.003
244.00,-0.000
245.00,0.002
246.00,-0.000
247.00,0.001
248.00,0.000
249.00,0.000
250.00,0.000
251.00,0.002
252.00,0.001
253.00,0.002
254.00,0.004
255.00,0.001
256.00,0.001
257.00,0.001
258.00,0.002
259.00,-0.001
260.00,0.001
261.00,-0.001
262.00,0.002
263.00,0.001
264.00,0.001
265.00,0.000
266.00,0.000
267.00,-0.000
268.00,0.001
269.00,0.002
270.00,-0.001
271.00,-0.001
272.00,-0.001
273.00,0.000
274.00,0.000
275.00,-0.000
276.00,0.000
277.00,0.001
278.00,-0.000
279.00,0.001
280.00,0.001
281.00,0.001
282.00,0.001
283.00,-0.001
284.00,-0.001
285.00,0.002
286.00,0.002
287.00,-0.001
288.00,0.002
289.00,0.000
290.00,-0.000
291.00,-0.000
292.00,-0.001
293.00,-0.001
294.00,0.000
295.00,0.001
296.00,-0.000
297.00,0.000
298.00,0.003
299.00,0.001
300.00,0.002
301.00,0.003
302.00,0.005
303.00,0.008
304.00,0.012
305.00,0.018
306.00,0.027
307.00,0.038
308.00,0.062
309.00,0.094
310.00,0.134
311.00,0.181
312.00,0.241
313.00,0.323
314.00,0.423
315.00,0.546
316.00,0.707
317.00,0.898
318.00,1.109
319.00,1.359
320.00,1.644
321.00,1.988
322.00,2.279
323.00,2.722
324.00,3.157
325.00,3.607
326.00,4.077
327.00,4.604
328.00,5.108
329.00,5.650
330.00,6.226
331.00,6.772
332.00,7.365
333.00,7.986
334.00,8.572
335.00,9.177
336.00,9.765
337.00,10.378
338.00,10.959
339.00,11.498
340.00,12.030
341.00,12.581
342.00,13.075
343.00,13.567
344.00,14.016
345.00,14.527
346.00,14.896
347.00,15.281
348.00,15.730
349.00,15.979
350.00,16.335
351.00,16.653
352.00,16.893
353.00,17.199
354.00,17.446
355.00,17.716
356.00,17.893
357.00,18.127
358.00,18.290
359.00,18.519
360.00,18.714
361.00,18.816
362.00,18.887
363.00,19.115
364.00,19.179
365.00,19.269
366.00,19.350
367.00,19.444
368.00,19.435
369.00,19.486
370.00,19.552
371.00,19.565
372.00,19.528
373.00,19.558
374.00,19.562
375.00,19.574
376.00,19.477
377.00,19.462
378.00,19.420
379.00,19.367
380.00,19.343
381.00,19.345
382.00,19.300
383.00,19.294
384.00,19.307
385.00,19.372
386.00,19.341
387.00,19.398
388.00,19.424
389.00,19.427
390.00,19.440
391.00,19.467
392.00,19.479
393.00,19.467
394.00,19.524
395.00,19.499
396.00,19.475
397.00,19.498
398.00,19.485
399.00,19.493
400.00,19.499
401.00,19.502
402.00,19.425
403.00,19.500
404.00,19.456
405.00,19.443
406.00,19.449
407.00,19.429
408.00,19.463
409.00,19.383
410.00,19.329
411.00,19.345
412.00,19.324
413.00,19.397
414.00,19.356
415.00,19.345
416.00,19.404
417.00,19.411
418.00,19.423
419.00,19.472
420.00,19.546
421.00,19.557
422.00,19.554
423.00,19.602
424.00,19.668
425.00,19.722
426.00,19.716
427.00,19.764
428.00,19.822
429.00,19.843
430.00,19.896
431.00,19.964
432.00,19.982
433.00,20.084
434.00,20.124
435.00,20.221
436.00,20.270
437.00,20.345
438.00,20.424
439.00,20.493
440.00,20.562
441.00,20.609
442.00,20.717
443.00,20.820
444.00,20.898
445.00,20.967
446.00,21.115
447.00,21.143
448.00,21.295
449.00,21.389
450.00,21.511
451.00,21.615
452.00,21.711
453.00,21.842
454.00,21.917
455.00,22.039
456.00,22.155
457.00,22.289
458.00,22.430
459.00,22.520
460.00,22.660
461.00,22.790
462.00,22.883
463.00,23.019
464.00,23.178
465.00,23.316
466.00,23.463
467.00,23.587
468.00,23.710
469.00,23.790
470.00,23.920
471.00,24.061
472.00,24.145
473.00,24.278
474.00,24.400
475.00,24.539
476.00,24.630
477.00,24.754
478.00,24.915
479.00,25.103
480.00,25.239
481.00,25.351
482.00,25.516
483.00,25.650
484.00,25.834
485.00,25.976
486.00,26.113
487.00,26.291
488.00,26.425
489.00,26.626
490.00,26.781
491.00,26.860
492.00,27.058
493.00,27.205
494.00,27.434
495.00,27.452
496.00,27.593
497.00,27.698
498.00,27.858
499.00,28.026
500.00,28.142
501.00,28.260
502.00,28.393
503.00,28.541
504.00,28.599
505.00,28.750
506.00,28.886
507.00,28.994
508.00,29.109
509.00,29.290
510.00,29.425
511.00,29.474
512.00,29.694
513.00,29.846
514.00,29.892
515.00,30.074
516.00,30.225
517.00,30.244
518.00,30.349
519.00,30.477
520.00,30.582
521.00,30.694
522.00,30.783
523.00,30.814
524.00,30.985
525.00,31.065
526.00,31.185
527.00,31.269
528.00,31.365
529.00,31.501
530.00,31.643
531.00,31.730
532.00,31.840
533.00,31.884
534.00,32.078
535.00,32.142
536.00,32.182
537.00,32.302
538.00,32.360
539.00,32.421
540.00,32.502
541.00,32.606
542.00,32.605
543.00,32.689
544.00,32.795
545.00,32.870
546.00,32.859
547.00,32.976
548.00,33.097
549.00,33.166
550.00,33.232
551.00,33.365
552.00,33.405
553.00,33.484
554.00,33.563
555.00,33.577
556.00,33.680
557.00,33.731
558.00,33.742
559.00,33.833
560.00,33.940
561.00,33.965
562.00,34.045
563.00,34.069
564.00,34.168
565.00,34.174
566.00,34.185
567.00,34.269
568.00,34.316
569.00,34.353
570.00,34.443
571.00,34.486
572.00,34.480
573.00,34.470
574.00,34.564
575.00,34.555
576.00,34.570
577.00,34.620
578.00,34.737
579.00,34.800
580.00,34.809
581.00,34.952
582.00,35.054
583.00,35.034
584.00,35.142
585.00,35.203
586.00,35.268
587.00,35.295
588.00,35.377
589.00,35.370
590.00,35.443
591.00,35.469
592.00,35.421
593.00,35.449
594.00,35.620
595.00,35.689
596.00,35.763
597.00,35.841
598.00,35.928
599.00,35.868
600.00,35.980
601.00,35.997
602.00,35.949
603.00,36.049
604.00,36.131
605.00,36.191
606.00,36.209
607.00,36.215
608.00,36.283
609.00,36.339
610.00,36.573
611.00,36.346
612.00,36.448
613.00,36.507
614.00,36.528
615.00,36.653
616.00,36.668
617.00,36.665
618.00,36.646
619.00,36.902
620.00,37.094
621.00,37.015
622.00,37.071
623.00,37.149
624.00,37.216
625.00,37.269
626.00,37.342
627.00,37.441
628.00,37.454
629.00,37.502
630.00,37.591
631.00,37.688
632.00,37.798
633.00,37.824
634.00,37.833
635.00,38.056
636.00,38.132
637.00,38.168
638.00,38.189
639.00,38.370
640.00,38.436
641.00,38.469
642.00,38.505
643.00,38.688
644.00,38.737
645.00,38.824
646.00,38.955
647.00,39.004
648.00,39.117
649.00,39.114
650.00,39.175
651.00,39.418
652.00,39.445
653.00,39.475
654.00,39.580
655.00,39.772
656.00,40.087
657.00,39.948
658.00,40.052
659.00,40.161
660.00,40.236
661.00,40.417
662.00,40.272
663.00,40.487
664.00,40.788
665.00,40.929
666.00,40.846
667.00,41.001
668.00,40.915
669.00,41.171
670.00,41.500
671.00,41.384
672.00,41.496
673.00,41.683
674.00,41.675
675.00,41.787
676.00,42.061
677.00,42.239
678.00,42.068
679.00,42.235
680.00,42.426
681.00,42.589
682.00,42.629
683.00,42.743
684.00,42.842
685.00,43.058
686.00,42.980
687.00,43.055
688.00,43.154
689.00,43.181
690.00,43.488
691.00,43.778
692.00,43.552
693.00,43.591
694.00,43.737
695.00,43.909
696.00,43.974
697.00,44.078
698.00,44.065
699.00,44.354
700.00,44.318
701.00,44.608
702.00,44.857
703.00,44.874
704.00,44.888
705.00,44.860
706.00,45.047
707.00,45.110
708.00,45.040
709.00,45.417
710.00,45.801
711.00,45.308
712.00,45.380
713.00,45.636
714.00,45.833
715.00,45.783
716.00,45.859
717.00,46.027
718.00,46.126
719.00,46.147
720.00,46.292
721.00,50.569
722.00,50.553
723.00,50.677
724.00,50.725
725.00,50.724
726.00,50.799
727.00,50.751
728.00,50.833
729.00,50.831
730.00,50.929
731.00,51.041
732.00,51.015
733.00,51.108
734.00,51.104
735.00,51.178
736.00,51.207
737.00,51.288
738.00,51.382
739.00,51.378
740.00,51.404
741.00,51.471
742.00,51.529
743.00,51.546
744.00,51.511
745.00,51.659
746.00,51.660
747.00,51.621
748.00,51.567
749.00,51.681
750.00,51.662
751.00,51.635
752.00,51.790
753.00,51.693
754.00,51.786
755.00,51.655
756.00,51.826
757.00,51.810
758.00,51.850
759.00,51.855
760.00,51.859
761.00,51.928
762.00,51.950
763.00,51.980
764.00,51.993
765.00,52.022
766.00,52.094
767.00,52.077
768.00,52.110
769.00,52.034
770.00,52.166
771.00,52.119
772.00,52.158
773.00,52.142
774.00,52.196
775.00,52.226
776.00,52.176
777.00,52.291
778.00,52.268
779.00,52.334
780.00,52.300
781.00,52.296
782.00,52.385
783.00,52.263
784.00,52.300
785.00,52.294
786.00,52.385
787.00,52.343
788.00,52.277
789.00,52.356
790.00,52.298
791.00,52.427
792.00,52.324
793.00,52.430
794.00,52.383
795.00,52.351
796.00,52.334
797.00,52.277
798.00,52.373
799.00,52.330
800.00,52.302
801.00,52.397
802.00,52.305
803.00,52.360
804.00,52.328
805.00,52.322
806.00,52.313
807.00,52.307
808.00,52.312
809.00,52.301
810.00,52.277
811.00,52.291
812.00,52.259
813.00,52.174
814.00,52.231
815.00,52.214
816.00,52.155
817.00,52.244
818.00,52.140
819.00,52.205
820.00,52.158
821.00,52.108
822.00,52.109
823.00,52.125
824.00,52.122
825.00,52.155
826.00,52.144
827.00,52.212
828.00,52.152
829.00,52.203
830.00,52.197
831.00,54.356
832.00,54.384
833.00,54.328
834.00,54.345
835.00,54.316
836.00,54.304
837.00,54.284
838.00,54.276
839.00,54.257
840.00,54.225
841.00,54.241
842.00,54.186
843.00,54.212
844.00,54.228
845.00,54.166
846.00,54.176
847.00,54.141
848.00,54.163
849.00,54.083
850.00,54.099
851.00,53.966
852.00,54.033
853.00,53.937
854.00,53.930
855.00,53.876
856.00,53.905
857.00,53.885
858.00,53.853
859.00,53.843
860.00,53.833
861.00,53.864
862.00,53.758
863.00,53.835
864.00,53.751
865.00,53.795
866.00,53.926
867.00,53.715
868.00,53.768
869.00,53.767
870.00,53.727
871.00,53.700
872.00,53.734
873.00,53.703
874.00,53.715
875.00,53.677
876.00,53.642
877.00,53.639
878.00,53.663
879.00,53.605
880.00,53.591
881.00,53.558
882.00,53.624
883.00,53.537
884.00,53.544
885.00,53.628
886.00,53.550
887.00,53.489
888.00,53.459
889.00,53.469
890.00,53.456
891.00,53.450
892.00,53.403
893.00,53.379
894.00,53.413
895.00,53.341
896.00,53.321
897.00,53.311
898.00,53.318
899.00,53.188
900.00,53.273
901.00,53.280
902.00,53.290
903.00,53.249
904.00,53.269
905.00,53.234
906.00,53.210
907.00,53.181
908.00,53.161
909.00,53.135
910.00,53.119
911.00,53.109
912.00,53.124
913.00,53.052
914.00,53.052
915.00,53.012
916.00,53.033
917.00,52.952
918.00,53.055
919.00,52.932
920.00,52.877
921.00,52.919
922.00,52.908
923.00,52.872
924.00,52.763
925.00,52.957
926.00,52.840
927.00,52.838
928.00,52.804
929.00,52.802
930.00,52.755
931.00,52.763
932.00,52.711
933.00,52.730
934.00,52.719
935.00,52.673
936.00,52.655
937.00,52.622
938.00,52.640
939.00,52.623
940.00,52.689
941.00,52.577
942.00,52.537
943.00,52.532
944.00,52.489
945.00,52.515
946.00,52.487
947.00,52.454
948.00,52.450
949.00,52.412
950.00,52.432
951.00,52.375
952.00,52.363
953.00,52.347
954.00,52.300
955.00,52.226
956.00,52.303
957.00,52.224
958.00,52.254
959.00,52.175
960.00,52.184
961.00,52.178
962.00,52.169
963.00,52.119
964.00,52.107
965.00,52.175
966.00,52.093
967.00,52.097
968.00,52.091
969.00,52.086
970.00,52.062
971.00,52.116
972.00,52.044
973.00,52.067
974.00,52.093
975.00,52.045
976.00,52.065
977.00,52.041
978.00,52.106
979.00,52.042
980.00,52.044
981.00,52.056
982.00,52.031
983.00,52.047
984.00,52.011
985.00,52.060
986.00,52.017
987.00,52.032
988.00,52.006
989.00,52.012
990.00,51.999
991.00,51.982
992.00,51.994
993.00,51.973
994.00,51.959
995.00,51.947
996.00,51.938
997.00,51.922
998.00,51.878
999.00,51.918
1000.00,51.865
1001.00,51.872
1002.00,51.857
1003.00,51.850
1004.00,51.838
1005.00,51.810
1006.00,51.827
1007.00,51.782
1008.00,51.772
1009.00,51.751
1010.00,51.746
1011.00,51.748
1012.00,51.713
1013.00,51.731
1014.00,51.676
1015.00,51.712
1016.00,51.671
1017.00,51.672
1018.00,51.659
1019.00,51.619
1020.00,51.639
1021.00,51.596
1022.00,51.611
1023.00,51.564
1024.00,51.546
1025.00,51.517
1026.00,51.534
1027.00,51.508
1028.00,51.503
1029.00,51.507
1030.00,51.459
1031.00,51.481
1032.00,51.486
1033.00,51.454
1034.00,51.436
1035.00,51.381
1036.00,51.366
1037.00,51.333
1038.00,51.320
1039.00,51.266
1040.00,51.279
1041.00,51.253
1042.00,51.252
1043.00,51.234
1044.00,51.263
1045.00,51.242
1046.00,51.226
1047.00,51.270
1048.00,51.248
1049.00,51.261
1050.00,51.246
1051.00,51.289
1052.00,51.285
1053.00,51.266
1054.00,51.266
1055.00,51.305
1056.00,51.311
1057.00,51.307
1058.00,51.289
1059.00,51.309
1060.00,51.290
1061.00,51.257
1062.00,51.289
1063.00,51.255
1064.00,51.248
1065.00,51.238
1066.00,51.238
1067.00,51.222
1068.00,51.250
1069.00,51.206
1070.00,51.187
1071.00,51.173
1072.00,51.199
1073.00,51.177
1074.00,51.172
1075.00,51.153
1076.00,51.177
1077.00,51.163
1078.00,51.131
1079.00,51.123
1080.00,51.125
1081.00,51.105
1082.00,51.101
1083.00,51.078
1084.00,51.060
1085.00,51.064
1086.00,51.050
1087.00,51.052
1088.00,51.043
1089.00,51.036
1090.00,51.025
1091.00,51.015
1092.00,51.028
1093.00,51.040
1094.00,50.970
1095.00,50.973
1096.00,50.947
1097.00,50.930
1098.00,50.917
1099.00,50.922
1100.00,50.907
1101.00,50.899
1102.00,50.898
1103.00,50.912
1104.00,50.904
1105.00,50.894
1106.00,50.886
1107.00,50.873
1108.00,50.855
1109.00,50.837
1110.00,50.821
1111.00,50.814
1112.00,50.782
1113.00,50.798
1114.00,50.794
1115.00,50.798
1116.00,50.780
1117.00,50.778
1118.00,50.770
1119.00,50.762
1120.00,50.757
1121.00,50.749
1122.00,50.722
1123.00,50.721
1124.00,50.711
1125.00,50.724
1126.00,50.707
1127.00,50.710
1128.00,50.698
1129.00,50.691
1130.00,50.665
1131.00,50.663
1132.00,50.662
1133.00,50.659
1134.00,50.655
1135.00,50.629
1136.00,50.628
1137.00,50.645
1138.00,50.637
1139.00,50.646
1140.00,50.626
1141.00,50.606
1142.00,50.585
1143.00,50.605
1144.00,50.575
1145.00,50.573
1146.00,50.577
1147.00,50.575
1148.00,50.579
1149.00,50.585
1150.00,50.575
1151.00,50.577
1152.00,50.560
1153.00,50.553
1154.00,50.528
1155.00,50.543
1156.00,50.524
1157.00,50.537
1158.00,50.537
1159.00,50.528
1160.00,50.528
1161.00,50.536
1162.00,50.526
1163.00,50.523
1164.00,50.526
1165.00,50.531
1166.00,50.531
1167.00,50.521
1168.00,50.517
1169.00,50.503
1170.00,50.504
1171.00,50.483
1172.00,50.495
1173.00,50.479
1174.00,50.471
1175.00,50.471
1176.00,50.475
1177.00,50.485
1178.00,50.490
1179.00,50.500
1180.00,50.491
1181.00,50.514
1182.00,50.496
1183.00,50.493
1184.00,50.483
1185.00,50.483
1186.00,50.473
1187.00,50.461
1188.00,50.457
1189.00,50.450
1190.00,50.450
1191.00,50.455
1192.00,50.486
1193.00,50.466
1194.00,50.469
1195.00,50.437
1196.00,50.465
1197.00,50.474
1198.00,50.450
1199.00,50.434
1200.00,50.452
1201.00,50.457
1202.00,50.440
1203.00,50.431
1204.00,50.422
1205.00,50.439
1206.00,50.427
1207.00,50.427
1208.00,50.410
1209.00,50.423
1210.00,50.411
1211.00,50.409
1212.00,50.436
1213.00,50.402
1214.00,50.422
1215.00,50.394
1216.00,50.422
1217.00,50.410
1218.00,50.387
1219.00,50.412
1220.00,50.376
1221.00,50.399
1222.00,50.398
1223.00,50.427
1224.00,50.432
1225.00,50.416
1226.00,50.417
1227.00,50.418
1228.00,50.423
1229.00,50.401
1230.00,50.461
1231.00,50.444
1232.00,50.453
1233.00,50.451
1234.00,50.458
1235.00,50.465
1236.00,50.459
1237.00,50.453
1238.00,50.463
1239.00,50.460
1240.00,50.429
1241.00,50.431
1242.00,50.460
1243.00,50.464
1244.00,50.439
1245.00,50.486
1246.00,50.486
1247.00,50.467
1248.00,50.456
1249.00,50.485
1250.00,50.488
1251.00,50.472
1252.00,50.492
1253.00,50.476
1254.00,50.512
1255.00,50.494
1256.00,50.472
1257.00,50.451
1258.00,50.504
1259.00,50.484
1260.00,50.500
1261.00,50.494
1262.00,50.478
1263.00,50.484
1264.00,50.499
1265.00,50.500
1266.00,50.500
1267.00,50.515
1268.00,50.538
1269.00,50.527
1270.00,50.535
1271.00,50.556
1272.00,50.551
1273.00,50.553
1274.00,50.542
1275.00,50.556
1276.00,50.537
1277.00,50.540
1278.00,50.558
1279.00,50.557
1280.00,50.553
1281.00,50.570
1282.00,50.587
1283.00,50.574
1284.00,50.587
1285.00,50.592
1286.00,50.613
1287.00,50.613
1288.00,50.588
1289.00,50.615
1290.00,50.658
1291.00,50.627
1292.00,50.612
1293.00,50.613
1294.00,50.623
1295.00,50.647
1296.00,50.635
1297.00,50.645
1298.00,50.675
1299.00,50.655
1300.00,50.670
1301.00,50.672
1302.00,50.689
1303.00,50.690
1304.00,50.673
1305.00,50.702
1306.00,50.700
1307.00,50.700
1308.00,50.709
1309.00,50.709
1310.00,50.709
1311.00,50.697
1312.00,50.714
1313.00,50.729
1314.00,50.738
1315.00,50.759
1316.00,50.740
1317.00,50.763
1318.00,50.767
1319.00,50.768
1320.00,50.797
1321.00,50.929
1322.00,50.927
1323.00,50.906
1324.00,50.895
1325.00,50.884
1326.00,50.906
1327.00,50.900
1328.00,50.885
1329.00,50.905
1330.00,50.890
1331.00,50.893
1332.00,50.891
1333.00,50.907
1334.00,50.915
1335.00,50.942
1336.00,50.964
1337.00,50.993
1338.00,51.049
1339.00,51.095
1340.00,51.152
1341.00,51.207
1342.00,51.269
1343.00,51.332
1344.00,51.379
1345.00,51.418
1346.00,51.456
1347.00,51.494
1348.00,51.517
1349.00,51.553
1350.00,51.548
1351.00,51.568
1352.00,51.558
1353.00,51.570
1354.00,51.568
1355.00,51.488
1356.00,51.582
1357.00,51.575
1358.00,51.580
1359.00,51.656
1360.00,51.632
1361.00,51.658
1362.00,51.565
1363.00,51.705
1364.00,51.639
1365.00,51.576
1366.00,51.626
1367.00,51.612
1368.00,51.491
1369.00,51.626
1370.00,51.589
1371.00,51.493
1372.00,51.568
1373.00,51.597
1374.00,51.578
1375.00,51.556
1376.00,51.553
1377.00,51.570
1378.00,51.593
1379.00,51.613
1380.00,51.587
1381.00,51.598
1382.00,51.586
1383.00,51.619
1384.00,51.536
1385.00,51.495
1386.00,51.603
1387.00,51.569
1388.00,51.520
1389.00,51.483
1390.00,51.568
1391.00,51.616
1392.00,51.581
1393.00,51.554
1394.00,51.614
1395.00,51.555
1396.00,51.536
1397.00,51.534
1398.00,51.648
1399.00,51.625
1400.00,51.563
1401.00,51.577
1402.00,51.627
1403.00,51.574
1404.00,51.596
1405.00,51.626
1406.00,51.631
1407.00,51.640
1408.00,51.680
1409.00,51.613
1410.00,51.703
1411.00,51.361
1412.00,51.704
1413.00,51.637
1414.00,51.669
1415.00,51.671
1416.00,51.714
1417.00,51.733
1418.00,51.698
1419.00,51.688
1420.00,51.723
1421.00,51.764
1422.00,51.775
1423.00,51.849
1424.00,51.816
1425.00,51.802
1426.00,51.797
1427.00,51.815
1428.00,51.814
1429.00,51.815
1430.00,51.834
1431.00,51.858
1432.00,51.863
1433.00,51.861
1434.00,51.862
1435.00,51.929
1436.00,51.937
1437.00,51.928
1438.00,51.940
1439.00,51.981
1440.00,51.976
1441.00,51.977
1442.00,51.998
1443.00,52.056
1444.00,52.088
1445.00,52.041
1446.00,52.074
1447.00,52.110
1448.00,52.164
1449.00,52.143
1450.00,52.144
1451.00,52.141
1452.00,52.150
1453.00,52.160
1454.00,52.191
1455.00,52.193
1456.00,52.236
1457.00,52.216
1458.00,52.242
1459.00,52.258
1460.00,52.267
1461.00,52.276
1462.00,52.300
1463.00,52.297
1464.00,52.315
1465.00,52.349
1466.00,52.336
1467.00,52.361
1468.00,52.425
1469.00,52.420
1470.00,52.410
1471.00,52.421
1472.00,52.452
1473.00,52.453
1474.00,52.460
1475.00,52.481
1476.00,52.497
1477.00,52.471
1478.00,52.492
1479.00,52.522
1480.00,52.520
1481.00,52.530
1482.00,52.581
1483.00,52.584
1484.00,52.604
1485.00,52.615
1486.00,52.620
1487.00,52.647
1488.00,52.634
1489.00,52.634
1490.00,52.657
1491.00,52.663
1492.00,52.678
1493.00,52.663
1494.00,52.686
1495.00,52.698
1496.00,52.700
1497.00,52.702
1498.00,52.719
1499.00,52.724
1500.00,52.771
1501.00, 
1502.00, 
1503.00, 
1504.00, 
1505.00, 
1506.00, 
1507.00, 
1508.00, 
1509.00, 
1510.00, 
1511.00, 
1512.00, 
1513.00, 
1514.00, 
1515.00, 
1516.00, 
1517.00, 
1518.00, 
1519.00, 
1520.00, 
1521.00, 
1522.00, 
1523.00, 
1524.00, 
1525.00, 
1526.00, 
1527.00, 
1528.00, 
1529.00, 
1530.00, 
1531.00, 
1532.00, 
1533.00, 
1534.00, 
1535.00, 
1536.00, 
1537.00, 
1538.00, 
1539.00, 
1540.00, 
1541.00, 
1542.00, 
1543.00, 
1544.00, 
1545.00, 
1546.00, 
1547.00, 
1548.00, 
1549.00, 
1550.00, 
1551.00, 
1552.00, 
1553.00, 
1554.00, 
1555.00, 
1556.00, 
1557.00, 
1558.00, 
1559.00, 
1560.00, 
1561.00, 
1562.00, 
1563.00, 
1564.00, 
1565.00, 
1566.00, 
1567.00, 
1568.00, 
1569.00, 
1570.00, 
1571.00, 
1572.00, 
1573.00, 
1574.00, 
1575.00, 
1576.00, 
1577.00, 
1578.00, 
1579.00, 
1580.00, 
1581.00, 
1582.00, 
1583.00, 
1584.00, 
1585.00, 
1586.00, 
1587.00, 
1588.00, 
1589.00, 
1590.00, 
1591.00, 
1592.00, 
1593.00, 
1594.00, 
1595.00, 
1596.00, 
1597.00, 
1598.00, 
1599.00, 
1600.00, 
1601.00, 
1602.00, 
1603.00, 
1604.00, 
1605.00, 
1606.00, 
1607.00, 
1608.00, 
1609.00, 
1610.00, 
1611.00, 
1612.00, 
1613.00, 
1614.00, 
1615.00, 
1616.00, 
1617.00, 
1618.00, 
1619.00, 
1620.00, 
1621.00, 
1622.00, 
1623.00, 
1624.00, 
1625.00, 
1626.00, 
1627.00, 
1628.00, 
1629.00, 
1630.00, 
1631.00, 
1632.00, 
1633.00, 
1634.00, 
1635.00, 
1636.00, 
1637.00, 
1638.00, 
1639.00, 
1640.00, 
1641.00, 
1642.00, 
1643.00, 
1644.00, 
1645.00, 
1646.00, 
1647.00, 
1648.00, 
1649.00, 
1650.00, 
1651.00, 
1652.00, 
1653.00, 
1654.00, 
1655.00, 
1656.00, 
1657.00, 
1658.00, 
1659.00, 
1660.00, 
1661.00, 
1662.00, 
1663.00, 
1664.00, 
1665.00, 
1666.00, 
1667.00, 
1668.00, 
1669.00, 
1670.00, 
1671.00, 
1672.00, 
1673.00, 
1674.00, 
1675.00, 
1676.00, 
1677.00, 
1678.00, 
1679.00, 
1680.00, 
1681.00, 
1682.00, 
1683.00, 
1684.00, 
1685.00, 
1686.00, 
1687.00, 
1688.00, 
1689.00, 
1690.00, 
1691.00, 
1692.00, 
1693.00, 
1694.00, 
1695.00, 
1696.00, 
1697.00, 
1698.00, 
1699.00, 
1700.00, 
1701.00, 
1702.00, 
1703.00, 
1704.00, 
1705.00, 
1706.00, 
1707.00, 
1708.00, 
1709.00, 
1710.00, 
1711.00, 
1712.00, 
1713.00, 
1714.00, 
1715.00, 
1716.00, 
1717.00, 
1718.00, 
1719.00, 
1720.00, 
1721.00, 
1722.00, 
1723.00, 
1724.00, 
1725.00, 
1726.00, 
1727.00, 
1728.00, 
1729.00, 
1730.00, 
1731.00, 
1732.00, 
1733.00, 
1734.00, 
1735.00, 
1736.00, 
1737.00, 
1738.00, 
1739.00, 
1740.00, 
1741.00, 
1742.00, 
1743.00, 
1744.00, 
1745.00, 
1746.00, 
1747.00, 
1748.00, 
1749.00, 
1750.00, 
1751.00, 
1752.00, 
1753.00, 
1754.00, 
1755.00, 
1756.00, 
1757.00, 
1758.00, 
1759.00, 
1760.00, 
1761.00, 
1762.00, 
1763.00, 
1764.00, 
1765.00, 
1766.00, 
1767.00, 
1768.00, 
1769.00, 
1770.00, 
1771.00, 
1772.00, 
1773.00, 
1774.00, 
1775.00, 
1776.00, 
1777.00, 
1778.00, 
1779.00, 
1780.00, 
1781.00, 
1782.00, 
1783.00, 
1784.00, 
1785.00, 
1786.00, 
1787.00, 
1788.00, 
1789.00, 
1790.00, 
1791.00, 
1792.00, 
1793.00, 
1794.00, 
1795.00, 
1796.00, 
1797.00, 
1798.00, 
1799.00, 
1800.00, 
1801.00, 
1802.00, 
1803.00, 
1804.00, 
1805.00, 
1806.00, 
1807.00, 
1808.00, 
1809.00, 
1810.00, 
1811.00, 
1812.00, 
1813.00, 
1814.00, 
1815.00, 
1816.00, 
1817.00, 
1818.00, 
1819.00, 
1820.00, 
1821.00, 
1822.00, 
1823.00, 
1824.00, 
1825.00, 
1826.00, 
1827.00, 
1828.00, 
1829.00, 
1830.00, 
1831.00, 
1832.00, 
1833.00, 
1834.00, 
1835.00, 
1836.00, 
1837.00, 
1838.00, 
1839.00, 
1840.00, 
1841.00, 
1842.00, 
1843.00, 
1844.00, 
1845.00, 
1846.00, 
1847.00, 
1848.00, 
1849.00, 
1850.00, 
1851.00, 
1852.00, 
1853.00, 
1854.00, 
1855.00, 
1856.00, 
1857.00, 
1858.00, 
1859.00, 
1860.00, 
1861.00, 
1862.00, 
1863.00, 
1864.00, 
1865.00, 
1866.00, 
1867.00, 
1868.00, 
1869.00, 
1870.00, 
1871.00, 
1872.00, 
1873.00, 
1874.00, 
1875.00, 
1876.00, 
1877.00, 
1878.00, 
1879.00, 
1880.00, 
1881.00, 
1882.00, 
1883.00, 
1884.00, 
1885.00, 
1886.00, 
1887.00, 
1888.00, 
1889.00, 
1890.00, 
1891.00, 
1892.00, 
1893.00, 
1894.00, 
1895.00, 
1896.00, 
1897.00, 
1898.00, 
1899.00, 
1900.00, 
1901.00, 
1902.00, 
1903.00, 
1904.00, 
1905.00, 
1906.00, 
1907.00, 
1908.00, 
1909.00, 
1910.00, 
1911.00, 
1912.00, 
1913.00, 
1914.00, 
1915.00, 
1916.00, 
1917.00, 
1918.00, 
1919.00, 
1920.00, 
1921.00, 
1922.00, 
1923.00, 
1924.00, 
1925.00, 
1926.00, 
1927.00, 
1928.00, 
1929.00, 
1930.00, 
1931.00, 
1932.00, 
1933.00, 
1934.00, 
1935.00, 
1936.00, 
1937.00, 
1938.00, 
1939.00, 
1940.00, 
1941.00, 
1942.00, 
1943.00, 
1944.00, 
1945.00, 
1946.00, 
1947.00, 
1948.00, 
1949.00, 
1950.00, 
1951.00, 
1952.00, 
1953.00, 
1954.00, 
1955.00, 
1956.00, 
1957.00, 
1958.00, 
1959.00, 
1960.00, 
1961.00, 
1962.00, 
1963.00, 
1964.00, 
1965.00, 
1966.00, 
1967.00, 
1968.00, 
1969.00, 
1970.00, 
1971.00, 
1972.00, 
1973.00, 
1974.00, 
1975.00, 
1976.00, 
1977.00, 
1978.00, 
1979.00, 
1980.00, 
1981.00, 
1982.00, 
1983.00, 
1984.00, 
1985.00, 
1986.00, 
1987.00, 
1988.00, 
1989.00, 
1990.00, 
1991.00, 
1992.00, 
1993.00, 
1994.00, 
1995.00, 
1996.00, 
1997.00, 
1998.00, 
1999.00, 
2000.00, 
2001.00, 
2002.00, 
2003.00, 
2004.00, 
2005.00, 
2006.00, 
2007.00, 
2008.00, 
2009.00, 
2010.00, 
2011.00, 
2012.00, 
2013.00, 
2014.00, 
2015.00, 
2016.00, 
2017.00, 
2018.00, 
2019.00, 
2020.00, 
2021.00, 
2022.00, 
2023.00, 
2024.00, 
2025.00, 
2026.00, 
2027.00, 
2028.00, 
2029.00, 
2030.00, 
2031.00, 
2032.00, 
2033.00, 
2034.00, 
2035.00, 
2036.00, 
2037.00, 
2038.00, 
2039.00, 
2040.00, 
2041.00, 
2042.00, 
2043.00, 
2044.00, 
2045.00, 
2046.00, 
2047.00, 
2048.00, 
2049.00, 
2050.00, 
2051.00, 
2052.00, 
2053.00, 
2054.00, 
2055.00, 
2056.00, 
2057.00, 
2058.00, 
2059.00, 
2060.00, 
2061.00, 
2062.00, 
2063.00, 
2064.00, 
2065.00, 
2066.00, 
2067.00, 
2068.00, 
2069.00, 
2070.00, 
2071.00, 
2072.00, 
2073.00, 
2074.00, 
2075.00, 
2076.00, 
2077.00, 
2078.00, 
2079.00, 
2080.00, 
2081.00, 
2082.00, 
2083.00, 
2084.00, 
2085.00, 
2086.00, 
2087.00, 
2088.00, 
2089.00, 
2090.00, 
2091.00, 
2092.00, 
2093.00, 
2094.00, 
2095.00, 
2096.00, 
2097.00, 
2098.00, 
2099.00, 
2100.00, 
2101.00, 
2102.00, 
2103.00, 
2104.00, 
2105.00, 
2106.00, 
2107.00, 
2108.00, 
2109.00, 
2110.00, 
2111.00, 
2112.00, 
2113.00, 
2114.00, 
2115.00, 
2116.00, 
2117.00, 
2118.00, 
2119.00, 
2120.00, 
2121.00, 
2122.00, 
2123.00, 
2124.00, 
2125.00, 
2126.00, 
2127.00, 
2128.00, 
2129.00, 
2130.00, 
2131.00, 
2132.00, 
2133.00, 
2134.00, 
2135.00, 
2136.00, 
2137.00, 
2138.00, 
2139.00, 
2140.00, 
2141.00, 
2142.00, 
2143.00, 
2144.00, 
2145.00, 
2146.00, 
2147.00, 
2148.00, 
2149.00, 
2150.00, 
2151.00, 
2152.00, 
2153.00, 
2154.00, 
2155.00, 
2156.00, 
2157.00, 
2158.00, 
2159.00, 
2160.00, 
2161.00, 
2162.00, 
2163.00, 
2164.00, 
2165.00, 
2166.00, 
2167.00, 
2168.00, 
2169.00, 
2170.00, 
2171.00, 
2172.00, 
2173.00, 
2174.00, 
2175.00, 
2176.00, 
2177.00, 
2178.00, 
2179.00, 
2180.00, 
2181.00, 
2182.00, 
2183.00, 
2184.00, 
2185.00, 
2186.00, 
2187.00, 
2188.00, 
2189.00, 
2190.00, 
2191.00, 
2192.00, 
2193.00, 
2194.00, 
2195.00, 
2196.00, 
2197.00, 
2198.00, 
2199.00, 
2200.00, 
2201.00, 
2202.00, 
2203.00, 
2204.00, 
2205.00, 
2206.00, 
2207.00, 
2208.00, 
2209.00, 
2210.00, 
2211.00, 
2212.00, 
2213.00, 
2214.00, 
2215.00, 
2216.00, 
2217.00, 
2218.00, 
2219.00, 
2220.00, 
2221.00, 
2222.00, 
2223.00, 
2224.00, 
2225.00, 
2226.00, 
2227.00, 
2228.00, 
2229.00, 
2230.00, 
2231.00, 
2232.00, 
2233.00, 
2234.00, 
2235.00, 
2236.00, 
2237.00, 
2238.00, 
2239.00, 
2240.00, 
2241.00, 
2242.00, 
2243.00, 
2244.00, 
2245.00, 
2246.00, 
2247.00, 
2248.00, 
2249.00, 
2250.00, 
2251.00, 
2252.00, 
2253.00, 
2254.00, 
2255.00, 
2256.00, 
2257.00, 
2258.00, 
2259.00, 
2260.00, 
2261.00, 
2262.00, 
2263.00, 
2264.00, 
2265.00, 
2266.00, 
2267.00, 
2268.00, 
2269.00, 
2270.00, 
2271.00, 
2272.00, 
2273.00, 
2274.00, 
2275.00, 
2276.00, 
2277.00, 
2278.00, 
2279.00, 
2280.00, 
2281.00, 
2282.00, 
2283.00, 
2284.00, 
2285.00, 
2286.00, 
2287.00, 
2288.00, 
2289.00, 
2290.00, 
2291.00, 
2292.00, 
2293.00, 
2294.00, 
2295.00, 
2296.00, 
2297.00, 
2298.00, 
2299.00, 
2300.00, 
2301.00, 
2302.00, 
2303.00, 
2304.00, 
2305.00, 
2306.00, 
2307.00, 
2308.00, 
2309.00, 
2310.00, 
2311.00, 
2312.00, 
2313.00, 
2314.00, 
2315.00, 
2316.00, 
2317.00, 
2318.00, 
2319.00, 
2320.00, 
2321.00, 
2322.00, 
2323.00, 
2324.00, 
2325.00, 
2326.00, 
2327.00, 
2328.00, 
2329.00, 
2330.00, 
2331.00, 
2332.00, 
2333.00, 
2334.00, 
2335.00, 
2336.00, 
2337.00, 
2338.00, 
2339.00, 
2340.00, 
2341.00, 
2342.00, 
2343.00, 
2344.00, 
2345.00, 
2346.00, 
2347.00, 
2348.00, 
2349.00, 
2350.00, 
2351.00, 
2352.00, 
2353.00, 
2354.00, 
2355.00, 
2356.00, 
2357.00, 
2358.00, 
2359.00, 
2360.00, 
2361.00, 
2362.00, 
2363.00, 
2364.00, 
2365.00, 
2366.00, 
2367.00, 
2368.00, 
2369.00, 
2370.00, 
2371.00, 
2372.00, 
2373.00, 
2374.00, 
2375.00, 
2376.00, 
2377.00, 
2378.00, 
2379.00, 
2380.00, 
2381.00, 
2382.00, 
2383.00, 
2384.00, 
2385.00, 
2386.00, 
2387.00, 
2388.00, 
2389.00, 
2390.00, 
2391.00, 
2392.00, 
2393.00, 
2394.00, 
2395.00, 
2396.00, 
2397.00, 
2398.00, 
2399.00, 
2400.00, 
2401.00, 
2402.00, 
2403.00, 
2404.00, 
2405.00, 
2406.00, 
2407.00, 
2408.00, 
2409.00, 
2410.00, 
2411.00, 
2412.00, 
2413.00, 
2414.00, 
2415.00, 
2416.00, 
2417.00, 
2418.00, 
2419.00, 
2420.00, 
2421.00, 
2422.00, 
2423.00, 
2424.00, 
2425.00, 
2426.00, 
2427.00, 
2428.00, 
2429.00, 
2430.00, 
2431.00, 
2432.00, 
2433.00, 
2434.00, 
2435.00, 
2436.00, 
2437.00, 
2438.00, 
2439.00, 
2440.00, 
2441.00, 
2442.00, 
2443.00, 
2444.00, 
2445.00, 
2446.00, 
2447.00, 
2448.00, 
2449.00, 
2450.00, 
2451.00, 
2452.00, 
2453.00, 
2454.00, 
2455.00, 
2456.00, 
2457.00, 
2458.00, 
2459.00, 
2460.00, 
2461.00, 
2462.00, 
2463.00, 
2464.00, 
2465.00, 
2466.00, 
2467.00, 
2468.00, 
2469.00, 
2470.00, 
2471.00, 
2472.00, 
2473.00, 
2474.00, 
2475.00, 
2476.00, 
2477.00, 
2478.00, 
2479.00, 
2480.00, 
2481.00, 
2482.00, 
2483.00, 
2484.00, 
2485.00, 
2486.00, 
2487.00, 
2488.00, 
2489.00, 
2490.00, 
2491.00, 
2492.00, 
2493.00, 
2494.00, 
2495.00, 
2496.00, 
2497.00, 
2498.00, 
2499.00, 
2500.00, 
2501.00, 
2502.00, 
2503.00, 
2504.00, 
2505.00, 
2506.00, 
2507.00, 
2508.00, 
2509.00, 
2510.00, 
2511.00, 
2512.00, 
2513.00, 
2514.00, 
2515.00, 
2516.00, 
2517.00, 
2518.00, 
2519.00, 
2520.00, 
2521.00, 
2522.00, 
2523.00, 
2524.00, 
2525.00, 
2526.00, 
2527.00, 
2528.00, 
2529.00, 
2530.00, 
2531.00, 
2532.00, 
2533.00, 
2534.00, 
2535.00, 
2536.00, 
2537.00, 
2538.00, 
2539.00, 
2540.00, 
2541.00, 
2542.00, 
2543.00, 
2544.00, 
2545.00, 
2546.00, 
2547.00, 
2548.00, 
2549.00, 
2550.00, 
2551.00, 
2552.00, 
2553.00, 
2554.00, 
2555.00, 
2556.00, 
2557.00, 
2558.00, 
2559.00, 
2560.00, 
2561.00, 
2562.00, 
2563.00, 
2564.00, 
2565.00, 
2566.00, 
2567.00, 
2568.00, 
2569.00, 
2570.00, 
2571.00, 
2572.00, 
2573.00, 
2574.00, 
2575.00, 
2576.00, 
2577.00, 
2578.00, 
2579.00, 
2580.00, 
2581.00, 
2582.00, 
2583.00, 
2584.00, 
2585.00, 
2586.00, 
2587.00, 
2588.00, 
2589.00, 
2590.00, 
2591.00, 
2592.00, 
2593.00, 
2594.00, 
2595.00, 
2596.00, 
2597.00, 
2598.00, 
2599.00, 
2600.00, 
