"2bP2 - RawData"
"Wavelength nm.","T%"
200.00,0.001
201.00,0.001
202.00,0.003
203.00,0.003
204.00,0.000
205.00,0.001
206.00,0.001
207.00,0.002
208.00,-0.000
209.00,0.000
210.00,0.002
211.00,0.001
212.00,0.002
213.00,0.000
214.00,-0.001
215.00,0.003
216.00,0.003
217.00,0.000
218.00,0.001
219.00,0.003
220.00,0.002
221.00,0.001
222.00,0.003
223.00,-0.001
224.00,-0.001
225.00,-0.000
226.00,0.001
227.00,0.001
228.00,-0.001
229.00,0.001
230.00,0.001
231.00,0.002
232.00,-0.001
233.00,0.001
234.00,0.000
235.00,0.003
236.00,0.000
237.00,0.000
238.00,-0.001
239.00,0.000
240.00,0.001
241.00,-0.002
242.00,0.002
243.00,0.001
244.00,0.001
245.00,0.001
246.00,0.001
247.00,-0.000
248.00,-0.001
249.00,0.001
250.00,0.000
251.00,-0.001
252.00,0.000
253.00,0.001
254.00,-0.001
255.00,0.000
256.00,0.000
257.00,0.002
258.00,0.001
259.00,-0.001
260.00,0.001
261.00,0.001
262.00,0.001
263.00,-0.001
264.00,-0.000
265.00,0.001
266.00,-0.001
267.00,-0.002
268.00,0.001
269.00,-0.001
270.00,-0.000
271.00,0.002
272.00,0.001
273.00,0.000
274.00,0.001
275.00,0.002
276.00,-0.000
277.00,-0.001
278.00,-0.000
279.00,0.001
280.00,0.000
281.00,0.002
282.00,0.000
283.00,0.001
284.00,0.000
285.00,0.000
286.00,-0.002
287.00,-0.001
288.00,0.003
289.00,0.001
290.00,0.001
291.00,0.001
292.00,0.001
293.00,0.001
294.00,0.000
295.00,0.000
296.00,-0.000
297.00,0.001
298.00,0.002
299.00,0.002
300.00,0.004
301.00,0.005
302.00,0.005
303.00,0.010
304.00,0.016
305.00,0.024
306.00,0.033
307.00,0.051
308.00,0.084
309.00,0.121
310.00,0.171
311.00,0.226
312.00,0.307
313.00,0.419
314.00,0.546
315.00,0.702
316.00,0.896
317.00,1.124
318.00,1.376
319.00,1.660
320.00,2.011
321.00,2.416
322.00,2.848
323.00,3.339
324.00,3.867
325.00,4.362
326.00,4.896
327.00,5.521
328.00,6.145
329.00,6.738
330.00,7.419
331.00,8.075
332.00,8.773
333.00,9.475
334.00,10.129
335.00,10.833
336.00,11.522
337.00,12.217
338.00,12.848
339.00,13.467
340.00,14.079
341.00,14.740
342.00,15.306
343.00,15.846
344.00,16.397
345.00,16.930
346.00,17.386
347.00,17.847
348.00,18.271
349.00,18.646
350.00,18.999
351.00,19.366
352.00,19.684
353.00,19.985
354.00,20.280
355.00,20.546
356.00,20.792
357.00,21.053
358.00,21.216
359.00,21.472
360.00,21.669
361.00,21.823
362.00,22.024
363.00,22.106
364.00,22.237
365.00,22.329
366.00,22.435
367.00,22.525
368.00,22.584
369.00,22.585
370.00,22.659
371.00,22.689
372.00,22.670
373.00,22.669
374.00,22.669
375.00,22.644
376.00,22.611
377.00,22.616
378.00,22.498
379.00,22.442
380.00,22.424
381.00,22.387
382.00,22.391
383.00,22.407
384.00,22.369
385.00,22.442
386.00,22.381
387.00,22.488
388.00,22.565
389.00,22.552
390.00,22.556
391.00,22.600
392.00,22.599
393.00,22.592
394.00,22.631
395.00,22.650
396.00,22.635
397.00,22.654
398.00,22.612
399.00,22.632
400.00,22.611
401.00,22.620
402.00,22.606
403.00,22.598
404.00,22.577
405.00,22.569
406.00,22.581
407.00,22.552
408.00,22.542
409.00,22.494
410.00,22.435
411.00,22.425
412.00,22.392
413.00,22.449
414.00,22.416
415.00,22.414
416.00,22.484
417.00,22.500
418.00,22.486
419.00,22.530
420.00,22.602
421.00,22.624
422.00,22.631
423.00,22.663
424.00,22.702
425.00,22.731
426.00,22.800
427.00,22.809
428.00,22.849
429.00,22.894
430.00,22.894
431.00,23.022
432.00,23.042
433.00,23.103
434.00,23.154
435.00,23.235
436.00,23.283
437.00,23.346
438.00,23.402
439.00,23.503
440.00,23.583
441.00,23.627
442.00,23.715
443.00,23.787
444.00,23.877
445.00,23.999
446.00,24.078
447.00,24.203
448.00,24.279
449.00,24.387
450.00,24.488
451.00,24.549
452.00,24.675
453.00,24.796
454.00,24.896
455.00,24.982
456.00,25.121
457.00,25.225
458.00,25.339
459.00,25.481
460.00,25.589
461.00,25.753
462.00,25.840
463.00,25.966
464.00,26.119
465.00,26.212
466.00,26.384
467.00,26.479
468.00,26.595
469.00,26.703
470.00,26.814
471.00,26.902
472.00,27.062
473.00,27.119
474.00,27.233
475.00,27.376
476.00,27.474
477.00,27.604
478.00,27.730
479.00,27.916
480.00,28.054
481.00,28.160
482.00,28.322
483.00,28.476
484.00,28.620
485.00,28.752
486.00,28.924
487.00,29.071
488.00,29.208
489.00,29.367
490.00,29.519
491.00,29.684
492.00,29.791
493.00,29.996
494.00,30.177
495.00,30.200
496.00,30.279
497.00,30.406
498.00,30.574
499.00,30.687
500.00,30.783
501.00,30.907
502.00,30.992
503.00,31.217
504.00,31.296
505.00,31.410
506.00,31.510
507.00,31.648
508.00,31.740
509.00,31.949
510.00,32.054
511.00,32.091
512.00,32.335
513.00,32.481
514.00,32.499
515.00,32.659
516.00,32.782
517.00,32.766
518.00,33.053
519.00,33.083
520.00,33.114
521.00,33.279
522.00,33.351
523.00,33.361
524.00,33.497
525.00,33.606
526.00,33.713
527.00,33.805
528.00,33.852
529.00,33.994
530.00,34.196
531.00,34.266
532.00,34.295
533.00,34.436
534.00,34.549
535.00,34.656
536.00,34.677
537.00,34.776
538.00,34.814
539.00,34.879
540.00,34.970
541.00,35.001
542.00,35.078
543.00,35.102
544.00,35.203
545.00,35.316
546.00,35.366
547.00,35.444
548.00,35.527
549.00,35.605
550.00,35.675
551.00,35.818
552.00,35.827
553.00,35.906
554.00,35.960
555.00,35.963
556.00,36.098
557.00,36.175
558.00,36.181
559.00,36.240
560.00,36.282
561.00,36.360
562.00,36.403
563.00,36.448
564.00,36.525
565.00,36.534
566.00,36.545
567.00,36.595
568.00,36.673
569.00,36.678
570.00,36.716
571.00,36.807
572.00,36.825
573.00,36.746
574.00,36.815
575.00,36.912
576.00,36.839
577.00,36.952
578.00,37.104
579.00,37.114
580.00,37.165
581.00,37.341
582.00,37.405
583.00,37.362
584.00,37.500
585.00,37.532
586.00,37.564
587.00,37.653
588.00,37.653
589.00,37.645
590.00,37.712
591.00,37.807
592.00,37.781
593.00,37.786
594.00,37.935
595.00,37.979
596.00,38.038
597.00,38.075
598.00,38.189
599.00,38.150
600.00,38.255
601.00,38.315
602.00,38.244
603.00,38.280
604.00,38.342
605.00,38.408
606.00,38.512
607.00,38.490
608.00,38.502
609.00,38.591
610.00,38.786
611.00,38.648
612.00,38.702
613.00,38.799
614.00,38.784
615.00,38.855
616.00,39.016
617.00,39.004
618.00,38.970
619.00,39.044
620.00,39.075
621.00,39.152
622.00,39.228
623.00,39.304
624.00,39.350
625.00,39.451
626.00,39.515
627.00,39.487
628.00,39.546
629.00,39.604
630.00,39.712
631.00,39.659
632.00,39.835
633.00,39.948
634.00,40.039
635.00,40.135
636.00,40.242
637.00,40.234
638.00,40.256
639.00,40.345
640.00,40.423
641.00,40.532
642.00,40.542
643.00,40.634
644.00,40.698
645.00,40.714
646.00,40.926
647.00,40.950
648.00,41.016
649.00,41.048
650.00,41.083
651.00,41.261
652.00,41.318
653.00,41.337
654.00,41.440
655.00,41.633
656.00,41.897
657.00,41.763
658.00,41.844
659.00,42.018
660.00,42.018
661.00,42.056
662.00,42.157
663.00,42.224
664.00,42.493
665.00,42.638
666.00,42.578
667.00,42.710
668.00,42.645
669.00,42.743
670.00,43.157
671.00,43.002
672.00,43.096
673.00,43.284
674.00,43.315
675.00,43.360
676.00,43.520
677.00,43.771
678.00,43.563
679.00,43.652
680.00,43.864
681.00,44.065
682.00,44.075
683.00,44.099
684.00,44.223
685.00,44.352
686.00,44.328
687.00,44.474
688.00,44.517
689.00,44.482
690.00,44.765
691.00,45.038
692.00,44.842
693.00,44.864
694.00,45.030
695.00,45.240
696.00,45.253
697.00,45.318
698.00,45.328
699.00,45.559
700.00,45.697
701.00,45.677
702.00,45.703
703.00,45.932
704.00,45.970
705.00,45.970
706.00,46.101
707.00,46.097
708.00,46.032
709.00,46.440
710.00,46.796
711.00,46.307
712.00,46.434
713.00,46.556
714.00,46.694
715.00,46.665
716.00,46.740
717.00,46.902
718.00,47.059
719.00,47.054
720.00,47.141
721.00,51.393
722.00,51.474
723.00,51.476
724.00,51.515
725.00,51.509
726.00,51.554
727.00,51.534
728.00,51.563
729.00,51.590
730.00,51.605
731.00,51.691
732.00,51.757
733.00,51.742
734.00,51.817
735.00,51.832
736.00,51.852
737.00,51.897
738.00,51.989
739.00,52.007
740.00,51.987
741.00,52.005
742.00,52.074
743.00,52.032
744.00,52.053
745.00,52.085
746.00,52.096
747.00,52.116
748.00,52.069
749.00,52.070
750.00,52.049
751.00,52.079
752.00,52.169
753.00,52.257
754.00,52.220
755.00,52.096
756.00,52.190
757.00,52.176
758.00,52.285
759.00,52.176
760.00,52.160
761.00,52.199
762.00,52.167
763.00,52.269
764.00,52.225
765.00,52.270
766.00,52.301
767.00,52.335
768.00,52.347
769.00,52.297
770.00,52.335
771.00,52.410
772.00,52.432
773.00,52.373
774.00,52.394
775.00,52.429
776.00,52.430
777.00,52.413
778.00,52.452
779.00,52.461
780.00,52.392
781.00,52.423
782.00,52.486
783.00,52.420
784.00,52.414
785.00,52.451
786.00,52.511
787.00,52.445
788.00,52.433
789.00,52.408
790.00,52.420
791.00,52.415
792.00,52.407
793.00,52.514
794.00,52.369
795.00,52.501
796.00,52.374
797.00,52.307
798.00,52.375
799.00,52.393
800.00,52.386
801.00,52.352
802.00,52.374
803.00,52.318
804.00,52.335
805.00,52.335
806.00,52.354
807.00,52.328
808.00,52.194
809.00,52.228
810.00,52.217
811.00,52.239
812.00,52.295
813.00,52.155
814.00,52.207
815.00,52.161
816.00,52.169
817.00,52.152
818.00,52.140
819.00,52.092
820.00,52.094
821.00,52.057
822.00,52.088
823.00,52.075
824.00,52.124
825.00,52.048
826.00,52.077
827.00,52.122
828.00,52.030
829.00,52.019
830.00,52.123
831.00,54.555
832.00,54.557
833.00,54.514
834.00,54.528
835.00,54.492
836.00,54.499
837.00,54.465
838.00,54.462
839.00,54.426
840.00,54.400
841.00,54.414
842.00,54.345
843.00,54.359
844.00,54.349
845.00,54.291
846.00,54.322
847.00,54.293
848.00,54.277
849.00,54.201
850.00,54.223
851.00,54.119
852.00,54.156
853.00,54.083
854.00,54.057
855.00,54.016
856.00,54.038
857.00,54.004
858.00,53.986
859.00,53.971
860.00,53.993
861.00,54.008
862.00,53.911
863.00,53.968
864.00,54.029
865.00,53.910
866.00,53.869
867.00,53.855
868.00,53.892
869.00,53.895
870.00,53.856
871.00,53.835
872.00,53.847
873.00,53.814
874.00,53.854
875.00,53.802
876.00,53.789
877.00,53.758
878.00,53.778
879.00,53.710
880.00,53.719
881.00,53.676
882.00,53.732
883.00,53.647
884.00,53.661
885.00,53.636
886.00,53.647
887.00,53.595
888.00,53.570
889.00,53.580
890.00,53.571
891.00,53.542
892.00,53.503
893.00,53.457
894.00,53.501
895.00,53.436
896.00,53.426
897.00,53.411
898.00,53.408
899.00,53.306
900.00,53.389
901.00,53.370
902.00,53.385
903.00,53.342
904.00,53.336
905.00,53.330
906.00,53.289
907.00,53.270
908.00,53.243
909.00,53.225
910.00,53.186
911.00,53.193
912.00,53.211
913.00,53.137
914.00,53.146
915.00,53.123
916.00,53.098
917.00,53.053
918.00,53.091
919.00,53.048
920.00,52.995
921.00,52.987
922.00,52.965
923.00,52.949
924.00,52.904
925.00,52.926
926.00,52.887
927.00,52.917
928.00,52.886
929.00,52.884
930.00,52.856
931.00,52.869
932.00,52.782
933.00,52.811
934.00,52.965
935.00,52.750
936.00,52.718
937.00,52.705
938.00,52.679
939.00,52.692
940.00,52.643
941.00,52.641
942.00,52.612
943.00,52.608
944.00,52.562
945.00,52.586
946.00,52.564
947.00,52.529
948.00,52.501
949.00,52.515
950.00,52.476
951.00,52.434
952.00,52.433
953.00,52.403
954.00,52.379
955.00,52.342
956.00,52.361
957.00,52.302
958.00,52.305
959.00,52.278
960.00,52.252
961.00,52.215
962.00,52.271
963.00,52.212
964.00,52.207
965.00,52.192
966.00,52.180
967.00,52.179
968.00,52.155
969.00,52.181
970.00,52.156
971.00,52.184
972.00,52.145
973.00,52.159
974.00,52.213
975.00,52.161
976.00,52.163
977.00,52.127
978.00,52.205
979.00,52.153
980.00,52.162
981.00,52.178
982.00,52.129
983.00,52.143
984.00,52.105
985.00,52.161
986.00,52.106
987.00,52.125
988.00,52.104
989.00,52.104
990.00,52.099
991.00,52.067
992.00,52.087
993.00,52.045
994.00,52.025
995.00,52.096
996.00,52.010
997.00,52.003
998.00,51.962
999.00,52.010
1000.00,51.966
1001.00,51.949
1002.00,51.937
1003.00,51.940
1004.00,51.930
1005.00,51.886
1006.00,51.919
1007.00,51.895
1008.00,51.857
1009.00,51.832
1010.00,51.861
1011.00,51.847
1012.00,51.803
1013.00,51.817
1014.00,51.777
1015.00,51.795
1016.00,51.758
1017.00,51.764
1018.00,51.753
1019.00,51.702
1020.00,51.702
1021.00,51.682
1022.00,51.697
1023.00,51.636
1024.00,51.648
1025.00,51.631
1026.00,51.616
1027.00,51.588
1028.00,51.585
1029.00,51.589
1030.00,51.538
1031.00,51.544
1032.00,51.508
1033.00,51.508
1034.00,51.493
1035.00,51.441
1036.00,51.445
1037.00,51.416
1038.00,51.411
1039.00,51.378
1040.00,51.381
1041.00,51.343
1042.00,51.331
1043.00,51.318
1044.00,51.338
1045.00,51.308
1046.00,51.308
1047.00,51.323
1048.00,51.334
1049.00,51.349
1050.00,51.336
1051.00,51.394
1052.00,51.388
1053.00,51.375
1054.00,51.367
1055.00,51.409
1056.00,51.446
1057.00,51.396
1058.00,51.385
1059.00,51.377
1060.00,51.400
1061.00,51.382
1062.00,51.382
1063.00,51.369
1064.00,51.352
1065.00,51.350
1066.00,51.323
1067.00,51.340
1068.00,51.363
1069.00,51.337
1070.00,51.339
1071.00,51.344
1072.00,51.305
1073.00,51.276
1074.00,51.276
1075.00,51.254
1076.00,51.253
1077.00,51.231
1078.00,51.211
1079.00,51.216
1080.00,51.213
1081.00,51.196
1082.00,51.192
1083.00,51.173
1084.00,51.161
1085.00,51.161
1086.00,51.162
1087.00,51.140
1088.00,51.131
1089.00,51.122
1090.00,51.119
1091.00,51.114
1092.00,51.097
1093.00,51.091
1094.00,51.064
1095.00,51.076
1096.00,51.045
1097.00,51.041
1098.00,51.046
1099.00,51.031
1100.00,51.004
1101.00,50.997
1102.00,51.000
1103.00,51.002
1104.00,50.990
1105.00,50.979
1106.00,50.967
1107.00,50.954
1108.00,50.946
1109.00,50.936
1110.00,50.935
1111.00,50.924
1112.00,50.908
1113.00,50.895
1114.00,50.891
1115.00,50.900
1116.00,50.874
1117.00,50.869
1118.00,50.856
1119.00,50.841
1120.00,50.831
1121.00,50.833
1122.00,50.816
1123.00,50.831
1124.00,50.818
1125.00,50.823
1126.00,50.808
1127.00,50.802
1128.00,50.799
1129.00,50.791
1130.00,50.771
1131.00,50.771
1132.00,50.765
1133.00,50.764
1134.00,50.753
1135.00,50.745
1136.00,50.735
1137.00,50.755
1138.00,50.743
1139.00,50.748
1140.00,50.740
1141.00,50.713
1142.00,50.707
1143.00,50.727
1144.00,50.700
1145.00,50.686
1146.00,50.689
1147.00,50.696
1148.00,50.685
1149.00,50.684
1150.00,50.683
1151.00,50.682
1152.00,50.662
1153.00,50.668
1154.00,50.651
1155.00,50.651
1156.00,50.637
1157.00,50.651
1158.00,50.647
1159.00,50.628
1160.00,50.620
1161.00,50.642
1162.00,50.640
1163.00,50.641
1164.00,50.623
1165.00,50.620
1166.00,50.617
1167.00,50.599
1168.00,50.612
1169.00,50.610
1170.00,50.610
1171.00,50.590
1172.00,50.598
1173.00,50.590
1174.00,50.585
1175.00,50.588
1176.00,50.591
1177.00,50.585
1178.00,50.589
1179.00,50.616
1180.00,50.608
1181.00,50.630
1182.00,50.606
1183.00,50.594
1184.00,50.584
1185.00,50.592
1186.00,50.580
1187.00,50.568
1188.00,50.563
1189.00,50.564
1190.00,50.562
1191.00,50.553
1192.00,50.563
1193.00,50.547
1194.00,50.568
1195.00,50.545
1196.00,50.565
1197.00,50.581
1198.00,50.558
1199.00,50.544
1200.00,50.559
1201.00,50.572
1202.00,50.552
1203.00,50.546
1204.00,50.528
1205.00,50.566
1206.00,50.550
1207.00,50.536
1208.00,50.540
1209.00,50.533
1210.00,50.532
1211.00,50.525
1212.00,50.557
1213.00,50.523
1214.00,50.538
1215.00,50.511
1216.00,50.533
1217.00,50.529
1218.00,50.509
1219.00,50.553
1220.00,50.538
1221.00,50.543
1222.00,50.530
1223.00,50.575
1224.00,50.579
1225.00,50.538
1226.00,50.535
1227.00,50.538
1228.00,50.540
1229.00,50.539
1230.00,50.578
1231.00,50.567
1232.00,50.572
1233.00,50.571
1234.00,50.576
1235.00,50.569
1236.00,50.563
1237.00,50.562
1238.00,50.580
1239.00,50.572
1240.00,50.546
1241.00,50.565
1242.00,50.563
1243.00,50.588
1244.00,50.556
1245.00,50.595
1246.00,50.608
1247.00,50.593
1248.00,50.579
1249.00,50.585
1250.00,50.589
1251.00,50.573
1252.00,50.599
1253.00,50.577
1254.00,50.618
1255.00,50.611
1256.00,50.580
1257.00,50.578
1258.00,50.635
1259.00,50.622
1260.00,50.637
1261.00,50.635
1262.00,50.613
1263.00,50.619
1264.00,50.644
1265.00,50.630
1266.00,50.629
1267.00,50.622
1268.00,50.637
1269.00,50.645
1270.00,50.642
1271.00,50.664
1272.00,50.665
1273.00,50.661
1274.00,50.662
1275.00,50.667
1276.00,50.666
1277.00,50.657
1278.00,50.680
1279.00,50.673
1280.00,50.669
1281.00,50.702
1282.00,50.725
1283.00,50.721
1284.00,50.713
1285.00,50.716
1286.00,50.723
1287.00,50.713
1288.00,50.714
1289.00,50.709
1290.00,50.737
1291.00,50.719
1292.00,50.720
1293.00,50.725
1294.00,50.739
1295.00,50.753
1296.00,50.749
1297.00,50.752
1298.00,50.771
1299.00,50.758
1300.00,50.769
1301.00,50.771
1302.00,50.793
1303.00,50.793
1304.00,50.778
1305.00,50.804
1306.00,50.816
1307.00,50.822
1308.00,50.814
1309.00,50.818
1310.00,50.816
1311.00,50.806
1312.00,50.817
1313.00,50.831
1314.00,50.837
1315.00,50.838
1316.00,50.825
1317.00,50.849
1318.00,50.858
1319.00,50.846
1320.00,50.870
1321.00,51.038
1322.00,51.039
1323.00,51.013
1324.00,50.994
1325.00,50.987
1326.00,51.017
1327.00,51.007
1328.00,51.014
1329.00,51.004
1330.00,51.007
1331.00,50.999
1332.00,50.990
1333.00,51.026
1334.00,51.027
1335.00,51.052
1336.00,51.077
1337.00,51.108
1338.00,51.164
1339.00,51.218
1340.00,51.282
1341.00,51.344
1342.00,51.395
1343.00,51.446
1344.00,51.488
1345.00,51.545
1346.00,51.577
1347.00,51.605
1348.00,51.628
1349.00,51.650
1350.00,51.663
1351.00,51.679
1352.00,51.678
1353.00,51.674
1354.00,51.688
1355.00,51.619
1356.00,51.688
1357.00,51.722
1358.00,51.681
1359.00,51.857
1360.00,52.117
1361.00,51.686
1362.00,51.612
1363.00,51.872
1364.00,51.838
1365.00,51.734
1366.00,51.775
1367.00,51.761
1368.00,51.668
1369.00,51.785
1370.00,51.751
1371.00,51.634
1372.00,51.685
1373.00,51.759
1374.00,51.705
1375.00,51.697
1376.00,51.721
1377.00,51.689
1378.00,51.692
1379.00,51.716
1380.00,51.697
1381.00,51.717
1382.00,51.700
1383.00,51.730
1384.00,51.662
1385.00,51.641
1386.00,51.706
1387.00,51.711
1388.00,51.666
1389.00,51.641
1390.00,51.738
1391.00,51.722
1392.00,51.707
1393.00,51.628
1394.00,51.733
1395.00,51.652
1396.00,51.628
1397.00,51.608
1398.00,51.745
1399.00,51.710
1400.00,51.611
1401.00,51.639
1402.00,51.747
1403.00,51.678
1404.00,51.680
1405.00,51.715
1406.00,51.723
1407.00,51.750
1408.00,51.798
1409.00,51.704
1410.00,51.757
1411.00,51.711
1412.00,51.767
1413.00,51.687
1414.00,51.753
1415.00,51.758
1416.00,51.787
1417.00,51.817
1418.00,51.776
1419.00,51.782
1420.00,51.814
1421.00,51.928
1422.00,51.848
1423.00,51.854
1424.00,51.861
1425.00,51.874
1426.00,51.866
1427.00,51.882
1428.00,51.889
1429.00,51.880
1430.00,51.892
1431.00,51.928
1432.00,51.945
1433.00,51.947
1434.00,51.945
1435.00,52.009
1436.00,52.033
1437.00,52.010
1438.00,52.027
1439.00,52.069
1440.00,52.079
1441.00,52.060
1442.00,52.074
1443.00,52.145
1444.00,52.174
1445.00,52.129
1446.00,52.171
1447.00,52.194
1448.00,52.228
1449.00,52.212
1450.00,52.222
1451.00,52.243
1452.00,52.256
1453.00,52.278
1454.00,52.276
1455.00,52.282
1456.00,52.308
1457.00,52.302
1458.00,52.330
1459.00,52.346
1460.00,52.352
1461.00,52.355
1462.00,52.383
1463.00,52.378
1464.00,52.403
1465.00,52.430
1466.00,52.430
1467.00,52.443
1468.00,52.508
1469.00,52.492
1470.00,52.494
1471.00,52.519
1472.00,52.543
1473.00,52.540
1474.00,52.544
1475.00,52.556
1476.00,52.576
1477.00,52.548
1478.00,52.556
1479.00,52.607
1480.00,52.605
1481.00,52.603
1482.00,52.645
1483.00,52.657
1484.00,52.666
1485.00,52.676
1486.00,52.686
1487.00,52.699
1488.00,52.701
1489.00,52.696
1490.00,52.725
1491.00,52.725
1492.00,52.743
1493.00,52.733
1494.00,52.746
1495.00,52.762
1496.00,52.762
1497.00,52.775
1498.00,52.774
1499.00,52.786
1500.00,52.823
1501.00, 
1502.00, 
1503.00, 
1504.00, 
1505.00, 
1506.00, 
1507.00, 
1508.00, 
1509.00, 
1510.00, 
1511.00, 
1512.00, 
1513.00, 
1514.00, 
1515.00, 
1516.00, 
1517.00, 
1518.00, 
1519.00, 
1520.00, 
1521.00, 
1522.00, 
1523.00, 
1524.00, 
1525.00, 
1526.00, 
1527.00, 
1528.00, 
1529.00, 
1530.00, 
1531.00, 
1532.00, 
1533.00, 
1534.00, 
1535.00, 
1536.00, 
1537.00, 
1538.00, 
1539.00, 
1540.00, 
1541.00, 
1542.00, 
1543.00, 
1544.00, 
1545.00, 
1546.00, 
1547.00, 
1548.00, 
1549.00, 
1550.00, 
1551.00, 
1552.00, 
1553.00, 
1554.00, 
1555.00, 
1556.00, 
1557.00, 
1558.00, 
1559.00, 
1560.00, 
1561.00, 
1562.00, 
1563.00, 
1564.00, 
1565.00, 
1566.00, 
1567.00, 
1568.00, 
1569.00, 
1570.00, 
1571.00, 
1572.00, 
1573.00, 
1574.00, 
1575.00, 
1576.00, 
1577.00, 
1578.00, 
1579.00, 
1580.00, 
1581.00, 
1582.00, 
1583.00, 
1584.00, 
1585.00, 
1586.00, 
1587.00, 
1588.00, 
1589.00, 
1590.00, 
1591.00, 
1592.00, 
1593.00, 
1594.00, 
1595.00, 
1596.00, 
1597.00, 
1598.00, 
1599.00, 
1600.00, 
1601.00, 
1602.00, 
1603.00, 
1604.00, 
1605.00, 
1606.00, 
1607.00, 
1608.00, 
1609.00, 
1610.00, 
1611.00, 
1612.00, 
1613.00, 
1614.00, 
1615.00, 
1616.00, 
1617.00, 
1618.00, 
1619.00, 
1620.00, 
1621.00, 
1622.00, 
1623.00, 
1624.00, 
1625.00, 
1626.00, 
1627.00, 
1628.00, 
1629.00, 
1630.00, 
1631.00, 
1632.00, 
1633.00, 
1634.00, 
1635.00, 
1636.00, 
1637.00, 
1638.00, 
1639.00, 
1640.00, 
1641.00, 
1642.00, 
1643.00, 
1644.00, 
1645.00, 
1646.00, 
1647.00, 
1648.00, 
1649.00, 
1650.00, 
1651.00, 
1652.00, 
1653.00, 
1654.00, 
1655.00, 
1656.00, 
1657.00, 
1658.00, 
1659.00, 
1660.00, 
1661.00, 
1662.00, 
1663.00, 
1664.00, 
1665.00, 
1666.00, 
1667.00, 
1668.00, 
1669.00, 
1670.00, 
1671.00, 
1672.00, 
1673.00, 
1674.00, 
1675.00, 
1676.00, 
1677.00, 
1678.00, 
1679.00, 
1680.00, 
1681.00, 
1682.00, 
1683.00, 
1684.00, 
1685.00, 
1686.00, 
1687.00, 
1688.00, 
1689.00, 
1690.00, 
1691.00, 
1692.00, 
1693.00, 
1694.00, 
1695.00, 
1696.00, 
1697.00, 
1698.00, 
1699.00, 
1700.00, 
1701.00, 
1702.00, 
1703.00, 
1704.00, 
1705.00, 
1706.00, 
1707.00, 
1708.00, 
1709.00, 
1710.00, 
1711.00, 
1712.00, 
1713.00, 
1714.00, 
1715.00, 
1716.00, 
1717.00, 
1718.00, 
1719.00, 
1720.00, 
1721.00, 
1722.00, 
1723.00, 
1724.00, 
1725.00, 
1726.00, 
1727.00, 
1728.00, 
1729.00, 
1730.00, 
1731.00, 
1732.00, 
1733.00, 
1734.00, 
1735.00, 
1736.00, 
1737.00, 
1738.00, 
1739.00, 
1740.00, 
1741.00, 
1742.00, 
1743.00, 
1744.00, 
1745.00, 
1746.00, 
1747.00, 
1748.00, 
1749.00, 
1750.00, 
1751.00, 
1752.00, 
1753.00, 
1754.00, 
1755.00, 
1756.00, 
1757.00, 
1758.00, 
1759.00, 
1760.00, 
1761.00, 
1762.00, 
1763.00, 
1764.00, 
1765.00, 
1766.00, 
1767.00, 
1768.00, 
1769.00, 
1770.00, 
1771.00, 
1772.00, 
1773.00, 
1774.00, 
1775.00, 
1776.00, 
1777.00, 
1778.00, 
1779.00, 
1780.00, 
1781.00, 
1782.00, 
1783.00, 
1784.00, 
1785.00, 
1786.00, 
1787.00, 
1788.00, 
1789.00, 
1790.00, 
1791.00, 
1792.00, 
1793.00, 
1794.00, 
1795.00, 
1796.00, 
1797.00, 
1798.00, 
1799.00, 
1800.00, 
1801.00, 
1802.00, 
1803.00, 
1804.00, 
1805.00, 
1806.00, 
1807.00, 
1808.00, 
1809.00, 
1810.00, 
1811.00, 
1812.00, 
1813.00, 
1814.00, 
1815.00, 
1816.00, 
1817.00, 
1818.00, 
1819.00, 
1820.00, 
1821.00, 
1822.00, 
1823.00, 
1824.00, 
1825.00, 
1826.00, 
1827.00, 
1828.00, 
1829.00, 
1830.00, 
1831.00, 
1832.00, 
1833.00, 
1834.00, 
1835.00, 
1836.00, 
1837.00, 
1838.00, 
1839.00, 
1840.00, 
1841.00, 
1842.00, 
1843.00, 
1844.00, 
1845.00, 
1846.00, 
1847.00, 
1848.00, 
1849.00, 
1850.00, 
1851.00, 
1852.00, 
1853.00, 
1854.00, 
1855.00, 
1856.00, 
1857.00, 
1858.00, 
1859.00, 
1860.00, 
1861.00, 
1862.00, 
1863.00, 
1864.00, 
1865.00, 
1866.00, 
1867.00, 
1868.00, 
1869.00, 
1870.00, 
1871.00, 
1872.00, 
1873.00, 
1874.00, 
1875.00, 
1876.00, 
1877.00, 
1878.00, 
1879.00, 
1880.00, 
1881.00, 
1882.00, 
1883.00, 
1884.00, 
1885.00, 
1886.00, 
1887.00, 
1888.00, 
1889.00, 
1890.00, 
1891.00, 
1892.00, 
1893.00, 
1894.00, 
1895.00, 
1896.00, 
1897.00, 
1898.00, 
1899.00, 
1900.00, 
1901.00, 
1902.00, 
1903.00, 
1904.00, 
1905.00, 
1906.00, 
1907.00, 
1908.00, 
1909.00, 
1910.00, 
1911.00, 
1912.00, 
1913.00, 
1914.00, 
1915.00, 
1916.00, 
1917.00, 
1918.00, 
1919.00, 
1920.00, 
1921.00, 
1922.00, 
1923.00, 
1924.00, 
1925.00, 
1926.00, 
1927.00, 
1928.00, 
1929.00, 
1930.00, 
1931.00, 
1932.00, 
1933.00, 
1934.00, 
1935.00, 
1936.00, 
1937.00, 
1938.00, 
1939.00, 
1940.00, 
1941.00, 
1942.00, 
1943.00, 
1944.00, 
1945.00, 
1946.00, 
1947.00, 
1948.00, 
1949.00, 
1950.00, 
1951.00, 
1952.00, 
1953.00, 
1954.00, 
1955.00, 
1956.00, 
1957.00, 
1958.00, 
1959.00, 
1960.00, 
1961.00, 
1962.00, 
1963.00, 
1964.00, 
1965.00, 
1966.00, 
1967.00, 
1968.00, 
1969.00, 
1970.00, 
1971.00, 
1972.00, 
1973.00, 
1974.00, 
1975.00, 
1976.00, 
1977.00, 
1978.00, 
1979.00, 
1980.00, 
1981.00, 
1982.00, 
1983.00, 
1984.00, 
1985.00, 
1986.00, 
1987.00, 
1988.00, 
1989.00, 
1990.00, 
1991.00, 
1992.00, 
1993.00, 
1994.00, 
1995.00, 
1996.00, 
1997.00, 
1998.00, 
1999.00, 
2000.00, 
2001.00, 
2002.00, 
2003.00, 
2004.00, 
2005.00, 
2006.00, 
2007.00, 
2008.00, 
2009.00, 
2010.00, 
2011.00, 
2012.00, 
2013.00, 
2014.00, 
2015.00, 
2016.00, 
2017.00, 
2018.00, 
2019.00, 
2020.00, 
2021.00, 
2022.00, 
2023.00, 
2024.00, 
2025.00, 
2026.00, 
2027.00, 
2028.00, 
2029.00, 
2030.00, 
2031.00, 
2032.00, 
2033.00, 
2034.00, 
2035.00, 
2036.00, 
2037.00, 
2038.00, 
2039.00, 
2040.00, 
2041.00, 
2042.00, 
2043.00, 
2044.00, 
2045.00, 
2046.00, 
2047.00, 
2048.00, 
2049.00, 
2050.00, 
2051.00, 
2052.00, 
2053.00, 
2054.00, 
2055.00, 
2056.00, 
2057.00, 
2058.00, 
2059.00, 
2060.00, 
2061.00, 
2062.00, 
2063.00, 
2064.00, 
2065.00, 
2066.00, 
2067.00, 
2068.00, 
2069.00, 
2070.00, 
2071.00, 
2072.00, 
2073.00, 
2074.00, 
2075.00, 
2076.00, 
2077.00, 
2078.00, 
2079.00, 
2080.00, 
2081.00, 
2082.00, 
2083.00, 
2084.00, 
2085.00, 
2086.00, 
2087.00, 
2088.00, 
2089.00, 
2090.00, 
2091.00, 
2092.00, 
2093.00, 
2094.00, 
2095.00, 
2096.00, 
2097.00, 
2098.00, 
2099.00, 
2100.00, 
2101.00, 
2102.00, 
2103.00, 
2104.00, 
2105.00, 
2106.00, 
2107.00, 
2108.00, 
2109.00, 
2110.00, 
2111.00, 
2112.00, 
2113.00, 
2114.00, 
2115.00, 
2116.00, 
2117.00, 
2118.00, 
2119.00, 
2120.00, 
2121.00, 
2122.00, 
2123.00, 
2124.00, 
2125.00, 
2126.00, 
2127.00, 
2128.00, 
2129.00, 
2130.00, 
2131.00, 
2132.00, 
2133.00, 
2134.00, 
2135.00, 
2136.00, 
2137.00, 
2138.00, 
2139.00, 
2140.00, 
2141.00, 
2142.00, 
2143.00, 
2144.00, 
2145.00, 
2146.00, 
2147.00, 
2148.00, 
2149.00, 
2150.00, 
2151.00, 
2152.00, 
2153.00, 
2154.00, 
2155.00, 
2156.00, 
2157.00, 
2158.00, 
2159.00, 
2160.00, 
2161.00, 
2162.00, 
2163.00, 
2164.00, 
2165.00, 
2166.00, 
2167.00, 
2168.00, 
2169.00, 
2170.00, 
2171.00, 
2172.00, 
2173.00, 
2174.00, 
2175.00, 
2176.00, 
2177.00, 
2178.00, 
2179.00, 
2180.00, 
2181.00, 
2182.00, 
2183.00, 
2184.00, 
2185.00, 
2186.00, 
2187.00, 
2188.00, 
2189.00, 
2190.00, 
2191.00, 
2192.00, 
2193.00, 
2194.00, 
2195.00, 
2196.00, 
2197.00, 
2198.00, 
2199.00, 
2200.00, 
2201.00, 
2202.00, 
2203.00, 
2204.00, 
2205.00, 
2206.00, 
2207.00, 
2208.00, 
2209.00, 
2210.00, 
2211.00, 
2212.00, 
2213.00, 
2214.00, 
2215.00, 
2216.00, 
2217.00, 
2218.00, 
2219.00, 
2220.00, 
2221.00, 
2222.00, 
2223.00, 
2224.00, 
2225.00, 
2226.00, 
2227.00, 
2228.00, 
2229.00, 
2230.00, 
2231.00, 
2232.00, 
2233.00, 
2234.00, 
2235.00, 
2236.00, 
2237.00, 
2238.00, 
2239.00, 
2240.00, 
2241.00, 
2242.00, 
2243.00, 
2244.00, 
2245.00, 
2246.00, 
2247.00, 
2248.00, 
2249.00, 
2250.00, 
2251.00, 
2252.00, 
2253.00, 
2254.00, 
2255.00, 
2256.00, 
2257.00, 
2258.00, 
2259.00, 
2260.00, 
2261.00, 
2262.00, 
2263.00, 
2264.00, 
2265.00, 
2266.00, 
2267.00, 
2268.00, 
2269.00, 
2270.00, 
2271.00, 
2272.00, 
2273.00, 
2274.00, 
2275.00, 
2276.00, 
2277.00, 
2278.00, 
2279.00, 
2280.00, 
2281.00, 
2282.00, 
2283.00, 
2284.00, 
2285.00, 
2286.00, 
2287.00, 
2288.00, 
2289.00, 
2290.00, 
2291.00, 
2292.00, 
2293.00, 
2294.00, 
2295.00, 
2296.00, 
2297.00, 
2298.00, 
2299.00, 
2300.00, 
2301.00, 
2302.00, 
2303.00, 
2304.00, 
2305.00, 
2306.00, 
2307.00, 
2308.00, 
2309.00, 
2310.00, 
2311.00, 
2312.00, 
2313.00, 
2314.00, 
2315.00, 
2316.00, 
2317.00, 
2318.00, 
2319.00, 
2320.00, 
2321.00, 
2322.00, 
2323.00, 
2324.00, 
2325.00, 
2326.00, 
2327.00, 
2328.00, 
2329.00, 
2330.00, 
2331.00, 
2332.00, 
2333.00, 
2334.00, 
2335.00, 
2336.00, 
2337.00, 
2338.00, 
2339.00, 
2340.00, 
2341.00, 
2342.00, 
2343.00, 
2344.00, 
2345.00, 
2346.00, 
2347.00, 
2348.00, 
2349.00, 
2350.00, 
2351.00, 
2352.00, 
2353.00, 
2354.00, 
2355.00, 
2356.00, 
2357.00, 
2358.00, 
2359.00, 
2360.00, 
2361.00, 
2362.00, 
2363.00, 
2364.00, 
2365.00, 
2366.00, 
2367.00, 
2368.00, 
2369.00, 
2370.00, 
2371.00, 
2372.00, 
2373.00, 
2374.00, 
2375.00, 
2376.00, 
2377.00, 
2378.00, 
2379.00, 
2380.00, 
2381.00, 
2382.00, 
2383.00, 
2384.00, 
2385.00, 
2386.00, 
2387.00, 
2388.00, 
2389.00, 
2390.00, 
2391.00, 
2392.00, 
2393.00, 
2394.00, 
2395.00, 
2396.00, 
2397.00, 
2398.00, 
2399.00, 
2400.00, 
2401.00, 
2402.00, 
2403.00, 
2404.00, 
2405.00, 
2406.00, 
2407.00, 
2408.00, 
2409.00, 
2410.00, 
2411.00, 
2412.00, 
2413.00, 
2414.00, 
2415.00, 
2416.00, 
2417.00, 
2418.00, 
2419.00, 
2420.00, 
2421.00, 
2422.00, 
2423.00, 
2424.00, 
2425.00, 
2426.00, 
2427.00, 
2428.00, 
2429.00, 
2430.00, 
2431.00, 
2432.00, 
2433.00, 
2434.00, 
2435.00, 
2436.00, 
2437.00, 
2438.00, 
2439.00, 
2440.00, 
2441.00, 
2442.00, 
2443.00, 
2444.00, 
2445.00, 
2446.00, 
2447.00, 
2448.00, 
2449.00, 
2450.00, 
2451.00, 
2452.00, 
2453.00, 
2454.00, 
2455.00, 
2456.00, 
2457.00, 
2458.00, 
2459.00, 
2460.00, 
2461.00, 
2462.00, 
2463.00, 
2464.00, 
2465.00, 
2466.00, 
2467.00, 
2468.00, 
2469.00, 
2470.00, 
2471.00, 
2472.00, 
2473.00, 
2474.00, 
2475.00, 
2476.00, 
2477.00, 
2478.00, 
2479.00, 
2480.00, 
2481.00, 
2482.00, 
2483.00, 
2484.00, 
2485.00, 
2486.00, 
2487.00, 
2488.00, 
2489.00, 
2490.00, 
2491.00, 
2492.00, 
2493.00, 
2494.00, 
2495.00, 
2496.00, 
2497.00, 
2498.00, 
2499.00, 
2500.00, 
2501.00, 
2502.00, 
2503.00, 
2504.00, 
2505.00, 
2506.00, 
2507.00, 
2508.00, 
2509.00, 
2510.00, 
2511.00, 
2512.00, 
2513.00, 
2514.00, 
2515.00, 
2516.00, 
2517.00, 
2518.00, 
2519.00, 
2520.00, 
2521.00, 
2522.00, 
2523.00, 
2524.00, 
2525.00, 
2526.00, 
2527.00, 
2528.00, 
2529.00, 
2530.00, 
2531.00, 
2532.00, 
2533.00, 
2534.00, 
2535.00, 
2536.00, 
2537.00, 
2538.00, 
2539.00, 
2540.00, 
2541.00, 
2542.00, 
2543.00, 
2544.00, 
2545.00, 
2546.00, 
2547.00, 
2548.00, 
2549.00, 
2550.00, 
2551.00, 
2552.00, 
2553.00, 
2554.00, 
2555.00, 
2556.00, 
2557.00, 
2558.00, 
2559.00, 
2560.00, 
2561.00, 
2562.00, 
2563.00, 
2564.00, 
2565.00, 
2566.00, 
2567.00, 
2568.00, 
2569.00, 
2570.00, 
2571.00, 
2572.00, 
2573.00, 
2574.00, 
2575.00, 
2576.00, 
2577.00, 
2578.00, 
2579.00, 
2580.00, 
2581.00, 
2582.00, 
2583.00, 
2584.00, 
2585.00, 
2586.00, 
2587.00, 
2588.00, 
2589.00, 
2590.00, 
2591.00, 
2592.00, 
2593.00, 
2594.00, 
2595.00, 
2596.00, 
2597.00, 
2598.00, 
2599.00, 
2600.00, 
