"2cP1 - RawData"
"Wavelength nm.","T%"
200.00,-0.001
201.00,0.000
202.00,-0.003
203.00,0.002
204.00,0.003
205.00,0.000
206.00,0.001
207.00,0.000
208.00,0.001
209.00,0.003
210.00,0.003
211.00,-0.002
212.00,0.000
213.00,0.003
214.00,-0.000
215.00,0.000
216.00,-0.000
217.00,0.001
218.00,-0.001
219.00,0.001
220.00,0.002
221.00,0.001
222.00,0.003
223.00,-0.001
224.00,-0.000
225.00,-0.002
226.00,-0.002
227.00,-0.001
228.00,0.001
229.00,0.001
230.00,-0.000
231.00,-0.001
232.00,0.002
233.00,0.002
234.00,-0.000
235.00,0.000
236.00,-0.001
237.00,0.000
238.00,0.002
239.00,0.003
240.00,0.000
241.00,0.001
242.00,-0.000
243.00,-0.001
244.00,0.000
245.00,0.001
246.00,-0.000
247.00,0.000
248.00,-0.000
249.00,0.001
250.00,-0.000
251.00,0.002
252.00,0.000
253.00,0.001
254.00,0.001
255.00,0.001
256.00,-0.001
257.00,0.000
258.00,-0.001
259.00,0.000
260.00,-0.001
261.00,-0.000
262.00,0.001
263.00,0.001
264.00,0.000
265.00,0.001
266.00,0.000
267.00,-0.001
268.00,0.001
269.00,0.000
270.00,-0.001
271.00,-0.000
272.00,-0.001
273.00,0.000
274.00,-0.000
275.00,0.000
276.00,0.001
277.00,-0.000
278.00,-0.000
279.00,0.001
280.00,0.000
281.00,0.000
282.00,-0.000
283.00,0.000
284.00,0.000
285.00,0.001
286.00,-0.001
287.00,-0.000
288.00,-0.000
289.00,0.001
290.00,0.000
291.00,-0.000
292.00,0.001
293.00,-0.000
294.00,0.000
295.00,0.002
296.00,-0.001
297.00,-0.001
298.00,0.001
299.00,0.002
300.00,0.002
301.00,0.004
302.00,0.006
303.00,0.010
304.00,0.013
305.00,0.019
306.00,0.032
307.00,0.046
308.00,0.069
309.00,0.108
310.00,0.154
311.00,0.204
312.00,0.279
313.00,0.390
314.00,0.520
315.00,0.666
316.00,0.842
317.00,1.061
318.00,1.326
319.00,1.565
320.00,1.970
321.00,2.377
322.00,2.798
323.00,3.301
324.00,3.847
325.00,4.363
326.00,4.923
327.00,5.535
328.00,6.193
329.00,6.833
330.00,7.570
331.00,8.287
332.00,8.990
333.00,9.709
334.00,10.450
335.00,11.249
336.00,11.972
337.00,12.708
338.00,13.439
339.00,14.115
340.00,14.826
341.00,15.475
342.00,16.126
343.00,16.747
344.00,17.336
345.00,17.889
346.00,18.422
347.00,18.933
348.00,19.430
349.00,19.876
350.00,20.282
351.00,20.689
352.00,21.029
353.00,21.393
354.00,21.766
355.00,22.106
356.00,22.358
357.00,22.642
358.00,22.895
359.00,23.124
360.00,23.375
361.00,23.573
362.00,23.773
363.00,23.962
364.00,24.179
365.00,24.281
366.00,24.406
367.00,24.482
368.00,24.602
369.00,24.666
370.00,24.704
371.00,24.772
372.00,24.805
373.00,24.805
374.00,24.800
375.00,24.777
376.00,24.768
377.00,24.778
378.00,24.757
379.00,24.722
380.00,24.707
381.00,24.676
382.00,24.649
383.00,24.641
384.00,24.743
385.00,24.799
386.00,24.822
387.00,24.906
388.00,24.942
389.00,25.004
390.00,25.033
391.00,25.069
392.00,25.075
393.00,25.112
394.00,25.106
395.00,25.161
396.00,25.175
397.00,25.237
398.00,25.216
399.00,25.227
400.00,25.144
401.00,25.244
402.00,25.226
403.00,25.257
404.00,25.281
405.00,25.233
406.00,25.255
407.00,25.208
408.00,25.209
409.00,25.160
410.00,25.136
411.00,25.106
412.00,25.060
413.00,25.129
414.00,25.112
415.00,25.099
416.00,25.134
417.00,25.159
418.00,25.166
419.00,25.145
420.00,25.192
421.00,25.301
422.00,25.315
423.00,25.330
424.00,25.356
425.00,25.404
426.00,25.437
427.00,25.436
428.00,25.519
429.00,25.542
430.00,25.591
431.00,25.630
432.00,25.660
433.00,25.742
434.00,25.769
435.00,25.857
436.00,25.894
437.00,25.956
438.00,26.058
439.00,26.080
440.00,26.202
441.00,26.236
442.00,26.313
443.00,26.378
444.00,26.450
445.00,26.545
446.00,26.635
447.00,26.741
448.00,26.817
449.00,26.897
450.00,27.011
451.00,27.121
452.00,27.186
453.00,27.309
454.00,27.375
455.00,27.487
456.00,27.597
457.00,27.693
458.00,27.725
459.00,27.925
460.00,28.040
461.00,28.148
462.00,28.277
463.00,28.360
464.00,28.505
465.00,28.636
466.00,28.749
467.00,28.802
468.00,28.935
469.00,29.062
470.00,29.139
471.00,29.237
472.00,29.336
473.00,29.431
474.00,29.535
475.00,29.653
476.00,29.731
477.00,29.844
478.00,29.994
479.00,30.139
480.00,30.278
481.00,30.410
482.00,30.531
483.00,30.702
484.00,30.801
485.00,30.973
486.00,31.068
487.00,31.229
488.00,31.361
489.00,31.520
490.00,31.596
491.00,31.747
492.00,31.884
493.00,32.062
494.00,32.131
495.00,32.217
496.00,32.335
497.00,32.424
498.00,32.569
499.00,32.721
500.00,32.769
501.00,32.928
502.00,33.054
503.00,33.181
504.00,33.255
505.00,33.382
506.00,33.507
507.00,33.627
508.00,33.721
509.00,33.849
510.00,33.957
511.00,34.057
512.00,34.166
513.00,34.260
514.00,34.406
515.00,34.495
516.00,34.626
517.00,34.718
518.00,34.855
519.00,34.867
520.00,34.993
521.00,35.080
522.00,35.153
523.00,35.232
524.00,35.281
525.00,35.419
526.00,35.508
527.00,35.554
528.00,35.682
529.00,35.742
530.00,35.838
531.00,35.990
532.00,36.063
533.00,36.132
534.00,36.266
535.00,36.351
536.00,36.416
537.00,36.492
538.00,36.614
539.00,36.652
540.00,36.707
541.00,36.794
542.00,36.861
543.00,36.907
544.00,37.011
545.00,37.087
546.00,37.121
547.00,37.206
548.00,37.268
549.00,37.309
550.00,37.417
551.00,37.480
552.00,37.538
553.00,37.613
554.00,37.711
555.00,37.734
556.00,37.825
557.00,37.822
558.00,37.788
559.00,37.898
560.00,38.085
561.00,38.095
562.00,38.149
563.00,38.191
564.00,38.267
565.00,38.281
566.00,38.294
567.00,38.349
568.00,38.328
569.00,38.442
570.00,38.460
571.00,38.433
572.00,38.553
573.00,38.571
574.00,38.528
575.00,38.707
576.00,38.739
577.00,38.803
578.00,38.850
579.00,38.903
580.00,38.993
581.00,39.080
582.00,39.153
583.00,39.204
584.00,39.329
585.00,39.321
586.00,39.398
587.00,39.490
588.00,39.473
589.00,39.544
590.00,39.575
591.00,39.646
592.00,39.673
593.00,39.719
594.00,39.800
595.00,39.765
596.00,39.873
597.00,39.899
598.00,39.976
599.00,40.005
600.00,40.149
601.00,40.172
602.00,40.125
603.00,40.179
604.00,40.180
605.00,40.264
606.00,40.367
607.00,40.361
608.00,40.427
609.00,40.426
610.00,40.508
611.00,40.507
612.00,40.575
613.00,40.522
614.00,40.524
615.00,40.577
616.00,40.688
617.00,40.786
618.00,40.863
619.00,40.863
620.00,40.892
621.00,40.921
622.00,41.044
623.00,41.074
624.00,41.066
625.00,41.191
626.00,41.161
627.00,41.292
628.00,41.245
629.00,41.240
630.00,41.433
631.00,41.555
632.00,41.565
633.00,41.644
634.00,41.717
635.00,41.769
636.00,41.847
637.00,41.935
638.00,41.937
639.00,42.007
640.00,42.082
641.00,42.144
642.00,42.174
643.00,42.248
644.00,42.330
645.00,42.354
646.00,42.488
647.00,42.520
648.00,42.565
649.00,42.706
650.00,42.616
651.00,42.749
652.00,42.848
653.00,42.854
654.00,42.976
655.00,43.053
656.00,43.166
657.00,43.278
658.00,43.341
659.00,43.390
660.00,43.343
661.00,43.333
662.00,43.576
663.00,43.607
664.00,43.670
665.00,43.745
666.00,43.646
667.00,43.753
668.00,43.713
669.00,44.277
670.00,44.186
671.00,44.166
672.00,44.253
673.00,44.429
674.00,44.466
675.00,44.523
676.00,44.578
677.00,44.640
678.00,44.783
679.00,44.744
680.00,44.891
681.00,44.998
682.00,45.069
683.00,45.162
684.00,45.149
685.00,45.276
686.00,45.350
687.00,45.376
688.00,45.387
689.00,45.471
690.00,45.559
691.00,45.659
692.00,45.662
693.00,45.852
694.00,45.718
695.00,45.943
696.00,45.973
697.00,45.999
698.00,46.081
699.00,46.145
700.00,46.377
701.00,46.225
702.00,46.277
703.00,46.603
704.00,46.466
705.00,46.589
706.00,46.626
707.00,46.727
708.00,46.616
709.00,46.693
710.00,47.062
711.00,46.800
712.00,46.733
713.00,46.869
714.00,47.095
715.00,47.127
716.00,47.293
717.00,47.267
718.00,47.274
719.00,47.386
720.00,47.353
721.00,51.383
722.00,51.407
723.00,51.513
724.00,51.484
725.00,51.497
726.00,51.421
727.00,51.396
728.00,51.476
729.00,51.540
730.00,51.528
731.00,51.511
732.00,51.584
733.00,51.553
734.00,51.557
735.00,51.640
736.00,51.600
737.00,51.649
738.00,51.660
739.00,51.694
740.00,51.666
741.00,51.696
742.00,51.721
743.00,51.696
744.00,51.656
745.00,51.665
746.00,51.626
747.00,51.619
748.00,51.601
749.00,51.623
750.00,51.618
751.00,51.527
752.00,51.635
753.00,51.606
754.00,51.675
755.00,51.609
756.00,51.594
757.00,51.605
758.00,51.668
759.00,51.623
760.00,51.641
761.00,51.592
762.00,51.607
763.00,51.649
764.00,51.620
765.00,51.608
766.00,51.687
767.00,51.640
768.00,51.704
769.00,51.661
770.00,51.675
771.00,51.645
772.00,51.638
773.00,51.653
774.00,51.610
775.00,51.650
776.00,51.656
777.00,51.695
778.00,51.711
779.00,51.721
780.00,51.670
781.00,51.652
782.00,51.671
783.00,51.602
784.00,51.539
785.00,51.532
786.00,51.618
787.00,51.551
788.00,51.533
789.00,51.574
790.00,51.540
791.00,51.547
792.00,51.497
793.00,51.589
794.00,51.523
795.00,51.433
796.00,51.515
797.00,51.424
798.00,51.387
799.00,51.481
800.00,51.367
801.00,51.445
802.00,51.336
803.00,51.378
804.00,51.342
805.00,51.340
806.00,51.379
807.00,51.340
808.00,51.247
809.00,51.195
810.00,51.261
811.00,51.200
812.00,51.228
813.00,51.193
814.00,51.152
815.00,51.168
816.00,51.133
817.00,51.215
818.00,51.138
819.00,51.042
820.00,51.056
821.00,50.998
822.00,51.008
823.00,51.001
824.00,51.029
825.00,51.020
826.00,51.095
827.00,51.100
828.00,50.877
829.00,50.910
830.00,50.920
831.00,53.474
832.00,53.500
833.00,53.426
834.00,53.447
835.00,53.372
836.00,53.423
837.00,53.366
838.00,53.352
839.00,53.333
840.00,53.292
841.00,53.290
842.00,53.247
843.00,53.238
844.00,53.242
845.00,53.206
846.00,53.244
847.00,53.158
848.00,53.148
849.00,53.101
850.00,53.071
851.00,53.010
852.00,53.005
853.00,52.951
854.00,52.913
855.00,52.857
856.00,52.900
857.00,52.817
858.00,52.830
859.00,52.782
860.00,52.783
861.00,52.786
862.00,52.697
863.00,52.753
864.00,52.708
865.00,52.721
866.00,52.698
867.00,52.664
868.00,52.698
869.00,52.710
870.00,52.633
871.00,52.599
872.00,52.612
873.00,52.587
874.00,52.569
875.00,52.570
876.00,52.498
877.00,52.527
878.00,52.539
879.00,52.504
880.00,52.463
881.00,52.443
882.00,52.473
883.00,52.405
884.00,52.418
885.00,52.401
886.00,52.372
887.00,52.411
888.00,52.326
889.00,52.349
890.00,52.319
891.00,52.268
892.00,52.210
893.00,52.369
894.00,52.223
895.00,52.177
896.00,52.143
897.00,52.129
898.00,52.153
899.00,52.009
900.00,52.114
901.00,52.091
902.00,52.079
903.00,52.052
904.00,52.054
905.00,52.041
906.00,52.015
907.00,51.985
908.00,51.985
909.00,51.938
910.00,51.927
911.00,51.916
912.00,51.935
913.00,51.855
914.00,51.853
915.00,51.831
916.00,51.794
917.00,51.798
918.00,51.755
919.00,51.740
920.00,51.698
921.00,51.691
922.00,51.660
923.00,51.651
924.00,51.639
925.00,51.619
926.00,51.621
927.00,51.592
928.00,51.579
929.00,51.555
930.00,51.509
931.00,51.498
932.00,51.484
933.00,51.468
934.00,51.458
935.00,51.431
936.00,51.416
937.00,51.383
938.00,51.356
939.00,51.366
940.00,51.327
941.00,51.320
942.00,51.278
943.00,51.282
944.00,51.259
945.00,51.257
946.00,51.240
947.00,51.185
948.00,51.207
949.00,51.132
950.00,51.119
951.00,51.099
952.00,51.068
953.00,51.054
954.00,51.040
955.00,50.993
956.00,50.983
957.00,50.946
958.00,50.972
959.00,50.910
960.00,50.906
961.00,50.891
962.00,50.880
963.00,50.868
964.00,50.836
965.00,50.811
966.00,50.814
967.00,50.814
968.00,50.796
969.00,50.815
970.00,50.798
971.00,50.804
972.00,50.785
973.00,50.785
974.00,50.831
975.00,50.788
976.00,50.797
977.00,50.739
978.00,50.837
979.00,50.775
980.00,50.787
981.00,50.801
982.00,50.772
983.00,50.770
984.00,50.738
985.00,50.785
986.00,50.739
987.00,50.747
988.00,50.740
989.00,50.722
990.00,50.725
991.00,50.702
992.00,50.704
993.00,50.691
994.00,50.658
995.00,50.661
996.00,50.631
997.00,50.628
998.00,50.595
999.00,50.621
1000.00,50.570
1001.00,50.580
1002.00,50.553
1003.00,50.541
1004.00,50.542
1005.00,50.514
1006.00,50.522
1007.00,50.506
1008.00,50.496
1009.00,50.474
1010.00,50.448
1011.00,50.456
1012.00,50.420
1013.00,50.426
1014.00,50.389
1015.00,50.398
1016.00,50.375
1017.00,50.365
1018.00,50.326
1019.00,50.308
1020.00,50.303
1021.00,50.280
1022.00,50.278
1023.00,50.228
1024.00,50.240
1025.00,50.226
1026.00,50.216
1027.00,50.182
1028.00,50.172
1029.00,50.171
1030.00,50.132
1031.00,50.134
1032.00,50.093
1033.00,50.096
1034.00,50.074
1035.00,50.036
1036.00,50.016
1037.00,49.994
1038.00,49.989
1039.00,49.956
1040.00,49.964
1041.00,49.917
1042.00,49.913
1043.00,49.892
1044.00,49.921
1045.00,49.903
1046.00,49.888
1047.00,49.905
1048.00,49.917
1049.00,49.936
1050.00,49.934
1051.00,49.958
1052.00,49.973
1053.00,49.970
1054.00,49.968
1055.00,49.981
1056.00,49.984
1057.00,49.991
1058.00,49.973
1059.00,49.978
1060.00,49.968
1061.00,49.966
1062.00,49.951
1063.00,49.962
1064.00,49.938
1065.00,49.941
1066.00,49.928
1067.00,49.914
1068.00,49.924
1069.00,49.900
1070.00,49.883
1071.00,49.855
1072.00,49.873
1073.00,49.852
1074.00,49.853
1075.00,49.831
1076.00,49.823
1077.00,49.816
1078.00,49.820
1079.00,49.794
1080.00,49.796
1081.00,49.768
1082.00,49.781
1083.00,49.759
1084.00,49.761
1085.00,49.766
1086.00,49.742
1087.00,49.733
1088.00,49.720
1089.00,49.704
1090.00,49.705
1091.00,49.694
1092.00,49.705
1093.00,49.666
1094.00,49.653
1095.00,49.652
1096.00,49.639
1097.00,49.616
1098.00,49.631
1099.00,49.607
1100.00,49.613
1101.00,49.615
1102.00,49.582
1103.00,49.571
1104.00,49.551
1105.00,49.539
1106.00,49.538
1107.00,49.522
1108.00,49.529
1109.00,49.503
1110.00,49.510
1111.00,49.504
1112.00,49.496
1113.00,49.506
1114.00,49.488
1115.00,49.460
1116.00,49.451
1117.00,49.440
1118.00,49.438
1119.00,49.422
1120.00,49.415
1121.00,49.408
1122.00,49.414
1123.00,49.407
1124.00,49.387
1125.00,49.383
1126.00,49.375
1127.00,49.361
1128.00,49.356
1129.00,49.340
1130.00,49.333
1131.00,49.318
1132.00,49.318
1133.00,49.317
1134.00,49.314
1135.00,49.296
1136.00,49.292
1137.00,49.291
1138.00,49.299
1139.00,49.284
1140.00,49.292
1141.00,49.309
1142.00,49.259
1143.00,49.267
1144.00,49.245
1145.00,49.237
1146.00,49.242
1147.00,49.236
1148.00,49.234
1149.00,49.233
1150.00,49.239
1151.00,49.240
1152.00,49.213
1153.00,49.215
1154.00,49.207
1155.00,49.217
1156.00,49.200
1157.00,49.204
1158.00,49.211
1159.00,49.196
1160.00,49.180
1161.00,49.203
1162.00,49.184
1163.00,49.190
1164.00,49.183
1165.00,49.181
1166.00,49.179
1167.00,49.175
1168.00,49.175
1169.00,49.177
1170.00,49.175
1171.00,49.140
1172.00,49.149
1173.00,49.148
1174.00,49.151
1175.00,49.146
1176.00,49.149
1177.00,49.155
1178.00,49.149
1179.00,49.165
1180.00,49.150
1181.00,49.170
1182.00,49.165
1183.00,49.161
1184.00,49.138
1185.00,49.155
1186.00,49.141
1187.00,49.144
1188.00,49.127
1189.00,49.126
1190.00,49.125
1191.00,49.133
1192.00,49.145
1193.00,49.127
1194.00,49.142
1195.00,49.109
1196.00,49.132
1197.00,49.144
1198.00,49.117
1199.00,49.106
1200.00,49.108
1201.00,49.125
1202.00,49.118
1203.00,49.111
1204.00,49.090
1205.00,49.106
1206.00,49.103
1207.00,49.105
1208.00,49.091
1209.00,49.090
1210.00,49.090
1211.00,49.085
1212.00,49.106
1213.00,49.084
1214.00,49.089
1215.00,49.069
1216.00,49.091
1217.00,49.095
1218.00,49.081
1219.00,49.086
1220.00,49.079
1221.00,49.094
1222.00,49.085
1223.00,49.103
1224.00,49.101
1225.00,49.084
1226.00,49.078
1227.00,49.082
1228.00,49.097
1229.00,49.100
1230.00,49.148
1231.00,49.122
1232.00,49.132
1233.00,49.133
1234.00,49.138
1235.00,49.130
1236.00,49.123
1237.00,49.107
1238.00,49.131
1239.00,49.120
1240.00,49.112
1241.00,49.125
1242.00,49.124
1243.00,49.142
1244.00,49.105
1245.00,49.127
1246.00,49.141
1247.00,49.131
1248.00,49.121
1249.00,49.127
1250.00,49.126
1251.00,49.132
1252.00,49.168
1253.00,49.160
1254.00,49.160
1255.00,49.152
1256.00,49.140
1257.00,49.116
1258.00,49.173
1259.00,49.160
1260.00,49.192
1261.00,49.184
1262.00,49.172
1263.00,49.172
1264.00,49.181
1265.00,49.179
1266.00,49.192
1267.00,49.190
1268.00,49.211
1269.00,49.191
1270.00,49.201
1271.00,49.224
1272.00,49.216
1273.00,49.215
1274.00,49.210
1275.00,49.213
1276.00,49.232
1277.00,49.220
1278.00,49.245
1279.00,49.245
1280.00,49.242
1281.00,49.249
1282.00,49.266
1283.00,49.249
1284.00,49.257
1285.00,49.257
1286.00,49.271
1287.00,49.270
1288.00,49.265
1289.00,49.258
1290.00,49.285
1291.00,49.275
1292.00,49.275
1293.00,49.275
1294.00,49.280
1295.00,49.305
1296.00,49.301
1297.00,49.306
1298.00,49.328
1299.00,49.308
1300.00,49.314
1301.00,49.339
1302.00,49.328
1303.00,49.343
1304.00,49.328
1305.00,49.338
1306.00,49.349
1307.00,49.359
1308.00,49.349
1309.00,49.352
1310.00,49.362
1311.00,49.351
1312.00,49.351
1313.00,49.354
1314.00,49.372
1315.00,49.381
1316.00,49.384
1317.00,49.385
1318.00,49.397
1319.00,49.387
1320.00,49.422
1321.00,49.584
1322.00,49.606
1323.00,49.585
1324.00,49.584
1325.00,49.556
1326.00,49.597
1327.00,49.584
1328.00,49.572
1329.00,49.594
1330.00,49.581
1331.00,49.581
1332.00,49.584
1333.00,49.605
1334.00,49.639
1335.00,49.640
1336.00,49.660
1337.00,49.692
1338.00,49.757
1339.00,49.797
1340.00,49.861
1341.00,49.913
1342.00,49.982
1343.00,50.043
1344.00,50.077
1345.00,50.135
1346.00,50.167
1347.00,50.195
1348.00,50.215
1349.00,50.240
1350.00,50.250
1351.00,50.264
1352.00,50.268
1353.00,50.294
1354.00,50.274
1355.00,50.208
1356.00,50.268
1357.00,50.290
1358.00,50.288
1359.00,50.362
1360.00,50.344
1361.00,50.232
1362.00,50.281
1363.00,50.333
1364.00,50.296
1365.00,50.309
1366.00,50.323
1367.00,50.249
1368.00,50.278
1369.00,50.325
1370.00,50.295
1371.00,50.234
1372.00,50.244
1373.00,50.286
1374.00,50.284
1375.00,50.274
1376.00,50.281
1377.00,50.268
1378.00,50.344
1379.00,50.300
1380.00,50.273
1381.00,50.280
1382.00,50.219
1383.00,50.291
1384.00,50.252
1385.00,50.181
1386.00,50.288
1387.00,50.228
1388.00,50.232
1389.00,50.188
1390.00,50.386
1391.00,50.200
1392.00,50.278
1393.00,50.280
1394.00,50.273
1395.00,50.265
1396.00,50.228
1397.00,50.254
1398.00,50.324
1399.00,50.286
1400.00,50.210
1401.00,50.265
1402.00,50.324
1403.00,50.234
1404.00,50.288
1405.00,50.287
1406.00,50.313
1407.00,50.337
1408.00,50.309
1409.00,50.279
1410.00,50.324
1411.00,50.316
1412.00,50.345
1413.00,50.290
1414.00,50.314
1415.00,50.338
1416.00,50.367
1417.00,50.376
1418.00,50.365
1419.00,50.348
1420.00,50.398
1421.00,50.424
1422.00,50.416
1423.00,50.421
1424.00,50.453
1425.00,50.443
1426.00,50.446
1427.00,50.476
1428.00,50.483
1429.00,50.488
1430.00,50.511
1431.00,50.513
1432.00,50.528
1433.00,50.559
1434.00,50.537
1435.00,50.584
1436.00,50.603
1437.00,50.602
1438.00,50.616
1439.00,50.661
1440.00,50.659
1441.00,50.659
1442.00,50.676
1443.00,50.719
1444.00,50.699
1445.00,50.702
1446.00,50.732
1447.00,50.758
1448.00,50.775
1449.00,50.782
1450.00,50.788
1451.00,50.806
1452.00,50.817
1453.00,50.852
1454.00,50.847
1455.00,50.858
1456.00,50.880
1457.00,50.881
1458.00,50.911
1459.00,50.919
1460.00,50.926
1461.00,50.933
1462.00,50.955
1463.00,50.970
1464.00,50.980
1465.00,51.008
1466.00,51.011
1467.00,51.018
1468.00,51.065
1469.00,51.061
1470.00,51.061
1471.00,51.075
1472.00,51.105
1473.00,51.107
1474.00,51.126
1475.00,51.127
1476.00,51.144
1477.00,51.134
1478.00,51.141
1479.00,51.174
1480.00,51.182
1481.00,51.181
1482.00,51.208
1483.00,51.235
1484.00,51.225
1485.00,51.256
1486.00,51.261
1487.00,51.280
1488.00,51.277
1489.00,51.275
1490.00,51.288
1491.00,51.308
1492.00,51.312
1493.00,51.322
1494.00,51.322
1495.00,51.338
1496.00,51.334
1497.00,51.347
1498.00,51.342
1499.00,51.359
1500.00,51.402
1501.00, 
1502.00, 
1503.00, 
1504.00, 
1505.00, 
1506.00, 
1507.00, 
1508.00, 
1509.00, 
1510.00, 
1511.00, 
1512.00, 
1513.00, 
1514.00, 
1515.00, 
1516.00, 
1517.00, 
1518.00, 
1519.00, 
1520.00, 
1521.00, 
1522.00, 
1523.00, 
1524.00, 
1525.00, 
1526.00, 
1527.00, 
1528.00, 
1529.00, 
1530.00, 
1531.00, 
1532.00, 
1533.00, 
1534.00, 
1535.00, 
1536.00, 
1537.00, 
1538.00, 
1539.00, 
1540.00, 
1541.00, 
1542.00, 
1543.00, 
1544.00, 
1545.00, 
1546.00, 
1547.00, 
1548.00, 
1549.00, 
1550.00, 
1551.00, 
1552.00, 
1553.00, 
1554.00, 
1555.00, 
1556.00, 
1557.00, 
1558.00, 
1559.00, 
1560.00, 
1561.00, 
1562.00, 
1563.00, 
1564.00, 
1565.00, 
1566.00, 
1567.00, 
1568.00, 
1569.00, 
1570.00, 
1571.00, 
1572.00, 
1573.00, 
1574.00, 
1575.00, 
1576.00, 
1577.00, 
1578.00, 
1579.00, 
1580.00, 
1581.00, 
1582.00, 
1583.00, 
1584.00, 
1585.00, 
1586.00, 
1587.00, 
1588.00, 
1589.00, 
1590.00, 
1591.00, 
1592.00, 
1593.00, 
1594.00, 
1595.00, 
1596.00, 
1597.00, 
1598.00, 
1599.00, 
1600.00, 
1601.00, 
1602.00, 
1603.00, 
1604.00, 
1605.00, 
1606.00, 
1607.00, 
1608.00, 
1609.00, 
1610.00, 
1611.00, 
1612.00, 
1613.00, 
1614.00, 
1615.00, 
1616.00, 
1617.00, 
1618.00, 
1619.00, 
1620.00, 
1621.00, 
1622.00, 
1623.00, 
1624.00, 
1625.00, 
1626.00, 
1627.00, 
1628.00, 
1629.00, 
1630.00, 
1631.00, 
1632.00, 
1633.00, 
1634.00, 
1635.00, 
1636.00, 
1637.00, 
1638.00, 
1639.00, 
1640.00, 
1641.00, 
1642.00, 
1643.00, 
1644.00, 
1645.00, 
1646.00, 
1647.00, 
1648.00, 
1649.00, 
1650.00, 
1651.00, 
1652.00, 
1653.00, 
1654.00, 
1655.00, 
1656.00, 
1657.00, 
1658.00, 
1659.00, 
1660.00, 
1661.00, 
1662.00, 
1663.00, 
1664.00, 
1665.00, 
1666.00, 
1667.00, 
1668.00, 
1669.00, 
1670.00, 
1671.00, 
1672.00, 
1673.00, 
1674.00, 
1675.00, 
1676.00, 
1677.00, 
1678.00, 
1679.00, 
1680.00, 
1681.00, 
1682.00, 
1683.00, 
1684.00, 
1685.00, 
1686.00, 
1687.00, 
1688.00, 
1689.00, 
1690.00, 
1691.00, 
1692.00, 
1693.00, 
1694.00, 
1695.00, 
1696.00, 
1697.00, 
1698.00, 
1699.00, 
1700.00, 
1701.00, 
1702.00, 
1703.00, 
1704.00, 
1705.00, 
1706.00, 
1707.00, 
1708.00, 
1709.00, 
1710.00, 
1711.00, 
1712.00, 
1713.00, 
1714.00, 
1715.00, 
1716.00, 
1717.00, 
1718.00, 
1719.00, 
1720.00, 
1721.00, 
1722.00, 
1723.00, 
1724.00, 
1725.00, 
1726.00, 
1727.00, 
1728.00, 
1729.00, 
1730.00, 
1731.00, 
1732.00, 
1733.00, 
1734.00, 
1735.00, 
1736.00, 
1737.00, 
1738.00, 
1739.00, 
1740.00, 
1741.00, 
1742.00, 
1743.00, 
1744.00, 
1745.00, 
1746.00, 
1747.00, 
1748.00, 
1749.00, 
1750.00, 
1751.00, 
1752.00, 
1753.00, 
1754.00, 
1755.00, 
1756.00, 
1757.00, 
1758.00, 
1759.00, 
1760.00, 
1761.00, 
1762.00, 
1763.00, 
1764.00, 
1765.00, 
1766.00, 
1767.00, 
1768.00, 
1769.00, 
1770.00, 
1771.00, 
1772.00, 
1773.00, 
1774.00, 
1775.00, 
1776.00, 
1777.00, 
1778.00, 
1779.00, 
1780.00, 
1781.00, 
1782.00, 
1783.00, 
1784.00, 
1785.00, 
1786.00, 
1787.00, 
1788.00, 
1789.00, 
1790.00, 
1791.00, 
1792.00, 
1793.00, 
1794.00, 
1795.00, 
1796.00, 
1797.00, 
1798.00, 
1799.00, 
1800.00, 
1801.00, 
1802.00, 
1803.00, 
1804.00, 
1805.00, 
1806.00, 
1807.00, 
1808.00, 
1809.00, 
1810.00, 
1811.00, 
1812.00, 
1813.00, 
1814.00, 
1815.00, 
1816.00, 
1817.00, 
1818.00, 
1819.00, 
1820.00, 
1821.00, 
1822.00, 
1823.00, 
1824.00, 
1825.00, 
1826.00, 
1827.00, 
1828.00, 
1829.00, 
1830.00, 
1831.00, 
1832.00, 
1833.00, 
1834.00, 
1835.00, 
1836.00, 
1837.00, 
1838.00, 
1839.00, 
1840.00, 
1841.00, 
1842.00, 
1843.00, 
1844.00, 
1845.00, 
1846.00, 
1847.00, 
1848.00, 
1849.00, 
1850.00, 
1851.00, 
1852.00, 
1853.00, 
1854.00, 
1855.00, 
1856.00, 
1857.00, 
1858.00, 
1859.00, 
1860.00, 
1861.00, 
1862.00, 
1863.00, 
1864.00, 
1865.00, 
1866.00, 
1867.00, 
1868.00, 
1869.00, 
1870.00, 
1871.00, 
1872.00, 
1873.00, 
1874.00, 
1875.00, 
1876.00, 
1877.00, 
1878.00, 
1879.00, 
1880.00, 
1881.00, 
1882.00, 
1883.00, 
1884.00, 
1885.00, 
1886.00, 
1887.00, 
1888.00, 
1889.00, 
1890.00, 
1891.00, 
1892.00, 
1893.00, 
1894.00, 
1895.00, 
1896.00, 
1897.00, 
1898.00, 
1899.00, 
1900.00, 
1901.00, 
1902.00, 
1903.00, 
1904.00, 
1905.00, 
1906.00, 
1907.00, 
1908.00, 
1909.00, 
1910.00, 
1911.00, 
1912.00, 
1913.00, 
1914.00, 
1915.00, 
1916.00, 
1917.00, 
1918.00, 
1919.00, 
1920.00, 
1921.00, 
1922.00, 
1923.00, 
1924.00, 
1925.00, 
1926.00, 
1927.00, 
1928.00, 
1929.00, 
1930.00, 
1931.00, 
1932.00, 
1933.00, 
1934.00, 
1935.00, 
1936.00, 
1937.00, 
1938.00, 
1939.00, 
1940.00, 
1941.00, 
1942.00, 
1943.00, 
1944.00, 
1945.00, 
1946.00, 
1947.00, 
1948.00, 
1949.00, 
1950.00, 
1951.00, 
1952.00, 
1953.00, 
1954.00, 
1955.00, 
1956.00, 
1957.00, 
1958.00, 
1959.00, 
1960.00, 
1961.00, 
1962.00, 
1963.00, 
1964.00, 
1965.00, 
1966.00, 
1967.00, 
1968.00, 
1969.00, 
1970.00, 
1971.00, 
1972.00, 
1973.00, 
1974.00, 
1975.00, 
1976.00, 
1977.00, 
1978.00, 
1979.00, 
1980.00, 
1981.00, 
1982.00, 
1983.00, 
1984.00, 
1985.00, 
1986.00, 
1987.00, 
1988.00, 
1989.00, 
1990.00, 
1991.00, 
1992.00, 
1993.00, 
1994.00, 
1995.00, 
1996.00, 
1997.00, 
1998.00, 
1999.00, 
2000.00, 
2001.00, 
2002.00, 
2003.00, 
2004.00, 
2005.00, 
2006.00, 
2007.00, 
2008.00, 
2009.00, 
2010.00, 
2011.00, 
2012.00, 
2013.00, 
2014.00, 
2015.00, 
2016.00, 
2017.00, 
2018.00, 
2019.00, 
2020.00, 
2021.00, 
2022.00, 
2023.00, 
2024.00, 
2025.00, 
2026.00, 
2027.00, 
2028.00, 
2029.00, 
2030.00, 
2031.00, 
2032.00, 
2033.00, 
2034.00, 
2035.00, 
2036.00, 
2037.00, 
2038.00, 
2039.00, 
2040.00, 
2041.00, 
2042.00, 
2043.00, 
2044.00, 
2045.00, 
2046.00, 
2047.00, 
2048.00, 
2049.00, 
2050.00, 
2051.00, 
2052.00, 
2053.00, 
2054.00, 
2055.00, 
2056.00, 
2057.00, 
2058.00, 
2059.00, 
2060.00, 
2061.00, 
2062.00, 
2063.00, 
2064.00, 
2065.00, 
2066.00, 
2067.00, 
2068.00, 
2069.00, 
2070.00, 
2071.00, 
2072.00, 
2073.00, 
2074.00, 
2075.00, 
2076.00, 
2077.00, 
2078.00, 
2079.00, 
2080.00, 
2081.00, 
2082.00, 
2083.00, 
2084.00, 
2085.00, 
2086.00, 
2087.00, 
2088.00, 
2089.00, 
2090.00, 
2091.00, 
2092.00, 
2093.00, 
2094.00, 
2095.00, 
2096.00, 
2097.00, 
2098.00, 
2099.00, 
2100.00, 
2101.00, 
2102.00, 
2103.00, 
2104.00, 
2105.00, 
2106.00, 
2107.00, 
2108.00, 
2109.00, 
2110.00, 
2111.00, 
2112.00, 
2113.00, 
2114.00, 
2115.00, 
2116.00, 
2117.00, 
2118.00, 
2119.00, 
2120.00, 
2121.00, 
2122.00, 
2123.00, 
2124.00, 
2125.00, 
2126.00, 
2127.00, 
2128.00, 
2129.00, 
2130.00, 
2131.00, 
2132.00, 
2133.00, 
2134.00, 
2135.00, 
2136.00, 
2137.00, 
2138.00, 
2139.00, 
2140.00, 
2141.00, 
2142.00, 
2143.00, 
2144.00, 
2145.00, 
2146.00, 
2147.00, 
2148.00, 
2149.00, 
2150.00, 
2151.00, 
2152.00, 
2153.00, 
2154.00, 
2155.00, 
2156.00, 
2157.00, 
2158.00, 
2159.00, 
2160.00, 
2161.00, 
2162.00, 
2163.00, 
2164.00, 
2165.00, 
2166.00, 
2167.00, 
2168.00, 
2169.00, 
2170.00, 
2171.00, 
2172.00, 
2173.00, 
2174.00, 
2175.00, 
2176.00, 
2177.00, 
2178.00, 
2179.00, 
2180.00, 
2181.00, 
2182.00, 
2183.00, 
2184.00, 
2185.00, 
2186.00, 
2187.00, 
2188.00, 
2189.00, 
2190.00, 
2191.00, 
2192.00, 
2193.00, 
2194.00, 
2195.00, 
2196.00, 
2197.00, 
2198.00, 
2199.00, 
2200.00, 
2201.00, 
2202.00, 
2203.00, 
2204.00, 
2205.00, 
2206.00, 
2207.00, 
2208.00, 
2209.00, 
2210.00, 
2211.00, 
2212.00, 
2213.00, 
2214.00, 
2215.00, 
2216.00, 
2217.00, 
2218.00, 
2219.00, 
2220.00, 
2221.00, 
2222.00, 
2223.00, 
2224.00, 
2225.00, 
2226.00, 
2227.00, 
2228.00, 
2229.00, 
2230.00, 
2231.00, 
2232.00, 
2233.00, 
2234.00, 
2235.00, 
2236.00, 
2237.00, 
2238.00, 
2239.00, 
2240.00, 
2241.00, 
2242.00, 
2243.00, 
2244.00, 
2245.00, 
2246.00, 
2247.00, 
2248.00, 
2249.00, 
2250.00, 
2251.00, 
2252.00, 
2253.00, 
2254.00, 
2255.00, 
2256.00, 
2257.00, 
2258.00, 
2259.00, 
2260.00, 
2261.00, 
2262.00, 
2263.00, 
2264.00, 
2265.00, 
2266.00, 
2267.00, 
2268.00, 
2269.00, 
2270.00, 
2271.00, 
2272.00, 
2273.00, 
2274.00, 
2275.00, 
2276.00, 
2277.00, 
2278.00, 
2279.00, 
2280.00, 
2281.00, 
2282.00, 
2283.00, 
2284.00, 
2285.00, 
2286.00, 
2287.00, 
2288.00, 
2289.00, 
2290.00, 
2291.00, 
2292.00, 
2293.00, 
2294.00, 
2295.00, 
2296.00, 
2297.00, 
2298.00, 
2299.00, 
2300.00, 
2301.00, 
2302.00, 
2303.00, 
2304.00, 
2305.00, 
2306.00, 
2307.00, 
2308.00, 
2309.00, 
2310.00, 
2311.00, 
2312.00, 
2313.00, 
2314.00, 
2315.00, 
2316.00, 
2317.00, 
2318.00, 
2319.00, 
2320.00, 
2321.00, 
2322.00, 
2323.00, 
2324.00, 
2325.00, 
2326.00, 
2327.00, 
2328.00, 
2329.00, 
2330.00, 
2331.00, 
2332.00, 
2333.00, 
2334.00, 
2335.00, 
2336.00, 
2337.00, 
2338.00, 
2339.00, 
2340.00, 
2341.00, 
2342.00, 
2343.00, 
2344.00, 
2345.00, 
2346.00, 
2347.00, 
2348.00, 
2349.00, 
2350.00, 
2351.00, 
2352.00, 
2353.00, 
2354.00, 
2355.00, 
2356.00, 
2357.00, 
2358.00, 
2359.00, 
2360.00, 
2361.00, 
2362.00, 
2363.00, 
2364.00, 
2365.00, 
2366.00, 
2367.00, 
2368.00, 
2369.00, 
2370.00, 
2371.00, 
2372.00, 
2373.00, 
2374.00, 
2375.00, 
2376.00, 
2377.00, 
2378.00, 
2379.00, 
2380.00, 
2381.00, 
2382.00, 
2383.00, 
2384.00, 
2385.00, 
2386.00, 
2387.00, 
2388.00, 
2389.00, 
2390.00, 
2391.00, 
2392.00, 
2393.00, 
2394.00, 
2395.00, 
2396.00, 
2397.00, 
2398.00, 
2399.00, 
2400.00, 
2401.00, 
2402.00, 
2403.00, 
2404.00, 
2405.00, 
2406.00, 
2407.00, 
2408.00, 
2409.00, 
2410.00, 
2411.00, 
2412.00, 
2413.00, 
2414.00, 
2415.00, 
2416.00, 
2417.00, 
2418.00, 
2419.00, 
2420.00, 
2421.00, 
2422.00, 
2423.00, 
2424.00, 
2425.00, 
2426.00, 
2427.00, 
2428.00, 
2429.00, 
2430.00, 
2431.00, 
2432.00, 
2433.00, 
2434.00, 
2435.00, 
2436.00, 
2437.00, 
2438.00, 
2439.00, 
2440.00, 
2441.00, 
2442.00, 
2443.00, 
2444.00, 
2445.00, 
2446.00, 
2447.00, 
2448.00, 
2449.00, 
2450.00, 
2451.00, 
2452.00, 
2453.00, 
2454.00, 
2455.00, 
2456.00, 
2457.00, 
2458.00, 
2459.00, 
2460.00, 
2461.00, 
2462.00, 
2463.00, 
2464.00, 
2465.00, 
2466.00, 
2467.00, 
2468.00, 
2469.00, 
2470.00, 
2471.00, 
2472.00, 
2473.00, 
2474.00, 
2475.00, 
2476.00, 
2477.00, 
2478.00, 
2479.00, 
2480.00, 
2481.00, 
2482.00, 
2483.00, 
2484.00, 
2485.00, 
2486.00, 
2487.00, 
2488.00, 
2489.00, 
2490.00, 
2491.00, 
2492.00, 
2493.00, 
2494.00, 
2495.00, 
2496.00, 
2497.00, 
2498.00, 
2499.00, 
2500.00, 
2501.00, 
2502.00, 
2503.00, 
2504.00, 
2505.00, 
2506.00, 
2507.00, 
2508.00, 
2509.00, 
2510.00, 
2511.00, 
2512.00, 
2513.00, 
2514.00, 
2515.00, 
2516.00, 
2517.00, 
2518.00, 
2519.00, 
2520.00, 
2521.00, 
2522.00, 
2523.00, 
2524.00, 
2525.00, 
2526.00, 
2527.00, 
2528.00, 
2529.00, 
2530.00, 
2531.00, 
2532.00, 
2533.00, 
2534.00, 
2535.00, 
2536.00, 
2537.00, 
2538.00, 
2539.00, 
2540.00, 
2541.00, 
2542.00, 
2543.00, 
2544.00, 
2545.00, 
2546.00, 
2547.00, 
2548.00, 
2549.00, 
2550.00, 
2551.00, 
2552.00, 
2553.00, 
2554.00, 
2555.00, 
2556.00, 
2557.00, 
2558.00, 
2559.00, 
2560.00, 
2561.00, 
2562.00, 
2563.00, 
2564.00, 
2565.00, 
2566.00, 
2567.00, 
2568.00, 
2569.00, 
2570.00, 
2571.00, 
2572.00, 
2573.00, 
2574.00, 
2575.00, 
2576.00, 
2577.00, 
2578.00, 
2579.00, 
2580.00, 
2581.00, 
2582.00, 
2583.00, 
2584.00, 
2585.00, 
2586.00, 
2587.00, 
2588.00, 
2589.00, 
2590.00, 
2591.00, 
2592.00, 
2593.00, 
2594.00, 
2595.00, 
2596.00, 
2597.00, 
2598.00, 
2599.00, 
2600.00, 
