"2cP2 - RawData"
"Wavelength nm.","T%"
200.00,0.002
201.00,0.000
202.00,0.002
203.00,0.001
204.00,0.001
205.00,0.002
206.00,0.001
207.00,0.001
208.00,0.003
209.00,0.004
210.00,0.000
211.00,-0.002
212.00,0.001
213.00,0.002
214.00,-0.002
215.00,0.001
216.00,0.002
217.00,-0.001
218.00,0.002
219.00,0.003
220.00,0.001
221.00,0.001
222.00,0.004
223.00,0.000
224.00,-0.000
225.00,0.002
226.00,-0.003
227.00,0.001
228.00,0.003
229.00,0.000
230.00,0.002
231.00,0.002
232.00,0.002
233.00,-0.000
234.00,0.001
235.00,0.002
236.00,0.002
237.00,-0.000
238.00,0.002
239.00,0.001
240.00,0.002
241.00,0.002
242.00,-0.000
243.00,-0.001
244.00,-0.001
245.00,0.001
246.00,-0.000
247.00,0.003
248.00,-0.000
249.00,-0.001
250.00,0.000
251.00,0.002
252.00,0.001
253.00,-0.000
254.00,0.002
255.00,-0.000
256.00,-0.001
257.00,-0.001
258.00,-0.000
259.00,-0.002
260.00,-0.000
261.00,-0.001
262.00,-0.001
263.00,0.000
264.00,0.000
265.00,-0.000
266.00,-0.000
267.00,0.001
268.00,-0.000
269.00,-0.000
270.00,0.000
271.00,0.001
272.00,0.000
273.00,-0.000
274.00,-0.000
275.00,-0.002
276.00,0.000
277.00,0.002
278.00,0.002
279.00,0.000
280.00,-0.001
281.00,0.002
282.00,0.001
283.00,-0.001
284.00,0.003
285.00,0.002
286.00,0.001
287.00,0.000
288.00,0.001
289.00,-0.000
290.00,-0.001
291.00,-0.000
292.00,-0.000
293.00,0.001
294.00,0.001
295.00,0.002
296.00,0.001
297.00,-0.000
298.00,0.002
299.00,0.003
300.00,0.004
301.00,0.007
302.00,0.010
303.00,0.014
304.00,0.021
305.00,0.033
306.00,0.052
307.00,0.077
308.00,0.122
309.00,0.189
310.00,0.262
311.00,0.354
312.00,0.483
313.00,0.657
314.00,0.868
315.00,1.136
316.00,1.441
317.00,1.832
318.00,2.245
319.00,2.784
320.00,3.367
321.00,4.039
322.00,4.760
323.00,5.625
324.00,6.512
325.00,7.411
326.00,8.373
327.00,9.480
328.00,10.597
329.00,11.681
330.00,12.900
331.00,14.067
332.00,15.309
333.00,16.567
334.00,17.756
335.00,19.079
336.00,20.337
337.00,21.623
338.00,22.853
339.00,23.985
340.00,25.188
341.00,26.321
342.00,27.422
343.00,28.472
344.00,29.469
345.00,30.466
346.00,31.314
347.00,32.257
348.00,33.116
349.00,33.902
350.00,34.591
351.00,35.312
352.00,35.955
353.00,36.596
354.00,37.200
355.00,37.785
356.00,38.342
357.00,38.893
358.00,39.318
359.00,39.767
360.00,40.199
361.00,40.660
362.00,40.986
363.00,41.289
364.00,41.678
365.00,41.921
366.00,42.247
367.00,42.433
368.00,42.648
369.00,42.820
370.00,42.919
371.00,43.038
372.00,43.267
373.00,43.385
374.00,43.373
375.00,43.394
376.00,43.406
377.00,43.487
378.00,43.365
379.00,43.405
380.00,43.457
381.00,43.491
382.00,43.500
383.00,43.626
384.00,43.813
385.00,43.983
386.00,44.115
387.00,44.259
388.00,44.471
389.00,44.507
390.00,44.664
391.00,44.773
392.00,44.860
393.00,44.958
394.00,45.121
395.00,45.203
396.00,45.211
397.00,45.295
398.00,45.319
399.00,45.395
400.00,45.424
401.00,45.493
402.00,45.527
403.00,45.629
404.00,45.646
405.00,45.588
406.00,45.610
407.00,45.599
408.00,45.641
409.00,45.577
410.00,45.511
411.00,45.440
412.00,45.361
413.00,45.476
414.00,45.432
415.00,45.435
416.00,45.515
417.00,45.536
418.00,45.522
419.00,45.510
420.00,45.576
421.00,45.656
422.00,45.711
423.00,45.640
424.00,45.710
425.00,45.741
426.00,45.660
427.00,45.758
428.00,45.811
429.00,45.843
430.00,45.835
431.00,45.853
432.00,45.897
433.00,45.899
434.00,45.916
435.00,46.001
436.00,46.035
437.00,45.989
438.00,46.082
439.00,46.076
440.00,45.994
441.00,46.142
442.00,46.169
443.00,46.230
444.00,46.273
445.00,46.292
446.00,46.380
447.00,46.435
448.00,46.493
449.00,46.570
450.00,46.590
451.00,46.680
452.00,46.730
453.00,46.728
454.00,46.785
455.00,46.863
456.00,46.951
457.00,46.953
458.00,47.015
459.00,47.093
460.00,47.095
461.00,47.180
462.00,47.194
463.00,47.266
464.00,47.377
465.00,47.390
466.00,47.481
467.00,47.483
468.00,47.500
469.00,47.526
470.00,47.548
471.00,47.568
472.00,47.596
473.00,47.597
474.00,47.620
475.00,47.669
476.00,47.666
477.00,47.729
478.00,47.731
479.00,47.859
480.00,47.924
481.00,47.978
482.00,48.032
483.00,48.092
484.00,48.251
485.00,48.216
486.00,48.286
487.00,48.259
488.00,48.431
489.00,48.581
490.00,48.554
491.00,48.685
492.00,48.723
493.00,48.826
494.00,48.877
495.00,48.905
496.00,48.835
497.00,48.834
498.00,48.992
499.00,49.000
500.00,48.996
501.00,49.126
502.00,49.172
503.00,49.203
504.00,49.177
505.00,49.257
506.00,49.325
507.00,49.362
508.00,49.369
509.00,49.430
510.00,49.498
511.00,49.473
512.00,49.531
513.00,49.521
514.00,49.477
515.00,49.723
516.00,49.799
517.00,49.809
518.00,49.912
519.00,49.881
520.00,49.830
521.00,49.931
522.00,49.929
523.00,49.918
524.00,49.947
525.00,49.999
526.00,50.088
527.00,50.119
528.00,50.147
529.00,50.102
530.00,50.196
531.00,50.338
532.00,50.287
533.00,50.352
534.00,50.444
535.00,50.486
536.00,50.488
537.00,50.494
538.00,50.588
539.00,50.575
540.00,50.564
541.00,50.627
542.00,50.618
543.00,50.662
544.00,50.672
545.00,50.763
546.00,50.741
547.00,50.778
548.00,50.821
549.00,50.787
550.00,50.912
551.00,50.911
552.00,50.954
553.00,50.992
554.00,51.026
555.00,51.081
556.00,51.092
557.00,51.063
558.00,51.070
559.00,51.141
560.00,51.151
561.00,51.088
562.00,51.185
563.00,51.207
564.00,51.154
565.00,51.238
566.00,51.149
567.00,50.988
568.00,51.203
569.00,51.180
570.00,51.137
571.00,51.234
572.00,51.153
573.00,50.959
574.00,51.264
575.00,51.277
576.00,51.287
577.00,51.323
578.00,51.374
579.00,51.368
580.00,51.488
581.00,51.481
582.00,51.512
583.00,51.601
584.00,51.711
585.00,51.587
586.00,51.679
587.00,51.631
588.00,51.565
589.00,51.788
590.00,51.837
591.00,51.814
592.00,51.805
593.00,51.798
594.00,51.866
595.00,51.800
596.00,51.885
597.00,51.869
598.00,51.954
599.00,51.947
600.00,52.013
601.00,51.984
602.00,51.853
603.00,51.940
604.00,51.969
605.00,51.968
606.00,52.061
607.00,51.971
608.00,52.086
609.00,51.939
610.00,52.034
611.00,51.977
612.00,52.043
613.00,51.923
614.00,51.849
615.00,52.030
616.00,52.022
617.00,52.087
618.00,52.034
619.00,52.069
620.00,52.040
621.00,51.993
622.00,52.042
623.00,52.111
624.00,52.085
625.00,52.056
626.00,52.062
627.00,52.077
628.00,52.102
629.00,52.053
630.00,52.168
631.00,52.134
632.00,52.092
633.00,52.120
634.00,52.121
635.00,52.156
636.00,52.148
637.00,52.218
638.00,52.110
639.00,52.091
640.00,52.126
641.00,52.131
642.00,52.005
643.00,52.217
644.00,52.231
645.00,52.204
646.00,52.262
647.00,52.218
648.00,52.202
649.00,52.223
650.00,52.125
651.00,52.279
652.00,52.218
653.00,52.153
654.00,52.281
655.00,52.230
656.00,52.295
657.00,52.326
658.00,52.195
659.00,52.213
660.00,52.222
661.00,52.115
662.00,52.343
663.00,52.237
664.00,52.313
665.00,52.285
666.00,52.042
667.00,52.092
668.00,52.663
669.00,52.284
670.00,52.361
671.00,52.230
672.00,52.267
673.00,52.377
674.00,52.263
675.00,52.281
676.00,52.338
677.00,52.274
678.00,52.307
679.00,52.231
680.00,52.294
681.00,52.277
682.00,52.256
683.00,52.200
684.00,52.343
685.00,52.305
686.00,52.303
687.00,52.300
688.00,52.241
689.00,52.168
690.00,52.184
691.00,52.250
692.00,52.072
693.00,52.200
694.00,52.161
695.00,52.080
696.00,52.138
697.00,52.211
698.00,52.038
699.00,52.112
700.00,52.209
701.00,52.171
702.00,52.209
703.00,52.154
704.00,52.140
705.00,52.068
706.00,52.192
707.00,52.172
708.00,51.997
709.00,52.070
710.00,52.229
711.00,51.863
712.00,51.892
713.00,51.974
714.00,51.965
715.00,52.045
716.00,52.050
717.00,51.968
718.00,51.963
719.00,51.963
720.00,51.901
721.00,56.107
722.00,56.106
723.00,56.122
724.00,55.988
725.00,55.972
726.00,55.898
727.00,55.789
728.00,55.803
729.00,55.735
730.00,55.665
731.00,55.687
732.00,55.571
733.00,55.540
734.00,55.507
735.00,55.420
736.00,55.453
737.00,55.342
738.00,55.334
739.00,55.319
740.00,55.228
741.00,55.244
742.00,55.120
743.00,55.099
744.00,55.023
745.00,55.005
746.00,54.896
747.00,54.939
748.00,54.793
749.00,54.693
750.00,54.688
751.00,54.599
752.00,54.571
753.00,54.513
754.00,54.536
755.00,54.403
756.00,54.366
757.00,54.327
758.00,54.335
759.00,54.261
760.00,54.194
761.00,54.138
762.00,54.106
763.00,54.113
764.00,54.010
765.00,54.036
766.00,54.073
767.00,53.962
768.00,53.962
769.00,53.886
770.00,53.812
771.00,53.829
772.00,53.850
773.00,53.731
774.00,53.702
775.00,53.749
776.00,53.642
777.00,53.679
778.00,53.625
779.00,53.600
780.00,53.552
781.00,53.575
782.00,53.517
783.00,53.402
784.00,53.371
785.00,53.300
786.00,53.426
787.00,53.238
788.00,53.225
789.00,53.203
790.00,53.122
791.00,53.119
792.00,53.106
793.00,53.149
794.00,53.105
795.00,52.941
796.00,52.969
797.00,52.834
798.00,52.908
799.00,52.858
800.00,52.721
801.00,52.770
802.00,52.688
803.00,52.664
804.00,52.673
805.00,52.660
806.00,52.598
807.00,52.555
808.00,52.540
809.00,52.507
810.00,52.410
811.00,52.324
812.00,52.377
813.00,52.307
814.00,52.313
815.00,52.264
816.00,52.283
817.00,52.250
818.00,52.135
819.00,52.162
820.00,52.111
821.00,52.016
822.00,52.021
823.00,52.068
824.00,51.996
825.00,51.911
826.00,52.043
827.00,51.978
828.00,51.837
829.00,51.976
830.00,51.784
831.00,54.479
832.00,54.463
833.00,54.351
834.00,54.454
835.00,54.325
836.00,54.326
837.00,54.290
838.00,54.238
839.00,54.196
840.00,54.163
841.00,54.146
842.00,54.101
843.00,54.070
844.00,54.079
845.00,54.024
846.00,54.033
847.00,53.950
848.00,53.949
849.00,53.871
850.00,53.839
851.00,53.720
852.00,53.769
853.00,53.674
854.00,53.678
855.00,53.618
856.00,53.574
857.00,53.551
858.00,53.550
859.00,53.475
860.00,53.545
861.00,53.463
862.00,53.369
863.00,53.424
864.00,53.352
865.00,53.348
866.00,53.313
867.00,53.274
868.00,53.315
869.00,53.325
870.00,53.238
871.00,53.234
872.00,53.219
873.00,53.174
874.00,53.183
875.00,53.170
876.00,53.110
877.00,53.131
878.00,53.116
879.00,53.057
880.00,53.052
881.00,53.002
882.00,53.044
883.00,52.934
884.00,52.957
885.00,52.902
886.00,52.897
887.00,52.883
888.00,52.871
889.00,52.830
890.00,52.788
891.00,52.935
892.00,52.742
893.00,52.693
894.00,52.721
895.00,52.654
896.00,52.623
897.00,52.610
898.00,52.625
899.00,52.501
900.00,52.590
901.00,52.571
902.00,52.561
903.00,52.528
904.00,52.541
905.00,52.494
906.00,52.468
907.00,52.443
908.00,52.415
909.00,52.389
910.00,52.363
911.00,52.352
912.00,52.363
913.00,52.292
914.00,52.308
915.00,52.255
916.00,52.223
917.00,52.173
918.00,52.157
919.00,52.148
920.00,52.094
921.00,52.084
922.00,52.075
923.00,52.055
924.00,52.038
925.00,52.032
926.00,51.970
927.00,51.980
928.00,51.958
929.00,51.925
930.00,51.982
931.00,51.891
932.00,51.851
933.00,51.861
934.00,51.822
935.00,51.807
936.00,51.767
937.00,51.734
938.00,51.714
939.00,51.735
940.00,51.692
941.00,51.684
942.00,51.650
943.00,51.640
944.00,51.596
945.00,51.592
946.00,51.708
947.00,51.569
948.00,51.543
949.00,51.486
950.00,51.482
951.00,51.433
952.00,51.427
953.00,51.418
954.00,51.376
955.00,51.350
956.00,51.336
957.00,51.280
958.00,51.309
959.00,51.327
960.00,51.240
961.00,51.221
962.00,51.224
963.00,51.187
964.00,51.174
965.00,51.146
966.00,51.156
967.00,51.152
968.00,51.131
969.00,51.143
970.00,51.109
971.00,51.133
972.00,51.100
973.00,51.097
974.00,51.142
975.00,51.106
976.00,51.117
977.00,51.079
978.00,51.132
979.00,51.092
980.00,51.108
981.00,51.104
982.00,51.092
983.00,51.080
984.00,51.054
985.00,51.092
986.00,51.049
987.00,51.043
988.00,51.040
989.00,51.001
990.00,51.000
991.00,51.004
992.00,51.003
993.00,50.965
994.00,50.948
995.00,50.933
996.00,50.927
997.00,50.925
998.00,50.873
999.00,50.913
1000.00,50.857
1001.00,50.870
1002.00,50.857
1003.00,50.843
1004.00,50.830
1005.00,50.803
1006.00,50.821
1007.00,50.826
1008.00,50.775
1009.00,50.754
1010.00,50.742
1011.00,50.732
1012.00,50.695
1013.00,50.722
1014.00,50.656
1015.00,50.678
1016.00,50.646
1017.00,50.649
1018.00,50.617
1019.00,50.584
1020.00,50.572
1021.00,50.556
1022.00,50.556
1023.00,50.503
1024.00,50.528
1025.00,50.503
1026.00,50.497
1027.00,50.478
1028.00,50.460
1029.00,50.453
1030.00,50.412
1031.00,50.418
1032.00,50.389
1033.00,50.377
1034.00,50.357
1035.00,50.318
1036.00,50.291
1037.00,50.275
1038.00,50.267
1039.00,50.228
1040.00,50.236
1041.00,50.199
1042.00,50.189
1043.00,50.169
1044.00,50.194
1045.00,50.173
1046.00,50.170
1047.00,50.176
1048.00,50.197
1049.00,50.202
1050.00,50.196
1051.00,50.234
1052.00,50.265
1053.00,50.240
1054.00,50.241
1055.00,50.250
1056.00,50.251
1057.00,50.267
1058.00,50.249
1059.00,50.246
1060.00,50.250
1061.00,50.242
1062.00,50.234
1063.00,50.244
1064.00,50.217
1065.00,50.219
1066.00,50.209
1067.00,50.203
1068.00,50.209
1069.00,50.174
1070.00,50.151
1071.00,50.141
1072.00,50.150
1073.00,50.128
1074.00,50.142
1075.00,50.109
1076.00,50.113
1077.00,50.092
1078.00,50.085
1079.00,50.075
1080.00,50.067
1081.00,50.047
1082.00,50.057
1083.00,50.029
1084.00,50.029
1085.00,50.021
1086.00,50.015
1087.00,50.010
1088.00,49.990
1089.00,49.975
1090.00,49.985
1091.00,49.964
1092.00,49.956
1093.00,49.941
1094.00,49.924
1095.00,49.917
1096.00,49.915
1097.00,49.904
1098.00,49.929
1099.00,49.887
1100.00,49.872
1101.00,49.860
1102.00,49.852
1103.00,49.832
1104.00,49.833
1105.00,49.805
1106.00,49.813
1107.00,49.809
1108.00,49.799
1109.00,49.784
1110.00,49.787
1111.00,49.781
1112.00,49.766
1113.00,49.753
1114.00,49.753
1115.00,49.753
1116.00,49.733
1117.00,49.718
1118.00,49.730
1119.00,49.704
1120.00,49.712
1121.00,49.700
1122.00,49.696
1123.00,49.690
1124.00,49.674
1125.00,49.671
1126.00,49.662
1127.00,49.638
1128.00,49.652
1129.00,49.652
1130.00,49.621
1131.00,49.612
1132.00,49.612
1133.00,49.599
1134.00,49.603
1135.00,49.575
1136.00,49.579
1137.00,49.585
1138.00,49.577
1139.00,49.583
1140.00,49.582
1141.00,49.553
1142.00,49.563
1143.00,49.575
1144.00,49.557
1145.00,49.540
1146.00,49.543
1147.00,49.540
1148.00,49.540
1149.00,49.544
1150.00,49.547
1151.00,49.561
1152.00,49.523
1153.00,49.531
1154.00,49.516
1155.00,49.503
1156.00,49.504
1157.00,49.499
1158.00,49.495
1159.00,49.493
1160.00,49.477
1161.00,49.509
1162.00,49.506
1163.00,49.488
1164.00,49.486
1165.00,49.494
1166.00,49.492
1167.00,49.497
1168.00,49.489
1169.00,49.495
1170.00,49.498
1171.00,49.461
1172.00,49.480
1173.00,49.480
1174.00,49.465
1175.00,49.476
1176.00,49.479
1177.00,49.476
1178.00,49.469
1179.00,49.484
1180.00,49.473
1181.00,49.501
1182.00,49.486
1183.00,49.472
1184.00,49.463
1185.00,49.469
1186.00,49.465
1187.00,49.458
1188.00,49.435
1189.00,49.444
1190.00,49.437
1191.00,49.440
1192.00,49.469
1193.00,49.448
1194.00,49.466
1195.00,49.444
1196.00,49.455
1197.00,49.472
1198.00,49.453
1199.00,49.424
1200.00,49.442
1201.00,49.438
1202.00,49.434
1203.00,49.435
1204.00,49.408
1205.00,49.446
1206.00,49.431
1207.00,49.419
1208.00,49.410
1209.00,49.412
1210.00,49.415
1211.00,49.415
1212.00,49.437
1213.00,49.401
1214.00,49.414
1215.00,49.402
1216.00,49.426
1217.00,49.436
1218.00,49.399
1219.00,49.434
1220.00,49.412
1221.00,49.418
1222.00,49.419
1223.00,49.431
1224.00,49.432
1225.00,49.425
1226.00,49.418
1227.00,49.413
1228.00,49.437
1229.00,49.440
1230.00,49.478
1231.00,49.460
1232.00,49.459
1233.00,49.474
1234.00,49.475
1235.00,49.460
1236.00,49.469
1237.00,49.446
1238.00,49.472
1239.00,49.471
1240.00,49.460
1241.00,49.475
1242.00,49.464
1243.00,49.483
1244.00,49.464
1245.00,49.482
1246.00,49.490
1247.00,49.491
1248.00,49.464
1249.00,49.484
1250.00,49.490
1251.00,49.464
1252.00,49.491
1253.00,49.473
1254.00,49.501
1255.00,49.495
1256.00,49.472
1257.00,49.459
1258.00,49.527
1259.00,49.510
1260.00,49.539
1261.00,49.543
1262.00,49.524
1263.00,49.524
1264.00,49.536
1265.00,49.523
1266.00,49.543
1267.00,49.533
1268.00,49.558
1269.00,49.547
1270.00,49.548
1271.00,49.569
1272.00,49.578
1273.00,49.568
1274.00,49.569
1275.00,49.572
1276.00,49.577
1277.00,49.569
1278.00,49.593
1279.00,49.587
1280.00,49.612
1281.00,49.620
1282.00,49.631
1283.00,49.620
1284.00,49.611
1285.00,49.612
1286.00,49.623
1287.00,49.620
1288.00,49.624
1289.00,49.624
1290.00,49.645
1291.00,49.645
1292.00,49.641
1293.00,49.637
1294.00,49.647
1295.00,49.656
1296.00,49.662
1297.00,49.668
1298.00,49.672
1299.00,49.678
1300.00,49.672
1301.00,49.683
1302.00,49.691
1303.00,49.706
1304.00,49.691
1305.00,49.716
1306.00,49.708
1307.00,49.724
1308.00,49.724
1309.00,49.718
1310.00,49.739
1311.00,49.720
1312.00,49.726
1313.00,49.740
1314.00,49.749
1315.00,49.762
1316.00,49.764
1317.00,49.764
1318.00,49.780
1319.00,49.766
1320.00,49.790
1321.00,49.946
1322.00,49.963
1323.00,49.941
1324.00,49.944
1325.00,49.913
1326.00,49.956
1327.00,49.950
1328.00,49.929
1329.00,49.948
1330.00,49.941
1331.00,49.931
1332.00,49.956
1333.00,49.983
1334.00,49.984
1335.00,50.008
1336.00,50.024
1337.00,50.065
1338.00,50.125
1339.00,50.166
1340.00,50.229
1341.00,50.292
1342.00,50.349
1343.00,50.413
1344.00,50.453
1345.00,50.484
1346.00,50.538
1347.00,50.562
1348.00,50.585
1349.00,50.593
1350.00,50.605
1351.00,50.650
1352.00,50.659
1353.00,50.676
1354.00,50.669
1355.00,50.635
1356.00,50.662
1357.00,50.682
1358.00,50.646
1359.00,50.724
1360.00,50.693
1361.00,50.632
1362.00,50.684
1363.00,50.805
1364.00,50.697
1365.00,50.685
1366.00,50.731
1367.00,50.694
1368.00,50.632
1369.00,50.710
1370.00,50.631
1371.00,50.840
1372.00,50.643
1373.00,50.652
1374.00,50.663
1375.00,50.611
1376.00,50.640
1377.00,50.674
1378.00,50.665
1379.00,50.677
1380.00,50.673
1381.00,50.641
1382.00,50.682
1383.00,50.653
1384.00,50.576
1385.00,50.596
1386.00,50.459
1387.00,50.640
1388.00,50.606
1389.00,50.582
1390.00,50.673
1391.00,50.677
1392.00,50.648
1393.00,50.635
1394.00,50.647
1395.00,50.597
1396.00,50.614
1397.00,50.674
1398.00,50.718
1399.00,50.645
1400.00,50.593
1401.00,50.655
1402.00,50.699
1403.00,50.630
1404.00,50.651
1405.00,50.677
1406.00,50.669
1407.00,50.725
1408.00,50.697
1409.00,50.653
1410.00,50.720
1411.00,50.682
1412.00,50.779
1413.00,50.702
1414.00,50.720
1415.00,50.760
1416.00,50.862
1417.00,50.764
1418.00,50.777
1419.00,50.748
1420.00,50.796
1421.00,50.828
1422.00,50.814
1423.00,50.828
1424.00,50.831
1425.00,50.824
1426.00,50.873
1427.00,50.869
1428.00,50.887
1429.00,50.906
1430.00,50.910
1431.00,50.922
1432.00,50.931
1433.00,50.947
1434.00,50.943
1435.00,50.988
1436.00,50.992
1437.00,50.997
1438.00,50.994
1439.00,51.043
1440.00,51.062
1441.00,51.057
1442.00,51.086
1443.00,51.138
1444.00,51.125
1445.00,51.122
1446.00,51.136
1447.00,51.173
1448.00,51.196
1449.00,51.185
1450.00,51.196
1451.00,51.219
1452.00,51.220
1453.00,51.249
1454.00,51.245
1455.00,51.253
1456.00,51.302
1457.00,51.300
1458.00,51.311
1459.00,51.347
1460.00,51.330
1461.00,51.366
1462.00,51.382
1463.00,51.383
1464.00,51.400
1465.00,51.417
1466.00,51.406
1467.00,51.429
1468.00,51.465
1469.00,51.466
1470.00,51.473
1471.00,51.478
1472.00,51.504
1473.00,51.522
1474.00,51.526
1475.00,51.546
1476.00,51.559
1477.00,51.540
1478.00,51.560
1479.00,51.583
1480.00,51.589
1481.00,51.599
1482.00,51.628
1483.00,51.645
1484.00,51.649
1485.00,51.661
1486.00,51.674
1487.00,51.705
1488.00,51.674
1489.00,51.693
1490.00,51.701
1491.00,51.708
1492.00,51.717
1493.00,51.713
1494.00,51.731
1495.00,51.755
1496.00,51.743
1497.00,51.762
1498.00,51.757
1499.00,51.762
1500.00,51.808
1501.00, 
1502.00, 
1503.00, 
1504.00, 
1505.00, 
1506.00, 
1507.00, 
1508.00, 
1509.00, 
1510.00, 
1511.00, 
1512.00, 
1513.00, 
1514.00, 
1515.00, 
1516.00, 
1517.00, 
1518.00, 
1519.00, 
1520.00, 
1521.00, 
1522.00, 
1523.00, 
1524.00, 
1525.00, 
1526.00, 
1527.00, 
1528.00, 
1529.00, 
1530.00, 
1531.00, 
1532.00, 
1533.00, 
1534.00, 
1535.00, 
1536.00, 
1537.00, 
1538.00, 
1539.00, 
1540.00, 
1541.00, 
1542.00, 
1543.00, 
1544.00, 
1545.00, 
1546.00, 
1547.00, 
1548.00, 
1549.00, 
1550.00, 
1551.00, 
1552.00, 
1553.00, 
1554.00, 
1555.00, 
1556.00, 
1557.00, 
1558.00, 
1559.00, 
1560.00, 
1561.00, 
1562.00, 
1563.00, 
1564.00, 
1565.00, 
1566.00, 
1567.00, 
1568.00, 
1569.00, 
1570.00, 
1571.00, 
1572.00, 
1573.00, 
1574.00, 
1575.00, 
1576.00, 
1577.00, 
1578.00, 
1579.00, 
1580.00, 
1581.00, 
1582.00, 
1583.00, 
1584.00, 
1585.00, 
1586.00, 
1587.00, 
1588.00, 
1589.00, 
1590.00, 
1591.00, 
1592.00, 
1593.00, 
1594.00, 
1595.00, 
1596.00, 
1597.00, 
1598.00, 
1599.00, 
1600.00, 
1601.00, 
1602.00, 
1603.00, 
1604.00, 
1605.00, 
1606.00, 
1607.00, 
1608.00, 
1609.00, 
1610.00, 
1611.00, 
1612.00, 
1613.00, 
1614.00, 
1615.00, 
1616.00, 
1617.00, 
1618.00, 
1619.00, 
1620.00, 
1621.00, 
1622.00, 
1623.00, 
1624.00, 
1625.00, 
1626.00, 
1627.00, 
1628.00, 
1629.00, 
1630.00, 
1631.00, 
1632.00, 
1633.00, 
1634.00, 
1635.00, 
1636.00, 
1637.00, 
1638.00, 
1639.00, 
1640.00, 
1641.00, 
1642.00, 
1643.00, 
1644.00, 
1645.00, 
1646.00, 
1647.00, 
1648.00, 
1649.00, 
1650.00, 
1651.00, 
1652.00, 
1653.00, 
1654.00, 
1655.00, 
1656.00, 
1657.00, 
1658.00, 
1659.00, 
1660.00, 
1661.00, 
1662.00, 
1663.00, 
1664.00, 
1665.00, 
1666.00, 
1667.00, 
1668.00, 
1669.00, 
1670.00, 
1671.00, 
1672.00, 
1673.00, 
1674.00, 
1675.00, 
1676.00, 
1677.00, 
1678.00, 
1679.00, 
1680.00, 
1681.00, 
1682.00, 
1683.00, 
1684.00, 
1685.00, 
1686.00, 
1687.00, 
1688.00, 
1689.00, 
1690.00, 
1691.00, 
1692.00, 
1693.00, 
1694.00, 
1695.00, 
1696.00, 
1697.00, 
1698.00, 
1699.00, 
1700.00, 
1701.00, 
1702.00, 
1703.00, 
1704.00, 
1705.00, 
1706.00, 
1707.00, 
1708.00, 
1709.00, 
1710.00, 
1711.00, 
1712.00, 
1713.00, 
1714.00, 
1715.00, 
1716.00, 
1717.00, 
1718.00, 
1719.00, 
1720.00, 
1721.00, 
1722.00, 
1723.00, 
1724.00, 
1725.00, 
1726.00, 
1727.00, 
1728.00, 
1729.00, 
1730.00, 
1731.00, 
1732.00, 
1733.00, 
1734.00, 
1735.00, 
1736.00, 
1737.00, 
1738.00, 
1739.00, 
1740.00, 
1741.00, 
1742.00, 
1743.00, 
1744.00, 
1745.00, 
1746.00, 
1747.00, 
1748.00, 
1749.00, 
1750.00, 
1751.00, 
1752.00, 
1753.00, 
1754.00, 
1755.00, 
1756.00, 
1757.00, 
1758.00, 
1759.00, 
1760.00, 
1761.00, 
1762.00, 
1763.00, 
1764.00, 
1765.00, 
1766.00, 
1767.00, 
1768.00, 
1769.00, 
1770.00, 
1771.00, 
1772.00, 
1773.00, 
1774.00, 
1775.00, 
1776.00, 
1777.00, 
1778.00, 
1779.00, 
1780.00, 
1781.00, 
1782.00, 
1783.00, 
1784.00, 
1785.00, 
1786.00, 
1787.00, 
1788.00, 
1789.00, 
1790.00, 
1791.00, 
1792.00, 
1793.00, 
1794.00, 
1795.00, 
1796.00, 
1797.00, 
1798.00, 
1799.00, 
1800.00, 
1801.00, 
1802.00, 
1803.00, 
1804.00, 
1805.00, 
1806.00, 
1807.00, 
1808.00, 
1809.00, 
1810.00, 
1811.00, 
1812.00, 
1813.00, 
1814.00, 
1815.00, 
1816.00, 
1817.00, 
1818.00, 
1819.00, 
1820.00, 
1821.00, 
1822.00, 
1823.00, 
1824.00, 
1825.00, 
1826.00, 
1827.00, 
1828.00, 
1829.00, 
1830.00, 
1831.00, 
1832.00, 
1833.00, 
1834.00, 
1835.00, 
1836.00, 
1837.00, 
1838.00, 
1839.00, 
1840.00, 
1841.00, 
1842.00, 
1843.00, 
1844.00, 
1845.00, 
1846.00, 
1847.00, 
1848.00, 
1849.00, 
1850.00, 
1851.00, 
1852.00, 
1853.00, 
1854.00, 
1855.00, 
1856.00, 
1857.00, 
1858.00, 
1859.00, 
1860.00, 
1861.00, 
1862.00, 
1863.00, 
1864.00, 
1865.00, 
1866.00, 
1867.00, 
1868.00, 
1869.00, 
1870.00, 
1871.00, 
1872.00, 
1873.00, 
1874.00, 
1875.00, 
1876.00, 
1877.00, 
1878.00, 
1879.00, 
1880.00, 
1881.00, 
1882.00, 
1883.00, 
1884.00, 
1885.00, 
1886.00, 
1887.00, 
1888.00, 
1889.00, 
1890.00, 
1891.00, 
1892.00, 
1893.00, 
1894.00, 
1895.00, 
1896.00, 
1897.00, 
1898.00, 
1899.00, 
1900.00, 
1901.00, 
1902.00, 
1903.00, 
1904.00, 
1905.00, 
1906.00, 
1907.00, 
1908.00, 
1909.00, 
1910.00, 
1911.00, 
1912.00, 
1913.00, 
1914.00, 
1915.00, 
1916.00, 
1917.00, 
1918.00, 
1919.00, 
1920.00, 
1921.00, 
1922.00, 
1923.00, 
1924.00, 
1925.00, 
1926.00, 
1927.00, 
1928.00, 
1929.00, 
1930.00, 
1931.00, 
1932.00, 
1933.00, 
1934.00, 
1935.00, 
1936.00, 
1937.00, 
1938.00, 
1939.00, 
1940.00, 
1941.00, 
1942.00, 
1943.00, 
1944.00, 
1945.00, 
1946.00, 
1947.00, 
1948.00, 
1949.00, 
1950.00, 
1951.00, 
1952.00, 
1953.00, 
1954.00, 
1955.00, 
1956.00, 
1957.00, 
1958.00, 
1959.00, 
1960.00, 
1961.00, 
1962.00, 
1963.00, 
1964.00, 
1965.00, 
1966.00, 
1967.00, 
1968.00, 
1969.00, 
1970.00, 
1971.00, 
1972.00, 
1973.00, 
1974.00, 
1975.00, 
1976.00, 
1977.00, 
1978.00, 
1979.00, 
1980.00, 
1981.00, 
1982.00, 
1983.00, 
1984.00, 
1985.00, 
1986.00, 
1987.00, 
1988.00, 
1989.00, 
1990.00, 
1991.00, 
1992.00, 
1993.00, 
1994.00, 
1995.00, 
1996.00, 
1997.00, 
1998.00, 
1999.00, 
2000.00, 
2001.00, 
2002.00, 
2003.00, 
2004.00, 
2005.00, 
2006.00, 
2007.00, 
2008.00, 
2009.00, 
2010.00, 
2011.00, 
2012.00, 
2013.00, 
2014.00, 
2015.00, 
2016.00, 
2017.00, 
2018.00, 
2019.00, 
2020.00, 
2021.00, 
2022.00, 
2023.00, 
2024.00, 
2025.00, 
2026.00, 
2027.00, 
2028.00, 
2029.00, 
2030.00, 
2031.00, 
2032.00, 
2033.00, 
2034.00, 
2035.00, 
2036.00, 
2037.00, 
2038.00, 
2039.00, 
2040.00, 
2041.00, 
2042.00, 
2043.00, 
2044.00, 
2045.00, 
2046.00, 
2047.00, 
2048.00, 
2049.00, 
2050.00, 
2051.00, 
2052.00, 
2053.00, 
2054.00, 
2055.00, 
2056.00, 
2057.00, 
2058.00, 
2059.00, 
2060.00, 
2061.00, 
2062.00, 
2063.00, 
2064.00, 
2065.00, 
2066.00, 
2067.00, 
2068.00, 
2069.00, 
2070.00, 
2071.00, 
2072.00, 
2073.00, 
2074.00, 
2075.00, 
2076.00, 
2077.00, 
2078.00, 
2079.00, 
2080.00, 
2081.00, 
2082.00, 
2083.00, 
2084.00, 
2085.00, 
2086.00, 
2087.00, 
2088.00, 
2089.00, 
2090.00, 
2091.00, 
2092.00, 
2093.00, 
2094.00, 
2095.00, 
2096.00, 
2097.00, 
2098.00, 
2099.00, 
2100.00, 
2101.00, 
2102.00, 
2103.00, 
2104.00, 
2105.00, 
2106.00, 
2107.00, 
2108.00, 
2109.00, 
2110.00, 
2111.00, 
2112.00, 
2113.00, 
2114.00, 
2115.00, 
2116.00, 
2117.00, 
2118.00, 
2119.00, 
2120.00, 
2121.00, 
2122.00, 
2123.00, 
2124.00, 
2125.00, 
2126.00, 
2127.00, 
2128.00, 
2129.00, 
2130.00, 
2131.00, 
2132.00, 
2133.00, 
2134.00, 
2135.00, 
2136.00, 
2137.00, 
2138.00, 
2139.00, 
2140.00, 
2141.00, 
2142.00, 
2143.00, 
2144.00, 
2145.00, 
2146.00, 
2147.00, 
2148.00, 
2149.00, 
2150.00, 
2151.00, 
2152.00, 
2153.00, 
2154.00, 
2155.00, 
2156.00, 
2157.00, 
2158.00, 
2159.00, 
2160.00, 
2161.00, 
2162.00, 
2163.00, 
2164.00, 
2165.00, 
2166.00, 
2167.00, 
2168.00, 
2169.00, 
2170.00, 
2171.00, 
2172.00, 
2173.00, 
2174.00, 
2175.00, 
2176.00, 
2177.00, 
2178.00, 
2179.00, 
2180.00, 
2181.00, 
2182.00, 
2183.00, 
2184.00, 
2185.00, 
2186.00, 
2187.00, 
2188.00, 
2189.00, 
2190.00, 
2191.00, 
2192.00, 
2193.00, 
2194.00, 
2195.00, 
2196.00, 
2197.00, 
2198.00, 
2199.00, 
2200.00, 
2201.00, 
2202.00, 
2203.00, 
2204.00, 
2205.00, 
2206.00, 
2207.00, 
2208.00, 
2209.00, 
2210.00, 
2211.00, 
2212.00, 
2213.00, 
2214.00, 
2215.00, 
2216.00, 
2217.00, 
2218.00, 
2219.00, 
2220.00, 
2221.00, 
2222.00, 
2223.00, 
2224.00, 
2225.00, 
2226.00, 
2227.00, 
2228.00, 
2229.00, 
2230.00, 
2231.00, 
2232.00, 
2233.00, 
2234.00, 
2235.00, 
2236.00, 
2237.00, 
2238.00, 
2239.00, 
2240.00, 
2241.00, 
2242.00, 
2243.00, 
2244.00, 
2245.00, 
2246.00, 
2247.00, 
2248.00, 
2249.00, 
2250.00, 
2251.00, 
2252.00, 
2253.00, 
2254.00, 
2255.00, 
2256.00, 
2257.00, 
2258.00, 
2259.00, 
2260.00, 
2261.00, 
2262.00, 
2263.00, 
2264.00, 
2265.00, 
2266.00, 
2267.00, 
2268.00, 
2269.00, 
2270.00, 
2271.00, 
2272.00, 
2273.00, 
2274.00, 
2275.00, 
2276.00, 
2277.00, 
2278.00, 
2279.00, 
2280.00, 
2281.00, 
2282.00, 
2283.00, 
2284.00, 
2285.00, 
2286.00, 
2287.00, 
2288.00, 
2289.00, 
2290.00, 
2291.00, 
2292.00, 
2293.00, 
2294.00, 
2295.00, 
2296.00, 
2297.00, 
2298.00, 
2299.00, 
2300.00, 
2301.00, 
2302.00, 
2303.00, 
2304.00, 
2305.00, 
2306.00, 
2307.00, 
2308.00, 
2309.00, 
2310.00, 
2311.00, 
2312.00, 
2313.00, 
2314.00, 
2315.00, 
2316.00, 
2317.00, 
2318.00, 
2319.00, 
2320.00, 
2321.00, 
2322.00, 
2323.00, 
2324.00, 
2325.00, 
2326.00, 
2327.00, 
2328.00, 
2329.00, 
2330.00, 
2331.00, 
2332.00, 
2333.00, 
2334.00, 
2335.00, 
2336.00, 
2337.00, 
2338.00, 
2339.00, 
2340.00, 
2341.00, 
2342.00, 
2343.00, 
2344.00, 
2345.00, 
2346.00, 
2347.00, 
2348.00, 
2349.00, 
2350.00, 
2351.00, 
2352.00, 
2353.00, 
2354.00, 
2355.00, 
2356.00, 
2357.00, 
2358.00, 
2359.00, 
2360.00, 
2361.00, 
2362.00, 
2363.00, 
2364.00, 
2365.00, 
2366.00, 
2367.00, 
2368.00, 
2369.00, 
2370.00, 
2371.00, 
2372.00, 
2373.00, 
2374.00, 
2375.00, 
2376.00, 
2377.00, 
2378.00, 
2379.00, 
2380.00, 
2381.00, 
2382.00, 
2383.00, 
2384.00, 
2385.00, 
2386.00, 
2387.00, 
2388.00, 
2389.00, 
2390.00, 
2391.00, 
2392.00, 
2393.00, 
2394.00, 
2395.00, 
2396.00, 
2397.00, 
2398.00, 
2399.00, 
2400.00, 
2401.00, 
2402.00, 
2403.00, 
2404.00, 
2405.00, 
2406.00, 
2407.00, 
2408.00, 
2409.00, 
2410.00, 
2411.00, 
2412.00, 
2413.00, 
2414.00, 
2415.00, 
2416.00, 
2417.00, 
2418.00, 
2419.00, 
2420.00, 
2421.00, 
2422.00, 
2423.00, 
2424.00, 
2425.00, 
2426.00, 
2427.00, 
2428.00, 
2429.00, 
2430.00, 
2431.00, 
2432.00, 
2433.00, 
2434.00, 
2435.00, 
2436.00, 
2437.00, 
2438.00, 
2439.00, 
2440.00, 
2441.00, 
2442.00, 
2443.00, 
2444.00, 
2445.00, 
2446.00, 
2447.00, 
2448.00, 
2449.00, 
2450.00, 
2451.00, 
2452.00, 
2453.00, 
2454.00, 
2455.00, 
2456.00, 
2457.00, 
2458.00, 
2459.00, 
2460.00, 
2461.00, 
2462.00, 
2463.00, 
2464.00, 
2465.00, 
2466.00, 
2467.00, 
2468.00, 
2469.00, 
2470.00, 
2471.00, 
2472.00, 
2473.00, 
2474.00, 
2475.00, 
2476.00, 
2477.00, 
2478.00, 
2479.00, 
2480.00, 
2481.00, 
2482.00, 
2483.00, 
2484.00, 
2485.00, 
2486.00, 
2487.00, 
2488.00, 
2489.00, 
2490.00, 
2491.00, 
2492.00, 
2493.00, 
2494.00, 
2495.00, 
2496.00, 
2497.00, 
2498.00, 
2499.00, 
2500.00, 
2501.00, 
2502.00, 
2503.00, 
2504.00, 
2505.00, 
2506.00, 
2507.00, 
2508.00, 
2509.00, 
2510.00, 
2511.00, 
2512.00, 
2513.00, 
2514.00, 
2515.00, 
2516.00, 
2517.00, 
2518.00, 
2519.00, 
2520.00, 
2521.00, 
2522.00, 
2523.00, 
2524.00, 
2525.00, 
2526.00, 
2527.00, 
2528.00, 
2529.00, 
2530.00, 
2531.00, 
2532.00, 
2533.00, 
2534.00, 
2535.00, 
2536.00, 
2537.00, 
2538.00, 
2539.00, 
2540.00, 
2541.00, 
2542.00, 
2543.00, 
2544.00, 
2545.00, 
2546.00, 
2547.00, 
2548.00, 
2549.00, 
2550.00, 
2551.00, 
2552.00, 
2553.00, 
2554.00, 
2555.00, 
2556.00, 
2557.00, 
2558.00, 
2559.00, 
2560.00, 
2561.00, 
2562.00, 
2563.00, 
2564.00, 
2565.00, 
2566.00, 
2567.00, 
2568.00, 
2569.00, 
2570.00, 
2571.00, 
2572.00, 
2573.00, 
2574.00, 
2575.00, 
2576.00, 
2577.00, 
2578.00, 
2579.00, 
2580.00, 
2581.00, 
2582.00, 
2583.00, 
2584.00, 
2585.00, 
2586.00, 
2587.00, 
2588.00, 
2589.00, 
2590.00, 
2591.00, 
2592.00, 
2593.00, 
2594.00, 
2595.00, 
2596.00, 
2597.00, 
2598.00, 
2599.00, 
2600.00, 
