"2cP3 - RawData"
"Wavelength nm.","T%"
200.00,0.002
201.00,0.000
202.00,-0.000
203.00,0.002
204.00,0.001
205.00,0.001
206.00,0.001
207.00,0.001
208.00,0.002
209.00,0.003
210.00,-0.002
211.00,0.004
212.00,0.001
213.00,0.003
214.00,0.001
215.00,0.001
216.00,0.000
217.00,-0.002
218.00,-0.000
219.00,0.002
220.00,0.003
221.00,-0.001
222.00,-0.000
223.00,0.002
224.00,0.002
225.00,0.001
226.00,0.001
227.00,0.004
228.00,0.002
229.00,0.002
230.00,0.001
231.00,-0.001
232.00,-0.000
233.00,0.002
234.00,-0.001
235.00,0.001
236.00,-0.000
237.00,0.001
238.00,-0.001
239.00,0.001
240.00,-0.000
241.00,0.001
242.00,0.002
243.00,-0.001
244.00,0.003
245.00,0.001
246.00,-0.001
247.00,-0.000
248.00,-0.000
249.00,0.000
250.00,0.001
251.00,0.002
252.00,-0.001
253.00,0.001
254.00,0.002
255.00,0.002
256.00,0.001
257.00,0.000
258.00,-0.000
259.00,0.004
260.00,-0.002
261.00,0.000
262.00,-0.001
263.00,0.001
264.00,0.000
265.00,-0.000
266.00,-0.001
267.00,0.001
268.00,0.001
269.00,-0.001
270.00,-0.000
271.00,-0.002
272.00,0.000
273.00,-0.001
274.00,0.001
275.00,-0.000
276.00,0.000
277.00,0.001
278.00,-0.001
279.00,0.001
280.00,0.001
281.00,0.001
282.00,0.001
283.00,0.001
284.00,-0.002
285.00,0.001
286.00,0.001
287.00,-0.000
288.00,0.001
289.00,-0.000
290.00,-0.000
291.00,-0.000
292.00,-0.001
293.00,0.001
294.00,0.001
295.00,0.002
296.00,0.000
297.00,0.000
298.00,-0.001
299.00,0.002
300.00,0.005
301.00,0.003
302.00,0.007
303.00,0.010
304.00,0.013
305.00,0.024
306.00,0.037
307.00,0.051
308.00,0.078
309.00,0.121
310.00,0.177
311.00,0.239
312.00,0.324
313.00,0.440
314.00,0.575
315.00,0.750
316.00,0.958
317.00,1.202
318.00,1.494
319.00,1.845
320.00,2.241
321.00,2.685
322.00,3.194
323.00,3.769
324.00,4.358
325.00,4.976
326.00,5.610
327.00,6.336
328.00,7.102
329.00,7.857
330.00,8.641
331.00,9.447
332.00,10.306
333.00,11.184
334.00,11.896
335.00,12.867
336.00,13.725
337.00,14.589
338.00,15.415
339.00,16.213
340.00,17.001
341.00,17.739
342.00,18.489
343.00,19.224
344.00,19.882
345.00,20.570
346.00,21.125
347.00,21.813
348.00,22.406
349.00,22.935
350.00,23.413
351.00,23.874
352.00,24.290
353.00,24.738
354.00,25.141
355.00,25.511
356.00,25.857
357.00,26.222
358.00,26.544
359.00,26.821
360.00,27.107
361.00,27.368
362.00,27.548
363.00,27.821
364.00,28.075
365.00,28.235
366.00,28.378
367.00,28.535
368.00,28.637
369.00,28.739
370.00,28.800
371.00,28.905
372.00,28.960
373.00,28.995
374.00,29.015
375.00,29.003
376.00,28.997
377.00,29.031
378.00,28.949
379.00,28.950
380.00,28.956
381.00,28.939
382.00,28.979
383.00,28.997
384.00,29.074
385.00,29.135
386.00,29.202
387.00,29.322
388.00,29.394
389.00,29.430
390.00,29.476
391.00,29.540
392.00,29.604
393.00,29.671
394.00,29.727
395.00,29.766
396.00,29.744
397.00,29.809
398.00,29.779
399.00,29.835
400.00,29.833
401.00,29.905
402.00,29.894
403.00,29.930
404.00,29.924
405.00,29.900
406.00,29.883
407.00,29.870
408.00,29.865
409.00,29.822
410.00,29.785
411.00,29.740
412.00,29.702
413.00,29.767
414.00,29.711
415.00,29.641
416.00,29.731
417.00,29.842
418.00,29.881
419.00,29.839
420.00,29.903
421.00,29.964
422.00,29.974
423.00,29.998
424.00,30.031
425.00,30.094
426.00,30.121
427.00,30.124
428.00,30.175
429.00,30.151
430.00,30.270
431.00,30.297
432.00,30.354
433.00,30.396
434.00,30.451
435.00,30.548
436.00,30.548
437.00,30.612
438.00,30.680
439.00,30.741
440.00,30.814
441.00,30.811
442.00,30.904
443.00,30.963
444.00,31.053
445.00,31.120
446.00,31.201
447.00,31.298
448.00,31.402
449.00,31.461
450.00,31.551
451.00,31.663
452.00,31.715
453.00,31.867
454.00,31.919
455.00,31.993
456.00,32.121
457.00,32.207
458.00,32.327
459.00,32.413
460.00,32.508
461.00,32.597
462.00,32.695
463.00,32.784
464.00,32.914
465.00,33.007
466.00,33.105
467.00,33.207
468.00,33.267
469.00,33.330
470.00,33.454
471.00,33.525
472.00,33.641
473.00,33.682
474.00,33.759
475.00,33.798
476.00,33.960
477.00,34.070
478.00,34.160
479.00,34.322
480.00,34.471
481.00,34.548
482.00,34.675
483.00,34.821
484.00,34.920
485.00,35.069
486.00,35.166
487.00,35.288
488.00,35.417
489.00,35.550
490.00,35.702
491.00,35.819
492.00,35.924
493.00,36.092
494.00,36.161
495.00,36.183
496.00,36.230
497.00,36.283
498.00,36.455
499.00,36.421
500.00,36.531
501.00,36.626
502.00,36.932
503.00,37.043
504.00,37.064
505.00,37.226
506.00,37.341
507.00,37.365
508.00,37.465
509.00,37.642
510.00,37.704
511.00,37.757
512.00,37.877
513.00,38.018
514.00,38.015
515.00,38.124
516.00,38.226
517.00,38.168
518.00,38.494
519.00,38.539
520.00,38.608
521.00,38.670
522.00,38.727
523.00,38.849
524.00,38.900
525.00,38.986
526.00,39.113
527.00,39.226
528.00,39.257
529.00,39.370
530.00,39.451
531.00,39.573
532.00,39.628
533.00,39.711
534.00,39.844
535.00,39.882
536.00,39.948
537.00,40.022
538.00,40.115
539.00,40.147
540.00,40.209
541.00,40.254
542.00,40.308
543.00,40.401
544.00,40.360
545.00,40.497
546.00,40.612
547.00,40.683
548.00,40.721
549.00,40.740
550.00,40.928
551.00,40.968
552.00,40.971
553.00,41.071
554.00,41.188
555.00,41.229
556.00,41.306
557.00,41.338
558.00,41.328
559.00,41.406
560.00,41.499
561.00,41.501
562.00,41.613
563.00,41.644
564.00,41.719
565.00,41.759
566.00,41.705
567.00,41.775
568.00,41.819
569.00,41.822
570.00,41.840
571.00,41.924
572.00,41.921
573.00,41.982
574.00,42.045
575.00,42.078
576.00,42.105
577.00,42.165
578.00,42.232
579.00,42.309
580.00,42.370
581.00,42.448
582.00,42.546
583.00,42.557
584.00,42.729
585.00,42.703
586.00,42.710
587.00,42.810
588.00,42.823
589.00,42.935
590.00,42.976
591.00,42.983
592.00,42.979
593.00,43.058
594.00,43.065
595.00,43.064
596.00,43.176
597.00,43.196
598.00,43.315
599.00,43.343
600.00,43.434
601.00,43.404
602.00,43.352
603.00,43.475
604.00,43.537
605.00,43.573
606.00,43.694
607.00,43.637
608.00,43.737
609.00,43.730
610.00,43.779
611.00,43.827
612.00,43.825
613.00,43.822
614.00,43.831
615.00,43.912
616.00,43.957
617.00,44.004
618.00,44.056
619.00,44.034
620.00,44.096
621.00,44.116
622.00,44.212
623.00,44.257
624.00,44.264
625.00,44.346
626.00,44.339
627.00,44.421
628.00,44.433
629.00,44.488
630.00,44.597
631.00,44.583
632.00,44.630
633.00,44.707
634.00,44.742
635.00,44.821
636.00,44.888
637.00,44.952
638.00,44.947
639.00,45.006
640.00,45.023
641.00,45.117
642.00,45.080
643.00,45.147
644.00,45.282
645.00,45.206
646.00,45.385
647.00,45.352
648.00,45.340
649.00,45.476
650.00,45.484
651.00,45.599
652.00,45.651
653.00,45.639
654.00,45.747
655.00,45.859
656.00,45.836
657.00,45.997
658.00,46.079
659.00,45.943
660.00,46.144
661.00,46.101
662.00,46.362
663.00,46.273
664.00,46.408
665.00,46.461
666.00,46.376
667.00,46.583
668.00,46.499
669.00,46.561
670.00,46.679
671.00,46.617
672.00,46.678
673.00,46.824
674.00,46.937
675.00,46.967
676.00,46.865
677.00,47.094
678.00,47.011
679.00,47.034
680.00,47.089
681.00,47.228
682.00,47.148
683.00,47.259
684.00,47.398
685.00,47.469
686.00,47.421
687.00,47.490
688.00,47.599
689.00,47.574
690.00,47.596
691.00,47.672
692.00,47.640
693.00,47.782
694.00,47.717
695.00,47.879
696.00,47.844
697.00,47.859
698.00,47.954
699.00,48.027
700.00,48.283
701.00,48.170
702.00,48.145
703.00,48.301
704.00,48.271
705.00,48.265
706.00,48.345
707.00,48.490
708.00,48.385
709.00,48.510
710.00,48.692
711.00,48.348
712.00,48.409
713.00,48.471
714.00,48.562
715.00,48.701
716.00,48.714
717.00,48.752
718.00,48.789
719.00,48.787
720.00,48.812
721.00,52.980
722.00,53.002
723.00,52.935
724.00,52.939
725.00,52.931
726.00,52.958
727.00,52.876
728.00,52.891
729.00,52.887
730.00,52.899
731.00,52.932
732.00,52.929
733.00,52.882
734.00,52.893
735.00,52.878
736.00,52.951
737.00,52.859
738.00,52.901
739.00,52.900
740.00,52.841
741.00,52.878
742.00,52.812
743.00,52.812
744.00,52.824
745.00,52.815
746.00,52.773
747.00,52.774
748.00,52.733
749.00,52.687
750.00,52.649
751.00,52.577
752.00,52.674
753.00,52.664
754.00,52.671
755.00,52.560
756.00,52.590
757.00,52.527
758.00,52.518
759.00,52.493
760.00,52.481
761.00,52.491
762.00,52.447
763.00,52.567
764.00,52.475
765.00,52.456
766.00,52.550
767.00,52.437
768.00,52.501
769.00,52.394
770.00,52.487
771.00,52.469
772.00,52.484
773.00,52.434
774.00,52.411
775.00,52.477
776.00,52.399
777.00,52.393
778.00,52.361
779.00,52.400
780.00,52.383
781.00,52.372
782.00,52.404
783.00,52.349
784.00,52.285
785.00,52.306
786.00,52.297
787.00,52.265
788.00,52.184
789.00,52.239
790.00,52.114
791.00,52.214
792.00,52.137
793.00,52.156
794.00,52.099
795.00,52.078
796.00,52.084
797.00,51.994
798.00,51.996
799.00,52.026
800.00,51.944
801.00,51.960
802.00,51.947
803.00,51.926
804.00,51.914
805.00,51.892
806.00,51.868
807.00,51.795
808.00,51.780
809.00,51.730
810.00,51.782
811.00,51.667
812.00,51.747
813.00,51.659
814.00,51.643
815.00,51.646
816.00,51.588
817.00,51.657
818.00,51.531
819.00,51.555
820.00,51.491
821.00,51.383
822.00,51.518
823.00,51.507
824.00,51.464
825.00,51.421
826.00,51.488
827.00,51.547
828.00,51.340
829.00,51.381
830.00,51.353
831.00,53.969
832.00,53.995
833.00,53.937
834.00,53.955
835.00,53.861
836.00,53.907
837.00,53.855
838.00,53.795
839.00,53.783
840.00,53.759
841.00,53.765
842.00,53.701
843.00,53.674
844.00,53.718
845.00,53.629
846.00,53.654
847.00,53.579
848.00,53.679
849.00,53.539
850.00,53.513
851.00,53.429
852.00,53.444
853.00,53.360
854.00,53.313
855.00,53.301
856.00,53.325
857.00,53.275
858.00,53.278
859.00,53.243
860.00,53.209
861.00,53.222
862.00,53.140
863.00,53.172
864.00,53.117
865.00,53.130
866.00,53.091
867.00,53.061
868.00,53.108
869.00,53.092
870.00,53.048
871.00,53.023
872.00,53.017
873.00,53.027
874.00,52.997
875.00,52.893
876.00,53.016
877.00,52.947
878.00,52.926
879.00,52.893
880.00,52.864
881.00,52.837
882.00,52.854
883.00,52.796
884.00,52.813
885.00,52.771
886.00,52.766
887.00,52.730
888.00,52.702
889.00,52.735
890.00,52.701
891.00,52.679
892.00,52.644
893.00,52.605
894.00,52.603
895.00,52.554
896.00,52.529
897.00,52.507
898.00,52.525
899.00,52.390
900.00,52.472
901.00,52.378
902.00,52.526
903.00,52.425
904.00,52.423
905.00,52.390
906.00,52.346
907.00,52.430
908.00,52.310
909.00,52.278
910.00,52.268
911.00,52.237
912.00,52.260
913.00,52.195
914.00,52.205
915.00,52.159
916.00,52.093
917.00,52.239
918.00,52.117
919.00,52.079
920.00,52.026
921.00,52.031
922.00,51.991
923.00,51.985
924.00,51.969
925.00,51.965
926.00,51.918
927.00,51.930
928.00,51.903
929.00,51.891
930.00,51.863
931.00,51.849
932.00,51.770
933.00,51.887
934.00,51.790
935.00,51.739
936.00,51.756
937.00,51.729
938.00,51.638
939.00,51.686
940.00,51.650
941.00,51.647
942.00,51.606
943.00,51.595
944.00,51.568
945.00,51.573
946.00,51.553
947.00,51.527
948.00,51.498
949.00,51.454
950.00,51.450
951.00,51.426
952.00,51.402
953.00,51.361
954.00,51.399
955.00,51.310
956.00,51.307
957.00,51.282
958.00,51.295
959.00,51.240
960.00,51.230
961.00,51.213
962.00,51.217
963.00,51.175
964.00,51.155
965.00,51.134
966.00,51.145
967.00,51.129
968.00,51.108
969.00,51.182
970.00,51.096
971.00,51.124
972.00,51.092
973.00,51.091
974.00,51.136
975.00,51.086
976.00,51.114
977.00,51.097
978.00,51.137
979.00,51.107
980.00,51.102
981.00,51.112
982.00,51.088
983.00,51.083
984.00,51.052
985.00,51.088
986.00,51.041
987.00,51.048
988.00,51.044
989.00,51.027
990.00,51.025
991.00,51.014
992.00,51.006
993.00,50.998
994.00,50.960
995.00,50.949
996.00,50.946
997.00,50.932
998.00,50.888
999.00,50.925
1000.00,50.878
1001.00,50.895
1002.00,50.876
1003.00,50.869
1004.00,50.853
1005.00,50.817
1006.00,50.867
1007.00,50.806
1008.00,50.783
1009.00,50.752
1010.00,50.750
1011.00,50.725
1012.00,50.707
1013.00,50.722
1014.00,50.691
1015.00,50.700
1016.00,50.649
1017.00,50.657
1018.00,50.638
1019.00,50.603
1020.00,50.600
1021.00,50.581
1022.00,50.587
1023.00,50.535
1024.00,50.542
1025.00,50.519
1026.00,50.517
1027.00,50.489
1028.00,50.480
1029.00,50.472
1030.00,50.425
1031.00,50.432
1032.00,50.399
1033.00,50.399
1034.00,50.380
1035.00,50.332
1036.00,50.301
1037.00,50.293
1038.00,50.285
1039.00,50.238
1040.00,50.262
1041.00,50.223
1042.00,50.227
1043.00,50.207
1044.00,50.224
1045.00,50.208
1046.00,50.188
1047.00,50.192
1048.00,50.223
1049.00,50.224
1050.00,50.223
1051.00,50.252
1052.00,50.264
1053.00,50.263
1054.00,50.265
1055.00,50.280
1056.00,50.285
1057.00,50.304
1058.00,50.283
1059.00,50.283
1060.00,50.295
1061.00,50.319
1062.00,50.266
1063.00,50.259
1064.00,50.235
1065.00,50.235
1066.00,50.215
1067.00,50.205
1068.00,50.228
1069.00,50.183
1070.00,50.155
1071.00,50.154
1072.00,50.149
1073.00,50.133
1074.00,50.130
1075.00,50.130
1076.00,50.145
1077.00,50.106
1078.00,50.109
1079.00,50.093
1080.00,50.093
1081.00,50.076
1082.00,50.077
1083.00,50.046
1084.00,50.044
1085.00,50.032
1086.00,50.027
1087.00,50.019
1088.00,50.000
1089.00,49.988
1090.00,50.002
1091.00,49.981
1092.00,49.983
1093.00,49.958
1094.00,49.936
1095.00,49.930
1096.00,49.911
1097.00,49.896
1098.00,49.894
1099.00,49.876
1100.00,49.873
1101.00,49.858
1102.00,49.857
1103.00,49.855
1104.00,49.850
1105.00,49.827
1106.00,49.859
1107.00,49.814
1108.00,49.813
1109.00,49.797
1110.00,49.792
1111.00,49.794
1112.00,49.771
1113.00,49.758
1114.00,49.773
1115.00,49.748
1116.00,49.728
1117.00,49.724
1118.00,49.725
1119.00,49.703
1120.00,49.725
1121.00,49.731
1122.00,49.757
1123.00,49.698
1124.00,49.679
1125.00,49.683
1126.00,49.662
1127.00,49.648
1128.00,49.645
1129.00,49.629
1130.00,49.623
1131.00,49.598
1132.00,49.615
1133.00,49.630
1134.00,49.669
1135.00,49.662
1136.00,49.589
1137.00,49.582
1138.00,49.580
1139.00,49.586
1140.00,49.562
1141.00,49.546
1142.00,49.551
1143.00,49.558
1144.00,49.542
1145.00,49.532
1146.00,49.535
1147.00,49.532
1148.00,49.535
1149.00,49.527
1150.00,49.524
1151.00,49.524
1152.00,49.505
1153.00,49.505
1154.00,49.485
1155.00,49.505
1156.00,49.480
1157.00,49.486
1158.00,49.499
1159.00,49.484
1160.00,49.473
1161.00,49.495
1162.00,49.479
1163.00,49.472
1164.00,49.466
1165.00,49.461
1166.00,49.468
1167.00,49.461
1168.00,49.457
1169.00,49.465
1170.00,49.454
1171.00,49.428
1172.00,49.451
1173.00,49.444
1174.00,49.442
1175.00,49.448
1176.00,49.451
1177.00,49.447
1178.00,49.447
1179.00,49.449
1180.00,49.460
1181.00,49.467
1182.00,49.445
1183.00,49.451
1184.00,49.417
1185.00,49.438
1186.00,49.437
1187.00,49.432
1188.00,49.416
1189.00,49.417
1190.00,49.408
1191.00,49.423
1192.00,49.426
1193.00,49.411
1194.00,49.427
1195.00,49.391
1196.00,49.415
1197.00,49.421
1198.00,49.395
1199.00,49.383
1200.00,49.389
1201.00,49.387
1202.00,49.395
1203.00,49.388
1204.00,49.369
1205.00,49.398
1206.00,49.386
1207.00,49.382
1208.00,49.373
1209.00,49.367
1210.00,49.374
1211.00,49.360
1212.00,49.388
1213.00,49.354
1214.00,49.364
1215.00,49.334
1216.00,49.368
1217.00,49.372
1218.00,49.347
1219.00,49.373
1220.00,49.342
1221.00,49.369
1222.00,49.352
1223.00,49.370
1224.00,49.378
1225.00,49.359
1226.00,49.360
1227.00,49.359
1228.00,49.373
1229.00,49.366
1230.00,49.420
1231.00,49.394
1232.00,49.403
1233.00,49.405
1234.00,49.396
1235.00,49.405
1236.00,49.406
1237.00,49.391
1238.00,49.409
1239.00,49.383
1240.00,49.373
1241.00,49.391
1242.00,49.393
1243.00,49.436
1244.00,49.410
1245.00,49.417
1246.00,49.450
1247.00,49.430
1248.00,49.410
1249.00,49.435
1250.00,49.420
1251.00,49.414
1252.00,49.442
1253.00,49.418
1254.00,49.451
1255.00,49.426
1256.00,49.411
1257.00,49.416
1258.00,49.466
1259.00,49.445
1260.00,49.469
1261.00,49.463
1262.00,49.455
1263.00,49.459
1264.00,49.469
1265.00,49.468
1266.00,49.476
1267.00,49.470
1268.00,49.502
1269.00,49.474
1270.00,49.481
1271.00,49.497
1272.00,49.496
1273.00,49.496
1274.00,49.492
1275.00,49.492
1276.00,49.514
1277.00,49.507
1278.00,49.523
1279.00,49.518
1280.00,49.522
1281.00,49.528
1282.00,49.555
1283.00,49.539
1284.00,49.549
1285.00,49.543
1286.00,49.544
1287.00,49.555
1288.00,49.565
1289.00,49.562
1290.00,49.580
1291.00,49.568
1292.00,49.557
1293.00,49.553
1294.00,49.560
1295.00,49.582
1296.00,49.587
1297.00,49.585
1298.00,49.605
1299.00,49.603
1300.00,49.595
1301.00,49.617
1302.00,49.607
1303.00,49.622
1304.00,49.619
1305.00,49.638
1306.00,49.636
1307.00,49.648
1308.00,49.630
1309.00,49.638
1310.00,49.648
1311.00,49.626
1312.00,49.645
1313.00,49.646
1314.00,49.647
1315.00,49.660
1316.00,49.658
1317.00,49.664
1318.00,49.678
1319.00,49.669
1320.00,49.696
1321.00,49.869
1322.00,49.885
1323.00,49.865
1324.00,49.859
1325.00,49.821
1326.00,49.859
1327.00,49.846
1328.00,49.844
1329.00,49.858
1330.00,49.831
1331.00,49.851
1332.00,49.891
1333.00,49.820
1334.00,49.902
1335.00,49.912
1336.00,49.926
1337.00,49.973
1338.00,50.026
1339.00,50.067
1340.00,50.140
1341.00,50.191
1342.00,50.253
1343.00,50.316
1344.00,50.340
1345.00,50.401
1346.00,50.438
1347.00,50.446
1348.00,50.466
1349.00,50.506
1350.00,50.517
1351.00,50.546
1352.00,50.523
1353.00,50.569
1354.00,50.549
1355.00,50.465
1356.00,50.565
1357.00,50.549
1358.00,50.527
1359.00,50.604
1360.00,50.568
1361.00,50.542
1362.00,50.474
1363.00,50.643
1364.00,50.568
1365.00,50.579
1366.00,50.644
1367.00,50.558
1368.00,50.504
1369.00,50.586
1370.00,50.564
1371.00,50.466
1372.00,50.524
1373.00,50.547
1374.00,50.552
1375.00,50.526
1376.00,50.540
1377.00,50.545
1378.00,50.570
1379.00,50.585
1380.00,50.552
1381.00,50.553
1382.00,50.491
1383.00,50.561
1384.00,50.495
1385.00,50.409
1386.00,50.549
1387.00,50.505
1388.00,50.462
1389.00,50.417
1390.00,50.527
1391.00,50.549
1392.00,50.548
1393.00,50.571
1394.00,50.570
1395.00,50.436
1396.00,50.467
1397.00,50.526
1398.00,50.647
1399.00,50.529
1400.00,50.490
1401.00,50.521
1402.00,50.647
1403.00,50.542
1404.00,50.537
1405.00,50.552
1406.00,50.579
1407.00,50.604
1408.00,50.553
1409.00,50.537
1410.00,50.595
1411.00,50.586
1412.00,50.643
1413.00,50.583
1414.00,50.589
1415.00,50.608
1416.00,50.624
1417.00,50.664
1418.00,50.640
1419.00,50.626
1420.00,50.678
1421.00,50.696
1422.00,50.710
1423.00,50.700
1424.00,50.707
1425.00,50.727
1426.00,50.734
1427.00,50.747
1428.00,50.763
1429.00,50.769
1430.00,50.783
1431.00,50.802
1432.00,50.813
1433.00,50.839
1434.00,50.823
1435.00,50.865
1436.00,50.885
1437.00,50.875
1438.00,50.878
1439.00,50.933
1440.00,50.946
1441.00,50.952
1442.00,50.964
1443.00,51.011
1444.00,51.017
1445.00,50.998
1446.00,51.003
1447.00,51.053
1448.00,51.072
1449.00,51.062
1450.00,51.066
1451.00,51.058
1452.00,51.066
1453.00,51.108
1454.00,51.112
1455.00,51.135
1456.00,51.165
1457.00,51.143
1458.00,51.177
1459.00,51.189
1460.00,51.195
1461.00,51.213
1462.00,51.220
1463.00,51.241
1464.00,51.246
1465.00,51.266
1466.00,51.274
1467.00,51.302
1468.00,51.339
1469.00,51.341
1470.00,51.342
1471.00,51.346
1472.00,51.376
1473.00,51.379
1474.00,51.398
1475.00,51.410
1476.00,51.411
1477.00,51.417
1478.00,51.426
1479.00,51.450
1480.00,51.470
1481.00,51.470
1482.00,51.496
1483.00,51.508
1484.00,51.511
1485.00,51.522
1486.00,51.528
1487.00,51.550
1488.00,51.544
1489.00,51.546
1490.00,51.561
1491.00,51.578
1492.00,51.574
1493.00,51.574
1494.00,51.593
1495.00,51.614
1496.00,51.596
1497.00,51.613
1498.00,51.621
1499.00,51.635
1500.00,51.659
1501.00, 
1502.00, 
1503.00, 
1504.00, 
1505.00, 
1506.00, 
1507.00, 
1508.00, 
1509.00, 
1510.00, 
1511.00, 
1512.00, 
1513.00, 
1514.00, 
1515.00, 
1516.00, 
1517.00, 
1518.00, 
1519.00, 
1520.00, 
1521.00, 
1522.00, 
1523.00, 
1524.00, 
1525.00, 
1526.00, 
1527.00, 
1528.00, 
1529.00, 
1530.00, 
1531.00, 
1532.00, 
1533.00, 
1534.00, 
1535.00, 
1536.00, 
1537.00, 
1538.00, 
1539.00, 
1540.00, 
1541.00, 
1542.00, 
1543.00, 
1544.00, 
1545.00, 
1546.00, 
1547.00, 
1548.00, 
1549.00, 
1550.00, 
1551.00, 
1552.00, 
1553.00, 
1554.00, 
1555.00, 
1556.00, 
1557.00, 
1558.00, 
1559.00, 
1560.00, 
1561.00, 
1562.00, 
1563.00, 
1564.00, 
1565.00, 
1566.00, 
1567.00, 
1568.00, 
1569.00, 
1570.00, 
1571.00, 
1572.00, 
1573.00, 
1574.00, 
1575.00, 
1576.00, 
1577.00, 
1578.00, 
1579.00, 
1580.00, 
1581.00, 
1582.00, 
1583.00, 
1584.00, 
1585.00, 
1586.00, 
1587.00, 
1588.00, 
1589.00, 
1590.00, 
1591.00, 
1592.00, 
1593.00, 
1594.00, 
1595.00, 
1596.00, 
1597.00, 
1598.00, 
1599.00, 
1600.00, 
1601.00, 
1602.00, 
1603.00, 
1604.00, 
1605.00, 
1606.00, 
1607.00, 
1608.00, 
1609.00, 
1610.00, 
1611.00, 
1612.00, 
1613.00, 
1614.00, 
1615.00, 
1616.00, 
1617.00, 
1618.00, 
1619.00, 
1620.00, 
1621.00, 
1622.00, 
1623.00, 
1624.00, 
1625.00, 
1626.00, 
1627.00, 
1628.00, 
1629.00, 
1630.00, 
1631.00, 
1632.00, 
1633.00, 
1634.00, 
1635.00, 
1636.00, 
1637.00, 
1638.00, 
1639.00, 
1640.00, 
1641.00, 
1642.00, 
1643.00, 
1644.00, 
1645.00, 
1646.00, 
1647.00, 
1648.00, 
1649.00, 
1650.00, 
1651.00, 
1652.00, 
1653.00, 
1654.00, 
1655.00, 
1656.00, 
1657.00, 
1658.00, 
1659.00, 
1660.00, 
1661.00, 
1662.00, 
1663.00, 
1664.00, 
1665.00, 
1666.00, 
1667.00, 
1668.00, 
1669.00, 
1670.00, 
1671.00, 
1672.00, 
1673.00, 
1674.00, 
1675.00, 
1676.00, 
1677.00, 
1678.00, 
1679.00, 
1680.00, 
1681.00, 
1682.00, 
1683.00, 
1684.00, 
1685.00, 
1686.00, 
1687.00, 
1688.00, 
1689.00, 
1690.00, 
1691.00, 
1692.00, 
1693.00, 
1694.00, 
1695.00, 
1696.00, 
1697.00, 
1698.00, 
1699.00, 
1700.00, 
1701.00, 
1702.00, 
1703.00, 
1704.00, 
1705.00, 
1706.00, 
1707.00, 
1708.00, 
1709.00, 
1710.00, 
1711.00, 
1712.00, 
1713.00, 
1714.00, 
1715.00, 
1716.00, 
1717.00, 
1718.00, 
1719.00, 
1720.00, 
1721.00, 
1722.00, 
1723.00, 
1724.00, 
1725.00, 
1726.00, 
1727.00, 
1728.00, 
1729.00, 
1730.00, 
1731.00, 
1732.00, 
1733.00, 
1734.00, 
1735.00, 
1736.00, 
1737.00, 
1738.00, 
1739.00, 
1740.00, 
1741.00, 
1742.00, 
1743.00, 
1744.00, 
1745.00, 
1746.00, 
1747.00, 
1748.00, 
1749.00, 
1750.00, 
1751.00, 
1752.00, 
1753.00, 
1754.00, 
1755.00, 
1756.00, 
1757.00, 
1758.00, 
1759.00, 
1760.00, 
1761.00, 
1762.00, 
1763.00, 
1764.00, 
1765.00, 
1766.00, 
1767.00, 
1768.00, 
1769.00, 
1770.00, 
1771.00, 
1772.00, 
1773.00, 
1774.00, 
1775.00, 
1776.00, 
1777.00, 
1778.00, 
1779.00, 
1780.00, 
1781.00, 
1782.00, 
1783.00, 
1784.00, 
1785.00, 
1786.00, 
1787.00, 
1788.00, 
1789.00, 
1790.00, 
1791.00, 
1792.00, 
1793.00, 
1794.00, 
1795.00, 
1796.00, 
1797.00, 
1798.00, 
1799.00, 
1800.00, 
1801.00, 
1802.00, 
1803.00, 
1804.00, 
1805.00, 
1806.00, 
1807.00, 
1808.00, 
1809.00, 
1810.00, 
1811.00, 
1812.00, 
1813.00, 
1814.00, 
1815.00, 
1816.00, 
1817.00, 
1818.00, 
1819.00, 
1820.00, 
1821.00, 
1822.00, 
1823.00, 
1824.00, 
1825.00, 
1826.00, 
1827.00, 
1828.00, 
1829.00, 
1830.00, 
1831.00, 
1832.00, 
1833.00, 
1834.00, 
1835.00, 
1836.00, 
1837.00, 
1838.00, 
1839.00, 
1840.00, 
1841.00, 
1842.00, 
1843.00, 
1844.00, 
1845.00, 
1846.00, 
1847.00, 
1848.00, 
1849.00, 
1850.00, 
1851.00, 
1852.00, 
1853.00, 
1854.00, 
1855.00, 
1856.00, 
1857.00, 
1858.00, 
1859.00, 
1860.00, 
1861.00, 
1862.00, 
1863.00, 
1864.00, 
1865.00, 
1866.00, 
1867.00, 
1868.00, 
1869.00, 
1870.00, 
1871.00, 
1872.00, 
1873.00, 
1874.00, 
1875.00, 
1876.00, 
1877.00, 
1878.00, 
1879.00, 
1880.00, 
1881.00, 
1882.00, 
1883.00, 
1884.00, 
1885.00, 
1886.00, 
1887.00, 
1888.00, 
1889.00, 
1890.00, 
1891.00, 
1892.00, 
1893.00, 
1894.00, 
1895.00, 
1896.00, 
1897.00, 
1898.00, 
1899.00, 
1900.00, 
1901.00, 
1902.00, 
1903.00, 
1904.00, 
1905.00, 
1906.00, 
1907.00, 
1908.00, 
1909.00, 
1910.00, 
1911.00, 
1912.00, 
1913.00, 
1914.00, 
1915.00, 
1916.00, 
1917.00, 
1918.00, 
1919.00, 
1920.00, 
1921.00, 
1922.00, 
1923.00, 
1924.00, 
1925.00, 
1926.00, 
1927.00, 
1928.00, 
1929.00, 
1930.00, 
1931.00, 
1932.00, 
1933.00, 
1934.00, 
1935.00, 
1936.00, 
1937.00, 
1938.00, 
1939.00, 
1940.00, 
1941.00, 
1942.00, 
1943.00, 
1944.00, 
1945.00, 
1946.00, 
1947.00, 
1948.00, 
1949.00, 
1950.00, 
1951.00, 
1952.00, 
1953.00, 
1954.00, 
1955.00, 
1956.00, 
1957.00, 
1958.00, 
1959.00, 
1960.00, 
1961.00, 
1962.00, 
1963.00, 
1964.00, 
1965.00, 
1966.00, 
1967.00, 
1968.00, 
1969.00, 
1970.00, 
1971.00, 
1972.00, 
1973.00, 
1974.00, 
1975.00, 
1976.00, 
1977.00, 
1978.00, 
1979.00, 
1980.00, 
1981.00, 
1982.00, 
1983.00, 
1984.00, 
1985.00, 
1986.00, 
1987.00, 
1988.00, 
1989.00, 
1990.00, 
1991.00, 
1992.00, 
1993.00, 
1994.00, 
1995.00, 
1996.00, 
1997.00, 
1998.00, 
1999.00, 
2000.00, 
2001.00, 
2002.00, 
2003.00, 
2004.00, 
2005.00, 
2006.00, 
2007.00, 
2008.00, 
2009.00, 
2010.00, 
2011.00, 
2012.00, 
2013.00, 
2014.00, 
2015.00, 
2016.00, 
2017.00, 
2018.00, 
2019.00, 
2020.00, 
2021.00, 
2022.00, 
2023.00, 
2024.00, 
2025.00, 
2026.00, 
2027.00, 
2028.00, 
2029.00, 
2030.00, 
2031.00, 
2032.00, 
2033.00, 
2034.00, 
2035.00, 
2036.00, 
2037.00, 
2038.00, 
2039.00, 
2040.00, 
2041.00, 
2042.00, 
2043.00, 
2044.00, 
2045.00, 
2046.00, 
2047.00, 
2048.00, 
2049.00, 
2050.00, 
2051.00, 
2052.00, 
2053.00, 
2054.00, 
2055.00, 
2056.00, 
2057.00, 
2058.00, 
2059.00, 
2060.00, 
2061.00, 
2062.00, 
2063.00, 
2064.00, 
2065.00, 
2066.00, 
2067.00, 
2068.00, 
2069.00, 
2070.00, 
2071.00, 
2072.00, 
2073.00, 
2074.00, 
2075.00, 
2076.00, 
2077.00, 
2078.00, 
2079.00, 
2080.00, 
2081.00, 
2082.00, 
2083.00, 
2084.00, 
2085.00, 
2086.00, 
2087.00, 
2088.00, 
2089.00, 
2090.00, 
2091.00, 
2092.00, 
2093.00, 
2094.00, 
2095.00, 
2096.00, 
2097.00, 
2098.00, 
2099.00, 
2100.00, 
2101.00, 
2102.00, 
2103.00, 
2104.00, 
2105.00, 
2106.00, 
2107.00, 
2108.00, 
2109.00, 
2110.00, 
2111.00, 
2112.00, 
2113.00, 
2114.00, 
2115.00, 
2116.00, 
2117.00, 
2118.00, 
2119.00, 
2120.00, 
2121.00, 
2122.00, 
2123.00, 
2124.00, 
2125.00, 
2126.00, 
2127.00, 
2128.00, 
2129.00, 
2130.00, 
2131.00, 
2132.00, 
2133.00, 
2134.00, 
2135.00, 
2136.00, 
2137.00, 
2138.00, 
2139.00, 
2140.00, 
2141.00, 
2142.00, 
2143.00, 
2144.00, 
2145.00, 
2146.00, 
2147.00, 
2148.00, 
2149.00, 
2150.00, 
2151.00, 
2152.00, 
2153.00, 
2154.00, 
2155.00, 
2156.00, 
2157.00, 
2158.00, 
2159.00, 
2160.00, 
2161.00, 
2162.00, 
2163.00, 
2164.00, 
2165.00, 
2166.00, 
2167.00, 
2168.00, 
2169.00, 
2170.00, 
2171.00, 
2172.00, 
2173.00, 
2174.00, 
2175.00, 
2176.00, 
2177.00, 
2178.00, 
2179.00, 
2180.00, 
2181.00, 
2182.00, 
2183.00, 
2184.00, 
2185.00, 
2186.00, 
2187.00, 
2188.00, 
2189.00, 
2190.00, 
2191.00, 
2192.00, 
2193.00, 
2194.00, 
2195.00, 
2196.00, 
2197.00, 
2198.00, 
2199.00, 
2200.00, 
2201.00, 
2202.00, 
2203.00, 
2204.00, 
2205.00, 
2206.00, 
2207.00, 
2208.00, 
2209.00, 
2210.00, 
2211.00, 
2212.00, 
2213.00, 
2214.00, 
2215.00, 
2216.00, 
2217.00, 
2218.00, 
2219.00, 
2220.00, 
2221.00, 
2222.00, 
2223.00, 
2224.00, 
2225.00, 
2226.00, 
2227.00, 
2228.00, 
2229.00, 
2230.00, 
2231.00, 
2232.00, 
2233.00, 
2234.00, 
2235.00, 
2236.00, 
2237.00, 
2238.00, 
2239.00, 
2240.00, 
2241.00, 
2242.00, 
2243.00, 
2244.00, 
2245.00, 
2246.00, 
2247.00, 
2248.00, 
2249.00, 
2250.00, 
2251.00, 
2252.00, 
2253.00, 
2254.00, 
2255.00, 
2256.00, 
2257.00, 
2258.00, 
2259.00, 
2260.00, 
2261.00, 
2262.00, 
2263.00, 
2264.00, 
2265.00, 
2266.00, 
2267.00, 
2268.00, 
2269.00, 
2270.00, 
2271.00, 
2272.00, 
2273.00, 
2274.00, 
2275.00, 
2276.00, 
2277.00, 
2278.00, 
2279.00, 
2280.00, 
2281.00, 
2282.00, 
2283.00, 
2284.00, 
2285.00, 
2286.00, 
2287.00, 
2288.00, 
2289.00, 
2290.00, 
2291.00, 
2292.00, 
2293.00, 
2294.00, 
2295.00, 
2296.00, 
2297.00, 
2298.00, 
2299.00, 
2300.00, 
2301.00, 
2302.00, 
2303.00, 
2304.00, 
2305.00, 
2306.00, 
2307.00, 
2308.00, 
2309.00, 
2310.00, 
2311.00, 
2312.00, 
2313.00, 
2314.00, 
2315.00, 
2316.00, 
2317.00, 
2318.00, 
2319.00, 
2320.00, 
2321.00, 
2322.00, 
2323.00, 
2324.00, 
2325.00, 
2326.00, 
2327.00, 
2328.00, 
2329.00, 
2330.00, 
2331.00, 
2332.00, 
2333.00, 
2334.00, 
2335.00, 
2336.00, 
2337.00, 
2338.00, 
2339.00, 
2340.00, 
2341.00, 
2342.00, 
2343.00, 
2344.00, 
2345.00, 
2346.00, 
2347.00, 
2348.00, 
2349.00, 
2350.00, 
2351.00, 
2352.00, 
2353.00, 
2354.00, 
2355.00, 
2356.00, 
2357.00, 
2358.00, 
2359.00, 
2360.00, 
2361.00, 
2362.00, 
2363.00, 
2364.00, 
2365.00, 
2366.00, 
2367.00, 
2368.00, 
2369.00, 
2370.00, 
2371.00, 
2372.00, 
2373.00, 
2374.00, 
2375.00, 
2376.00, 
2377.00, 
2378.00, 
2379.00, 
2380.00, 
2381.00, 
2382.00, 
2383.00, 
2384.00, 
2385.00, 
2386.00, 
2387.00, 
2388.00, 
2389.00, 
2390.00, 
2391.00, 
2392.00, 
2393.00, 
2394.00, 
2395.00, 
2396.00, 
2397.00, 
2398.00, 
2399.00, 
2400.00, 
2401.00, 
2402.00, 
2403.00, 
2404.00, 
2405.00, 
2406.00, 
2407.00, 
2408.00, 
2409.00, 
2410.00, 
2411.00, 
2412.00, 
2413.00, 
2414.00, 
2415.00, 
2416.00, 
2417.00, 
2418.00, 
2419.00, 
2420.00, 
2421.00, 
2422.00, 
2423.00, 
2424.00, 
2425.00, 
2426.00, 
2427.00, 
2428.00, 
2429.00, 
2430.00, 
2431.00, 
2432.00, 
2433.00, 
2434.00, 
2435.00, 
2436.00, 
2437.00, 
2438.00, 
2439.00, 
2440.00, 
2441.00, 
2442.00, 
2443.00, 
2444.00, 
2445.00, 
2446.00, 
2447.00, 
2448.00, 
2449.00, 
2450.00, 
2451.00, 
2452.00, 
2453.00, 
2454.00, 
2455.00, 
2456.00, 
2457.00, 
2458.00, 
2459.00, 
2460.00, 
2461.00, 
2462.00, 
2463.00, 
2464.00, 
2465.00, 
2466.00, 
2467.00, 
2468.00, 
2469.00, 
2470.00, 
2471.00, 
2472.00, 
2473.00, 
2474.00, 
2475.00, 
2476.00, 
2477.00, 
2478.00, 
2479.00, 
2480.00, 
2481.00, 
2482.00, 
2483.00, 
2484.00, 
2485.00, 
2486.00, 
2487.00, 
2488.00, 
2489.00, 
2490.00, 
2491.00, 
2492.00, 
2493.00, 
2494.00, 
2495.00, 
2496.00, 
2497.00, 
2498.00, 
2499.00, 
2500.00, 
2501.00, 
2502.00, 
2503.00, 
2504.00, 
2505.00, 
2506.00, 
2507.00, 
2508.00, 
2509.00, 
2510.00, 
2511.00, 
2512.00, 
2513.00, 
2514.00, 
2515.00, 
2516.00, 
2517.00, 
2518.00, 
2519.00, 
2520.00, 
2521.00, 
2522.00, 
2523.00, 
2524.00, 
2525.00, 
2526.00, 
2527.00, 
2528.00, 
2529.00, 
2530.00, 
2531.00, 
2532.00, 
2533.00, 
2534.00, 
2535.00, 
2536.00, 
2537.00, 
2538.00, 
2539.00, 
2540.00, 
2541.00, 
2542.00, 
2543.00, 
2544.00, 
2545.00, 
2546.00, 
2547.00, 
2548.00, 
2549.00, 
2550.00, 
2551.00, 
2552.00, 
2553.00, 
2554.00, 
2555.00, 
2556.00, 
2557.00, 
2558.00, 
2559.00, 
2560.00, 
2561.00, 
2562.00, 
2563.00, 
2564.00, 
2565.00, 
2566.00, 
2567.00, 
2568.00, 
2569.00, 
2570.00, 
2571.00, 
2572.00, 
2573.00, 
2574.00, 
2575.00, 
2576.00, 
2577.00, 
2578.00, 
2579.00, 
2580.00, 
2581.00, 
2582.00, 
2583.00, 
2584.00, 
2585.00, 
2586.00, 
2587.00, 
2588.00, 
2589.00, 
2590.00, 
2591.00, 
2592.00, 
2593.00, 
2594.00, 
2595.00, 
2596.00, 
2597.00, 
2598.00, 
2599.00, 
2600.00, 
