"2cP5 - RawData"
"Wavelength nm.","T%"
200.00,0.001
201.00,0.003
202.00,0.000
203.00,0.003
204.00,0.001
205.00,0.001
206.00,0.003
207.00,0.001
208.00,-0.002
209.00,0.001
210.00,-0.002
211.00,0.003
212.00,0.003
213.00,0.000
214.00,-0.001
215.00,0.001
216.00,0.001
217.00,-0.002
218.00,0.002
219.00,0.003
220.00,0.004
221.00,-0.001
222.00,-0.001
223.00,0.001
224.00,0.001
225.00,-0.001
226.00,0.000
227.00,0.001
228.00,0.004
229.00,-0.001
230.00,-0.001
231.00,0.002
232.00,0.002
233.00,0.002
234.00,0.002
235.00,-0.000
236.00,-0.000
237.00,0.002
238.00,0.002
239.00,0.001
240.00,-0.001
241.00,-0.000
242.00,-0.001
243.00,0.001
244.00,0.001
245.00,-0.000
246.00,-0.002
247.00,-0.001
248.00,-0.001
249.00,-0.000
250.00,0.000
251.00,0.002
252.00,0.000
253.00,-0.001
254.00,-0.003
255.00,-0.001
256.00,0.001
257.00,-0.000
258.00,0.001
259.00,0.000
260.00,-0.000
261.00,0.001
262.00,0.000
263.00,0.001
264.00,0.001
265.00,0.001
266.00,0.001
267.00,-0.000
268.00,0.000
269.00,-0.001
270.00,0.001
271.00,-0.000
272.00,-0.001
273.00,0.001
274.00,0.001
275.00,0.001
276.00,0.001
277.00,0.001
278.00,0.001
279.00,0.001
280.00,0.001
281.00,0.000
282.00,-0.001
283.00,0.000
284.00,0.000
285.00,0.000
286.00,0.000
287.00,-0.002
288.00,-0.001
289.00,-0.000
290.00,0.002
291.00,-0.001
292.00,0.001
293.00,0.001
294.00,0.000
295.00,-0.000
296.00,-0.001
297.00,0.002
298.00,0.000
299.00,0.001
300.00,0.003
301.00,0.002
302.00,0.006
303.00,0.008
304.00,0.011
305.00,0.015
306.00,0.029
307.00,0.039
308.00,0.061
309.00,0.094
310.00,0.127
311.00,0.175
312.00,0.241
313.00,0.330
314.00,0.432
315.00,0.568
316.00,0.715
317.00,0.904
318.00,1.116
319.00,1.372
320.00,1.662
321.00,1.991
322.00,2.351
323.00,2.792
324.00,3.222
325.00,3.681
326.00,4.135
327.00,4.669
328.00,5.215
329.00,5.766
330.00,6.345
331.00,6.925
332.00,7.542
333.00,8.148
334.00,8.719
335.00,9.314
336.00,9.997
337.00,10.619
338.00,11.215
339.00,11.758
340.00,12.352
341.00,12.939
342.00,13.442
343.00,13.900
344.00,14.331
345.00,14.880
346.00,15.331
347.00,15.682
348.00,16.106
349.00,16.478
350.00,16.771
351.00,17.121
352.00,17.396
353.00,17.692
354.00,17.951
355.00,18.220
356.00,18.438
357.00,18.619
358.00,18.840
359.00,19.050
360.00,19.246
361.00,19.381
362.00,19.526
363.00,19.701
364.00,19.774
365.00,19.847
366.00,19.936
367.00,20.041
368.00,20.049
369.00,20.097
370.00,20.178
371.00,20.195
372.00,20.168
373.00,20.166
374.00,20.136
375.00,20.160
376.00,20.107
377.00,20.121
378.00,20.032
379.00,19.987
380.00,19.980
381.00,19.929
382.00,19.908
383.00,19.928
384.00,19.954
385.00,19.983
386.00,20.004
387.00,20.050
388.00,20.086
389.00,20.108
390.00,20.115
391.00,20.133
392.00,20.141
393.00,20.161
394.00,20.194
395.00,20.206
396.00,20.181
397.00,20.200
398.00,20.207
399.00,20.176
400.00,20.177
401.00,20.211
402.00,20.148
403.00,20.200
404.00,20.201
405.00,20.154
406.00,20.164
407.00,20.141
408.00,20.158
409.00,20.108
410.00,20.069
411.00,20.056
412.00,20.015
413.00,20.095
414.00,20.053
415.00,20.030
416.00,20.088
417.00,20.126
418.00,20.145
419.00,20.166
420.00,20.246
421.00,20.301
422.00,20.313
423.00,20.355
424.00,20.402
425.00,20.437
426.00,20.452
427.00,20.512
428.00,20.563
429.00,20.581
430.00,20.634
431.00,20.693
432.00,20.758
433.00,20.799
434.00,20.860
435.00,20.951
436.00,20.982
437.00,21.072
438.00,21.124
439.00,21.189
440.00,21.271
441.00,21.372
442.00,21.432
443.00,21.520
444.00,21.616
445.00,21.723
446.00,21.834
447.00,21.919
448.00,22.026
449.00,22.123
450.00,22.221
451.00,22.331
452.00,22.423
453.00,22.554
454.00,22.655
455.00,22.759
456.00,22.896
457.00,22.992
458.00,23.127
459.00,23.251
460.00,23.359
461.00,23.527
462.00,23.606
463.00,23.756
464.00,23.894
465.00,24.017
466.00,24.143
467.00,24.273
468.00,24.363
469.00,24.500
470.00,24.626
471.00,24.699
472.00,24.812
473.00,24.863
474.00,25.023
475.00,25.156
476.00,25.305
477.00,25.430
478.00,25.567
479.00,25.722
480.00,25.887
481.00,26.005
482.00,26.170
483.00,26.338
484.00,26.509
485.00,26.644
486.00,26.778
487.00,26.926
488.00,27.120
489.00,27.195
490.00,27.354
491.00,27.530
492.00,27.695
493.00,27.904
494.00,28.058
495.00,28.116
496.00,28.198
497.00,28.317
498.00,28.524
499.00,28.641
500.00,28.739
501.00,28.886
502.00,28.975
503.00,29.178
504.00,29.235
505.00,29.398
506.00,29.489
507.00,29.616
508.00,29.723
509.00,29.899
510.00,30.038
511.00,30.112
512.00,30.302
513.00,30.426
514.00,30.529
515.00,30.678
516.00,30.799
517.00,30.862
518.00,31.049
519.00,31.096
520.00,31.149
521.00,31.280
522.00,31.364
523.00,31.417
524.00,31.531
525.00,31.625
526.00,31.744
527.00,31.808
528.00,31.886
529.00,32.057
530.00,32.170
531.00,32.266
532.00,32.394
533.00,32.465
534.00,32.627
535.00,32.703
536.00,32.748
537.00,32.836
538.00,32.909
539.00,32.956
540.00,33.026
541.00,33.141
542.00,33.143
543.00,33.222
544.00,33.306
545.00,33.432
546.00,33.454
547.00,33.552
548.00,33.648
549.00,33.692
550.00,33.773
551.00,33.884
552.00,33.947
553.00,34.026
554.00,34.106
555.00,34.118
556.00,34.215
557.00,34.281
558.00,34.319
559.00,34.352
560.00,34.456
561.00,34.487
562.00,34.585
563.00,34.589
564.00,34.687
565.00,34.722
566.00,34.689
567.00,34.771
568.00,34.820
569.00,34.838
570.00,34.940
571.00,34.989
572.00,34.991
573.00,34.992
574.00,35.063
575.00,35.099
576.00,35.108
577.00,35.116
578.00,35.245
579.00,35.339
580.00,35.359
581.00,35.483
582.00,35.552
583.00,35.603
584.00,35.676
585.00,35.702
586.00,35.771
587.00,35.853
588.00,35.864
589.00,35.824
590.00,35.911
591.00,35.972
592.00,35.938
593.00,36.032
594.00,36.109
595.00,36.129
596.00,36.214
597.00,36.283
598.00,36.370
599.00,36.308
600.00,36.472
601.00,36.480
602.00,36.402
603.00,36.463
604.00,36.534
605.00,36.512
606.00,36.641
607.00,36.734
608.00,36.751
609.00,36.818
610.00,36.997
611.00,36.832
612.00,36.892
613.00,36.950
614.00,37.056
615.00,37.084
616.00,37.180
617.00,37.199
618.00,37.206
619.00,37.314
620.00,37.316
621.00,37.383
622.00,37.485
623.00,37.521
624.00,37.605
625.00,37.656
626.00,37.704
627.00,37.769
628.00,37.842
629.00,37.849
630.00,37.968
631.00,38.028
632.00,38.140
633.00,38.245
634.00,38.296
635.00,38.396
636.00,38.536
637.00,38.502
638.00,38.508
639.00,38.644
640.00,38.710
641.00,38.754
642.00,38.846
643.00,38.946
644.00,39.020
645.00,39.071
646.00,39.225
647.00,39.276
648.00,39.353
649.00,39.404
650.00,39.424
651.00,39.568
652.00,39.664
653.00,39.712
654.00,39.795
655.00,39.976
656.00,40.210
657.00,40.181
658.00,40.310
659.00,40.401
660.00,40.378
661.00,40.422
662.00,40.595
663.00,40.616
664.00,40.857
665.00,41.007
666.00,40.973
667.00,41.121
668.00,41.044
669.00,41.305
670.00,41.519
671.00,41.407
672.00,41.555
673.00,41.722
674.00,41.773
675.00,41.815
676.00,42.067
677.00,42.222
678.00,42.126
679.00,42.192
680.00,42.384
681.00,42.619
682.00,42.602
683.00,42.695
684.00,42.824
685.00,42.886
686.00,42.896
687.00,43.021
688.00,43.151
689.00,43.130
690.00,43.339
691.00,43.619
692.00,43.443
693.00,43.534
694.00,43.628
695.00,43.879
696.00,43.957
697.00,43.956
698.00,44.054
699.00,44.209
700.00,44.358
701.00,44.380
702.00,44.464
703.00,44.680
704.00,44.681
705.00,44.630
706.00,44.866
707.00,44.822
708.00,44.763
709.00,45.115
710.00,45.502
711.00,45.136
712.00,45.236
713.00,45.287
714.00,45.516
715.00,45.600
716.00,45.617
717.00,45.742
718.00,45.849
719.00,45.928
720.00,45.991
721.00,50.152
722.00,50.297
723.00,50.345
724.00,50.303
725.00,50.383
726.00,50.404
727.00,50.395
728.00,50.474
729.00,50.527
730.00,50.546
731.00,50.632
732.00,50.655
733.00,50.691
734.00,50.709
735.00,50.855
736.00,50.802
737.00,50.819
738.00,50.969
739.00,50.966
740.00,51.012
741.00,51.002
742.00,51.053
743.00,51.043
744.00,51.051
745.00,51.097
746.00,51.088
747.00,51.138
748.00,51.073
749.00,51.141
750.00,51.079
751.00,51.121
752.00,51.161
753.00,51.279
754.00,51.279
755.00,51.220
756.00,51.258
757.00,51.252
758.00,51.304
759.00,51.268
760.00,51.325
761.00,51.368
762.00,51.333
763.00,51.416
764.00,51.401
765.00,51.423
766.00,51.486
767.00,51.438
768.00,51.529
769.00,51.487
770.00,51.574
771.00,51.546
772.00,51.594
773.00,51.545
774.00,51.591
775.00,51.588
776.00,51.590
777.00,51.614
778.00,51.703
779.00,51.715
780.00,51.629
781.00,51.707
782.00,51.719
783.00,51.669
784.00,51.616
785.00,51.687
786.00,51.732
787.00,51.705
788.00,51.660
789.00,51.685
790.00,51.650
791.00,51.743
792.00,51.668
793.00,51.694
794.00,51.696
795.00,51.654
796.00,51.709
797.00,51.589
798.00,51.656
799.00,51.668
800.00,51.610
801.00,51.627
802.00,51.590
803.00,51.628
804.00,51.622
805.00,51.610
806.00,51.612
807.00,51.592
808.00,51.542
809.00,51.557
810.00,51.520
811.00,51.530
812.00,51.479
813.00,51.485
814.00,51.516
815.00,51.467
816.00,51.444
817.00,51.515
818.00,51.391
819.00,51.467
820.00,51.409
821.00,51.410
822.00,51.374
823.00,51.391
824.00,51.408
825.00,51.361
826.00,51.398
827.00,51.480
828.00,51.370
829.00,51.302
830.00,51.399
831.00,53.596
832.00,53.616
833.00,53.564
834.00,53.579
835.00,53.539
836.00,53.558
837.00,53.560
838.00,53.543
839.00,53.498
840.00,53.465
841.00,53.497
842.00,53.433
843.00,53.420
844.00,53.429
845.00,53.367
846.00,53.406
847.00,53.387
848.00,53.387
849.00,53.340
850.00,53.308
851.00,53.212
852.00,53.261
853.00,53.171
854.00,53.175
855.00,53.110
856.00,53.110
857.00,53.078
858.00,53.080
859.00,53.052
860.00,53.050
861.00,53.075
862.00,52.958
863.00,53.038
864.00,52.998
865.00,53.041
866.00,52.965
867.00,52.933
868.00,53.174
869.00,53.005
870.00,52.954
871.00,52.923
872.00,52.940
873.00,52.934
874.00,52.945
875.00,52.901
876.00,52.862
877.00,52.876
878.00,52.869
879.00,52.839
880.00,52.803
881.00,52.821
882.00,52.843
883.00,52.768
884.00,52.806
885.00,52.761
886.00,52.742
887.00,52.713
888.00,52.679
889.00,52.679
890.00,52.650
891.00,52.619
892.00,52.585
893.00,52.567
894.00,52.602
895.00,52.545
896.00,52.513
897.00,52.573
898.00,52.547
899.00,52.378
900.00,52.484
901.00,52.472
902.00,52.448
903.00,52.431
904.00,52.447
905.00,52.420
906.00,52.405
907.00,52.378
908.00,52.375
909.00,52.348
910.00,52.310
911.00,52.289
912.00,52.333
913.00,52.248
914.00,52.257
915.00,52.199
916.00,52.197
917.00,52.148
918.00,52.149
919.00,52.138
920.00,52.098
921.00,52.100
922.00,52.088
923.00,52.057
924.00,52.036
925.00,52.031
926.00,51.990
927.00,52.015
928.00,51.986
929.00,51.983
930.00,51.927
931.00,51.930
932.00,51.888
933.00,51.893
934.00,51.852
935.00,51.845
936.00,51.817
937.00,51.800
938.00,51.819
939.00,51.800
940.00,51.762
941.00,51.764
942.00,51.734
943.00,51.719
944.00,51.686
945.00,51.690
946.00,51.662
947.00,51.643
948.00,51.620
949.00,51.577
950.00,51.572
951.00,51.536
952.00,51.528
953.00,51.531
954.00,51.487
955.00,51.454
956.00,51.445
957.00,51.410
958.00,51.413
959.00,51.370
960.00,51.359
961.00,51.357
962.00,51.358
963.00,51.320
964.00,51.303
965.00,51.285
966.00,51.295
967.00,51.267
968.00,51.257
969.00,51.343
970.00,51.250
971.00,51.273
972.00,51.237
973.00,51.236
974.00,51.285
975.00,51.247
976.00,51.262
977.00,51.235
978.00,51.272
979.00,51.235
980.00,51.242
981.00,51.247
982.00,51.231
983.00,51.249
984.00,51.215
985.00,51.271
986.00,51.220
987.00,51.234
988.00,51.213
989.00,51.182
990.00,51.189
991.00,51.171
992.00,51.165
993.00,51.146
994.00,51.115
995.00,51.119
996.00,51.114
997.00,51.092
998.00,51.056
999.00,51.094
1000.00,51.034
1001.00,51.041
1002.00,51.030
1003.00,51.019
1004.00,51.012
1005.00,50.986
1006.00,50.992
1007.00,50.979
1008.00,50.958
1009.00,50.939
1010.00,50.929
1011.00,50.912
1012.00,50.893
1013.00,50.901
1014.00,50.851
1015.00,50.880
1016.00,50.853
1017.00,50.849
1018.00,50.840
1019.00,50.801
1020.00,50.790
1021.00,50.766
1022.00,50.772
1023.00,50.721
1024.00,50.726
1025.00,50.701
1026.00,50.697
1027.00,50.684
1028.00,50.644
1029.00,50.662
1030.00,50.656
1031.00,50.618
1032.00,50.590
1033.00,50.595
1034.00,50.576
1035.00,50.515
1036.00,50.487
1037.00,50.488
1038.00,50.495
1039.00,50.442
1040.00,50.453
1041.00,50.415
1042.00,50.395
1043.00,50.375
1044.00,50.414
1045.00,50.400
1046.00,50.376
1047.00,50.383
1048.00,50.404
1049.00,50.418
1050.00,50.412
1051.00,50.452
1052.00,50.462
1053.00,50.442
1054.00,50.451
1055.00,50.463
1056.00,50.472
1057.00,50.480
1058.00,50.466
1059.00,50.470
1060.00,50.465
1061.00,50.456
1062.00,50.451
1063.00,50.453
1064.00,50.431
1065.00,50.431
1066.00,50.417
1067.00,50.419
1068.00,50.436
1069.00,50.388
1070.00,50.384
1071.00,50.373
1072.00,50.385
1073.00,50.367
1074.00,50.360
1075.00,50.332
1076.00,50.331
1077.00,50.314
1078.00,50.300
1079.00,50.288
1080.00,50.285
1081.00,50.285
1082.00,50.272
1083.00,50.250
1084.00,50.254
1085.00,50.247
1086.00,50.233
1087.00,50.230
1088.00,50.215
1089.00,50.191
1090.00,50.205
1091.00,50.224
1092.00,50.178
1093.00,50.150
1094.00,50.129
1095.00,50.137
1096.00,50.115
1097.00,50.098
1098.00,50.106
1099.00,50.083
1100.00,50.072
1101.00,50.056
1102.00,50.053
1103.00,50.060
1104.00,50.064
1105.00,50.053
1106.00,50.061
1107.00,50.013
1108.00,50.008
1109.00,49.997
1110.00,49.993
1111.00,49.991
1112.00,49.976
1113.00,49.967
1114.00,49.971
1115.00,49.975
1116.00,49.948
1117.00,49.946
1118.00,49.938
1119.00,49.922
1120.00,49.924
1121.00,49.906
1122.00,49.907
1123.00,49.900
1124.00,49.874
1125.00,49.883
1126.00,49.865
1127.00,49.851
1128.00,49.863
1129.00,49.846
1130.00,49.827
1131.00,49.829
1132.00,49.813
1133.00,49.807
1134.00,49.806
1135.00,49.789
1136.00,49.796
1137.00,49.799
1138.00,49.784
1139.00,49.787
1140.00,49.774
1141.00,49.747
1142.00,49.757
1143.00,49.764
1144.00,49.736
1145.00,49.727
1146.00,49.736
1147.00,49.737
1148.00,49.738
1149.00,49.737
1150.00,49.744
1151.00,49.762
1152.00,49.760
1153.00,49.715
1154.00,49.700
1155.00,49.707
1156.00,49.700
1157.00,49.696
1158.00,49.691
1159.00,49.681
1160.00,49.670
1161.00,49.711
1162.00,49.708
1163.00,49.691
1164.00,49.687
1165.00,49.685
1166.00,49.682
1167.00,49.681
1168.00,49.680
1169.00,49.694
1170.00,49.687
1171.00,49.659
1172.00,49.672
1173.00,49.654
1174.00,49.649
1175.00,49.643
1176.00,49.636
1177.00,49.651
1178.00,49.649
1179.00,49.655
1180.00,49.661
1181.00,49.687
1182.00,49.666
1183.00,49.661
1184.00,49.651
1185.00,49.656
1186.00,49.660
1187.00,49.640
1188.00,49.628
1189.00,49.618
1190.00,49.601
1191.00,49.623
1192.00,49.636
1193.00,49.620
1194.00,49.634
1195.00,49.610
1196.00,49.622
1197.00,49.645
1198.00,49.625
1199.00,49.611
1200.00,49.620
1201.00,49.616
1202.00,49.621
1203.00,49.611
1204.00,49.594
1205.00,49.616
1206.00,49.606
1207.00,49.598
1208.00,49.593
1209.00,49.599
1210.00,49.596
1211.00,49.593
1212.00,49.608
1213.00,49.565
1214.00,49.579
1215.00,49.555
1216.00,49.590
1217.00,49.587
1218.00,49.560
1219.00,49.587
1220.00,49.557
1221.00,49.588
1222.00,49.580
1223.00,49.594
1224.00,49.604
1225.00,49.589
1226.00,49.583
1227.00,49.584
1228.00,49.601
1229.00,49.600
1230.00,49.636
1231.00,49.610
1232.00,49.620
1233.00,49.634
1234.00,49.624
1235.00,49.633
1236.00,49.637
1237.00,49.620
1238.00,49.647
1239.00,49.629
1240.00,49.600
1241.00,49.616
1242.00,49.615
1243.00,49.632
1244.00,49.610
1245.00,49.624
1246.00,49.652
1247.00,49.643
1248.00,49.627
1249.00,49.655
1250.00,49.637
1251.00,49.626
1252.00,49.656
1253.00,49.636
1254.00,49.666
1255.00,49.650
1256.00,49.615
1257.00,49.629
1258.00,49.689
1259.00,49.669
1260.00,49.680
1261.00,49.677
1262.00,49.660
1263.00,49.666
1264.00,49.674
1265.00,49.690
1266.00,49.689
1267.00,49.685
1268.00,49.720
1269.00,49.705
1270.00,49.701
1271.00,49.720
1272.00,49.724
1273.00,49.711
1274.00,49.704
1275.00,49.707
1276.00,49.720
1277.00,49.719
1278.00,49.730
1279.00,49.735
1280.00,49.735
1281.00,49.739
1282.00,49.767
1283.00,49.742
1284.00,49.741
1285.00,49.743
1286.00,49.755
1287.00,49.752
1288.00,49.755
1289.00,49.764
1290.00,49.787
1291.00,49.774
1292.00,49.761
1293.00,49.770
1294.00,49.778
1295.00,49.794
1296.00,49.802
1297.00,49.806
1298.00,49.829
1299.00,49.812
1300.00,49.814
1301.00,49.832
1302.00,49.842
1303.00,49.842
1304.00,49.822
1305.00,49.833
1306.00,49.823
1307.00,49.841
1308.00,49.835
1309.00,49.846
1310.00,49.853
1311.00,49.843
1312.00,49.859
1313.00,49.878
1314.00,49.880
1315.00,49.908
1316.00,49.892
1317.00,49.909
1318.00,49.905
1319.00,49.887
1320.00,49.920
1321.00,50.092
1322.00,50.093
1323.00,50.083
1324.00,50.079
1325.00,50.043
1326.00,50.062
1327.00,50.056
1328.00,50.055
1329.00,50.048
1330.00,50.055
1331.00,50.023
1332.00,50.054
1333.00,50.038
1334.00,50.071
1335.00,50.088
1336.00,50.121
1337.00,50.152
1338.00,50.220
1339.00,50.260
1340.00,50.341
1341.00,50.381
1342.00,50.431
1343.00,50.509
1344.00,50.556
1345.00,50.562
1346.00,50.585
1347.00,50.676
1348.00,50.689
1349.00,50.654
1350.00,50.682
1351.00,50.723
1352.00,50.676
1353.00,50.642
1354.00,50.758
1355.00,50.722
1356.00,50.781
1357.00,50.743
1358.00,50.678
1359.00,50.762
1360.00,50.679
1361.00,51.000
1362.00,50.807
1363.00,50.850
1364.00,50.938
1365.00,50.752
1366.00,50.698
1367.00,50.905
1368.00,50.716
1369.00,50.672
1370.00,50.843
1371.00,50.860
1372.00,50.764
1373.00,50.743
1374.00,50.738
1375.00,50.709
1376.00,50.724
1377.00,50.662
1378.00,50.605
1379.00,50.754
1380.00,50.712
1381.00,50.879
1382.00,50.872
1383.00,50.770
1384.00,50.770
1385.00,50.623
1386.00,50.700
1387.00,50.819
1388.00,50.719
1389.00,50.531
1390.00,50.703
1391.00,50.834
1392.00,50.720
1393.00,50.538
1394.00,50.821
1395.00,50.878
1396.00,50.694
1397.00,50.523
1398.00,50.739
1399.00,50.796
1400.00,50.769
1401.00,50.743
1402.00,50.759
1403.00,50.740
1404.00,50.751
1405.00,50.821
1406.00,50.787
1407.00,50.791
1408.00,50.843
1409.00,50.752
1410.00,50.810
1411.00,50.540
1412.00,50.838
1413.00,50.738
1414.00,50.783
1415.00,50.820
1416.00,50.853
1417.00,50.892
1418.00,50.845
1419.00,50.846
1420.00,50.877
1421.00,50.913
1422.00,50.902
1423.00,50.919
1424.00,50.923
1425.00,50.949
1426.00,50.922
1427.00,50.994
1428.00,50.969
1429.00,50.974
1430.00,50.992
1431.00,51.011
1432.00,51.018
1433.00,51.023
1434.00,51.019
1435.00,51.064
1436.00,51.094
1437.00,51.079
1438.00,51.080
1439.00,51.137
1440.00,51.138
1441.00,51.133
1442.00,51.151
1443.00,51.182
1444.00,51.170
1445.00,51.156
1446.00,51.189
1447.00,51.237
1448.00,51.260
1449.00,51.259
1450.00,51.269
1451.00,51.282
1452.00,51.283
1453.00,51.322
1454.00,51.319
1455.00,51.334
1456.00,51.376
1457.00,51.355
1458.00,51.382
1459.00,51.410
1460.00,51.404
1461.00,51.433
1462.00,51.444
1463.00,51.445
1464.00,51.462
1465.00,51.470
1466.00,51.470
1467.00,51.506
1468.00,51.538
1469.00,51.542
1470.00,51.546
1471.00,51.552
1472.00,51.596
1473.00,51.599
1474.00,51.609
1475.00,51.630
1476.00,51.635
1477.00,51.615
1478.00,51.630
1479.00,51.657
1480.00,51.659
1481.00,51.664
1482.00,51.691
1483.00,51.714
1484.00,51.718
1485.00,51.727
1486.00,51.748
1487.00,51.771
1488.00,51.761
1489.00,51.769
1490.00,51.776
1491.00,51.796
1492.00,51.795
1493.00,51.793
1494.00,51.810
1495.00,51.827
1496.00,51.812
1497.00,51.835
1498.00,51.814
1499.00,51.820
1500.00,51.855
1501.00, 
1502.00, 
1503.00, 
1504.00, 
1505.00, 
1506.00, 
1507.00, 
1508.00, 
1509.00, 
1510.00, 
1511.00, 
1512.00, 
1513.00, 
1514.00, 
1515.00, 
1516.00, 
1517.00, 
1518.00, 
1519.00, 
1520.00, 
1521.00, 
1522.00, 
1523.00, 
1524.00, 
1525.00, 
1526.00, 
1527.00, 
1528.00, 
1529.00, 
1530.00, 
1531.00, 
1532.00, 
1533.00, 
1534.00, 
1535.00, 
1536.00, 
1537.00, 
1538.00, 
1539.00, 
1540.00, 
1541.00, 
1542.00, 
1543.00, 
1544.00, 
1545.00, 
1546.00, 
1547.00, 
1548.00, 
1549.00, 
1550.00, 
1551.00, 
1552.00, 
1553.00, 
1554.00, 
1555.00, 
1556.00, 
1557.00, 
1558.00, 
1559.00, 
1560.00, 
1561.00, 
1562.00, 
1563.00, 
1564.00, 
1565.00, 
1566.00, 
1567.00, 
1568.00, 
1569.00, 
1570.00, 
1571.00, 
1572.00, 
1573.00, 
1574.00, 
1575.00, 
1576.00, 
1577.00, 
1578.00, 
1579.00, 
1580.00, 
1581.00, 
1582.00, 
1583.00, 
1584.00, 
1585.00, 
1586.00, 
1587.00, 
1588.00, 
1589.00, 
1590.00, 
1591.00, 
1592.00, 
1593.00, 
1594.00, 
1595.00, 
1596.00, 
1597.00, 
1598.00, 
1599.00, 
1600.00, 
1601.00, 
1602.00, 
1603.00, 
1604.00, 
1605.00, 
1606.00, 
1607.00, 
1608.00, 
1609.00, 
1610.00, 
1611.00, 
1612.00, 
1613.00, 
1614.00, 
1615.00, 
1616.00, 
1617.00, 
1618.00, 
1619.00, 
1620.00, 
1621.00, 
1622.00, 
1623.00, 
1624.00, 
1625.00, 
1626.00, 
1627.00, 
1628.00, 
1629.00, 
1630.00, 
1631.00, 
1632.00, 
1633.00, 
1634.00, 
1635.00, 
1636.00, 
1637.00, 
1638.00, 
1639.00, 
1640.00, 
1641.00, 
1642.00, 
1643.00, 
1644.00, 
1645.00, 
1646.00, 
1647.00, 
1648.00, 
1649.00, 
1650.00, 
1651.00, 
1652.00, 
1653.00, 
1654.00, 
1655.00, 
1656.00, 
1657.00, 
1658.00, 
1659.00, 
1660.00, 
1661.00, 
1662.00, 
1663.00, 
1664.00, 
1665.00, 
1666.00, 
1667.00, 
1668.00, 
1669.00, 
1670.00, 
1671.00, 
1672.00, 
1673.00, 
1674.00, 
1675.00, 
1676.00, 
1677.00, 
1678.00, 
1679.00, 
1680.00, 
1681.00, 
1682.00, 
1683.00, 
1684.00, 
1685.00, 
1686.00, 
1687.00, 
1688.00, 
1689.00, 
1690.00, 
1691.00, 
1692.00, 
1693.00, 
1694.00, 
1695.00, 
1696.00, 
1697.00, 
1698.00, 
1699.00, 
1700.00, 
1701.00, 
1702.00, 
1703.00, 
1704.00, 
1705.00, 
1706.00, 
1707.00, 
1708.00, 
1709.00, 
1710.00, 
1711.00, 
1712.00, 
1713.00, 
1714.00, 
1715.00, 
1716.00, 
1717.00, 
1718.00, 
1719.00, 
1720.00, 
1721.00, 
1722.00, 
1723.00, 
1724.00, 
1725.00, 
1726.00, 
1727.00, 
1728.00, 
1729.00, 
1730.00, 
1731.00, 
1732.00, 
1733.00, 
1734.00, 
1735.00, 
1736.00, 
1737.00, 
1738.00, 
1739.00, 
1740.00, 
1741.00, 
1742.00, 
1743.00, 
1744.00, 
1745.00, 
1746.00, 
1747.00, 
1748.00, 
1749.00, 
1750.00, 
1751.00, 
1752.00, 
1753.00, 
1754.00, 
1755.00, 
1756.00, 
1757.00, 
1758.00, 
1759.00, 
1760.00, 
1761.00, 
1762.00, 
1763.00, 
1764.00, 
1765.00, 
1766.00, 
1767.00, 
1768.00, 
1769.00, 
1770.00, 
1771.00, 
1772.00, 
1773.00, 
1774.00, 
1775.00, 
1776.00, 
1777.00, 
1778.00, 
1779.00, 
1780.00, 
1781.00, 
1782.00, 
1783.00, 
1784.00, 
1785.00, 
1786.00, 
1787.00, 
1788.00, 
1789.00, 
1790.00, 
1791.00, 
1792.00, 
1793.00, 
1794.00, 
1795.00, 
1796.00, 
1797.00, 
1798.00, 
1799.00, 
1800.00, 
1801.00, 
1802.00, 
1803.00, 
1804.00, 
1805.00, 
1806.00, 
1807.00, 
1808.00, 
1809.00, 
1810.00, 
1811.00, 
1812.00, 
1813.00, 
1814.00, 
1815.00, 
1816.00, 
1817.00, 
1818.00, 
1819.00, 
1820.00, 
1821.00, 
1822.00, 
1823.00, 
1824.00, 
1825.00, 
1826.00, 
1827.00, 
1828.00, 
1829.00, 
1830.00, 
1831.00, 
1832.00, 
1833.00, 
1834.00, 
1835.00, 
1836.00, 
1837.00, 
1838.00, 
1839.00, 
1840.00, 
1841.00, 
1842.00, 
1843.00, 
1844.00, 
1845.00, 
1846.00, 
1847.00, 
1848.00, 
1849.00, 
1850.00, 
1851.00, 
1852.00, 
1853.00, 
1854.00, 
1855.00, 
1856.00, 
1857.00, 
1858.00, 
1859.00, 
1860.00, 
1861.00, 
1862.00, 
1863.00, 
1864.00, 
1865.00, 
1866.00, 
1867.00, 
1868.00, 
1869.00, 
1870.00, 
1871.00, 
1872.00, 
1873.00, 
1874.00, 
1875.00, 
1876.00, 
1877.00, 
1878.00, 
1879.00, 
1880.00, 
1881.00, 
1882.00, 
1883.00, 
1884.00, 
1885.00, 
1886.00, 
1887.00, 
1888.00, 
1889.00, 
1890.00, 
1891.00, 
1892.00, 
1893.00, 
1894.00, 
1895.00, 
1896.00, 
1897.00, 
1898.00, 
1899.00, 
1900.00, 
1901.00, 
1902.00, 
1903.00, 
1904.00, 
1905.00, 
1906.00, 
1907.00, 
1908.00, 
1909.00, 
1910.00, 
1911.00, 
1912.00, 
1913.00, 
1914.00, 
1915.00, 
1916.00, 
1917.00, 
1918.00, 
1919.00, 
1920.00, 
1921.00, 
1922.00, 
1923.00, 
1924.00, 
1925.00, 
1926.00, 
1927.00, 
1928.00, 
1929.00, 
1930.00, 
1931.00, 
1932.00, 
1933.00, 
1934.00, 
1935.00, 
1936.00, 
1937.00, 
1938.00, 
1939.00, 
1940.00, 
1941.00, 
1942.00, 
1943.00, 
1944.00, 
1945.00, 
1946.00, 
1947.00, 
1948.00, 
1949.00, 
1950.00, 
1951.00, 
1952.00, 
1953.00, 
1954.00, 
1955.00, 
1956.00, 
1957.00, 
1958.00, 
1959.00, 
1960.00, 
1961.00, 
1962.00, 
1963.00, 
1964.00, 
1965.00, 
1966.00, 
1967.00, 
1968.00, 
1969.00, 
1970.00, 
1971.00, 
1972.00, 
1973.00, 
1974.00, 
1975.00, 
1976.00, 
1977.00, 
1978.00, 
1979.00, 
1980.00, 
1981.00, 
1982.00, 
1983.00, 
1984.00, 
1985.00, 
1986.00, 
1987.00, 
1988.00, 
1989.00, 
1990.00, 
1991.00, 
1992.00, 
1993.00, 
1994.00, 
1995.00, 
1996.00, 
1997.00, 
1998.00, 
1999.00, 
2000.00, 
2001.00, 
2002.00, 
2003.00, 
2004.00, 
2005.00, 
2006.00, 
2007.00, 
2008.00, 
2009.00, 
2010.00, 
2011.00, 
2012.00, 
2013.00, 
2014.00, 
2015.00, 
2016.00, 
2017.00, 
2018.00, 
2019.00, 
2020.00, 
2021.00, 
2022.00, 
2023.00, 
2024.00, 
2025.00, 
2026.00, 
2027.00, 
2028.00, 
2029.00, 
2030.00, 
2031.00, 
2032.00, 
2033.00, 
2034.00, 
2035.00, 
2036.00, 
2037.00, 
2038.00, 
2039.00, 
2040.00, 
2041.00, 
2042.00, 
2043.00, 
2044.00, 
2045.00, 
2046.00, 
2047.00, 
2048.00, 
2049.00, 
2050.00, 
2051.00, 
2052.00, 
2053.00, 
2054.00, 
2055.00, 
2056.00, 
2057.00, 
2058.00, 
2059.00, 
2060.00, 
2061.00, 
2062.00, 
2063.00, 
2064.00, 
2065.00, 
2066.00, 
2067.00, 
2068.00, 
2069.00, 
2070.00, 
2071.00, 
2072.00, 
2073.00, 
2074.00, 
2075.00, 
2076.00, 
2077.00, 
2078.00, 
2079.00, 
2080.00, 
2081.00, 
2082.00, 
2083.00, 
2084.00, 
2085.00, 
2086.00, 
2087.00, 
2088.00, 
2089.00, 
2090.00, 
2091.00, 
2092.00, 
2093.00, 
2094.00, 
2095.00, 
2096.00, 
2097.00, 
2098.00, 
2099.00, 
2100.00, 
2101.00, 
2102.00, 
2103.00, 
2104.00, 
2105.00, 
2106.00, 
2107.00, 
2108.00, 
2109.00, 
2110.00, 
2111.00, 
2112.00, 
2113.00, 
2114.00, 
2115.00, 
2116.00, 
2117.00, 
2118.00, 
2119.00, 
2120.00, 
2121.00, 
2122.00, 
2123.00, 
2124.00, 
2125.00, 
2126.00, 
2127.00, 
2128.00, 
2129.00, 
2130.00, 
2131.00, 
2132.00, 
2133.00, 
2134.00, 
2135.00, 
2136.00, 
2137.00, 
2138.00, 
2139.00, 
2140.00, 
2141.00, 
2142.00, 
2143.00, 
2144.00, 
2145.00, 
2146.00, 
2147.00, 
2148.00, 
2149.00, 
2150.00, 
2151.00, 
2152.00, 
2153.00, 
2154.00, 
2155.00, 
2156.00, 
2157.00, 
2158.00, 
2159.00, 
2160.00, 
2161.00, 
2162.00, 
2163.00, 
2164.00, 
2165.00, 
2166.00, 
2167.00, 
2168.00, 
2169.00, 
2170.00, 
2171.00, 
2172.00, 
2173.00, 
2174.00, 
2175.00, 
2176.00, 
2177.00, 
2178.00, 
2179.00, 
2180.00, 
2181.00, 
2182.00, 
2183.00, 
2184.00, 
2185.00, 
2186.00, 
2187.00, 
2188.00, 
2189.00, 
2190.00, 
2191.00, 
2192.00, 
2193.00, 
2194.00, 
2195.00, 
2196.00, 
2197.00, 
2198.00, 
2199.00, 
2200.00, 
2201.00, 
2202.00, 
2203.00, 
2204.00, 
2205.00, 
2206.00, 
2207.00, 
2208.00, 
2209.00, 
2210.00, 
2211.00, 
2212.00, 
2213.00, 
2214.00, 
2215.00, 
2216.00, 
2217.00, 
2218.00, 
2219.00, 
2220.00, 
2221.00, 
2222.00, 
2223.00, 
2224.00, 
2225.00, 
2226.00, 
2227.00, 
2228.00, 
2229.00, 
2230.00, 
2231.00, 
2232.00, 
2233.00, 
2234.00, 
2235.00, 
2236.00, 
2237.00, 
2238.00, 
2239.00, 
2240.00, 
2241.00, 
2242.00, 
2243.00, 
2244.00, 
2245.00, 
2246.00, 
2247.00, 
2248.00, 
2249.00, 
2250.00, 
2251.00, 
2252.00, 
2253.00, 
2254.00, 
2255.00, 
2256.00, 
2257.00, 
2258.00, 
2259.00, 
2260.00, 
2261.00, 
2262.00, 
2263.00, 
2264.00, 
2265.00, 
2266.00, 
2267.00, 
2268.00, 
2269.00, 
2270.00, 
2271.00, 
2272.00, 
2273.00, 
2274.00, 
2275.00, 
2276.00, 
2277.00, 
2278.00, 
2279.00, 
2280.00, 
2281.00, 
2282.00, 
2283.00, 
2284.00, 
2285.00, 
2286.00, 
2287.00, 
2288.00, 
2289.00, 
2290.00, 
2291.00, 
2292.00, 
2293.00, 
2294.00, 
2295.00, 
2296.00, 
2297.00, 
2298.00, 
2299.00, 
2300.00, 
2301.00, 
2302.00, 
2303.00, 
2304.00, 
2305.00, 
2306.00, 
2307.00, 
2308.00, 
2309.00, 
2310.00, 
2311.00, 
2312.00, 
2313.00, 
2314.00, 
2315.00, 
2316.00, 
2317.00, 
2318.00, 
2319.00, 
2320.00, 
2321.00, 
2322.00, 
2323.00, 
2324.00, 
2325.00, 
2326.00, 
2327.00, 
2328.00, 
2329.00, 
2330.00, 
2331.00, 
2332.00, 
2333.00, 
2334.00, 
2335.00, 
2336.00, 
2337.00, 
2338.00, 
2339.00, 
2340.00, 
2341.00, 
2342.00, 
2343.00, 
2344.00, 
2345.00, 
2346.00, 
2347.00, 
2348.00, 
2349.00, 
2350.00, 
2351.00, 
2352.00, 
2353.00, 
2354.00, 
2355.00, 
2356.00, 
2357.00, 
2358.00, 
2359.00, 
2360.00, 
2361.00, 
2362.00, 
2363.00, 
2364.00, 
2365.00, 
2366.00, 
2367.00, 
2368.00, 
2369.00, 
2370.00, 
2371.00, 
2372.00, 
2373.00, 
2374.00, 
2375.00, 
2376.00, 
2377.00, 
2378.00, 
2379.00, 
2380.00, 
2381.00, 
2382.00, 
2383.00, 
2384.00, 
2385.00, 
2386.00, 
2387.00, 
2388.00, 
2389.00, 
2390.00, 
2391.00, 
2392.00, 
2393.00, 
2394.00, 
2395.00, 
2396.00, 
2397.00, 
2398.00, 
2399.00, 
2400.00, 
2401.00, 
2402.00, 
2403.00, 
2404.00, 
2405.00, 
2406.00, 
2407.00, 
2408.00, 
2409.00, 
2410.00, 
2411.00, 
2412.00, 
2413.00, 
2414.00, 
2415.00, 
2416.00, 
2417.00, 
2418.00, 
2419.00, 
2420.00, 
2421.00, 
2422.00, 
2423.00, 
2424.00, 
2425.00, 
2426.00, 
2427.00, 
2428.00, 
2429.00, 
2430.00, 
2431.00, 
2432.00, 
2433.00, 
2434.00, 
2435.00, 
2436.00, 
2437.00, 
2438.00, 
2439.00, 
2440.00, 
2441.00, 
2442.00, 
2443.00, 
2444.00, 
2445.00, 
2446.00, 
2447.00, 
2448.00, 
2449.00, 
2450.00, 
2451.00, 
2452.00, 
2453.00, 
2454.00, 
2455.00, 
2456.00, 
2457.00, 
2458.00, 
2459.00, 
2460.00, 
2461.00, 
2462.00, 
2463.00, 
2464.00, 
2465.00, 
2466.00, 
2467.00, 
2468.00, 
2469.00, 
2470.00, 
2471.00, 
2472.00, 
2473.00, 
2474.00, 
2475.00, 
2476.00, 
2477.00, 
2478.00, 
2479.00, 
2480.00, 
2481.00, 
2482.00, 
2483.00, 
2484.00, 
2485.00, 
2486.00, 
2487.00, 
2488.00, 
2489.00, 
2490.00, 
2491.00, 
2492.00, 
2493.00, 
2494.00, 
2495.00, 
2496.00, 
2497.00, 
2498.00, 
2499.00, 
2500.00, 
2501.00, 
2502.00, 
2503.00, 
2504.00, 
2505.00, 
2506.00, 
2507.00, 
2508.00, 
2509.00, 
2510.00, 
2511.00, 
2512.00, 
2513.00, 
2514.00, 
2515.00, 
2516.00, 
2517.00, 
2518.00, 
2519.00, 
2520.00, 
2521.00, 
2522.00, 
2523.00, 
2524.00, 
2525.00, 
2526.00, 
2527.00, 
2528.00, 
2529.00, 
2530.00, 
2531.00, 
2532.00, 
2533.00, 
2534.00, 
2535.00, 
2536.00, 
2537.00, 
2538.00, 
2539.00, 
2540.00, 
2541.00, 
2542.00, 
2543.00, 
2544.00, 
2545.00, 
2546.00, 
2547.00, 
2548.00, 
2549.00, 
2550.00, 
2551.00, 
2552.00, 
2553.00, 
2554.00, 
2555.00, 
2556.00, 
2557.00, 
2558.00, 
2559.00, 
2560.00, 
2561.00, 
2562.00, 
2563.00, 
2564.00, 
2565.00, 
2566.00, 
2567.00, 
2568.00, 
2569.00, 
2570.00, 
2571.00, 
2572.00, 
2573.00, 
2574.00, 
2575.00, 
2576.00, 
2577.00, 
2578.00, 
2579.00, 
2580.00, 
2581.00, 
2582.00, 
2583.00, 
2584.00, 
2585.00, 
2586.00, 
2587.00, 
2588.00, 
2589.00, 
2590.00, 
2591.00, 
2592.00, 
2593.00, 
2594.00, 
2595.00, 
2596.00, 
2597.00, 
2598.00, 
2599.00, 
2600.00, 
