"1aP2 - RawData"
"Wavelength nm.","T%"
200.00,0.004
201.00,0.002
202.00,-0.000
203.00,0.002
204.00,0.002
205.00,0.002
206.00,0.000
207.00,0.003
208.00,0.003
209.00,0.002
210.00,0.004
211.00,0.002
212.00,0.002
213.00,0.002
214.00,0.001
215.00,-0.001
216.00,-0.000
217.00,0.000
218.00,0.001
219.00,0.003
220.00,0.002
221.00,0.001
222.00,0.002
223.00,0.001
224.00,0.000
225.00,-0.000
226.00,0.002
227.00,0.003
228.00,0.001
229.00,-0.001
230.00,-0.000
231.00,0.001
232.00,0.000
233.00,0.002
234.00,-0.000
235.00,0.001
236.00,-0.001
237.00,0.001
238.00,0.000
239.00,0.001
240.00,0.000
241.00,0.003
242.00,0.000
243.00,0.001
244.00,0.003
245.00,-0.000
246.00,-0.000
247.00,-0.000
248.00,0.001
249.00,0.000
250.00,0.001
251.00,0.001
252.00,-0.001
253.00,-0.000
254.00,0.000
255.00,0.001
256.00,0.000
257.00,-0.001
258.00,0.001
259.00,0.002
260.00,-0.002
261.00,-0.001
262.00,-0.001
263.00,0.002
264.00,0.000
265.00,0.000
266.00,-0.000
267.00,0.001
268.00,-0.001
269.00,0.000
270.00,-0.001
271.00,-0.000
272.00,-0.000
273.00,0.001
274.00,0.000
275.00,-0.001
276.00,0.000
277.00,-0.001
278.00,-0.001
279.00,0.001
280.00,0.001
281.00,0.000
282.00,-0.000
283.00,-0.001
284.00,0.001
285.00,-0.001
286.00,0.001
287.00,0.001
288.00,-0.002
289.00,0.001
290.00,-0.000
291.00,0.000
292.00,0.000
293.00,0.002
294.00,0.000
295.00,-0.001
296.00,0.001
297.00,0.001
298.00,0.002
299.00,0.002
300.00,0.005
301.00,0.005
302.00,0.007
303.00,0.013
304.00,0.019
305.00,0.030
306.00,0.048
307.00,0.072
308.00,0.114
309.00,0.180
310.00,0.241
311.00,0.330
312.00,0.437
313.00,0.580
314.00,0.784
315.00,0.991
316.00,1.270
317.00,1.599
318.00,1.941
319.00,2.359
320.00,2.863
321.00,3.404
322.00,3.987
323.00,4.685
324.00,5.395
325.00,6.109
326.00,6.786
327.00,7.622
328.00,8.481
329.00,9.302
330.00,10.177
331.00,11.039
332.00,11.906
333.00,12.841
334.00,13.717
335.00,14.625
336.00,15.496
337.00,16.409
338.00,17.209
339.00,17.997
340.00,18.870
341.00,19.523
342.00,20.251
343.00,20.902
344.00,21.629
345.00,22.264
346.00,22.865
347.00,23.395
348.00,23.928
349.00,24.382
350.00,24.892
351.00,25.332
352.00,25.715
353.00,26.087
354.00,26.409
355.00,26.675
356.00,27.071
357.00,27.298
358.00,27.524
359.00,27.850
360.00,28.083
361.00,28.218
362.00,28.464
363.00,28.629
364.00,28.737
365.00,28.870
366.00,29.043
367.00,29.095
368.00,29.205
369.00,29.190
370.00,29.250
371.00,29.317
372.00,29.245
373.00,29.254
374.00,29.174
375.00,29.270
376.00,29.184
377.00,29.174
378.00,29.104
379.00,29.019
380.00,28.985
381.00,29.012
382.00,28.992
383.00,28.969
384.00,29.018
385.00,29.004
386.00,29.090
387.00,29.245
388.00,29.303
389.00,29.306
390.00,29.326
391.00,29.406
392.00,29.401
393.00,29.420
394.00,29.443
395.00,29.550
396.00,29.508
397.00,29.522
398.00,29.501
399.00,29.500
400.00,29.565
401.00,29.521
402.00,29.528
403.00,29.495
404.00,29.641
405.00,29.548
406.00,29.520
407.00,29.442
408.00,29.467
409.00,29.407
410.00,29.319
411.00,29.359
412.00,29.319
413.00,29.360
414.00,29.347
415.00,29.332
416.00,29.378
417.00,29.351
418.00,29.380
419.00,29.481
420.00,29.477
421.00,29.576
422.00,29.589
423.00,29.618
424.00,29.667
425.00,29.729
426.00,29.675
427.00,29.782
428.00,29.834
429.00,29.856
430.00,29.877
431.00,29.984
432.00,29.969
433.00,30.064
434.00,30.099
435.00,30.147
436.00,30.215
437.00,30.265
438.00,30.306
439.00,30.416
440.00,30.527
441.00,30.589
442.00,30.664
443.00,30.680
444.00,30.727
445.00,30.866
446.00,30.979
447.00,31.084
448.00,31.195
449.00,31.310
450.00,31.375
451.00,31.551
452.00,31.600
453.00,31.665
454.00,31.814
455.00,31.895
456.00,31.997
457.00,32.141
458.00,32.223
459.00,32.318
460.00,32.504
461.00,32.635
462.00,32.781
463.00,32.849
464.00,33.015
465.00,33.104
466.00,33.222
467.00,33.372
468.00,33.497
469.00,33.626
470.00,33.700
471.00,33.776
472.00,33.873
473.00,33.936
474.00,34.031
475.00,34.171
476.00,34.262
477.00,34.383
478.00,34.500
479.00,34.669
480.00,34.865
481.00,34.843
482.00,34.997
483.00,35.118
484.00,35.278
485.00,35.431
486.00,35.562
487.00,35.685
488.00,35.830
489.00,35.987
490.00,36.136
491.00,36.237
492.00,36.452
493.00,36.563
494.00,36.527
495.00,36.679
496.00,36.803
497.00,36.924
498.00,37.083
499.00,37.185
500.00,37.288
501.00,37.396
502.00,37.520
503.00,37.654
504.00,37.707
505.00,37.818
506.00,37.924
507.00,37.956
508.00,38.083
509.00,38.218
510.00,38.335
511.00,38.410
512.00,38.551
513.00,38.688
514.00,38.730
515.00,38.783
516.00,38.993
517.00,39.131
518.00,39.231
519.00,39.312
520.00,39.375
521.00,39.373
522.00,39.500
523.00,39.526
524.00,39.574
525.00,39.672
526.00,39.740
527.00,39.836
528.00,39.902
529.00,39.994
530.00,40.126
531.00,40.350
532.00,40.322
533.00,40.439
534.00,40.515
535.00,40.586
536.00,40.649
537.00,40.682
538.00,40.778
539.00,40.790
540.00,40.820
541.00,40.883
542.00,40.950
543.00,40.926
544.00,40.993
545.00,41.092
546.00,41.111
547.00,41.256
548.00,41.297
549.00,41.362
550.00,41.456
551.00,41.536
552.00,41.594
553.00,41.633
554.00,41.670
555.00,41.683
556.00,41.762
557.00,41.814
558.00,41.800
559.00,41.883
560.00,42.001
561.00,42.035
562.00,42.067
563.00,42.089
564.00,42.133
565.00,42.159
566.00,42.177
567.00,42.212
568.00,42.201
569.00,42.278
570.00,42.241
571.00,42.344
572.00,42.348
573.00,42.327
574.00,42.402
575.00,42.415
576.00,42.362
577.00,42.428
578.00,42.500
579.00,42.522
580.00,42.589
581.00,42.739
582.00,42.812
583.00,42.810
584.00,42.894
585.00,42.985
586.00,42.986
587.00,42.974
588.00,43.024
589.00,42.974
590.00,43.017
591.00,43.054
592.00,43.014
593.00,43.066
594.00,43.203
595.00,43.193
596.00,43.288
597.00,43.326
598.00,43.421
599.00,43.405
600.00,43.534
601.00,43.531
602.00,43.456
603.00,43.491
604.00,43.537
605.00,43.549
606.00,43.564
607.00,43.602
608.00,43.724
609.00,43.735
610.00,43.649
611.00,43.736
612.00,43.728
613.00,43.812
614.00,43.867
615.00,43.859
616.00,43.977
617.00,44.018
618.00,43.969
619.00,44.052
620.00,44.023
621.00,44.132
622.00,44.209
623.00,44.306
624.00,44.284
625.00,44.355
626.00,44.386
627.00,44.426
628.00,44.415
629.00,44.462
630.00,44.512
631.00,44.542
632.00,44.571
633.00,44.677
634.00,44.740
635.00,44.844
636.00,44.876
637.00,44.948
638.00,44.951
639.00,44.977
640.00,45.062
641.00,45.131
642.00,45.116
643.00,45.219
644.00,45.320
645.00,45.360
646.00,45.485
647.00,45.497
648.00,45.528
649.00,45.607
650.00,45.551
651.00,45.688
652.00,45.702
653.00,45.759
654.00,45.796
655.00,45.923
656.00,46.090
657.00,46.221
658.00,46.186
659.00,46.359
660.00,46.260
661.00,46.277
662.00,46.447
663.00,46.385
664.00,46.594
665.00,46.743
666.00,46.604
667.00,46.864
668.00,46.776
669.00,46.855
670.00,47.126
671.00,47.011
672.00,47.135
673.00,47.175
674.00,47.265
675.00,47.250
676.00,47.356
677.00,47.585
678.00,47.326
679.00,47.615
680.00,47.636
681.00,47.573
682.00,47.801
683.00,47.800
684.00,47.904
685.00,47.702
686.00,47.789
687.00,48.034
688.00,48.080
689.00,48.075
690.00,48.278
691.00,48.405
692.00,48.235
693.00,48.247
694.00,48.388
695.00,48.466
696.00,48.622
697.00,48.638
698.00,48.680
699.00,48.844
700.00,48.836
701.00,48.982
702.00,49.037
703.00,49.092
704.00,49.216
705.00,49.040
706.00,49.035
707.00,49.236
708.00,48.993
709.00,49.331
710.00,49.662
711.00,48.990
712.00,49.180
713.00,49.722
714.00,49.487
715.00,49.668
716.00,49.560
717.00,49.536
718.00,49.801
719.00,49.835
720.00,49.892
721.00,54.212
722.00,54.262
723.00,54.294
724.00,54.304
725.00,54.252
726.00,54.157
727.00,54.221
728.00,54.238
729.00,54.303
730.00,54.206
731.00,54.280
732.00,54.229
733.00,54.334
734.00,54.287
735.00,54.310
736.00,54.401
737.00,54.374
738.00,54.469
739.00,54.464
740.00,54.403
741.00,54.382
742.00,54.417
743.00,54.400
744.00,54.277
745.00,54.415
746.00,54.292
747.00,54.302
748.00,54.357
749.00,54.343
750.00,54.334
751.00,54.322
752.00,54.330
753.00,54.293
754.00,54.304
755.00,54.358
756.00,54.349
757.00,54.236
758.00,54.280
759.00,54.241
760.00,54.271
761.00,54.325
762.00,54.192
763.00,54.363
764.00,54.287
765.00,54.192
766.00,54.285
767.00,54.276
768.00,54.294
769.00,54.246
770.00,54.356
771.00,54.250
772.00,54.317
773.00,54.275
774.00,54.315
775.00,54.344
776.00,54.259
777.00,54.308
778.00,54.254
779.00,54.311
780.00,54.214
781.00,54.222
782.00,54.290
783.00,54.181
784.00,54.211
785.00,54.166
786.00,54.259
787.00,54.182
788.00,54.136
789.00,54.178
790.00,54.058
791.00,54.151
792.00,54.041
793.00,54.129
794.00,54.074
795.00,54.089
796.00,54.079
797.00,54.076
798.00,53.990
799.00,53.991
800.00,54.009
801.00,53.934
802.00,53.907
803.00,53.898
804.00,53.874
805.00,53.835
806.00,53.836
807.00,53.841
808.00,53.855
809.00,53.739
810.00,53.769
811.00,53.685
812.00,53.710
813.00,53.731
814.00,53.716
815.00,53.718
816.00,53.694
817.00,53.669
818.00,53.583
819.00,53.622
820.00,53.513
821.00,53.641
822.00,53.628
823.00,53.539
824.00,53.546
825.00,53.597
826.00,53.541
827.00,53.609
828.00,53.641
829.00,53.325
830.00,53.551
831.00,55.980
832.00,55.973
833.00,55.967
834.00,55.929
835.00,55.860
836.00,55.962
837.00,55.826
838.00,55.860
839.00,55.854
840.00,55.784
841.00,55.817
842.00,55.772
843.00,55.795
844.00,55.745
845.00,55.700
846.00,55.704
847.00,55.697
848.00,55.707
849.00,55.634
850.00,55.626
851.00,55.515
852.00,55.557
853.00,55.478
854.00,55.476
855.00,55.459
856.00,55.428
857.00,55.425
858.00,55.396
859.00,55.357
860.00,55.329
861.00,55.333
862.00,55.389
863.00,55.285
864.00,55.285
865.00,55.304
866.00,55.260
867.00,55.282
868.00,55.237
869.00,55.231
870.00,55.244
871.00,55.201
872.00,55.225
873.00,55.200
874.00,55.190
875.00,55.156
876.00,55.181
877.00,55.142
878.00,55.138
879.00,55.133
880.00,55.097
881.00,55.060
882.00,55.121
883.00,55.067
884.00,55.035
885.00,55.010
886.00,55.023
887.00,54.966
888.00,54.952
889.00,54.992
890.00,54.956
891.00,54.829
892.00,54.870
893.00,55.017
894.00,54.884
895.00,54.855
896.00,54.834
897.00,54.814
898.00,54.794
899.00,54.792
900.00,54.804
901.00,54.783
902.00,54.782
903.00,54.726
904.00,54.690
905.00,54.712
906.00,54.682
907.00,54.668
908.00,54.664
909.00,54.653
910.00,54.579
911.00,54.597
912.00,54.580
913.00,54.548
914.00,54.532
915.00,54.497
916.00,54.467
917.00,54.500
918.00,54.468
919.00,54.438
920.00,54.414
921.00,54.408
922.00,54.391
923.00,54.367
924.00,54.340
925.00,54.326
926.00,54.324
927.00,54.302
928.00,54.275
929.00,54.316
930.00,54.268
931.00,54.232
932.00,54.165
933.00,54.287
934.00,54.177
935.00,54.170
936.00,54.137
937.00,54.126
938.00,54.126
939.00,54.129
940.00,54.089
941.00,54.113
942.00,54.064
943.00,54.049
944.00,53.992
945.00,54.002
946.00,53.981
947.00,53.972
948.00,53.957
949.00,53.925
950.00,53.910
951.00,53.905
952.00,53.885
953.00,53.840
954.00,53.828
955.00,53.772
956.00,53.775
957.00,53.743
958.00,53.743
959.00,53.666
960.00,53.667
961.00,53.690
962.00,53.695
963.00,53.640
964.00,53.638
965.00,53.641
966.00,53.605
967.00,53.600
968.00,53.589
969.00,53.613
970.00,53.589
971.00,53.622
972.00,53.572
973.00,53.617
974.00,53.632
975.00,53.600
976.00,53.613
977.00,53.580
978.00,53.634
979.00,53.580
980.00,53.613
981.00,53.615
982.00,53.578
983.00,53.589
984.00,53.595
985.00,53.603
986.00,53.563
987.00,53.582
988.00,53.552
989.00,53.534
990.00,53.526
991.00,53.526
992.00,53.532
993.00,53.463
994.00,53.495
995.00,53.480
996.00,53.464
997.00,53.448
998.00,53.439
999.00,53.450
1000.00,53.411
1001.00,53.407
1002.00,53.387
1003.00,53.401
1004.00,53.368
1005.00,53.329
1006.00,53.366
1007.00,53.330
1008.00,53.304
1009.00,53.299
1010.00,53.299
1011.00,53.295
1012.00,53.270
1013.00,53.290
1014.00,53.252
1015.00,53.261
1016.00,53.224
1017.00,53.217
1018.00,53.211
1019.00,53.167
1020.00,53.172
1021.00,53.154
1022.00,53.149
1023.00,53.102
1024.00,53.101
1025.00,53.100
1026.00,53.079
1027.00,53.068
1028.00,53.057
1029.00,53.047
1030.00,53.026
1031.00,53.043
1032.00,52.989
1033.00,53.004
1034.00,52.978
1035.00,52.916
1036.00,52.891
1037.00,52.897
1038.00,52.871
1039.00,52.858
1040.00,52.856
1041.00,52.821
1042.00,52.816
1043.00,52.785
1044.00,52.819
1045.00,52.802
1046.00,52.776
1047.00,52.799
1048.00,52.795
1049.00,52.810
1050.00,52.814
1051.00,52.859
1052.00,52.858
1053.00,52.844
1054.00,52.858
1055.00,52.905
1056.00,52.904
1057.00,52.908
1058.00,52.907
1059.00,52.891
1060.00,52.906
1061.00,52.897
1062.00,52.888
1063.00,52.877
1064.00,52.882
1065.00,52.862
1066.00,52.858
1067.00,52.845
1068.00,52.866
1069.00,52.847
1070.00,52.838
1071.00,52.809
1072.00,52.841
1073.00,52.813
1074.00,52.803
1075.00,52.797
1076.00,52.792
1077.00,52.773
1078.00,52.759
1079.00,52.763
1080.00,52.777
1081.00,52.760
1082.00,52.739
1083.00,52.743
1084.00,52.741
1085.00,52.729
1086.00,52.737
1087.00,52.716
1088.00,52.711
1089.00,52.694
1090.00,52.702
1091.00,52.710
1092.00,52.693
1093.00,52.675
1094.00,52.663
1095.00,52.661
1096.00,52.642
1097.00,52.655
1098.00,52.647
1099.00,52.629
1100.00,52.615
1101.00,52.597
1102.00,52.597
1103.00,52.599
1104.00,52.588
1105.00,52.586
1106.00,52.553
1107.00,52.550
1108.00,52.546
1109.00,52.538
1110.00,52.545
1111.00,52.533
1112.00,52.511
1113.00,52.514
1114.00,52.503
1115.00,52.505
1116.00,52.500
1117.00,52.476
1118.00,52.464
1119.00,52.482
1120.00,52.469
1121.00,52.474
1122.00,52.458
1123.00,52.438
1124.00,52.447
1125.00,52.433
1126.00,52.435
1127.00,52.434
1128.00,52.414
1129.00,52.404
1130.00,52.413
1131.00,52.397
1132.00,52.389
1133.00,52.390
1134.00,52.374
1135.00,52.383
1136.00,52.397
1137.00,52.395
1138.00,52.404
1139.00,52.388
1140.00,52.365
1141.00,52.359
1142.00,52.337
1143.00,52.347
1144.00,52.330
1145.00,52.324
1146.00,52.360
1147.00,52.342
1148.00,52.337
1149.00,52.354
1150.00,52.366
1151.00,52.365
1152.00,52.364
1153.00,52.362
1154.00,52.353
1155.00,52.344
1156.00,52.339
1157.00,52.350
1158.00,52.341
1159.00,52.340
1160.00,52.335
1161.00,52.345
1162.00,52.339
1163.00,52.345
1164.00,52.330
1165.00,52.326
1166.00,52.325
1167.00,52.315
1168.00,52.347
1169.00,52.340
1170.00,52.331
1171.00,52.329
1172.00,52.303
1173.00,52.293
1174.00,52.314
1175.00,52.299
1176.00,52.311
1177.00,52.312
1178.00,52.307
1179.00,52.334
1180.00,52.315
1181.00,52.336
1182.00,52.338
1183.00,52.329
1184.00,52.316
1185.00,52.336
1186.00,52.332
1187.00,52.327
1188.00,52.303
1189.00,52.316
1190.00,52.295
1191.00,52.296
1192.00,52.331
1193.00,52.294
1194.00,52.295
1195.00,52.270
1196.00,52.317
1197.00,52.305
1198.00,52.285
1199.00,52.288
1200.00,52.289
1201.00,52.308
1202.00,52.302
1203.00,52.321
1204.00,52.322
1205.00,52.332
1206.00,52.329
1207.00,52.342
1208.00,52.304
1209.00,52.312
1210.00,52.313
1211.00,52.296
1212.00,52.323
1213.00,52.289
1214.00,52.298
1215.00,52.289
1216.00,52.293
1217.00,52.300
1218.00,52.303
1219.00,52.301
1220.00,52.312
1221.00,52.309
1222.00,52.307
1223.00,52.346
1224.00,52.322
1225.00,52.303
1226.00,52.319
1227.00,52.326
1228.00,52.336
1229.00,52.326
1230.00,52.335
1231.00,52.342
1232.00,52.355
1233.00,52.359
1234.00,52.364
1235.00,52.366
1236.00,52.363
1237.00,52.379
1238.00,52.377
1239.00,52.381
1240.00,52.377
1241.00,52.373
1242.00,52.380
1243.00,52.399
1244.00,52.364
1245.00,52.399
1246.00,52.410
1247.00,52.391
1248.00,52.391
1249.00,52.392
1250.00,52.401
1251.00,52.388
1252.00,52.420
1253.00,52.425
1254.00,52.428
1255.00,52.410
1256.00,52.419
1257.00,52.401
1258.00,52.435
1259.00,52.433
1260.00,52.447
1261.00,52.439
1262.00,52.436
1263.00,52.433
1264.00,52.447
1265.00,52.460
1266.00,52.451
1267.00,52.482
1268.00,52.477
1269.00,52.466
1270.00,52.480
1271.00,52.486
1272.00,52.482
1273.00,52.507
1274.00,52.493
1275.00,52.506
1276.00,52.514
1277.00,52.511
1278.00,52.528
1279.00,52.520
1280.00,52.515
1281.00,52.545
1282.00,52.546
1283.00,52.533
1284.00,52.554
1285.00,52.539
1286.00,52.568
1287.00,52.571
1288.00,52.571
1289.00,52.577
1290.00,52.603
1291.00,52.590
1292.00,52.593
1293.00,52.597
1294.00,52.602
1295.00,52.610
1296.00,52.597
1297.00,52.609
1298.00,52.667
1299.00,52.611
1300.00,52.637
1301.00,52.620
1302.00,52.650
1303.00,52.658
1304.00,52.649
1305.00,52.667
1306.00,52.690
1307.00,52.671
1308.00,52.676
1309.00,52.692
1310.00,52.678
1311.00,52.661
1312.00,52.659
1313.00,52.671
1314.00,52.701
1315.00,52.697
1316.00,52.703
1317.00,52.758
1318.00,52.756
1319.00,52.755
1320.00,52.766
1321.00,52.906
1322.00,52.903
1323.00,52.894
1324.00,52.897
1325.00,52.875
1326.00,52.899
1327.00,52.839
1328.00,52.882
1329.00,52.873
1330.00,52.863
1331.00,52.873
1332.00,52.881
1333.00,52.892
1334.00,52.920
1335.00,52.945
1336.00,52.975
1337.00,52.999
1338.00,53.065
1339.00,53.108
1340.00,53.150
1341.00,53.209
1342.00,53.292
1343.00,53.368
1344.00,53.368
1345.00,53.431
1346.00,53.454
1347.00,53.480
1348.00,53.491
1349.00,53.496
1350.00,53.529
1351.00,53.545
1352.00,53.565
1353.00,53.523
1354.00,53.591
1355.00,53.572
1356.00,53.583
1357.00,53.581
1358.00,53.609
1359.00,53.614
1360.00,53.599
1361.00,53.658
1362.00,53.561
1363.00,53.689
1364.00,53.700
1365.00,53.593
1366.00,53.630
1367.00,53.598
1368.00,53.560
1369.00,53.627
1370.00,53.611
1371.00,53.532
1372.00,53.614
1373.00,53.592
1374.00,53.630
1375.00,53.611
1376.00,53.593
1377.00,53.589
1378.00,53.652
1379.00,53.617
1380.00,53.612
1381.00,53.604
1382.00,53.722
1383.00,53.645
1384.00,53.551
1385.00,53.639
1386.00,53.586
1387.00,53.502
1388.00,53.623
1389.00,53.883
1390.00,53.624
1391.00,53.524
1392.00,53.577
1393.00,53.686
1394.00,53.562
1395.00,53.501
1396.00,53.512
1397.00,53.669
1398.00,53.728
1399.00,53.527
1400.00,53.451
1401.00,53.609
1402.00,53.799
1403.00,53.532
1404.00,53.615
1405.00,53.650
1406.00,53.675
1407.00,53.655
1408.00,53.589
1409.00,53.605
1410.00,53.670
1411.00,53.736
1412.00,53.782
1413.00,53.509
1414.00,53.602
1415.00,53.712
1416.00,53.726
1417.00,53.771
1418.00,53.657
1419.00,53.663
1420.00,53.737
1421.00,53.813
1422.00,53.737
1423.00,53.750
1424.00,53.775
1425.00,53.791
1426.00,53.806
1427.00,53.829
1428.00,53.822
1429.00,53.831
1430.00,53.840
1431.00,53.853
1432.00,53.877
1433.00,53.910
1434.00,53.915
1435.00,53.944
1436.00,53.949
1437.00,53.936
1438.00,53.965
1439.00,53.990
1440.00,53.995
1441.00,53.984
1442.00,53.995
1443.00,54.053
1444.00,54.116
1445.00,54.047
1446.00,54.081
1447.00,54.115
1448.00,54.194
1449.00,54.193
1450.00,54.194
1451.00,54.135
1452.00,54.161
1453.00,54.180
1454.00,54.195
1455.00,54.198
1456.00,54.224
1457.00,54.231
1458.00,54.249
1459.00,54.250
1460.00,54.289
1461.00,54.288
1462.00,54.297
1463.00,54.325
1464.00,54.327
1465.00,54.361
1466.00,54.360
1467.00,54.383
1468.00,54.445
1469.00,54.394
1470.00,54.421
1471.00,54.439
1472.00,54.432
1473.00,54.434
1474.00,54.459
1475.00,54.483
1476.00,54.506
1477.00,54.486
1478.00,54.526
1479.00,54.546
1480.00,54.538
1481.00,54.546
1482.00,54.580
1483.00,54.562
1484.00,54.579
1485.00,54.589
1486.00,54.611
1487.00,54.626
1488.00,54.626
1489.00,54.631
1490.00,54.662
1491.00,54.651
1492.00,54.694
1493.00,54.676
1494.00,54.703
1495.00,54.674
1496.00,54.719
1497.00,54.717
1498.00,54.721
1499.00,54.710
1500.00,54.737
1501.00, 
1502.00, 
1503.00, 
1504.00, 
1505.00, 
1506.00, 
1507.00, 
1508.00, 
1509.00, 
1510.00, 
1511.00, 
1512.00, 
1513.00, 
1514.00, 
1515.00, 
1516.00, 
1517.00, 
1518.00, 
1519.00, 
1520.00, 
1521.00, 
1522.00, 
1523.00, 
1524.00, 
1525.00, 
1526.00, 
1527.00, 
1528.00, 
1529.00, 
1530.00, 
1531.00, 
1532.00, 
1533.00, 
1534.00, 
1535.00, 
1536.00, 
1537.00, 
1538.00, 
1539.00, 
1540.00, 
1541.00, 
1542.00, 
1543.00, 
1544.00, 
1545.00, 
1546.00, 
1547.00, 
1548.00, 
1549.00, 
1550.00, 
1551.00, 
1552.00, 
1553.00, 
1554.00, 
1555.00, 
1556.00, 
1557.00, 
1558.00, 
1559.00, 
1560.00, 
1561.00, 
1562.00, 
1563.00, 
1564.00, 
1565.00, 
1566.00, 
1567.00, 
1568.00, 
1569.00, 
1570.00, 
1571.00, 
1572.00, 
1573.00, 
1574.00, 
1575.00, 
1576.00, 
1577.00, 
1578.00, 
1579.00, 
1580.00, 
1581.00, 
1582.00, 
1583.00, 
1584.00, 
1585.00, 
1586.00, 
1587.00, 
1588.00, 
1589.00, 
1590.00, 
1591.00, 
1592.00, 
1593.00, 
1594.00, 
1595.00, 
1596.00, 
1597.00, 
1598.00, 
1599.00, 
1600.00, 
1601.00, 
1602.00, 
1603.00, 
1604.00, 
1605.00, 
1606.00, 
1607.00, 
1608.00, 
1609.00, 
1610.00, 
1611.00, 
1612.00, 
1613.00, 
1614.00, 
1615.00, 
1616.00, 
1617.00, 
1618.00, 
1619.00, 
1620.00, 
1621.00, 
1622.00, 
1623.00, 
1624.00, 
1625.00, 
1626.00, 
1627.00, 
1628.00, 
1629.00, 
1630.00, 
1631.00, 
1632.00, 
1633.00, 
1634.00, 
1635.00, 
1636.00, 
1637.00, 
1638.00, 
1639.00, 
1640.00, 
1641.00, 
1642.00, 
1643.00, 
1644.00, 
1645.00, 
1646.00, 
1647.00, 
1648.00, 
1649.00, 
1650.00, 
1651.00, 
1652.00, 
1653.00, 
1654.00, 
1655.00, 
1656.00, 
1657.00, 
1658.00, 
1659.00, 
1660.00, 
1661.00, 
1662.00, 
1663.00, 
1664.00, 
1665.00, 
1666.00, 
1667.00, 
1668.00, 
1669.00, 
1670.00, 
1671.00, 
1672.00, 
1673.00, 
1674.00, 
1675.00, 
1676.00, 
1677.00, 
1678.00, 
1679.00, 
1680.00, 
1681.00, 
1682.00, 
1683.00, 
1684.00, 
1685.00, 
1686.00, 
1687.00, 
1688.00, 
1689.00, 
1690.00, 
1691.00, 
1692.00, 
1693.00, 
1694.00, 
1695.00, 
1696.00, 
1697.00, 
1698.00, 
1699.00, 
1700.00, 
1701.00, 
1702.00, 
1703.00, 
1704.00, 
1705.00, 
1706.00, 
1707.00, 
1708.00, 
1709.00, 
1710.00, 
1711.00, 
1712.00, 
1713.00, 
1714.00, 
1715.00, 
1716.00, 
1717.00, 
1718.00, 
1719.00, 
1720.00, 
1721.00, 
1722.00, 
1723.00, 
1724.00, 
1725.00, 
1726.00, 
1727.00, 
1728.00, 
1729.00, 
1730.00, 
1731.00, 
1732.00, 
1733.00, 
1734.00, 
1735.00, 
1736.00, 
1737.00, 
1738.00, 
1739.00, 
1740.00, 
1741.00, 
1742.00, 
1743.00, 
1744.00, 
1745.00, 
1746.00, 
1747.00, 
1748.00, 
1749.00, 
1750.00, 
1751.00, 
1752.00, 
1753.00, 
1754.00, 
1755.00, 
1756.00, 
1757.00, 
1758.00, 
1759.00, 
1760.00, 
1761.00, 
1762.00, 
1763.00, 
1764.00, 
1765.00, 
1766.00, 
1767.00, 
1768.00, 
1769.00, 
1770.00, 
1771.00, 
1772.00, 
1773.00, 
1774.00, 
1775.00, 
1776.00, 
1777.00, 
1778.00, 
1779.00, 
1780.00, 
1781.00, 
1782.00, 
1783.00, 
1784.00, 
1785.00, 
1786.00, 
1787.00, 
1788.00, 
1789.00, 
1790.00, 
1791.00, 
1792.00, 
1793.00, 
1794.00, 
1795.00, 
1796.00, 
1797.00, 
1798.00, 
1799.00, 
1800.00, 
1801.00, 
1802.00, 
1803.00, 
1804.00, 
1805.00, 
1806.00, 
1807.00, 
1808.00, 
1809.00, 
1810.00, 
1811.00, 
1812.00, 
1813.00, 
1814.00, 
1815.00, 
1816.00, 
1817.00, 
1818.00, 
1819.00, 
1820.00, 
1821.00, 
1822.00, 
1823.00, 
1824.00, 
1825.00, 
1826.00, 
1827.00, 
1828.00, 
1829.00, 
1830.00, 
1831.00, 
1832.00, 
1833.00, 
1834.00, 
1835.00, 
1836.00, 
1837.00, 
1838.00, 
1839.00, 
1840.00, 
1841.00, 
1842.00, 
1843.00, 
1844.00, 
1845.00, 
1846.00, 
1847.00, 
1848.00, 
1849.00, 
1850.00, 
1851.00, 
1852.00, 
1853.00, 
1854.00, 
1855.00, 
1856.00, 
1857.00, 
1858.00, 
1859.00, 
1860.00, 
1861.00, 
1862.00, 
1863.00, 
1864.00, 
1865.00, 
1866.00, 
1867.00, 
1868.00, 
1869.00, 
1870.00, 
1871.00, 
1872.00, 
1873.00, 
1874.00, 
1875.00, 
1876.00, 
1877.00, 
1878.00, 
1879.00, 
1880.00, 
1881.00, 
1882.00, 
1883.00, 
1884.00, 
1885.00, 
1886.00, 
1887.00, 
1888.00, 
1889.00, 
1890.00, 
1891.00, 
1892.00, 
1893.00, 
1894.00, 
1895.00, 
1896.00, 
1897.00, 
1898.00, 
1899.00, 
1900.00, 
1901.00, 
1902.00, 
1903.00, 
1904.00, 
1905.00, 
1906.00, 
1907.00, 
1908.00, 
1909.00, 
1910.00, 
1911.00, 
1912.00, 
1913.00, 
1914.00, 
1915.00, 
1916.00, 
1917.00, 
1918.00, 
1919.00, 
1920.00, 
1921.00, 
1922.00, 
1923.00, 
1924.00, 
1925.00, 
1926.00, 
1927.00, 
1928.00, 
1929.00, 
1930.00, 
1931.00, 
1932.00, 
1933.00, 
1934.00, 
1935.00, 
1936.00, 
1937.00, 
1938.00, 
1939.00, 
1940.00, 
1941.00, 
1942.00, 
1943.00, 
1944.00, 
1945.00, 
1946.00, 
1947.00, 
1948.00, 
1949.00, 
1950.00, 
1951.00, 
1952.00, 
1953.00, 
1954.00, 
1955.00, 
1956.00, 
1957.00, 
1958.00, 
1959.00, 
1960.00, 
1961.00, 
1962.00, 
1963.00, 
1964.00, 
1965.00, 
1966.00, 
1967.00, 
1968.00, 
1969.00, 
1970.00, 
1971.00, 
1972.00, 
1973.00, 
1974.00, 
1975.00, 
1976.00, 
1977.00, 
1978.00, 
1979.00, 
1980.00, 
1981.00, 
1982.00, 
1983.00, 
1984.00, 
1985.00, 
1986.00, 
1987.00, 
1988.00, 
1989.00, 
1990.00, 
1991.00, 
1992.00, 
1993.00, 
1994.00, 
1995.00, 
1996.00, 
1997.00, 
1998.00, 
1999.00, 
2000.00, 
2001.00, 
2002.00, 
2003.00, 
2004.00, 
2005.00, 
2006.00, 
2007.00, 
2008.00, 
2009.00, 
2010.00, 
2011.00, 
2012.00, 
2013.00, 
2014.00, 
2015.00, 
2016.00, 
2017.00, 
2018.00, 
2019.00, 
2020.00, 
2021.00, 
2022.00, 
2023.00, 
2024.00, 
2025.00, 
2026.00, 
2027.00, 
2028.00, 
2029.00, 
2030.00, 
2031.00, 
2032.00, 
2033.00, 
2034.00, 
2035.00, 
2036.00, 
2037.00, 
2038.00, 
2039.00, 
2040.00, 
2041.00, 
2042.00, 
2043.00, 
2044.00, 
2045.00, 
2046.00, 
2047.00, 
2048.00, 
2049.00, 
2050.00, 
2051.00, 
2052.00, 
2053.00, 
2054.00, 
2055.00, 
2056.00, 
2057.00, 
2058.00, 
2059.00, 
2060.00, 
2061.00, 
2062.00, 
2063.00, 
2064.00, 
2065.00, 
2066.00, 
2067.00, 
2068.00, 
2069.00, 
2070.00, 
2071.00, 
2072.00, 
2073.00, 
2074.00, 
2075.00, 
2076.00, 
2077.00, 
2078.00, 
2079.00, 
2080.00, 
2081.00, 
2082.00, 
2083.00, 
2084.00, 
2085.00, 
2086.00, 
2087.00, 
2088.00, 
2089.00, 
2090.00, 
2091.00, 
2092.00, 
2093.00, 
2094.00, 
2095.00, 
2096.00, 
2097.00, 
2098.00, 
2099.00, 
2100.00, 
2101.00, 
2102.00, 
2103.00, 
2104.00, 
2105.00, 
2106.00, 
2107.00, 
2108.00, 
2109.00, 
2110.00, 
2111.00, 
2112.00, 
2113.00, 
2114.00, 
2115.00, 
2116.00, 
2117.00, 
2118.00, 
2119.00, 
2120.00, 
2121.00, 
2122.00, 
2123.00, 
2124.00, 
2125.00, 
2126.00, 
2127.00, 
2128.00, 
2129.00, 
2130.00, 
2131.00, 
2132.00, 
2133.00, 
2134.00, 
2135.00, 
2136.00, 
2137.00, 
2138.00, 
2139.00, 
2140.00, 
2141.00, 
2142.00, 
2143.00, 
2144.00, 
2145.00, 
2146.00, 
2147.00, 
2148.00, 
2149.00, 
2150.00, 
2151.00, 
2152.00, 
2153.00, 
2154.00, 
2155.00, 
2156.00, 
2157.00, 
2158.00, 
2159.00, 
2160.00, 
2161.00, 
2162.00, 
2163.00, 
2164.00, 
2165.00, 
2166.00, 
2167.00, 
2168.00, 
2169.00, 
2170.00, 
2171.00, 
2172.00, 
2173.00, 
2174.00, 
2175.00, 
2176.00, 
2177.00, 
2178.00, 
2179.00, 
2180.00, 
2181.00, 
2182.00, 
2183.00, 
2184.00, 
2185.00, 
2186.00, 
2187.00, 
2188.00, 
2189.00, 
2190.00, 
2191.00, 
2192.00, 
2193.00, 
2194.00, 
2195.00, 
2196.00, 
2197.00, 
2198.00, 
2199.00, 
2200.00, 
2201.00, 
2202.00, 
2203.00, 
2204.00, 
2205.00, 
2206.00, 
2207.00, 
2208.00, 
2209.00, 
2210.00, 
2211.00, 
2212.00, 
2213.00, 
2214.00, 
2215.00, 
2216.00, 
2217.00, 
2218.00, 
2219.00, 
2220.00, 
2221.00, 
2222.00, 
2223.00, 
2224.00, 
2225.00, 
2226.00, 
2227.00, 
2228.00, 
2229.00, 
2230.00, 
2231.00, 
2232.00, 
2233.00, 
2234.00, 
2235.00, 
2236.00, 
2237.00, 
2238.00, 
2239.00, 
2240.00, 
2241.00, 
2242.00, 
2243.00, 
2244.00, 
2245.00, 
2246.00, 
2247.00, 
2248.00, 
2249.00, 
2250.00, 
2251.00, 
2252.00, 
2253.00, 
2254.00, 
2255.00, 
2256.00, 
2257.00, 
2258.00, 
2259.00, 
2260.00, 
2261.00, 
2262.00, 
2263.00, 
2264.00, 
2265.00, 
2266.00, 
2267.00, 
2268.00, 
2269.00, 
2270.00, 
2271.00, 
2272.00, 
2273.00, 
2274.00, 
2275.00, 
2276.00, 
2277.00, 
2278.00, 
2279.00, 
2280.00, 
2281.00, 
2282.00, 
2283.00, 
2284.00, 
2285.00, 
2286.00, 
2287.00, 
2288.00, 
2289.00, 
2290.00, 
2291.00, 
2292.00, 
2293.00, 
2294.00, 
2295.00, 
2296.00, 
2297.00, 
2298.00, 
2299.00, 
2300.00, 
2301.00, 
2302.00, 
2303.00, 
2304.00, 
2305.00, 
2306.00, 
2307.00, 
2308.00, 
2309.00, 
2310.00, 
2311.00, 
2312.00, 
2313.00, 
2314.00, 
2315.00, 
2316.00, 
2317.00, 
2318.00, 
2319.00, 
2320.00, 
2321.00, 
2322.00, 
2323.00, 
2324.00, 
2325.00, 
2326.00, 
2327.00, 
2328.00, 
2329.00, 
2330.00, 
2331.00, 
2332.00, 
2333.00, 
2334.00, 
2335.00, 
2336.00, 
2337.00, 
2338.00, 
2339.00, 
2340.00, 
2341.00, 
2342.00, 
2343.00, 
2344.00, 
2345.00, 
2346.00, 
2347.00, 
2348.00, 
2349.00, 
2350.00, 
2351.00, 
2352.00, 
2353.00, 
2354.00, 
2355.00, 
2356.00, 
2357.00, 
2358.00, 
2359.00, 
2360.00, 
2361.00, 
2362.00, 
2363.00, 
2364.00, 
2365.00, 
2366.00, 
2367.00, 
2368.00, 
2369.00, 
2370.00, 
2371.00, 
2372.00, 
2373.00, 
2374.00, 
2375.00, 
2376.00, 
2377.00, 
2378.00, 
2379.00, 
2380.00, 
2381.00, 
2382.00, 
2383.00, 
2384.00, 
2385.00, 
2386.00, 
2387.00, 
2388.00, 
2389.00, 
2390.00, 
2391.00, 
2392.00, 
2393.00, 
2394.00, 
2395.00, 
2396.00, 
2397.00, 
2398.00, 
2399.00, 
2400.00, 
2401.00, 
2402.00, 
2403.00, 
2404.00, 
2405.00, 
2406.00, 
2407.00, 
2408.00, 
2409.00, 
2410.00, 
2411.00, 
2412.00, 
2413.00, 
2414.00, 
2415.00, 
2416.00, 
2417.00, 
2418.00, 
2419.00, 
2420.00, 
2421.00, 
2422.00, 
2423.00, 
2424.00, 
2425.00, 
2426.00, 
2427.00, 
2428.00, 
2429.00, 
2430.00, 
2431.00, 
2432.00, 
2433.00, 
2434.00, 
2435.00, 
2436.00, 
2437.00, 
2438.00, 
2439.00, 
2440.00, 
2441.00, 
2442.00, 
2443.00, 
2444.00, 
2445.00, 
2446.00, 
2447.00, 
2448.00, 
2449.00, 
2450.00, 
2451.00, 
2452.00, 
2453.00, 
2454.00, 
2455.00, 
2456.00, 
2457.00, 
2458.00, 
2459.00, 
2460.00, 
2461.00, 
2462.00, 
2463.00, 
2464.00, 
2465.00, 
2466.00, 
2467.00, 
2468.00, 
2469.00, 
2470.00, 
2471.00, 
2472.00, 
2473.00, 
2474.00, 
2475.00, 
2476.00, 
2477.00, 
2478.00, 
2479.00, 
2480.00, 
2481.00, 
2482.00, 
2483.00, 
2484.00, 
2485.00, 
2486.00, 
2487.00, 
2488.00, 
2489.00, 
2490.00, 
2491.00, 
2492.00, 
2493.00, 
2494.00, 
2495.00, 
2496.00, 
2497.00, 
2498.00, 
2499.00, 
2500.00, 
2501.00, 
2502.00, 
2503.00, 
2504.00, 
2505.00, 
2506.00, 
2507.00, 
2508.00, 
2509.00, 
2510.00, 
2511.00, 
2512.00, 
2513.00, 
2514.00, 
2515.00, 
2516.00, 
2517.00, 
2518.00, 
2519.00, 
2520.00, 
2521.00, 
2522.00, 
2523.00, 
2524.00, 
2525.00, 
2526.00, 
2527.00, 
2528.00, 
2529.00, 
2530.00, 
2531.00, 
2532.00, 
2533.00, 
2534.00, 
2535.00, 
2536.00, 
2537.00, 
2538.00, 
2539.00, 
2540.00, 
2541.00, 
2542.00, 
2543.00, 
2544.00, 
2545.00, 
2546.00, 
2547.00, 
2548.00, 
2549.00, 
2550.00, 
2551.00, 
2552.00, 
2553.00, 
2554.00, 
2555.00, 
2556.00, 
2557.00, 
2558.00, 
2559.00, 
2560.00, 
2561.00, 
2562.00, 
2563.00, 
2564.00, 
2565.00, 
2566.00, 
2567.00, 
2568.00, 
2569.00, 
2570.00, 
2571.00, 
2572.00, 
2573.00, 
2574.00, 
2575.00, 
2576.00, 
2577.00, 
2578.00, 
2579.00, 
2580.00, 
2581.00, 
2582.00, 
2583.00, 
2584.00, 
2585.00, 
2586.00, 
2587.00, 
2588.00, 
2589.00, 
2590.00, 
2591.00, 
2592.00, 
2593.00, 
2594.00, 
2595.00, 
2596.00, 
2597.00, 
2598.00, 
2599.00, 
2600.00, 
