"1cP4 - RawData"
"Wavelength nm.","T%"
200.00,0.002
201.00,0.001
202.00,-0.000
203.00,0.000
204.00,0.000
205.00,0.002
206.00,0.003
207.00,0.001
208.00,-0.000
209.00,-0.000
210.00,0.002
211.00,0.001
212.00,0.001
213.00,0.001
214.00,0.003
215.00,0.003
216.00,0.004
217.00,0.002
218.00,0.001
219.00,0.004
220.00,0.003
221.00,0.001
222.00,0.001
223.00,-0.001
224.00,0.001
225.00,-0.001
226.00,0.002
227.00,-0.001
228.00,0.004
229.00,0.002
230.00,0.001
231.00,-0.001
232.00,-0.001
233.00,0.001
234.00,-0.000
235.00,0.000
236.00,0.002
237.00,0.002
238.00,-0.001
239.00,0.003
240.00,-0.001
241.00,0.001
242.00,0.002
243.00,-0.002
244.00,-0.001
245.00,0.000
246.00,0.002
247.00,0.002
248.00,-0.001
249.00,0.002
250.00,0.000
251.00,0.000
252.00,0.002
253.00,-0.001
254.00,0.000
255.00,0.001
256.00,-0.001
257.00,-0.001
258.00,0.000
259.00,0.001
260.00,-0.001
261.00,-0.000
262.00,-0.000
263.00,0.001
264.00,-0.000
265.00,0.000
266.00,-0.001
267.00,-0.000
268.00,0.001
269.00,-0.000
270.00,0.001
271.00,0.000
272.00,-0.001
273.00,0.001
274.00,-0.000
275.00,0.002
276.00,0.001
277.00,0.001
278.00,0.001
279.00,0.000
280.00,-0.001
281.00,0.000
282.00,0.001
283.00,-0.002
284.00,0.001
285.00,-0.000
286.00,0.000
287.00,0.002
288.00,0.000
289.00,-0.001
290.00,-0.000
291.00,0.000
292.00,0.000
293.00,0.001
294.00,0.000
295.00,0.000
296.00,-0.000
297.00,0.000
298.00,0.001
299.00,0.001
300.00,0.002
301.00,0.001
302.00,-0.001
303.00,0.002
304.00,-0.000
305.00,0.001
306.00,0.001
307.00,0.005
308.00,0.006
309.00,0.015
310.00,0.018
311.00,0.030
312.00,0.042
313.00,0.071
314.00,0.104
315.00,0.148
316.00,0.220
317.00,0.294
318.00,0.415
319.00,0.554
320.00,0.755
321.00,0.969
322.00,1.229
323.00,1.563
324.00,1.937
325.00,2.340
326.00,2.769
327.00,3.266
328.00,3.845
329.00,4.415
330.00,5.077
331.00,5.721
332.00,6.428
333.00,7.196
334.00,7.895
335.00,8.720
336.00,9.489
337.00,10.297
338.00,11.072
339.00,11.854
340.00,12.679
341.00,13.427
342.00,14.113
343.00,14.697
344.00,15.509
345.00,16.202
346.00,16.815
347.00,17.399
348.00,17.992
349.00,18.505
350.00,19.011
351.00,19.486
352.00,19.976
353.00,20.368
354.00,20.759
355.00,21.158
356.00,21.511
357.00,21.776
358.00,22.076
359.00,22.487
360.00,22.738
361.00,22.925
362.00,23.023
363.00,23.326
364.00,23.483
365.00,23.624
366.00,23.774
367.00,23.890
368.00,23.933
369.00,24.025
370.00,24.082
371.00,24.108
372.00,24.090
373.00,24.076
374.00,24.091
375.00,24.059
376.00,23.975
377.00,23.885
378.00,23.817
379.00,23.675
380.00,23.684
381.00,23.691
382.00,23.690
383.00,23.725
384.00,23.832
385.00,23.878
386.00,23.926
387.00,24.038
388.00,24.131
389.00,24.181
390.00,24.247
391.00,24.296
392.00,24.319
393.00,24.361
394.00,24.408
395.00,24.506
396.00,24.462
397.00,24.490
398.00,24.527
399.00,24.514
400.00,24.560
401.00,24.519
402.00,24.502
403.00,24.527
404.00,24.605
405.00,24.509
406.00,24.521
407.00,24.438
408.00,24.492
409.00,24.422
410.00,24.357
411.00,24.356
412.00,24.297
413.00,24.353
414.00,24.316
415.00,24.332
416.00,24.351
417.00,24.323
418.00,24.371
419.00,24.477
420.00,24.488
421.00,24.453
422.00,24.571
423.00,24.543
424.00,24.649
425.00,24.648
426.00,24.663
427.00,24.740
428.00,24.762
429.00,24.780
430.00,24.860
431.00,24.920
432.00,24.946
433.00,25.007
434.00,25.085
435.00,25.122
436.00,25.169
437.00,25.236
438.00,25.269
439.00,25.375
440.00,25.469
441.00,25.535
442.00,25.639
443.00,25.723
444.00,25.803
445.00,25.873
446.00,26.015
447.00,26.079
448.00,26.192
449.00,26.309
450.00,26.420
451.00,26.507
452.00,26.599
453.00,26.728
454.00,26.818
455.00,26.952
456.00,27.064
457.00,27.175
458.00,27.278
459.00,27.414
460.00,27.588
461.00,27.692
462.00,27.804
463.00,27.938
464.00,28.073
465.00,28.221
466.00,28.340
467.00,28.468
468.00,28.583
469.00,28.696
470.00,28.755
471.00,28.839
472.00,28.983
473.00,29.058
474.00,29.190
475.00,29.289
476.00,29.409
477.00,29.534
478.00,29.692
479.00,29.886
480.00,30.030
481.00,30.063
482.00,30.181
483.00,30.370
484.00,30.507
485.00,30.627
486.00,30.779
487.00,30.930
488.00,31.048
489.00,31.208
490.00,31.375
491.00,31.488
492.00,31.747
493.00,31.848
494.00,31.848
495.00,31.929
496.00,32.140
497.00,32.244
498.00,32.384
499.00,32.522
500.00,32.644
501.00,32.743
502.00,32.890
503.00,33.005
504.00,33.047
505.00,33.221
506.00,33.322
507.00,33.402
508.00,33.565
509.00,33.697
510.00,33.819
511.00,33.900
512.00,34.073
513.00,34.170
514.00,34.315
515.00,34.446
516.00,34.534
517.00,34.586
518.00,34.790
519.00,34.822
520.00,34.808
521.00,34.940
522.00,35.077
523.00,35.052
524.00,35.128
525.00,35.260
526.00,35.373
527.00,35.417
528.00,35.466
529.00,35.692
530.00,35.812
531.00,35.933
532.00,35.982
533.00,36.095
534.00,36.211
535.00,36.281
536.00,36.327
537.00,36.307
538.00,36.452
539.00,36.444
540.00,36.572
541.00,36.608
542.00,36.663
543.00,36.653
544.00,36.756
545.00,36.829
546.00,36.853
547.00,37.019
548.00,37.057
549.00,37.138
550.00,37.142
551.00,37.162
552.00,37.316
553.00,37.421
554.00,37.463
555.00,37.578
556.00,37.681
557.00,37.729
558.00,37.727
559.00,37.821
560.00,37.892
561.00,37.959
562.00,38.012
563.00,38.008
564.00,38.083
565.00,38.091
566.00,38.118
567.00,38.134
568.00,38.200
569.00,38.256
570.00,38.276
571.00,38.350
572.00,38.358
573.00,38.338
574.00,38.368
575.00,38.392
576.00,38.334
577.00,38.423
578.00,38.549
579.00,38.610
580.00,38.617
581.00,38.751
582.00,38.795
583.00,38.788
584.00,38.851
585.00,39.011
586.00,39.003
587.00,39.023
588.00,39.079
589.00,39.050
590.00,39.122
591.00,39.128
592.00,39.107
593.00,39.197
594.00,39.280
595.00,39.351
596.00,39.425
597.00,39.499
598.00,39.550
599.00,39.596
600.00,39.636
601.00,39.616
602.00,39.553
603.00,39.609
604.00,39.702
605.00,39.764
606.00,39.773
607.00,39.835
608.00,40.015
609.00,40.057
610.00,39.829
611.00,39.964
612.00,40.013
613.00,40.085
614.00,40.088
615.00,40.176
616.00,40.321
617.00,40.300
618.00,40.238
619.00,40.334
620.00,40.342
621.00,40.424
622.00,40.534
623.00,40.543
624.00,40.553
625.00,40.675
626.00,40.708
627.00,40.755
628.00,40.777
629.00,40.841
630.00,40.877
631.00,40.933
632.00,40.959
633.00,41.161
634.00,41.179
635.00,41.289
636.00,41.325
637.00,41.337
638.00,41.349
639.00,41.483
640.00,41.530
641.00,41.634
642.00,41.646
643.00,41.695
644.00,41.791
645.00,41.856
646.00,42.015
647.00,42.076
648.00,42.131
649.00,42.116
650.00,42.153
651.00,42.373
652.00,42.418
653.00,42.359
654.00,42.405
655.00,42.641
656.00,42.892
657.00,42.956
658.00,42.865
659.00,42.857
660.00,42.951
661.00,42.992
662.00,43.092
663.00,43.144
664.00,43.377
665.00,43.588
666.00,43.514
667.00,43.555
668.00,43.570
669.00,43.762
670.00,43.982
671.00,43.812
672.00,43.993
673.00,43.945
674.00,44.186
675.00,44.453
676.00,44.374
677.00,44.562
678.00,44.406
679.00,44.613
680.00,44.730
681.00,44.838
682.00,44.748
683.00,44.741
684.00,44.904
685.00,45.009
686.00,44.959
687.00,45.119
688.00,45.138
689.00,45.128
690.00,45.361
691.00,45.636
692.00,45.291
693.00,45.432
694.00,45.655
695.00,45.665
696.00,45.610
697.00,45.673
698.00,45.926
699.00,46.104
700.00,46.068
701.00,46.186
702.00,46.306
703.00,46.368
704.00,46.381
705.00,46.327
706.00,46.356
707.00,46.476
708.00,46.444
709.00,46.794
710.00,47.121
711.00,46.627
712.00,46.755
713.00,46.947
714.00,47.022
715.00,47.038
716.00,46.953
717.00,47.035
718.00,47.312
719.00,47.353
720.00,47.222
721.00,51.747
722.00,51.811
723.00,51.810
724.00,51.833
725.00,51.766
726.00,51.842
727.00,51.907
728.00,51.899
729.00,51.897
730.00,51.895
731.00,51.841
732.00,51.922
733.00,51.929
734.00,52.011
735.00,52.023
736.00,52.078
737.00,52.069
738.00,52.100
739.00,52.140
740.00,52.043
741.00,52.076
742.00,52.141
743.00,52.131
744.00,52.101
745.00,52.166
746.00,52.137
747.00,52.052
748.00,52.124
749.00,52.088
750.00,51.975
751.00,52.051
752.00,52.124
753.00,52.068
754.00,52.132
755.00,52.133
756.00,52.165
757.00,52.049
758.00,52.095
759.00,52.060
760.00,52.141
761.00,52.115
762.00,52.038
763.00,52.183
764.00,52.197
765.00,52.134
766.00,52.201
767.00,52.190
768.00,52.129
769.00,52.105
770.00,52.228
771.00,52.136
772.00,52.171
773.00,52.138
774.00,52.168
775.00,52.244
776.00,52.181
777.00,52.162
778.00,52.135
779.00,52.171
780.00,52.165
781.00,52.089
782.00,52.151
783.00,52.148
784.00,52.076
785.00,52.078
786.00,52.123
787.00,52.090
788.00,52.094
789.00,52.021
790.00,52.002
791.00,52.049
792.00,51.975
793.00,52.040
794.00,51.955
795.00,51.955
796.00,51.907
797.00,51.915
798.00,51.905
799.00,51.901
800.00,51.842
801.00,51.858
802.00,51.825
803.00,51.782
804.00,51.754
805.00,51.793
806.00,51.786
807.00,51.747
808.00,51.815
809.00,51.689
810.00,51.710
811.00,51.694
812.00,51.709
813.00,51.643
814.00,51.688
815.00,51.617
816.00,51.639
817.00,51.585
818.00,51.512
819.00,51.583
820.00,51.463
821.00,51.511
822.00,51.528
823.00,51.419
824.00,51.457
825.00,51.422
826.00,51.301
827.00,51.494
828.00,51.463
829.00,51.366
830.00,51.441
831.00,53.655
832.00,53.654
833.00,53.598
834.00,53.578
835.00,53.586
836.00,53.599
837.00,53.554
838.00,53.540
839.00,53.507
840.00,53.438
841.00,53.464
842.00,53.424
843.00,53.438
844.00,53.409
845.00,53.345
846.00,53.355
847.00,53.324
848.00,53.347
849.00,53.257
850.00,53.241
851.00,53.160
852.00,53.185
853.00,53.130
854.00,53.115
855.00,53.049
856.00,53.023
857.00,53.150
858.00,52.987
859.00,52.957
860.00,52.922
861.00,52.907
862.00,52.908
863.00,52.895
864.00,52.871
865.00,52.902
866.00,52.859
867.00,52.867
868.00,52.827
869.00,52.846
870.00,52.804
871.00,52.713
872.00,52.915
873.00,52.767
874.00,52.743
875.00,52.712
876.00,52.729
877.00,52.739
878.00,52.732
879.00,52.707
880.00,52.703
881.00,52.651
882.00,52.712
883.00,52.641
884.00,52.590
885.00,52.568
886.00,52.581
887.00,52.536
888.00,52.531
889.00,52.526
890.00,52.503
891.00,52.456
892.00,52.451
893.00,52.403
894.00,52.420
895.00,52.390
896.00,52.382
897.00,52.358
898.00,52.313
899.00,52.334
900.00,52.332
901.00,52.308
902.00,52.298
903.00,52.252
904.00,52.250
905.00,52.297
906.00,52.166
907.00,52.176
908.00,52.163
909.00,52.163
910.00,52.092
911.00,52.109
912.00,52.118
913.00,52.084
914.00,52.058
915.00,52.025
916.00,52.003
917.00,51.999
918.00,51.969
919.00,51.917
920.00,51.874
921.00,51.916
922.00,51.907
923.00,51.860
924.00,51.847
925.00,51.831
926.00,51.816
927.00,51.784
928.00,51.789
929.00,51.799
930.00,51.744
931.00,51.756
932.00,51.710
933.00,51.713
934.00,51.684
935.00,51.682
936.00,51.637
937.00,51.618
938.00,51.619
939.00,51.615
940.00,51.581
941.00,51.568
942.00,51.629
943.00,51.542
944.00,51.486
945.00,51.502
946.00,51.476
947.00,51.443
948.00,51.412
949.00,51.399
950.00,51.392
951.00,51.353
952.00,51.341
953.00,51.325
954.00,51.314
955.00,51.242
956.00,51.249
957.00,51.262
958.00,51.209
959.00,51.160
960.00,51.161
961.00,51.148
962.00,51.144
963.00,51.092
964.00,51.097
965.00,51.102
966.00,51.063
967.00,51.088
968.00,51.058
969.00,51.063
970.00,51.060
971.00,51.063
972.00,51.001
973.00,51.103
974.00,51.076
975.00,51.053
976.00,51.072
977.00,51.025
978.00,51.071
979.00,51.018
980.00,51.042
981.00,51.050
982.00,51.024
983.00,51.027
984.00,51.001
985.00,51.025
986.00,50.999
987.00,51.019
988.00,50.965
989.00,50.978
990.00,50.974
991.00,50.940
992.00,50.963
993.00,50.930
994.00,50.917
995.00,50.916
996.00,50.891
997.00,50.884
998.00,50.869
999.00,50.857
1000.00,50.838
1001.00,50.826
1002.00,50.765
1003.00,50.804
1004.00,50.783
1005.00,50.755
1006.00,50.811
1007.00,50.758
1008.00,50.744
1009.00,50.728
1010.00,50.711
1011.00,50.706
1012.00,50.684
1013.00,50.682
1014.00,50.648
1015.00,50.670
1016.00,50.623
1017.00,50.619
1018.00,50.603
1019.00,50.572
1020.00,50.586
1021.00,50.547
1022.00,50.551
1023.00,50.506
1024.00,50.508
1025.00,50.505
1026.00,50.476
1027.00,50.455
1028.00,50.439
1029.00,50.421
1030.00,50.401
1031.00,50.429
1032.00,50.353
1033.00,50.379
1034.00,50.390
1035.00,50.303
1036.00,50.298
1037.00,50.284
1038.00,50.273
1039.00,50.237
1040.00,50.235
1041.00,50.217
1042.00,50.213
1043.00,50.178
1044.00,50.208
1045.00,50.202
1046.00,50.173
1047.00,50.199
1048.00,50.210
1049.00,50.211
1050.00,50.203
1051.00,50.244
1052.00,50.253
1053.00,50.262
1054.00,50.247
1055.00,50.283
1056.00,50.297
1057.00,50.286
1058.00,50.277
1059.00,50.262
1060.00,50.278
1061.00,50.273
1062.00,50.248
1063.00,50.263
1064.00,50.295
1065.00,50.229
1066.00,50.228
1067.00,50.231
1068.00,50.241
1069.00,50.211
1070.00,50.212
1071.00,50.185
1072.00,50.210
1073.00,50.194
1074.00,50.184
1075.00,50.167
1076.00,50.156
1077.00,50.136
1078.00,50.119
1079.00,50.108
1080.00,50.131
1081.00,50.118
1082.00,50.101
1083.00,50.090
1084.00,50.084
1085.00,50.083
1086.00,50.081
1087.00,50.059
1088.00,50.059
1089.00,50.052
1090.00,50.038
1091.00,50.056
1092.00,50.029
1093.00,50.023
1094.00,50.006
1095.00,50.004
1096.00,49.986
1097.00,49.998
1098.00,49.977
1099.00,49.973
1100.00,49.971
1101.00,49.943
1102.00,49.936
1103.00,49.941
1104.00,49.935
1105.00,49.925
1106.00,49.906
1107.00,49.907
1108.00,49.906
1109.00,49.899
1110.00,49.908
1111.00,49.881
1112.00,49.854
1113.00,49.866
1114.00,49.848
1115.00,49.847
1116.00,49.836
1117.00,49.819
1118.00,49.810
1119.00,49.822
1120.00,49.804
1121.00,49.815
1122.00,49.804
1123.00,49.777
1124.00,49.808
1125.00,49.818
1126.00,49.787
1127.00,49.780
1128.00,49.750
1129.00,49.748
1130.00,49.762
1131.00,49.748
1132.00,49.752
1133.00,49.755
1134.00,49.726
1135.00,49.730
1136.00,49.725
1137.00,49.724
1138.00,49.727
1139.00,49.720
1140.00,49.714
1141.00,49.720
1142.00,49.686
1143.00,49.712
1144.00,49.705
1145.00,49.689
1146.00,49.698
1147.00,49.681
1148.00,49.677
1149.00,49.687
1150.00,49.686
1151.00,49.688
1152.00,49.683
1153.00,49.674
1154.00,49.672
1155.00,49.677
1156.00,49.652
1157.00,49.672
1158.00,49.655
1159.00,49.658
1160.00,49.647
1161.00,49.655
1162.00,49.665
1163.00,49.674
1164.00,49.666
1165.00,49.676
1166.00,49.669
1167.00,49.636
1168.00,49.664
1169.00,49.646
1170.00,49.659
1171.00,49.655
1172.00,49.633
1173.00,49.639
1174.00,49.643
1175.00,49.624
1176.00,49.633
1177.00,49.623
1178.00,49.605
1179.00,49.636
1180.00,49.623
1181.00,49.637
1182.00,49.621
1183.00,49.618
1184.00,49.620
1185.00,49.664
1186.00,49.638
1187.00,49.637
1188.00,49.634
1189.00,49.625
1190.00,49.625
1191.00,49.612
1192.00,49.635
1193.00,49.622
1194.00,49.616
1195.00,49.611
1196.00,49.653
1197.00,49.626
1198.00,49.629
1199.00,49.629
1200.00,49.638
1201.00,49.673
1202.00,49.615
1203.00,49.617
1204.00,49.600
1205.00,49.621
1206.00,49.620
1207.00,49.637
1208.00,49.600
1209.00,49.631
1210.00,49.645
1211.00,49.624
1212.00,49.656
1213.00,49.615
1214.00,49.642
1215.00,49.632
1216.00,49.644
1217.00,49.655
1218.00,49.634
1219.00,49.638
1220.00,49.635
1221.00,49.656
1222.00,49.627
1223.00,49.654
1224.00,49.647
1225.00,49.628
1226.00,49.629
1227.00,49.644
1228.00,49.662
1229.00,49.659
1230.00,49.665
1231.00,49.676
1232.00,49.694
1233.00,49.674
1234.00,49.693
1235.00,49.694
1236.00,49.700
1237.00,49.707
1238.00,49.702
1239.00,49.722
1240.00,49.712
1241.00,49.701
1242.00,49.721
1243.00,49.742
1244.00,49.695
1245.00,49.745
1246.00,49.758
1247.00,49.741
1248.00,49.735
1249.00,49.748
1250.00,49.774
1251.00,49.763
1252.00,49.757
1253.00,49.759
1254.00,49.788
1255.00,49.752
1256.00,49.761
1257.00,49.751
1258.00,49.785
1259.00,49.779
1260.00,49.803
1261.00,49.803
1262.00,49.821
1263.00,49.810
1264.00,49.810
1265.00,49.813
1266.00,49.800
1267.00,49.833
1268.00,49.819
1269.00,49.815
1270.00,49.849
1271.00,49.842
1272.00,49.846
1273.00,49.872
1274.00,49.852
1275.00,49.870
1276.00,49.877
1277.00,49.889
1278.00,49.913
1279.00,49.894
1280.00,49.889
1281.00,49.916
1282.00,49.919
1283.00,49.923
1284.00,49.928
1285.00,49.904
1286.00,49.931
1287.00,49.927
1288.00,49.909
1289.00,49.923
1290.00,49.960
1291.00,49.956
1292.00,49.969
1293.00,49.962
1294.00,49.988
1295.00,50.012
1296.00,49.996
1297.00,50.001
1298.00,50.049
1299.00,49.998
1300.00,50.026
1301.00,50.017
1302.00,50.039
1303.00,50.031
1304.00,50.022
1305.00,50.068
1306.00,50.083
1307.00,50.066
1308.00,50.078
1309.00,50.106
1310.00,50.070
1311.00,50.051
1312.00,50.053
1313.00,50.074
1314.00,50.111
1315.00,50.110
1316.00,50.135
1317.00,50.179
1318.00,50.162
1319.00,50.165
1320.00,50.181
1321.00,50.339
1322.00,50.327
1323.00,50.316
1324.00,50.300
1325.00,50.299
1326.00,50.313
1327.00,50.287
1328.00,50.321
1329.00,50.288
1330.00,50.308
1331.00,50.309
1332.00,50.316
1333.00,50.329
1334.00,50.356
1335.00,50.379
1336.00,50.419
1337.00,50.426
1338.00,50.493
1339.00,50.531
1340.00,50.576
1341.00,50.663
1342.00,50.735
1343.00,50.765
1344.00,50.831
1345.00,50.897
1346.00,50.904
1347.00,50.949
1348.00,50.961
1349.00,50.982
1350.00,51.005
1351.00,51.012
1352.00,51.059
1353.00,51.031
1354.00,51.038
1355.00,51.003
1356.00,51.053
1357.00,51.047
1358.00,51.084
1359.00,51.089
1360.00,51.031
1361.00,50.949
1362.00,51.004
1363.00,51.088
1364.00,51.193
1365.00,51.102
1366.00,51.139
1367.00,51.065
1368.00,51.059
1369.00,51.152
1370.00,51.106
1371.00,51.071
1372.00,51.088
1373.00,51.095
1374.00,51.097
1375.00,51.072
1376.00,51.072
1377.00,51.107
1378.00,51.193
1379.00,51.106
1380.00,51.123
1381.00,51.049
1382.00,51.018
1383.00,51.150
1384.00,51.058
1385.00,51.177
1386.00,51.135
1387.00,51.014
1388.00,51.127
1389.00,51.426
1390.00,51.088
1391.00,51.033
1392.00,51.105
1393.00,51.198
1394.00,51.059
1395.00,51.006
1396.00,51.038
1397.00,51.280
1398.00,51.296
1399.00,51.009
1400.00,50.956
1401.00,51.090
1402.00,51.319
1403.00,51.026
1404.00,51.114
1405.00,51.150
1406.00,51.188
1407.00,51.185
1408.00,51.115
1409.00,51.127
1410.00,51.183
1411.00,51.286
1412.00,51.270
1413.00,50.971
1414.00,51.088
1415.00,51.242
1416.00,51.264
1417.00,51.279
1418.00,51.215
1419.00,51.212
1420.00,51.275
1421.00,51.359
1422.00,51.291
1423.00,51.296
1424.00,51.335
1425.00,51.356
1426.00,51.374
1427.00,51.392
1428.00,51.410
1429.00,51.431
1430.00,51.466
1431.00,51.482
1432.00,51.470
1433.00,51.494
1434.00,51.461
1435.00,51.550
1436.00,51.537
1437.00,51.517
1438.00,51.558
1439.00,51.607
1440.00,51.624
1441.00,51.627
1442.00,51.631
1443.00,51.694
1444.00,51.760
1445.00,51.655
1446.00,51.688
1447.00,51.736
1448.00,51.789
1449.00,51.787
1450.00,51.761
1451.00,51.794
1452.00,51.829
1453.00,51.822
1454.00,51.847
1455.00,51.870
1456.00,51.882
1457.00,51.898
1458.00,51.920
1459.00,51.935
1460.00,51.987
1461.00,51.953
1462.00,51.999
1463.00,52.002
1464.00,52.023
1465.00,52.038
1466.00,52.028
1467.00,52.049
1468.00,52.124
1469.00,52.078
1470.00,52.124
1471.00,52.162
1472.00,52.144
1473.00,52.165
1474.00,52.212
1475.00,52.218
1476.00,52.240
1477.00,52.219
1478.00,52.244
1479.00,52.273
1480.00,52.270
1481.00,52.274
1482.00,52.312
1483.00,52.304
1484.00,52.340
1485.00,52.347
1486.00,52.359
1487.00,52.398
1488.00,52.408
1489.00,52.420
1490.00,52.469
1491.00,52.433
1492.00,52.462
1493.00,52.452
1494.00,52.471
1495.00,52.459
1496.00,52.492
1497.00,52.478
1498.00,52.509
1499.00,52.511
1500.00,52.536
1501.00, 
1502.00, 
1503.00, 
1504.00, 
1505.00, 
1506.00, 
1507.00, 
1508.00, 
1509.00, 
1510.00, 
1511.00, 
1512.00, 
1513.00, 
1514.00, 
1515.00, 
1516.00, 
1517.00, 
1518.00, 
1519.00, 
1520.00, 
1521.00, 
1522.00, 
1523.00, 
1524.00, 
1525.00, 
1526.00, 
1527.00, 
1528.00, 
1529.00, 
1530.00, 
1531.00, 
1532.00, 
1533.00, 
1534.00, 
1535.00, 
1536.00, 
1537.00, 
1538.00, 
1539.00, 
1540.00, 
1541.00, 
1542.00, 
1543.00, 
1544.00, 
1545.00, 
1546.00, 
1547.00, 
1548.00, 
1549.00, 
1550.00, 
1551.00, 
1552.00, 
1553.00, 
1554.00, 
1555.00, 
1556.00, 
1557.00, 
1558.00, 
1559.00, 
1560.00, 
1561.00, 
1562.00, 
1563.00, 
1564.00, 
1565.00, 
1566.00, 
1567.00, 
1568.00, 
1569.00, 
1570.00, 
1571.00, 
1572.00, 
1573.00, 
1574.00, 
1575.00, 
1576.00, 
1577.00, 
1578.00, 
1579.00, 
1580.00, 
1581.00, 
1582.00, 
1583.00, 
1584.00, 
1585.00, 
1586.00, 
1587.00, 
1588.00, 
1589.00, 
1590.00, 
1591.00, 
1592.00, 
1593.00, 
1594.00, 
1595.00, 
1596.00, 
1597.00, 
1598.00, 
1599.00, 
1600.00, 
1601.00, 
1602.00, 
1603.00, 
1604.00, 
1605.00, 
1606.00, 
1607.00, 
1608.00, 
1609.00, 
1610.00, 
1611.00, 
1612.00, 
1613.00, 
1614.00, 
1615.00, 
1616.00, 
1617.00, 
1618.00, 
1619.00, 
1620.00, 
1621.00, 
1622.00, 
1623.00, 
1624.00, 
1625.00, 
1626.00, 
1627.00, 
1628.00, 
1629.00, 
1630.00, 
1631.00, 
1632.00, 
1633.00, 
1634.00, 
1635.00, 
1636.00, 
1637.00, 
1638.00, 
1639.00, 
1640.00, 
1641.00, 
1642.00, 
1643.00, 
1644.00, 
1645.00, 
1646.00, 
1647.00, 
1648.00, 
1649.00, 
1650.00, 
1651.00, 
1652.00, 
1653.00, 
1654.00, 
1655.00, 
1656.00, 
1657.00, 
1658.00, 
1659.00, 
1660.00, 
1661.00, 
1662.00, 
1663.00, 
1664.00, 
1665.00, 
1666.00, 
1667.00, 
1668.00, 
1669.00, 
1670.00, 
1671.00, 
1672.00, 
1673.00, 
1674.00, 
1675.00, 
1676.00, 
1677.00, 
1678.00, 
1679.00, 
1680.00, 
1681.00, 
1682.00, 
1683.00, 
1684.00, 
1685.00, 
1686.00, 
1687.00, 
1688.00, 
1689.00, 
1690.00, 
1691.00, 
1692.00, 
1693.00, 
1694.00, 
1695.00, 
1696.00, 
1697.00, 
1698.00, 
1699.00, 
1700.00, 
1701.00, 
1702.00, 
1703.00, 
1704.00, 
1705.00, 
1706.00, 
1707.00, 
1708.00, 
1709.00, 
1710.00, 
1711.00, 
1712.00, 
1713.00, 
1714.00, 
1715.00, 
1716.00, 
1717.00, 
1718.00, 
1719.00, 
1720.00, 
1721.00, 
1722.00, 
1723.00, 
1724.00, 
1725.00, 
1726.00, 
1727.00, 
1728.00, 
1729.00, 
1730.00, 
1731.00, 
1732.00, 
1733.00, 
1734.00, 
1735.00, 
1736.00, 
1737.00, 
1738.00, 
1739.00, 
1740.00, 
1741.00, 
1742.00, 
1743.00, 
1744.00, 
1745.00, 
1746.00, 
1747.00, 
1748.00, 
1749.00, 
1750.00, 
1751.00, 
1752.00, 
1753.00, 
1754.00, 
1755.00, 
1756.00, 
1757.00, 
1758.00, 
1759.00, 
1760.00, 
1761.00, 
1762.00, 
1763.00, 
1764.00, 
1765.00, 
1766.00, 
1767.00, 
1768.00, 
1769.00, 
1770.00, 
1771.00, 
1772.00, 
1773.00, 
1774.00, 
1775.00, 
1776.00, 
1777.00, 
1778.00, 
1779.00, 
1780.00, 
1781.00, 
1782.00, 
1783.00, 
1784.00, 
1785.00, 
1786.00, 
1787.00, 
1788.00, 
1789.00, 
1790.00, 
1791.00, 
1792.00, 
1793.00, 
1794.00, 
1795.00, 
1796.00, 
1797.00, 
1798.00, 
1799.00, 
1800.00, 
1801.00, 
1802.00, 
1803.00, 
1804.00, 
1805.00, 
1806.00, 
1807.00, 
1808.00, 
1809.00, 
1810.00, 
1811.00, 
1812.00, 
1813.00, 
1814.00, 
1815.00, 
1816.00, 
1817.00, 
1818.00, 
1819.00, 
1820.00, 
1821.00, 
1822.00, 
1823.00, 
1824.00, 
1825.00, 
1826.00, 
1827.00, 
1828.00, 
1829.00, 
1830.00, 
1831.00, 
1832.00, 
1833.00, 
1834.00, 
1835.00, 
1836.00, 
1837.00, 
1838.00, 
1839.00, 
1840.00, 
1841.00, 
1842.00, 
1843.00, 
1844.00, 
1845.00, 
1846.00, 
1847.00, 
1848.00, 
1849.00, 
1850.00, 
1851.00, 
1852.00, 
1853.00, 
1854.00, 
1855.00, 
1856.00, 
1857.00, 
1858.00, 
1859.00, 
1860.00, 
1861.00, 
1862.00, 
1863.00, 
1864.00, 
1865.00, 
1866.00, 
1867.00, 
1868.00, 
1869.00, 
1870.00, 
1871.00, 
1872.00, 
1873.00, 
1874.00, 
1875.00, 
1876.00, 
1877.00, 
1878.00, 
1879.00, 
1880.00, 
1881.00, 
1882.00, 
1883.00, 
1884.00, 
1885.00, 
1886.00, 
1887.00, 
1888.00, 
1889.00, 
1890.00, 
1891.00, 
1892.00, 
1893.00, 
1894.00, 
1895.00, 
1896.00, 
1897.00, 
1898.00, 
1899.00, 
1900.00, 
1901.00, 
1902.00, 
1903.00, 
1904.00, 
1905.00, 
1906.00, 
1907.00, 
1908.00, 
1909.00, 
1910.00, 
1911.00, 
1912.00, 
1913.00, 
1914.00, 
1915.00, 
1916.00, 
1917.00, 
1918.00, 
1919.00, 
1920.00, 
1921.00, 
1922.00, 
1923.00, 
1924.00, 
1925.00, 
1926.00, 
1927.00, 
1928.00, 
1929.00, 
1930.00, 
1931.00, 
1932.00, 
1933.00, 
1934.00, 
1935.00, 
1936.00, 
1937.00, 
1938.00, 
1939.00, 
1940.00, 
1941.00, 
1942.00, 
1943.00, 
1944.00, 
1945.00, 
1946.00, 
1947.00, 
1948.00, 
1949.00, 
1950.00, 
1951.00, 
1952.00, 
1953.00, 
1954.00, 
1955.00, 
1956.00, 
1957.00, 
1958.00, 
1959.00, 
1960.00, 
1961.00, 
1962.00, 
1963.00, 
1964.00, 
1965.00, 
1966.00, 
1967.00, 
1968.00, 
1969.00, 
1970.00, 
1971.00, 
1972.00, 
1973.00, 
1974.00, 
1975.00, 
1976.00, 
1977.00, 
1978.00, 
1979.00, 
1980.00, 
1981.00, 
1982.00, 
1983.00, 
1984.00, 
1985.00, 
1986.00, 
1987.00, 
1988.00, 
1989.00, 
1990.00, 
1991.00, 
1992.00, 
1993.00, 
1994.00, 
1995.00, 
1996.00, 
1997.00, 
1998.00, 
1999.00, 
2000.00, 
2001.00, 
2002.00, 
2003.00, 
2004.00, 
2005.00, 
2006.00, 
2007.00, 
2008.00, 
2009.00, 
2010.00, 
2011.00, 
2012.00, 
2013.00, 
2014.00, 
2015.00, 
2016.00, 
2017.00, 
2018.00, 
2019.00, 
2020.00, 
2021.00, 
2022.00, 
2023.00, 
2024.00, 
2025.00, 
2026.00, 
2027.00, 
2028.00, 
2029.00, 
2030.00, 
2031.00, 
2032.00, 
2033.00, 
2034.00, 
2035.00, 
2036.00, 
2037.00, 
2038.00, 
2039.00, 
2040.00, 
2041.00, 
2042.00, 
2043.00, 
2044.00, 
2045.00, 
2046.00, 
2047.00, 
2048.00, 
2049.00, 
2050.00, 
2051.00, 
2052.00, 
2053.00, 
2054.00, 
2055.00, 
2056.00, 
2057.00, 
2058.00, 
2059.00, 
2060.00, 
2061.00, 
2062.00, 
2063.00, 
2064.00, 
2065.00, 
2066.00, 
2067.00, 
2068.00, 
2069.00, 
2070.00, 
2071.00, 
2072.00, 
2073.00, 
2074.00, 
2075.00, 
2076.00, 
2077.00, 
2078.00, 
2079.00, 
2080.00, 
2081.00, 
2082.00, 
2083.00, 
2084.00, 
2085.00, 
2086.00, 
2087.00, 
2088.00, 
2089.00, 
2090.00, 
2091.00, 
2092.00, 
2093.00, 
2094.00, 
2095.00, 
2096.00, 
2097.00, 
2098.00, 
2099.00, 
2100.00, 
2101.00, 
2102.00, 
2103.00, 
2104.00, 
2105.00, 
2106.00, 
2107.00, 
2108.00, 
2109.00, 
2110.00, 
2111.00, 
2112.00, 
2113.00, 
2114.00, 
2115.00, 
2116.00, 
2117.00, 
2118.00, 
2119.00, 
2120.00, 
2121.00, 
2122.00, 
2123.00, 
2124.00, 
2125.00, 
2126.00, 
2127.00, 
2128.00, 
2129.00, 
2130.00, 
2131.00, 
2132.00, 
2133.00, 
2134.00, 
2135.00, 
2136.00, 
2137.00, 
2138.00, 
2139.00, 
2140.00, 
2141.00, 
2142.00, 
2143.00, 
2144.00, 
2145.00, 
2146.00, 
2147.00, 
2148.00, 
2149.00, 
2150.00, 
2151.00, 
2152.00, 
2153.00, 
2154.00, 
2155.00, 
2156.00, 
2157.00, 
2158.00, 
2159.00, 
2160.00, 
2161.00, 
2162.00, 
2163.00, 
2164.00, 
2165.00, 
2166.00, 
2167.00, 
2168.00, 
2169.00, 
2170.00, 
2171.00, 
2172.00, 
2173.00, 
2174.00, 
2175.00, 
2176.00, 
2177.00, 
2178.00, 
2179.00, 
2180.00, 
2181.00, 
2182.00, 
2183.00, 
2184.00, 
2185.00, 
2186.00, 
2187.00, 
2188.00, 
2189.00, 
2190.00, 
2191.00, 
2192.00, 
2193.00, 
2194.00, 
2195.00, 
2196.00, 
2197.00, 
2198.00, 
2199.00, 
2200.00, 
2201.00, 
2202.00, 
2203.00, 
2204.00, 
2205.00, 
2206.00, 
2207.00, 
2208.00, 
2209.00, 
2210.00, 
2211.00, 
2212.00, 
2213.00, 
2214.00, 
2215.00, 
2216.00, 
2217.00, 
2218.00, 
2219.00, 
2220.00, 
2221.00, 
2222.00, 
2223.00, 
2224.00, 
2225.00, 
2226.00, 
2227.00, 
2228.00, 
2229.00, 
2230.00, 
2231.00, 
2232.00, 
2233.00, 
2234.00, 
2235.00, 
2236.00, 
2237.00, 
2238.00, 
2239.00, 
2240.00, 
2241.00, 
2242.00, 
2243.00, 
2244.00, 
2245.00, 
2246.00, 
2247.00, 
2248.00, 
2249.00, 
2250.00, 
2251.00, 
2252.00, 
2253.00, 
2254.00, 
2255.00, 
2256.00, 
2257.00, 
2258.00, 
2259.00, 
2260.00, 
2261.00, 
2262.00, 
2263.00, 
2264.00, 
2265.00, 
2266.00, 
2267.00, 
2268.00, 
2269.00, 
2270.00, 
2271.00, 
2272.00, 
2273.00, 
2274.00, 
2275.00, 
2276.00, 
2277.00, 
2278.00, 
2279.00, 
2280.00, 
2281.00, 
2282.00, 
2283.00, 
2284.00, 
2285.00, 
2286.00, 
2287.00, 
2288.00, 
2289.00, 
2290.00, 
2291.00, 
2292.00, 
2293.00, 
2294.00, 
2295.00, 
2296.00, 
2297.00, 
2298.00, 
2299.00, 
2300.00, 
2301.00, 
2302.00, 
2303.00, 
2304.00, 
2305.00, 
2306.00, 
2307.00, 
2308.00, 
2309.00, 
2310.00, 
2311.00, 
2312.00, 
2313.00, 
2314.00, 
2315.00, 
2316.00, 
2317.00, 
2318.00, 
2319.00, 
2320.00, 
2321.00, 
2322.00, 
2323.00, 
2324.00, 
2325.00, 
2326.00, 
2327.00, 
2328.00, 
2329.00, 
2330.00, 
2331.00, 
2332.00, 
2333.00, 
2334.00, 
2335.00, 
2336.00, 
2337.00, 
2338.00, 
2339.00, 
2340.00, 
2341.00, 
2342.00, 
2343.00, 
2344.00, 
2345.00, 
2346.00, 
2347.00, 
2348.00, 
2349.00, 
2350.00, 
2351.00, 
2352.00, 
2353.00, 
2354.00, 
2355.00, 
2356.00, 
2357.00, 
2358.00, 
2359.00, 
2360.00, 
2361.00, 
2362.00, 
2363.00, 
2364.00, 
2365.00, 
2366.00, 
2367.00, 
2368.00, 
2369.00, 
2370.00, 
2371.00, 
2372.00, 
2373.00, 
2374.00, 
2375.00, 
2376.00, 
2377.00, 
2378.00, 
2379.00, 
2380.00, 
2381.00, 
2382.00, 
2383.00, 
2384.00, 
2385.00, 
2386.00, 
2387.00, 
2388.00, 
2389.00, 
2390.00, 
2391.00, 
2392.00, 
2393.00, 
2394.00, 
2395.00, 
2396.00, 
2397.00, 
2398.00, 
2399.00, 
2400.00, 
2401.00, 
2402.00, 
2403.00, 
2404.00, 
2405.00, 
2406.00, 
2407.00, 
2408.00, 
2409.00, 
2410.00, 
2411.00, 
2412.00, 
2413.00, 
2414.00, 
2415.00, 
2416.00, 
2417.00, 
2418.00, 
2419.00, 
2420.00, 
2421.00, 
2422.00, 
2423.00, 
2424.00, 
2425.00, 
2426.00, 
2427.00, 
2428.00, 
2429.00, 
2430.00, 
2431.00, 
2432.00, 
2433.00, 
2434.00, 
2435.00, 
2436.00, 
2437.00, 
2438.00, 
2439.00, 
2440.00, 
2441.00, 
2442.00, 
2443.00, 
2444.00, 
2445.00, 
2446.00, 
2447.00, 
2448.00, 
2449.00, 
2450.00, 
2451.00, 
2452.00, 
2453.00, 
2454.00, 
2455.00, 
2456.00, 
2457.00, 
2458.00, 
2459.00, 
2460.00, 
2461.00, 
2462.00, 
2463.00, 
2464.00, 
2465.00, 
2466.00, 
2467.00, 
2468.00, 
2469.00, 
2470.00, 
2471.00, 
2472.00, 
2473.00, 
2474.00, 
2475.00, 
2476.00, 
2477.00, 
2478.00, 
2479.00, 
2480.00, 
2481.00, 
2482.00, 
2483.00, 
2484.00, 
2485.00, 
2486.00, 
2487.00, 
2488.00, 
2489.00, 
2490.00, 
2491.00, 
2492.00, 
2493.00, 
2494.00, 
2495.00, 
2496.00, 
2497.00, 
2498.00, 
2499.00, 
2500.00, 
2501.00, 
2502.00, 
2503.00, 
2504.00, 
2505.00, 
2506.00, 
2507.00, 
2508.00, 
2509.00, 
2510.00, 
2511.00, 
2512.00, 
2513.00, 
2514.00, 
2515.00, 
2516.00, 
2517.00, 
2518.00, 
2519.00, 
2520.00, 
2521.00, 
2522.00, 
2523.00, 
2524.00, 
2525.00, 
2526.00, 
2527.00, 
2528.00, 
2529.00, 
2530.00, 
2531.00, 
2532.00, 
2533.00, 
2534.00, 
2535.00, 
2536.00, 
2537.00, 
2538.00, 
2539.00, 
2540.00, 
2541.00, 
2542.00, 
2543.00, 
2544.00, 
2545.00, 
2546.00, 
2547.00, 
2548.00, 
2549.00, 
2550.00, 
2551.00, 
2552.00, 
2553.00, 
2554.00, 
2555.00, 
2556.00, 
2557.00, 
2558.00, 
2559.00, 
2560.00, 
2561.00, 
2562.00, 
2563.00, 
2564.00, 
2565.00, 
2566.00, 
2567.00, 
2568.00, 
2569.00, 
2570.00, 
2571.00, 
2572.00, 
2573.00, 
2574.00, 
2575.00, 
2576.00, 
2577.00, 
2578.00, 
2579.00, 
2580.00, 
2581.00, 
2582.00, 
2583.00, 
2584.00, 
2585.00, 
2586.00, 
2587.00, 
2588.00, 
2589.00, 
2590.00, 
2591.00, 
2592.00, 
2593.00, 
2594.00, 
2595.00, 
2596.00, 
2597.00, 
2598.00, 
2599.00, 
2600.00, 
