"2bP2 - RawData"
"Wavelength nm.","T%"
200.00,0.000
201.00,0.001
202.00,0.004
203.00,0.001
204.00,0.001
205.00,0.002
206.00,0.002
207.00,0.002
208.00,0.000
209.00,0.001
210.00,0.001
211.00,0.003
212.00,0.000
213.00,0.002
214.00,0.000
215.00,0.002
216.00,-0.000
217.00,0.001
218.00,0.001
219.00,0.001
220.00,0.001
221.00,-0.000
222.00,0.002
223.00,0.001
224.00,0.001
225.00,-0.003
226.00,0.001
227.00,0.001
228.00,0.001
229.00,0.001
230.00,-0.000
231.00,-0.001
232.00,0.001
233.00,0.001
234.00,0.001
235.00,0.000
236.00,-0.000
237.00,0.001
238.00,0.001
239.00,0.002
240.00,0.001
241.00,0.001
242.00,-0.000
243.00,-0.001
244.00,0.001
245.00,0.000
246.00,0.001
247.00,0.001
248.00,0.001
249.00,-0.001
250.00,0.002
251.00,0.001
252.00,0.001
253.00,-0.000
254.00,0.000
255.00,-0.000
256.00,-0.002
257.00,0.001
258.00,-0.000
259.00,-0.001
260.00,0.001
261.00,-0.002
262.00,0.001
263.00,-0.001
264.00,-0.000
265.00,-0.001
266.00,-0.001
267.00,-0.001
268.00,-0.000
269.00,0.001
270.00,0.000
271.00,0.001
272.00,0.001
273.00,-0.001
274.00,0.000
275.00,0.001
276.00,0.000
277.00,0.001
278.00,0.000
279.00,0.001
280.00,0.000
281.00,-0.001
282.00,0.000
283.00,0.001
284.00,0.000
285.00,-0.000
286.00,0.001
287.00,-0.002
288.00,-0.000
289.00,-0.000
290.00,0.003
291.00,-0.001
292.00,-0.000
293.00,0.001
294.00,0.001
295.00,0.001
296.00,0.000
297.00,0.001
298.00,0.001
299.00,0.002
300.00,0.002
301.00,0.005
302.00,0.008
303.00,0.009
304.00,0.015
305.00,0.022
306.00,0.034
307.00,0.052
308.00,0.083
309.00,0.124
310.00,0.172
311.00,0.230
312.00,0.315
313.00,0.426
314.00,0.556
315.00,0.716
316.00,0.913
317.00,1.110
318.00,1.402
319.00,1.715
320.00,2.062
321.00,2.458
322.00,2.903
323.00,3.397
324.00,3.946
325.00,4.466
326.00,4.997
327.00,5.628
328.00,6.264
329.00,6.928
330.00,7.587
331.00,8.263
332.00,8.927
333.00,9.695
334.00,10.341
335.00,11.070
336.00,11.770
337.00,12.506
338.00,13.178
339.00,13.766
340.00,14.473
341.00,15.016
342.00,15.609
343.00,16.186
344.00,16.753
345.00,17.317
346.00,17.776
347.00,18.232
348.00,18.646
349.00,19.066
350.00,19.455
351.00,19.811
352.00,20.145
353.00,20.433
354.00,20.764
355.00,21.057
356.00,21.298
357.00,21.555
358.00,21.748
359.00,22.017
360.00,22.219
361.00,22.331
362.00,22.544
363.00,22.681
364.00,22.766
365.00,22.856
366.00,22.985
367.00,23.048
368.00,23.117
369.00,23.158
370.00,23.207
371.00,23.228
372.00,23.242
373.00,23.197
374.00,23.216
375.00,23.226
376.00,23.157
377.00,23.132
378.00,23.056
379.00,22.962
380.00,22.959
381.00,22.968
382.00,22.981
383.00,22.946
384.00,23.018
385.00,23.013
386.00,23.055
387.00,23.106
388.00,23.116
389.00,23.145
390.00,23.178
391.00,23.211
392.00,23.181
393.00,23.180
394.00,23.214
395.00,23.262
396.00,23.232
397.00,23.219
398.00,23.234
399.00,23.231
400.00,23.262
401.00,23.279
402.00,23.157
403.00,23.233
404.00,23.253
405.00,23.226
406.00,23.210
407.00,23.155
408.00,23.169
409.00,23.092
410.00,23.029
411.00,23.032
412.00,23.063
413.00,23.022
414.00,23.022
415.00,23.043
416.00,23.059
417.00,23.024
418.00,23.099
419.00,23.163
420.00,23.215
421.00,23.256
422.00,23.262
423.00,23.304
424.00,23.361
425.00,23.382
426.00,23.373
427.00,23.434
428.00,23.479
429.00,23.503
430.00,23.588
431.00,23.641
432.00,23.699
433.00,23.754
434.00,23.771
435.00,23.818
436.00,23.886
437.00,23.951
438.00,24.042
439.00,24.108
440.00,24.213
441.00,24.264
442.00,24.393
443.00,24.431
444.00,24.513
445.00,24.606
446.00,24.696
447.00,24.811
448.00,24.892
449.00,25.021
450.00,25.104
451.00,25.217
452.00,25.317
453.00,25.429
454.00,25.514
455.00,25.610
456.00,25.755
457.00,25.857
458.00,25.941
459.00,26.078
460.00,26.263
461.00,26.355
462.00,26.481
463.00,26.620
464.00,26.759
465.00,26.877
466.00,26.971
467.00,27.143
468.00,27.252
469.00,27.348
470.00,27.460
471.00,27.531
472.00,27.648
473.00,27.739
474.00,27.865
475.00,27.978
476.00,28.100
477.00,28.244
478.00,28.338
479.00,28.564
480.00,28.706
481.00,28.691
482.00,28.879
483.00,29.016
484.00,29.240
485.00,29.359
486.00,29.520
487.00,29.688
488.00,29.839
489.00,29.974
490.00,30.105
491.00,30.234
492.00,30.441
493.00,30.615
494.00,30.589
495.00,30.760
496.00,30.888
497.00,31.027
498.00,31.152
499.00,31.289
500.00,31.398
501.00,31.515
502.00,31.658
503.00,31.771
504.00,31.873
505.00,32.052
506.00,32.142
507.00,32.181
508.00,32.329
509.00,32.479
510.00,32.587
511.00,32.706
512.00,32.879
513.00,33.036
514.00,33.163
515.00,33.272
516.00,33.365
517.00,33.465
518.00,33.611
519.00,33.656
520.00,33.704
521.00,33.800
522.00,33.916
523.00,33.947
524.00,34.045
525.00,34.153
526.00,34.240
527.00,34.329
528.00,34.392
529.00,34.543
530.00,34.729
531.00,34.851
532.00,34.923
533.00,35.022
534.00,35.065
535.00,35.120
536.00,35.247
537.00,35.287
538.00,35.371
539.00,35.432
540.00,35.505
541.00,35.577
542.00,35.605
543.00,35.665
544.00,35.772
545.00,35.856
546.00,35.893
547.00,36.028
548.00,36.100
549.00,36.138
550.00,36.242
551.00,36.346
552.00,36.406
553.00,36.453
554.00,36.509
555.00,36.541
556.00,36.620
557.00,36.687
558.00,36.700
559.00,36.772
560.00,36.877
561.00,36.996
562.00,36.994
563.00,37.008
564.00,37.062
565.00,37.116
566.00,37.098
567.00,37.145
568.00,37.180
569.00,37.284
570.00,37.292
571.00,37.360
572.00,37.376
573.00,37.350
574.00,37.423
575.00,37.434
576.00,37.435
577.00,37.492
578.00,37.598
579.00,37.635
580.00,37.677
581.00,37.824
582.00,37.884
583.00,37.925
584.00,37.982
585.00,38.070
586.00,38.097
587.00,38.163
588.00,38.144
589.00,38.125
590.00,38.200
591.00,38.269
592.00,38.172
593.00,38.278
594.00,38.470
595.00,38.401
596.00,38.400
597.00,38.452
598.00,38.706
599.00,38.662
600.00,38.741
601.00,38.781
602.00,38.754
603.00,38.822
604.00,38.913
605.00,38.947
606.00,38.946
607.00,39.005
608.00,39.166
609.00,39.245
610.00,39.154
611.00,39.118
612.00,39.192
613.00,39.295
614.00,39.235
615.00,39.319
616.00,39.425
617.00,39.350
618.00,39.294
619.00,39.692
620.00,39.819
621.00,39.647
622.00,39.790
623.00,39.839
624.00,39.873
625.00,39.904
626.00,39.990
627.00,40.077
628.00,40.092
629.00,40.093
630.00,40.138
631.00,40.220
632.00,40.286
633.00,40.435
634.00,40.465
635.00,40.598
636.00,40.684
637.00,40.603
638.00,40.664
639.00,40.854
640.00,40.860
641.00,40.975
642.00,40.983
643.00,41.089
644.00,41.158
645.00,41.231
646.00,41.346
647.00,41.432
648.00,41.511
649.00,41.506
650.00,41.558
651.00,41.745
652.00,41.867
653.00,41.814
654.00,41.886
655.00,42.097
656.00,42.346
657.00,42.351
658.00,42.301
659.00,42.481
660.00,42.439
661.00,42.478
662.00,42.599
663.00,42.645
664.00,42.880
665.00,43.094
666.00,43.028
667.00,43.091
668.00,43.108
669.00,43.241
670.00,43.594
671.00,43.355
672.00,43.512
673.00,43.559
674.00,43.637
675.00,43.806
676.00,44.003
677.00,44.184
678.00,44.033
679.00,44.269
680.00,44.331
681.00,44.445
682.00,44.426
683.00,44.484
684.00,44.621
685.00,44.687
686.00,44.676
687.00,44.820
688.00,44.850
689.00,44.880
690.00,45.173
691.00,45.412
692.00,45.192
693.00,45.207
694.00,45.440
695.00,45.549
696.00,45.701
697.00,45.568
698.00,45.689
699.00,45.970
700.00,45.903
701.00,45.963
702.00,46.199
703.00,46.269
704.00,46.297
705.00,46.295
706.00,46.381
707.00,46.470
708.00,46.335
709.00,46.736
710.00,47.154
711.00,46.696
712.00,46.771
713.00,46.981
714.00,47.080
715.00,47.020
716.00,46.996
717.00,47.173
718.00,47.311
719.00,47.347
720.00,47.380
721.00,51.790
722.00,51.854
723.00,51.805
724.00,51.855
725.00,51.940
726.00,51.976
727.00,51.945
728.00,52.001
729.00,52.102
730.00,51.964
731.00,52.074
732.00,52.038
733.00,52.177
734.00,52.155
735.00,52.250
736.00,52.281
737.00,52.223
738.00,52.398
739.00,52.402
740.00,52.387
741.00,52.432
742.00,52.484
743.00,52.436
744.00,52.500
745.00,52.457
746.00,52.439
747.00,52.478
748.00,52.457
749.00,52.513
750.00,52.480
751.00,52.481
752.00,52.506
753.00,52.506
754.00,52.586
755.00,52.593
756.00,52.563
757.00,52.487
758.00,52.546
759.00,52.567
760.00,52.600
761.00,52.579
762.00,52.583
763.00,52.681
764.00,52.659
765.00,52.628
766.00,52.642
767.00,52.700
768.00,52.672
769.00,52.711
770.00,52.743
771.00,52.746
772.00,52.777
773.00,52.760
774.00,52.788
775.00,52.851
776.00,52.760
777.00,52.775
778.00,52.756
779.00,52.803
780.00,52.777
781.00,52.705
782.00,52.842
783.00,52.793
784.00,52.797
785.00,52.811
786.00,52.806
787.00,52.799
788.00,52.825
789.00,52.867
790.00,52.744
791.00,52.789
792.00,52.709
793.00,52.772
794.00,52.759
795.00,52.798
796.00,52.700
797.00,52.661
798.00,52.656
799.00,52.666
800.00,52.675
801.00,52.634
802.00,52.628
803.00,52.663
804.00,52.652
805.00,52.634
806.00,52.594
807.00,52.570
808.00,52.624
809.00,52.562
810.00,52.541
811.00,52.555
812.00,52.501
813.00,52.495
814.00,52.456
815.00,52.528
816.00,52.505
817.00,52.501
818.00,52.385
819.00,52.411
820.00,52.417
821.00,52.443
822.00,52.382
823.00,52.371
824.00,52.363
825.00,52.443
826.00,52.295
827.00,52.393
828.00,52.399
829.00,52.281
830.00,52.447
831.00,54.758
832.00,54.770
833.00,54.719
834.00,54.728
835.00,54.713
836.00,54.719
837.00,54.640
838.00,54.623
839.00,54.786
840.00,54.596
841.00,54.605
842.00,54.589
843.00,54.593
844.00,54.565
845.00,54.520
846.00,54.530
847.00,54.513
848.00,54.465
849.00,54.414
850.00,54.413
851.00,54.335
852.00,54.360
853.00,54.323
854.00,54.284
855.00,54.193
856.00,54.312
857.00,54.215
858.00,54.181
859.00,54.142
860.00,54.137
861.00,54.123
862.00,54.102
863.00,54.131
864.00,54.091
865.00,54.137
866.00,54.083
867.00,54.101
868.00,54.030
869.00,54.073
870.00,54.034
871.00,54.023
872.00,54.027
873.00,54.023
874.00,53.978
875.00,53.980
876.00,53.981
877.00,53.982
878.00,53.961
879.00,53.935
880.00,53.923
881.00,53.902
882.00,53.935
883.00,53.889
884.00,53.874
885.00,53.830
886.00,53.850
887.00,53.800
888.00,53.804
889.00,53.768
890.00,53.763
891.00,53.743
892.00,53.721
893.00,53.684
894.00,53.701
895.00,53.661
896.00,53.657
897.00,53.635
898.00,53.614
899.00,53.598
900.00,53.603
901.00,53.613
902.00,53.613
903.00,53.527
904.00,53.546
905.00,53.571
906.00,53.473
907.00,53.479
908.00,53.471
909.00,53.450
910.00,53.408
911.00,53.404
912.00,53.409
913.00,53.355
914.00,53.333
915.00,53.300
916.00,53.303
917.00,53.311
918.00,53.273
919.00,53.237
920.00,53.221
921.00,53.200
922.00,53.206
923.00,53.159
924.00,53.156
925.00,53.140
926.00,53.127
927.00,53.114
928.00,53.107
929.00,53.107
930.00,53.059
931.00,53.067
932.00,53.009
933.00,53.028
934.00,52.973
935.00,52.988
936.00,52.949
937.00,52.938
938.00,52.918
939.00,52.919
940.00,52.881
941.00,52.906
942.00,52.857
943.00,52.858
944.00,52.801
945.00,52.822
946.00,52.779
947.00,52.770
948.00,52.741
949.00,52.723
950.00,52.710
951.00,52.689
952.00,52.654
953.00,52.630
954.00,52.614
955.00,52.573
956.00,52.564
957.00,52.523
958.00,52.535
959.00,52.474
960.00,52.483
961.00,52.463
962.00,52.456
963.00,52.390
964.00,52.405
965.00,52.404
966.00,52.381
967.00,52.375
968.00,52.358
969.00,52.381
970.00,52.366
971.00,52.400
972.00,52.408
973.00,52.391
974.00,52.400
975.00,52.387
976.00,52.399
977.00,52.355
978.00,52.417
979.00,52.360
980.00,52.392
981.00,52.382
982.00,52.363
983.00,52.377
984.00,52.341
985.00,52.361
986.00,52.338
987.00,52.348
988.00,52.306
989.00,52.299
990.00,52.293
991.00,52.260
992.00,52.294
993.00,52.259
994.00,52.244
995.00,52.237
996.00,52.217
997.00,52.221
998.00,52.184
999.00,52.218
1000.00,52.169
1001.00,52.181
1002.00,52.161
1003.00,52.154
1004.00,52.124
1005.00,52.094
1006.00,52.132
1007.00,52.091
1008.00,52.091
1009.00,52.062
1010.00,52.057
1011.00,52.065
1012.00,52.027
1013.00,52.033
1014.00,51.979
1015.00,52.000
1016.00,51.966
1017.00,51.962
1018.00,51.948
1019.00,51.917
1020.00,51.923
1021.00,51.889
1022.00,51.886
1023.00,51.830
1024.00,51.846
1025.00,51.842
1026.00,51.814
1027.00,51.808
1028.00,51.789
1029.00,51.778
1030.00,51.762
1031.00,51.769
1032.00,51.704
1033.00,51.715
1034.00,51.695
1035.00,51.640
1036.00,51.623
1037.00,51.626
1038.00,51.608
1039.00,51.586
1040.00,51.580
1041.00,51.547
1042.00,51.546
1043.00,51.521
1044.00,51.553
1045.00,51.530
1046.00,51.509
1047.00,51.529
1048.00,51.526
1049.00,51.540
1050.00,51.533
1051.00,51.570
1052.00,51.575
1053.00,51.582
1054.00,51.569
1055.00,51.603
1056.00,51.610
1057.00,51.612
1058.00,51.608
1059.00,51.592
1060.00,51.612
1061.00,51.598
1062.00,51.577
1063.00,51.573
1064.00,51.572
1065.00,51.560
1066.00,51.549
1067.00,51.538
1068.00,51.563
1069.00,51.522
1070.00,51.508
1071.00,51.490
1072.00,51.524
1073.00,51.487
1074.00,51.494
1075.00,51.472
1076.00,51.460
1077.00,51.437
1078.00,51.409
1079.00,51.413
1080.00,51.415
1081.00,51.404
1082.00,51.404
1083.00,51.404
1084.00,51.394
1085.00,51.387
1086.00,51.385
1087.00,51.355
1088.00,51.359
1089.00,51.348
1090.00,51.346
1091.00,51.357
1092.00,51.330
1093.00,51.324
1094.00,51.295
1095.00,51.286
1096.00,51.281
1097.00,51.281
1098.00,51.269
1099.00,51.268
1100.00,51.247
1101.00,51.231
1102.00,51.231
1103.00,51.237
1104.00,51.231
1105.00,51.213
1106.00,51.200
1107.00,51.195
1108.00,51.191
1109.00,51.199
1110.00,51.161
1111.00,51.152
1112.00,51.135
1113.00,51.132
1114.00,51.122
1115.00,51.131
1116.00,51.126
1117.00,51.109
1118.00,51.099
1119.00,51.102
1120.00,51.082
1121.00,51.092
1122.00,51.073
1123.00,51.061
1124.00,51.076
1125.00,51.049
1126.00,51.056
1127.00,51.048
1128.00,51.015
1129.00,51.014
1130.00,51.013
1131.00,51.003
1132.00,50.996
1133.00,51.005
1134.00,50.987
1135.00,50.992
1136.00,50.982
1137.00,50.987
1138.00,50.974
1139.00,50.962
1140.00,50.970
1141.00,50.960
1142.00,50.938
1143.00,50.952
1144.00,50.933
1145.00,50.935
1146.00,50.941
1147.00,50.923
1148.00,50.930
1149.00,50.946
1150.00,50.934
1151.00,50.935
1152.00,50.920
1153.00,50.914
1154.00,50.906
1155.00,50.910
1156.00,50.893
1157.00,50.901
1158.00,50.888
1159.00,50.902
1160.00,50.888
1161.00,50.888
1162.00,50.888
1163.00,50.887
1164.00,50.865
1165.00,50.874
1166.00,50.873
1167.00,50.840
1168.00,50.865
1169.00,50.847
1170.00,50.844
1171.00,50.827
1172.00,50.826
1173.00,50.839
1174.00,50.847
1175.00,50.833
1176.00,50.848
1177.00,50.820
1178.00,50.824
1179.00,50.856
1180.00,50.826
1181.00,50.844
1182.00,50.839
1183.00,50.818
1184.00,50.815
1185.00,50.838
1186.00,50.805
1187.00,50.824
1188.00,50.815
1189.00,50.816
1190.00,50.804
1191.00,50.785
1192.00,50.819
1193.00,50.798
1194.00,50.793
1195.00,50.776
1196.00,50.819
1197.00,50.809
1198.00,50.806
1199.00,50.819
1200.00,50.823
1201.00,50.829
1202.00,50.811
1203.00,50.825
1204.00,50.798
1205.00,50.808
1206.00,50.806
1207.00,50.806
1208.00,50.787
1209.00,50.789
1210.00,50.807
1211.00,50.795
1212.00,50.821
1213.00,50.779
1214.00,50.810
1215.00,50.796
1216.00,50.802
1217.00,50.807
1218.00,50.786
1219.00,50.791
1220.00,50.786
1221.00,50.791
1222.00,50.778
1223.00,50.795
1224.00,50.783
1225.00,50.776
1226.00,50.769
1227.00,50.772
1228.00,50.800
1229.00,50.795
1230.00,50.814
1231.00,50.810
1232.00,50.820
1233.00,50.824
1234.00,50.829
1235.00,50.824
1236.00,50.825
1237.00,50.824
1238.00,50.824
1239.00,50.836
1240.00,50.819
1241.00,50.831
1242.00,50.832
1243.00,50.841
1244.00,50.805
1245.00,50.842
1246.00,50.849
1247.00,50.838
1248.00,50.842
1249.00,50.843
1250.00,50.869
1251.00,50.850
1252.00,50.865
1253.00,50.857
1254.00,50.888
1255.00,50.869
1256.00,50.852
1257.00,50.833
1258.00,50.890
1259.00,50.879
1260.00,50.892
1261.00,50.892
1262.00,50.871
1263.00,50.866
1264.00,50.876
1265.00,50.888
1266.00,50.890
1267.00,50.907
1268.00,50.902
1269.00,50.902
1270.00,50.916
1271.00,50.913
1272.00,50.922
1273.00,50.939
1274.00,50.928
1275.00,50.934
1276.00,50.927
1277.00,50.939
1278.00,50.960
1279.00,50.950
1280.00,50.952
1281.00,50.967
1282.00,50.972
1283.00,50.962
1284.00,50.976
1285.00,50.950
1286.00,50.966
1287.00,50.966
1288.00,50.960
1289.00,50.965
1290.00,50.984
1291.00,50.995
1292.00,51.006
1293.00,50.990
1294.00,51.002
1295.00,51.011
1296.00,51.006
1297.00,51.019
1298.00,51.041
1299.00,51.015
1300.00,51.044
1301.00,51.026
1302.00,51.060
1303.00,51.052
1304.00,51.030
1305.00,51.067
1306.00,51.071
1307.00,51.061
1308.00,51.065
1309.00,51.073
1310.00,51.064
1311.00,51.050
1312.00,51.057
1313.00,51.074
1314.00,51.096
1315.00,51.086
1316.00,51.072
1317.00,51.107
1318.00,51.107
1319.00,51.111
1320.00,51.132
1321.00,51.310
1322.00,51.275
1323.00,51.253
1324.00,51.270
1325.00,51.267
1326.00,51.270
1327.00,51.254
1328.00,51.267
1329.00,51.257
1330.00,51.263
1331.00,51.258
1332.00,51.247
1333.00,51.255
1334.00,51.267
1335.00,51.308
1336.00,51.337
1337.00,51.345
1338.00,51.416
1339.00,51.461
1340.00,51.494
1341.00,51.565
1342.00,51.627
1343.00,51.678
1344.00,51.734
1345.00,51.780
1346.00,51.824
1347.00,51.842
1348.00,51.852
1349.00,51.885
1350.00,51.906
1351.00,51.913
1352.00,51.930
1353.00,51.989
1354.00,51.959
1355.00,51.896
1356.00,51.971
1357.00,51.974
1358.00,51.974
1359.00,51.974
1360.00,51.950
1361.00,52.042
1362.00,51.924
1363.00,51.992
1364.00,52.113
1365.00,51.980
1366.00,52.134
1367.00,52.210
1368.00,51.956
1369.00,52.036
1370.00,51.986
1371.00,51.929
1372.00,51.962
1373.00,51.972
1374.00,51.970
1375.00,51.940
1376.00,51.933
1377.00,51.953
1378.00,51.991
1379.00,51.955
1380.00,51.929
1381.00,51.898
1382.00,51.979
1383.00,51.945
1384.00,51.867
1385.00,51.947
1386.00,51.955
1387.00,51.833
1388.00,51.916
1389.00,52.176
1390.00,51.994
1391.00,51.878
1392.00,51.908
1393.00,52.058
1394.00,51.862
1395.00,51.844
1396.00,51.836
1397.00,52.013
1398.00,52.113
1399.00,51.870
1400.00,51.753
1401.00,51.953
1402.00,52.154
1403.00,51.851
1404.00,51.935
1405.00,51.967
1406.00,51.986
1407.00,52.023
1408.00,51.946
1409.00,51.934
1410.00,52.013
1411.00,52.097
1412.00,52.085
1413.00,51.809
1414.00,51.971
1415.00,52.071
1416.00,52.071
1417.00,52.078
1418.00,51.998
1419.00,51.993
1420.00,52.075
1421.00,52.131
1422.00,52.068
1423.00,52.075
1424.00,52.124
1425.00,52.134
1426.00,52.156
1427.00,52.163
1428.00,52.150
1429.00,52.181
1430.00,52.187
1431.00,52.209
1432.00,52.222
1433.00,52.231
1434.00,52.215
1435.00,52.289
1436.00,52.277
1437.00,52.284
1438.00,52.318
1439.00,52.311
1440.00,52.321
1441.00,52.320
1442.00,52.335
1443.00,52.396
1444.00,52.416
1445.00,52.350
1446.00,52.396
1447.00,52.425
1448.00,52.496
1449.00,52.462
1450.00,52.438
1451.00,52.465
1452.00,52.483
1453.00,52.511
1454.00,52.524
1455.00,52.535
1456.00,52.557
1457.00,52.565
1458.00,52.606
1459.00,52.614
1460.00,52.631
1461.00,52.617
1462.00,52.653
1463.00,52.644
1464.00,52.670
1465.00,52.680
1466.00,52.671
1467.00,52.713
1468.00,52.775
1469.00,52.711
1470.00,52.745
1471.00,52.775
1472.00,52.749
1473.00,52.777
1474.00,52.795
1475.00,52.791
1476.00,52.826
1477.00,52.797
1478.00,52.840
1479.00,52.847
1480.00,52.833
1481.00,52.874
1482.00,52.883
1483.00,52.884
1484.00,52.917
1485.00,52.901
1486.00,52.926
1487.00,52.948
1488.00,52.948
1489.00,52.965
1490.00,52.996
1491.00,52.975
1492.00,53.009
1493.00,52.993
1494.00,53.002
1495.00,53.011
1496.00,53.033
1497.00,53.037
1498.00,53.057
1499.00,53.046
1500.00,53.084
1501.00, 
1502.00, 
1503.00, 
1504.00, 
1505.00, 
1506.00, 
1507.00, 
1508.00, 
1509.00, 
1510.00, 
1511.00, 
1512.00, 
1513.00, 
1514.00, 
1515.00, 
1516.00, 
1517.00, 
1518.00, 
1519.00, 
1520.00, 
1521.00, 
1522.00, 
1523.00, 
1524.00, 
1525.00, 
1526.00, 
1527.00, 
1528.00, 
1529.00, 
1530.00, 
1531.00, 
1532.00, 
1533.00, 
1534.00, 
1535.00, 
1536.00, 
1537.00, 
1538.00, 
1539.00, 
1540.00, 
1541.00, 
1542.00, 
1543.00, 
1544.00, 
1545.00, 
1546.00, 
1547.00, 
1548.00, 
1549.00, 
1550.00, 
1551.00, 
1552.00, 
1553.00, 
1554.00, 
1555.00, 
1556.00, 
1557.00, 
1558.00, 
1559.00, 
1560.00, 
1561.00, 
1562.00, 
1563.00, 
1564.00, 
1565.00, 
1566.00, 
1567.00, 
1568.00, 
1569.00, 
1570.00, 
1571.00, 
1572.00, 
1573.00, 
1574.00, 
1575.00, 
1576.00, 
1577.00, 
1578.00, 
1579.00, 
1580.00, 
1581.00, 
1582.00, 
1583.00, 
1584.00, 
1585.00, 
1586.00, 
1587.00, 
1588.00, 
1589.00, 
1590.00, 
1591.00, 
1592.00, 
1593.00, 
1594.00, 
1595.00, 
1596.00, 
1597.00, 
1598.00, 
1599.00, 
1600.00, 
1601.00, 
1602.00, 
1603.00, 
1604.00, 
1605.00, 
1606.00, 
1607.00, 
1608.00, 
1609.00, 
1610.00, 
1611.00, 
1612.00, 
1613.00, 
1614.00, 
1615.00, 
1616.00, 
1617.00, 
1618.00, 
1619.00, 
1620.00, 
1621.00, 
1622.00, 
1623.00, 
1624.00, 
1625.00, 
1626.00, 
1627.00, 
1628.00, 
1629.00, 
1630.00, 
1631.00, 
1632.00, 
1633.00, 
1634.00, 
1635.00, 
1636.00, 
1637.00, 
1638.00, 
1639.00, 
1640.00, 
1641.00, 
1642.00, 
1643.00, 
1644.00, 
1645.00, 
1646.00, 
1647.00, 
1648.00, 
1649.00, 
1650.00, 
1651.00, 
1652.00, 
1653.00, 
1654.00, 
1655.00, 
1656.00, 
1657.00, 
1658.00, 
1659.00, 
1660.00, 
1661.00, 
1662.00, 
1663.00, 
1664.00, 
1665.00, 
1666.00, 
1667.00, 
1668.00, 
1669.00, 
1670.00, 
1671.00, 
1672.00, 
1673.00, 
1674.00, 
1675.00, 
1676.00, 
1677.00, 
1678.00, 
1679.00, 
1680.00, 
1681.00, 
1682.00, 
1683.00, 
1684.00, 
1685.00, 
1686.00, 
1687.00, 
1688.00, 
1689.00, 
1690.00, 
1691.00, 
1692.00, 
1693.00, 
1694.00, 
1695.00, 
1696.00, 
1697.00, 
1698.00, 
1699.00, 
1700.00, 
1701.00, 
1702.00, 
1703.00, 
1704.00, 
1705.00, 
1706.00, 
1707.00, 
1708.00, 
1709.00, 
1710.00, 
1711.00, 
1712.00, 
1713.00, 
1714.00, 
1715.00, 
1716.00, 
1717.00, 
1718.00, 
1719.00, 
1720.00, 
1721.00, 
1722.00, 
1723.00, 
1724.00, 
1725.00, 
1726.00, 
1727.00, 
1728.00, 
1729.00, 
1730.00, 
1731.00, 
1732.00, 
1733.00, 
1734.00, 
1735.00, 
1736.00, 
1737.00, 
1738.00, 
1739.00, 
1740.00, 
1741.00, 
1742.00, 
1743.00, 
1744.00, 
1745.00, 
1746.00, 
1747.00, 
1748.00, 
1749.00, 
1750.00, 
1751.00, 
1752.00, 
1753.00, 
1754.00, 
1755.00, 
1756.00, 
1757.00, 
1758.00, 
1759.00, 
1760.00, 
1761.00, 
1762.00, 
1763.00, 
1764.00, 
1765.00, 
1766.00, 
1767.00, 
1768.00, 
1769.00, 
1770.00, 
1771.00, 
1772.00, 
1773.00, 
1774.00, 
1775.00, 
1776.00, 
1777.00, 
1778.00, 
1779.00, 
1780.00, 
1781.00, 
1782.00, 
1783.00, 
1784.00, 
1785.00, 
1786.00, 
1787.00, 
1788.00, 
1789.00, 
1790.00, 
1791.00, 
1792.00, 
1793.00, 
1794.00, 
1795.00, 
1796.00, 
1797.00, 
1798.00, 
1799.00, 
1800.00, 
1801.00, 
1802.00, 
1803.00, 
1804.00, 
1805.00, 
1806.00, 
1807.00, 
1808.00, 
1809.00, 
1810.00, 
1811.00, 
1812.00, 
1813.00, 
1814.00, 
1815.00, 
1816.00, 
1817.00, 
1818.00, 
1819.00, 
1820.00, 
1821.00, 
1822.00, 
1823.00, 
1824.00, 
1825.00, 
1826.00, 
1827.00, 
1828.00, 
1829.00, 
1830.00, 
1831.00, 
1832.00, 
1833.00, 
1834.00, 
1835.00, 
1836.00, 
1837.00, 
1838.00, 
1839.00, 
1840.00, 
1841.00, 
1842.00, 
1843.00, 
1844.00, 
1845.00, 
1846.00, 
1847.00, 
1848.00, 
1849.00, 
1850.00, 
1851.00, 
1852.00, 
1853.00, 
1854.00, 
1855.00, 
1856.00, 
1857.00, 
1858.00, 
1859.00, 
1860.00, 
1861.00, 
1862.00, 
1863.00, 
1864.00, 
1865.00, 
1866.00, 
1867.00, 
1868.00, 
1869.00, 
1870.00, 
1871.00, 
1872.00, 
1873.00, 
1874.00, 
1875.00, 
1876.00, 
1877.00, 
1878.00, 
1879.00, 
1880.00, 
1881.00, 
1882.00, 
1883.00, 
1884.00, 
1885.00, 
1886.00, 
1887.00, 
1888.00, 
1889.00, 
1890.00, 
1891.00, 
1892.00, 
1893.00, 
1894.00, 
1895.00, 
1896.00, 
1897.00, 
1898.00, 
1899.00, 
1900.00, 
1901.00, 
1902.00, 
1903.00, 
1904.00, 
1905.00, 
1906.00, 
1907.00, 
1908.00, 
1909.00, 
1910.00, 
1911.00, 
1912.00, 
1913.00, 
1914.00, 
1915.00, 
1916.00, 
1917.00, 
1918.00, 
1919.00, 
1920.00, 
1921.00, 
1922.00, 
1923.00, 
1924.00, 
1925.00, 
1926.00, 
1927.00, 
1928.00, 
1929.00, 
1930.00, 
1931.00, 
1932.00, 
1933.00, 
1934.00, 
1935.00, 
1936.00, 
1937.00, 
1938.00, 
1939.00, 
1940.00, 
1941.00, 
1942.00, 
1943.00, 
1944.00, 
1945.00, 
1946.00, 
1947.00, 
1948.00, 
1949.00, 
1950.00, 
1951.00, 
1952.00, 
1953.00, 
1954.00, 
1955.00, 
1956.00, 
1957.00, 
1958.00, 
1959.00, 
1960.00, 
1961.00, 
1962.00, 
1963.00, 
1964.00, 
1965.00, 
1966.00, 
1967.00, 
1968.00, 
1969.00, 
1970.00, 
1971.00, 
1972.00, 
1973.00, 
1974.00, 
1975.00, 
1976.00, 
1977.00, 
1978.00, 
1979.00, 
1980.00, 
1981.00, 
1982.00, 
1983.00, 
1984.00, 
1985.00, 
1986.00, 
1987.00, 
1988.00, 
1989.00, 
1990.00, 
1991.00, 
1992.00, 
1993.00, 
1994.00, 
1995.00, 
1996.00, 
1997.00, 
1998.00, 
1999.00, 
2000.00, 
2001.00, 
2002.00, 
2003.00, 
2004.00, 
2005.00, 
2006.00, 
2007.00, 
2008.00, 
2009.00, 
2010.00, 
2011.00, 
2012.00, 
2013.00, 
2014.00, 
2015.00, 
2016.00, 
2017.00, 
2018.00, 
2019.00, 
2020.00, 
2021.00, 
2022.00, 
2023.00, 
2024.00, 
2025.00, 
2026.00, 
2027.00, 
2028.00, 
2029.00, 
2030.00, 
2031.00, 
2032.00, 
2033.00, 
2034.00, 
2035.00, 
2036.00, 
2037.00, 
2038.00, 
2039.00, 
2040.00, 
2041.00, 
2042.00, 
2043.00, 
2044.00, 
2045.00, 
2046.00, 
2047.00, 
2048.00, 
2049.00, 
2050.00, 
2051.00, 
2052.00, 
2053.00, 
2054.00, 
2055.00, 
2056.00, 
2057.00, 
2058.00, 
2059.00, 
2060.00, 
2061.00, 
2062.00, 
2063.00, 
2064.00, 
2065.00, 
2066.00, 
2067.00, 
2068.00, 
2069.00, 
2070.00, 
2071.00, 
2072.00, 
2073.00, 
2074.00, 
2075.00, 
2076.00, 
2077.00, 
2078.00, 
2079.00, 
2080.00, 
2081.00, 
2082.00, 
2083.00, 
2084.00, 
2085.00, 
2086.00, 
2087.00, 
2088.00, 
2089.00, 
2090.00, 
2091.00, 
2092.00, 
2093.00, 
2094.00, 
2095.00, 
2096.00, 
2097.00, 
2098.00, 
2099.00, 
2100.00, 
2101.00, 
2102.00, 
2103.00, 
2104.00, 
2105.00, 
2106.00, 
2107.00, 
2108.00, 
2109.00, 
2110.00, 
2111.00, 
2112.00, 
2113.00, 
2114.00, 
2115.00, 
2116.00, 
2117.00, 
2118.00, 
2119.00, 
2120.00, 
2121.00, 
2122.00, 
2123.00, 
2124.00, 
2125.00, 
2126.00, 
2127.00, 
2128.00, 
2129.00, 
2130.00, 
2131.00, 
2132.00, 
2133.00, 
2134.00, 
2135.00, 
2136.00, 
2137.00, 
2138.00, 
2139.00, 
2140.00, 
2141.00, 
2142.00, 
2143.00, 
2144.00, 
2145.00, 
2146.00, 
2147.00, 
2148.00, 
2149.00, 
2150.00, 
2151.00, 
2152.00, 
2153.00, 
2154.00, 
2155.00, 
2156.00, 
2157.00, 
2158.00, 
2159.00, 
2160.00, 
2161.00, 
2162.00, 
2163.00, 
2164.00, 
2165.00, 
2166.00, 
2167.00, 
2168.00, 
2169.00, 
2170.00, 
2171.00, 
2172.00, 
2173.00, 
2174.00, 
2175.00, 
2176.00, 
2177.00, 
2178.00, 
2179.00, 
2180.00, 
2181.00, 
2182.00, 
2183.00, 
2184.00, 
2185.00, 
2186.00, 
2187.00, 
2188.00, 
2189.00, 
2190.00, 
2191.00, 
2192.00, 
2193.00, 
2194.00, 
2195.00, 
2196.00, 
2197.00, 
2198.00, 
2199.00, 
2200.00, 
2201.00, 
2202.00, 
2203.00, 
2204.00, 
2205.00, 
2206.00, 
2207.00, 
2208.00, 
2209.00, 
2210.00, 
2211.00, 
2212.00, 
2213.00, 
2214.00, 
2215.00, 
2216.00, 
2217.00, 
2218.00, 
2219.00, 
2220.00, 
2221.00, 
2222.00, 
2223.00, 
2224.00, 
2225.00, 
2226.00, 
2227.00, 
2228.00, 
2229.00, 
2230.00, 
2231.00, 
2232.00, 
2233.00, 
2234.00, 
2235.00, 
2236.00, 
2237.00, 
2238.00, 
2239.00, 
2240.00, 
2241.00, 
2242.00, 
2243.00, 
2244.00, 
2245.00, 
2246.00, 
2247.00, 
2248.00, 
2249.00, 
2250.00, 
2251.00, 
2252.00, 
2253.00, 
2254.00, 
2255.00, 
2256.00, 
2257.00, 
2258.00, 
2259.00, 
2260.00, 
2261.00, 
2262.00, 
2263.00, 
2264.00, 
2265.00, 
2266.00, 
2267.00, 
2268.00, 
2269.00, 
2270.00, 
2271.00, 
2272.00, 
2273.00, 
2274.00, 
2275.00, 
2276.00, 
2277.00, 
2278.00, 
2279.00, 
2280.00, 
2281.00, 
2282.00, 
2283.00, 
2284.00, 
2285.00, 
2286.00, 
2287.00, 
2288.00, 
2289.00, 
2290.00, 
2291.00, 
2292.00, 
2293.00, 
2294.00, 
2295.00, 
2296.00, 
2297.00, 
2298.00, 
2299.00, 
2300.00, 
2301.00, 
2302.00, 
2303.00, 
2304.00, 
2305.00, 
2306.00, 
2307.00, 
2308.00, 
2309.00, 
2310.00, 
2311.00, 
2312.00, 
2313.00, 
2314.00, 
2315.00, 
2316.00, 
2317.00, 
2318.00, 
2319.00, 
2320.00, 
2321.00, 
2322.00, 
2323.00, 
2324.00, 
2325.00, 
2326.00, 
2327.00, 
2328.00, 
2329.00, 
2330.00, 
2331.00, 
2332.00, 
2333.00, 
2334.00, 
2335.00, 
2336.00, 
2337.00, 
2338.00, 
2339.00, 
2340.00, 
2341.00, 
2342.00, 
2343.00, 
2344.00, 
2345.00, 
2346.00, 
2347.00, 
2348.00, 
2349.00, 
2350.00, 
2351.00, 
2352.00, 
2353.00, 
2354.00, 
2355.00, 
2356.00, 
2357.00, 
2358.00, 
2359.00, 
2360.00, 
2361.00, 
2362.00, 
2363.00, 
2364.00, 
2365.00, 
2366.00, 
2367.00, 
2368.00, 
2369.00, 
2370.00, 
2371.00, 
2372.00, 
2373.00, 
2374.00, 
2375.00, 
2376.00, 
2377.00, 
2378.00, 
2379.00, 
2380.00, 
2381.00, 
2382.00, 
2383.00, 
2384.00, 
2385.00, 
2386.00, 
2387.00, 
2388.00, 
2389.00, 
2390.00, 
2391.00, 
2392.00, 
2393.00, 
2394.00, 
2395.00, 
2396.00, 
2397.00, 
2398.00, 
2399.00, 
2400.00, 
2401.00, 
2402.00, 
2403.00, 
2404.00, 
2405.00, 
2406.00, 
2407.00, 
2408.00, 
2409.00, 
2410.00, 
2411.00, 
2412.00, 
2413.00, 
2414.00, 
2415.00, 
2416.00, 
2417.00, 
2418.00, 
2419.00, 
2420.00, 
2421.00, 
2422.00, 
2423.00, 
2424.00, 
2425.00, 
2426.00, 
2427.00, 
2428.00, 
2429.00, 
2430.00, 
2431.00, 
2432.00, 
2433.00, 
2434.00, 
2435.00, 
2436.00, 
2437.00, 
2438.00, 
2439.00, 
2440.00, 
2441.00, 
2442.00, 
2443.00, 
2444.00, 
2445.00, 
2446.00, 
2447.00, 
2448.00, 
2449.00, 
2450.00, 
2451.00, 
2452.00, 
2453.00, 
2454.00, 
2455.00, 
2456.00, 
2457.00, 
2458.00, 
2459.00, 
2460.00, 
2461.00, 
2462.00, 
2463.00, 
2464.00, 
2465.00, 
2466.00, 
2467.00, 
2468.00, 
2469.00, 
2470.00, 
2471.00, 
2472.00, 
2473.00, 
2474.00, 
2475.00, 
2476.00, 
2477.00, 
2478.00, 
2479.00, 
2480.00, 
2481.00, 
2482.00, 
2483.00, 
2484.00, 
2485.00, 
2486.00, 
2487.00, 
2488.00, 
2489.00, 
2490.00, 
2491.00, 
2492.00, 
2493.00, 
2494.00, 
2495.00, 
2496.00, 
2497.00, 
2498.00, 
2499.00, 
2500.00, 
2501.00, 
2502.00, 
2503.00, 
2504.00, 
2505.00, 
2506.00, 
2507.00, 
2508.00, 
2509.00, 
2510.00, 
2511.00, 
2512.00, 
2513.00, 
2514.00, 
2515.00, 
2516.00, 
2517.00, 
2518.00, 
2519.00, 
2520.00, 
2521.00, 
2522.00, 
2523.00, 
2524.00, 
2525.00, 
2526.00, 
2527.00, 
2528.00, 
2529.00, 
2530.00, 
2531.00, 
2532.00, 
2533.00, 
2534.00, 
2535.00, 
2536.00, 
2537.00, 
2538.00, 
2539.00, 
2540.00, 
2541.00, 
2542.00, 
2543.00, 
2544.00, 
2545.00, 
2546.00, 
2547.00, 
2548.00, 
2549.00, 
2550.00, 
2551.00, 
2552.00, 
2553.00, 
2554.00, 
2555.00, 
2556.00, 
2557.00, 
2558.00, 
2559.00, 
2560.00, 
2561.00, 
2562.00, 
2563.00, 
2564.00, 
2565.00, 
2566.00, 
2567.00, 
2568.00, 
2569.00, 
2570.00, 
2571.00, 
2572.00, 
2573.00, 
2574.00, 
2575.00, 
2576.00, 
2577.00, 
2578.00, 
2579.00, 
2580.00, 
2581.00, 
2582.00, 
2583.00, 
2584.00, 
2585.00, 
2586.00, 
2587.00, 
2588.00, 
2589.00, 
2590.00, 
2591.00, 
2592.00, 
2593.00, 
2594.00, 
2595.00, 
2596.00, 
2597.00, 
2598.00, 
2599.00, 
2600.00, 
