"2cP1 - RawData"
"Wavelength nm.","T%"
200.00,-0.003
201.00,0.003
202.00,0.003
203.00,0.001
204.00,-0.000
205.00,0.003
206.00,0.003
207.00,-0.001
208.00,0.002
209.00,0.002
210.00,0.001
211.00,0.001
212.00,0.002
213.00,0.001
214.00,0.002
215.00,0.001
216.00,0.003
217.00,0.001
218.00,0.003
219.00,0.002
220.00,0.002
221.00,0.003
222.00,-0.001
223.00,0.000
224.00,0.002
225.00,0.001
226.00,-0.003
227.00,0.003
228.00,0.002
229.00,-0.001
230.00,0.000
231.00,0.000
232.00,-0.000
233.00,0.001
234.00,-0.000
235.00,-0.001
236.00,-0.000
237.00,0.001
238.00,0.000
239.00,-0.002
240.00,0.000
241.00,0.000
242.00,0.001
243.00,-0.001
244.00,0.001
245.00,0.000
246.00,0.001
247.00,0.001
248.00,0.001
249.00,0.002
250.00,0.001
251.00,-0.000
252.00,-0.000
253.00,-0.001
254.00,0.001
255.00,0.001
256.00,0.002
257.00,-0.001
258.00,-0.001
259.00,0.000
260.00,0.002
261.00,0.000
262.00,0.003
263.00,-0.000
264.00,0.001
265.00,-0.001
266.00,-0.001
267.00,0.002
268.00,-0.000
269.00,0.000
270.00,-0.000
271.00,0.001
272.00,-0.001
273.00,-0.000
274.00,-0.000
275.00,0.002
276.00,0.000
277.00,0.000
278.00,0.000
279.00,-0.002
280.00,0.002
281.00,0.001
282.00,-0.000
283.00,0.001
284.00,-0.001
285.00,-0.001
286.00,0.000
287.00,0.001
288.00,0.001
289.00,0.000
290.00,0.001
291.00,-0.001
292.00,0.001
293.00,0.001
294.00,-0.000
295.00,-0.000
296.00,0.000
297.00,0.001
298.00,-0.000
299.00,0.002
300.00,0.002
301.00,0.004
302.00,0.005
303.00,0.009
304.00,0.011
305.00,0.019
306.00,0.031
307.00,0.046
308.00,0.069
309.00,0.113
310.00,0.154
311.00,0.212
312.00,0.291
313.00,0.395
314.00,0.518
315.00,0.678
316.00,0.862
317.00,1.084
318.00,1.351
319.00,1.657
320.00,2.030
321.00,2.437
322.00,2.891
323.00,3.394
324.00,3.855
325.00,4.480
326.00,5.072
327.00,5.722
328.00,6.388
329.00,7.082
330.00,7.803
331.00,8.502
332.00,9.281
333.00,10.097
334.00,10.796
335.00,11.563
336.00,12.311
337.00,13.086
338.00,13.860
339.00,14.557
340.00,15.285
341.00,15.956
342.00,16.599
343.00,17.269
344.00,17.861
345.00,18.390
346.00,18.922
347.00,19.500
348.00,20.004
349.00,20.491
350.00,20.912
351.00,21.368
352.00,21.720
353.00,22.121
354.00,22.464
355.00,22.762
356.00,23.094
357.00,23.356
358.00,23.635
359.00,23.887
360.00,24.121
361.00,24.356
362.00,24.544
363.00,24.719
364.00,24.895
365.00,25.048
366.00,25.207
367.00,25.299
368.00,25.403
369.00,25.481
370.00,25.551
371.00,25.567
372.00,25.640
373.00,25.609
374.00,25.632
375.00,25.621
376.00,25.634
377.00,25.638
378.00,25.589
379.00,25.521
380.00,25.535
381.00,25.512
382.00,25.532
383.00,25.510
384.00,25.650
385.00,25.633
386.00,25.703
387.00,25.818
388.00,25.839
389.00,25.893
390.00,25.934
391.00,26.008
392.00,25.991
393.00,26.031
394.00,26.060
395.00,26.090
396.00,26.096
397.00,26.147
398.00,26.143
399.00,26.110
400.00,26.165
401.00,26.163
402.00,26.172
403.00,26.177
404.00,26.282
405.00,26.167
406.00,26.163
407.00,26.095
408.00,26.113
409.00,26.085
410.00,26.025
411.00,26.040
412.00,26.047
413.00,26.012
414.00,26.028
415.00,26.067
416.00,26.045
417.00,26.065
418.00,26.081
419.00,26.105
420.00,26.114
421.00,26.231
422.00,26.271
423.00,26.264
424.00,26.289
425.00,26.325
426.00,26.363
427.00,26.437
428.00,26.469
429.00,26.494
430.00,26.519
431.00,26.582
432.00,26.620
433.00,26.673
434.00,26.717
435.00,26.729
436.00,26.831
437.00,26.893
438.00,26.970
439.00,27.031
440.00,27.100
441.00,27.171
442.00,27.239
443.00,27.321
444.00,27.393
445.00,27.445
446.00,27.563
447.00,27.660
448.00,27.729
449.00,27.838
450.00,27.925
451.00,28.038
452.00,28.124
453.00,28.211
454.00,28.319
455.00,28.428
456.00,28.505
457.00,28.655
458.00,28.743
459.00,28.837
460.00,28.962
461.00,29.069
462.00,29.176
463.00,29.280
464.00,29.414
465.00,29.511
466.00,29.604
467.00,29.756
468.00,29.863
469.00,29.996
470.00,30.061
471.00,30.141
472.00,30.227
473.00,30.304
474.00,30.384
475.00,30.504
476.00,30.643
477.00,30.749
478.00,30.862
479.00,31.005
480.00,31.210
481.00,31.290
482.00,31.382
483.00,31.556
484.00,31.673
485.00,31.826
486.00,31.918
487.00,32.062
488.00,32.198
489.00,32.349
490.00,32.462
491.00,32.580
492.00,32.775
493.00,32.848
494.00,32.882
495.00,33.042
496.00,33.150
497.00,33.245
498.00,33.405
499.00,33.564
500.00,33.612
501.00,33.756
502.00,33.871
503.00,34.017
504.00,34.093
505.00,34.205
506.00,34.333
507.00,34.397
508.00,34.527
509.00,34.637
510.00,34.752
511.00,34.879
512.00,34.962
513.00,35.092
514.00,35.248
515.00,35.261
516.00,35.451
517.00,35.528
518.00,35.602
519.00,35.717
520.00,35.727
521.00,35.759
522.00,35.944
523.00,36.035
524.00,36.083
525.00,36.167
526.00,36.276
527.00,36.361
528.00,36.433
529.00,36.510
530.00,36.549
531.00,36.775
532.00,36.794
533.00,36.791
534.00,37.031
535.00,37.094
536.00,37.179
537.00,37.243
538.00,37.368
539.00,37.452
540.00,37.479
541.00,37.526
542.00,37.584
543.00,37.632
544.00,37.744
545.00,37.804
546.00,37.854
547.00,37.985
548.00,38.007
549.00,38.053
550.00,38.186
551.00,38.262
552.00,38.329
553.00,38.418
554.00,38.431
555.00,38.508
556.00,38.558
557.00,38.671
558.00,38.634
559.00,38.686
560.00,38.820
561.00,38.870
562.00,38.819
563.00,38.907
564.00,38.934
565.00,38.914
566.00,39.090
567.00,39.112
568.00,39.104
569.00,39.191
570.00,39.174
571.00,39.261
572.00,39.313
573.00,39.337
574.00,39.375
575.00,39.408
576.00,39.449
577.00,39.500
578.00,39.544
579.00,39.571
580.00,39.654
581.00,39.838
582.00,39.865
583.00,39.948
584.00,40.022
585.00,40.102
586.00,40.158
587.00,40.219
588.00,40.232
589.00,40.248
590.00,40.326
591.00,40.334
592.00,40.354
593.00,40.400
594.00,40.502
595.00,40.480
596.00,40.545
597.00,40.597
598.00,40.706
599.00,40.683
600.00,40.840
601.00,40.873
602.00,40.812
603.00,40.793
604.00,40.804
605.00,40.873
606.00,41.049
607.00,41.060
608.00,41.167
609.00,41.161
610.00,41.138
611.00,41.173
612.00,41.270
613.00,41.246
614.00,41.301
615.00,41.365
616.00,41.409
617.00,41.459
618.00,41.472
619.00,41.522
620.00,41.479
621.00,41.553
622.00,41.676
623.00,41.800
624.00,41.817
625.00,41.850
626.00,41.934
627.00,42.029
628.00,42.026
629.00,42.066
630.00,42.106
631.00,42.166
632.00,42.224
633.00,42.287
634.00,42.332
635.00,42.410
636.00,42.526
637.00,42.549
638.00,42.593
639.00,42.631
640.00,42.634
641.00,42.781
642.00,42.794
643.00,42.845
644.00,42.938
645.00,42.964
646.00,43.041
647.00,43.120
648.00,43.171
649.00,43.242
650.00,43.256
651.00,43.363
652.00,43.411
653.00,43.490
654.00,43.541
655.00,43.560
656.00,43.645
657.00,44.056
658.00,43.703
659.00,43.906
660.00,43.728
661.00,43.868
662.00,44.115
663.00,44.098
664.00,44.489
665.00,44.335
666.00,44.412
667.00,44.570
668.00,44.573
669.00,44.588
670.00,44.708
671.00,44.714
672.00,44.834
673.00,44.983
674.00,45.010
675.00,45.030
676.00,45.111
677.00,45.241
678.00,45.184
679.00,45.311
680.00,45.450
681.00,45.447
682.00,45.450
683.00,45.647
684.00,45.547
685.00,45.683
686.00,45.735
687.00,45.908
688.00,45.972
689.00,46.020
690.00,46.070
691.00,46.121
692.00,46.123
693.00,46.158
694.00,46.299
695.00,46.472
696.00,46.444
697.00,46.394
698.00,46.656
699.00,46.554
700.00,46.703
701.00,46.782
702.00,46.815
703.00,46.898
704.00,46.914
705.00,46.923
706.00,46.917
707.00,47.079
708.00,47.046
709.00,47.147
710.00,47.396
711.00,47.163
712.00,47.234
713.00,47.287
714.00,47.382
715.00,47.551
716.00,47.488
717.00,47.574
718.00,47.650
719.00,47.775
720.00,47.810
721.00,51.802
722.00,51.899
723.00,51.914
724.00,51.910
725.00,51.874
726.00,51.926
727.00,51.854
728.00,51.890
729.00,51.931
730.00,51.915
731.00,51.887
732.00,51.934
733.00,51.919
734.00,51.969
735.00,51.897
736.00,52.019
737.00,51.996
738.00,52.015
739.00,52.091
740.00,51.989
741.00,52.075
742.00,52.078
743.00,52.063
744.00,52.033
745.00,52.030
746.00,51.986
747.00,51.999
748.00,52.020
749.00,52.020
750.00,51.933
751.00,51.918
752.00,51.964
753.00,52.003
754.00,51.983
755.00,52.010
756.00,51.958
757.00,51.935
758.00,51.927
759.00,51.915
760.00,51.859
761.00,51.927
762.00,51.922
763.00,52.013
764.00,52.013
765.00,51.930
766.00,52.002
767.00,51.986
768.00,51.980
769.00,51.914
770.00,52.050
771.00,51.892
772.00,51.972
773.00,51.980
774.00,51.953
775.00,52.027
776.00,52.019
777.00,52.009
778.00,51.958
779.00,52.005
780.00,51.959
781.00,51.916
782.00,52.039
783.00,51.918
784.00,51.968
785.00,51.911
786.00,51.909
787.00,51.963
788.00,51.900
789.00,51.837
790.00,51.780
791.00,51.816
792.00,51.807
793.00,51.822
794.00,51.753
795.00,51.777
796.00,51.708
797.00,51.665
798.00,51.719
799.00,51.682
800.00,51.736
801.00,51.636
802.00,51.552
803.00,51.596
804.00,51.592
805.00,51.543
806.00,51.538
807.00,51.467
808.00,51.535
809.00,51.522
810.00,51.547
811.00,51.420
812.00,51.430
813.00,51.405
814.00,51.418
815.00,51.389
816.00,51.391
817.00,51.353
818.00,51.321
819.00,51.289
820.00,51.373
821.00,51.295
822.00,51.333
823.00,51.274
824.00,51.321
825.00,51.275
826.00,51.189
827.00,51.308
828.00,51.172
829.00,51.107
830.00,51.211
831.00,53.714
832.00,53.707
833.00,53.640
834.00,53.631
835.00,53.606
836.00,53.611
837.00,53.537
838.00,53.544
839.00,53.522
840.00,53.500
841.00,53.513
842.00,53.515
843.00,53.460
844.00,53.416
845.00,53.387
846.00,53.377
847.00,53.395
848.00,53.330
849.00,53.315
850.00,53.255
851.00,53.192
852.00,53.184
853.00,53.134
854.00,53.113
855.00,53.091
856.00,53.074
857.00,53.030
858.00,53.033
859.00,52.976
860.00,52.946
861.00,52.903
862.00,52.943
863.00,52.925
864.00,52.891
865.00,52.902
866.00,52.851
867.00,52.880
868.00,52.856
869.00,52.869
870.00,52.805
871.00,52.811
872.00,52.813
873.00,52.769
874.00,52.756
875.00,52.771
876.00,52.737
877.00,52.772
878.00,52.717
879.00,52.722
880.00,52.713
881.00,52.654
882.00,52.684
883.00,52.658
884.00,52.621
885.00,52.564
886.00,52.573
887.00,52.538
888.00,52.529
889.00,52.492
890.00,52.490
891.00,52.474
892.00,52.433
893.00,52.411
894.00,52.419
895.00,52.395
896.00,52.374
897.00,52.367
898.00,52.335
899.00,52.324
900.00,52.328
901.00,52.303
902.00,52.302
903.00,52.263
904.00,52.232
905.00,52.272
906.00,52.165
907.00,52.228
908.00,52.123
909.00,52.186
910.00,52.246
911.00,52.111
912.00,52.122
913.00,52.075
914.00,52.046
915.00,52.012
916.00,52.008
917.00,51.983
918.00,51.961
919.00,51.929
920.00,51.925
921.00,51.886
922.00,51.943
923.00,51.882
924.00,51.862
925.00,51.823
926.00,51.824
927.00,51.782
928.00,51.803
929.00,51.778
930.00,51.738
931.00,51.734
932.00,51.702
933.00,51.698
934.00,51.661
935.00,51.647
936.00,51.624
937.00,51.608
938.00,51.580
939.00,51.595
940.00,51.543
941.00,51.550
942.00,51.511
943.00,51.517
944.00,51.467
945.00,51.470
946.00,51.439
947.00,51.425
948.00,51.391
949.00,51.351
950.00,51.351
951.00,51.330
952.00,51.293
953.00,51.277
954.00,51.266
955.00,51.215
956.00,51.216
957.00,51.176
958.00,51.186
959.00,51.127
960.00,51.120
961.00,51.100
962.00,51.118
963.00,51.057
964.00,51.066
965.00,51.038
966.00,51.027
967.00,51.046
968.00,51.010
969.00,51.026
970.00,50.999
971.00,51.020
972.00,50.994
973.00,51.015
974.00,51.014
975.00,51.005
976.00,51.030
977.00,50.979
978.00,51.021
979.00,50.977
980.00,51.018
981.00,51.024
982.00,50.986
983.00,50.994
984.00,51.053
985.00,50.988
986.00,50.964
987.00,50.976
988.00,50.952
989.00,50.937
990.00,50.932
991.00,50.898
992.00,50.919
993.00,50.887
994.00,50.884
995.00,50.872
996.00,50.849
997.00,50.861
998.00,50.820
999.00,50.837
1000.00,50.805
1001.00,50.802
1002.00,50.783
1003.00,50.784
1004.00,50.763
1005.00,50.728
1006.00,50.749
1007.00,50.713
1008.00,50.720
1009.00,50.696
1010.00,50.675
1011.00,50.679
1012.00,50.636
1013.00,50.656
1014.00,50.638
1015.00,50.621
1016.00,50.585
1017.00,50.582
1018.00,50.565
1019.00,50.539
1020.00,50.528
1021.00,50.507
1022.00,50.505
1023.00,50.458
1024.00,50.463
1025.00,50.456
1026.00,50.430
1027.00,50.414
1028.00,50.406
1029.00,50.390
1030.00,50.375
1031.00,50.374
1032.00,50.329
1033.00,50.336
1034.00,50.299
1035.00,50.265
1036.00,50.255
1037.00,50.231
1038.00,50.217
1039.00,50.188
1040.00,50.194
1041.00,50.158
1042.00,50.155
1043.00,50.119
1044.00,50.179
1045.00,50.137
1046.00,50.131
1047.00,50.135
1048.00,50.131
1049.00,50.151
1050.00,50.153
1051.00,50.170
1052.00,50.197
1053.00,50.204
1054.00,50.186
1055.00,50.205
1056.00,50.221
1057.00,50.225
1058.00,50.217
1059.00,50.194
1060.00,50.195
1061.00,50.208
1062.00,50.175
1063.00,50.200
1064.00,50.170
1065.00,50.161
1066.00,50.153
1067.00,50.131
1068.00,50.153
1069.00,50.129
1070.00,50.112
1071.00,50.098
1072.00,50.111
1073.00,50.082
1074.00,50.089
1075.00,50.069
1076.00,50.072
1077.00,50.053
1078.00,50.044
1079.00,50.020
1080.00,50.028
1081.00,49.995
1082.00,50.001
1083.00,49.991
1084.00,49.993
1085.00,49.974
1086.00,49.986
1087.00,49.960
1088.00,49.956
1089.00,49.947
1090.00,49.946
1091.00,49.941
1092.00,49.915
1093.00,49.898
1094.00,49.889
1095.00,49.872
1096.00,49.869
1097.00,49.858
1098.00,49.856
1099.00,49.846
1100.00,49.834
1101.00,49.809
1102.00,49.813
1103.00,49.803
1104.00,49.799
1105.00,49.781
1106.00,49.763
1107.00,49.763
1108.00,49.765
1109.00,49.747
1110.00,49.761
1111.00,49.748
1112.00,49.729
1113.00,49.719
1114.00,49.719
1115.00,49.718
1116.00,49.713
1117.00,49.687
1118.00,49.693
1119.00,49.688
1120.00,49.678
1121.00,49.675
1122.00,49.666
1123.00,49.642
1124.00,49.652
1125.00,49.620
1126.00,49.630
1127.00,49.608
1128.00,49.592
1129.00,49.591
1130.00,49.583
1131.00,49.561
1132.00,49.561
1133.00,49.562
1134.00,49.549
1135.00,49.526
1136.00,49.526
1137.00,49.526
1138.00,49.531
1139.00,49.528
1140.00,49.540
1141.00,49.517
1142.00,49.498
1143.00,49.522
1144.00,49.504
1145.00,49.492
1146.00,49.501
1147.00,49.473
1148.00,49.481
1149.00,49.478
1150.00,49.491
1151.00,49.517
1152.00,49.523
1153.00,49.470
1154.00,49.471
1155.00,49.474
1156.00,49.453
1157.00,49.465
1158.00,49.447
1159.00,49.449
1160.00,49.444
1161.00,49.449
1162.00,49.449
1163.00,49.448
1164.00,49.427
1165.00,49.433
1166.00,49.428
1167.00,49.418
1168.00,49.431
1169.00,49.417
1170.00,49.430
1171.00,49.406
1172.00,49.397
1173.00,49.416
1174.00,49.413
1175.00,49.399
1176.00,49.415
1177.00,49.399
1178.00,49.385
1179.00,49.406
1180.00,49.390
1181.00,49.417
1182.00,49.409
1183.00,49.382
1184.00,49.383
1185.00,49.406
1186.00,49.371
1187.00,49.387
1188.00,49.363
1189.00,49.367
1190.00,49.361
1191.00,49.362
1192.00,49.374
1193.00,49.349
1194.00,49.364
1195.00,49.349
1196.00,49.382
1197.00,49.358
1198.00,49.364
1199.00,49.358
1200.00,49.348
1201.00,49.366
1202.00,49.339
1203.00,49.351
1204.00,49.333
1205.00,49.344
1206.00,49.356
1207.00,49.353
1208.00,49.330
1209.00,49.340
1210.00,49.350
1211.00,49.338
1212.00,49.361
1213.00,49.333
1214.00,49.333
1215.00,49.324
1216.00,49.325
1217.00,49.340
1218.00,49.319
1219.00,49.320
1220.00,49.334
1221.00,49.332
1222.00,49.315
1223.00,49.341
1224.00,49.318
1225.00,49.328
1226.00,49.318
1227.00,49.315
1228.00,49.346
1229.00,49.326
1230.00,49.364
1231.00,49.357
1232.00,49.363
1233.00,49.353
1234.00,49.375
1235.00,49.359
1236.00,49.359
1237.00,49.350
1238.00,49.359
1239.00,49.377
1240.00,49.365
1241.00,49.367
1242.00,49.369
1243.00,49.391
1244.00,49.356
1245.00,49.377
1246.00,49.383
1247.00,49.384
1248.00,49.381
1249.00,49.371
1250.00,49.393
1251.00,49.390
1252.00,49.401
1253.00,49.423
1254.00,49.410
1255.00,49.403
1256.00,49.390
1257.00,49.348
1258.00,49.419
1259.00,49.406
1260.00,49.426
1261.00,49.431
1262.00,49.422
1263.00,49.405
1264.00,49.421
1265.00,49.424
1266.00,49.423
1267.00,49.437
1268.00,49.443
1269.00,49.434
1270.00,49.450
1271.00,49.443
1272.00,49.471
1273.00,49.483
1274.00,49.463
1275.00,49.465
1276.00,49.472
1277.00,49.463
1278.00,49.485
1279.00,49.470
1280.00,49.480
1281.00,49.493
1282.00,49.493
1283.00,49.482
1284.00,49.505
1285.00,49.455
1286.00,49.491
1287.00,49.486
1288.00,49.495
1289.00,49.493
1290.00,49.515
1291.00,49.521
1292.00,49.534
1293.00,49.526
1294.00,49.541
1295.00,49.549
1296.00,49.535
1297.00,49.545
1298.00,49.559
1299.00,49.544
1300.00,49.558
1301.00,49.544
1302.00,49.563
1303.00,49.579
1304.00,49.557
1305.00,49.589
1306.00,49.591
1307.00,49.585
1308.00,49.590
1309.00,49.587
1310.00,49.586
1311.00,49.587
1312.00,49.577
1313.00,49.584
1314.00,49.608
1315.00,49.601
1316.00,49.622
1317.00,49.643
1318.00,49.630
1319.00,49.641
1320.00,49.661
1321.00,49.810
1322.00,49.831
1323.00,49.797
1324.00,49.816
1325.00,49.801
1326.00,49.800
1327.00,49.796
1328.00,49.822
1329.00,49.801
1330.00,49.797
1331.00,49.810
1332.00,49.833
1333.00,49.753
1334.00,49.828
1335.00,49.858
1336.00,49.895
1337.00,49.905
1338.00,49.988
1339.00,50.015
1340.00,50.080
1341.00,50.134
1342.00,50.199
1343.00,50.256
1344.00,50.299
1345.00,50.377
1346.00,50.403
1347.00,50.409
1348.00,50.448
1349.00,50.468
1350.00,50.481
1351.00,50.493
1352.00,50.522
1353.00,50.540
1354.00,50.532
1355.00,50.482
1356.00,50.533
1357.00,50.546
1358.00,50.540
1359.00,50.560
1360.00,50.588
1361.00,50.522
1362.00,50.483
1363.00,50.587
1364.00,50.545
1365.00,50.535
1366.00,50.599
1367.00,50.513
1368.00,50.482
1369.00,50.588
1370.00,50.493
1371.00,50.477
1372.00,50.505
1373.00,50.501
1374.00,50.534
1375.00,50.498
1376.00,50.495
1377.00,50.503
1378.00,50.543
1379.00,50.506
1380.00,50.535
1381.00,50.462
1382.00,50.475
1383.00,50.487
1384.00,50.394
1385.00,50.497
1386.00,50.514
1387.00,50.371
1388.00,50.459
1389.00,50.730
1390.00,50.509
1391.00,50.420
1392.00,50.487
1393.00,50.712
1394.00,50.562
1395.00,50.322
1396.00,50.394
1397.00,50.629
1398.00,50.615
1399.00,50.364
1400.00,50.260
1401.00,50.501
1402.00,50.700
1403.00,50.342
1404.00,50.456
1405.00,50.515
1406.00,50.503
1407.00,50.561
1408.00,50.473
1409.00,50.727
1410.00,50.542
1411.00,50.638
1412.00,50.613
1413.00,50.382
1414.00,50.478
1415.00,50.611
1416.00,50.616
1417.00,50.614
1418.00,50.552
1419.00,50.535
1420.00,50.621
1421.00,50.665
1422.00,50.623
1423.00,50.607
1424.00,50.655
1425.00,50.651
1426.00,50.690
1427.00,50.687
1428.00,50.693
1429.00,50.756
1430.00,50.744
1431.00,50.733
1432.00,50.773
1433.00,50.781
1434.00,50.784
1435.00,50.841
1436.00,50.809
1437.00,50.823
1438.00,50.834
1439.00,50.865
1440.00,50.878
1441.00,50.876
1442.00,50.879
1443.00,50.959
1444.00,50.957
1445.00,50.914
1446.00,50.940
1447.00,50.978
1448.00,51.030
1449.00,51.004
1450.00,50.969
1451.00,51.022
1452.00,51.024
1453.00,51.060
1454.00,51.060
1455.00,51.083
1456.00,51.100
1457.00,51.110
1458.00,51.117
1459.00,51.138
1460.00,51.155
1461.00,51.155
1462.00,51.184
1463.00,51.182
1464.00,51.206
1465.00,51.227
1466.00,51.209
1467.00,51.256
1468.00,51.286
1469.00,51.270
1470.00,51.296
1471.00,51.317
1472.00,51.311
1473.00,51.319
1474.00,51.350
1475.00,51.340
1476.00,51.372
1477.00,51.348
1478.00,51.385
1479.00,51.404
1480.00,51.397
1481.00,51.424
1482.00,51.440
1483.00,51.436
1484.00,51.467
1485.00,51.468
1486.00,51.476
1487.00,51.497
1488.00,51.491
1489.00,51.503
1490.00,51.535
1491.00,51.515
1492.00,51.545
1493.00,51.550
1494.00,51.551
1495.00,51.583
1496.00,51.568
1497.00,51.590
1498.00,51.593
1499.00,51.594
1500.00,51.637
1501.00, 
1502.00, 
1503.00, 
1504.00, 
1505.00, 
1506.00, 
1507.00, 
1508.00, 
1509.00, 
1510.00, 
1511.00, 
1512.00, 
1513.00, 
1514.00, 
1515.00, 
1516.00, 
1517.00, 
1518.00, 
1519.00, 
1520.00, 
1521.00, 
1522.00, 
1523.00, 
1524.00, 
1525.00, 
1526.00, 
1527.00, 
1528.00, 
1529.00, 
1530.00, 
1531.00, 
1532.00, 
1533.00, 
1534.00, 
1535.00, 
1536.00, 
1537.00, 
1538.00, 
1539.00, 
1540.00, 
1541.00, 
1542.00, 
1543.00, 
1544.00, 
1545.00, 
1546.00, 
1547.00, 
1548.00, 
1549.00, 
1550.00, 
1551.00, 
1552.00, 
1553.00, 
1554.00, 
1555.00, 
1556.00, 
1557.00, 
1558.00, 
1559.00, 
1560.00, 
1561.00, 
1562.00, 
1563.00, 
1564.00, 
1565.00, 
1566.00, 
1567.00, 
1568.00, 
1569.00, 
1570.00, 
1571.00, 
1572.00, 
1573.00, 
1574.00, 
1575.00, 
1576.00, 
1577.00, 
1578.00, 
1579.00, 
1580.00, 
1581.00, 
1582.00, 
1583.00, 
1584.00, 
1585.00, 
1586.00, 
1587.00, 
1588.00, 
1589.00, 
1590.00, 
1591.00, 
1592.00, 
1593.00, 
1594.00, 
1595.00, 
1596.00, 
1597.00, 
1598.00, 
1599.00, 
1600.00, 
1601.00, 
1602.00, 
1603.00, 
1604.00, 
1605.00, 
1606.00, 
1607.00, 
1608.00, 
1609.00, 
1610.00, 
1611.00, 
1612.00, 
1613.00, 
1614.00, 
1615.00, 
1616.00, 
1617.00, 
1618.00, 
1619.00, 
1620.00, 
1621.00, 
1622.00, 
1623.00, 
1624.00, 
1625.00, 
1626.00, 
1627.00, 
1628.00, 
1629.00, 
1630.00, 
1631.00, 
1632.00, 
1633.00, 
1634.00, 
1635.00, 
1636.00, 
1637.00, 
1638.00, 
1639.00, 
1640.00, 
1641.00, 
1642.00, 
1643.00, 
1644.00, 
1645.00, 
1646.00, 
1647.00, 
1648.00, 
1649.00, 
1650.00, 
1651.00, 
1652.00, 
1653.00, 
1654.00, 
1655.00, 
1656.00, 
1657.00, 
1658.00, 
1659.00, 
1660.00, 
1661.00, 
1662.00, 
1663.00, 
1664.00, 
1665.00, 
1666.00, 
1667.00, 
1668.00, 
1669.00, 
1670.00, 
1671.00, 
1672.00, 
1673.00, 
1674.00, 
1675.00, 
1676.00, 
1677.00, 
1678.00, 
1679.00, 
1680.00, 
1681.00, 
1682.00, 
1683.00, 
1684.00, 
1685.00, 
1686.00, 
1687.00, 
1688.00, 
1689.00, 
1690.00, 
1691.00, 
1692.00, 
1693.00, 
1694.00, 
1695.00, 
1696.00, 
1697.00, 
1698.00, 
1699.00, 
1700.00, 
1701.00, 
1702.00, 
1703.00, 
1704.00, 
1705.00, 
1706.00, 
1707.00, 
1708.00, 
1709.00, 
1710.00, 
1711.00, 
1712.00, 
1713.00, 
1714.00, 
1715.00, 
1716.00, 
1717.00, 
1718.00, 
1719.00, 
1720.00, 
1721.00, 
1722.00, 
1723.00, 
1724.00, 
1725.00, 
1726.00, 
1727.00, 
1728.00, 
1729.00, 
1730.00, 
1731.00, 
1732.00, 
1733.00, 
1734.00, 
1735.00, 
1736.00, 
1737.00, 
1738.00, 
1739.00, 
1740.00, 
1741.00, 
1742.00, 
1743.00, 
1744.00, 
1745.00, 
1746.00, 
1747.00, 
1748.00, 
1749.00, 
1750.00, 
1751.00, 
1752.00, 
1753.00, 
1754.00, 
1755.00, 
1756.00, 
1757.00, 
1758.00, 
1759.00, 
1760.00, 
1761.00, 
1762.00, 
1763.00, 
1764.00, 
1765.00, 
1766.00, 
1767.00, 
1768.00, 
1769.00, 
1770.00, 
1771.00, 
1772.00, 
1773.00, 
1774.00, 
1775.00, 
1776.00, 
1777.00, 
1778.00, 
1779.00, 
1780.00, 
1781.00, 
1782.00, 
1783.00, 
1784.00, 
1785.00, 
1786.00, 
1787.00, 
1788.00, 
1789.00, 
1790.00, 
1791.00, 
1792.00, 
1793.00, 
1794.00, 
1795.00, 
1796.00, 
1797.00, 
1798.00, 
1799.00, 
1800.00, 
1801.00, 
1802.00, 
1803.00, 
1804.00, 
1805.00, 
1806.00, 
1807.00, 
1808.00, 
1809.00, 
1810.00, 
1811.00, 
1812.00, 
1813.00, 
1814.00, 
1815.00, 
1816.00, 
1817.00, 
1818.00, 
1819.00, 
1820.00, 
1821.00, 
1822.00, 
1823.00, 
1824.00, 
1825.00, 
1826.00, 
1827.00, 
1828.00, 
1829.00, 
1830.00, 
1831.00, 
1832.00, 
1833.00, 
1834.00, 
1835.00, 
1836.00, 
1837.00, 
1838.00, 
1839.00, 
1840.00, 
1841.00, 
1842.00, 
1843.00, 
1844.00, 
1845.00, 
1846.00, 
1847.00, 
1848.00, 
1849.00, 
1850.00, 
1851.00, 
1852.00, 
1853.00, 
1854.00, 
1855.00, 
1856.00, 
1857.00, 
1858.00, 
1859.00, 
1860.00, 
1861.00, 
1862.00, 
1863.00, 
1864.00, 
1865.00, 
1866.00, 
1867.00, 
1868.00, 
1869.00, 
1870.00, 
1871.00, 
1872.00, 
1873.00, 
1874.00, 
1875.00, 
1876.00, 
1877.00, 
1878.00, 
1879.00, 
1880.00, 
1881.00, 
1882.00, 
1883.00, 
1884.00, 
1885.00, 
1886.00, 
1887.00, 
1888.00, 
1889.00, 
1890.00, 
1891.00, 
1892.00, 
1893.00, 
1894.00, 
1895.00, 
1896.00, 
1897.00, 
1898.00, 
1899.00, 
1900.00, 
1901.00, 
1902.00, 
1903.00, 
1904.00, 
1905.00, 
1906.00, 
1907.00, 
1908.00, 
1909.00, 
1910.00, 
1911.00, 
1912.00, 
1913.00, 
1914.00, 
1915.00, 
1916.00, 
1917.00, 
1918.00, 
1919.00, 
1920.00, 
1921.00, 
1922.00, 
1923.00, 
1924.00, 
1925.00, 
1926.00, 
1927.00, 
1928.00, 
1929.00, 
1930.00, 
1931.00, 
1932.00, 
1933.00, 
1934.00, 
1935.00, 
1936.00, 
1937.00, 
1938.00, 
1939.00, 
1940.00, 
1941.00, 
1942.00, 
1943.00, 
1944.00, 
1945.00, 
1946.00, 
1947.00, 
1948.00, 
1949.00, 
1950.00, 
1951.00, 
1952.00, 
1953.00, 
1954.00, 
1955.00, 
1956.00, 
1957.00, 
1958.00, 
1959.00, 
1960.00, 
1961.00, 
1962.00, 
1963.00, 
1964.00, 
1965.00, 
1966.00, 
1967.00, 
1968.00, 
1969.00, 
1970.00, 
1971.00, 
1972.00, 
1973.00, 
1974.00, 
1975.00, 
1976.00, 
1977.00, 
1978.00, 
1979.00, 
1980.00, 
1981.00, 
1982.00, 
1983.00, 
1984.00, 
1985.00, 
1986.00, 
1987.00, 
1988.00, 
1989.00, 
1990.00, 
1991.00, 
1992.00, 
1993.00, 
1994.00, 
1995.00, 
1996.00, 
1997.00, 
1998.00, 
1999.00, 
2000.00, 
2001.00, 
2002.00, 
2003.00, 
2004.00, 
2005.00, 
2006.00, 
2007.00, 
2008.00, 
2009.00, 
2010.00, 
2011.00, 
2012.00, 
2013.00, 
2014.00, 
2015.00, 
2016.00, 
2017.00, 
2018.00, 
2019.00, 
2020.00, 
2021.00, 
2022.00, 
2023.00, 
2024.00, 
2025.00, 
2026.00, 
2027.00, 
2028.00, 
2029.00, 
2030.00, 
2031.00, 
2032.00, 
2033.00, 
2034.00, 
2035.00, 
2036.00, 
2037.00, 
2038.00, 
2039.00, 
2040.00, 
2041.00, 
2042.00, 
2043.00, 
2044.00, 
2045.00, 
2046.00, 
2047.00, 
2048.00, 
2049.00, 
2050.00, 
2051.00, 
2052.00, 
2053.00, 
2054.00, 
2055.00, 
2056.00, 
2057.00, 
2058.00, 
2059.00, 
2060.00, 
2061.00, 
2062.00, 
2063.00, 
2064.00, 
2065.00, 
2066.00, 
2067.00, 
2068.00, 
2069.00, 
2070.00, 
2071.00, 
2072.00, 
2073.00, 
2074.00, 
2075.00, 
2076.00, 
2077.00, 
2078.00, 
2079.00, 
2080.00, 
2081.00, 
2082.00, 
2083.00, 
2084.00, 
2085.00, 
2086.00, 
2087.00, 
2088.00, 
2089.00, 
2090.00, 
2091.00, 
2092.00, 
2093.00, 
2094.00, 
2095.00, 
2096.00, 
2097.00, 
2098.00, 
2099.00, 
2100.00, 
2101.00, 
2102.00, 
2103.00, 
2104.00, 
2105.00, 
2106.00, 
2107.00, 
2108.00, 
2109.00, 
2110.00, 
2111.00, 
2112.00, 
2113.00, 
2114.00, 
2115.00, 
2116.00, 
2117.00, 
2118.00, 
2119.00, 
2120.00, 
2121.00, 
2122.00, 
2123.00, 
2124.00, 
2125.00, 
2126.00, 
2127.00, 
2128.00, 
2129.00, 
2130.00, 
2131.00, 
2132.00, 
2133.00, 
2134.00, 
2135.00, 
2136.00, 
2137.00, 
2138.00, 
2139.00, 
2140.00, 
2141.00, 
2142.00, 
2143.00, 
2144.00, 
2145.00, 
2146.00, 
2147.00, 
2148.00, 
2149.00, 
2150.00, 
2151.00, 
2152.00, 
2153.00, 
2154.00, 
2155.00, 
2156.00, 
2157.00, 
2158.00, 
2159.00, 
2160.00, 
2161.00, 
2162.00, 
2163.00, 
2164.00, 
2165.00, 
2166.00, 
2167.00, 
2168.00, 
2169.00, 
2170.00, 
2171.00, 
2172.00, 
2173.00, 
2174.00, 
2175.00, 
2176.00, 
2177.00, 
2178.00, 
2179.00, 
2180.00, 
2181.00, 
2182.00, 
2183.00, 
2184.00, 
2185.00, 
2186.00, 
2187.00, 
2188.00, 
2189.00, 
2190.00, 
2191.00, 
2192.00, 
2193.00, 
2194.00, 
2195.00, 
2196.00, 
2197.00, 
2198.00, 
2199.00, 
2200.00, 
2201.00, 
2202.00, 
2203.00, 
2204.00, 
2205.00, 
2206.00, 
2207.00, 
2208.00, 
2209.00, 
2210.00, 
2211.00, 
2212.00, 
2213.00, 
2214.00, 
2215.00, 
2216.00, 
2217.00, 
2218.00, 
2219.00, 
2220.00, 
2221.00, 
2222.00, 
2223.00, 
2224.00, 
2225.00, 
2226.00, 
2227.00, 
2228.00, 
2229.00, 
2230.00, 
2231.00, 
2232.00, 
2233.00, 
2234.00, 
2235.00, 
2236.00, 
2237.00, 
2238.00, 
2239.00, 
2240.00, 
2241.00, 
2242.00, 
2243.00, 
2244.00, 
2245.00, 
2246.00, 
2247.00, 
2248.00, 
2249.00, 
2250.00, 
2251.00, 
2252.00, 
2253.00, 
2254.00, 
2255.00, 
2256.00, 
2257.00, 
2258.00, 
2259.00, 
2260.00, 
2261.00, 
2262.00, 
2263.00, 
2264.00, 
2265.00, 
2266.00, 
2267.00, 
2268.00, 
2269.00, 
2270.00, 
2271.00, 
2272.00, 
2273.00, 
2274.00, 
2275.00, 
2276.00, 
2277.00, 
2278.00, 
2279.00, 
2280.00, 
2281.00, 
2282.00, 
2283.00, 
2284.00, 
2285.00, 
2286.00, 
2287.00, 
2288.00, 
2289.00, 
2290.00, 
2291.00, 
2292.00, 
2293.00, 
2294.00, 
2295.00, 
2296.00, 
2297.00, 
2298.00, 
2299.00, 
2300.00, 
2301.00, 
2302.00, 
2303.00, 
2304.00, 
2305.00, 
2306.00, 
2307.00, 
2308.00, 
2309.00, 
2310.00, 
2311.00, 
2312.00, 
2313.00, 
2314.00, 
2315.00, 
2316.00, 
2317.00, 
2318.00, 
2319.00, 
2320.00, 
2321.00, 
2322.00, 
2323.00, 
2324.00, 
2325.00, 
2326.00, 
2327.00, 
2328.00, 
2329.00, 
2330.00, 
2331.00, 
2332.00, 
2333.00, 
2334.00, 
2335.00, 
2336.00, 
2337.00, 
2338.00, 
2339.00, 
2340.00, 
2341.00, 
2342.00, 
2343.00, 
2344.00, 
2345.00, 
2346.00, 
2347.00, 
2348.00, 
2349.00, 
2350.00, 
2351.00, 
2352.00, 
2353.00, 
2354.00, 
2355.00, 
2356.00, 
2357.00, 
2358.00, 
2359.00, 
2360.00, 
2361.00, 
2362.00, 
2363.00, 
2364.00, 
2365.00, 
2366.00, 
2367.00, 
2368.00, 
2369.00, 
2370.00, 
2371.00, 
2372.00, 
2373.00, 
2374.00, 
2375.00, 
2376.00, 
2377.00, 
2378.00, 
2379.00, 
2380.00, 
2381.00, 
2382.00, 
2383.00, 
2384.00, 
2385.00, 
2386.00, 
2387.00, 
2388.00, 
2389.00, 
2390.00, 
2391.00, 
2392.00, 
2393.00, 
2394.00, 
2395.00, 
2396.00, 
2397.00, 
2398.00, 
2399.00, 
2400.00, 
2401.00, 
2402.00, 
2403.00, 
2404.00, 
2405.00, 
2406.00, 
2407.00, 
2408.00, 
2409.00, 
2410.00, 
2411.00, 
2412.00, 
2413.00, 
2414.00, 
2415.00, 
2416.00, 
2417.00, 
2418.00, 
2419.00, 
2420.00, 
2421.00, 
2422.00, 
2423.00, 
2424.00, 
2425.00, 
2426.00, 
2427.00, 
2428.00, 
2429.00, 
2430.00, 
2431.00, 
2432.00, 
2433.00, 
2434.00, 
2435.00, 
2436.00, 
2437.00, 
2438.00, 
2439.00, 
2440.00, 
2441.00, 
2442.00, 
2443.00, 
2444.00, 
2445.00, 
2446.00, 
2447.00, 
2448.00, 
2449.00, 
2450.00, 
2451.00, 
2452.00, 
2453.00, 
2454.00, 
2455.00, 
2456.00, 
2457.00, 
2458.00, 
2459.00, 
2460.00, 
2461.00, 
2462.00, 
2463.00, 
2464.00, 
2465.00, 
2466.00, 
2467.00, 
2468.00, 
2469.00, 
2470.00, 
2471.00, 
2472.00, 
2473.00, 
2474.00, 
2475.00, 
2476.00, 
2477.00, 
2478.00, 
2479.00, 
2480.00, 
2481.00, 
2482.00, 
2483.00, 
2484.00, 
2485.00, 
2486.00, 
2487.00, 
2488.00, 
2489.00, 
2490.00, 
2491.00, 
2492.00, 
2493.00, 
2494.00, 
2495.00, 
2496.00, 
2497.00, 
2498.00, 
2499.00, 
2500.00, 
2501.00, 
2502.00, 
2503.00, 
2504.00, 
2505.00, 
2506.00, 
2507.00, 
2508.00, 
2509.00, 
2510.00, 
2511.00, 
2512.00, 
2513.00, 
2514.00, 
2515.00, 
2516.00, 
2517.00, 
2518.00, 
2519.00, 
2520.00, 
2521.00, 
2522.00, 
2523.00, 
2524.00, 
2525.00, 
2526.00, 
2527.00, 
2528.00, 
2529.00, 
2530.00, 
2531.00, 
2532.00, 
2533.00, 
2534.00, 
2535.00, 
2536.00, 
2537.00, 
2538.00, 
2539.00, 
2540.00, 
2541.00, 
2542.00, 
2543.00, 
2544.00, 
2545.00, 
2546.00, 
2547.00, 
2548.00, 
2549.00, 
2550.00, 
2551.00, 
2552.00, 
2553.00, 
2554.00, 
2555.00, 
2556.00, 
2557.00, 
2558.00, 
2559.00, 
2560.00, 
2561.00, 
2562.00, 
2563.00, 
2564.00, 
2565.00, 
2566.00, 
2567.00, 
2568.00, 
2569.00, 
2570.00, 
2571.00, 
2572.00, 
2573.00, 
2574.00, 
2575.00, 
2576.00, 
2577.00, 
2578.00, 
2579.00, 
2580.00, 
2581.00, 
2582.00, 
2583.00, 
2584.00, 
2585.00, 
2586.00, 
2587.00, 
2588.00, 
2589.00, 
2590.00, 
2591.00, 
2592.00, 
2593.00, 
2594.00, 
2595.00, 
2596.00, 
2597.00, 
2598.00, 
2599.00, 
2600.00, 
