"2cP3 - RawData"
"Wavelength nm.","T%"
200.00,-0.000
201.00,0.001
202.00,0.005
203.00,0.000
204.00,0.002
205.00,0.000
206.00,-0.002
207.00,0.001
208.00,0.002
209.00,0.001
210.00,0.002
211.00,0.003
212.00,0.003
213.00,-0.001
214.00,0.001
215.00,-0.001
216.00,0.001
217.00,0.002
218.00,0.003
219.00,0.001
220.00,-0.001
221.00,0.003
222.00,-0.002
223.00,0.001
224.00,0.001
225.00,-0.001
226.00,-0.001
227.00,-0.001
228.00,-0.001
229.00,0.001
230.00,-0.001
231.00,-0.001
232.00,0.002
233.00,0.001
234.00,0.002
235.00,-0.001
236.00,-0.001
237.00,0.000
238.00,0.000
239.00,0.001
240.00,0.001
241.00,0.001
242.00,0.000
243.00,0.000
244.00,-0.000
245.00,0.000
246.00,0.000
247.00,0.002
248.00,0.001
249.00,0.000
250.00,0.000
251.00,0.002
252.00,0.001
253.00,-0.002
254.00,0.001
255.00,-0.001
256.00,-0.000
257.00,-0.001
258.00,-0.001
259.00,-0.001
260.00,0.001
261.00,0.001
262.00,0.000
263.00,0.000
264.00,-0.001
265.00,-0.001
266.00,0.001
267.00,-0.000
268.00,0.001
269.00,0.000
270.00,0.000
271.00,0.001
272.00,0.000
273.00,0.001
274.00,-0.002
275.00,0.000
276.00,0.000
277.00,0.001
278.00,-0.002
279.00,-0.000
280.00,0.001
281.00,0.002
282.00,0.000
283.00,0.001
284.00,-0.001
285.00,0.000
286.00,-0.000
287.00,-0.001
288.00,0.001
289.00,0.002
290.00,-0.001
291.00,-0.001
292.00,-0.001
293.00,0.001
294.00,0.001
295.00,0.000
296.00,0.001
297.00,-0.000
298.00,0.000
299.00,0.002
300.00,0.003
301.00,0.004
302.00,0.004
303.00,0.008
304.00,0.013
305.00,0.023
306.00,0.035
307.00,0.051
308.00,0.082
309.00,0.126
310.00,0.177
311.00,0.238
312.00,0.321
313.00,0.439
314.00,0.593
315.00,0.771
316.00,0.994
317.00,1.242
318.00,1.547
319.00,1.896
320.00,2.312
321.00,2.748
322.00,3.264
323.00,3.873
324.00,4.471
325.00,5.121
326.00,5.799
327.00,6.547
328.00,7.325
329.00,8.097
330.00,8.932
331.00,9.617
332.00,10.599
333.00,11.502
334.00,12.358
335.00,13.261
336.00,14.160
337.00,15.040
338.00,15.861
339.00,16.653
340.00,17.504
341.00,18.316
342.00,19.041
343.00,19.841
344.00,20.550
345.00,21.226
346.00,21.826
347.00,22.455
348.00,23.033
349.00,23.585
350.00,24.072
351.00,24.624
352.00,25.094
353.00,25.551
354.00,25.931
355.00,26.215
356.00,26.763
357.00,27.088
358.00,27.419
359.00,27.744
360.00,28.011
361.00,28.229
362.00,28.492
363.00,28.757
364.00,28.977
365.00,29.158
366.00,29.342
367.00,29.449
368.00,29.656
369.00,29.691
370.00,29.804
371.00,29.874
372.00,29.959
373.00,29.989
374.00,30.047
375.00,30.024
376.00,30.001
377.00,30.018
378.00,29.979
379.00,29.939
380.00,29.938
381.00,29.969
382.00,29.991
383.00,30.057
384.00,30.131
385.00,30.199
386.00,30.284
387.00,30.376
388.00,30.425
389.00,30.537
390.00,30.569
391.00,30.695
392.00,30.692
393.00,30.696
394.00,30.820
395.00,30.805
396.00,30.832
397.00,30.832
398.00,30.936
399.00,30.925
400.00,30.971
401.00,30.967
402.00,30.998
403.00,30.993
404.00,31.107
405.00,31.045
406.00,31.004
407.00,30.977
408.00,31.001
409.00,30.930
410.00,30.894
411.00,30.863
412.00,30.868
413.00,30.875
414.00,30.899
415.00,30.868
416.00,30.883
417.00,30.920
418.00,30.986
419.00,31.008
420.00,31.003
421.00,31.094
422.00,31.147
423.00,31.165
424.00,31.147
425.00,31.195
426.00,31.085
427.00,31.284
428.00,31.356
429.00,31.369
430.00,31.390
431.00,31.446
432.00,31.492
433.00,31.542
434.00,31.581
435.00,31.610
436.00,31.658
437.00,31.722
438.00,31.775
439.00,31.853
440.00,31.907
441.00,31.871
442.00,32.068
443.00,32.096
444.00,32.145
445.00,32.197
446.00,32.305
447.00,32.406
448.00,32.467
449.00,32.550
450.00,32.650
451.00,32.742
452.00,32.812
453.00,32.873
454.00,32.891
455.00,33.144
456.00,33.204
457.00,33.309
458.00,33.368
459.00,33.459
460.00,33.607
461.00,33.676
462.00,33.794
463.00,33.877
464.00,34.015
465.00,34.061
466.00,34.153
467.00,34.263
468.00,34.363
469.00,34.483
470.00,34.570
471.00,34.616
472.00,34.719
473.00,34.740
474.00,34.803
475.00,34.955
476.00,35.034
477.00,35.158
478.00,35.239
479.00,35.406
480.00,35.539
481.00,35.561
482.00,35.686
483.00,35.790
484.00,35.875
485.00,36.079
486.00,36.171
487.00,36.293
488.00,36.382
489.00,36.557
490.00,36.608
491.00,36.798
492.00,36.986
493.00,37.064
494.00,37.040
495.00,37.150
496.00,37.278
497.00,37.354
498.00,37.480
499.00,37.619
500.00,37.626
501.00,37.653
502.00,37.904
503.00,37.995
504.00,38.099
505.00,38.191
506.00,38.309
507.00,38.344
508.00,38.432
509.00,38.555
510.00,38.652
511.00,38.759
512.00,38.873
513.00,38.973
514.00,39.132
515.00,39.141
516.00,39.226
517.00,39.363
518.00,39.483
519.00,39.517
520.00,39.611
521.00,39.638
522.00,39.731
523.00,39.787
524.00,39.842
525.00,39.937
526.00,39.994
527.00,40.143
528.00,40.205
529.00,40.279
530.00,40.329
531.00,40.522
532.00,40.589
533.00,40.624
534.00,40.700
535.00,40.756
536.00,40.866
537.00,40.873
538.00,40.964
539.00,40.995
540.00,40.994
541.00,41.206
542.00,41.170
543.00,41.211
544.00,41.290
545.00,41.303
546.00,41.487
547.00,41.547
548.00,41.583
549.00,41.628
550.00,41.746
551.00,41.833
552.00,41.866
553.00,41.937
554.00,41.979
555.00,42.011
556.00,42.093
557.00,42.134
558.00,42.082
559.00,42.205
560.00,42.301
561.00,42.503
562.00,42.507
563.00,42.507
564.00,42.576
565.00,42.583
566.00,42.629
567.00,42.641
568.00,42.647
569.00,42.694
570.00,42.714
571.00,42.808
572.00,42.808
573.00,42.851
574.00,42.945
575.00,42.940
576.00,42.958
577.00,42.986
578.00,43.081
579.00,43.106
580.00,43.202
581.00,43.360
582.00,43.345
583.00,43.461
584.00,43.521
585.00,43.548
586.00,43.590
587.00,43.652
588.00,43.644
589.00,43.592
590.00,43.600
591.00,43.698
592.00,43.778
593.00,43.844
594.00,43.942
595.00,43.925
596.00,43.981
597.00,43.989
598.00,44.099
599.00,44.101
600.00,44.176
601.00,44.200
602.00,44.192
603.00,44.274
604.00,44.227
605.00,44.248
606.00,44.367
607.00,44.514
608.00,44.583
609.00,44.527
610.00,44.511
611.00,44.576
612.00,44.631
613.00,44.575
614.00,44.648
615.00,44.679
616.00,44.787
617.00,44.812
618.00,44.824
619.00,44.898
620.00,44.854
621.00,44.927
622.00,44.967
623.00,45.071
624.00,45.107
625.00,45.131
626.00,45.213
627.00,45.204
628.00,45.261
629.00,45.285
630.00,45.277
631.00,45.358
632.00,45.337
633.00,45.451
634.00,45.455
635.00,45.568
636.00,45.688
637.00,45.690
638.00,45.748
639.00,45.732
640.00,45.725
641.00,45.838
642.00,45.855
643.00,45.932
644.00,45.959
645.00,46.040
646.00,46.096
647.00,46.119
648.00,46.199
649.00,46.219
650.00,46.188
651.00,46.298
652.00,46.342
653.00,46.383
654.00,46.396
655.00,46.445
656.00,46.521
657.00,46.953
658.00,46.690
659.00,45.748
660.00,46.766
661.00,46.716
662.00,46.922
663.00,46.847
664.00,47.057
665.00,47.114
666.00,47.050
667.00,47.229
668.00,47.282
669.00,47.314
670.00,47.383
671.00,47.196
672.00,47.344
673.00,47.517
674.00,47.560
675.00,47.574
676.00,47.670
677.00,47.751
678.00,47.585
679.00,47.709
680.00,47.740
681.00,47.790
682.00,47.896
683.00,47.903
684.00,48.051
685.00,47.949
686.00,47.929
687.00,48.082
688.00,48.166
689.00,48.224
690.00,48.314
691.00,48.353
692.00,48.217
693.00,48.206
694.00,48.369
695.00,48.442
696.00,48.483
697.00,48.413
698.00,48.627
699.00,48.631
700.00,48.637
701.00,48.699
702.00,48.882
703.00,48.795
704.00,48.804
705.00,48.925
706.00,48.891
707.00,49.000
708.00,48.875
709.00,49.029
710.00,49.259
711.00,48.996
712.00,49.024
713.00,49.170
714.00,49.068
715.00,49.185
716.00,49.074
717.00,49.111
718.00,49.312
719.00,49.260
720.00,49.233
721.00,53.585
722.00,53.558
723.00,53.516
724.00,53.530
725.00,53.500
726.00,53.504
727.00,53.494
728.00,53.501
729.00,53.558
730.00,53.432
731.00,53.451
732.00,53.471
733.00,53.453
734.00,53.428
735.00,53.450
736.00,53.487
737.00,53.437
738.00,53.455
739.00,53.466
740.00,53.402
741.00,53.403
742.00,53.451
743.00,53.423
744.00,53.318
745.00,53.345
746.00,53.282
747.00,53.212
748.00,53.229
749.00,53.247
750.00,53.190
751.00,53.173
752.00,53.198
753.00,53.141
754.00,53.226
755.00,53.121
756.00,53.176
757.00,53.036
758.00,53.106
759.00,53.077
760.00,53.049
761.00,53.119
762.00,52.942
763.00,53.055
764.00,53.073
765.00,52.994
766.00,53.076
767.00,53.017
768.00,52.985
769.00,52.924
770.00,53.034
771.00,52.969
772.00,52.977
773.00,52.932
774.00,52.922
775.00,52.983
776.00,52.941
777.00,52.920
778.00,52.904
779.00,52.983
780.00,52.908
781.00,52.805
782.00,52.861
783.00,52.824
784.00,52.791
785.00,52.799
786.00,52.777
787.00,52.751
788.00,52.686
789.00,52.730
790.00,52.614
791.00,52.673
792.00,52.576
793.00,52.665
794.00,52.575
795.00,52.589
796.00,52.554
797.00,52.471
798.00,52.504
799.00,52.419
800.00,52.459
801.00,52.434
802.00,52.354
803.00,52.380
804.00,52.357
805.00,52.326
806.00,52.270
807.00,52.304
808.00,52.258
809.00,52.238
810.00,52.242
811.00,52.160
812.00,52.113
813.00,52.090
814.00,52.082
815.00,52.135
816.00,52.090
817.00,52.075
818.00,51.993
819.00,51.948
820.00,51.982
821.00,51.895
822.00,51.947
823.00,51.841
824.00,51.909
825.00,51.857
826.00,51.901
827.00,51.951
828.00,51.832
829.00,51.832
830.00,51.915
831.00,54.321
832.00,54.316
833.00,54.286
834.00,54.262
835.00,54.235
836.00,54.240
837.00,54.178
838.00,54.164
839.00,54.164
840.00,54.123
841.00,54.113
842.00,54.078
843.00,54.094
844.00,54.037
845.00,53.966
846.00,53.984
847.00,54.000
848.00,53.933
849.00,53.891
850.00,53.872
851.00,53.778
852.00,53.805
853.00,53.719
854.00,53.695
855.00,53.652
856.00,53.639
857.00,53.609
858.00,53.586
859.00,53.514
860.00,53.508
861.00,53.467
862.00,53.475
863.00,53.441
864.00,53.437
865.00,53.465
866.00,53.396
867.00,53.416
868.00,53.372
869.00,53.417
870.00,53.357
871.00,53.349
872.00,53.322
873.00,53.324
874.00,53.274
875.00,53.310
876.00,53.279
877.00,53.412
878.00,53.235
879.00,53.244
880.00,53.206
881.00,53.177
882.00,53.216
883.00,53.186
884.00,53.143
885.00,53.108
886.00,53.117
887.00,53.064
888.00,53.056
889.00,53.039
890.00,53.024
891.00,52.986
892.00,52.967
893.00,52.944
894.00,52.934
895.00,52.910
896.00,52.878
897.00,52.876
898.00,52.834
899.00,52.824
900.00,52.827
901.00,52.811
902.00,52.790
903.00,52.750
904.00,52.745
905.00,52.779
906.00,52.668
907.00,52.705
908.00,52.693
909.00,52.657
910.00,52.617
911.00,52.633
912.00,52.631
913.00,52.554
914.00,52.540
915.00,52.511
916.00,52.461
917.00,52.563
918.00,52.468
919.00,52.428
920.00,52.391
921.00,52.371
922.00,52.380
923.00,52.346
924.00,52.324
925.00,52.314
926.00,52.309
927.00,52.273
928.00,52.294
929.00,52.267
930.00,52.273
931.00,52.256
932.00,52.294
933.00,52.176
934.00,52.129
935.00,52.139
936.00,52.118
937.00,52.080
938.00,52.065
939.00,52.062
940.00,52.027
941.00,52.031
942.00,51.975
943.00,51.981
944.00,51.941
945.00,51.946
946.00,51.919
947.00,51.905
948.00,51.867
949.00,51.840
950.00,51.825
951.00,51.799
952.00,51.770
953.00,51.753
954.00,51.732
955.00,51.695
956.00,51.682
957.00,51.643
958.00,51.654
959.00,51.602
960.00,51.597
961.00,51.568
962.00,51.554
963.00,51.553
964.00,51.533
965.00,51.502
966.00,51.495
967.00,51.507
968.00,51.483
969.00,51.496
970.00,51.469
971.00,51.478
972.00,51.448
973.00,51.470
974.00,51.478
975.00,51.467
976.00,51.480
977.00,51.429
978.00,51.554
979.00,51.437
980.00,51.488
981.00,51.469
982.00,51.448
983.00,51.446
984.00,51.425
985.00,51.451
986.00,51.400
987.00,51.407
988.00,51.389
989.00,51.385
990.00,51.378
991.00,51.355
992.00,51.380
993.00,51.342
994.00,51.331
995.00,51.324
996.00,51.288
997.00,51.300
998.00,51.271
999.00,51.281
1000.00,51.227
1001.00,51.254
1002.00,51.229
1003.00,51.217
1004.00,51.196
1005.00,51.169
1006.00,51.195
1007.00,51.142
1008.00,51.153
1009.00,51.134
1010.00,51.117
1011.00,51.114
1012.00,51.070
1013.00,51.083
1014.00,51.046
1015.00,51.065
1016.00,51.026
1017.00,51.016
1018.00,51.015
1019.00,50.982
1020.00,50.960
1021.00,50.943
1022.00,50.949
1023.00,50.894
1024.00,50.904
1025.00,50.890
1026.00,50.867
1027.00,50.850
1028.00,50.843
1029.00,50.834
1030.00,50.815
1031.00,50.814
1032.00,50.762
1033.00,50.764
1034.00,50.731
1035.00,50.698
1036.00,50.681
1037.00,50.671
1038.00,50.654
1039.00,50.624
1040.00,50.628
1041.00,50.590
1042.00,50.596
1043.00,50.560
1044.00,50.591
1045.00,50.580
1046.00,50.568
1047.00,50.571
1048.00,50.578
1049.00,50.593
1050.00,50.599
1051.00,50.632
1052.00,50.636
1053.00,50.632
1054.00,50.624
1055.00,50.651
1056.00,50.656
1057.00,50.662
1058.00,50.643
1059.00,50.630
1060.00,50.638
1061.00,50.634
1062.00,50.617
1063.00,50.630
1064.00,50.601
1065.00,50.611
1066.00,50.580
1067.00,50.596
1068.00,50.602
1069.00,50.563
1070.00,50.557
1071.00,50.515
1072.00,50.548
1073.00,50.512
1074.00,50.520
1075.00,50.496
1076.00,50.478
1077.00,50.484
1078.00,50.470
1079.00,50.453
1080.00,50.459
1081.00,50.432
1082.00,50.429
1083.00,50.411
1084.00,50.432
1085.00,50.433
1086.00,50.395
1087.00,50.375
1088.00,50.375
1089.00,50.365
1090.00,50.366
1091.00,50.365
1092.00,50.347
1093.00,50.323
1094.00,50.316
1095.00,50.304
1096.00,50.295
1097.00,50.286
1098.00,50.279
1099.00,50.269
1100.00,50.259
1101.00,50.240
1102.00,50.251
1103.00,50.244
1104.00,50.241
1105.00,50.222
1106.00,50.208
1107.00,50.202
1108.00,50.201
1109.00,50.190
1110.00,50.198
1111.00,50.187
1112.00,50.171
1113.00,50.159
1114.00,50.150
1115.00,50.132
1116.00,50.133
1117.00,50.110
1118.00,50.096
1119.00,50.088
1120.00,50.084
1121.00,50.085
1122.00,50.077
1123.00,50.052
1124.00,50.065
1125.00,50.032
1126.00,50.037
1127.00,50.015
1128.00,50.003
1129.00,49.988
1130.00,49.996
1131.00,49.962
1132.00,49.955
1133.00,49.981
1134.00,49.969
1135.00,49.955
1136.00,49.957
1137.00,49.961
1138.00,49.973
1139.00,49.964
1140.00,49.964
1141.00,49.951
1142.00,49.936
1143.00,49.939
1144.00,49.931
1145.00,49.939
1146.00,49.967
1147.00,49.906
1148.00,49.915
1149.00,49.930
1150.00,49.934
1151.00,49.934
1152.00,49.908
1153.00,49.901
1154.00,49.899
1155.00,49.895
1156.00,49.894
1157.00,49.897
1158.00,49.877
1159.00,49.890
1160.00,49.874
1161.00,49.869
1162.00,49.866
1163.00,49.871
1164.00,49.857
1165.00,49.860
1166.00,49.864
1167.00,49.858
1168.00,49.878
1169.00,49.855
1170.00,49.864
1171.00,49.837
1172.00,49.837
1173.00,49.841
1174.00,49.837
1175.00,49.819
1176.00,49.829
1177.00,49.823
1178.00,49.815
1179.00,49.827
1180.00,49.811
1181.00,49.832
1182.00,49.834
1183.00,49.813
1184.00,49.803
1185.00,49.821
1186.00,49.796
1187.00,49.817
1188.00,49.806
1189.00,49.805
1190.00,49.794
1191.00,49.793
1192.00,49.816
1193.00,49.787
1194.00,49.802
1195.00,49.775
1196.00,49.810
1197.00,49.804
1198.00,49.798
1199.00,49.803
1200.00,49.792
1201.00,49.799
1202.00,49.782
1203.00,49.777
1204.00,49.762
1205.00,49.773
1206.00,49.779
1207.00,49.789
1208.00,49.758
1209.00,49.760
1210.00,49.775
1211.00,49.765
1212.00,49.793
1213.00,49.753
1214.00,49.768
1215.00,49.761
1216.00,49.762
1217.00,49.776
1218.00,49.753
1219.00,49.759
1220.00,49.759
1221.00,49.765
1222.00,49.755
1223.00,49.766
1224.00,49.756
1225.00,49.742
1226.00,49.747
1227.00,49.753
1228.00,49.766
1229.00,49.760
1230.00,49.797
1231.00,49.800
1232.00,49.805
1233.00,49.795
1234.00,49.807
1235.00,49.797
1236.00,49.795
1237.00,49.787
1238.00,49.794
1239.00,49.803
1240.00,49.801
1241.00,49.802
1242.00,49.803
1243.00,49.820
1244.00,49.786
1245.00,49.823
1246.00,49.820
1247.00,49.815
1248.00,49.810
1249.00,49.806
1250.00,49.820
1251.00,49.812
1252.00,49.840
1253.00,49.844
1254.00,49.833
1255.00,49.822
1256.00,49.820
1257.00,49.789
1258.00,49.849
1259.00,49.843
1260.00,49.863
1261.00,49.854
1262.00,49.845
1263.00,49.833
1264.00,49.852
1265.00,49.848
1266.00,49.861
1267.00,49.885
1268.00,49.879
1269.00,49.870
1270.00,49.887
1271.00,49.889
1272.00,49.901
1273.00,49.901
1274.00,49.889
1275.00,49.895
1276.00,49.909
1277.00,49.908
1278.00,49.922
1279.00,49.904
1280.00,49.923
1281.00,49.933
1282.00,49.935
1283.00,49.924
1284.00,49.927
1285.00,49.902
1286.00,49.934
1287.00,49.928
1288.00,49.929
1289.00,49.925
1290.00,49.951
1291.00,49.954
1292.00,49.964
1293.00,49.965
1294.00,49.968
1295.00,49.978
1296.00,49.973
1297.00,49.979
1298.00,49.996
1299.00,49.966
1300.00,49.994
1301.00,49.987
1302.00,49.994
1303.00,50.006
1304.00,49.995
1305.00,50.020
1306.00,50.026
1307.00,50.031
1308.00,50.038
1309.00,50.032
1310.00,50.028
1311.00,50.017
1312.00,50.014
1313.00,50.016
1314.00,50.042
1315.00,50.040
1316.00,50.046
1317.00,50.050
1318.00,50.052
1319.00,50.049
1320.00,50.087
1321.00,50.243
1322.00,50.261
1323.00,50.242
1324.00,50.259
1325.00,50.238
1326.00,50.234
1327.00,50.217
1328.00,50.249
1329.00,50.226
1330.00,50.233
1331.00,50.225
1332.00,50.235
1333.00,50.229
1334.00,50.260
1335.00,50.275
1336.00,50.300
1337.00,50.313
1338.00,50.394
1339.00,50.432
1340.00,50.485
1341.00,50.539
1342.00,50.611
1343.00,50.672
1344.00,50.708
1345.00,50.779
1346.00,50.832
1347.00,50.857
1348.00,50.857
1349.00,50.890
1350.00,50.893
1351.00,50.904
1352.00,50.928
1353.00,50.922
1354.00,50.939
1355.00,50.904
1356.00,50.941
1357.00,50.913
1358.00,50.971
1359.00,50.962
1360.00,51.009
1361.00,50.963
1362.00,50.940
1363.00,51.015
1364.00,50.974
1365.00,50.967
1366.00,51.019
1367.00,50.963
1368.00,50.916
1369.00,50.981
1370.00,50.935
1371.00,50.859
1372.00,50.909
1373.00,50.900
1374.00,50.944
1375.00,50.909
1376.00,50.911
1377.00,50.907
1378.00,51.021
1379.00,50.944
1380.00,50.932
1381.00,50.914
1382.00,50.911
1383.00,50.909
1384.00,50.789
1385.00,50.841
1386.00,50.922
1387.00,50.787
1388.00,50.890
1389.00,51.150
1390.00,50.983
1391.00,50.814
1392.00,50.908
1393.00,51.094
1394.00,50.834
1395.00,50.802
1396.00,50.818
1397.00,51.053
1398.00,51.097
1399.00,50.829
1400.00,50.738
1401.00,50.934
1402.00,51.129
1403.00,50.795
1404.00,50.888
1405.00,50.949
1406.00,50.935
1407.00,50.995
1408.00,50.830
1409.00,50.891
1410.00,50.964
1411.00,51.018
1412.00,51.059
1413.00,50.834
1414.00,50.890
1415.00,51.016
1416.00,51.033
1417.00,51.057
1418.00,50.980
1419.00,50.943
1420.00,51.057
1421.00,51.099
1422.00,51.057
1423.00,51.052
1424.00,51.098
1425.00,51.089
1426.00,51.118
1427.00,51.112
1428.00,51.128
1429.00,51.164
1430.00,51.147
1431.00,51.164
1432.00,51.191
1433.00,51.201
1434.00,51.206
1435.00,51.264
1436.00,51.240
1437.00,51.236
1438.00,51.263
1439.00,51.290
1440.00,51.290
1441.00,51.293
1442.00,51.298
1443.00,51.372
1444.00,51.379
1445.00,51.343
1446.00,51.355
1447.00,51.403
1448.00,51.446
1449.00,51.448
1450.00,51.408
1451.00,51.447
1452.00,51.448
1453.00,51.488
1454.00,51.483
1455.00,51.500
1456.00,51.529
1457.00,51.541
1458.00,51.542
1459.00,51.567
1460.00,51.576
1461.00,51.592
1462.00,51.619
1463.00,51.615
1464.00,51.632
1465.00,51.646
1466.00,51.641
1467.00,51.678
1468.00,51.704
1469.00,51.690
1470.00,51.723
1471.00,51.743
1472.00,51.732
1473.00,51.742
1474.00,51.774
1475.00,51.785
1476.00,51.807
1477.00,51.788
1478.00,51.815
1479.00,51.828
1480.00,51.830
1481.00,51.843
1482.00,51.864
1483.00,51.868
1484.00,51.876
1485.00,51.882
1486.00,51.902
1487.00,51.924
1488.00,51.914
1489.00,51.933
1490.00,51.967
1491.00,51.951
1492.00,51.979
1493.00,51.978
1494.00,51.983
1495.00,51.998
1496.00,51.997
1497.00,52.016
1498.00,52.017
1499.00,52.038
1500.00,52.078
1501.00, 
1502.00, 
1503.00, 
1504.00, 
1505.00, 
1506.00, 
1507.00, 
1508.00, 
1509.00, 
1510.00, 
1511.00, 
1512.00, 
1513.00, 
1514.00, 
1515.00, 
1516.00, 
1517.00, 
1518.00, 
1519.00, 
1520.00, 
1521.00, 
1522.00, 
1523.00, 
1524.00, 
1525.00, 
1526.00, 
1527.00, 
1528.00, 
1529.00, 
1530.00, 
1531.00, 
1532.00, 
1533.00, 
1534.00, 
1535.00, 
1536.00, 
1537.00, 
1538.00, 
1539.00, 
1540.00, 
1541.00, 
1542.00, 
1543.00, 
1544.00, 
1545.00, 
1546.00, 
1547.00, 
1548.00, 
1549.00, 
1550.00, 
1551.00, 
1552.00, 
1553.00, 
1554.00, 
1555.00, 
1556.00, 
1557.00, 
1558.00, 
1559.00, 
1560.00, 
1561.00, 
1562.00, 
1563.00, 
1564.00, 
1565.00, 
1566.00, 
1567.00, 
1568.00, 
1569.00, 
1570.00, 
1571.00, 
1572.00, 
1573.00, 
1574.00, 
1575.00, 
1576.00, 
1577.00, 
1578.00, 
1579.00, 
1580.00, 
1581.00, 
1582.00, 
1583.00, 
1584.00, 
1585.00, 
1586.00, 
1587.00, 
1588.00, 
1589.00, 
1590.00, 
1591.00, 
1592.00, 
1593.00, 
1594.00, 
1595.00, 
1596.00, 
1597.00, 
1598.00, 
1599.00, 
1600.00, 
1601.00, 
1602.00, 
1603.00, 
1604.00, 
1605.00, 
1606.00, 
1607.00, 
1608.00, 
1609.00, 
1610.00, 
1611.00, 
1612.00, 
1613.00, 
1614.00, 
1615.00, 
1616.00, 
1617.00, 
1618.00, 
1619.00, 
1620.00, 
1621.00, 
1622.00, 
1623.00, 
1624.00, 
1625.00, 
1626.00, 
1627.00, 
1628.00, 
1629.00, 
1630.00, 
1631.00, 
1632.00, 
1633.00, 
1634.00, 
1635.00, 
1636.00, 
1637.00, 
1638.00, 
1639.00, 
1640.00, 
1641.00, 
1642.00, 
1643.00, 
1644.00, 
1645.00, 
1646.00, 
1647.00, 
1648.00, 
1649.00, 
1650.00, 
1651.00, 
1652.00, 
1653.00, 
1654.00, 
1655.00, 
1656.00, 
1657.00, 
1658.00, 
1659.00, 
1660.00, 
1661.00, 
1662.00, 
1663.00, 
1664.00, 
1665.00, 
1666.00, 
1667.00, 
1668.00, 
1669.00, 
1670.00, 
1671.00, 
1672.00, 
1673.00, 
1674.00, 
1675.00, 
1676.00, 
1677.00, 
1678.00, 
1679.00, 
1680.00, 
1681.00, 
1682.00, 
1683.00, 
1684.00, 
1685.00, 
1686.00, 
1687.00, 
1688.00, 
1689.00, 
1690.00, 
1691.00, 
1692.00, 
1693.00, 
1694.00, 
1695.00, 
1696.00, 
1697.00, 
1698.00, 
1699.00, 
1700.00, 
1701.00, 
1702.00, 
1703.00, 
1704.00, 
1705.00, 
1706.00, 
1707.00, 
1708.00, 
1709.00, 
1710.00, 
1711.00, 
1712.00, 
1713.00, 
1714.00, 
1715.00, 
1716.00, 
1717.00, 
1718.00, 
1719.00, 
1720.00, 
1721.00, 
1722.00, 
1723.00, 
1724.00, 
1725.00, 
1726.00, 
1727.00, 
1728.00, 
1729.00, 
1730.00, 
1731.00, 
1732.00, 
1733.00, 
1734.00, 
1735.00, 
1736.00, 
1737.00, 
1738.00, 
1739.00, 
1740.00, 
1741.00, 
1742.00, 
1743.00, 
1744.00, 
1745.00, 
1746.00, 
1747.00, 
1748.00, 
1749.00, 
1750.00, 
1751.00, 
1752.00, 
1753.00, 
1754.00, 
1755.00, 
1756.00, 
1757.00, 
1758.00, 
1759.00, 
1760.00, 
1761.00, 
1762.00, 
1763.00, 
1764.00, 
1765.00, 
1766.00, 
1767.00, 
1768.00, 
1769.00, 
1770.00, 
1771.00, 
1772.00, 
1773.00, 
1774.00, 
1775.00, 
1776.00, 
1777.00, 
1778.00, 
1779.00, 
1780.00, 
1781.00, 
1782.00, 
1783.00, 
1784.00, 
1785.00, 
1786.00, 
1787.00, 
1788.00, 
1789.00, 
1790.00, 
1791.00, 
1792.00, 
1793.00, 
1794.00, 
1795.00, 
1796.00, 
1797.00, 
1798.00, 
1799.00, 
1800.00, 
1801.00, 
1802.00, 
1803.00, 
1804.00, 
1805.00, 
1806.00, 
1807.00, 
1808.00, 
1809.00, 
1810.00, 
1811.00, 
1812.00, 
1813.00, 
1814.00, 
1815.00, 
1816.00, 
1817.00, 
1818.00, 
1819.00, 
1820.00, 
1821.00, 
1822.00, 
1823.00, 
1824.00, 
1825.00, 
1826.00, 
1827.00, 
1828.00, 
1829.00, 
1830.00, 
1831.00, 
1832.00, 
1833.00, 
1834.00, 
1835.00, 
1836.00, 
1837.00, 
1838.00, 
1839.00, 
1840.00, 
1841.00, 
1842.00, 
1843.00, 
1844.00, 
1845.00, 
1846.00, 
1847.00, 
1848.00, 
1849.00, 
1850.00, 
1851.00, 
1852.00, 
1853.00, 
1854.00, 
1855.00, 
1856.00, 
1857.00, 
1858.00, 
1859.00, 
1860.00, 
1861.00, 
1862.00, 
1863.00, 
1864.00, 
1865.00, 
1866.00, 
1867.00, 
1868.00, 
1869.00, 
1870.00, 
1871.00, 
1872.00, 
1873.00, 
1874.00, 
1875.00, 
1876.00, 
1877.00, 
1878.00, 
1879.00, 
1880.00, 
1881.00, 
1882.00, 
1883.00, 
1884.00, 
1885.00, 
1886.00, 
1887.00, 
1888.00, 
1889.00, 
1890.00, 
1891.00, 
1892.00, 
1893.00, 
1894.00, 
1895.00, 
1896.00, 
1897.00, 
1898.00, 
1899.00, 
1900.00, 
1901.00, 
1902.00, 
1903.00, 
1904.00, 
1905.00, 
1906.00, 
1907.00, 
1908.00, 
1909.00, 
1910.00, 
1911.00, 
1912.00, 
1913.00, 
1914.00, 
1915.00, 
1916.00, 
1917.00, 
1918.00, 
1919.00, 
1920.00, 
1921.00, 
1922.00, 
1923.00, 
1924.00, 
1925.00, 
1926.00, 
1927.00, 
1928.00, 
1929.00, 
1930.00, 
1931.00, 
1932.00, 
1933.00, 
1934.00, 
1935.00, 
1936.00, 
1937.00, 
1938.00, 
1939.00, 
1940.00, 
1941.00, 
1942.00, 
1943.00, 
1944.00, 
1945.00, 
1946.00, 
1947.00, 
1948.00, 
1949.00, 
1950.00, 
1951.00, 
1952.00, 
1953.00, 
1954.00, 
1955.00, 
1956.00, 
1957.00, 
1958.00, 
1959.00, 
1960.00, 
1961.00, 
1962.00, 
1963.00, 
1964.00, 
1965.00, 
1966.00, 
1967.00, 
1968.00, 
1969.00, 
1970.00, 
1971.00, 
1972.00, 
1973.00, 
1974.00, 
1975.00, 
1976.00, 
1977.00, 
1978.00, 
1979.00, 
1980.00, 
1981.00, 
1982.00, 
1983.00, 
1984.00, 
1985.00, 
1986.00, 
1987.00, 
1988.00, 
1989.00, 
1990.00, 
1991.00, 
1992.00, 
1993.00, 
1994.00, 
1995.00, 
1996.00, 
1997.00, 
1998.00, 
1999.00, 
2000.00, 
2001.00, 
2002.00, 
2003.00, 
2004.00, 
2005.00, 
2006.00, 
2007.00, 
2008.00, 
2009.00, 
2010.00, 
2011.00, 
2012.00, 
2013.00, 
2014.00, 
2015.00, 
2016.00, 
2017.00, 
2018.00, 
2019.00, 
2020.00, 
2021.00, 
2022.00, 
2023.00, 
2024.00, 
2025.00, 
2026.00, 
2027.00, 
2028.00, 
2029.00, 
2030.00, 
2031.00, 
2032.00, 
2033.00, 
2034.00, 
2035.00, 
2036.00, 
2037.00, 
2038.00, 
2039.00, 
2040.00, 
2041.00, 
2042.00, 
2043.00, 
2044.00, 
2045.00, 
2046.00, 
2047.00, 
2048.00, 
2049.00, 
2050.00, 
2051.00, 
2052.00, 
2053.00, 
2054.00, 
2055.00, 
2056.00, 
2057.00, 
2058.00, 
2059.00, 
2060.00, 
2061.00, 
2062.00, 
2063.00, 
2064.00, 
2065.00, 
2066.00, 
2067.00, 
2068.00, 
2069.00, 
2070.00, 
2071.00, 
2072.00, 
2073.00, 
2074.00, 
2075.00, 
2076.00, 
2077.00, 
2078.00, 
2079.00, 
2080.00, 
2081.00, 
2082.00, 
2083.00, 
2084.00, 
2085.00, 
2086.00, 
2087.00, 
2088.00, 
2089.00, 
2090.00, 
2091.00, 
2092.00, 
2093.00, 
2094.00, 
2095.00, 
2096.00, 
2097.00, 
2098.00, 
2099.00, 
2100.00, 
2101.00, 
2102.00, 
2103.00, 
2104.00, 
2105.00, 
2106.00, 
2107.00, 
2108.00, 
2109.00, 
2110.00, 
2111.00, 
2112.00, 
2113.00, 
2114.00, 
2115.00, 
2116.00, 
2117.00, 
2118.00, 
2119.00, 
2120.00, 
2121.00, 
2122.00, 
2123.00, 
2124.00, 
2125.00, 
2126.00, 
2127.00, 
2128.00, 
2129.00, 
2130.00, 
2131.00, 
2132.00, 
2133.00, 
2134.00, 
2135.00, 
2136.00, 
2137.00, 
2138.00, 
2139.00, 
2140.00, 
2141.00, 
2142.00, 
2143.00, 
2144.00, 
2145.00, 
2146.00, 
2147.00, 
2148.00, 
2149.00, 
2150.00, 
2151.00, 
2152.00, 
2153.00, 
2154.00, 
2155.00, 
2156.00, 
2157.00, 
2158.00, 
2159.00, 
2160.00, 
2161.00, 
2162.00, 
2163.00, 
2164.00, 
2165.00, 
2166.00, 
2167.00, 
2168.00, 
2169.00, 
2170.00, 
2171.00, 
2172.00, 
2173.00, 
2174.00, 
2175.00, 
2176.00, 
2177.00, 
2178.00, 
2179.00, 
2180.00, 
2181.00, 
2182.00, 
2183.00, 
2184.00, 
2185.00, 
2186.00, 
2187.00, 
2188.00, 
2189.00, 
2190.00, 
2191.00, 
2192.00, 
2193.00, 
2194.00, 
2195.00, 
2196.00, 
2197.00, 
2198.00, 
2199.00, 
2200.00, 
2201.00, 
2202.00, 
2203.00, 
2204.00, 
2205.00, 
2206.00, 
2207.00, 
2208.00, 
2209.00, 
2210.00, 
2211.00, 
2212.00, 
2213.00, 
2214.00, 
2215.00, 
2216.00, 
2217.00, 
2218.00, 
2219.00, 
2220.00, 
2221.00, 
2222.00, 
2223.00, 
2224.00, 
2225.00, 
2226.00, 
2227.00, 
2228.00, 
2229.00, 
2230.00, 
2231.00, 
2232.00, 
2233.00, 
2234.00, 
2235.00, 
2236.00, 
2237.00, 
2238.00, 
2239.00, 
2240.00, 
2241.00, 
2242.00, 
2243.00, 
2244.00, 
2245.00, 
2246.00, 
2247.00, 
2248.00, 
2249.00, 
2250.00, 
2251.00, 
2252.00, 
2253.00, 
2254.00, 
2255.00, 
2256.00, 
2257.00, 
2258.00, 
2259.00, 
2260.00, 
2261.00, 
2262.00, 
2263.00, 
2264.00, 
2265.00, 
2266.00, 
2267.00, 
2268.00, 
2269.00, 
2270.00, 
2271.00, 
2272.00, 
2273.00, 
2274.00, 
2275.00, 
2276.00, 
2277.00, 
2278.00, 
2279.00, 
2280.00, 
2281.00, 
2282.00, 
2283.00, 
2284.00, 
2285.00, 
2286.00, 
2287.00, 
2288.00, 
2289.00, 
2290.00, 
2291.00, 
2292.00, 
2293.00, 
2294.00, 
2295.00, 
2296.00, 
2297.00, 
2298.00, 
2299.00, 
2300.00, 
2301.00, 
2302.00, 
2303.00, 
2304.00, 
2305.00, 
2306.00, 
2307.00, 
2308.00, 
2309.00, 
2310.00, 
2311.00, 
2312.00, 
2313.00, 
2314.00, 
2315.00, 
2316.00, 
2317.00, 
2318.00, 
2319.00, 
2320.00, 
2321.00, 
2322.00, 
2323.00, 
2324.00, 
2325.00, 
2326.00, 
2327.00, 
2328.00, 
2329.00, 
2330.00, 
2331.00, 
2332.00, 
2333.00, 
2334.00, 
2335.00, 
2336.00, 
2337.00, 
2338.00, 
2339.00, 
2340.00, 
2341.00, 
2342.00, 
2343.00, 
2344.00, 
2345.00, 
2346.00, 
2347.00, 
2348.00, 
2349.00, 
2350.00, 
2351.00, 
2352.00, 
2353.00, 
2354.00, 
2355.00, 
2356.00, 
2357.00, 
2358.00, 
2359.00, 
2360.00, 
2361.00, 
2362.00, 
2363.00, 
2364.00, 
2365.00, 
2366.00, 
2367.00, 
2368.00, 
2369.00, 
2370.00, 
2371.00, 
2372.00, 
2373.00, 
2374.00, 
2375.00, 
2376.00, 
2377.00, 
2378.00, 
2379.00, 
2380.00, 
2381.00, 
2382.00, 
2383.00, 
2384.00, 
2385.00, 
2386.00, 
2387.00, 
2388.00, 
2389.00, 
2390.00, 
2391.00, 
2392.00, 
2393.00, 
2394.00, 
2395.00, 
2396.00, 
2397.00, 
2398.00, 
2399.00, 
2400.00, 
2401.00, 
2402.00, 
2403.00, 
2404.00, 
2405.00, 
2406.00, 
2407.00, 
2408.00, 
2409.00, 
2410.00, 
2411.00, 
2412.00, 
2413.00, 
2414.00, 
2415.00, 
2416.00, 
2417.00, 
2418.00, 
2419.00, 
2420.00, 
2421.00, 
2422.00, 
2423.00, 
2424.00, 
2425.00, 
2426.00, 
2427.00, 
2428.00, 
2429.00, 
2430.00, 
2431.00, 
2432.00, 
2433.00, 
2434.00, 
2435.00, 
2436.00, 
2437.00, 
2438.00, 
2439.00, 
2440.00, 
2441.00, 
2442.00, 
2443.00, 
2444.00, 
2445.00, 
2446.00, 
2447.00, 
2448.00, 
2449.00, 
2450.00, 
2451.00, 
2452.00, 
2453.00, 
2454.00, 
2455.00, 
2456.00, 
2457.00, 
2458.00, 
2459.00, 
2460.00, 
2461.00, 
2462.00, 
2463.00, 
2464.00, 
2465.00, 
2466.00, 
2467.00, 
2468.00, 
2469.00, 
2470.00, 
2471.00, 
2472.00, 
2473.00, 
2474.00, 
2475.00, 
2476.00, 
2477.00, 
2478.00, 
2479.00, 
2480.00, 
2481.00, 
2482.00, 
2483.00, 
2484.00, 
2485.00, 
2486.00, 
2487.00, 
2488.00, 
2489.00, 
2490.00, 
2491.00, 
2492.00, 
2493.00, 
2494.00, 
2495.00, 
2496.00, 
2497.00, 
2498.00, 
2499.00, 
2500.00, 
2501.00, 
2502.00, 
2503.00, 
2504.00, 
2505.00, 
2506.00, 
2507.00, 
2508.00, 
2509.00, 
2510.00, 
2511.00, 
2512.00, 
2513.00, 
2514.00, 
2515.00, 
2516.00, 
2517.00, 
2518.00, 
2519.00, 
2520.00, 
2521.00, 
2522.00, 
2523.00, 
2524.00, 
2525.00, 
2526.00, 
2527.00, 
2528.00, 
2529.00, 
2530.00, 
2531.00, 
2532.00, 
2533.00, 
2534.00, 
2535.00, 
2536.00, 
2537.00, 
2538.00, 
2539.00, 
2540.00, 
2541.00, 
2542.00, 
2543.00, 
2544.00, 
2545.00, 
2546.00, 
2547.00, 
2548.00, 
2549.00, 
2550.00, 
2551.00, 
2552.00, 
2553.00, 
2554.00, 
2555.00, 
2556.00, 
2557.00, 
2558.00, 
2559.00, 
2560.00, 
2561.00, 
2562.00, 
2563.00, 
2564.00, 
2565.00, 
2566.00, 
2567.00, 
2568.00, 
2569.00, 
2570.00, 
2571.00, 
2572.00, 
2573.00, 
2574.00, 
2575.00, 
2576.00, 
2577.00, 
2578.00, 
2579.00, 
2580.00, 
2581.00, 
2582.00, 
2583.00, 
2584.00, 
2585.00, 
2586.00, 
2587.00, 
2588.00, 
2589.00, 
2590.00, 
2591.00, 
2592.00, 
2593.00, 
2594.00, 
2595.00, 
2596.00, 
2597.00, 
2598.00, 
2599.00, 
2600.00, 
