"2cP4 - RawData"
"Wavelength nm.","T%"
200.00,0.002
201.00,-0.001
202.00,0.002
203.00,0.003
204.00,0.004
205.00,0.001
206.00,0.000
207.00,0.001
208.00,0.000
209.00,0.001
210.00,0.002
211.00,0.001
212.00,-0.000
213.00,0.002
214.00,-0.001
215.00,0.001
216.00,0.001
217.00,0.004
218.00,-0.002
219.00,0.001
220.00,0.002
221.00,-0.000
222.00,0.002
223.00,0.001
224.00,0.001
225.00,0.001
226.00,0.002
227.00,-0.001
228.00,0.002
229.00,0.002
230.00,0.002
231.00,-0.000
232.00,0.001
233.00,0.002
234.00,0.000
235.00,0.000
236.00,-0.001
237.00,-0.000
238.00,-0.001
239.00,0.000
240.00,0.002
241.00,0.000
242.00,0.000
243.00,0.001
244.00,0.001
245.00,-0.000
246.00,0.001
247.00,0.001
248.00,-0.000
249.00,0.000
250.00,-0.001
251.00,0.001
252.00,-0.001
253.00,-0.000
254.00,0.001
255.00,-0.000
256.00,0.002
257.00,0.001
258.00,-0.000
259.00,-0.001
260.00,0.001
261.00,0.001
262.00,0.001
263.00,-0.001
264.00,0.002
265.00,0.001
266.00,-0.000
267.00,0.001
268.00,0.000
269.00,-0.000
270.00,0.000
271.00,0.001
272.00,-0.001
273.00,0.001
274.00,-0.001
275.00,0.002
276.00,-0.001
277.00,0.001
278.00,0.000
279.00,-0.001
280.00,-0.000
281.00,0.002
282.00,-0.000
283.00,-0.000
284.00,0.001
285.00,-0.000
286.00,-0.000
287.00,-0.002
288.00,-0.001
289.00,-0.000
290.00,0.001
291.00,0.000
292.00,-0.000
293.00,0.001
294.00,0.001
295.00,0.001
296.00,-0.000
297.00,0.001
298.00,0.001
299.00,0.002
300.00,0.002
301.00,0.003
302.00,0.004
303.00,0.006
304.00,0.011
305.00,0.019
306.00,0.029
307.00,0.042
308.00,0.067
309.00,0.103
310.00,0.147
311.00,0.188
312.00,0.261
313.00,0.361
314.00,0.478
315.00,0.621
316.00,0.780
317.00,0.995
318.00,1.226
319.00,1.509
320.00,1.846
321.00,2.190
322.00,2.613
323.00,3.068
324.00,3.535
325.00,4.061
326.00,4.577
327.00,5.148
328.00,5.758
329.00,6.378
330.00,7.012
331.00,7.656
332.00,8.338
333.00,9.045
334.00,9.685
335.00,10.379
336.00,11.058
337.00,11.735
338.00,12.399
339.00,13.015
340.00,13.675
341.00,14.282
342.00,14.813
343.00,15.431
344.00,15.961
345.00,16.439
346.00,16.899
347.00,17.370
348.00,17.845
349.00,18.237
350.00,18.610
351.00,18.981
352.00,19.335
353.00,19.649
354.00,19.972
355.00,20.210
356.00,20.508
357.00,20.749
358.00,20.959
359.00,21.171
360.00,21.403
361.00,21.557
362.00,21.707
363.00,21.833
364.00,22.006
365.00,22.138
366.00,22.252
367.00,22.323
368.00,22.388
369.00,22.465
370.00,22.495
371.00,22.525
372.00,22.555
373.00,22.560
374.00,22.543
375.00,22.538
376.00,22.531
377.00,22.488
378.00,22.401
379.00,22.379
380.00,22.376
381.00,22.373
382.00,22.374
383.00,22.349
384.00,22.393
385.00,22.433
386.00,22.470
387.00,22.545
388.00,22.564
389.00,22.616
390.00,22.655
391.00,22.698
392.00,22.652
393.00,22.681
394.00,22.740
395.00,22.758
396.00,22.752
397.00,22.766
398.00,22.809
399.00,22.750
400.00,22.785
401.00,22.783
402.00,22.816
403.00,22.812
404.00,22.892
405.00,22.814
406.00,22.798
407.00,22.756
408.00,22.763
409.00,22.741
410.00,22.701
411.00,22.676
412.00,22.662
413.00,22.666
414.00,22.690
415.00,22.706
416.00,22.712
417.00,22.749
418.00,22.807
419.00,22.851
420.00,22.874
421.00,22.947
422.00,22.993
423.00,23.013
424.00,23.024
425.00,23.069
426.00,23.092
427.00,23.180
428.00,23.219
429.00,23.228
430.00,23.305
431.00,23.363
432.00,23.433
433.00,23.491
434.00,23.541
435.00,23.590
436.00,23.669
437.00,23.756
438.00,23.830
439.00,23.897
440.00,23.974
441.00,24.057
442.00,24.135
443.00,24.239
444.00,24.300
445.00,24.376
446.00,24.490
447.00,24.617
448.00,24.719
449.00,24.809
450.00,24.909
451.00,25.032
452.00,25.123
453.00,25.233
454.00,25.332
455.00,25.498
456.00,25.572
457.00,25.702
458.00,25.798
459.00,25.928
460.00,26.023
461.00,26.195
462.00,26.329
463.00,26.449
464.00,26.586
465.00,26.730
466.00,26.840
467.00,26.988
468.00,27.095
469.00,27.247
470.00,27.350
471.00,27.434
472.00,27.520
473.00,27.614
474.00,27.765
475.00,27.882
476.00,27.993
477.00,28.110
478.00,28.245
479.00,28.401
480.00,28.575
481.00,28.643
482.00,28.771
483.00,28.925
484.00,29.051
485.00,29.249
486.00,29.379
487.00,29.503
488.00,29.623
489.00,29.830
490.00,29.889
491.00,30.139
492.00,30.355
493.00,30.440
494.00,30.464
495.00,30.596
496.00,30.723
497.00,30.840
498.00,31.013
499.00,31.184
500.00,31.238
501.00,31.322
502.00,31.540
503.00,31.640
504.00,31.768
505.00,31.924
506.00,31.988
507.00,32.090
508.00,32.181
509.00,32.340
510.00,32.458
511.00,32.607
512.00,32.713
513.00,32.821
514.00,32.982
515.00,33.040
516.00,33.184
517.00,33.327
518.00,33.431
519.00,33.498
520.00,33.594
521.00,33.650
522.00,33.730
523.00,33.781
524.00,33.866
525.00,33.933
526.00,34.103
527.00,34.214
528.00,34.295
529.00,34.392
530.00,34.484
531.00,34.675
532.00,34.715
533.00,34.801
534.00,34.901
535.00,34.973
536.00,35.075
537.00,35.125
538.00,35.197
539.00,35.252
540.00,35.303
541.00,35.376
542.00,35.443
543.00,35.507
544.00,35.578
545.00,35.635
546.00,35.693
547.00,35.807
548.00,35.860
549.00,35.897
550.00,36.057
551.00,36.127
552.00,36.203
553.00,36.237
554.00,36.298
555.00,36.393
556.00,36.405
557.00,36.499
558.00,36.475
559.00,36.587
560.00,36.611
561.00,36.724
562.00,36.763
563.00,36.772
564.00,36.884
565.00,36.932
566.00,36.913
567.00,36.925
568.00,36.950
569.00,37.040
570.00,36.962
571.00,37.116
572.00,37.176
573.00,37.113
574.00,37.211
575.00,37.201
576.00,37.138
577.00,37.306
578.00,37.397
579.00,37.456
580.00,37.512
581.00,37.606
582.00,37.719
583.00,37.761
584.00,37.816
585.00,37.931
586.00,37.958
587.00,37.983
588.00,37.987
589.00,38.020
590.00,38.074
591.00,38.090
592.00,38.146
593.00,38.202
594.00,38.249
595.00,38.302
596.00,38.397
597.00,38.446
598.00,38.524
599.00,38.537
600.00,38.683
601.00,38.700
602.00,38.614
603.00,38.694
604.00,38.743
605.00,38.790
606.00,38.878
607.00,38.953
608.00,39.036
609.00,39.002
610.00,39.044
611.00,39.058
612.00,39.119
613.00,39.159
614.00,39.234
615.00,39.239
616.00,39.332
617.00,39.416
618.00,39.422
619.00,39.515
620.00,39.507
621.00,39.569
622.00,39.674
623.00,39.772
624.00,39.772
625.00,39.825
626.00,39.891
627.00,39.972
628.00,39.990
629.00,40.010
630.00,40.105
631.00,40.196
632.00,40.216
633.00,40.325
634.00,40.352
635.00,40.529
636.00,40.616
637.00,40.671
638.00,40.717
639.00,40.785
640.00,40.797
641.00,40.881
642.00,40.989
643.00,41.042
644.00,41.099
645.00,41.145
646.00,41.271
647.00,41.339
648.00,41.413
649.00,41.548
650.00,41.537
651.00,41.669
652.00,41.753
653.00,41.815
654.00,41.975
655.00,42.044
656.00,42.133
657.00,42.493
658.00,42.351
659.00,42.499
660.00,42.404
661.00,42.450
662.00,42.738
663.00,42.711
664.00,42.833
665.00,42.963
666.00,42.990
667.00,43.192
668.00,43.318
669.00,43.284
670.00,43.394
671.00,43.324
672.00,43.480
673.00,43.597
674.00,43.760
675.00,43.836
676.00,43.838
677.00,44.143
678.00,44.036
679.00,44.149
680.00,44.259
681.00,44.292
682.00,44.434
683.00,44.565
684.00,44.541
685.00,44.621
686.00,44.728
687.00,44.868
688.00,44.918
689.00,45.001
690.00,45.039
691.00,45.254
692.00,45.178
693.00,45.291
694.00,45.516
695.00,45.561
696.00,45.650
697.00,45.697
698.00,45.804
699.00,45.866
700.00,45.978
701.00,46.079
702.00,46.074
703.00,46.173
704.00,46.452
705.00,46.406
706.00,46.443
707.00,46.566
708.00,46.535
709.00,46.781
710.00,47.016
711.00,46.767
712.00,46.847
713.00,46.922
714.00,46.880
715.00,46.901
716.00,47.104
717.00,47.156
718.00,47.324
719.00,47.438
720.00,47.431
721.00,51.727
722.00,51.743
723.00,51.751
724.00,51.694
725.00,51.770
726.00,51.741
727.00,51.861
728.00,51.874
729.00,51.874
730.00,51.880
731.00,51.969
732.00,51.983
733.00,51.976
734.00,52.010
735.00,52.040
736.00,52.159
737.00,52.092
738.00,52.139
739.00,52.199
740.00,52.196
741.00,52.211
742.00,52.247
743.00,52.227
744.00,52.253
745.00,52.252
746.00,52.278
747.00,52.216
748.00,52.328
749.00,52.258
750.00,52.190
751.00,52.289
752.00,52.285
753.00,52.334
754.00,52.329
755.00,52.337
756.00,52.421
757.00,52.316
758.00,52.350
759.00,52.325
760.00,52.306
761.00,52.355
762.00,52.300
763.00,52.444
764.00,52.436
765.00,52.411
766.00,52.494
767.00,52.472
768.00,52.438
769.00,52.441
770.00,52.525
771.00,52.461
772.00,52.543
773.00,52.482
774.00,52.540
775.00,52.567
776.00,52.612
777.00,52.582
778.00,52.534
779.00,52.616
780.00,52.572
781.00,52.505
782.00,52.583
783.00,52.515
784.00,52.487
785.00,52.537
786.00,52.515
787.00,52.600
788.00,52.602
789.00,52.522
790.00,52.448
791.00,52.544
792.00,52.500
793.00,52.541
794.00,52.494
795.00,52.533
796.00,52.486
797.00,52.388
798.00,52.438
799.00,52.399
800.00,52.408
801.00,52.335
802.00,52.329
803.00,52.361
804.00,52.410
805.00,52.364
806.00,52.335
807.00,52.331
808.00,52.364
809.00,52.238
810.00,52.304
811.00,52.233
812.00,52.233
813.00,52.185
814.00,52.244
815.00,52.206
816.00,52.199
817.00,52.105
818.00,52.104
819.00,52.164
820.00,52.109
821.00,52.166
822.00,52.110
823.00,52.048
824.00,52.091
825.00,52.029
826.00,52.099
827.00,52.174
828.00,51.974
829.00,51.934
830.00,52.073
831.00,54.206
832.00,54.213
833.00,54.159
834.00,54.182
835.00,54.168
836.00,54.116
837.00,54.187
838.00,54.064
839.00,54.084
840.00,54.047
841.00,54.059
842.00,54.015
843.00,54.024
844.00,53.940
845.00,53.968
846.00,53.926
847.00,53.946
848.00,54.058
849.00,53.848
850.00,53.814
851.00,53.767
852.00,53.763
853.00,53.711
854.00,53.700
855.00,53.662
856.00,53.659
857.00,53.612
858.00,53.624
859.00,53.545
860.00,53.616
861.00,53.610
862.00,53.582
863.00,53.574
864.00,53.464
865.00,53.499
866.00,53.437
867.00,53.451
868.00,53.415
869.00,53.477
870.00,53.426
871.00,53.428
872.00,53.410
873.00,53.400
874.00,53.359
875.00,53.392
876.00,53.383
877.00,53.370
878.00,53.347
879.00,53.338
880.00,53.309
881.00,53.291
882.00,53.326
883.00,53.292
884.00,53.263
885.00,53.220
886.00,53.222
887.00,53.192
888.00,53.183
889.00,53.171
890.00,53.162
891.00,53.125
892.00,53.105
893.00,53.082
894.00,53.051
895.00,53.032
896.00,53.006
897.00,53.010
898.00,52.975
899.00,52.963
900.00,52.980
901.00,52.971
902.00,52.949
903.00,52.908
904.00,52.909
905.00,52.926
906.00,52.804
907.00,52.840
908.00,52.825
909.00,52.828
910.00,52.775
911.00,52.779
912.00,52.810
913.00,52.732
914.00,52.698
915.00,52.685
916.00,52.686
917.00,52.655
918.00,52.631
919.00,52.596
920.00,52.605
921.00,52.573
922.00,52.588
923.00,52.549
924.00,52.545
925.00,52.503
926.00,52.502
927.00,52.485
928.00,52.464
929.00,52.450
930.00,52.418
931.00,52.430
932.00,52.360
933.00,52.386
934.00,52.347
935.00,52.341
936.00,52.307
937.00,52.274
938.00,52.274
939.00,52.271
940.00,52.227
941.00,52.245
942.00,52.192
943.00,52.204
944.00,52.149
945.00,52.154
946.00,52.138
947.00,52.105
948.00,52.084
949.00,52.061
950.00,52.057
951.00,52.031
952.00,52.007
953.00,51.983
954.00,51.974
955.00,51.917
956.00,51.918
957.00,51.879
958.00,51.887
959.00,51.822
960.00,51.834
961.00,51.803
962.00,51.818
963.00,51.761
964.00,51.770
965.00,51.747
966.00,51.727
967.00,51.744
968.00,51.720
969.00,51.731
970.00,51.706
971.00,51.732
972.00,51.684
973.00,51.714
974.00,51.724
975.00,51.701
976.00,51.728
977.00,51.685
978.00,51.739
979.00,51.686
980.00,51.724
981.00,51.716
982.00,51.707
983.00,51.708
984.00,51.690
985.00,51.717
986.00,51.667
987.00,51.684
988.00,51.658
989.00,51.641
990.00,51.637
991.00,51.608
992.00,51.625
993.00,51.578
994.00,51.564
995.00,51.574
996.00,51.554
997.00,51.563
998.00,51.533
999.00,51.547
1000.00,51.497
1001.00,51.511
1002.00,51.484
1003.00,51.480
1004.00,51.464
1005.00,51.430
1006.00,51.467
1007.00,51.422
1008.00,51.425
1009.00,51.416
1010.00,51.388
1011.00,51.392
1012.00,51.353
1013.00,51.361
1014.00,51.309
1015.00,51.327
1016.00,51.290
1017.00,51.279
1018.00,51.263
1019.00,51.238
1020.00,51.239
1021.00,51.213
1022.00,51.225
1023.00,51.230
1024.00,51.184
1025.00,51.165
1026.00,51.148
1027.00,51.127
1028.00,51.120
1029.00,51.101
1030.00,51.091
1031.00,51.088
1032.00,51.037
1033.00,51.036
1034.00,51.009
1035.00,50.985
1036.00,50.944
1037.00,50.927
1038.00,50.922
1039.00,50.884
1040.00,50.895
1041.00,50.852
1042.00,50.855
1043.00,50.824
1044.00,50.863
1045.00,50.858
1046.00,50.838
1047.00,50.847
1048.00,50.848
1049.00,50.857
1050.00,50.856
1051.00,50.889
1052.00,50.892
1053.00,50.910
1054.00,50.904
1055.00,50.932
1056.00,50.938
1057.00,50.929
1058.00,50.917
1059.00,50.907
1060.00,50.905
1061.00,50.906
1062.00,50.882
1063.00,50.892
1064.00,50.865
1065.00,50.856
1066.00,50.836
1067.00,50.825
1068.00,50.828
1069.00,50.806
1070.00,50.838
1071.00,50.834
1072.00,50.812
1073.00,50.777
1074.00,50.786
1075.00,50.764
1076.00,50.751
1077.00,50.736
1078.00,50.721
1079.00,50.706
1080.00,50.716
1081.00,50.700
1082.00,50.685
1083.00,50.685
1084.00,50.704
1085.00,50.684
1086.00,50.691
1087.00,50.662
1088.00,50.653
1089.00,50.649
1090.00,50.636
1091.00,50.638
1092.00,50.614
1093.00,50.608
1094.00,50.593
1095.00,50.586
1096.00,50.579
1097.00,50.566
1098.00,50.556
1099.00,50.539
1100.00,50.540
1101.00,50.509
1102.00,50.508
1103.00,50.506
1104.00,50.499
1105.00,50.495
1106.00,50.478
1107.00,50.483
1108.00,50.480
1109.00,50.459
1110.00,50.468
1111.00,50.463
1112.00,50.436
1113.00,50.421
1114.00,50.426
1115.00,50.440
1116.00,50.433
1117.00,50.400
1118.00,50.399
1119.00,50.396
1120.00,50.384
1121.00,50.380
1122.00,50.380
1123.00,50.351
1124.00,50.359
1125.00,50.334
1126.00,50.338
1127.00,50.330
1128.00,50.321
1129.00,50.315
1130.00,50.305
1131.00,50.286
1132.00,50.272
1133.00,50.286
1134.00,50.270
1135.00,50.251
1136.00,50.256
1137.00,50.242
1138.00,50.258
1139.00,50.254
1140.00,50.252
1141.00,50.230
1142.00,50.204
1143.00,50.226
1144.00,50.202
1145.00,50.195
1146.00,50.196
1147.00,50.185
1148.00,50.185
1149.00,50.195
1150.00,50.206
1151.00,50.216
1152.00,50.195
1153.00,50.185
1154.00,50.181
1155.00,50.194
1156.00,50.160
1157.00,50.169
1158.00,50.153
1159.00,50.165
1160.00,50.152
1161.00,50.156
1162.00,50.156
1163.00,50.157
1164.00,50.140
1165.00,50.138
1166.00,50.139
1167.00,50.110
1168.00,50.128
1169.00,50.120
1170.00,50.133
1171.00,50.110
1172.00,50.112
1173.00,50.115
1174.00,50.121
1175.00,50.115
1176.00,50.120
1177.00,50.124
1178.00,50.103
1179.00,50.121
1180.00,50.118
1181.00,50.135
1182.00,50.128
1183.00,50.118
1184.00,50.097
1185.00,50.114
1186.00,50.087
1187.00,50.103
1188.00,50.092
1189.00,50.083
1190.00,50.075
1191.00,50.083
1192.00,50.126
1193.00,50.100
1194.00,50.100
1195.00,50.078
1196.00,50.114
1197.00,50.090
1198.00,50.075
1199.00,50.091
1200.00,50.076
1201.00,50.096
1202.00,50.074
1203.00,50.076
1204.00,50.056
1205.00,50.076
1206.00,50.073
1207.00,50.082
1208.00,50.057
1209.00,50.056
1210.00,50.078
1211.00,50.058
1212.00,50.072
1213.00,50.032
1214.00,50.056
1215.00,50.046
1216.00,50.054
1217.00,50.068
1218.00,50.043
1219.00,50.048
1220.00,50.048
1221.00,50.063
1222.00,50.040
1223.00,50.053
1224.00,50.060
1225.00,50.044
1226.00,50.038
1227.00,50.054
1228.00,50.056
1229.00,50.068
1230.00,50.083
1231.00,50.078
1232.00,50.109
1233.00,50.070
1234.00,50.089
1235.00,50.073
1236.00,50.086
1237.00,50.085
1238.00,50.095
1239.00,50.119
1240.00,50.100
1241.00,50.102
1242.00,50.090
1243.00,50.111
1244.00,50.082
1245.00,50.110
1246.00,50.123
1247.00,50.113
1248.00,50.103
1249.00,50.123
1250.00,50.131
1251.00,50.129
1252.00,50.142
1253.00,50.133
1254.00,50.165
1255.00,50.118
1256.00,50.108
1257.00,50.093
1258.00,50.155
1259.00,50.135
1260.00,50.162
1261.00,50.154
1262.00,50.144
1263.00,50.131
1264.00,50.147
1265.00,50.154
1266.00,50.143
1267.00,50.153
1268.00,50.160
1269.00,50.159
1270.00,50.169
1271.00,50.177
1272.00,50.180
1273.00,50.187
1274.00,50.181
1275.00,50.184
1276.00,50.187
1277.00,50.196
1278.00,50.221
1279.00,50.224
1280.00,50.203
1281.00,50.222
1282.00,50.238
1283.00,50.211
1284.00,50.223
1285.00,50.198
1286.00,50.228
1287.00,50.221
1288.00,50.217
1289.00,50.218
1290.00,50.251
1291.00,50.255
1292.00,50.264
1293.00,50.251
1294.00,50.262
1295.00,50.265
1296.00,50.256
1297.00,50.264
1298.00,50.296
1299.00,50.276
1300.00,50.286
1301.00,50.278
1302.00,50.300
1303.00,50.297
1304.00,50.292
1305.00,50.316
1306.00,50.320
1307.00,50.312
1308.00,50.317
1309.00,50.344
1310.00,50.326
1311.00,50.318
1312.00,50.312
1313.00,50.317
1314.00,50.337
1315.00,50.343
1316.00,50.359
1317.00,50.369
1318.00,50.367
1319.00,50.376
1320.00,50.399
1321.00,50.550
1322.00,50.562
1323.00,50.544
1324.00,50.547
1325.00,50.533
1326.00,50.553
1327.00,50.530
1328.00,50.559
1329.00,50.532
1330.00,50.543
1331.00,50.522
1332.00,50.518
1333.00,50.528
1334.00,50.559
1335.00,50.573
1336.00,50.610
1337.00,50.626
1338.00,50.699
1339.00,50.731
1340.00,50.789
1341.00,50.848
1342.00,50.914
1343.00,50.977
1344.00,51.000
1345.00,51.069
1346.00,51.099
1347.00,51.119
1348.00,51.126
1349.00,51.164
1350.00,51.190
1351.00,51.209
1352.00,51.216
1353.00,51.246
1354.00,51.251
1355.00,51.198
1356.00,51.253
1357.00,51.258
1358.00,51.234
1359.00,51.237
1360.00,51.290
1361.00,51.321
1362.00,51.222
1363.00,51.256
1364.00,51.293
1365.00,51.239
1366.00,51.298
1367.00,51.236
1368.00,51.238
1369.00,51.272
1370.00,51.237
1371.00,51.204
1372.00,51.232
1373.00,51.214
1374.00,51.236
1375.00,51.205
1376.00,51.204
1377.00,51.181
1378.00,51.279
1379.00,51.228
1380.00,51.194
1381.00,51.163
1382.00,51.201
1383.00,51.215
1384.00,51.167
1385.00,51.227
1386.00,51.236
1387.00,51.108
1388.00,51.156
1389.00,51.274
1390.00,51.241
1391.00,51.131
1392.00,51.214
1393.00,51.361
1394.00,51.154
1395.00,51.102
1396.00,51.129
1397.00,51.305
1398.00,51.340
1399.00,51.153
1400.00,50.977
1401.00,51.213
1402.00,51.387
1403.00,51.097
1404.00,51.189
1405.00,51.162
1406.00,51.264
1407.00,51.277
1408.00,51.151
1409.00,51.213
1410.00,51.273
1411.00,51.343
1412.00,51.370
1413.00,51.117
1414.00,51.191
1415.00,51.318
1416.00,51.382
1417.00,51.415
1418.00,51.313
1419.00,51.358
1420.00,51.358
1421.00,51.405
1422.00,51.365
1423.00,51.343
1424.00,51.383
1425.00,51.400
1426.00,51.419
1427.00,51.424
1428.00,51.431
1429.00,51.473
1430.00,51.466
1431.00,51.479
1432.00,51.499
1433.00,51.522
1434.00,51.512
1435.00,51.563
1436.00,51.538
1437.00,51.547
1438.00,51.560
1439.00,51.597
1440.00,51.607
1441.00,51.593
1442.00,51.601
1443.00,51.667
1444.00,51.753
1445.00,51.709
1446.00,51.652
1447.00,51.703
1448.00,51.742
1449.00,51.742
1450.00,51.717
1451.00,51.746
1452.00,51.759
1453.00,51.797
1454.00,51.803
1455.00,51.833
1456.00,51.849
1457.00,51.858
1458.00,51.875
1459.00,51.887
1460.00,51.914
1461.00,51.909
1462.00,51.932
1463.00,51.941
1464.00,51.971
1465.00,51.969
1466.00,51.962
1467.00,52.005
1468.00,52.032
1469.00,52.015
1470.00,52.039
1471.00,52.074
1472.00,52.078
1473.00,52.071
1474.00,52.097
1475.00,52.084
1476.00,52.110
1477.00,52.105
1478.00,52.134
1479.00,52.145
1480.00,52.154
1481.00,52.173
1482.00,52.193
1483.00,52.192
1484.00,52.204
1485.00,52.204
1486.00,52.229
1487.00,52.256
1488.00,52.271
1489.00,52.270
1490.00,52.299
1491.00,52.291
1492.00,52.317
1493.00,52.309
1494.00,52.314
1495.00,52.332
1496.00,52.335
1497.00,52.344
1498.00,52.350
1499.00,52.364
1500.00,52.395
1501.00, 
1502.00, 
1503.00, 
1504.00, 
1505.00, 
1506.00, 
1507.00, 
1508.00, 
1509.00, 
1510.00, 
1511.00, 
1512.00, 
1513.00, 
1514.00, 
1515.00, 
1516.00, 
1517.00, 
1518.00, 
1519.00, 
1520.00, 
1521.00, 
1522.00, 
1523.00, 
1524.00, 
1525.00, 
1526.00, 
1527.00, 
1528.00, 
1529.00, 
1530.00, 
1531.00, 
1532.00, 
1533.00, 
1534.00, 
1535.00, 
1536.00, 
1537.00, 
1538.00, 
1539.00, 
1540.00, 
1541.00, 
1542.00, 
1543.00, 
1544.00, 
1545.00, 
1546.00, 
1547.00, 
1548.00, 
1549.00, 
1550.00, 
1551.00, 
1552.00, 
1553.00, 
1554.00, 
1555.00, 
1556.00, 
1557.00, 
1558.00, 
1559.00, 
1560.00, 
1561.00, 
1562.00, 
1563.00, 
1564.00, 
1565.00, 
1566.00, 
1567.00, 
1568.00, 
1569.00, 
1570.00, 
1571.00, 
1572.00, 
1573.00, 
1574.00, 
1575.00, 
1576.00, 
1577.00, 
1578.00, 
1579.00, 
1580.00, 
1581.00, 
1582.00, 
1583.00, 
1584.00, 
1585.00, 
1586.00, 
1587.00, 
1588.00, 
1589.00, 
1590.00, 
1591.00, 
1592.00, 
1593.00, 
1594.00, 
1595.00, 
1596.00, 
1597.00, 
1598.00, 
1599.00, 
1600.00, 
1601.00, 
1602.00, 
1603.00, 
1604.00, 
1605.00, 
1606.00, 
1607.00, 
1608.00, 
1609.00, 
1610.00, 
1611.00, 
1612.00, 
1613.00, 
1614.00, 
1615.00, 
1616.00, 
1617.00, 
1618.00, 
1619.00, 
1620.00, 
1621.00, 
1622.00, 
1623.00, 
1624.00, 
1625.00, 
1626.00, 
1627.00, 
1628.00, 
1629.00, 
1630.00, 
1631.00, 
1632.00, 
1633.00, 
1634.00, 
1635.00, 
1636.00, 
1637.00, 
1638.00, 
1639.00, 
1640.00, 
1641.00, 
1642.00, 
1643.00, 
1644.00, 
1645.00, 
1646.00, 
1647.00, 
1648.00, 
1649.00, 
1650.00, 
1651.00, 
1652.00, 
1653.00, 
1654.00, 
1655.00, 
1656.00, 
1657.00, 
1658.00, 
1659.00, 
1660.00, 
1661.00, 
1662.00, 
1663.00, 
1664.00, 
1665.00, 
1666.00, 
1667.00, 
1668.00, 
1669.00, 
1670.00, 
1671.00, 
1672.00, 
1673.00, 
1674.00, 
1675.00, 
1676.00, 
1677.00, 
1678.00, 
1679.00, 
1680.00, 
1681.00, 
1682.00, 
1683.00, 
1684.00, 
1685.00, 
1686.00, 
1687.00, 
1688.00, 
1689.00, 
1690.00, 
1691.00, 
1692.00, 
1693.00, 
1694.00, 
1695.00, 
1696.00, 
1697.00, 
1698.00, 
1699.00, 
1700.00, 
1701.00, 
1702.00, 
1703.00, 
1704.00, 
1705.00, 
1706.00, 
1707.00, 
1708.00, 
1709.00, 
1710.00, 
1711.00, 
1712.00, 
1713.00, 
1714.00, 
1715.00, 
1716.00, 
1717.00, 
1718.00, 
1719.00, 
1720.00, 
1721.00, 
1722.00, 
1723.00, 
1724.00, 
1725.00, 
1726.00, 
1727.00, 
1728.00, 
1729.00, 
1730.00, 
1731.00, 
1732.00, 
1733.00, 
1734.00, 
1735.00, 
1736.00, 
1737.00, 
1738.00, 
1739.00, 
1740.00, 
1741.00, 
1742.00, 
1743.00, 
1744.00, 
1745.00, 
1746.00, 
1747.00, 
1748.00, 
1749.00, 
1750.00, 
1751.00, 
1752.00, 
1753.00, 
1754.00, 
1755.00, 
1756.00, 
1757.00, 
1758.00, 
1759.00, 
1760.00, 
1761.00, 
1762.00, 
1763.00, 
1764.00, 
1765.00, 
1766.00, 
1767.00, 
1768.00, 
1769.00, 
1770.00, 
1771.00, 
1772.00, 
1773.00, 
1774.00, 
1775.00, 
1776.00, 
1777.00, 
1778.00, 
1779.00, 
1780.00, 
1781.00, 
1782.00, 
1783.00, 
1784.00, 
1785.00, 
1786.00, 
1787.00, 
1788.00, 
1789.00, 
1790.00, 
1791.00, 
1792.00, 
1793.00, 
1794.00, 
1795.00, 
1796.00, 
1797.00, 
1798.00, 
1799.00, 
1800.00, 
1801.00, 
1802.00, 
1803.00, 
1804.00, 
1805.00, 
1806.00, 
1807.00, 
1808.00, 
1809.00, 
1810.00, 
1811.00, 
1812.00, 
1813.00, 
1814.00, 
1815.00, 
1816.00, 
1817.00, 
1818.00, 
1819.00, 
1820.00, 
1821.00, 
1822.00, 
1823.00, 
1824.00, 
1825.00, 
1826.00, 
1827.00, 
1828.00, 
1829.00, 
1830.00, 
1831.00, 
1832.00, 
1833.00, 
1834.00, 
1835.00, 
1836.00, 
1837.00, 
1838.00, 
1839.00, 
1840.00, 
1841.00, 
1842.00, 
1843.00, 
1844.00, 
1845.00, 
1846.00, 
1847.00, 
1848.00, 
1849.00, 
1850.00, 
1851.00, 
1852.00, 
1853.00, 
1854.00, 
1855.00, 
1856.00, 
1857.00, 
1858.00, 
1859.00, 
1860.00, 
1861.00, 
1862.00, 
1863.00, 
1864.00, 
1865.00, 
1866.00, 
1867.00, 
1868.00, 
1869.00, 
1870.00, 
1871.00, 
1872.00, 
1873.00, 
1874.00, 
1875.00, 
1876.00, 
1877.00, 
1878.00, 
1879.00, 
1880.00, 
1881.00, 
1882.00, 
1883.00, 
1884.00, 
1885.00, 
1886.00, 
1887.00, 
1888.00, 
1889.00, 
1890.00, 
1891.00, 
1892.00, 
1893.00, 
1894.00, 
1895.00, 
1896.00, 
1897.00, 
1898.00, 
1899.00, 
1900.00, 
1901.00, 
1902.00, 
1903.00, 
1904.00, 
1905.00, 
1906.00, 
1907.00, 
1908.00, 
1909.00, 
1910.00, 
1911.00, 
1912.00, 
1913.00, 
1914.00, 
1915.00, 
1916.00, 
1917.00, 
1918.00, 
1919.00, 
1920.00, 
1921.00, 
1922.00, 
1923.00, 
1924.00, 
1925.00, 
1926.00, 
1927.00, 
1928.00, 
1929.00, 
1930.00, 
1931.00, 
1932.00, 
1933.00, 
1934.00, 
1935.00, 
1936.00, 
1937.00, 
1938.00, 
1939.00, 
1940.00, 
1941.00, 
1942.00, 
1943.00, 
1944.00, 
1945.00, 
1946.00, 
1947.00, 
1948.00, 
1949.00, 
1950.00, 
1951.00, 
1952.00, 
1953.00, 
1954.00, 
1955.00, 
1956.00, 
1957.00, 
1958.00, 
1959.00, 
1960.00, 
1961.00, 
1962.00, 
1963.00, 
1964.00, 
1965.00, 
1966.00, 
1967.00, 
1968.00, 
1969.00, 
1970.00, 
1971.00, 
1972.00, 
1973.00, 
1974.00, 
1975.00, 
1976.00, 
1977.00, 
1978.00, 
1979.00, 
1980.00, 
1981.00, 
1982.00, 
1983.00, 
1984.00, 
1985.00, 
1986.00, 
1987.00, 
1988.00, 
1989.00, 
1990.00, 
1991.00, 
1992.00, 
1993.00, 
1994.00, 
1995.00, 
1996.00, 
1997.00, 
1998.00, 
1999.00, 
2000.00, 
2001.00, 
2002.00, 
2003.00, 
2004.00, 
2005.00, 
2006.00, 
2007.00, 
2008.00, 
2009.00, 
2010.00, 
2011.00, 
2012.00, 
2013.00, 
2014.00, 
2015.00, 
2016.00, 
2017.00, 
2018.00, 
2019.00, 
2020.00, 
2021.00, 
2022.00, 
2023.00, 
2024.00, 
2025.00, 
2026.00, 
2027.00, 
2028.00, 
2029.00, 
2030.00, 
2031.00, 
2032.00, 
2033.00, 
2034.00, 
2035.00, 
2036.00, 
2037.00, 
2038.00, 
2039.00, 
2040.00, 
2041.00, 
2042.00, 
2043.00, 
2044.00, 
2045.00, 
2046.00, 
2047.00, 
2048.00, 
2049.00, 
2050.00, 
2051.00, 
2052.00, 
2053.00, 
2054.00, 
2055.00, 
2056.00, 
2057.00, 
2058.00, 
2059.00, 
2060.00, 
2061.00, 
2062.00, 
2063.00, 
2064.00, 
2065.00, 
2066.00, 
2067.00, 
2068.00, 
2069.00, 
2070.00, 
2071.00, 
2072.00, 
2073.00, 
2074.00, 
2075.00, 
2076.00, 
2077.00, 
2078.00, 
2079.00, 
2080.00, 
2081.00, 
2082.00, 
2083.00, 
2084.00, 
2085.00, 
2086.00, 
2087.00, 
2088.00, 
2089.00, 
2090.00, 
2091.00, 
2092.00, 
2093.00, 
2094.00, 
2095.00, 
2096.00, 
2097.00, 
2098.00, 
2099.00, 
2100.00, 
2101.00, 
2102.00, 
2103.00, 
2104.00, 
2105.00, 
2106.00, 
2107.00, 
2108.00, 
2109.00, 
2110.00, 
2111.00, 
2112.00, 
2113.00, 
2114.00, 
2115.00, 
2116.00, 
2117.00, 
2118.00, 
2119.00, 
2120.00, 
2121.00, 
2122.00, 
2123.00, 
2124.00, 
2125.00, 
2126.00, 
2127.00, 
2128.00, 
2129.00, 
2130.00, 
2131.00, 
2132.00, 
2133.00, 
2134.00, 
2135.00, 
2136.00, 
2137.00, 
2138.00, 
2139.00, 
2140.00, 
2141.00, 
2142.00, 
2143.00, 
2144.00, 
2145.00, 
2146.00, 
2147.00, 
2148.00, 
2149.00, 
2150.00, 
2151.00, 
2152.00, 
2153.00, 
2154.00, 
2155.00, 
2156.00, 
2157.00, 
2158.00, 
2159.00, 
2160.00, 
2161.00, 
2162.00, 
2163.00, 
2164.00, 
2165.00, 
2166.00, 
2167.00, 
2168.00, 
2169.00, 
2170.00, 
2171.00, 
2172.00, 
2173.00, 
2174.00, 
2175.00, 
2176.00, 
2177.00, 
2178.00, 
2179.00, 
2180.00, 
2181.00, 
2182.00, 
2183.00, 
2184.00, 
2185.00, 
2186.00, 
2187.00, 
2188.00, 
2189.00, 
2190.00, 
2191.00, 
2192.00, 
2193.00, 
2194.00, 
2195.00, 
2196.00, 
2197.00, 
2198.00, 
2199.00, 
2200.00, 
2201.00, 
2202.00, 
2203.00, 
2204.00, 
2205.00, 
2206.00, 
2207.00, 
2208.00, 
2209.00, 
2210.00, 
2211.00, 
2212.00, 
2213.00, 
2214.00, 
2215.00, 
2216.00, 
2217.00, 
2218.00, 
2219.00, 
2220.00, 
2221.00, 
2222.00, 
2223.00, 
2224.00, 
2225.00, 
2226.00, 
2227.00, 
2228.00, 
2229.00, 
2230.00, 
2231.00, 
2232.00, 
2233.00, 
2234.00, 
2235.00, 
2236.00, 
2237.00, 
2238.00, 
2239.00, 
2240.00, 
2241.00, 
2242.00, 
2243.00, 
2244.00, 
2245.00, 
2246.00, 
2247.00, 
2248.00, 
2249.00, 
2250.00, 
2251.00, 
2252.00, 
2253.00, 
2254.00, 
2255.00, 
2256.00, 
2257.00, 
2258.00, 
2259.00, 
2260.00, 
2261.00, 
2262.00, 
2263.00, 
2264.00, 
2265.00, 
2266.00, 
2267.00, 
2268.00, 
2269.00, 
2270.00, 
2271.00, 
2272.00, 
2273.00, 
2274.00, 
2275.00, 
2276.00, 
2277.00, 
2278.00, 
2279.00, 
2280.00, 
2281.00, 
2282.00, 
2283.00, 
2284.00, 
2285.00, 
2286.00, 
2287.00, 
2288.00, 
2289.00, 
2290.00, 
2291.00, 
2292.00, 
2293.00, 
2294.00, 
2295.00, 
2296.00, 
2297.00, 
2298.00, 
2299.00, 
2300.00, 
2301.00, 
2302.00, 
2303.00, 
2304.00, 
2305.00, 
2306.00, 
2307.00, 
2308.00, 
2309.00, 
2310.00, 
2311.00, 
2312.00, 
2313.00, 
2314.00, 
2315.00, 
2316.00, 
2317.00, 
2318.00, 
2319.00, 
2320.00, 
2321.00, 
2322.00, 
2323.00, 
2324.00, 
2325.00, 
2326.00, 
2327.00, 
2328.00, 
2329.00, 
2330.00, 
2331.00, 
2332.00, 
2333.00, 
2334.00, 
2335.00, 
2336.00, 
2337.00, 
2338.00, 
2339.00, 
2340.00, 
2341.00, 
2342.00, 
2343.00, 
2344.00, 
2345.00, 
2346.00, 
2347.00, 
2348.00, 
2349.00, 
2350.00, 
2351.00, 
2352.00, 
2353.00, 
2354.00, 
2355.00, 
2356.00, 
2357.00, 
2358.00, 
2359.00, 
2360.00, 
2361.00, 
2362.00, 
2363.00, 
2364.00, 
2365.00, 
2366.00, 
2367.00, 
2368.00, 
2369.00, 
2370.00, 
2371.00, 
2372.00, 
2373.00, 
2374.00, 
2375.00, 
2376.00, 
2377.00, 
2378.00, 
2379.00, 
2380.00, 
2381.00, 
2382.00, 
2383.00, 
2384.00, 
2385.00, 
2386.00, 
2387.00, 
2388.00, 
2389.00, 
2390.00, 
2391.00, 
2392.00, 
2393.00, 
2394.00, 
2395.00, 
2396.00, 
2397.00, 
2398.00, 
2399.00, 
2400.00, 
2401.00, 
2402.00, 
2403.00, 
2404.00, 
2405.00, 
2406.00, 
2407.00, 
2408.00, 
2409.00, 
2410.00, 
2411.00, 
2412.00, 
2413.00, 
2414.00, 
2415.00, 
2416.00, 
2417.00, 
2418.00, 
2419.00, 
2420.00, 
2421.00, 
2422.00, 
2423.00, 
2424.00, 
2425.00, 
2426.00, 
2427.00, 
2428.00, 
2429.00, 
2430.00, 
2431.00, 
2432.00, 
2433.00, 
2434.00, 
2435.00, 
2436.00, 
2437.00, 
2438.00, 
2439.00, 
2440.00, 
2441.00, 
2442.00, 
2443.00, 
2444.00, 
2445.00, 
2446.00, 
2447.00, 
2448.00, 
2449.00, 
2450.00, 
2451.00, 
2452.00, 
2453.00, 
2454.00, 
2455.00, 
2456.00, 
2457.00, 
2458.00, 
2459.00, 
2460.00, 
2461.00, 
2462.00, 
2463.00, 
2464.00, 
2465.00, 
2466.00, 
2467.00, 
2468.00, 
2469.00, 
2470.00, 
2471.00, 
2472.00, 
2473.00, 
2474.00, 
2475.00, 
2476.00, 
2477.00, 
2478.00, 
2479.00, 
2480.00, 
2481.00, 
2482.00, 
2483.00, 
2484.00, 
2485.00, 
2486.00, 
2487.00, 
2488.00, 
2489.00, 
2490.00, 
2491.00, 
2492.00, 
2493.00, 
2494.00, 
2495.00, 
2496.00, 
2497.00, 
2498.00, 
2499.00, 
2500.00, 
2501.00, 
2502.00, 
2503.00, 
2504.00, 
2505.00, 
2506.00, 
2507.00, 
2508.00, 
2509.00, 
2510.00, 
2511.00, 
2512.00, 
2513.00, 
2514.00, 
2515.00, 
2516.00, 
2517.00, 
2518.00, 
2519.00, 
2520.00, 
2521.00, 
2522.00, 
2523.00, 
2524.00, 
2525.00, 
2526.00, 
2527.00, 
2528.00, 
2529.00, 
2530.00, 
2531.00, 
2532.00, 
2533.00, 
2534.00, 
2535.00, 
2536.00, 
2537.00, 
2538.00, 
2539.00, 
2540.00, 
2541.00, 
2542.00, 
2543.00, 
2544.00, 
2545.00, 
2546.00, 
2547.00, 
2548.00, 
2549.00, 
2550.00, 
2551.00, 
2552.00, 
2553.00, 
2554.00, 
2555.00, 
2556.00, 
2557.00, 
2558.00, 
2559.00, 
2560.00, 
2561.00, 
2562.00, 
2563.00, 
2564.00, 
2565.00, 
2566.00, 
2567.00, 
2568.00, 
2569.00, 
2570.00, 
2571.00, 
2572.00, 
2573.00, 
2574.00, 
2575.00, 
2576.00, 
2577.00, 
2578.00, 
2579.00, 
2580.00, 
2581.00, 
2582.00, 
2583.00, 
2584.00, 
2585.00, 
2586.00, 
2587.00, 
2588.00, 
2589.00, 
2590.00, 
2591.00, 
2592.00, 
2593.00, 
2594.00, 
2595.00, 
2596.00, 
2597.00, 
2598.00, 
2599.00, 
2600.00, 
