"2cP5 - RawData"
"Wavelength nm.","T%"
200.00,0.001
201.00,-0.004
202.00,0.004
203.00,0.000
204.00,0.003
205.00,0.001
206.00,0.001
207.00,-0.003
208.00,0.002
209.00,0.002
210.00,0.001
211.00,0.000
212.00,0.001
213.00,0.002
214.00,0.001
215.00,0.003
216.00,0.002
217.00,0.001
218.00,0.002
219.00,0.001
220.00,0.002
221.00,0.002
222.00,0.003
223.00,0.003
224.00,0.001
225.00,0.002
226.00,0.001
227.00,0.001
228.00,0.001
229.00,0.002
230.00,0.001
231.00,0.002
232.00,-0.002
233.00,0.001
234.00,0.001
235.00,-0.000
236.00,0.001
237.00,0.001
238.00,0.002
239.00,0.001
240.00,0.001
241.00,0.001
242.00,0.000
243.00,-0.000
244.00,0.001
245.00,0.000
246.00,-0.001
247.00,-0.002
248.00,-0.000
249.00,0.002
250.00,0.001
251.00,0.001
252.00,0.001
253.00,-0.001
254.00,-0.001
255.00,0.000
256.00,0.001
257.00,0.002
258.00,-0.000
259.00,0.000
260.00,0.001
261.00,-0.000
262.00,0.000
263.00,0.001
264.00,-0.000
265.00,-0.000
266.00,-0.001
267.00,-0.001
268.00,-0.001
269.00,0.000
270.00,0.002
271.00,0.001
272.00,0.000
273.00,0.001
274.00,0.001
275.00,-0.002
276.00,-0.000
277.00,-0.000
278.00,0.000
279.00,-0.000
280.00,0.001
281.00,-0.000
282.00,0.000
283.00,0.001
284.00,0.001
285.00,0.001
286.00,0.001
287.00,0.001
288.00,-0.000
289.00,-0.000
290.00,-0.000
291.00,0.000
292.00,0.001
293.00,0.001
294.00,0.001
295.00,0.002
296.00,0.002
297.00,0.001
298.00,-0.000
299.00,0.001
300.00,0.002
301.00,0.003
302.00,0.003
303.00,0.009
304.00,0.010
305.00,0.018
306.00,0.024
307.00,0.039
308.00,0.059
309.00,0.097
310.00,0.131
311.00,0.179
312.00,0.246
313.00,0.338
314.00,0.441
315.00,0.563
316.00,0.725
317.00,0.919
318.00,1.132
319.00,1.385
320.00,1.700
321.00,2.031
322.00,2.419
323.00,2.858
324.00,3.292
325.00,3.777
326.00,4.252
327.00,4.784
328.00,5.356
329.00,5.823
330.00,6.507
331.00,7.073
332.00,7.701
333.00,8.376
334.00,8.993
335.00,9.616
336.00,10.274
337.00,10.890
338.00,11.509
339.00,12.071
340.00,12.669
341.00,13.229
342.00,13.749
343.00,14.249
344.00,14.743
345.00,15.239
346.00,15.686
347.00,16.119
348.00,16.504
349.00,16.826
350.00,17.219
351.00,17.581
352.00,17.860
353.00,18.134
354.00,18.409
355.00,18.648
356.00,18.940
357.00,19.149
358.00,19.345
359.00,19.586
360.00,19.795
361.00,19.898
362.00,20.062
363.00,20.215
364.00,20.281
365.00,20.387
366.00,20.466
367.00,20.573
368.00,20.615
369.00,20.686
370.00,20.713
371.00,20.732
372.00,20.716
373.00,20.731
374.00,20.733
375.00,20.746
376.00,20.705
377.00,20.662
378.00,20.527
379.00,20.574
380.00,20.499
381.00,20.495
382.00,20.509
383.00,20.521
384.00,20.543
385.00,20.572
386.00,20.562
387.00,20.641
388.00,20.696
389.00,20.700
390.00,20.701
391.00,20.764
392.00,20.760
393.00,20.736
394.00,20.775
395.00,20.813
396.00,20.801
397.00,20.827
398.00,20.794
399.00,20.793
400.00,20.802
401.00,20.802
402.00,20.821
403.00,20.804
404.00,20.886
405.00,20.812
406.00,20.792
407.00,20.778
408.00,20.743
409.00,20.694
410.00,20.687
411.00,20.669
412.00,20.656
413.00,20.685
414.00,20.693
415.00,20.702
416.00,20.733
417.00,20.743
418.00,20.759
419.00,20.853
420.00,20.882
421.00,20.923
422.00,20.931
423.00,21.004
424.00,21.017
425.00,21.059
426.00,21.042
427.00,21.137
428.00,21.199
429.00,21.219
430.00,21.278
431.00,21.349
432.00,21.390
433.00,21.460
434.00,21.526
435.00,21.558
436.00,21.614
437.00,21.714
438.00,21.773
439.00,21.841
440.00,21.921
441.00,21.993
442.00,22.075
443.00,22.182
444.00,22.279
445.00,22.359
446.00,22.452
447.00,22.540
448.00,22.655
449.00,22.754
450.00,22.865
451.00,22.947
452.00,23.071
453.00,23.171
454.00,23.269
455.00,23.390
456.00,23.505
457.00,23.639
458.00,23.721
459.00,23.847
460.00,24.008
461.00,24.140
462.00,24.250
463.00,24.368
464.00,24.548
465.00,24.679
466.00,24.768
467.00,24.966
468.00,25.064
469.00,25.166
470.00,25.289
471.00,25.372
472.00,25.493
473.00,25.556
474.00,25.722
475.00,25.829
476.00,25.947
477.00,26.083
478.00,26.242
479.00,26.420
480.00,26.554
481.00,26.642
482.00,26.797
483.00,26.935
484.00,27.119
485.00,27.264
486.00,27.430
487.00,27.560
488.00,27.720
489.00,27.874
490.00,28.001
491.00,28.135
492.00,28.385
493.00,28.518
494.00,28.458
495.00,28.691
496.00,28.722
497.00,28.946
498.00,29.080
499.00,29.242
500.00,29.365
501.00,29.470
502.00,29.629
503.00,29.776
504.00,29.829
505.00,29.968
506.00,30.071
507.00,30.205
508.00,30.338
509.00,30.398
510.00,30.628
511.00,30.682
512.00,30.885
513.00,31.029
514.00,31.139
515.00,31.268
516.00,31.410
517.00,31.498
518.00,31.658
519.00,31.692
520.00,31.735
521.00,31.824
522.00,31.948
523.00,31.967
524.00,32.070
525.00,32.175
526.00,32.271
527.00,32.399
528.00,32.459
529.00,32.619
530.00,32.769
531.00,32.919
532.00,32.968
533.00,33.066
534.00,33.202
535.00,33.229
536.00,33.333
537.00,33.382
538.00,33.462
539.00,33.482
540.00,33.581
541.00,33.678
542.00,33.713
543.00,33.771
544.00,33.886
545.00,33.948
546.00,34.023
547.00,34.134
548.00,34.204
549.00,34.245
550.00,34.326
551.00,34.443
552.00,34.542
553.00,34.555
554.00,34.590
555.00,34.697
556.00,34.770
557.00,34.810
558.00,34.838
559.00,34.939
560.00,35.014
561.00,35.076
562.00,35.140
563.00,35.167
564.00,35.192
565.00,35.273
566.00,35.325
567.00,35.309
568.00,35.310
569.00,35.447
570.00,35.438
571.00,35.525
572.00,35.538
573.00,35.531
574.00,35.608
575.00,35.632
576.00,35.629
577.00,35.665
578.00,35.795
579.00,35.870
580.00,35.866
581.00,36.043
582.00,36.112
583.00,36.138
584.00,36.211
585.00,36.299
586.00,36.333
587.00,36.351
588.00,36.367
589.00,36.349
590.00,36.433
591.00,36.507
592.00,36.476
593.00,36.551
594.00,36.643
595.00,36.703
596.00,36.787
597.00,36.849
598.00,36.891
599.00,36.916
600.00,36.999
601.00,37.034
602.00,36.980
603.00,36.982
604.00,37.069
605.00,37.123
606.00,37.116
607.00,37.166
608.00,37.385
609.00,37.431
610.00,37.183
611.00,37.337
612.00,37.519
613.00,37.500
614.00,37.494
615.00,37.606
616.00,37.684
617.00,37.733
618.00,37.671
619.00,37.721
620.00,37.791
621.00,37.858
622.00,37.965
623.00,38.013
624.00,37.955
625.00,38.094
626.00,38.228
627.00,38.337
628.00,38.340
629.00,38.359
630.00,38.371
631.00,38.500
632.00,38.568
633.00,38.705
634.00,38.805
635.00,38.885
636.00,38.918
637.00,38.986
638.00,39.053
639.00,39.102
640.00,39.102
641.00,39.255
642.00,39.240
643.00,39.395
644.00,39.447
645.00,39.558
646.00,39.702
647.00,39.740
648.00,39.815
649.00,39.844
650.00,39.882
651.00,40.051
652.00,40.162
653.00,40.176
654.00,40.231
655.00,40.454
656.00,40.669
657.00,40.825
658.00,40.712
659.00,40.811
660.00,40.809
661.00,40.809
662.00,40.963
663.00,41.062
664.00,41.258
665.00,41.459
666.00,41.389
667.00,41.523
668.00,41.581
669.00,41.759
670.00,41.968
671.00,41.807
672.00,41.983
673.00,42.109
674.00,42.159
675.00,42.232
676.00,42.506
677.00,42.670
678.00,42.484
679.00,42.687
680.00,42.852
681.00,42.875
682.00,43.088
683.00,43.066
684.00,43.052
685.00,43.092
686.00,43.182
687.00,43.446
688.00,43.487
689.00,43.506
690.00,43.760
691.00,43.987
692.00,43.751
693.00,43.834
694.00,44.157
695.00,44.251
696.00,44.410
697.00,44.233
698.00,44.396
699.00,44.543
700.00,44.596
701.00,44.760
702.00,44.822
703.00,44.958
704.00,45.005
705.00,45.052
706.00,44.999
707.00,45.249
708.00,45.137
709.00,45.433
710.00,45.892
711.00,45.499
712.00,45.625
713.00,45.731
714.00,45.881
715.00,45.859
716.00,45.780
717.00,45.953
718.00,46.276
719.00,46.293
720.00,46.318
721.00,50.657
722.00,50.751
723.00,50.786
724.00,50.694
725.00,50.755
726.00,50.778
727.00,50.788
728.00,50.904
729.00,50.921
730.00,50.938
731.00,51.020
732.00,51.037
733.00,51.182
734.00,51.146
735.00,51.143
736.00,51.266
737.00,51.224
738.00,51.311
739.00,51.305
740.00,51.315
741.00,51.299
742.00,51.460
743.00,51.443
744.00,51.423
745.00,51.425
746.00,51.471
747.00,51.482
748.00,51.503
749.00,51.525
750.00,51.468
751.00,51.525
752.00,51.571
753.00,51.545
754.00,51.623
755.00,51.619
756.00,51.699
757.00,51.579
758.00,51.661
759.00,51.665
760.00,51.703
761.00,51.705
762.00,51.678
763.00,51.823
764.00,51.851
765.00,51.752
766.00,51.834
767.00,51.894
768.00,51.849
769.00,51.796
770.00,51.980
771.00,51.919
772.00,51.927
773.00,51.976
774.00,51.952
775.00,51.985
776.00,52.010
777.00,51.969
778.00,51.986
779.00,52.034
780.00,51.984
781.00,51.980
782.00,52.030
783.00,52.031
784.00,51.997
785.00,52.013
786.00,52.009
787.00,52.012
788.00,52.032
789.00,52.026
790.00,51.900
791.00,52.001
792.00,52.023
793.00,51.997
794.00,51.985
795.00,52.000
796.00,51.971
797.00,51.912
798.00,51.981
799.00,51.980
800.00,51.961
801.00,51.891
802.00,51.903
803.00,51.887
804.00,51.920
805.00,51.903
806.00,51.871
807.00,51.842
808.00,51.916
809.00,51.833
810.00,51.885
811.00,51.800
812.00,51.792
813.00,51.842
814.00,51.797
815.00,51.795
816.00,51.798
817.00,51.749
818.00,51.636
819.00,51.700
820.00,51.650
821.00,51.760
822.00,51.652
823.00,51.648
824.00,51.633
825.00,51.748
826.00,51.632
827.00,51.698
828.00,51.644
829.00,51.576
830.00,51.770
831.00,53.809
832.00,53.796
833.00,53.737
834.00,53.757
835.00,53.741
836.00,53.775
837.00,53.701
838.00,53.731
839.00,53.721
840.00,53.670
841.00,53.684
842.00,53.663
843.00,53.685
844.00,53.620
845.00,53.527
846.00,53.707
847.00,53.596
848.00,53.578
849.00,53.539
850.00,53.503
851.00,53.417
852.00,53.481
853.00,53.389
854.00,53.359
855.00,53.310
856.00,53.327
857.00,53.288
858.00,53.273
859.00,53.214
860.00,53.195
861.00,53.204
862.00,53.190
863.00,53.225
864.00,53.181
865.00,53.202
866.00,53.169
867.00,53.201
868.00,53.159
869.00,53.180
870.00,53.146
871.00,53.125
872.00,53.106
873.00,53.074
874.00,53.057
875.00,53.063
876.00,53.071
877.00,53.078
878.00,53.050
879.00,53.051
880.00,53.038
881.00,52.988
882.00,53.080
883.00,52.994
884.00,52.956
885.00,52.940
886.00,52.942
887.00,52.846
888.00,52.924
889.00,52.890
890.00,52.865
891.00,52.825
892.00,52.821
893.00,52.784
894.00,52.807
895.00,52.770
896.00,52.753
897.00,52.735
898.00,52.709
899.00,52.697
900.00,52.703
901.00,52.709
902.00,52.692
903.00,52.623
904.00,52.637
905.00,52.668
906.00,52.569
907.00,52.592
908.00,52.574
909.00,52.561
910.00,52.503
911.00,52.520
912.00,52.513
913.00,52.477
914.00,52.458
915.00,52.424
916.00,52.419
917.00,52.399
918.00,52.392
919.00,52.347
920.00,52.334
921.00,52.321
922.00,52.322
923.00,52.273
924.00,52.258
925.00,52.261
926.00,52.237
927.00,52.198
928.00,52.296
929.00,52.198
930.00,52.162
931.00,52.174
932.00,52.108
933.00,52.122
934.00,52.080
935.00,52.092
936.00,52.053
937.00,52.041
938.00,52.006
939.00,52.023
940.00,51.995
941.00,51.994
942.00,51.931
943.00,51.940
944.00,51.894
945.00,51.902
946.00,51.875
947.00,51.859
948.00,51.827
949.00,51.789
950.00,51.796
951.00,51.772
952.00,51.752
953.00,51.736
954.00,51.731
955.00,51.661
956.00,51.667
957.00,51.620
958.00,51.646
959.00,51.564
960.00,51.555
961.00,51.563
962.00,51.564
963.00,51.511
964.00,51.519
965.00,51.525
966.00,51.489
967.00,51.502
968.00,51.473
969.00,51.491
970.00,51.459
971.00,51.475
972.00,51.450
973.00,51.477
974.00,51.485
975.00,51.476
976.00,51.494
977.00,51.442
978.00,51.509
979.00,51.473
980.00,51.489
981.00,51.482
982.00,51.452
983.00,51.474
984.00,51.439
985.00,51.459
986.00,51.448
987.00,51.425
988.00,51.373
989.00,51.415
990.00,51.397
991.00,51.371
992.00,51.403
993.00,51.360
994.00,51.336
995.00,51.344
996.00,51.319
997.00,51.314
998.00,51.292
999.00,51.304
1000.00,51.276
1001.00,51.276
1002.00,51.288
1003.00,51.248
1004.00,51.227
1005.00,51.202
1006.00,51.236
1007.00,51.199
1008.00,51.188
1009.00,51.184
1010.00,51.166
1011.00,51.162
1012.00,51.122
1013.00,51.138
1014.00,51.095
1015.00,51.099
1016.00,51.070
1017.00,51.064
1018.00,51.058
1019.00,51.021
1020.00,51.019
1021.00,50.982
1022.00,50.985
1023.00,50.933
1024.00,50.934
1025.00,50.921
1026.00,50.896
1027.00,50.888
1028.00,50.876
1029.00,50.850
1030.00,50.842
1031.00,50.850
1032.00,50.797
1033.00,50.816
1034.00,50.786
1035.00,50.741
1036.00,50.721
1037.00,50.707
1038.00,50.697
1039.00,50.667
1040.00,50.656
1041.00,50.631
1042.00,50.624
1043.00,50.593
1044.00,50.625
1045.00,50.631
1046.00,50.596
1047.00,50.620
1048.00,50.615
1049.00,50.643
1050.00,50.640
1051.00,50.667
1052.00,50.689
1053.00,50.691
1054.00,50.674
1055.00,50.688
1056.00,50.696
1057.00,50.695
1058.00,50.679
1059.00,50.665
1060.00,50.679
1061.00,50.675
1062.00,50.654
1063.00,50.666
1064.00,50.661
1065.00,50.638
1066.00,50.637
1067.00,50.613
1068.00,50.639
1069.00,50.604
1070.00,50.590
1071.00,50.570
1072.00,50.593
1073.00,50.558
1074.00,50.564
1075.00,50.547
1076.00,50.533
1077.00,50.531
1078.00,50.513
1079.00,50.499
1080.00,50.509
1081.00,50.477
1082.00,50.476
1083.00,50.472
1084.00,50.475
1085.00,50.469
1086.00,50.464
1087.00,50.437
1088.00,50.437
1089.00,50.425
1090.00,50.424
1091.00,50.426
1092.00,50.410
1093.00,50.391
1094.00,50.370
1095.00,50.367
1096.00,50.354
1097.00,50.348
1098.00,50.329
1099.00,50.327
1100.00,50.310
1101.00,50.290
1102.00,50.292
1103.00,50.288
1104.00,50.279
1105.00,50.271
1106.00,50.260
1107.00,50.269
1108.00,50.261
1109.00,50.238
1110.00,50.245
1111.00,50.230
1112.00,50.209
1113.00,50.202
1114.00,50.191
1115.00,50.203
1116.00,50.194
1117.00,50.172
1118.00,50.171
1119.00,50.178
1120.00,50.156
1121.00,50.163
1122.00,50.145
1123.00,50.133
1124.00,50.146
1125.00,50.120
1126.00,50.121
1127.00,50.110
1128.00,50.088
1129.00,50.096
1130.00,50.078
1131.00,50.056
1132.00,50.056
1133.00,50.066
1134.00,50.049
1135.00,50.043
1136.00,50.037
1137.00,50.045
1138.00,50.050
1139.00,50.035
1140.00,50.050
1141.00,50.059
1142.00,50.008
1143.00,50.019
1144.00,49.997
1145.00,49.976
1146.00,49.992
1147.00,49.967
1148.00,49.971
1149.00,49.981
1150.00,49.986
1151.00,49.990
1152.00,49.978
1153.00,49.971
1154.00,49.967
1155.00,49.974
1156.00,49.963
1157.00,49.959
1158.00,49.936
1159.00,49.941
1160.00,49.929
1161.00,49.923
1162.00,49.938
1163.00,49.948
1164.00,49.935
1165.00,49.942
1166.00,49.942
1167.00,49.940
1168.00,49.946
1169.00,49.928
1170.00,49.934
1171.00,49.918
1172.00,49.897
1173.00,49.920
1174.00,49.937
1175.00,49.913
1176.00,49.916
1177.00,49.905
1178.00,49.911
1179.00,49.910
1180.00,49.890
1181.00,49.931
1182.00,49.923
1183.00,49.899
1184.00,49.900
1185.00,49.908
1186.00,49.886
1187.00,49.899
1188.00,49.891
1189.00,49.887
1190.00,49.874
1191.00,49.855
1192.00,49.883
1193.00,49.866
1194.00,49.866
1195.00,49.858
1196.00,49.889
1197.00,49.882
1198.00,49.876
1199.00,49.873
1200.00,49.876
1201.00,49.892
1202.00,49.875
1203.00,49.868
1204.00,49.850
1205.00,49.851
1206.00,49.861
1207.00,49.865
1208.00,49.838
1209.00,49.848
1210.00,49.862
1211.00,49.857
1212.00,49.867
1213.00,49.829
1214.00,49.848
1215.00,49.845
1216.00,49.840
1217.00,49.872
1218.00,49.863
1219.00,49.843
1220.00,49.851
1221.00,49.857
1222.00,49.847
1223.00,49.859
1224.00,49.841
1225.00,49.833
1226.00,49.837
1227.00,49.839
1228.00,49.860
1229.00,49.851
1230.00,49.876
1231.00,49.898
1232.00,49.880
1233.00,49.882
1234.00,49.879
1235.00,49.867
1236.00,49.873
1237.00,49.868
1238.00,49.867
1239.00,49.879
1240.00,49.892
1241.00,49.866
1242.00,49.887
1243.00,49.909
1244.00,49.865
1245.00,49.881
1246.00,49.895
1247.00,49.885
1248.00,49.885
1249.00,49.887
1250.00,49.906
1251.00,49.899
1252.00,49.893
1253.00,49.898
1254.00,49.917
1255.00,49.899
1256.00,49.882
1257.00,49.861
1258.00,49.928
1259.00,49.927
1260.00,49.941
1261.00,49.953
1262.00,49.934
1263.00,49.921
1264.00,49.936
1265.00,49.939
1266.00,49.935
1267.00,49.943
1268.00,49.950
1269.00,49.945
1270.00,49.951
1271.00,49.950
1272.00,49.970
1273.00,49.983
1274.00,49.968
1275.00,49.983
1276.00,49.983
1277.00,49.985
1278.00,50.010
1279.00,49.985
1280.00,49.991
1281.00,50.006
1282.00,50.002
1283.00,50.005
1284.00,50.004
1285.00,49.991
1286.00,50.030
1287.00,50.028
1288.00,50.021
1289.00,50.030
1290.00,50.039
1291.00,50.047
1292.00,50.043
1293.00,50.042
1294.00,50.053
1295.00,50.062
1296.00,50.050
1297.00,50.060
1298.00,50.071
1299.00,50.058
1300.00,50.073
1301.00,50.058
1302.00,50.089
1303.00,50.108
1304.00,50.076
1305.00,50.099
1306.00,50.119
1307.00,50.090
1308.00,50.125
1309.00,50.128
1310.00,50.127
1311.00,50.113
1312.00,50.103
1313.00,50.119
1314.00,50.146
1315.00,50.144
1316.00,50.151
1317.00,50.169
1318.00,50.156
1319.00,50.169
1320.00,50.199
1321.00,50.338
1322.00,50.346
1323.00,50.314
1324.00,50.325
1325.00,50.318
1326.00,50.318
1327.00,50.314
1328.00,50.325
1329.00,50.315
1330.00,50.362
1331.00,50.304
1332.00,50.317
1333.00,50.335
1334.00,50.345
1335.00,50.378
1336.00,50.390
1337.00,50.412
1338.00,50.480
1339.00,50.545
1340.00,50.579
1341.00,50.649
1342.00,50.712
1343.00,50.767
1344.00,50.810
1345.00,50.869
1346.00,50.902
1347.00,50.930
1348.00,50.921
1349.00,50.965
1350.00,50.978
1351.00,50.989
1352.00,50.988
1353.00,51.015
1354.00,51.006
1355.00,50.956
1356.00,51.019
1357.00,51.023
1358.00,51.033
1359.00,51.075
1360.00,51.023
1361.00,51.038
1362.00,51.025
1363.00,51.086
1364.00,51.103
1365.00,51.031
1366.00,51.048
1367.00,50.999
1368.00,51.006
1369.00,51.062
1370.00,51.023
1371.00,50.968
1372.00,51.003
1373.00,51.005
1374.00,50.998
1375.00,51.002
1376.00,50.998
1377.00,50.835
1378.00,51.045
1379.00,51.008
1380.00,50.984
1381.00,50.977
1382.00,51.049
1383.00,51.014
1384.00,50.968
1385.00,51.027
1386.00,51.028
1387.00,50.925
1388.00,51.023
1389.00,51.216
1390.00,51.063
1391.00,50.935
1392.00,50.959
1393.00,51.089
1394.00,50.926
1395.00,50.962
1396.00,50.931
1397.00,51.111
1398.00,51.137
1399.00,50.922
1400.00,50.843
1401.00,51.023
1402.00,51.185
1403.00,50.878
1404.00,51.010
1405.00,51.019
1406.00,51.042
1407.00,51.069
1408.00,50.970
1409.00,51.002
1410.00,51.061
1411.00,51.128
1412.00,51.137
1413.00,50.899
1414.00,50.987
1415.00,51.123
1416.00,51.125
1417.00,51.142
1418.00,51.086
1419.00,51.082
1420.00,51.153
1421.00,51.210
1422.00,51.150
1423.00,51.142
1424.00,51.187
1425.00,51.185
1426.00,51.217
1427.00,51.211
1428.00,51.212
1429.00,51.255
1430.00,51.255
1431.00,51.262
1432.00,51.298
1433.00,51.307
1434.00,51.298
1435.00,51.356
1436.00,51.332
1437.00,51.344
1438.00,51.381
1439.00,51.387
1440.00,51.400
1441.00,51.397
1442.00,51.392
1443.00,51.469
1444.00,51.498
1445.00,51.440
1446.00,51.444
1447.00,51.480
1448.00,51.548
1449.00,51.533
1450.00,51.501
1451.00,51.539
1452.00,51.560
1453.00,51.570
1454.00,51.588
1455.00,51.594
1456.00,51.620
1457.00,51.625
1458.00,51.633
1459.00,51.656
1460.00,51.672
1461.00,51.668
1462.00,51.698
1463.00,51.710
1464.00,51.713
1465.00,51.735
1466.00,51.713
1467.00,51.742
1468.00,51.787
1469.00,51.756
1470.00,51.790
1471.00,51.828
1472.00,51.821
1473.00,51.840
1474.00,51.861
1475.00,51.862
1476.00,51.892
1477.00,51.876
1478.00,51.916
1479.00,51.934
1480.00,51.913
1481.00,51.938
1482.00,51.973
1483.00,51.952
1484.00,51.978
1485.00,51.993
1486.00,52.006
1487.00,52.028
1488.00,52.018
1489.00,52.032
1490.00,52.049
1491.00,52.038
1492.00,52.063
1493.00,52.067
1494.00,52.071
1495.00,52.101
1496.00,52.109
1497.00,52.123
1498.00,52.141
1499.00,52.131
1500.00,52.165
1501.00, 
1502.00, 
1503.00, 
1504.00, 
1505.00, 
1506.00, 
1507.00, 
1508.00, 
1509.00, 
1510.00, 
1511.00, 
1512.00, 
1513.00, 
1514.00, 
1515.00, 
1516.00, 
1517.00, 
1518.00, 
1519.00, 
1520.00, 
1521.00, 
1522.00, 
1523.00, 
1524.00, 
1525.00, 
1526.00, 
1527.00, 
1528.00, 
1529.00, 
1530.00, 
1531.00, 
1532.00, 
1533.00, 
1534.00, 
1535.00, 
1536.00, 
1537.00, 
1538.00, 
1539.00, 
1540.00, 
1541.00, 
1542.00, 
1543.00, 
1544.00, 
1545.00, 
1546.00, 
1547.00, 
1548.00, 
1549.00, 
1550.00, 
1551.00, 
1552.00, 
1553.00, 
1554.00, 
1555.00, 
1556.00, 
1557.00, 
1558.00, 
1559.00, 
1560.00, 
1561.00, 
1562.00, 
1563.00, 
1564.00, 
1565.00, 
1566.00, 
1567.00, 
1568.00, 
1569.00, 
1570.00, 
1571.00, 
1572.00, 
1573.00, 
1574.00, 
1575.00, 
1576.00, 
1577.00, 
1578.00, 
1579.00, 
1580.00, 
1581.00, 
1582.00, 
1583.00, 
1584.00, 
1585.00, 
1586.00, 
1587.00, 
1588.00, 
1589.00, 
1590.00, 
1591.00, 
1592.00, 
1593.00, 
1594.00, 
1595.00, 
1596.00, 
1597.00, 
1598.00, 
1599.00, 
1600.00, 
1601.00, 
1602.00, 
1603.00, 
1604.00, 
1605.00, 
1606.00, 
1607.00, 
1608.00, 
1609.00, 
1610.00, 
1611.00, 
1612.00, 
1613.00, 
1614.00, 
1615.00, 
1616.00, 
1617.00, 
1618.00, 
1619.00, 
1620.00, 
1621.00, 
1622.00, 
1623.00, 
1624.00, 
1625.00, 
1626.00, 
1627.00, 
1628.00, 
1629.00, 
1630.00, 
1631.00, 
1632.00, 
1633.00, 
1634.00, 
1635.00, 
1636.00, 
1637.00, 
1638.00, 
1639.00, 
1640.00, 
1641.00, 
1642.00, 
1643.00, 
1644.00, 
1645.00, 
1646.00, 
1647.00, 
1648.00, 
1649.00, 
1650.00, 
1651.00, 
1652.00, 
1653.00, 
1654.00, 
1655.00, 
1656.00, 
1657.00, 
1658.00, 
1659.00, 
1660.00, 
1661.00, 
1662.00, 
1663.00, 
1664.00, 
1665.00, 
1666.00, 
1667.00, 
1668.00, 
1669.00, 
1670.00, 
1671.00, 
1672.00, 
1673.00, 
1674.00, 
1675.00, 
1676.00, 
1677.00, 
1678.00, 
1679.00, 
1680.00, 
1681.00, 
1682.00, 
1683.00, 
1684.00, 
1685.00, 
1686.00, 
1687.00, 
1688.00, 
1689.00, 
1690.00, 
1691.00, 
1692.00, 
1693.00, 
1694.00, 
1695.00, 
1696.00, 
1697.00, 
1698.00, 
1699.00, 
1700.00, 
1701.00, 
1702.00, 
1703.00, 
1704.00, 
1705.00, 
1706.00, 
1707.00, 
1708.00, 
1709.00, 
1710.00, 
1711.00, 
1712.00, 
1713.00, 
1714.00, 
1715.00, 
1716.00, 
1717.00, 
1718.00, 
1719.00, 
1720.00, 
1721.00, 
1722.00, 
1723.00, 
1724.00, 
1725.00, 
1726.00, 
1727.00, 
1728.00, 
1729.00, 
1730.00, 
1731.00, 
1732.00, 
1733.00, 
1734.00, 
1735.00, 
1736.00, 
1737.00, 
1738.00, 
1739.00, 
1740.00, 
1741.00, 
1742.00, 
1743.00, 
1744.00, 
1745.00, 
1746.00, 
1747.00, 
1748.00, 
1749.00, 
1750.00, 
1751.00, 
1752.00, 
1753.00, 
1754.00, 
1755.00, 
1756.00, 
1757.00, 
1758.00, 
1759.00, 
1760.00, 
1761.00, 
1762.00, 
1763.00, 
1764.00, 
1765.00, 
1766.00, 
1767.00, 
1768.00, 
1769.00, 
1770.00, 
1771.00, 
1772.00, 
1773.00, 
1774.00, 
1775.00, 
1776.00, 
1777.00, 
1778.00, 
1779.00, 
1780.00, 
1781.00, 
1782.00, 
1783.00, 
1784.00, 
1785.00, 
1786.00, 
1787.00, 
1788.00, 
1789.00, 
1790.00, 
1791.00, 
1792.00, 
1793.00, 
1794.00, 
1795.00, 
1796.00, 
1797.00, 
1798.00, 
1799.00, 
1800.00, 
1801.00, 
1802.00, 
1803.00, 
1804.00, 
1805.00, 
1806.00, 
1807.00, 
1808.00, 
1809.00, 
1810.00, 
1811.00, 
1812.00, 
1813.00, 
1814.00, 
1815.00, 
1816.00, 
1817.00, 
1818.00, 
1819.00, 
1820.00, 
1821.00, 
1822.00, 
1823.00, 
1824.00, 
1825.00, 
1826.00, 
1827.00, 
1828.00, 
1829.00, 
1830.00, 
1831.00, 
1832.00, 
1833.00, 
1834.00, 
1835.00, 
1836.00, 
1837.00, 
1838.00, 
1839.00, 
1840.00, 
1841.00, 
1842.00, 
1843.00, 
1844.00, 
1845.00, 
1846.00, 
1847.00, 
1848.00, 
1849.00, 
1850.00, 
1851.00, 
1852.00, 
1853.00, 
1854.00, 
1855.00, 
1856.00, 
1857.00, 
1858.00, 
1859.00, 
1860.00, 
1861.00, 
1862.00, 
1863.00, 
1864.00, 
1865.00, 
1866.00, 
1867.00, 
1868.00, 
1869.00, 
1870.00, 
1871.00, 
1872.00, 
1873.00, 
1874.00, 
1875.00, 
1876.00, 
1877.00, 
1878.00, 
1879.00, 
1880.00, 
1881.00, 
1882.00, 
1883.00, 
1884.00, 
1885.00, 
1886.00, 
1887.00, 
1888.00, 
1889.00, 
1890.00, 
1891.00, 
1892.00, 
1893.00, 
1894.00, 
1895.00, 
1896.00, 
1897.00, 
1898.00, 
1899.00, 
1900.00, 
1901.00, 
1902.00, 
1903.00, 
1904.00, 
1905.00, 
1906.00, 
1907.00, 
1908.00, 
1909.00, 
1910.00, 
1911.00, 
1912.00, 
1913.00, 
1914.00, 
1915.00, 
1916.00, 
1917.00, 
1918.00, 
1919.00, 
1920.00, 
1921.00, 
1922.00, 
1923.00, 
1924.00, 
1925.00, 
1926.00, 
1927.00, 
1928.00, 
1929.00, 
1930.00, 
1931.00, 
1932.00, 
1933.00, 
1934.00, 
1935.00, 
1936.00, 
1937.00, 
1938.00, 
1939.00, 
1940.00, 
1941.00, 
1942.00, 
1943.00, 
1944.00, 
1945.00, 
1946.00, 
1947.00, 
1948.00, 
1949.00, 
1950.00, 
1951.00, 
1952.00, 
1953.00, 
1954.00, 
1955.00, 
1956.00, 
1957.00, 
1958.00, 
1959.00, 
1960.00, 
1961.00, 
1962.00, 
1963.00, 
1964.00, 
1965.00, 
1966.00, 
1967.00, 
1968.00, 
1969.00, 
1970.00, 
1971.00, 
1972.00, 
1973.00, 
1974.00, 
1975.00, 
1976.00, 
1977.00, 
1978.00, 
1979.00, 
1980.00, 
1981.00, 
1982.00, 
1983.00, 
1984.00, 
1985.00, 
1986.00, 
1987.00, 
1988.00, 
1989.00, 
1990.00, 
1991.00, 
1992.00, 
1993.00, 
1994.00, 
1995.00, 
1996.00, 
1997.00, 
1998.00, 
1999.00, 
2000.00, 
2001.00, 
2002.00, 
2003.00, 
2004.00, 
2005.00, 
2006.00, 
2007.00, 
2008.00, 
2009.00, 
2010.00, 
2011.00, 
2012.00, 
2013.00, 
2014.00, 
2015.00, 
2016.00, 
2017.00, 
2018.00, 
2019.00, 
2020.00, 
2021.00, 
2022.00, 
2023.00, 
2024.00, 
2025.00, 
2026.00, 
2027.00, 
2028.00, 
2029.00, 
2030.00, 
2031.00, 
2032.00, 
2033.00, 
2034.00, 
2035.00, 
2036.00, 
2037.00, 
2038.00, 
2039.00, 
2040.00, 
2041.00, 
2042.00, 
2043.00, 
2044.00, 
2045.00, 
2046.00, 
2047.00, 
2048.00, 
2049.00, 
2050.00, 
2051.00, 
2052.00, 
2053.00, 
2054.00, 
2055.00, 
2056.00, 
2057.00, 
2058.00, 
2059.00, 
2060.00, 
2061.00, 
2062.00, 
2063.00, 
2064.00, 
2065.00, 
2066.00, 
2067.00, 
2068.00, 
2069.00, 
2070.00, 
2071.00, 
2072.00, 
2073.00, 
2074.00, 
2075.00, 
2076.00, 
2077.00, 
2078.00, 
2079.00, 
2080.00, 
2081.00, 
2082.00, 
2083.00, 
2084.00, 
2085.00, 
2086.00, 
2087.00, 
2088.00, 
2089.00, 
2090.00, 
2091.00, 
2092.00, 
2093.00, 
2094.00, 
2095.00, 
2096.00, 
2097.00, 
2098.00, 
2099.00, 
2100.00, 
2101.00, 
2102.00, 
2103.00, 
2104.00, 
2105.00, 
2106.00, 
2107.00, 
2108.00, 
2109.00, 
2110.00, 
2111.00, 
2112.00, 
2113.00, 
2114.00, 
2115.00, 
2116.00, 
2117.00, 
2118.00, 
2119.00, 
2120.00, 
2121.00, 
2122.00, 
2123.00, 
2124.00, 
2125.00, 
2126.00, 
2127.00, 
2128.00, 
2129.00, 
2130.00, 
2131.00, 
2132.00, 
2133.00, 
2134.00, 
2135.00, 
2136.00, 
2137.00, 
2138.00, 
2139.00, 
2140.00, 
2141.00, 
2142.00, 
2143.00, 
2144.00, 
2145.00, 
2146.00, 
2147.00, 
2148.00, 
2149.00, 
2150.00, 
2151.00, 
2152.00, 
2153.00, 
2154.00, 
2155.00, 
2156.00, 
2157.00, 
2158.00, 
2159.00, 
2160.00, 
2161.00, 
2162.00, 
2163.00, 
2164.00, 
2165.00, 
2166.00, 
2167.00, 
2168.00, 
2169.00, 
2170.00, 
2171.00, 
2172.00, 
2173.00, 
2174.00, 
2175.00, 
2176.00, 
2177.00, 
2178.00, 
2179.00, 
2180.00, 
2181.00, 
2182.00, 
2183.00, 
2184.00, 
2185.00, 
2186.00, 
2187.00, 
2188.00, 
2189.00, 
2190.00, 
2191.00, 
2192.00, 
2193.00, 
2194.00, 
2195.00, 
2196.00, 
2197.00, 
2198.00, 
2199.00, 
2200.00, 
2201.00, 
2202.00, 
2203.00, 
2204.00, 
2205.00, 
2206.00, 
2207.00, 
2208.00, 
2209.00, 
2210.00, 
2211.00, 
2212.00, 
2213.00, 
2214.00, 
2215.00, 
2216.00, 
2217.00, 
2218.00, 
2219.00, 
2220.00, 
2221.00, 
2222.00, 
2223.00, 
2224.00, 
2225.00, 
2226.00, 
2227.00, 
2228.00, 
2229.00, 
2230.00, 
2231.00, 
2232.00, 
2233.00, 
2234.00, 
2235.00, 
2236.00, 
2237.00, 
2238.00, 
2239.00, 
2240.00, 
2241.00, 
2242.00, 
2243.00, 
2244.00, 
2245.00, 
2246.00, 
2247.00, 
2248.00, 
2249.00, 
2250.00, 
2251.00, 
2252.00, 
2253.00, 
2254.00, 
2255.00, 
2256.00, 
2257.00, 
2258.00, 
2259.00, 
2260.00, 
2261.00, 
2262.00, 
2263.00, 
2264.00, 
2265.00, 
2266.00, 
2267.00, 
2268.00, 
2269.00, 
2270.00, 
2271.00, 
2272.00, 
2273.00, 
2274.00, 
2275.00, 
2276.00, 
2277.00, 
2278.00, 
2279.00, 
2280.00, 
2281.00, 
2282.00, 
2283.00, 
2284.00, 
2285.00, 
2286.00, 
2287.00, 
2288.00, 
2289.00, 
2290.00, 
2291.00, 
2292.00, 
2293.00, 
2294.00, 
2295.00, 
2296.00, 
2297.00, 
2298.00, 
2299.00, 
2300.00, 
2301.00, 
2302.00, 
2303.00, 
2304.00, 
2305.00, 
2306.00, 
2307.00, 
2308.00, 
2309.00, 
2310.00, 
2311.00, 
2312.00, 
2313.00, 
2314.00, 
2315.00, 
2316.00, 
2317.00, 
2318.00, 
2319.00, 
2320.00, 
2321.00, 
2322.00, 
2323.00, 
2324.00, 
2325.00, 
2326.00, 
2327.00, 
2328.00, 
2329.00, 
2330.00, 
2331.00, 
2332.00, 
2333.00, 
2334.00, 
2335.00, 
2336.00, 
2337.00, 
2338.00, 
2339.00, 
2340.00, 
2341.00, 
2342.00, 
2343.00, 
2344.00, 
2345.00, 
2346.00, 
2347.00, 
2348.00, 
2349.00, 
2350.00, 
2351.00, 
2352.00, 
2353.00, 
2354.00, 
2355.00, 
2356.00, 
2357.00, 
2358.00, 
2359.00, 
2360.00, 
2361.00, 
2362.00, 
2363.00, 
2364.00, 
2365.00, 
2366.00, 
2367.00, 
2368.00, 
2369.00, 
2370.00, 
2371.00, 
2372.00, 
2373.00, 
2374.00, 
2375.00, 
2376.00, 
2377.00, 
2378.00, 
2379.00, 
2380.00, 
2381.00, 
2382.00, 
2383.00, 
2384.00, 
2385.00, 
2386.00, 
2387.00, 
2388.00, 
2389.00, 
2390.00, 
2391.00, 
2392.00, 
2393.00, 
2394.00, 
2395.00, 
2396.00, 
2397.00, 
2398.00, 
2399.00, 
2400.00, 
2401.00, 
2402.00, 
2403.00, 
2404.00, 
2405.00, 
2406.00, 
2407.00, 
2408.00, 
2409.00, 
2410.00, 
2411.00, 
2412.00, 
2413.00, 
2414.00, 
2415.00, 
2416.00, 
2417.00, 
2418.00, 
2419.00, 
2420.00, 
2421.00, 
2422.00, 
2423.00, 
2424.00, 
2425.00, 
2426.00, 
2427.00, 
2428.00, 
2429.00, 
2430.00, 
2431.00, 
2432.00, 
2433.00, 
2434.00, 
2435.00, 
2436.00, 
2437.00, 
2438.00, 
2439.00, 
2440.00, 
2441.00, 
2442.00, 
2443.00, 
2444.00, 
2445.00, 
2446.00, 
2447.00, 
2448.00, 
2449.00, 
2450.00, 
2451.00, 
2452.00, 
2453.00, 
2454.00, 
2455.00, 
2456.00, 
2457.00, 
2458.00, 
2459.00, 
2460.00, 
2461.00, 
2462.00, 
2463.00, 
2464.00, 
2465.00, 
2466.00, 
2467.00, 
2468.00, 
2469.00, 
2470.00, 
2471.00, 
2472.00, 
2473.00, 
2474.00, 
2475.00, 
2476.00, 
2477.00, 
2478.00, 
2479.00, 
2480.00, 
2481.00, 
2482.00, 
2483.00, 
2484.00, 
2485.00, 
2486.00, 
2487.00, 
2488.00, 
2489.00, 
2490.00, 
2491.00, 
2492.00, 
2493.00, 
2494.00, 
2495.00, 
2496.00, 
2497.00, 
2498.00, 
2499.00, 
2500.00, 
2501.00, 
2502.00, 
2503.00, 
2504.00, 
2505.00, 
2506.00, 
2507.00, 
2508.00, 
2509.00, 
2510.00, 
2511.00, 
2512.00, 
2513.00, 
2514.00, 
2515.00, 
2516.00, 
2517.00, 
2518.00, 
2519.00, 
2520.00, 
2521.00, 
2522.00, 
2523.00, 
2524.00, 
2525.00, 
2526.00, 
2527.00, 
2528.00, 
2529.00, 
2530.00, 
2531.00, 
2532.00, 
2533.00, 
2534.00, 
2535.00, 
2536.00, 
2537.00, 
2538.00, 
2539.00, 
2540.00, 
2541.00, 
2542.00, 
2543.00, 
2544.00, 
2545.00, 
2546.00, 
2547.00, 
2548.00, 
2549.00, 
2550.00, 
2551.00, 
2552.00, 
2553.00, 
2554.00, 
2555.00, 
2556.00, 
2557.00, 
2558.00, 
2559.00, 
2560.00, 
2561.00, 
2562.00, 
2563.00, 
2564.00, 
2565.00, 
2566.00, 
2567.00, 
2568.00, 
2569.00, 
2570.00, 
2571.00, 
2572.00, 
2573.00, 
2574.00, 
2575.00, 
2576.00, 
2577.00, 
2578.00, 
2579.00, 
2580.00, 
2581.00, 
2582.00, 
2583.00, 
2584.00, 
2585.00, 
2586.00, 
2587.00, 
2588.00, 
2589.00, 
2590.00, 
2591.00, 
2592.00, 
2593.00, 
2594.00, 
2595.00, 
2596.00, 
2597.00, 
2598.00, 
2599.00, 
2600.00, 
