"1aP2 - RawData"
"Wavelength nm.","T%"
200.00,0.002
201.00,-0.002
202.00,-0.001
203.00,-0.002
204.00,-0.002
205.00,0.004
206.00,0.001
207.00,0.002
208.00,-0.000
209.00,0.004
210.00,0.001
211.00,-0.001
212.00,0.000
213.00,0.001
214.00,0.002
215.00,0.001
216.00,-0.003
217.00,0.001
218.00,0.005
219.00,0.001
220.00,0.002
221.00,0.002
222.00,0.000
223.00,0.003
224.00,0.001
225.00,0.005
226.00,0.003
227.00,-0.000
228.00,0.001
229.00,0.001
230.00,0.003
231.00,0.001
232.00,0.002
233.00,-0.002
234.00,0.002
235.00,0.001
236.00,0.002
237.00,0.001
238.00,0.002
239.00,0.002
240.00,-0.001
241.00,0.000
242.00,0.002
243.00,0.002
244.00,-0.000
245.00,-0.003
246.00,-0.000
247.00,-0.000
248.00,-0.000
249.00,-0.000
250.00,0.001
251.00,0.001
252.00,0.002
253.00,-0.001
254.00,0.003
255.00,-0.000
256.00,0.001
257.00,-0.000
258.00,-0.000
259.00,-0.002
260.00,0.001
261.00,0.000
262.00,0.000
263.00,0.002
264.00,-0.001
265.00,0.001
266.00,-0.001
267.00,0.001
268.00,0.001
269.00,-0.000
270.00,-0.000
271.00,-0.001
272.00,0.000
273.00,-0.000
274.00,0.001
275.00,-0.001
276.00,0.000
277.00,0.001
278.00,0.001
279.00,0.001
280.00,0.001
281.00,0.000
282.00,-0.001
283.00,0.001
284.00,0.001
285.00,0.003
286.00,-0.003
287.00,-0.001
288.00,0.000
289.00,0.000
290.00,-0.001
291.00,-0.000
292.00,-0.000
293.00,0.001
294.00,0.000
295.00,0.001
296.00,-0.001
297.00,0.001
298.00,0.001
299.00,0.001
300.00,0.003
301.00,0.005
302.00,0.008
303.00,0.012
304.00,0.015
305.00,0.030
306.00,0.045
307.00,0.065
308.00,0.106
309.00,0.156
310.00,0.215
311.00,0.299
312.00,0.398
313.00,0.543
314.00,0.706
315.00,0.899
316.00,1.143
317.00,1.437
318.00,1.769
319.00,2.130
320.00,2.578
321.00,3.062
322.00,3.597
323.00,4.191
324.00,4.803
325.00,5.473
326.00,6.114
327.00,6.849
328.00,7.603
329.00,8.350
330.00,9.161
331.00,9.933
332.00,10.737
333.00,11.545
334.00,12.324
335.00,13.116
336.00,13.904
337.00,14.645
338.00,15.417
339.00,16.104
340.00,16.853
341.00,17.511
342.00,18.197
343.00,18.766
344.00,19.399
345.00,19.994
346.00,20.528
347.00,20.917
348.00,21.386
349.00,21.835
350.00,22.225
351.00,22.652
352.00,22.981
353.00,23.254
354.00,23.585
355.00,23.887
356.00,24.143
357.00,24.371
358.00,24.580
359.00,24.855
360.00,25.072
361.00,25.173
362.00,25.352
363.00,25.477
364.00,25.526
365.00,25.670
366.00,25.718
367.00,25.765
368.00,25.860
369.00,25.928
370.00,25.982
371.00,26.022
372.00,25.959
373.00,25.942
374.00,25.968
375.00,25.990
376.00,25.863
377.00,25.810
378.00,25.703
379.00,25.635
380.00,25.624
381.00,25.616
382.00,25.562
383.00,25.599
384.00,25.564
385.00,25.630
386.00,25.626
387.00,25.702
388.00,25.774
389.00,25.743
390.00,25.845
391.00,25.804
392.00,25.886
393.00,25.869
394.00,25.902
395.00,25.894
396.00,25.875
397.00,25.898
398.00,25.877
399.00,25.889
400.00,25.912
401.00,25.918
402.00,25.891
403.00,25.841
404.00,25.841
405.00,25.824
406.00,25.828
407.00,25.788
408.00,25.831
409.00,25.725
410.00,25.640
411.00,25.661
412.00,25.640
413.00,25.677
414.00,25.602
415.00,25.660
416.00,25.723
417.00,25.653
418.00,25.712
419.00,25.846
420.00,25.890
421.00,25.867
422.00,25.857
423.00,25.949
424.00,26.020
425.00,25.976
426.00,26.018
427.00,26.091
428.00,26.142
429.00,26.187
430.00,26.209
431.00,26.277
432.00,26.317
433.00,26.369
434.00,26.404
435.00,26.512
436.00,26.539
437.00,26.600
438.00,26.679
439.00,26.742
440.00,26.811
441.00,26.891
442.00,27.025
443.00,27.066
444.00,27.184
445.00,27.241
446.00,27.330
447.00,27.427
448.00,27.567
449.00,27.647
450.00,27.781
451.00,27.816
452.00,27.935
453.00,28.068
454.00,28.180
455.00,28.267
456.00,28.372
457.00,28.528
458.00,28.608
459.00,28.750
460.00,28.876
461.00,29.013
462.00,29.085
463.00,29.251
464.00,29.391
465.00,29.507
466.00,29.666
467.00,29.780
468.00,29.856
469.00,29.954
470.00,30.067
471.00,30.140
472.00,30.296
473.00,30.387
474.00,30.495
475.00,30.601
476.00,30.691
477.00,30.859
478.00,30.941
479.00,31.139
480.00,31.269
481.00,31.369
482.00,31.514
483.00,31.678
484.00,31.842
485.00,31.970
486.00,32.137
487.00,32.303
488.00,32.444
489.00,32.573
490.00,32.739
491.00,32.896
492.00,32.996
493.00,33.241
494.00,33.409
495.00,33.343
496.00,33.458
497.00,33.495
498.00,33.683
499.00,33.921
500.00,34.013
501.00,34.140
502.00,34.229
503.00,34.347
504.00,34.400
505.00,34.557
506.00,34.697
507.00,34.780
508.00,34.911
509.00,35.108
510.00,35.260
511.00,35.239
512.00,35.403
513.00,35.546
514.00,35.649
515.00,35.818
516.00,35.898
517.00,35.985
518.00,36.145
519.00,36.185
520.00,36.190
521.00,36.324
522.00,36.413
523.00,36.411
524.00,36.519
525.00,36.662
526.00,36.779
527.00,36.846
528.00,36.915
529.00,37.099
530.00,37.233
531.00,37.291
532.00,37.340
533.00,37.484
534.00,37.528
535.00,37.616
536.00,37.701
537.00,37.762
538.00,37.815
539.00,37.893
540.00,37.963
541.00,37.987
542.00,37.955
543.00,38.057
544.00,38.095
545.00,38.202
546.00,38.213
547.00,38.393
548.00,38.485
549.00,38.557
550.00,38.521
551.00,38.694
552.00,38.737
553.00,38.760
554.00,38.844
555.00,38.865
556.00,38.891
557.00,38.892
558.00,39.048
559.00,39.168
560.00,39.166
561.00,39.207
562.00,39.309
563.00,39.354
564.00,39.373
565.00,39.345
566.00,39.389
567.00,39.399
568.00,39.454
569.00,39.695
570.00,39.604
571.00,39.543
572.00,39.575
573.00,39.566
574.00,39.558
575.00,39.640
576.00,39.624
577.00,39.735
578.00,39.799
579.00,39.869
580.00,39.867
581.00,40.060
582.00,40.148
583.00,40.115
584.00,40.242
585.00,40.303
586.00,40.300
587.00,40.365
588.00,40.366
589.00,40.335
590.00,40.427
591.00,40.490
592.00,40.414
593.00,40.423
594.00,40.580
595.00,40.613
596.00,40.649
597.00,40.687
598.00,40.730
599.00,40.774
600.00,40.857
601.00,40.838
602.00,40.799
603.00,40.691
604.00,40.985
605.00,41.175
606.00,41.015
607.00,41.041
608.00,41.291
609.00,41.313
610.00,41.194
611.00,41.217
612.00,41.266
613.00,41.327
614.00,41.402
615.00,41.389
616.00,41.562
617.00,41.518
618.00,41.474
619.00,41.596
620.00,41.667
621.00,41.744
622.00,41.728
623.00,41.783
624.00,41.892
625.00,41.905
626.00,41.905
627.00,41.976
628.00,41.894
629.00,41.837
630.00,42.101
631.00,42.295
632.00,42.233
633.00,42.383
634.00,42.452
635.00,42.457
636.00,42.554
637.00,42.617
638.00,42.669
639.00,42.759
640.00,42.763
641.00,42.855
642.00,42.911
643.00,42.885
644.00,42.979
645.00,43.144
646.00,43.255
647.00,43.272
648.00,43.385
649.00,43.388
650.00,43.366
651.00,43.566
652.00,43.710
653.00,43.610
654.00,43.687
655.00,43.858
656.00,44.159
657.00,43.947
658.00,43.968
659.00,44.105
660.00,44.248
661.00,44.235
662.00,44.195
663.00,44.411
664.00,44.679
665.00,44.926
666.00,44.640
667.00,44.581
668.00,44.814
669.00,45.624
670.00,45.292
671.00,45.211
672.00,45.425
673.00,45.362
674.00,45.485
675.00,45.442
676.00,45.702
677.00,45.814
678.00,45.618
679.00,45.842
680.00,45.966
681.00,46.093
682.00,46.105
683.00,46.072
684.00,46.263
685.00,46.334
686.00,46.236
687.00,46.420
688.00,46.483
689.00,46.398
690.00,46.718
691.00,46.974
692.00,46.702
693.00,46.674
694.00,46.914
695.00,47.114
696.00,47.078
697.00,47.146
698.00,47.148
699.00,47.475
700.00,47.596
701.00,47.478
702.00,47.550
703.00,47.803
704.00,47.831
705.00,47.763
706.00,47.871
707.00,47.878
708.00,47.757
709.00,48.177
710.00,48.589
711.00,48.062
712.00,48.115
713.00,48.314
714.00,48.380
715.00,48.316
716.00,48.377
717.00,48.471
718.00,48.666
719.00,48.580
720.00,48.679
721.00,53.284
722.00,53.126
723.00,53.116
724.00,53.142
725.00,53.227
726.00,53.227
727.00,53.258
728.00,53.230
729.00,53.248
730.00,53.246
731.00,53.316
732.00,53.313
733.00,53.409
734.00,53.353
735.00,53.431
736.00,53.520
737.00,53.498
738.00,53.598
739.00,53.522
740.00,53.625
741.00,53.636
742.00,53.617
743.00,53.604
744.00,53.634
745.00,53.622
746.00,53.614
747.00,53.618
748.00,53.549
749.00,53.581
750.00,53.750
751.00,53.726
752.00,53.670
753.00,53.654
754.00,53.628
755.00,53.679
756.00,53.660
757.00,53.692
758.00,53.727
759.00,53.676
760.00,53.762
761.00,53.631
762.00,53.653
763.00,53.756
764.00,53.749
765.00,53.736
766.00,53.683
767.00,53.693
768.00,53.812
769.00,53.736
770.00,53.868
771.00,53.796
772.00,53.853
773.00,53.805
774.00,53.876
775.00,53.815
776.00,53.814
777.00,53.895
778.00,53.863
779.00,53.852
780.00,53.769
781.00,53.888
782.00,53.875
783.00,53.795
784.00,53.862
785.00,53.719
786.00,53.839
787.00,53.787
788.00,53.829
789.00,53.767
790.00,53.701
791.00,53.841
792.00,53.676
793.00,53.772
794.00,53.789
795.00,53.720
796.00,53.740
797.00,53.637
798.00,53.705
799.00,53.621
800.00,53.612
801.00,53.546
802.00,53.650
803.00,53.602
804.00,53.590
805.00,53.631
806.00,53.502
807.00,53.587
808.00,53.516
809.00,53.568
810.00,53.478
811.00,53.507
812.00,53.578
813.00,53.445
814.00,53.502
815.00,53.466
816.00,53.561
817.00,53.391
818.00,53.382
819.00,53.417
820.00,53.363
821.00,53.398
822.00,53.382
823.00,53.255
824.00,53.434
825.00,53.280
826.00,53.306
827.00,53.382
828.00,53.319
829.00,53.363
830.00,53.332
831.00,55.822
832.00,55.821
833.00,55.744
834.00,55.774
835.00,55.755
836.00,55.749
837.00,55.716
838.00,55.732
839.00,55.737
840.00,55.655
841.00,55.699
842.00,55.659
843.00,55.633
844.00,55.655
845.00,55.584
846.00,55.561
847.00,55.559
848.00,55.613
849.00,55.499
850.00,55.474
851.00,55.429
852.00,55.479
853.00,55.381
854.00,55.361
855.00,55.304
856.00,55.352
857.00,55.294
858.00,55.231
859.00,55.268
860.00,55.257
861.00,55.285
862.00,55.224
863.00,55.262
864.00,55.183
865.00,55.244
866.00,55.220
867.00,55.195
868.00,55.165
869.00,55.152
870.00,55.184
871.00,55.135
872.00,55.149
873.00,55.108
874.00,55.200
875.00,55.092
876.00,55.156
877.00,55.013
878.00,55.217
879.00,55.069
880.00,55.064
881.00,55.068
882.00,55.125
883.00,55.007
884.00,54.982
885.00,54.981
886.00,54.979
887.00,54.976
888.00,54.942
889.00,54.934
890.00,54.934
891.00,54.906
892.00,54.867
893.00,54.877
894.00,54.886
895.00,54.862
896.00,54.829
897.00,54.804
898.00,54.791
899.00,54.796
900.00,54.748
901.00,54.752
902.00,54.772
903.00,54.680
904.00,54.668
905.00,54.706
906.00,54.677
907.00,54.675
908.00,54.575
909.00,54.620
910.00,54.589
911.00,54.572
912.00,54.553
913.00,54.556
914.00,54.578
915.00,54.524
916.00,54.491
917.00,54.474
918.00,54.463
919.00,54.437
920.00,54.373
921.00,54.413
922.00,54.406
923.00,54.375
924.00,54.314
925.00,54.371
926.00,54.331
927.00,54.328
928.00,54.256
929.00,54.293
930.00,54.253
931.00,54.248
932.00,54.165
933.00,54.212
934.00,54.216
935.00,54.160
936.00,54.164
937.00,54.144
938.00,54.150
939.00,54.132
940.00,54.076
941.00,54.096
942.00,54.070
943.00,54.021
944.00,53.993
945.00,54.026
946.00,54.011
947.00,53.909
948.00,53.943
949.00,53.919
950.00,53.931
951.00,53.886
952.00,53.873
953.00,53.860
954.00,53.814
955.00,53.774
956.00,53.768
957.00,53.734
958.00,53.770
959.00,53.684
960.00,53.691
961.00,53.689
962.00,53.655
963.00,53.638
964.00,53.629
965.00,53.657
966.00,53.613
967.00,53.613
968.00,53.574
969.00,53.638
970.00,53.585
971.00,53.602
972.00,53.568
973.00,53.595
974.00,53.640
975.00,53.590
976.00,53.606
977.00,53.590
978.00,53.688
979.00,53.592
980.00,53.612
981.00,53.614
982.00,53.542
983.00,53.611
984.00,53.556
985.00,53.589
986.00,53.546
987.00,53.568
988.00,53.534
989.00,53.511
990.00,53.511
991.00,53.502
992.00,53.499
993.00,53.469
994.00,53.467
995.00,53.455
996.00,53.454
997.00,53.458
998.00,53.428
999.00,53.440
1000.00,53.412
1001.00,53.396
1002.00,53.407
1003.00,53.379
1004.00,53.363
1005.00,53.328
1006.00,53.369
1007.00,53.342
1008.00,53.322
1009.00,53.306
1010.00,53.315
1011.00,53.314
1012.00,53.284
1013.00,53.293
1014.00,53.248
1015.00,53.275
1016.00,53.237
1017.00,53.196
1018.00,53.218
1019.00,53.171
1020.00,53.180
1021.00,53.162
1022.00,53.175
1023.00,53.116
1024.00,53.142
1025.00,53.106
1026.00,53.093
1027.00,53.087
1028.00,53.063
1029.00,53.060
1030.00,53.025
1031.00,53.026
1032.00,52.983
1033.00,52.989
1034.00,52.961
1035.00,52.939
1036.00,52.909
1037.00,52.925
1038.00,52.901
1039.00,52.864
1040.00,52.887
1041.00,52.838
1042.00,52.835
1043.00,52.812
1044.00,52.844
1045.00,52.807
1046.00,52.821
1047.00,52.832
1048.00,52.828
1049.00,52.846
1050.00,52.824
1051.00,52.898
1052.00,52.892
1053.00,52.877
1054.00,52.890
1055.00,52.953
1056.00,52.913
1057.00,52.923
1058.00,52.895
1059.00,52.900
1060.00,52.926
1061.00,52.874
1062.00,52.874
1063.00,52.889
1064.00,52.884
1065.00,52.867
1066.00,52.864
1067.00,52.843
1068.00,52.897
1069.00,52.842
1070.00,52.833
1071.00,52.840
1072.00,52.848
1073.00,52.832
1074.00,52.818
1075.00,52.800
1076.00,52.811
1077.00,52.802
1078.00,52.781
1079.00,52.805
1080.00,52.795
1081.00,52.790
1082.00,52.805
1083.00,52.771
1084.00,52.774
1085.00,52.779
1086.00,52.754
1087.00,52.777
1088.00,52.744
1089.00,52.727
1090.00,52.735
1091.00,52.734
1092.00,52.723
1093.00,52.720
1094.00,52.686
1095.00,52.700
1096.00,52.679
1097.00,52.691
1098.00,52.666
1099.00,52.679
1100.00,52.653
1101.00,52.660
1102.00,52.618
1103.00,52.636
1104.00,52.629
1105.00,52.602
1106.00,52.589
1107.00,52.585
1108.00,52.572
1109.00,52.571
1110.00,52.560
1111.00,52.552
1112.00,52.559
1113.00,52.551
1114.00,52.523
1115.00,52.561
1116.00,52.537
1117.00,52.525
1118.00,52.510
1119.00,52.510
1120.00,52.505
1121.00,52.497
1122.00,52.467
1123.00,52.473
1124.00,52.467
1125.00,52.487
1126.00,52.481
1127.00,52.474
1128.00,52.468
1129.00,52.447
1130.00,52.422
1131.00,52.436
1132.00,52.419
1133.00,52.417
1134.00,52.407
1135.00,52.381
1136.00,52.402
1137.00,52.423
1138.00,52.401
1139.00,52.419
1140.00,52.425
1141.00,52.441
1142.00,52.388
1143.00,52.410
1144.00,52.375
1145.00,52.380
1146.00,52.369
1147.00,52.366
1148.00,52.360
1149.00,52.362
1150.00,52.374
1151.00,52.368
1152.00,52.347
1153.00,52.349
1154.00,52.342
1155.00,52.350
1156.00,52.355
1157.00,52.370
1158.00,52.347
1159.00,52.377
1160.00,52.361
1161.00,52.385
1162.00,52.397
1163.00,52.353
1164.00,52.378
1165.00,52.358
1166.00,52.352
1167.00,52.364
1168.00,52.356
1169.00,52.350
1170.00,52.371
1171.00,52.339
1172.00,52.336
1173.00,52.327
1174.00,52.339
1175.00,52.336
1176.00,52.347
1177.00,52.352
1178.00,52.339
1179.00,52.337
1180.00,52.336
1181.00,52.364
1182.00,52.331
1183.00,52.343
1184.00,52.349
1185.00,52.340
1186.00,52.326
1187.00,52.334
1188.00,52.331
1189.00,52.339
1190.00,52.319
1191.00,52.326
1192.00,52.363
1193.00,52.323
1194.00,52.342
1195.00,52.318
1196.00,52.345
1197.00,52.360
1198.00,52.326
1199.00,52.323
1200.00,52.344
1201.00,52.348
1202.00,52.316
1203.00,52.336
1204.00,52.308
1205.00,52.329
1206.00,52.331
1207.00,52.323
1208.00,52.316
1209.00,52.325
1210.00,52.323
1211.00,52.336
1212.00,52.337
1213.00,52.308
1214.00,52.344
1215.00,52.304
1216.00,52.316
1217.00,52.330
1218.00,52.310
1219.00,52.330
1220.00,52.321
1221.00,52.326
1222.00,52.332
1223.00,52.367
1224.00,52.344
1225.00,52.340
1226.00,52.326
1227.00,52.325
1228.00,52.347
1229.00,52.338
1230.00,52.368
1231.00,52.357
1232.00,52.368
1233.00,52.391
1234.00,52.368
1235.00,52.371
1236.00,52.383
1237.00,52.377
1238.00,52.370
1239.00,52.390
1240.00,52.364
1241.00,52.383
1242.00,52.392
1243.00,52.397
1244.00,52.386
1245.00,52.390
1246.00,52.403
1247.00,52.396
1248.00,52.382
1249.00,52.417
1250.00,52.434
1251.00,52.400
1252.00,52.420
1253.00,52.411
1254.00,52.433
1255.00,52.417
1256.00,52.410
1257.00,52.444
1258.00,52.474
1259.00,52.433
1260.00,52.472
1261.00,52.465
1262.00,52.439
1263.00,52.446
1264.00,52.441
1265.00,52.449
1266.00,52.456
1267.00,52.466
1268.00,52.492
1269.00,52.505
1270.00,52.525
1271.00,52.504
1272.00,52.514
1273.00,52.543
1274.00,52.533
1275.00,52.541
1276.00,52.512
1277.00,52.545
1278.00,52.542
1279.00,52.542
1280.00,52.536
1281.00,52.555
1282.00,52.575
1283.00,52.551
1284.00,52.567
1285.00,52.565
1286.00,52.592
1287.00,52.581
1288.00,52.593
1289.00,52.577
1290.00,52.605
1291.00,52.601
1292.00,52.584
1293.00,52.602
1294.00,52.626
1295.00,52.627
1296.00,52.639
1297.00,52.641
1298.00,52.680
1299.00,52.639
1300.00,52.654
1301.00,52.636
1302.00,52.690
1303.00,52.659
1304.00,52.651
1305.00,52.700
1306.00,52.676
1307.00,52.699
1308.00,52.694
1309.00,52.708
1310.00,52.707
1311.00,52.682
1312.00,52.696
1313.00,52.719
1314.00,52.729
1315.00,52.760
1316.00,52.745
1317.00,52.777
1318.00,52.770
1319.00,52.783
1320.00,52.769
1321.00,52.969
1322.00,52.945
1323.00,52.937
1324.00,52.942
1325.00,52.915
1326.00,52.926
1327.00,52.909
1328.00,52.905
1329.00,52.898
1330.00,52.921
1331.00,52.901
1332.00,52.925
1333.00,52.920
1334.00,52.961
1335.00,52.986
1336.00,53.018
1337.00,53.046
1338.00,53.111
1339.00,53.132
1340.00,53.202
1341.00,53.269
1342.00,53.318
1343.00,53.377
1344.00,53.400
1345.00,53.481
1346.00,53.513
1347.00,53.508
1348.00,53.553
1349.00,53.566
1350.00,53.577
1351.00,53.598
1352.00,53.656
1353.00,53.598
1354.00,53.636
1355.00,53.559
1356.00,53.625
1357.00,53.649
1358.00,53.663
1359.00,53.641
1360.00,53.708
1361.00,53.625
1362.00,53.611
1363.00,53.694
1364.00,53.637
1365.00,53.656
1366.00,53.781
1367.00,53.676
1368.00,53.627
1369.00,53.690
1370.00,53.639
1371.00,53.404
1372.00,53.549
1373.00,53.636
1374.00,53.652
1375.00,53.609
1376.00,53.626
1377.00,53.590
1378.00,53.678
1379.00,53.674
1380.00,53.671
1381.00,53.690
1382.00,53.573
1383.00,53.665
1384.00,53.591
1385.00,53.585
1386.00,53.695
1387.00,53.598
1388.00,53.593
1389.00,53.622
1390.00,53.622
1391.00,53.564
1392.00,53.625
1393.00,53.686
1394.00,53.669
1395.00,53.618
1396.00,53.519
1397.00,53.641
1398.00,53.675
1399.00,53.552
1400.00,53.414
1401.00,53.599
1402.00,53.714
1403.00,53.598
1404.00,53.603
1405.00,53.684
1406.00,53.678
1407.00,53.673
1408.00,53.621
1409.00,53.673
1410.00,53.693
1411.00,53.727
1412.00,53.938
1413.00,53.629
1414.00,53.630
1415.00,53.709
1416.00,53.731
1417.00,53.793
1418.00,53.718
1419.00,53.724
1420.00,53.778
1421.00,53.842
1422.00,53.795
1423.00,53.817
1424.00,53.792
1425.00,53.854
1426.00,53.848
1427.00,53.857
1428.00,53.853
1429.00,53.860
1430.00,53.893
1431.00,53.887
1432.00,53.911
1433.00,53.929
1434.00,53.918
1435.00,53.975
1436.00,53.977
1437.00,53.966
1438.00,53.960
1439.00,54.010
1440.00,54.019
1441.00,54.012
1442.00,54.043
1443.00,54.074
1444.00,54.167
1445.00,54.058
1446.00,54.069
1447.00,54.142
1448.00,54.182
1449.00,54.137
1450.00,54.139
1451.00,54.164
1452.00,54.184
1453.00,54.208
1454.00,54.209
1455.00,54.238
1456.00,54.275
1457.00,54.237
1458.00,54.292
1459.00,54.287
1460.00,54.290
1461.00,54.312
1462.00,54.341
1463.00,54.342
1464.00,54.375
1465.00,54.369
1466.00,54.359
1467.00,54.391
1468.00,54.436
1469.00,54.397
1470.00,54.439
1471.00,54.432
1472.00,54.457
1473.00,54.464
1474.00,54.490
1475.00,54.522
1476.00,54.520
1477.00,54.495
1478.00,54.540
1479.00,54.543
1480.00,54.533
1481.00,54.545
1482.00,54.557
1483.00,54.590
1484.00,54.620
1485.00,54.608
1486.00,54.648
1487.00,54.653
1488.00,54.682
1489.00,54.655
1490.00,54.653
1491.00,54.691
1492.00,54.709
1493.00,54.661
1494.00,54.725
1495.00,54.697
1496.00,54.731
1497.00,54.728
1498.00,54.756
1499.00,54.744
1500.00,54.777
1501.00, 
1502.00, 
1503.00, 
1504.00, 
1505.00, 
1506.00, 
1507.00, 
1508.00, 
1509.00, 
1510.00, 
1511.00, 
1512.00, 
1513.00, 
1514.00, 
1515.00, 
1516.00, 
1517.00, 
1518.00, 
1519.00, 
1520.00, 
1521.00, 
1522.00, 
1523.00, 
1524.00, 
1525.00, 
1526.00, 
1527.00, 
1528.00, 
1529.00, 
1530.00, 
1531.00, 
1532.00, 
1533.00, 
1534.00, 
1535.00, 
1536.00, 
1537.00, 
1538.00, 
1539.00, 
1540.00, 
1541.00, 
1542.00, 
1543.00, 
1544.00, 
1545.00, 
1546.00, 
1547.00, 
1548.00, 
1549.00, 
1550.00, 
1551.00, 
1552.00, 
1553.00, 
1554.00, 
1555.00, 
1556.00, 
1557.00, 
1558.00, 
1559.00, 
1560.00, 
1561.00, 
1562.00, 
1563.00, 
1564.00, 
1565.00, 
1566.00, 
1567.00, 
1568.00, 
1569.00, 
1570.00, 
1571.00, 
1572.00, 
1573.00, 
1574.00, 
1575.00, 
1576.00, 
1577.00, 
1578.00, 
1579.00, 
1580.00, 
1581.00, 
1582.00, 
1583.00, 
1584.00, 
1585.00, 
1586.00, 
1587.00, 
1588.00, 
1589.00, 
1590.00, 
1591.00, 
1592.00, 
1593.00, 
1594.00, 
1595.00, 
1596.00, 
1597.00, 
1598.00, 
1599.00, 
1600.00, 
1601.00, 
1602.00, 
1603.00, 
1604.00, 
1605.00, 
1606.00, 
1607.00, 
1608.00, 
1609.00, 
1610.00, 
1611.00, 
1612.00, 
1613.00, 
1614.00, 
1615.00, 
1616.00, 
1617.00, 
1618.00, 
1619.00, 
1620.00, 
1621.00, 
1622.00, 
1623.00, 
1624.00, 
1625.00, 
1626.00, 
1627.00, 
1628.00, 
1629.00, 
1630.00, 
1631.00, 
1632.00, 
1633.00, 
1634.00, 
1635.00, 
1636.00, 
1637.00, 
1638.00, 
1639.00, 
1640.00, 
1641.00, 
1642.00, 
1643.00, 
1644.00, 
1645.00, 
1646.00, 
1647.00, 
1648.00, 
1649.00, 
1650.00, 
1651.00, 
1652.00, 
1653.00, 
1654.00, 
1655.00, 
1656.00, 
1657.00, 
1658.00, 
1659.00, 
1660.00, 
1661.00, 
1662.00, 
1663.00, 
1664.00, 
1665.00, 
1666.00, 
1667.00, 
1668.00, 
1669.00, 
1670.00, 
1671.00, 
1672.00, 
1673.00, 
1674.00, 
1675.00, 
1676.00, 
1677.00, 
1678.00, 
1679.00, 
1680.00, 
1681.00, 
1682.00, 
1683.00, 
1684.00, 
1685.00, 
1686.00, 
1687.00, 
1688.00, 
1689.00, 
1690.00, 
1691.00, 
1692.00, 
1693.00, 
1694.00, 
1695.00, 
1696.00, 
1697.00, 
1698.00, 
1699.00, 
1700.00, 
1701.00, 
1702.00, 
1703.00, 
1704.00, 
1705.00, 
1706.00, 
1707.00, 
1708.00, 
1709.00, 
1710.00, 
1711.00, 
1712.00, 
1713.00, 
1714.00, 
1715.00, 
1716.00, 
1717.00, 
1718.00, 
1719.00, 
1720.00, 
1721.00, 
1722.00, 
1723.00, 
1724.00, 
1725.00, 
1726.00, 
1727.00, 
1728.00, 
1729.00, 
1730.00, 
1731.00, 
1732.00, 
1733.00, 
1734.00, 
1735.00, 
1736.00, 
1737.00, 
1738.00, 
1739.00, 
1740.00, 
1741.00, 
1742.00, 
1743.00, 
1744.00, 
1745.00, 
1746.00, 
1747.00, 
1748.00, 
1749.00, 
1750.00, 
1751.00, 
1752.00, 
1753.00, 
1754.00, 
1755.00, 
1756.00, 
1757.00, 
1758.00, 
1759.00, 
1760.00, 
1761.00, 
1762.00, 
1763.00, 
1764.00, 
1765.00, 
1766.00, 
1767.00, 
1768.00, 
1769.00, 
1770.00, 
1771.00, 
1772.00, 
1773.00, 
1774.00, 
1775.00, 
1776.00, 
1777.00, 
1778.00, 
1779.00, 
1780.00, 
1781.00, 
1782.00, 
1783.00, 
1784.00, 
1785.00, 
1786.00, 
1787.00, 
1788.00, 
1789.00, 
1790.00, 
1791.00, 
1792.00, 
1793.00, 
1794.00, 
1795.00, 
1796.00, 
1797.00, 
1798.00, 
1799.00, 
1800.00, 
1801.00, 
1802.00, 
1803.00, 
1804.00, 
1805.00, 
1806.00, 
1807.00, 
1808.00, 
1809.00, 
1810.00, 
1811.00, 
1812.00, 
1813.00, 
1814.00, 
1815.00, 
1816.00, 
1817.00, 
1818.00, 
1819.00, 
1820.00, 
1821.00, 
1822.00, 
1823.00, 
1824.00, 
1825.00, 
1826.00, 
1827.00, 
1828.00, 
1829.00, 
1830.00, 
1831.00, 
1832.00, 
1833.00, 
1834.00, 
1835.00, 
1836.00, 
1837.00, 
1838.00, 
1839.00, 
1840.00, 
1841.00, 
1842.00, 
1843.00, 
1844.00, 
1845.00, 
1846.00, 
1847.00, 
1848.00, 
1849.00, 
1850.00, 
1851.00, 
1852.00, 
1853.00, 
1854.00, 
1855.00, 
1856.00, 
1857.00, 
1858.00, 
1859.00, 
1860.00, 
1861.00, 
1862.00, 
1863.00, 
1864.00, 
1865.00, 
1866.00, 
1867.00, 
1868.00, 
1869.00, 
1870.00, 
1871.00, 
1872.00, 
1873.00, 
1874.00, 
1875.00, 
1876.00, 
1877.00, 
1878.00, 
1879.00, 
1880.00, 
1881.00, 
1882.00, 
1883.00, 
1884.00, 
1885.00, 
1886.00, 
1887.00, 
1888.00, 
1889.00, 
1890.00, 
1891.00, 
1892.00, 
1893.00, 
1894.00, 
1895.00, 
1896.00, 
1897.00, 
1898.00, 
1899.00, 
1900.00, 
1901.00, 
1902.00, 
1903.00, 
1904.00, 
1905.00, 
1906.00, 
1907.00, 
1908.00, 
1909.00, 
1910.00, 
1911.00, 
1912.00, 
1913.00, 
1914.00, 
1915.00, 
1916.00, 
1917.00, 
1918.00, 
1919.00, 
1920.00, 
1921.00, 
1922.00, 
1923.00, 
1924.00, 
1925.00, 
1926.00, 
1927.00, 
1928.00, 
1929.00, 
1930.00, 
1931.00, 
1932.00, 
1933.00, 
1934.00, 
1935.00, 
1936.00, 
1937.00, 
1938.00, 
1939.00, 
1940.00, 
1941.00, 
1942.00, 
1943.00, 
1944.00, 
1945.00, 
1946.00, 
1947.00, 
1948.00, 
1949.00, 
1950.00, 
1951.00, 
1952.00, 
1953.00, 
1954.00, 
1955.00, 
1956.00, 
1957.00, 
1958.00, 
1959.00, 
1960.00, 
1961.00, 
1962.00, 
1963.00, 
1964.00, 
1965.00, 
1966.00, 
1967.00, 
1968.00, 
1969.00, 
1970.00, 
1971.00, 
1972.00, 
1973.00, 
1974.00, 
1975.00, 
1976.00, 
1977.00, 
1978.00, 
1979.00, 
1980.00, 
1981.00, 
1982.00, 
1983.00, 
1984.00, 
1985.00, 
1986.00, 
1987.00, 
1988.00, 
1989.00, 
1990.00, 
1991.00, 
1992.00, 
1993.00, 
1994.00, 
1995.00, 
1996.00, 
1997.00, 
1998.00, 
1999.00, 
2000.00, 
2001.00, 
2002.00, 
2003.00, 
2004.00, 
2005.00, 
2006.00, 
2007.00, 
2008.00, 
2009.00, 
2010.00, 
2011.00, 
2012.00, 
2013.00, 
2014.00, 
2015.00, 
2016.00, 
2017.00, 
2018.00, 
2019.00, 
2020.00, 
2021.00, 
2022.00, 
2023.00, 
2024.00, 
2025.00, 
2026.00, 
2027.00, 
2028.00, 
2029.00, 
2030.00, 
2031.00, 
2032.00, 
2033.00, 
2034.00, 
2035.00, 
2036.00, 
2037.00, 
2038.00, 
2039.00, 
2040.00, 
2041.00, 
2042.00, 
2043.00, 
2044.00, 
2045.00, 
2046.00, 
2047.00, 
2048.00, 
2049.00, 
2050.00, 
2051.00, 
2052.00, 
2053.00, 
2054.00, 
2055.00, 
2056.00, 
2057.00, 
2058.00, 
2059.00, 
2060.00, 
2061.00, 
2062.00, 
2063.00, 
2064.00, 
2065.00, 
2066.00, 
2067.00, 
2068.00, 
2069.00, 
2070.00, 
2071.00, 
2072.00, 
2073.00, 
2074.00, 
2075.00, 
2076.00, 
2077.00, 
2078.00, 
2079.00, 
2080.00, 
2081.00, 
2082.00, 
2083.00, 
2084.00, 
2085.00, 
2086.00, 
2087.00, 
2088.00, 
2089.00, 
2090.00, 
2091.00, 
2092.00, 
2093.00, 
2094.00, 
2095.00, 
2096.00, 
2097.00, 
2098.00, 
2099.00, 
2100.00, 
2101.00, 
2102.00, 
2103.00, 
2104.00, 
2105.00, 
2106.00, 
2107.00, 
2108.00, 
2109.00, 
2110.00, 
2111.00, 
2112.00, 
2113.00, 
2114.00, 
2115.00, 
2116.00, 
2117.00, 
2118.00, 
2119.00, 
2120.00, 
2121.00, 
2122.00, 
2123.00, 
2124.00, 
2125.00, 
2126.00, 
2127.00, 
2128.00, 
2129.00, 
2130.00, 
2131.00, 
2132.00, 
2133.00, 
2134.00, 
2135.00, 
2136.00, 
2137.00, 
2138.00, 
2139.00, 
2140.00, 
2141.00, 
2142.00, 
2143.00, 
2144.00, 
2145.00, 
2146.00, 
2147.00, 
2148.00, 
2149.00, 
2150.00, 
2151.00, 
2152.00, 
2153.00, 
2154.00, 
2155.00, 
2156.00, 
2157.00, 
2158.00, 
2159.00, 
2160.00, 
2161.00, 
2162.00, 
2163.00, 
2164.00, 
2165.00, 
2166.00, 
2167.00, 
2168.00, 
2169.00, 
2170.00, 
2171.00, 
2172.00, 
2173.00, 
2174.00, 
2175.00, 
2176.00, 
2177.00, 
2178.00, 
2179.00, 
2180.00, 
2181.00, 
2182.00, 
2183.00, 
2184.00, 
2185.00, 
2186.00, 
2187.00, 
2188.00, 
2189.00, 
2190.00, 
2191.00, 
2192.00, 
2193.00, 
2194.00, 
2195.00, 
2196.00, 
2197.00, 
2198.00, 
2199.00, 
2200.00, 
2201.00, 
2202.00, 
2203.00, 
2204.00, 
2205.00, 
2206.00, 
2207.00, 
2208.00, 
2209.00, 
2210.00, 
2211.00, 
2212.00, 
2213.00, 
2214.00, 
2215.00, 
2216.00, 
2217.00, 
2218.00, 
2219.00, 
2220.00, 
2221.00, 
2222.00, 
2223.00, 
2224.00, 
2225.00, 
2226.00, 
2227.00, 
2228.00, 
2229.00, 
2230.00, 
2231.00, 
2232.00, 
2233.00, 
2234.00, 
2235.00, 
2236.00, 
2237.00, 
2238.00, 
2239.00, 
2240.00, 
2241.00, 
2242.00, 
2243.00, 
2244.00, 
2245.00, 
2246.00, 
2247.00, 
2248.00, 
2249.00, 
2250.00, 
2251.00, 
2252.00, 
2253.00, 
2254.00, 
2255.00, 
2256.00, 
2257.00, 
2258.00, 
2259.00, 
2260.00, 
2261.00, 
2262.00, 
2263.00, 
2264.00, 
2265.00, 
2266.00, 
2267.00, 
2268.00, 
2269.00, 
2270.00, 
2271.00, 
2272.00, 
2273.00, 
2274.00, 
2275.00, 
2276.00, 
2277.00, 
2278.00, 
2279.00, 
2280.00, 
2281.00, 
2282.00, 
2283.00, 
2284.00, 
2285.00, 
2286.00, 
2287.00, 
2288.00, 
2289.00, 
2290.00, 
2291.00, 
2292.00, 
2293.00, 
2294.00, 
2295.00, 
2296.00, 
2297.00, 
2298.00, 
2299.00, 
2300.00, 
2301.00, 
2302.00, 
2303.00, 
2304.00, 
2305.00, 
2306.00, 
2307.00, 
2308.00, 
2309.00, 
2310.00, 
2311.00, 
2312.00, 
2313.00, 
2314.00, 
2315.00, 
2316.00, 
2317.00, 
2318.00, 
2319.00, 
2320.00, 
2321.00, 
2322.00, 
2323.00, 
2324.00, 
2325.00, 
2326.00, 
2327.00, 
2328.00, 
2329.00, 
2330.00, 
2331.00, 
2332.00, 
2333.00, 
2334.00, 
2335.00, 
2336.00, 
2337.00, 
2338.00, 
2339.00, 
2340.00, 
2341.00, 
2342.00, 
2343.00, 
2344.00, 
2345.00, 
2346.00, 
2347.00, 
2348.00, 
2349.00, 
2350.00, 
2351.00, 
2352.00, 
2353.00, 
2354.00, 
2355.00, 
2356.00, 
2357.00, 
2358.00, 
2359.00, 
2360.00, 
2361.00, 
2362.00, 
2363.00, 
2364.00, 
2365.00, 
2366.00, 
2367.00, 
2368.00, 
2369.00, 
2370.00, 
2371.00, 
2372.00, 
2373.00, 
2374.00, 
2375.00, 
2376.00, 
2377.00, 
2378.00, 
2379.00, 
2380.00, 
2381.00, 
2382.00, 
2383.00, 
2384.00, 
2385.00, 
2386.00, 
2387.00, 
2388.00, 
2389.00, 
2390.00, 
2391.00, 
2392.00, 
2393.00, 
2394.00, 
2395.00, 
2396.00, 
2397.00, 
2398.00, 
2399.00, 
2400.00, 
2401.00, 
2402.00, 
2403.00, 
2404.00, 
2405.00, 
2406.00, 
2407.00, 
2408.00, 
2409.00, 
2410.00, 
2411.00, 
2412.00, 
2413.00, 
2414.00, 
2415.00, 
2416.00, 
2417.00, 
2418.00, 
2419.00, 
2420.00, 
2421.00, 
2422.00, 
2423.00, 
2424.00, 
2425.00, 
2426.00, 
2427.00, 
2428.00, 
2429.00, 
2430.00, 
2431.00, 
2432.00, 
2433.00, 
2434.00, 
2435.00, 
2436.00, 
2437.00, 
2438.00, 
2439.00, 
2440.00, 
2441.00, 
2442.00, 
2443.00, 
2444.00, 
2445.00, 
2446.00, 
2447.00, 
2448.00, 
2449.00, 
2450.00, 
2451.00, 
2452.00, 
2453.00, 
2454.00, 
2455.00, 
2456.00, 
2457.00, 
2458.00, 
2459.00, 
2460.00, 
2461.00, 
2462.00, 
2463.00, 
2464.00, 
2465.00, 
2466.00, 
2467.00, 
2468.00, 
2469.00, 
2470.00, 
2471.00, 
2472.00, 
2473.00, 
2474.00, 
2475.00, 
2476.00, 
2477.00, 
2478.00, 
2479.00, 
2480.00, 
2481.00, 
2482.00, 
2483.00, 
2484.00, 
2485.00, 
2486.00, 
2487.00, 
2488.00, 
2489.00, 
2490.00, 
2491.00, 
2492.00, 
2493.00, 
2494.00, 
2495.00, 
2496.00, 
2497.00, 
2498.00, 
2499.00, 
2500.00, 
2501.00, 
2502.00, 
2503.00, 
2504.00, 
2505.00, 
2506.00, 
2507.00, 
2508.00, 
2509.00, 
2510.00, 
2511.00, 
2512.00, 
2513.00, 
2514.00, 
2515.00, 
2516.00, 
2517.00, 
2518.00, 
2519.00, 
2520.00, 
2521.00, 
2522.00, 
2523.00, 
2524.00, 
2525.00, 
2526.00, 
2527.00, 
2528.00, 
2529.00, 
2530.00, 
2531.00, 
2532.00, 
2533.00, 
2534.00, 
2535.00, 
2536.00, 
2537.00, 
2538.00, 
2539.00, 
2540.00, 
2541.00, 
2542.00, 
2543.00, 
2544.00, 
2545.00, 
2546.00, 
2547.00, 
2548.00, 
2549.00, 
2550.00, 
2551.00, 
2552.00, 
2553.00, 
2554.00, 
2555.00, 
2556.00, 
2557.00, 
2558.00, 
2559.00, 
2560.00, 
2561.00, 
2562.00, 
2563.00, 
2564.00, 
2565.00, 
2566.00, 
2567.00, 
2568.00, 
2569.00, 
2570.00, 
2571.00, 
2572.00, 
2573.00, 
2574.00, 
2575.00, 
2576.00, 
2577.00, 
2578.00, 
2579.00, 
2580.00, 
2581.00, 
2582.00, 
2583.00, 
2584.00, 
2585.00, 
2586.00, 
2587.00, 
2588.00, 
2589.00, 
2590.00, 
2591.00, 
2592.00, 
2593.00, 
2594.00, 
2595.00, 
2596.00, 
2597.00, 
2598.00, 
2599.00, 
2600.00, 
