"1cP1 - RawData"
"Wavelength nm.","T%"
200.00,0.002
201.00,0.001
202.00,-0.000
203.00,-0.002
204.00,0.004
205.00,0.002
206.00,0.002
207.00,-0.003
208.00,0.002
209.00,0.002
210.00,0.003
211.00,0.001
212.00,0.001
213.00,0.000
214.00,0.000
215.00,0.001
216.00,-0.000
217.00,0.000
218.00,-0.002
219.00,0.001
220.00,0.002
221.00,-0.001
222.00,-0.001
223.00,0.000
224.00,-0.002
225.00,-0.000
226.00,-0.001
227.00,-0.001
228.00,0.002
229.00,0.001
230.00,-0.000
231.00,0.000
232.00,0.001
233.00,0.001
234.00,0.001
235.00,-0.000
236.00,0.001
237.00,0.000
238.00,0.000
239.00,-0.001
240.00,0.000
241.00,0.001
242.00,0.001
243.00,-0.002
244.00,0.001
245.00,0.002
246.00,-0.000
247.00,-0.002
248.00,0.001
249.00,0.000
250.00,0.000
251.00,0.000
252.00,-0.001
253.00,0.000
254.00,0.001
255.00,-0.000
256.00,-0.001
257.00,0.001
258.00,0.001
259.00,0.001
260.00,-0.002
261.00,0.002
262.00,-0.001
263.00,0.000
264.00,-0.001
265.00,0.001
266.00,0.000
267.00,0.000
268.00,0.001
269.00,-0.001
270.00,0.001
271.00,-0.001
272.00,-0.001
273.00,0.001
274.00,0.000
275.00,-0.000
276.00,0.001
277.00,0.001
278.00,0.001
279.00,-0.000
280.00,-0.000
281.00,-0.000
282.00,0.001
283.00,-0.001
284.00,0.001
285.00,-0.000
286.00,-0.000
287.00,0.001
288.00,0.001
289.00,0.002
290.00,-0.001
291.00,0.000
292.00,0.001
293.00,-0.000
294.00,-0.001
295.00,0.000
296.00,0.001
297.00,0.001
298.00,0.001
299.00,-0.001
300.00,0.002
301.00,0.001
302.00,0.002
303.00,0.002
304.00,0.002
305.00,0.001
306.00,0.002
307.00,0.004
308.00,0.004
309.00,0.011
310.00,0.017
311.00,0.028
312.00,0.040
313.00,0.059
314.00,0.091
315.00,0.136
316.00,0.195
317.00,0.273
318.00,0.373
319.00,0.508
320.00,0.672
321.00,0.862
322.00,1.107
323.00,1.395
324.00,1.723
325.00,2.082
326.00,2.442
327.00,2.926
328.00,3.437
329.00,3.956
330.00,4.525
331.00,5.107
332.00,5.746
333.00,6.422
334.00,7.055
335.00,7.777
336.00,8.464
337.00,9.228
338.00,9.934
339.00,10.569
340.00,11.253
341.00,12.006
342.00,12.647
343.00,13.271
344.00,13.863
345.00,14.546
346.00,15.088
347.00,15.586
348.00,16.115
349.00,16.592
350.00,17.054
351.00,17.442
352.00,17.867
353.00,18.127
354.00,18.573
355.00,18.921
356.00,19.203
357.00,19.493
358.00,19.742
359.00,20.049
360.00,20.330
361.00,20.480
362.00,20.704
363.00,20.884
364.00,20.932
365.00,21.114
366.00,21.185
367.00,21.249
368.00,21.360
369.00,21.416
370.00,21.505
371.00,21.541
372.00,21.494
373.00,21.483
374.00,21.495
375.00,21.461
376.00,21.343
377.00,21.293
378.00,21.180
379.00,21.093
380.00,21.087
381.00,21.031
382.00,21.045
383.00,21.065
384.00,21.120
385.00,21.174
386.00,21.213
387.00,21.288
388.00,21.372
389.00,21.415
390.00,21.477
391.00,21.487
392.00,21.546
393.00,21.570
394.00,21.607
395.00,21.637
396.00,21.601
397.00,21.635
398.00,21.622
399.00,21.657
400.00,21.633
401.00,21.666
402.00,21.641
403.00,21.610
404.00,21.600
405.00,21.575
406.00,21.568
407.00,21.542
408.00,21.559
409.00,21.456
410.00,21.405
411.00,21.398
412.00,21.388
413.00,21.396
414.00,21.390
415.00,21.382
416.00,21.424
417.00,21.339
418.00,21.419
419.00,21.465
420.00,21.519
421.00,21.492
422.00,21.533
423.00,21.605
424.00,21.640
425.00,21.632
426.00,21.630
427.00,21.705
428.00,21.733
429.00,21.773
430.00,21.805
431.00,21.832
432.00,21.895
433.00,21.946
434.00,21.975
435.00,22.016
436.00,22.072
437.00,22.107
438.00,22.212
439.00,22.279
440.00,22.359
441.00,22.425
442.00,22.508
443.00,22.560
444.00,22.675
445.00,22.745
446.00,22.851
447.00,22.923
448.00,23.037
449.00,23.120
450.00,23.222
451.00,23.311
452.00,23.414
453.00,23.505
454.00,23.645
455.00,23.753
456.00,23.837
457.00,23.978
458.00,24.056
459.00,24.171
460.00,24.338
461.00,24.438
462.00,24.551
463.00,24.663
464.00,24.804
465.00,24.918
466.00,25.057
467.00,25.181
468.00,25.265
469.00,25.359
470.00,25.460
471.00,25.550
472.00,25.701
473.00,25.744
474.00,25.875
475.00,25.977
476.00,26.102
477.00,26.199
478.00,26.317
479.00,26.510
480.00,26.610
481.00,26.730
482.00,26.843
483.00,27.042
484.00,27.188
485.00,27.326
486.00,27.481
487.00,27.619
488.00,27.765
489.00,27.917
490.00,28.109
491.00,28.229
492.00,28.376
493.00,28.598
494.00,28.720
495.00,28.729
496.00,28.862
497.00,28.935
498.00,29.152
499.00,29.278
500.00,29.421
501.00,29.510
502.00,29.667
503.00,29.785
504.00,29.845
505.00,30.001
506.00,30.121
507.00,30.206
508.00,30.350
509.00,30.545
510.00,30.673
511.00,30.716
512.00,30.887
513.00,31.012
514.00,31.117
515.00,31.263
516.00,31.322
517.00,31.453
518.00,31.625
519.00,31.642
520.00,31.635
521.00,31.826
522.00,31.936
523.00,31.946
524.00,32.088
525.00,32.206
526.00,32.311
527.00,32.330
528.00,32.436
529.00,32.644
530.00,32.791
531.00,32.854
532.00,32.964
533.00,33.090
534.00,33.159
535.00,33.212
536.00,33.335
537.00,33.382
538.00,33.456
539.00,33.562
540.00,33.615
541.00,33.701
542.00,33.742
543.00,33.809
544.00,33.915
545.00,33.983
546.00,33.996
547.00,34.152
548.00,34.240
549.00,34.311
550.00,34.378
551.00,34.483
552.00,34.545
553.00,34.603
554.00,34.662
555.00,34.731
556.00,34.784
557.00,34.852
558.00,34.935
559.00,35.002
560.00,35.068
561.00,35.114
562.00,35.181
563.00,35.264
564.00,35.277
565.00,35.291
566.00,35.305
567.00,35.368
568.00,35.441
569.00,35.603
570.00,35.555
571.00,35.560
572.00,35.592
573.00,35.573
574.00,35.609
575.00,35.657
576.00,35.661
577.00,35.709
578.00,35.804
579.00,35.881
580.00,35.914
581.00,36.084
582.00,36.174
583.00,36.190
584.00,36.270
585.00,36.327
586.00,36.340
587.00,36.463
588.00,36.439
589.00,36.421
590.00,36.508
591.00,36.584
592.00,36.517
593.00,36.583
594.00,36.740
595.00,36.711
596.00,36.793
597.00,36.852
598.00,36.910
599.00,36.934
600.00,36.969
601.00,37.030
602.00,37.040
603.00,37.089
604.00,37.171
605.00,37.176
606.00,37.232
607.00,37.280
608.00,37.385
609.00,37.579
610.00,37.378
611.00,37.481
612.00,37.514
613.00,37.561
614.00,37.606
615.00,37.670
616.00,37.767
617.00,37.722
618.00,37.719
619.00,37.811
620.00,37.894
621.00,37.973
622.00,37.901
623.00,37.975
624.00,38.152
625.00,38.230
626.00,38.231
627.00,38.335
628.00,38.305
629.00,38.359
630.00,38.416
631.00,38.484
632.00,38.549
633.00,38.743
634.00,38.778
635.00,38.806
636.00,38.889
637.00,38.985
638.00,39.025
639.00,39.152
640.00,39.168
641.00,39.169
642.00,39.281
643.00,39.319
644.00,39.428
645.00,39.470
646.00,39.522
647.00,39.654
648.00,39.730
649.00,39.757
650.00,39.734
651.00,39.956
652.00,40.072
653.00,39.998
654.00,40.127
655.00,40.250
656.00,40.572
657.00,40.333
658.00,40.398
659.00,40.498
660.00,40.706
661.00,40.765
662.00,40.771
663.00,40.882
664.00,41.147
665.00,41.298
666.00,41.256
667.00,41.248
668.00,41.335
669.00,41.529
670.00,41.779
671.00,41.691
672.00,41.824
673.00,41.913
674.00,41.958
675.00,41.993
676.00,42.217
677.00,42.376
678.00,42.169
679.00,42.324
680.00,42.466
681.00,42.559
682.00,42.477
683.00,42.512
684.00,42.898
685.00,42.936
686.00,42.791
687.00,42.988
688.00,43.052
689.00,43.040
690.00,43.312
691.00,43.559
692.00,43.311
693.00,43.407
694.00,43.652
695.00,43.680
696.00,43.679
697.00,43.746
698.00,43.814
699.00,44.131
700.00,44.274
701.00,44.175
702.00,44.285
703.00,44.557
704.00,44.517
705.00,44.445
706.00,44.602
707.00,44.574
708.00,44.454
709.00,44.900
710.00,45.315
711.00,44.846
712.00,44.804
713.00,45.097
714.00,45.101
715.00,45.140
716.00,45.145
717.00,45.196
718.00,45.350
719.00,45.412
720.00,45.430
721.00,50.046
722.00,49.937
723.00,49.926
724.00,50.009
725.00,50.019
726.00,50.064
727.00,50.038
728.00,50.096
729.00,50.144
730.00,50.154
731.00,50.143
732.00,50.255
733.00,50.289
734.00,50.245
735.00,50.317
736.00,50.387
737.00,50.294
738.00,50.459
739.00,50.380
740.00,50.463
741.00,50.494
742.00,50.517
743.00,50.463
744.00,50.553
745.00,50.533
746.00,50.537
747.00,50.554
748.00,50.526
749.00,50.511
750.00,50.620
751.00,50.517
752.00,50.594
753.00,50.549
754.00,50.547
755.00,50.600
756.00,50.561
757.00,50.608
758.00,50.638
759.00,50.654
760.00,50.716
761.00,50.640
762.00,50.626
763.00,50.673
764.00,50.729
765.00,50.681
766.00,50.715
767.00,50.720
768.00,50.783
769.00,50.719
770.00,50.812
771.00,50.775
772.00,50.757
773.00,50.848
774.00,50.789
775.00,50.837
776.00,50.850
777.00,50.864
778.00,50.840
779.00,50.811
780.00,50.740
781.00,50.791
782.00,50.871
783.00,50.743
784.00,50.861
785.00,50.705
786.00,50.765
787.00,50.829
788.00,50.795
789.00,50.767
790.00,50.735
791.00,50.728
792.00,50.740
793.00,50.744
794.00,50.786
795.00,50.685
796.00,50.694
797.00,50.580
798.00,50.629
799.00,50.620
800.00,50.593
801.00,50.589
802.00,50.665
803.00,50.582
804.00,50.541
805.00,50.566
806.00,50.495
807.00,50.502
808.00,50.531
809.00,50.481
810.00,50.473
811.00,50.455
812.00,50.516
813.00,50.411
814.00,50.397
815.00,50.452
816.00,50.451
817.00,50.337
818.00,50.353
819.00,50.365
820.00,50.372
821.00,50.335
822.00,50.369
823.00,50.263
824.00,50.335
825.00,50.277
826.00,50.268
827.00,50.303
828.00,50.307
829.00,50.196
830.00,50.245
831.00,52.532
832.00,52.567
833.00,52.495
834.00,52.509
835.00,52.483
836.00,52.466
837.00,52.425
838.00,52.435
839.00,52.385
840.00,52.337
841.00,52.381
842.00,52.339
843.00,52.293
844.00,52.398
845.00,52.287
846.00,52.272
847.00,52.273
848.00,52.280
849.00,52.185
850.00,52.183
851.00,52.090
852.00,52.121
853.00,52.055
854.00,52.042
855.00,51.980
856.00,52.026
857.00,52.006
858.00,51.904
859.00,51.921
860.00,51.911
861.00,51.923
862.00,51.850
863.00,51.896
864.00,51.816
865.00,51.868
866.00,51.802
867.00,51.823
868.00,51.783
869.00,51.785
870.00,51.829
871.00,51.796
872.00,51.799
873.00,51.759
874.00,51.785
875.00,51.723
876.00,51.754
877.00,51.676
878.00,51.707
879.00,51.655
880.00,51.655
881.00,51.634
882.00,51.684
883.00,51.591
884.00,51.563
885.00,51.556
886.00,51.558
887.00,51.546
888.00,51.517
889.00,51.486
890.00,51.501
891.00,51.457
892.00,51.423
893.00,51.409
894.00,51.436
895.00,51.378
896.00,51.368
897.00,51.338
898.00,51.309
899.00,51.324
900.00,51.285
901.00,51.303
902.00,51.309
903.00,51.217
904.00,51.245
905.00,51.243
906.00,51.224
907.00,51.211
908.00,51.155
909.00,51.151
910.00,51.105
911.00,51.109
912.00,51.093
913.00,51.047
914.00,51.048
915.00,51.019
916.00,50.983
917.00,50.953
918.00,50.961
919.00,50.926
920.00,50.892
921.00,50.909
922.00,50.894
923.00,50.859
924.00,50.818
925.00,50.835
926.00,50.824
927.00,50.795
928.00,50.758
929.00,50.785
930.00,50.756
931.00,50.744
932.00,50.690
933.00,50.713
934.00,50.683
935.00,50.630
936.00,50.619
937.00,50.611
938.00,50.602
939.00,50.601
940.00,50.530
941.00,50.604
942.00,50.530
943.00,50.512
944.00,50.476
945.00,50.469
946.00,50.473
947.00,50.424
948.00,50.418
949.00,50.408
950.00,50.417
951.00,50.363
952.00,50.334
953.00,50.324
954.00,50.287
955.00,50.220
956.00,50.245
957.00,50.190
958.00,50.210
959.00,50.142
960.00,50.133
961.00,50.135
962.00,50.131
963.00,50.097
964.00,50.093
965.00,50.117
966.00,50.078
967.00,50.072
968.00,50.050
969.00,50.079
970.00,50.041
971.00,50.051
972.00,50.002
973.00,50.046
974.00,50.080
975.00,50.023
976.00,50.059
977.00,50.043
978.00,50.066
979.00,50.020
980.00,50.038
981.00,50.052
982.00,50.000
983.00,50.051
984.00,50.014
985.00,50.041
986.00,49.989
987.00,50.015
988.00,49.979
989.00,49.958
990.00,49.960
991.00,49.942
992.00,49.949
993.00,49.920
994.00,49.902
995.00,49.906
996.00,49.903
997.00,49.909
998.00,49.861
999.00,49.865
1000.00,49.824
1001.00,49.827
1002.00,49.820
1003.00,49.823
1004.00,49.798
1005.00,49.760
1006.00,49.805
1007.00,49.780
1008.00,49.755
1009.00,49.736
1010.00,49.735
1011.00,49.722
1012.00,49.687
1013.00,49.688
1014.00,49.673
1015.00,49.670
1016.00,49.612
1017.00,49.616
1018.00,49.615
1019.00,49.561
1020.00,49.576
1021.00,49.550
1022.00,49.551
1023.00,49.487
1024.00,49.515
1025.00,49.491
1026.00,49.479
1027.00,49.476
1028.00,49.452
1029.00,49.470
1030.00,49.461
1031.00,49.438
1032.00,49.386
1033.00,49.391
1034.00,49.358
1035.00,49.323
1036.00,49.313
1037.00,49.288
1038.00,49.291
1039.00,49.250
1040.00,49.256
1041.00,49.207
1042.00,49.212
1043.00,49.191
1044.00,49.213
1045.00,49.183
1046.00,49.190
1047.00,49.224
1048.00,49.230
1049.00,49.230
1050.00,49.219
1051.00,49.277
1052.00,49.259
1053.00,49.264
1054.00,49.265
1055.00,49.290
1056.00,49.289
1057.00,49.298
1058.00,49.283
1059.00,49.283
1060.00,49.299
1061.00,49.268
1062.00,49.272
1063.00,49.273
1064.00,49.274
1065.00,49.252
1066.00,49.249
1067.00,49.239
1068.00,49.269
1069.00,49.216
1070.00,49.205
1071.00,49.199
1072.00,49.216
1073.00,49.200
1074.00,49.193
1075.00,49.178
1076.00,49.185
1077.00,49.170
1078.00,49.141
1079.00,49.148
1080.00,49.151
1081.00,49.125
1082.00,49.120
1083.00,49.112
1084.00,49.096
1085.00,49.103
1086.00,49.081
1087.00,49.094
1088.00,49.059
1089.00,49.054
1090.00,49.047
1091.00,49.050
1092.00,49.044
1093.00,49.037
1094.00,49.016
1095.00,49.015
1096.00,48.990
1097.00,49.005
1098.00,48.978
1099.00,48.986
1100.00,48.969
1101.00,48.976
1102.00,48.960
1103.00,48.964
1104.00,48.942
1105.00,48.926
1106.00,48.920
1107.00,48.924
1108.00,48.910
1109.00,48.904
1110.00,48.893
1111.00,48.893
1112.00,48.881
1113.00,48.898
1114.00,48.874
1115.00,48.880
1116.00,48.855
1117.00,48.853
1118.00,48.825
1119.00,48.815
1120.00,48.816
1121.00,48.814
1122.00,48.790
1123.00,48.814
1124.00,48.817
1125.00,48.801
1126.00,48.790
1127.00,48.792
1128.00,48.767
1129.00,48.753
1130.00,48.742
1131.00,48.756
1132.00,48.735
1133.00,48.742
1134.00,48.730
1135.00,48.714
1136.00,48.717
1137.00,48.739
1138.00,48.725
1139.00,48.746
1140.00,48.719
1141.00,48.725
1142.00,48.704
1143.00,48.719
1144.00,48.687
1145.00,48.697
1146.00,48.697
1147.00,48.686
1148.00,48.681
1149.00,48.689
1150.00,48.694
1151.00,48.695
1152.00,48.678
1153.00,48.683
1154.00,48.661
1155.00,48.675
1156.00,48.659
1157.00,48.678
1158.00,48.664
1159.00,48.660
1160.00,48.660
1161.00,48.663
1162.00,48.664
1163.00,48.659
1164.00,48.665
1165.00,48.658
1166.00,48.643
1167.00,48.670
1168.00,48.672
1169.00,48.662
1170.00,48.682
1171.00,48.641
1172.00,48.648
1173.00,48.622
1174.00,48.628
1175.00,48.627
1176.00,48.633
1177.00,48.632
1178.00,48.620
1179.00,48.641
1180.00,48.614
1181.00,48.634
1182.00,48.628
1183.00,48.619
1184.00,48.619
1185.00,48.646
1186.00,48.612
1187.00,48.603
1188.00,48.611
1189.00,48.623
1190.00,48.628
1191.00,48.625
1192.00,48.647
1193.00,48.623
1194.00,48.630
1195.00,48.604
1196.00,48.631
1197.00,48.639
1198.00,48.618
1199.00,48.636
1200.00,48.640
1201.00,48.652
1202.00,48.623
1203.00,48.631
1204.00,48.621
1205.00,48.638
1206.00,48.621
1207.00,48.619
1208.00,48.612
1209.00,48.626
1210.00,48.634
1211.00,48.630
1212.00,48.649
1213.00,48.599
1214.00,48.633
1215.00,48.617
1216.00,48.622
1217.00,48.627
1218.00,48.612
1219.00,48.638
1220.00,48.609
1221.00,48.623
1222.00,48.619
1223.00,48.644
1224.00,48.640
1225.00,48.634
1226.00,48.638
1227.00,48.627
1228.00,48.649
1229.00,48.633
1230.00,48.667
1231.00,48.671
1232.00,48.683
1233.00,48.691
1234.00,48.680
1235.00,48.682
1236.00,48.696
1237.00,48.710
1238.00,48.711
1239.00,48.717
1240.00,48.690
1241.00,48.705
1242.00,48.714
1243.00,48.714
1244.00,48.701
1245.00,48.743
1246.00,48.731
1247.00,48.712
1248.00,48.709
1249.00,48.733
1250.00,48.752
1251.00,48.725
1252.00,48.749
1253.00,48.733
1254.00,48.757
1255.00,48.740
1256.00,48.710
1257.00,48.764
1258.00,48.790
1259.00,48.781
1260.00,48.812
1261.00,48.801
1262.00,48.792
1263.00,48.803
1264.00,48.798
1265.00,48.805
1266.00,48.803
1267.00,48.811
1268.00,48.830
1269.00,48.822
1270.00,48.832
1271.00,48.839
1272.00,48.848
1273.00,48.860
1274.00,48.852
1275.00,48.870
1276.00,48.850
1277.00,48.867
1278.00,48.876
1279.00,48.867
1280.00,48.866
1281.00,48.887
1282.00,48.909
1283.00,48.892
1284.00,48.918
1285.00,48.908
1286.00,48.924
1287.00,48.918
1288.00,48.911
1289.00,48.937
1290.00,48.942
1291.00,48.936
1292.00,48.944
1293.00,48.934
1294.00,48.947
1295.00,48.946
1296.00,48.956
1297.00,48.962
1298.00,49.015
1299.00,48.990
1300.00,49.011
1301.00,49.001
1302.00,49.033
1303.00,49.022
1304.00,48.998
1305.00,49.032
1306.00,49.038
1307.00,49.042
1308.00,49.043
1309.00,49.061
1310.00,49.052
1311.00,49.037
1312.00,49.048
1313.00,49.070
1314.00,49.079
1315.00,49.105
1316.00,49.099
1317.00,49.134
1318.00,49.115
1319.00,49.118
1320.00,49.135
1321.00,49.299
1322.00,49.282
1323.00,49.280
1324.00,49.264
1325.00,49.267
1326.00,49.274
1327.00,49.261
1328.00,49.253
1329.00,49.284
1330.00,49.291
1331.00,49.273
1332.00,49.281
1333.00,49.281
1334.00,49.339
1335.00,49.351
1336.00,49.378
1337.00,49.398
1338.00,49.472
1339.00,49.523
1340.00,49.575
1341.00,49.649
1342.00,49.718
1343.00,49.761
1344.00,49.797
1345.00,49.878
1346.00,49.901
1347.00,49.906
1348.00,49.969
1349.00,49.950
1350.00,50.000
1351.00,49.987
1352.00,50.025
1353.00,50.034
1354.00,50.021
1355.00,49.966
1356.00,50.046
1357.00,50.039
1358.00,50.068
1359.00,50.046
1360.00,50.091
1361.00,50.040
1362.00,49.985
1363.00,50.107
1364.00,50.027
1365.00,50.043
1366.00,50.267
1367.00,50.042
1368.00,49.999
1369.00,50.070
1370.00,50.080
1371.00,49.987
1372.00,50.028
1373.00,50.065
1374.00,50.078
1375.00,50.063
1376.00,50.069
1377.00,50.033
1378.00,50.105
1379.00,50.097
1380.00,50.100
1381.00,50.099
1382.00,50.016
1383.00,50.084
1384.00,50.014
1385.00,50.040
1386.00,50.083
1387.00,50.031
1388.00,50.029
1389.00,50.038
1390.00,50.114
1391.00,49.996
1392.00,50.024
1393.00,50.043
1394.00,50.073
1395.00,49.951
1396.00,49.903
1397.00,50.008
1398.00,50.131
1399.00,49.997
1400.00,49.931
1401.00,50.025
1402.00,50.168
1403.00,50.018
1404.00,50.018
1405.00,50.105
1406.00,50.088
1407.00,50.098
1408.00,50.062
1409.00,50.093
1410.00,50.133
1411.00,50.182
1412.00,50.354
1413.00,50.089
1414.00,50.109
1415.00,50.166
1416.00,50.185
1417.00,50.242
1418.00,50.159
1419.00,50.184
1420.00,50.229
1421.00,50.258
1422.00,50.279
1423.00,50.281
1424.00,50.295
1425.00,50.348
1426.00,50.280
1427.00,50.333
1428.00,50.339
1429.00,50.347
1430.00,50.361
1431.00,50.390
1432.00,50.408
1433.00,50.429
1434.00,50.418
1435.00,50.500
1436.00,50.489
1437.00,50.470
1438.00,50.489
1439.00,50.531
1440.00,50.546
1441.00,50.535
1442.00,50.567
1443.00,50.584
1444.00,50.670
1445.00,50.594
1446.00,50.627
1447.00,50.692
1448.00,50.717
1449.00,50.702
1450.00,50.701
1451.00,50.714
1452.00,50.745
1453.00,50.756
1454.00,50.779
1455.00,50.808
1456.00,50.839
1457.00,50.822
1458.00,50.874
1459.00,50.869
1460.00,50.899
1461.00,50.910
1462.00,50.934
1463.00,50.944
1464.00,50.958
1465.00,50.971
1466.00,50.969
1467.00,51.001
1468.00,51.062
1469.00,51.016
1470.00,51.052
1471.00,51.072
1472.00,51.093
1473.00,51.097
1474.00,51.126
1475.00,51.140
1476.00,51.140
1477.00,51.134
1478.00,51.172
1479.00,51.191
1480.00,51.180
1481.00,51.176
1482.00,51.214
1483.00,51.230
1484.00,51.248
1485.00,51.255
1486.00,51.282
1487.00,51.293
1488.00,51.337
1489.00,51.324
1490.00,51.340
1491.00,51.347
1492.00,51.369
1493.00,51.346
1494.00,51.401
1495.00,51.373
1496.00,51.408
1497.00,51.396
1498.00,51.414
1499.00,51.436
1500.00,51.463
1501.00, 
1502.00, 
1503.00, 
1504.00, 
1505.00, 
1506.00, 
1507.00, 
1508.00, 
1509.00, 
1510.00, 
1511.00, 
1512.00, 
1513.00, 
1514.00, 
1515.00, 
1516.00, 
1517.00, 
1518.00, 
1519.00, 
1520.00, 
1521.00, 
1522.00, 
1523.00, 
1524.00, 
1525.00, 
1526.00, 
1527.00, 
1528.00, 
1529.00, 
1530.00, 
1531.00, 
1532.00, 
1533.00, 
1534.00, 
1535.00, 
1536.00, 
1537.00, 
1538.00, 
1539.00, 
1540.00, 
1541.00, 
1542.00, 
1543.00, 
1544.00, 
1545.00, 
1546.00, 
1547.00, 
1548.00, 
1549.00, 
1550.00, 
1551.00, 
1552.00, 
1553.00, 
1554.00, 
1555.00, 
1556.00, 
1557.00, 
1558.00, 
1559.00, 
1560.00, 
1561.00, 
1562.00, 
1563.00, 
1564.00, 
1565.00, 
1566.00, 
1567.00, 
1568.00, 
1569.00, 
1570.00, 
1571.00, 
1572.00, 
1573.00, 
1574.00, 
1575.00, 
1576.00, 
1577.00, 
1578.00, 
1579.00, 
1580.00, 
1581.00, 
1582.00, 
1583.00, 
1584.00, 
1585.00, 
1586.00, 
1587.00, 
1588.00, 
1589.00, 
1590.00, 
1591.00, 
1592.00, 
1593.00, 
1594.00, 
1595.00, 
1596.00, 
1597.00, 
1598.00, 
1599.00, 
1600.00, 
1601.00, 
1602.00, 
1603.00, 
1604.00, 
1605.00, 
1606.00, 
1607.00, 
1608.00, 
1609.00, 
1610.00, 
1611.00, 
1612.00, 
1613.00, 
1614.00, 
1615.00, 
1616.00, 
1617.00, 
1618.00, 
1619.00, 
1620.00, 
1621.00, 
1622.00, 
1623.00, 
1624.00, 
1625.00, 
1626.00, 
1627.00, 
1628.00, 
1629.00, 
1630.00, 
1631.00, 
1632.00, 
1633.00, 
1634.00, 
1635.00, 
1636.00, 
1637.00, 
1638.00, 
1639.00, 
1640.00, 
1641.00, 
1642.00, 
1643.00, 
1644.00, 
1645.00, 
1646.00, 
1647.00, 
1648.00, 
1649.00, 
1650.00, 
1651.00, 
1652.00, 
1653.00, 
1654.00, 
1655.00, 
1656.00, 
1657.00, 
1658.00, 
1659.00, 
1660.00, 
1661.00, 
1662.00, 
1663.00, 
1664.00, 
1665.00, 
1666.00, 
1667.00, 
1668.00, 
1669.00, 
1670.00, 
1671.00, 
1672.00, 
1673.00, 
1674.00, 
1675.00, 
1676.00, 
1677.00, 
1678.00, 
1679.00, 
1680.00, 
1681.00, 
1682.00, 
1683.00, 
1684.00, 
1685.00, 
1686.00, 
1687.00, 
1688.00, 
1689.00, 
1690.00, 
1691.00, 
1692.00, 
1693.00, 
1694.00, 
1695.00, 
1696.00, 
1697.00, 
1698.00, 
1699.00, 
1700.00, 
1701.00, 
1702.00, 
1703.00, 
1704.00, 
1705.00, 
1706.00, 
1707.00, 
1708.00, 
1709.00, 
1710.00, 
1711.00, 
1712.00, 
1713.00, 
1714.00, 
1715.00, 
1716.00, 
1717.00, 
1718.00, 
1719.00, 
1720.00, 
1721.00, 
1722.00, 
1723.00, 
1724.00, 
1725.00, 
1726.00, 
1727.00, 
1728.00, 
1729.00, 
1730.00, 
1731.00, 
1732.00, 
1733.00, 
1734.00, 
1735.00, 
1736.00, 
1737.00, 
1738.00, 
1739.00, 
1740.00, 
1741.00, 
1742.00, 
1743.00, 
1744.00, 
1745.00, 
1746.00, 
1747.00, 
1748.00, 
1749.00, 
1750.00, 
1751.00, 
1752.00, 
1753.00, 
1754.00, 
1755.00, 
1756.00, 
1757.00, 
1758.00, 
1759.00, 
1760.00, 
1761.00, 
1762.00, 
1763.00, 
1764.00, 
1765.00, 
1766.00, 
1767.00, 
1768.00, 
1769.00, 
1770.00, 
1771.00, 
1772.00, 
1773.00, 
1774.00, 
1775.00, 
1776.00, 
1777.00, 
1778.00, 
1779.00, 
1780.00, 
1781.00, 
1782.00, 
1783.00, 
1784.00, 
1785.00, 
1786.00, 
1787.00, 
1788.00, 
1789.00, 
1790.00, 
1791.00, 
1792.00, 
1793.00, 
1794.00, 
1795.00, 
1796.00, 
1797.00, 
1798.00, 
1799.00, 
1800.00, 
1801.00, 
1802.00, 
1803.00, 
1804.00, 
1805.00, 
1806.00, 
1807.00, 
1808.00, 
1809.00, 
1810.00, 
1811.00, 
1812.00, 
1813.00, 
1814.00, 
1815.00, 
1816.00, 
1817.00, 
1818.00, 
1819.00, 
1820.00, 
1821.00, 
1822.00, 
1823.00, 
1824.00, 
1825.00, 
1826.00, 
1827.00, 
1828.00, 
1829.00, 
1830.00, 
1831.00, 
1832.00, 
1833.00, 
1834.00, 
1835.00, 
1836.00, 
1837.00, 
1838.00, 
1839.00, 
1840.00, 
1841.00, 
1842.00, 
1843.00, 
1844.00, 
1845.00, 
1846.00, 
1847.00, 
1848.00, 
1849.00, 
1850.00, 
1851.00, 
1852.00, 
1853.00, 
1854.00, 
1855.00, 
1856.00, 
1857.00, 
1858.00, 
1859.00, 
1860.00, 
1861.00, 
1862.00, 
1863.00, 
1864.00, 
1865.00, 
1866.00, 
1867.00, 
1868.00, 
1869.00, 
1870.00, 
1871.00, 
1872.00, 
1873.00, 
1874.00, 
1875.00, 
1876.00, 
1877.00, 
1878.00, 
1879.00, 
1880.00, 
1881.00, 
1882.00, 
1883.00, 
1884.00, 
1885.00, 
1886.00, 
1887.00, 
1888.00, 
1889.00, 
1890.00, 
1891.00, 
1892.00, 
1893.00, 
1894.00, 
1895.00, 
1896.00, 
1897.00, 
1898.00, 
1899.00, 
1900.00, 
1901.00, 
1902.00, 
1903.00, 
1904.00, 
1905.00, 
1906.00, 
1907.00, 
1908.00, 
1909.00, 
1910.00, 
1911.00, 
1912.00, 
1913.00, 
1914.00, 
1915.00, 
1916.00, 
1917.00, 
1918.00, 
1919.00, 
1920.00, 
1921.00, 
1922.00, 
1923.00, 
1924.00, 
1925.00, 
1926.00, 
1927.00, 
1928.00, 
1929.00, 
1930.00, 
1931.00, 
1932.00, 
1933.00, 
1934.00, 
1935.00, 
1936.00, 
1937.00, 
1938.00, 
1939.00, 
1940.00, 
1941.00, 
1942.00, 
1943.00, 
1944.00, 
1945.00, 
1946.00, 
1947.00, 
1948.00, 
1949.00, 
1950.00, 
1951.00, 
1952.00, 
1953.00, 
1954.00, 
1955.00, 
1956.00, 
1957.00, 
1958.00, 
1959.00, 
1960.00, 
1961.00, 
1962.00, 
1963.00, 
1964.00, 
1965.00, 
1966.00, 
1967.00, 
1968.00, 
1969.00, 
1970.00, 
1971.00, 
1972.00, 
1973.00, 
1974.00, 
1975.00, 
1976.00, 
1977.00, 
1978.00, 
1979.00, 
1980.00, 
1981.00, 
1982.00, 
1983.00, 
1984.00, 
1985.00, 
1986.00, 
1987.00, 
1988.00, 
1989.00, 
1990.00, 
1991.00, 
1992.00, 
1993.00, 
1994.00, 
1995.00, 
1996.00, 
1997.00, 
1998.00, 
1999.00, 
2000.00, 
2001.00, 
2002.00, 
2003.00, 
2004.00, 
2005.00, 
2006.00, 
2007.00, 
2008.00, 
2009.00, 
2010.00, 
2011.00, 
2012.00, 
2013.00, 
2014.00, 
2015.00, 
2016.00, 
2017.00, 
2018.00, 
2019.00, 
2020.00, 
2021.00, 
2022.00, 
2023.00, 
2024.00, 
2025.00, 
2026.00, 
2027.00, 
2028.00, 
2029.00, 
2030.00, 
2031.00, 
2032.00, 
2033.00, 
2034.00, 
2035.00, 
2036.00, 
2037.00, 
2038.00, 
2039.00, 
2040.00, 
2041.00, 
2042.00, 
2043.00, 
2044.00, 
2045.00, 
2046.00, 
2047.00, 
2048.00, 
2049.00, 
2050.00, 
2051.00, 
2052.00, 
2053.00, 
2054.00, 
2055.00, 
2056.00, 
2057.00, 
2058.00, 
2059.00, 
2060.00, 
2061.00, 
2062.00, 
2063.00, 
2064.00, 
2065.00, 
2066.00, 
2067.00, 
2068.00, 
2069.00, 
2070.00, 
2071.00, 
2072.00, 
2073.00, 
2074.00, 
2075.00, 
2076.00, 
2077.00, 
2078.00, 
2079.00, 
2080.00, 
2081.00, 
2082.00, 
2083.00, 
2084.00, 
2085.00, 
2086.00, 
2087.00, 
2088.00, 
2089.00, 
2090.00, 
2091.00, 
2092.00, 
2093.00, 
2094.00, 
2095.00, 
2096.00, 
2097.00, 
2098.00, 
2099.00, 
2100.00, 
2101.00, 
2102.00, 
2103.00, 
2104.00, 
2105.00, 
2106.00, 
2107.00, 
2108.00, 
2109.00, 
2110.00, 
2111.00, 
2112.00, 
2113.00, 
2114.00, 
2115.00, 
2116.00, 
2117.00, 
2118.00, 
2119.00, 
2120.00, 
2121.00, 
2122.00, 
2123.00, 
2124.00, 
2125.00, 
2126.00, 
2127.00, 
2128.00, 
2129.00, 
2130.00, 
2131.00, 
2132.00, 
2133.00, 
2134.00, 
2135.00, 
2136.00, 
2137.00, 
2138.00, 
2139.00, 
2140.00, 
2141.00, 
2142.00, 
2143.00, 
2144.00, 
2145.00, 
2146.00, 
2147.00, 
2148.00, 
2149.00, 
2150.00, 
2151.00, 
2152.00, 
2153.00, 
2154.00, 
2155.00, 
2156.00, 
2157.00, 
2158.00, 
2159.00, 
2160.00, 
2161.00, 
2162.00, 
2163.00, 
2164.00, 
2165.00, 
2166.00, 
2167.00, 
2168.00, 
2169.00, 
2170.00, 
2171.00, 
2172.00, 
2173.00, 
2174.00, 
2175.00, 
2176.00, 
2177.00, 
2178.00, 
2179.00, 
2180.00, 
2181.00, 
2182.00, 
2183.00, 
2184.00, 
2185.00, 
2186.00, 
2187.00, 
2188.00, 
2189.00, 
2190.00, 
2191.00, 
2192.00, 
2193.00, 
2194.00, 
2195.00, 
2196.00, 
2197.00, 
2198.00, 
2199.00, 
2200.00, 
2201.00, 
2202.00, 
2203.00, 
2204.00, 
2205.00, 
2206.00, 
2207.00, 
2208.00, 
2209.00, 
2210.00, 
2211.00, 
2212.00, 
2213.00, 
2214.00, 
2215.00, 
2216.00, 
2217.00, 
2218.00, 
2219.00, 
2220.00, 
2221.00, 
2222.00, 
2223.00, 
2224.00, 
2225.00, 
2226.00, 
2227.00, 
2228.00, 
2229.00, 
2230.00, 
2231.00, 
2232.00, 
2233.00, 
2234.00, 
2235.00, 
2236.00, 
2237.00, 
2238.00, 
2239.00, 
2240.00, 
2241.00, 
2242.00, 
2243.00, 
2244.00, 
2245.00, 
2246.00, 
2247.00, 
2248.00, 
2249.00, 
2250.00, 
2251.00, 
2252.00, 
2253.00, 
2254.00, 
2255.00, 
2256.00, 
2257.00, 
2258.00, 
2259.00, 
2260.00, 
2261.00, 
2262.00, 
2263.00, 
2264.00, 
2265.00, 
2266.00, 
2267.00, 
2268.00, 
2269.00, 
2270.00, 
2271.00, 
2272.00, 
2273.00, 
2274.00, 
2275.00, 
2276.00, 
2277.00, 
2278.00, 
2279.00, 
2280.00, 
2281.00, 
2282.00, 
2283.00, 
2284.00, 
2285.00, 
2286.00, 
2287.00, 
2288.00, 
2289.00, 
2290.00, 
2291.00, 
2292.00, 
2293.00, 
2294.00, 
2295.00, 
2296.00, 
2297.00, 
2298.00, 
2299.00, 
2300.00, 
2301.00, 
2302.00, 
2303.00, 
2304.00, 
2305.00, 
2306.00, 
2307.00, 
2308.00, 
2309.00, 
2310.00, 
2311.00, 
2312.00, 
2313.00, 
2314.00, 
2315.00, 
2316.00, 
2317.00, 
2318.00, 
2319.00, 
2320.00, 
2321.00, 
2322.00, 
2323.00, 
2324.00, 
2325.00, 
2326.00, 
2327.00, 
2328.00, 
2329.00, 
2330.00, 
2331.00, 
2332.00, 
2333.00, 
2334.00, 
2335.00, 
2336.00, 
2337.00, 
2338.00, 
2339.00, 
2340.00, 
2341.00, 
2342.00, 
2343.00, 
2344.00, 
2345.00, 
2346.00, 
2347.00, 
2348.00, 
2349.00, 
2350.00, 
2351.00, 
2352.00, 
2353.00, 
2354.00, 
2355.00, 
2356.00, 
2357.00, 
2358.00, 
2359.00, 
2360.00, 
2361.00, 
2362.00, 
2363.00, 
2364.00, 
2365.00, 
2366.00, 
2367.00, 
2368.00, 
2369.00, 
2370.00, 
2371.00, 
2372.00, 
2373.00, 
2374.00, 
2375.00, 
2376.00, 
2377.00, 
2378.00, 
2379.00, 
2380.00, 
2381.00, 
2382.00, 
2383.00, 
2384.00, 
2385.00, 
2386.00, 
2387.00, 
2388.00, 
2389.00, 
2390.00, 
2391.00, 
2392.00, 
2393.00, 
2394.00, 
2395.00, 
2396.00, 
2397.00, 
2398.00, 
2399.00, 
2400.00, 
2401.00, 
2402.00, 
2403.00, 
2404.00, 
2405.00, 
2406.00, 
2407.00, 
2408.00, 
2409.00, 
2410.00, 
2411.00, 
2412.00, 
2413.00, 
2414.00, 
2415.00, 
2416.00, 
2417.00, 
2418.00, 
2419.00, 
2420.00, 
2421.00, 
2422.00, 
2423.00, 
2424.00, 
2425.00, 
2426.00, 
2427.00, 
2428.00, 
2429.00, 
2430.00, 
2431.00, 
2432.00, 
2433.00, 
2434.00, 
2435.00, 
2436.00, 
2437.00, 
2438.00, 
2439.00, 
2440.00, 
2441.00, 
2442.00, 
2443.00, 
2444.00, 
2445.00, 
2446.00, 
2447.00, 
2448.00, 
2449.00, 
2450.00, 
2451.00, 
2452.00, 
2453.00, 
2454.00, 
2455.00, 
2456.00, 
2457.00, 
2458.00, 
2459.00, 
2460.00, 
2461.00, 
2462.00, 
2463.00, 
2464.00, 
2465.00, 
2466.00, 
2467.00, 
2468.00, 
2469.00, 
2470.00, 
2471.00, 
2472.00, 
2473.00, 
2474.00, 
2475.00, 
2476.00, 
2477.00, 
2478.00, 
2479.00, 
2480.00, 
2481.00, 
2482.00, 
2483.00, 
2484.00, 
2485.00, 
2486.00, 
2487.00, 
2488.00, 
2489.00, 
2490.00, 
2491.00, 
2492.00, 
2493.00, 
2494.00, 
2495.00, 
2496.00, 
2497.00, 
2498.00, 
2499.00, 
2500.00, 
2501.00, 
2502.00, 
2503.00, 
2504.00, 
2505.00, 
2506.00, 
2507.00, 
2508.00, 
2509.00, 
2510.00, 
2511.00, 
2512.00, 
2513.00, 
2514.00, 
2515.00, 
2516.00, 
2517.00, 
2518.00, 
2519.00, 
2520.00, 
2521.00, 
2522.00, 
2523.00, 
2524.00, 
2525.00, 
2526.00, 
2527.00, 
2528.00, 
2529.00, 
2530.00, 
2531.00, 
2532.00, 
2533.00, 
2534.00, 
2535.00, 
2536.00, 
2537.00, 
2538.00, 
2539.00, 
2540.00, 
2541.00, 
2542.00, 
2543.00, 
2544.00, 
2545.00, 
2546.00, 
2547.00, 
2548.00, 
2549.00, 
2550.00, 
2551.00, 
2552.00, 
2553.00, 
2554.00, 
2555.00, 
2556.00, 
2557.00, 
2558.00, 
2559.00, 
2560.00, 
2561.00, 
2562.00, 
2563.00, 
2564.00, 
2565.00, 
2566.00, 
2567.00, 
2568.00, 
2569.00, 
2570.00, 
2571.00, 
2572.00, 
2573.00, 
2574.00, 
2575.00, 
2576.00, 
2577.00, 
2578.00, 
2579.00, 
2580.00, 
2581.00, 
2582.00, 
2583.00, 
2584.00, 
2585.00, 
2586.00, 
2587.00, 
2588.00, 
2589.00, 
2590.00, 
2591.00, 
2592.00, 
2593.00, 
2594.00, 
2595.00, 
2596.00, 
2597.00, 
2598.00, 
2599.00, 
2600.00, 
