"1cP2 - RawData"
"Wavelength nm.","T%"
200.00,0.003
201.00,-0.003
202.00,-0.003
203.00,0.001
204.00,0.002
205.00,0.003
206.00,0.002
207.00,0.003
208.00,0.000
209.00,0.006
210.00,-0.001
211.00,0.000
212.00,-0.001
213.00,0.001
214.00,-0.001
215.00,0.001
216.00,0.002
217.00,-0.000
218.00,-0.000
219.00,-0.002
220.00,-0.002
221.00,-0.002
222.00,0.001
223.00,0.001
224.00,0.000
225.00,-0.000
226.00,-0.000
227.00,0.000
228.00,0.002
229.00,-0.001
230.00,-0.001
231.00,0.001
232.00,0.001
233.00,-0.000
234.00,0.002
235.00,0.001
236.00,0.000
237.00,0.002
238.00,0.000
239.00,-0.000
240.00,0.000
241.00,0.002
242.00,-0.001
243.00,-0.000
244.00,0.003
245.00,0.001
246.00,-0.001
247.00,0.001
248.00,-0.000
249.00,0.002
250.00,0.002
251.00,-0.001
252.00,-0.001
253.00,0.001
254.00,-0.000
255.00,0.001
256.00,0.001
257.00,-0.000
258.00,-0.000
259.00,0.001
260.00,-0.001
261.00,-0.001
262.00,-0.000
263.00,0.000
264.00,-0.002
265.00,0.000
266.00,-0.000
267.00,0.000
268.00,0.001
269.00,0.000
270.00,0.001
271.00,0.000
272.00,-0.001
273.00,0.000
274.00,-0.001
275.00,0.001
276.00,0.001
277.00,-0.000
278.00,-0.001
279.00,0.000
280.00,-0.001
281.00,-0.002
282.00,0.000
283.00,-0.000
284.00,0.001
285.00,-0.000
286.00,0.000
287.00,0.000
288.00,0.001
289.00,0.000
290.00,0.001
291.00,0.002
292.00,0.000
293.00,0.000
294.00,0.001
295.00,-0.001
296.00,0.000
297.00,0.002
298.00,0.001
299.00,0.001
300.00,0.001
301.00,0.001
302.00,0.003
303.00,0.001
304.00,0.002
305.00,0.003
306.00,0.002
307.00,0.004
308.00,0.008
309.00,0.017
310.00,0.025
311.00,0.039
312.00,0.055
313.00,0.095
314.00,0.139
315.00,0.208
316.00,0.298
317.00,0.431
318.00,0.581
319.00,0.781
320.00,1.052
321.00,1.355
322.00,1.736
323.00,2.206
324.00,2.728
325.00,3.285
326.00,3.911
327.00,4.584
328.00,5.436
329.00,6.275
330.00,7.197
331.00,8.140
332.00,9.179
333.00,10.280
334.00,11.351
335.00,12.567
336.00,13.647
337.00,14.850
338.00,16.007
339.00,17.077
340.00,18.266
341.00,19.429
342.00,20.542
343.00,21.571
344.00,22.620
345.00,23.717
346.00,24.622
347.00,25.493
348.00,26.373
349.00,27.155
350.00,27.977
351.00,28.717
352.00,29.381
353.00,30.010
354.00,30.673
355.00,31.287
356.00,31.848
357.00,32.392
358.00,32.809
359.00,33.409
360.00,33.859
361.00,34.149
362.00,34.560
363.00,34.923
364.00,35.168
365.00,35.465
366.00,35.707
367.00,35.923
368.00,36.095
369.00,36.256
370.00,36.437
371.00,36.545
372.00,36.510
373.00,36.536
374.00,36.624
375.00,36.620
376.00,36.453
377.00,36.411
378.00,36.252
379.00,36.194
380.00,36.215
381.00,36.262
382.00,36.300
383.00,36.447
384.00,36.510
385.00,36.711
386.00,36.842
387.00,36.981
388.00,37.214
389.00,37.309
390.00,37.443
391.00,37.563
392.00,37.663
393.00,37.721
394.00,37.854
395.00,37.929
396.00,37.937
397.00,38.012
398.00,38.054
399.00,38.133
400.00,38.184
401.00,38.171
402.00,38.226
403.00,38.191
404.00,38.229
405.00,38.212
406.00,38.215
407.00,38.175
408.00,38.145
409.00,38.002
410.00,37.911
411.00,37.962
412.00,37.872
413.00,37.919
414.00,37.828
415.00,37.839
416.00,37.950
417.00,37.797
418.00,37.865
419.00,38.040
420.00,38.029
421.00,38.016
422.00,37.993
423.00,38.030
424.00,38.111
425.00,38.033
426.00,38.086
427.00,38.126
428.00,38.149
429.00,38.176
430.00,38.165
431.00,38.223
432.00,38.220
433.00,38.274
434.00,38.303
435.00,38.330
436.00,38.326
437.00,38.338
438.00,38.430
439.00,38.466
440.00,38.521
441.00,38.580
442.00,38.613
443.00,38.638
444.00,38.751
445.00,38.796
446.00,38.848
447.00,38.944
448.00,39.030
449.00,39.084
450.00,39.183
451.00,39.214
452.00,39.283
453.00,39.373
454.00,39.450
455.00,39.523
456.00,39.583
457.00,39.680
458.00,39.699
459.00,39.803
460.00,39.920
461.00,40.000
462.00,40.103
463.00,40.199
464.00,40.287
465.00,40.342
466.00,40.444
467.00,40.532
468.00,40.544
469.00,40.606
470.00,40.634
471.00,40.669
472.00,40.747
473.00,40.773
474.00,40.877
475.00,40.912
476.00,40.940
477.00,41.007
478.00,41.055
479.00,41.219
480.00,41.313
481.00,41.245
482.00,41.438
483.00,41.520
484.00,41.652
485.00,41.760
486.00,41.891
487.00,41.998
488.00,42.085
489.00,42.201
490.00,42.348
491.00,42.438
492.00,42.495
493.00,42.669
494.00,42.822
495.00,42.725
496.00,42.751
497.00,42.834
498.00,42.995
499.00,43.002
500.00,43.161
501.00,43.173
502.00,43.277
503.00,43.363
504.00,43.399
505.00,43.465
506.00,43.539
507.00,43.561
508.00,43.619
509.00,43.821
510.00,43.952
511.00,43.893
512.00,44.024
513.00,44.121
514.00,44.211
515.00,44.340
516.00,44.290
517.00,44.351
518.00,44.547
519.00,44.514
520.00,44.474
521.00,44.584
522.00,44.614
523.00,44.567
524.00,44.676
525.00,44.777
526.00,44.860
527.00,44.854
528.00,44.933
529.00,45.100
530.00,45.236
531.00,45.266
532.00,45.295
533.00,45.372
534.00,45.463
535.00,45.490
536.00,45.506
537.00,45.624
538.00,45.615
539.00,45.732
540.00,45.738
541.00,45.780
542.00,45.782
543.00,45.784
544.00,45.874
545.00,45.921
546.00,45.873
547.00,46.043
548.00,46.105
549.00,46.201
550.00,46.188
551.00,46.319
552.00,46.348
553.00,46.298
554.00,46.457
555.00,46.458
556.00,46.478
557.00,46.488
558.00,46.574
559.00,46.621
560.00,46.711
561.00,46.752
562.00,46.793
563.00,46.839
564.00,46.790
565.00,46.778
566.00,46.777
567.00,46.773
568.00,46.912
569.00,47.010
570.00,46.915
571.00,46.875
572.00,46.932
573.00,46.864
574.00,46.902
575.00,46.909
576.00,46.875
577.00,46.939
578.00,47.009
579.00,47.048
580.00,47.060
581.00,47.229
582.00,47.341
583.00,47.268
584.00,47.370
585.00,47.466
586.00,47.415
587.00,47.490
588.00,47.492
589.00,47.465
590.00,47.434
591.00,47.483
592.00,47.402
593.00,47.397
594.00,47.626
595.00,47.684
596.00,47.662
597.00,47.576
598.00,47.750
599.00,47.674
600.00,47.772
601.00,47.802
602.00,47.860
603.00,47.880
604.00,47.868
605.00,47.879
606.00,47.806
607.00,47.886
608.00,48.072
609.00,48.088
610.00,47.909
611.00,48.011
612.00,47.973
613.00,47.957
614.00,48.025
615.00,48.059
616.00,48.144
617.00,48.102
618.00,48.004
619.00,48.132
620.00,48.109
621.00,48.189
622.00,48.139
623.00,48.188
624.00,48.282
625.00,48.303
626.00,48.245
627.00,48.247
628.00,48.258
629.00,48.193
630.00,48.243
631.00,48.278
632.00,48.218
633.00,48.404
634.00,48.429
635.00,48.350
636.00,48.514
637.00,48.521
638.00,48.415
639.00,48.441
640.00,48.499
641.00,48.493
642.00,48.587
643.00,48.602
644.00,48.659
645.00,48.627
646.00,48.705
647.00,48.721
648.00,48.746
649.00,48.693
650.00,48.635
651.00,48.871
652.00,48.838
653.00,48.721
654.00,48.813
655.00,48.844
656.00,49.220
657.00,48.766
658.00,48.847
659.00,49.039
660.00,49.047
661.00,49.084
662.00,49.023
663.00,49.074
664.00,49.490
665.00,49.474
666.00,49.306
667.00,49.258
668.00,49.364
669.00,49.510
670.00,49.592
671.00,49.476
672.00,49.486
673.00,49.158
674.00,49.629
675.00,49.968
676.00,49.592
677.00,49.788
678.00,49.351
679.00,49.387
680.00,49.600
681.00,49.876
682.00,49.642
683.00,49.578
684.00,49.766
685.00,49.718
686.00,49.436
687.00,49.597
688.00,49.639
689.00,49.671
690.00,49.885
691.00,50.099
692.00,49.695
693.00,49.606
694.00,49.725
695.00,49.751
696.00,49.867
697.00,49.940
698.00,49.859
699.00,50.151
700.00,50.138
701.00,49.953
702.00,49.961
703.00,50.158
704.00,50.166
705.00,50.056
706.00,50.094
707.00,49.999
708.00,49.808
709.00,50.227
710.00,50.565
711.00,50.027
712.00,49.959
713.00,50.149
714.00,50.171
715.00,49.980
716.00,50.010
717.00,50.064
718.00,50.052
719.00,50.024
720.00,50.026
721.00,54.869
722.00,54.712
723.00,54.703
724.00,54.747
725.00,54.690
726.00,54.644
727.00,54.574
728.00,54.575
729.00,54.536
730.00,54.482
731.00,54.433
732.00,54.471
733.00,54.445
734.00,54.363
735.00,54.402
736.00,54.281
737.00,54.300
738.00,54.368
739.00,54.228
740.00,54.225
741.00,54.249
742.00,54.197
743.00,54.103
744.00,54.048
745.00,54.086
746.00,54.008
747.00,54.006
748.00,53.894
749.00,53.832
750.00,53.830
751.00,53.792
752.00,53.760
753.00,53.696
754.00,53.644
755.00,53.596
756.00,53.585
757.00,53.578
758.00,53.563
759.00,53.492
760.00,53.511
761.00,53.450
762.00,53.422
763.00,53.504
764.00,53.384
765.00,53.379
766.00,53.329
767.00,53.291
768.00,53.277
769.00,53.238
770.00,53.232
771.00,53.201
772.00,53.279
773.00,53.163
774.00,53.126
775.00,53.105
776.00,53.059
777.00,53.082
778.00,53.056
779.00,53.024
780.00,52.881
781.00,53.003
782.00,52.966
783.00,52.872
784.00,52.876
785.00,52.730
786.00,52.830
787.00,52.771
788.00,52.712
789.00,52.619
790.00,52.557
791.00,52.660
792.00,52.527
793.00,52.547
794.00,52.544
795.00,52.548
796.00,52.460
797.00,52.356
798.00,52.348
799.00,52.309
800.00,52.316
801.00,52.253
802.00,52.288
803.00,52.176
804.00,52.156
805.00,52.139
806.00,52.101
807.00,52.096
808.00,52.069
809.00,52.082
810.00,51.956
811.00,52.007
812.00,52.012
813.00,51.897
814.00,51.829
815.00,51.854
816.00,51.879
817.00,51.821
818.00,51.722
819.00,51.704
820.00,51.673
821.00,51.637
822.00,51.668
823.00,51.620
824.00,51.626
825.00,51.511
826.00,51.553
827.00,51.610
828.00,51.556
829.00,51.417
830.00,51.454
831.00,53.820
832.00,53.954
833.00,53.742
834.00,53.751
835.00,53.712
836.00,53.652
837.00,53.649
838.00,53.638
839.00,53.617
840.00,53.521
841.00,53.559
842.00,53.508
843.00,53.481
844.00,53.468
845.00,53.382
846.00,53.384
847.00,53.368
848.00,53.339
849.00,53.214
850.00,53.232
851.00,53.148
852.00,53.189
853.00,53.106
854.00,53.081
855.00,53.034
856.00,53.050
857.00,52.970
858.00,52.935
859.00,52.911
860.00,52.923
861.00,52.907
862.00,52.820
863.00,52.861
864.00,52.803
865.00,52.810
866.00,52.769
867.00,52.747
868.00,52.733
869.00,52.706
870.00,52.754
871.00,52.703
872.00,52.674
873.00,52.682
874.00,52.689
875.00,52.617
876.00,52.666
877.00,52.578
878.00,52.591
879.00,52.534
880.00,52.527
881.00,52.495
882.00,52.539
883.00,52.457
884.00,52.437
885.00,52.411
886.00,52.397
887.00,52.370
888.00,52.336
889.00,52.301
890.00,52.310
891.00,52.256
892.00,52.210
893.00,52.207
894.00,52.209
895.00,52.157
896.00,52.135
897.00,52.122
898.00,52.091
899.00,52.110
900.00,52.073
901.00,52.034
902.00,52.051
903.00,51.963
904.00,51.993
905.00,51.972
906.00,51.957
907.00,51.934
908.00,51.882
909.00,51.866
910.00,51.822
911.00,51.827
912.00,51.799
913.00,51.825
914.00,51.766
915.00,51.743
916.00,51.689
917.00,51.679
918.00,51.676
919.00,51.645
920.00,51.602
921.00,51.616
922.00,51.593
923.00,51.549
924.00,51.510
925.00,51.571
926.00,51.518
927.00,51.449
928.00,51.513
929.00,51.461
930.00,51.417
931.00,51.409
932.00,51.343
933.00,51.389
934.00,51.343
935.00,51.275
936.00,51.284
937.00,51.279
938.00,51.255
939.00,51.243
940.00,51.203
941.00,51.206
942.00,51.170
943.00,51.120
944.00,51.209
945.00,51.090
946.00,51.076
947.00,51.011
948.00,50.987
949.00,50.976
950.00,50.978
951.00,50.950
952.00,50.926
953.00,50.980
954.00,50.880
955.00,50.849
956.00,50.859
957.00,50.796
958.00,50.811
959.00,50.811
960.00,50.734
961.00,50.732
962.00,50.710
963.00,50.669
964.00,50.676
965.00,50.693
966.00,50.646
967.00,50.658
968.00,50.626
969.00,50.684
970.00,50.650
971.00,50.647
972.00,50.614
973.00,50.641
974.00,50.712
975.00,50.598
976.00,50.629
977.00,50.605
978.00,50.647
979.00,50.590
980.00,50.600
981.00,50.619
982.00,50.559
983.00,50.619
984.00,50.569
985.00,50.600
986.00,50.582
987.00,50.589
988.00,50.554
989.00,50.538
990.00,50.530
991.00,50.525
992.00,50.540
993.00,50.509
994.00,50.486
995.00,50.474
996.00,50.465
997.00,50.462
998.00,50.427
999.00,50.439
1000.00,50.401
1001.00,50.391
1002.00,50.401
1003.00,50.382
1004.00,50.348
1005.00,50.319
1006.00,50.354
1007.00,50.308
1008.00,50.293
1009.00,50.268
1010.00,50.269
1011.00,50.254
1012.00,50.220
1013.00,50.222
1014.00,50.196
1015.00,50.201
1016.00,50.179
1017.00,50.170
1018.00,50.152
1019.00,50.103
1020.00,50.156
1021.00,50.082
1022.00,50.095
1023.00,50.023
1024.00,50.052
1025.00,50.020
1026.00,50.003
1027.00,49.996
1028.00,49.974
1029.00,49.969
1030.00,49.936
1031.00,49.942
1032.00,49.905
1033.00,49.900
1034.00,49.869
1035.00,49.851
1036.00,49.827
1037.00,49.792
1038.00,49.786
1039.00,49.753
1040.00,49.775
1041.00,49.734
1042.00,49.724
1043.00,49.694
1044.00,49.711
1045.00,49.689
1046.00,49.716
1047.00,49.746
1048.00,49.733
1049.00,49.741
1050.00,49.737
1051.00,49.787
1052.00,49.764
1053.00,49.767
1054.00,49.787
1055.00,49.810
1056.00,49.811
1057.00,49.817
1058.00,49.805
1059.00,49.804
1060.00,49.857
1061.00,49.788
1062.00,49.778
1063.00,49.803
1064.00,49.779
1065.00,49.760
1066.00,49.787
1067.00,49.745
1068.00,49.793
1069.00,49.731
1070.00,49.708
1071.00,49.715
1072.00,49.729
1073.00,49.707
1074.00,49.708
1075.00,49.694
1076.00,49.689
1077.00,49.665
1078.00,49.641
1079.00,49.664
1080.00,49.674
1081.00,49.659
1082.00,49.641
1083.00,49.635
1084.00,49.621
1085.00,49.630
1086.00,49.596
1087.00,49.606
1088.00,49.576
1089.00,49.570
1090.00,49.564
1091.00,49.568
1092.00,49.553
1093.00,49.563
1094.00,49.529
1095.00,49.529
1096.00,49.518
1097.00,49.514
1098.00,49.491
1099.00,49.492
1100.00,49.462
1101.00,49.482
1102.00,49.455
1103.00,49.460
1104.00,49.457
1105.00,49.445
1106.00,49.435
1107.00,49.446
1108.00,49.424
1109.00,49.411
1110.00,49.393
1111.00,49.378
1112.00,49.370
1113.00,49.381
1114.00,49.353
1115.00,49.381
1116.00,49.361
1117.00,49.348
1118.00,49.329
1119.00,49.324
1120.00,49.315
1121.00,49.317
1122.00,49.292
1123.00,49.303
1124.00,49.294
1125.00,49.297
1126.00,49.293
1127.00,49.300
1128.00,49.266
1129.00,49.259
1130.00,49.238
1131.00,49.251
1132.00,49.233
1133.00,49.235
1134.00,49.232
1135.00,49.219
1136.00,49.222
1137.00,49.252
1138.00,49.228
1139.00,49.239
1140.00,49.220
1141.00,49.240
1142.00,49.212
1143.00,49.228
1144.00,49.193
1145.00,49.208
1146.00,49.202
1147.00,49.187
1148.00,49.183
1149.00,49.187
1150.00,49.182
1151.00,49.181
1152.00,49.163
1153.00,49.162
1154.00,49.160
1155.00,49.173
1156.00,49.173
1157.00,49.195
1158.00,49.164
1159.00,49.181
1160.00,49.185
1161.00,49.180
1162.00,49.179
1163.00,49.156
1164.00,49.173
1165.00,49.167
1166.00,49.162
1167.00,49.169
1168.00,49.181
1169.00,49.163
1170.00,49.187
1171.00,49.160
1172.00,49.169
1173.00,49.148
1174.00,49.148
1175.00,49.144
1176.00,49.147
1177.00,49.138
1178.00,49.144
1179.00,49.165
1180.00,49.137
1181.00,49.170
1182.00,49.144
1183.00,49.142
1184.00,49.146
1185.00,49.155
1186.00,49.135
1187.00,49.147
1188.00,49.136
1189.00,49.135
1190.00,49.135
1191.00,49.123
1192.00,49.161
1193.00,49.137
1194.00,49.140
1195.00,49.118
1196.00,49.143
1197.00,49.154
1198.00,49.135
1199.00,49.129
1200.00,49.137
1201.00,49.153
1202.00,49.123
1203.00,49.143
1204.00,49.129
1205.00,49.148
1206.00,49.130
1207.00,49.120
1208.00,49.116
1209.00,49.132
1210.00,49.120
1211.00,49.128
1212.00,49.156
1213.00,49.105
1214.00,49.143
1215.00,49.124
1216.00,49.133
1217.00,49.140
1218.00,49.132
1219.00,49.147
1220.00,49.125
1221.00,49.136
1222.00,49.144
1223.00,49.171
1224.00,49.159
1225.00,49.150
1226.00,49.155
1227.00,49.151
1228.00,49.172
1229.00,49.148
1230.00,49.180
1231.00,49.172
1232.00,49.193
1233.00,49.201
1234.00,49.195
1235.00,49.202
1236.00,49.207
1237.00,49.210
1238.00,49.190
1239.00,49.224
1240.00,49.197
1241.00,49.217
1242.00,49.228
1243.00,49.228
1244.00,49.212
1245.00,49.240
1246.00,49.232
1247.00,49.231
1248.00,49.229
1249.00,49.252
1250.00,49.264
1251.00,49.238
1252.00,49.252
1253.00,49.236
1254.00,49.264
1255.00,49.252
1256.00,49.240
1257.00,49.236
1258.00,49.278
1259.00,49.264
1260.00,49.285
1261.00,49.291
1262.00,49.279
1263.00,49.308
1264.00,49.305
1265.00,49.302
1266.00,49.306
1267.00,49.331
1268.00,49.334
1269.00,49.342
1270.00,49.366
1271.00,49.358
1272.00,49.365
1273.00,49.378
1274.00,49.366
1275.00,49.377
1276.00,49.347
1277.00,49.396
1278.00,49.399
1279.00,49.376
1280.00,49.390
1281.00,49.408
1282.00,49.425
1283.00,49.421
1284.00,49.427
1285.00,49.415
1286.00,49.437
1287.00,49.425
1288.00,49.440
1289.00,49.435
1290.00,49.457
1291.00,49.464
1292.00,49.461
1293.00,49.472
1294.00,49.499
1295.00,49.496
1296.00,49.507
1297.00,49.512
1298.00,49.542
1299.00,49.509
1300.00,49.527
1301.00,49.513
1302.00,49.547
1303.00,49.538
1304.00,49.522
1305.00,49.557
1306.00,49.554
1307.00,49.548
1308.00,49.574
1309.00,49.614
1310.00,49.557
1311.00,49.574
1312.00,49.578
1313.00,49.609
1314.00,49.616
1315.00,49.640
1316.00,49.625
1317.00,49.674
1318.00,49.651
1319.00,49.654
1320.00,49.656
1321.00,49.851
1322.00,49.836
1323.00,49.837
1324.00,49.821
1325.00,49.812
1326.00,49.825
1327.00,49.817
1328.00,49.814
1329.00,49.808
1330.00,49.821
1331.00,49.804
1332.00,49.822
1333.00,49.823
1334.00,49.876
1335.00,49.887
1336.00,49.910
1337.00,49.928
1338.00,49.997
1339.00,50.030
1340.00,50.089
1341.00,50.166
1342.00,50.217
1343.00,50.267
1344.00,50.304
1345.00,50.388
1346.00,50.431
1347.00,50.449
1348.00,50.498
1349.00,50.514
1350.00,50.533
1351.00,50.548
1352.00,50.592
1353.00,50.444
1354.00,50.570
1355.00,50.512
1356.00,50.567
1357.00,50.572
1358.00,50.623
1359.00,50.596
1360.00,50.688
1361.00,50.585
1362.00,50.557
1363.00,50.670
1364.00,50.492
1365.00,50.575
1366.00,50.616
1367.00,50.585
1368.00,50.536
1369.00,50.396
1370.00,50.597
1371.00,50.554
1372.00,50.581
1373.00,50.603
1374.00,50.608
1375.00,50.586
1376.00,50.606
1377.00,50.588
1378.00,50.708
1379.00,50.641
1380.00,50.631
1381.00,50.639
1382.00,50.535
1383.00,50.631
1384.00,50.542
1385.00,50.566
1386.00,50.626
1387.00,50.567
1388.00,50.520
1389.00,50.572
1390.00,50.637
1391.00,50.532
1392.00,50.581
1393.00,50.656
1394.00,50.608
1395.00,50.505
1396.00,50.498
1397.00,50.626
1398.00,50.632
1399.00,50.519
1400.00,50.496
1401.00,50.578
1402.00,50.700
1403.00,50.553
1404.00,50.562
1405.00,50.635
1406.00,50.621
1407.00,50.649
1408.00,50.601
1409.00,50.615
1410.00,50.675
1411.00,50.660
1412.00,50.719
1413.00,50.618
1414.00,50.623
1415.00,50.667
1416.00,50.740
1417.00,50.781
1418.00,50.705
1419.00,50.708
1420.00,50.754
1421.00,50.820
1422.00,50.780
1423.00,50.805
1424.00,50.816
1425.00,50.862
1426.00,50.851
1427.00,50.875
1428.00,50.888
1429.00,50.951
1430.00,50.895
1431.00,50.919
1432.00,50.946
1433.00,50.960
1434.00,50.948
1435.00,51.026
1436.00,51.024
1437.00,51.031
1438.00,51.047
1439.00,51.077
1440.00,51.098
1441.00,51.095
1442.00,51.132
1443.00,51.137
1444.00,51.228
1445.00,51.115
1446.00,51.153
1447.00,51.219
1448.00,51.261
1449.00,51.255
1450.00,51.240
1451.00,51.262
1452.00,51.290
1453.00,51.299
1454.00,51.328
1455.00,51.341
1456.00,51.369
1457.00,51.349
1458.00,51.392
1459.00,51.412
1460.00,51.430
1461.00,51.445
1462.00,51.467
1463.00,51.482
1464.00,51.488
1465.00,51.498
1466.00,51.513
1467.00,51.539
1468.00,51.599
1469.00,51.551
1470.00,51.587
1471.00,51.593
1472.00,51.610
1473.00,51.625
1474.00,51.661
1475.00,51.655
1476.00,51.658
1477.00,51.662
1478.00,51.713
1479.00,51.730
1480.00,51.724
1481.00,51.730
1482.00,51.754
1483.00,51.770
1484.00,51.790
1485.00,51.783
1486.00,51.822
1487.00,51.835
1488.00,51.881
1489.00,51.883
1490.00,51.899
1491.00,51.905
1492.00,51.928
1493.00,51.885
1494.00,51.944
1495.00,51.925
1496.00,51.968
1497.00,51.953
1498.00,51.968
1499.00,51.979
1500.00,51.999
1501.00, 
1502.00, 
1503.00, 
1504.00, 
1505.00, 
1506.00, 
1507.00, 
1508.00, 
1509.00, 
1510.00, 
1511.00, 
1512.00, 
1513.00, 
1514.00, 
1515.00, 
1516.00, 
1517.00, 
1518.00, 
1519.00, 
1520.00, 
1521.00, 
1522.00, 
1523.00, 
1524.00, 
1525.00, 
1526.00, 
1527.00, 
1528.00, 
1529.00, 
1530.00, 
1531.00, 
1532.00, 
1533.00, 
1534.00, 
1535.00, 
1536.00, 
1537.00, 
1538.00, 
1539.00, 
1540.00, 
1541.00, 
1542.00, 
1543.00, 
1544.00, 
1545.00, 
1546.00, 
1547.00, 
1548.00, 
1549.00, 
1550.00, 
1551.00, 
1552.00, 
1553.00, 
1554.00, 
1555.00, 
1556.00, 
1557.00, 
1558.00, 
1559.00, 
1560.00, 
1561.00, 
1562.00, 
1563.00, 
1564.00, 
1565.00, 
1566.00, 
1567.00, 
1568.00, 
1569.00, 
1570.00, 
1571.00, 
1572.00, 
1573.00, 
1574.00, 
1575.00, 
1576.00, 
1577.00, 
1578.00, 
1579.00, 
1580.00, 
1581.00, 
1582.00, 
1583.00, 
1584.00, 
1585.00, 
1586.00, 
1587.00, 
1588.00, 
1589.00, 
1590.00, 
1591.00, 
1592.00, 
1593.00, 
1594.00, 
1595.00, 
1596.00, 
1597.00, 
1598.00, 
1599.00, 
1600.00, 
1601.00, 
1602.00, 
1603.00, 
1604.00, 
1605.00, 
1606.00, 
1607.00, 
1608.00, 
1609.00, 
1610.00, 
1611.00, 
1612.00, 
1613.00, 
1614.00, 
1615.00, 
1616.00, 
1617.00, 
1618.00, 
1619.00, 
1620.00, 
1621.00, 
1622.00, 
1623.00, 
1624.00, 
1625.00, 
1626.00, 
1627.00, 
1628.00, 
1629.00, 
1630.00, 
1631.00, 
1632.00, 
1633.00, 
1634.00, 
1635.00, 
1636.00, 
1637.00, 
1638.00, 
1639.00, 
1640.00, 
1641.00, 
1642.00, 
1643.00, 
1644.00, 
1645.00, 
1646.00, 
1647.00, 
1648.00, 
1649.00, 
1650.00, 
1651.00, 
1652.00, 
1653.00, 
1654.00, 
1655.00, 
1656.00, 
1657.00, 
1658.00, 
1659.00, 
1660.00, 
1661.00, 
1662.00, 
1663.00, 
1664.00, 
1665.00, 
1666.00, 
1667.00, 
1668.00, 
1669.00, 
1670.00, 
1671.00, 
1672.00, 
1673.00, 
1674.00, 
1675.00, 
1676.00, 
1677.00, 
1678.00, 
1679.00, 
1680.00, 
1681.00, 
1682.00, 
1683.00, 
1684.00, 
1685.00, 
1686.00, 
1687.00, 
1688.00, 
1689.00, 
1690.00, 
1691.00, 
1692.00, 
1693.00, 
1694.00, 
1695.00, 
1696.00, 
1697.00, 
1698.00, 
1699.00, 
1700.00, 
1701.00, 
1702.00, 
1703.00, 
1704.00, 
1705.00, 
1706.00, 
1707.00, 
1708.00, 
1709.00, 
1710.00, 
1711.00, 
1712.00, 
1713.00, 
1714.00, 
1715.00, 
1716.00, 
1717.00, 
1718.00, 
1719.00, 
1720.00, 
1721.00, 
1722.00, 
1723.00, 
1724.00, 
1725.00, 
1726.00, 
1727.00, 
1728.00, 
1729.00, 
1730.00, 
1731.00, 
1732.00, 
1733.00, 
1734.00, 
1735.00, 
1736.00, 
1737.00, 
1738.00, 
1739.00, 
1740.00, 
1741.00, 
1742.00, 
1743.00, 
1744.00, 
1745.00, 
1746.00, 
1747.00, 
1748.00, 
1749.00, 
1750.00, 
1751.00, 
1752.00, 
1753.00, 
1754.00, 
1755.00, 
1756.00, 
1757.00, 
1758.00, 
1759.00, 
1760.00, 
1761.00, 
1762.00, 
1763.00, 
1764.00, 
1765.00, 
1766.00, 
1767.00, 
1768.00, 
1769.00, 
1770.00, 
1771.00, 
1772.00, 
1773.00, 
1774.00, 
1775.00, 
1776.00, 
1777.00, 
1778.00, 
1779.00, 
1780.00, 
1781.00, 
1782.00, 
1783.00, 
1784.00, 
1785.00, 
1786.00, 
1787.00, 
1788.00, 
1789.00, 
1790.00, 
1791.00, 
1792.00, 
1793.00, 
1794.00, 
1795.00, 
1796.00, 
1797.00, 
1798.00, 
1799.00, 
1800.00, 
1801.00, 
1802.00, 
1803.00, 
1804.00, 
1805.00, 
1806.00, 
1807.00, 
1808.00, 
1809.00, 
1810.00, 
1811.00, 
1812.00, 
1813.00, 
1814.00, 
1815.00, 
1816.00, 
1817.00, 
1818.00, 
1819.00, 
1820.00, 
1821.00, 
1822.00, 
1823.00, 
1824.00, 
1825.00, 
1826.00, 
1827.00, 
1828.00, 
1829.00, 
1830.00, 
1831.00, 
1832.00, 
1833.00, 
1834.00, 
1835.00, 
1836.00, 
1837.00, 
1838.00, 
1839.00, 
1840.00, 
1841.00, 
1842.00, 
1843.00, 
1844.00, 
1845.00, 
1846.00, 
1847.00, 
1848.00, 
1849.00, 
1850.00, 
1851.00, 
1852.00, 
1853.00, 
1854.00, 
1855.00, 
1856.00, 
1857.00, 
1858.00, 
1859.00, 
1860.00, 
1861.00, 
1862.00, 
1863.00, 
1864.00, 
1865.00, 
1866.00, 
1867.00, 
1868.00, 
1869.00, 
1870.00, 
1871.00, 
1872.00, 
1873.00, 
1874.00, 
1875.00, 
1876.00, 
1877.00, 
1878.00, 
1879.00, 
1880.00, 
1881.00, 
1882.00, 
1883.00, 
1884.00, 
1885.00, 
1886.00, 
1887.00, 
1888.00, 
1889.00, 
1890.00, 
1891.00, 
1892.00, 
1893.00, 
1894.00, 
1895.00, 
1896.00, 
1897.00, 
1898.00, 
1899.00, 
1900.00, 
1901.00, 
1902.00, 
1903.00, 
1904.00, 
1905.00, 
1906.00, 
1907.00, 
1908.00, 
1909.00, 
1910.00, 
1911.00, 
1912.00, 
1913.00, 
1914.00, 
1915.00, 
1916.00, 
1917.00, 
1918.00, 
1919.00, 
1920.00, 
1921.00, 
1922.00, 
1923.00, 
1924.00, 
1925.00, 
1926.00, 
1927.00, 
1928.00, 
1929.00, 
1930.00, 
1931.00, 
1932.00, 
1933.00, 
1934.00, 
1935.00, 
1936.00, 
1937.00, 
1938.00, 
1939.00, 
1940.00, 
1941.00, 
1942.00, 
1943.00, 
1944.00, 
1945.00, 
1946.00, 
1947.00, 
1948.00, 
1949.00, 
1950.00, 
1951.00, 
1952.00, 
1953.00, 
1954.00, 
1955.00, 
1956.00, 
1957.00, 
1958.00, 
1959.00, 
1960.00, 
1961.00, 
1962.00, 
1963.00, 
1964.00, 
1965.00, 
1966.00, 
1967.00, 
1968.00, 
1969.00, 
1970.00, 
1971.00, 
1972.00, 
1973.00, 
1974.00, 
1975.00, 
1976.00, 
1977.00, 
1978.00, 
1979.00, 
1980.00, 
1981.00, 
1982.00, 
1983.00, 
1984.00, 
1985.00, 
1986.00, 
1987.00, 
1988.00, 
1989.00, 
1990.00, 
1991.00, 
1992.00, 
1993.00, 
1994.00, 
1995.00, 
1996.00, 
1997.00, 
1998.00, 
1999.00, 
2000.00, 
2001.00, 
2002.00, 
2003.00, 
2004.00, 
2005.00, 
2006.00, 
2007.00, 
2008.00, 
2009.00, 
2010.00, 
2011.00, 
2012.00, 
2013.00, 
2014.00, 
2015.00, 
2016.00, 
2017.00, 
2018.00, 
2019.00, 
2020.00, 
2021.00, 
2022.00, 
2023.00, 
2024.00, 
2025.00, 
2026.00, 
2027.00, 
2028.00, 
2029.00, 
2030.00, 
2031.00, 
2032.00, 
2033.00, 
2034.00, 
2035.00, 
2036.00, 
2037.00, 
2038.00, 
2039.00, 
2040.00, 
2041.00, 
2042.00, 
2043.00, 
2044.00, 
2045.00, 
2046.00, 
2047.00, 
2048.00, 
2049.00, 
2050.00, 
2051.00, 
2052.00, 
2053.00, 
2054.00, 
2055.00, 
2056.00, 
2057.00, 
2058.00, 
2059.00, 
2060.00, 
2061.00, 
2062.00, 
2063.00, 
2064.00, 
2065.00, 
2066.00, 
2067.00, 
2068.00, 
2069.00, 
2070.00, 
2071.00, 
2072.00, 
2073.00, 
2074.00, 
2075.00, 
2076.00, 
2077.00, 
2078.00, 
2079.00, 
2080.00, 
2081.00, 
2082.00, 
2083.00, 
2084.00, 
2085.00, 
2086.00, 
2087.00, 
2088.00, 
2089.00, 
2090.00, 
2091.00, 
2092.00, 
2093.00, 
2094.00, 
2095.00, 
2096.00, 
2097.00, 
2098.00, 
2099.00, 
2100.00, 
2101.00, 
2102.00, 
2103.00, 
2104.00, 
2105.00, 
2106.00, 
2107.00, 
2108.00, 
2109.00, 
2110.00, 
2111.00, 
2112.00, 
2113.00, 
2114.00, 
2115.00, 
2116.00, 
2117.00, 
2118.00, 
2119.00, 
2120.00, 
2121.00, 
2122.00, 
2123.00, 
2124.00, 
2125.00, 
2126.00, 
2127.00, 
2128.00, 
2129.00, 
2130.00, 
2131.00, 
2132.00, 
2133.00, 
2134.00, 
2135.00, 
2136.00, 
2137.00, 
2138.00, 
2139.00, 
2140.00, 
2141.00, 
2142.00, 
2143.00, 
2144.00, 
2145.00, 
2146.00, 
2147.00, 
2148.00, 
2149.00, 
2150.00, 
2151.00, 
2152.00, 
2153.00, 
2154.00, 
2155.00, 
2156.00, 
2157.00, 
2158.00, 
2159.00, 
2160.00, 
2161.00, 
2162.00, 
2163.00, 
2164.00, 
2165.00, 
2166.00, 
2167.00, 
2168.00, 
2169.00, 
2170.00, 
2171.00, 
2172.00, 
2173.00, 
2174.00, 
2175.00, 
2176.00, 
2177.00, 
2178.00, 
2179.00, 
2180.00, 
2181.00, 
2182.00, 
2183.00, 
2184.00, 
2185.00, 
2186.00, 
2187.00, 
2188.00, 
2189.00, 
2190.00, 
2191.00, 
2192.00, 
2193.00, 
2194.00, 
2195.00, 
2196.00, 
2197.00, 
2198.00, 
2199.00, 
2200.00, 
2201.00, 
2202.00, 
2203.00, 
2204.00, 
2205.00, 
2206.00, 
2207.00, 
2208.00, 
2209.00, 
2210.00, 
2211.00, 
2212.00, 
2213.00, 
2214.00, 
2215.00, 
2216.00, 
2217.00, 
2218.00, 
2219.00, 
2220.00, 
2221.00, 
2222.00, 
2223.00, 
2224.00, 
2225.00, 
2226.00, 
2227.00, 
2228.00, 
2229.00, 
2230.00, 
2231.00, 
2232.00, 
2233.00, 
2234.00, 
2235.00, 
2236.00, 
2237.00, 
2238.00, 
2239.00, 
2240.00, 
2241.00, 
2242.00, 
2243.00, 
2244.00, 
2245.00, 
2246.00, 
2247.00, 
2248.00, 
2249.00, 
2250.00, 
2251.00, 
2252.00, 
2253.00, 
2254.00, 
2255.00, 
2256.00, 
2257.00, 
2258.00, 
2259.00, 
2260.00, 
2261.00, 
2262.00, 
2263.00, 
2264.00, 
2265.00, 
2266.00, 
2267.00, 
2268.00, 
2269.00, 
2270.00, 
2271.00, 
2272.00, 
2273.00, 
2274.00, 
2275.00, 
2276.00, 
2277.00, 
2278.00, 
2279.00, 
2280.00, 
2281.00, 
2282.00, 
2283.00, 
2284.00, 
2285.00, 
2286.00, 
2287.00, 
2288.00, 
2289.00, 
2290.00, 
2291.00, 
2292.00, 
2293.00, 
2294.00, 
2295.00, 
2296.00, 
2297.00, 
2298.00, 
2299.00, 
2300.00, 
2301.00, 
2302.00, 
2303.00, 
2304.00, 
2305.00, 
2306.00, 
2307.00, 
2308.00, 
2309.00, 
2310.00, 
2311.00, 
2312.00, 
2313.00, 
2314.00, 
2315.00, 
2316.00, 
2317.00, 
2318.00, 
2319.00, 
2320.00, 
2321.00, 
2322.00, 
2323.00, 
2324.00, 
2325.00, 
2326.00, 
2327.00, 
2328.00, 
2329.00, 
2330.00, 
2331.00, 
2332.00, 
2333.00, 
2334.00, 
2335.00, 
2336.00, 
2337.00, 
2338.00, 
2339.00, 
2340.00, 
2341.00, 
2342.00, 
2343.00, 
2344.00, 
2345.00, 
2346.00, 
2347.00, 
2348.00, 
2349.00, 
2350.00, 
2351.00, 
2352.00, 
2353.00, 
2354.00, 
2355.00, 
2356.00, 
2357.00, 
2358.00, 
2359.00, 
2360.00, 
2361.00, 
2362.00, 
2363.00, 
2364.00, 
2365.00, 
2366.00, 
2367.00, 
2368.00, 
2369.00, 
2370.00, 
2371.00, 
2372.00, 
2373.00, 
2374.00, 
2375.00, 
2376.00, 
2377.00, 
2378.00, 
2379.00, 
2380.00, 
2381.00, 
2382.00, 
2383.00, 
2384.00, 
2385.00, 
2386.00, 
2387.00, 
2388.00, 
2389.00, 
2390.00, 
2391.00, 
2392.00, 
2393.00, 
2394.00, 
2395.00, 
2396.00, 
2397.00, 
2398.00, 
2399.00, 
2400.00, 
2401.00, 
2402.00, 
2403.00, 
2404.00, 
2405.00, 
2406.00, 
2407.00, 
2408.00, 
2409.00, 
2410.00, 
2411.00, 
2412.00, 
2413.00, 
2414.00, 
2415.00, 
2416.00, 
2417.00, 
2418.00, 
2419.00, 
2420.00, 
2421.00, 
2422.00, 
2423.00, 
2424.00, 
2425.00, 
2426.00, 
2427.00, 
2428.00, 
2429.00, 
2430.00, 
2431.00, 
2432.00, 
2433.00, 
2434.00, 
2435.00, 
2436.00, 
2437.00, 
2438.00, 
2439.00, 
2440.00, 
2441.00, 
2442.00, 
2443.00, 
2444.00, 
2445.00, 
2446.00, 
2447.00, 
2448.00, 
2449.00, 
2450.00, 
2451.00, 
2452.00, 
2453.00, 
2454.00, 
2455.00, 
2456.00, 
2457.00, 
2458.00, 
2459.00, 
2460.00, 
2461.00, 
2462.00, 
2463.00, 
2464.00, 
2465.00, 
2466.00, 
2467.00, 
2468.00, 
2469.00, 
2470.00, 
2471.00, 
2472.00, 
2473.00, 
2474.00, 
2475.00, 
2476.00, 
2477.00, 
2478.00, 
2479.00, 
2480.00, 
2481.00, 
2482.00, 
2483.00, 
2484.00, 
2485.00, 
2486.00, 
2487.00, 
2488.00, 
2489.00, 
2490.00, 
2491.00, 
2492.00, 
2493.00, 
2494.00, 
2495.00, 
2496.00, 
2497.00, 
2498.00, 
2499.00, 
2500.00, 
2501.00, 
2502.00, 
2503.00, 
2504.00, 
2505.00, 
2506.00, 
2507.00, 
2508.00, 
2509.00, 
2510.00, 
2511.00, 
2512.00, 
2513.00, 
2514.00, 
2515.00, 
2516.00, 
2517.00, 
2518.00, 
2519.00, 
2520.00, 
2521.00, 
2522.00, 
2523.00, 
2524.00, 
2525.00, 
2526.00, 
2527.00, 
2528.00, 
2529.00, 
2530.00, 
2531.00, 
2532.00, 
2533.00, 
2534.00, 
2535.00, 
2536.00, 
2537.00, 
2538.00, 
2539.00, 
2540.00, 
2541.00, 
2542.00, 
2543.00, 
2544.00, 
2545.00, 
2546.00, 
2547.00, 
2548.00, 
2549.00, 
2550.00, 
2551.00, 
2552.00, 
2553.00, 
2554.00, 
2555.00, 
2556.00, 
2557.00, 
2558.00, 
2559.00, 
2560.00, 
2561.00, 
2562.00, 
2563.00, 
2564.00, 
2565.00, 
2566.00, 
2567.00, 
2568.00, 
2569.00, 
2570.00, 
2571.00, 
2572.00, 
2573.00, 
2574.00, 
2575.00, 
2576.00, 
2577.00, 
2578.00, 
2579.00, 
2580.00, 
2581.00, 
2582.00, 
2583.00, 
2584.00, 
2585.00, 
2586.00, 
2587.00, 
2588.00, 
2589.00, 
2590.00, 
2591.00, 
2592.00, 
2593.00, 
2594.00, 
2595.00, 
2596.00, 
2597.00, 
2598.00, 
2599.00, 
2600.00, 
