"1cP3 - RawData"
"Wavelength nm.","T%"
200.00,0.004
201.00,0.001
202.00,0.003
203.00,0.001
204.00,0.004
205.00,0.003
206.00,-0.002
207.00,0.005
208.00,0.002
209.00,0.001
210.00,0.003
211.00,0.003
212.00,0.001
213.00,-0.000
214.00,0.001
215.00,0.000
216.00,0.000
217.00,0.003
218.00,-0.002
219.00,-0.001
220.00,0.002
221.00,0.001
222.00,0.002
223.00,0.001
224.00,0.001
225.00,0.002
226.00,0.001
227.00,0.002
228.00,0.001
229.00,0.000
230.00,-0.001
231.00,-0.000
232.00,-0.001
233.00,0.001
234.00,0.001
235.00,-0.002
236.00,-0.001
237.00,0.001
238.00,0.002
239.00,0.002
240.00,0.001
241.00,0.001
242.00,-0.002
243.00,0.001
244.00,0.001
245.00,0.003
246.00,-0.001
247.00,-0.002
248.00,0.001
249.00,0.001
250.00,-0.000
251.00,0.001
252.00,0.000
253.00,-0.001
254.00,-0.001
255.00,0.002
256.00,0.001
257.00,0.001
258.00,0.003
259.00,-0.000
260.00,-0.001
261.00,0.001
262.00,-0.001
263.00,-0.001
264.00,-0.001
265.00,-0.001
266.00,0.000
267.00,0.000
268.00,0.002
269.00,0.002
270.00,-0.000
271.00,0.001
272.00,-0.000
273.00,-0.001
274.00,0.001
275.00,0.001
276.00,-0.002
277.00,-0.000
278.00,-0.000
279.00,0.001
280.00,0.002
281.00,0.002
282.00,-0.000
283.00,-0.001
284.00,0.002
285.00,-0.000
286.00,0.000
287.00,-0.000
288.00,-0.001
289.00,0.001
290.00,-0.003
291.00,0.000
292.00,0.001
293.00,-0.000
294.00,-0.001
295.00,0.000
296.00,0.000
297.00,0.000
298.00,0.000
299.00,-0.000
300.00,0.002
301.00,-0.001
302.00,0.001
303.00,-0.001
304.00,0.002
305.00,-0.001
306.00,0.003
307.00,0.004
308.00,0.005
309.00,0.014
310.00,0.018
311.00,0.032
312.00,0.045
313.00,0.067
314.00,0.103
315.00,0.152
316.00,0.216
317.00,0.308
318.00,0.425
319.00,0.563
320.00,0.755
321.00,0.979
322.00,1.266
323.00,1.555
324.00,1.949
325.00,2.363
326.00,2.800
327.00,3.329
328.00,3.879
329.00,4.483
330.00,5.167
331.00,5.829
332.00,6.537
333.00,7.341
334.00,8.080
335.00,8.871
336.00,9.676
337.00,10.491
338.00,11.321
339.00,12.113
340.00,12.927
341.00,13.720
342.00,14.508
343.00,15.219
344.00,15.945
345.00,16.690
346.00,17.350
347.00,17.876
348.00,18.505
349.00,19.046
350.00,19.604
351.00,20.152
352.00,20.606
353.00,20.982
354.00,21.414
355.00,21.860
356.00,22.189
357.00,22.555
358.00,22.858
359.00,23.234
360.00,23.557
361.00,23.708
362.00,23.984
363.00,24.219
364.00,24.326
365.00,24.523
366.00,24.647
367.00,24.777
368.00,24.905
369.00,24.963
370.00,25.061
371.00,25.136
372.00,25.085
373.00,25.095
374.00,25.138
375.00,25.093
376.00,24.967
377.00,24.879
378.00,24.824
379.00,24.724
380.00,24.699
381.00,24.708
382.00,24.727
383.00,24.778
384.00,24.812
385.00,24.927
386.00,24.980
387.00,25.008
388.00,25.163
389.00,25.173
390.00,25.317
391.00,25.376
392.00,25.457
393.00,25.455
394.00,25.470
395.00,25.562
396.00,25.524
397.00,25.576
398.00,25.558
399.00,25.601
400.00,25.647
401.00,25.636
402.00,25.612
403.00,25.607
404.00,25.586
405.00,25.591
406.00,25.558
407.00,25.539
408.00,25.572
409.00,25.464
410.00,25.400
411.00,25.424
412.00,25.371
413.00,25.374
414.00,25.317
415.00,25.352
416.00,25.424
417.00,25.358
418.00,25.393
419.00,25.496
420.00,25.538
421.00,25.504
422.00,25.519
423.00,25.568
424.00,25.640
425.00,25.622
426.00,25.623
427.00,25.684
428.00,25.699
429.00,25.745
430.00,25.794
431.00,25.804
432.00,25.855
433.00,25.890
434.00,25.963
435.00,26.030
436.00,26.030
437.00,26.085
438.00,26.161
439.00,26.208
440.00,26.270
441.00,26.338
442.00,26.418
443.00,26.495
444.00,26.601
445.00,26.667
446.00,26.723
447.00,26.778
448.00,26.959
449.00,26.937
450.00,27.117
451.00,27.210
452.00,27.317
453.00,27.418
454.00,27.514
455.00,27.623
456.00,27.716
457.00,27.861
458.00,27.909
459.00,28.039
460.00,28.176
461.00,28.294
462.00,28.399
463.00,28.524
464.00,28.668
465.00,28.726
466.00,28.874
467.00,29.021
468.00,29.043
469.00,29.156
470.00,29.250
471.00,29.319
472.00,29.451
473.00,29.528
474.00,29.650
475.00,29.741
476.00,29.855
477.00,29.929
478.00,30.061
479.00,30.224
480.00,30.375
481.00,30.480
482.00,30.623
483.00,30.728
484.00,30.905
485.00,31.037
486.00,31.188
487.00,31.317
488.00,31.446
489.00,31.575
490.00,31.767
491.00,31.876
492.00,32.023
493.00,32.231
494.00,32.381
495.00,32.348
496.00,32.456
497.00,32.550
498.00,32.741
499.00,32.825
500.00,33.005
501.00,33.103
502.00,33.195
503.00,33.316
504.00,33.290
505.00,33.473
506.00,33.652
507.00,33.729
508.00,33.859
509.00,34.034
510.00,34.172
511.00,34.204
512.00,34.296
513.00,34.446
514.00,34.578
515.00,34.659
516.00,34.849
517.00,34.970
518.00,34.976
519.00,35.005
520.00,35.177
521.00,35.308
522.00,35.393
523.00,35.413
524.00,35.555
525.00,35.656
526.00,35.771
527.00,35.800
528.00,35.942
529.00,36.096
530.00,36.270
531.00,36.304
532.00,36.371
533.00,36.517
534.00,36.631
535.00,36.680
536.00,36.757
537.00,36.815
538.00,36.911
539.00,36.985
540.00,37.065
541.00,37.134
542.00,37.156
543.00,37.243
544.00,37.334
545.00,37.373
546.00,37.406
547.00,37.586
548.00,37.643
549.00,37.726
550.00,37.774
551.00,37.923
552.00,37.987
553.00,38.043
554.00,38.102
555.00,38.156
556.00,38.219
557.00,38.308
558.00,38.370
559.00,38.419
560.00,38.507
561.00,38.560
562.00,38.608
563.00,38.714
564.00,38.730
565.00,38.715
566.00,38.793
567.00,38.798
568.00,38.889
569.00,39.042
570.00,38.970
571.00,39.028
572.00,39.078
573.00,39.019
574.00,39.079
575.00,39.092
576.00,39.106
577.00,39.154
578.00,39.284
579.00,39.358
580.00,39.387
581.00,39.563
582.00,39.642
583.00,39.622
584.00,39.755
585.00,39.805
586.00,39.811
587.00,39.880
588.00,39.919
589.00,39.857
590.00,40.002
591.00,40.036
592.00,39.980
593.00,40.033
594.00,40.187
595.00,40.221
596.00,40.312
597.00,40.353
598.00,40.461
599.00,40.449
600.00,40.573
601.00,40.554
602.00,40.554
603.00,40.550
604.00,40.636
605.00,40.723
606.00,40.711
607.00,40.777
608.00,41.016
609.00,41.023
610.00,40.871
611.00,40.904
612.00,40.975
613.00,41.009
614.00,41.122
615.00,41.165
616.00,41.253
617.00,41.238
618.00,41.140
619.00,41.294
620.00,41.334
621.00,41.397
622.00,41.451
623.00,41.509
624.00,41.573
625.00,41.639
626.00,41.658
627.00,41.737
628.00,41.687
629.00,41.717
630.00,41.834
631.00,41.872
632.00,41.934
633.00,42.088
634.00,42.091
635.00,42.169
636.00,42.230
637.00,42.291
638.00,42.363
639.00,42.461
640.00,42.421
641.00,42.482
642.00,42.610
643.00,42.582
644.00,42.698
645.00,42.710
646.00,42.793
647.00,42.967
648.00,42.968
649.00,42.939
650.00,42.894
651.00,43.130
652.00,43.278
653.00,43.217
654.00,43.314
655.00,43.418
656.00,43.787
657.00,43.500
658.00,43.613
659.00,43.759
660.00,43.844
661.00,43.783
662.00,43.867
663.00,43.961
664.00,44.266
665.00,44.381
666.00,44.308
667.00,44.362
668.00,44.350
669.00,44.604
670.00,44.808
671.00,44.673
672.00,44.819
673.00,44.787
674.00,44.872
675.00,45.002
676.00,45.188
677.00,45.289
678.00,45.049
679.00,45.227
680.00,45.213
681.00,45.390
682.00,45.349
683.00,45.427
684.00,45.598
685.00,45.528
686.00,45.522
687.00,45.721
688.00,45.729
689.00,45.766
690.00,46.062
691.00,46.145
692.00,45.928
693.00,46.052
694.00,46.199
695.00,46.292
696.00,46.328
697.00,46.338
698.00,46.393
699.00,46.702
700.00,46.686
701.00,46.649
702.00,46.813
703.00,46.964
704.00,46.962
705.00,46.942
706.00,47.007
707.00,46.945
708.00,46.833
709.00,47.319
710.00,47.685
711.00,47.153
712.00,47.154
713.00,47.358
714.00,47.447
715.00,47.348
716.00,47.368
717.00,47.555
718.00,47.608
719.00,47.640
720.00,47.708
721.00,52.305
722.00,52.198
723.00,52.201
724.00,52.323
725.00,52.258
726.00,52.271
727.00,52.242
728.00,52.211
729.00,52.303
730.00,52.301
731.00,52.322
732.00,52.324
733.00,52.374
734.00,52.397
735.00,52.365
736.00,52.421
737.00,52.449
738.00,52.513
739.00,52.416
740.00,52.446
741.00,52.480
742.00,52.523
743.00,52.435
744.00,52.407
745.00,52.529
746.00,52.461
747.00,52.447
748.00,52.392
749.00,52.390
750.00,52.452
751.00,52.414
752.00,52.434
753.00,52.329
754.00,52.374
755.00,52.398
756.00,52.397
757.00,52.381
758.00,52.473
759.00,52.442
760.00,52.409
761.00,52.406
762.00,52.400
763.00,52.430
764.00,52.394
765.00,52.364
766.00,52.453
767.00,52.432
768.00,52.401
769.00,52.412
770.00,52.433
771.00,52.422
772.00,52.437
773.00,52.409
774.00,52.393
775.00,52.455
776.00,52.374
777.00,52.494
778.00,52.410
779.00,52.404
780.00,52.327
781.00,52.382
782.00,52.487
783.00,52.317
784.00,52.398
785.00,52.254
786.00,52.375
787.00,52.355
788.00,52.314
789.00,52.260
790.00,52.198
791.00,52.307
792.00,52.200
793.00,52.247
794.00,52.250
795.00,52.226
796.00,52.211
797.00,52.050
798.00,52.222
799.00,52.080
800.00,52.093
801.00,52.090
802.00,52.084
803.00,52.034
804.00,51.958
805.00,52.015
806.00,51.980
807.00,51.914
808.00,51.977
809.00,51.897
810.00,51.886
811.00,51.880
812.00,51.954
813.00,51.834
814.00,51.872
815.00,51.874
816.00,51.841
817.00,51.811
818.00,51.731
819.00,51.772
820.00,51.672
821.00,51.751
822.00,51.726
823.00,51.617
824.00,51.712
825.00,51.676
826.00,51.632
827.00,51.687
828.00,51.644
829.00,51.668
830.00,51.590
831.00,54.010
832.00,53.991
833.00,53.878
834.00,53.927
835.00,53.868
836.00,53.870
837.00,53.850
838.00,53.872
839.00,53.843
840.00,53.744
841.00,53.803
842.00,53.729
843.00,53.736
844.00,53.762
845.00,53.640
846.00,53.661
847.00,53.654
848.00,53.653
849.00,53.526
850.00,53.529
851.00,53.473
852.00,53.504
853.00,53.459
854.00,53.399
855.00,53.358
856.00,53.363
857.00,53.348
858.00,53.274
859.00,53.276
860.00,53.281
861.00,53.295
862.00,53.236
863.00,53.246
864.00,53.207
865.00,53.222
866.00,53.201
867.00,53.155
868.00,53.158
869.00,53.128
870.00,53.132
871.00,53.098
872.00,53.115
873.00,53.050
874.00,53.142
875.00,53.057
876.00,53.098
877.00,52.991
878.00,53.044
879.00,53.005
880.00,52.979
881.00,52.967
882.00,53.007
883.00,52.945
884.00,52.922
885.00,52.887
886.00,52.887
887.00,52.849
888.00,52.815
889.00,52.788
890.00,52.804
891.00,52.774
892.00,52.719
893.00,52.723
894.00,52.726
895.00,52.692
896.00,52.667
897.00,52.640
898.00,52.613
899.00,52.635
900.00,52.598
901.00,52.556
902.00,52.588
903.00,52.492
904.00,52.521
905.00,52.534
906.00,52.513
907.00,52.503
908.00,52.403
909.00,52.407
910.00,52.370
911.00,52.378
912.00,52.349
913.00,52.312
914.00,52.320
915.00,52.299
916.00,52.272
917.00,52.242
918.00,52.256
919.00,52.199
920.00,52.161
921.00,52.166
922.00,52.180
923.00,52.150
924.00,52.098
925.00,52.151
926.00,52.130
927.00,52.062
928.00,52.006
929.00,52.121
930.00,52.006
931.00,51.988
932.00,51.922
933.00,51.941
934.00,51.925
935.00,51.862
936.00,51.874
937.00,51.873
938.00,51.866
939.00,51.855
940.00,51.816
941.00,51.824
942.00,51.795
943.00,51.764
944.00,51.748
945.00,51.725
946.00,51.724
947.00,51.660
948.00,51.641
949.00,51.632
950.00,51.629
951.00,51.603
952.00,51.572
953.00,51.560
954.00,51.516
955.00,51.471
956.00,51.461
957.00,51.408
958.00,51.426
959.00,51.358
960.00,51.359
961.00,51.371
962.00,51.350
963.00,51.309
964.00,51.320
965.00,51.331
966.00,51.286
967.00,51.296
968.00,51.247
969.00,51.291
970.00,51.256
971.00,51.257
972.00,51.224
973.00,51.256
974.00,51.309
975.00,51.231
976.00,51.243
977.00,51.231
978.00,51.263
979.00,51.223
980.00,51.238
981.00,51.272
982.00,51.192
983.00,51.244
984.00,51.197
985.00,51.218
986.00,51.168
987.00,51.185
988.00,51.160
989.00,51.135
990.00,51.134
991.00,51.139
992.00,51.143
993.00,51.108
994.00,51.107
995.00,51.092
996.00,51.079
997.00,51.071
998.00,51.044
999.00,51.046
1000.00,51.011
1001.00,50.997
1002.00,51.010
1003.00,50.981
1004.00,50.965
1005.00,50.939
1006.00,50.980
1007.00,50.939
1008.00,50.924
1009.00,50.901
1010.00,50.901
1011.00,50.895
1012.00,50.863
1013.00,50.860
1014.00,50.820
1015.00,50.831
1016.00,50.801
1017.00,50.776
1018.00,50.790
1019.00,50.753
1020.00,50.752
1021.00,50.742
1022.00,50.753
1023.00,50.677
1024.00,50.695
1025.00,50.674
1026.00,50.664
1027.00,50.637
1028.00,50.621
1029.00,50.614
1030.00,50.570
1031.00,50.564
1032.00,50.525
1033.00,50.534
1034.00,50.495
1035.00,50.483
1036.00,50.471
1037.00,50.440
1038.00,50.438
1039.00,50.414
1040.00,50.409
1041.00,50.369
1042.00,50.382
1043.00,50.356
1044.00,50.372
1045.00,50.341
1046.00,50.364
1047.00,50.368
1048.00,50.360
1049.00,50.391
1050.00,50.373
1051.00,50.426
1052.00,50.426
1053.00,50.418
1054.00,50.427
1055.00,50.443
1056.00,50.448
1057.00,50.454
1058.00,50.438
1059.00,50.452
1060.00,50.467
1061.00,50.435
1062.00,50.420
1063.00,50.443
1064.00,50.422
1065.00,50.408
1066.00,50.413
1067.00,50.391
1068.00,50.430
1069.00,50.376
1070.00,50.359
1071.00,50.356
1072.00,50.364
1073.00,50.344
1074.00,50.338
1075.00,50.321
1076.00,50.328
1077.00,50.302
1078.00,50.274
1079.00,50.301
1080.00,50.297
1081.00,50.268
1082.00,50.276
1083.00,50.267
1084.00,50.262
1085.00,50.272
1086.00,50.254
1087.00,50.268
1088.00,50.235
1089.00,50.220
1090.00,50.221
1091.00,50.217
1092.00,50.201
1093.00,50.203
1094.00,50.185
1095.00,50.174
1096.00,50.152
1097.00,50.165
1098.00,50.150
1099.00,50.146
1100.00,50.124
1101.00,50.140
1102.00,50.101
1103.00,50.109
1104.00,50.102
1105.00,50.082
1106.00,50.061
1107.00,50.077
1108.00,50.060
1109.00,50.060
1110.00,50.048
1111.00,50.042
1112.00,50.047
1113.00,50.051
1114.00,50.029
1115.00,50.049
1116.00,50.016
1117.00,50.011
1118.00,49.994
1119.00,49.977
1120.00,49.971
1121.00,49.970
1122.00,49.934
1123.00,49.954
1124.00,49.956
1125.00,49.947
1126.00,49.961
1127.00,49.969
1128.00,49.919
1129.00,49.916
1130.00,49.896
1131.00,49.915
1132.00,49.908
1133.00,49.898
1134.00,49.889
1135.00,49.858
1136.00,49.876
1137.00,49.899
1138.00,49.886
1139.00,49.894
1140.00,49.879
1141.00,49.876
1142.00,49.857
1143.00,49.871
1144.00,49.830
1145.00,49.845
1146.00,49.843
1147.00,49.830
1148.00,49.837
1149.00,49.844
1150.00,49.853
1151.00,49.862
1152.00,49.837
1153.00,49.843
1154.00,49.829
1155.00,49.830
1156.00,49.824
1157.00,49.830
1158.00,49.805
1159.00,49.810
1160.00,49.807
1161.00,49.812
1162.00,49.815
1163.00,49.799
1164.00,49.822
1165.00,49.815
1166.00,49.800
1167.00,49.809
1168.00,49.812
1169.00,49.793
1170.00,49.804
1171.00,49.790
1172.00,49.802
1173.00,49.797
1174.00,49.801
1175.00,49.785
1176.00,49.784
1177.00,49.760
1178.00,49.778
1179.00,49.792
1180.00,49.767
1181.00,49.799
1182.00,49.764
1183.00,49.772
1184.00,49.775
1185.00,49.789
1186.00,49.771
1187.00,49.785
1188.00,49.800
1189.00,49.770
1190.00,49.755
1191.00,49.749
1192.00,49.785
1193.00,49.760
1194.00,49.763
1195.00,49.742
1196.00,49.768
1197.00,49.781
1198.00,49.759
1199.00,49.757
1200.00,49.786
1201.00,49.795
1202.00,49.760
1203.00,49.778
1204.00,49.757
1205.00,49.765
1206.00,49.757
1207.00,49.754
1208.00,49.743
1209.00,49.756
1210.00,49.769
1211.00,49.777
1212.00,49.791
1213.00,49.758
1214.00,49.807
1215.00,49.765
1216.00,49.766
1217.00,49.789
1218.00,49.764
1219.00,49.785
1220.00,49.760
1221.00,49.773
1222.00,49.771
1223.00,49.802
1224.00,49.797
1225.00,49.785
1226.00,49.786
1227.00,49.780
1228.00,49.809
1229.00,49.786
1230.00,49.818
1231.00,49.821
1232.00,49.817
1233.00,49.843
1234.00,49.842
1235.00,49.824
1236.00,49.840
1237.00,49.851
1238.00,49.835
1239.00,49.856
1240.00,49.819
1241.00,49.853
1242.00,49.855
1243.00,49.851
1244.00,49.854
1245.00,49.872
1246.00,49.876
1247.00,49.868
1248.00,49.879
1249.00,49.899
1250.00,49.905
1251.00,49.884
1252.00,49.892
1253.00,49.880
1254.00,49.913
1255.00,49.897
1256.00,49.885
1257.00,49.891
1258.00,49.924
1259.00,49.896
1260.00,49.918
1261.00,49.932
1262.00,49.921
1263.00,49.938
1264.00,49.942
1265.00,49.951
1266.00,49.957
1267.00,49.971
1268.00,49.991
1269.00,49.992
1270.00,49.995
1271.00,49.993
1272.00,50.010
1273.00,50.028
1274.00,50.019
1275.00,50.033
1276.00,50.002
1277.00,50.034
1278.00,50.034
1279.00,50.025
1280.00,50.030
1281.00,50.046
1282.00,50.063
1283.00,50.076
1284.00,50.077
1285.00,50.065
1286.00,50.094
1287.00,50.073
1288.00,50.087
1289.00,50.082
1290.00,50.111
1291.00,50.105
1292.00,50.080
1293.00,50.124
1294.00,50.173
1295.00,50.139
1296.00,50.162
1297.00,50.163
1298.00,50.191
1299.00,50.169
1300.00,50.185
1301.00,50.171
1302.00,50.210
1303.00,50.203
1304.00,50.182
1305.00,50.223
1306.00,50.222
1307.00,50.236
1308.00,50.251
1309.00,50.261
1310.00,50.267
1311.00,50.257
1312.00,50.253
1313.00,50.272
1314.00,50.271
1315.00,50.289
1316.00,50.287
1317.00,50.324
1318.00,50.319
1319.00,50.341
1320.00,50.340
1321.00,50.513
1322.00,50.498
1323.00,50.479
1324.00,50.494
1325.00,50.476
1326.00,50.502
1327.00,50.493
1328.00,50.488
1329.00,50.491
1330.00,50.504
1331.00,50.492
1332.00,50.504
1333.00,50.499
1334.00,50.551
1335.00,50.563
1336.00,50.601
1337.00,50.609
1338.00,50.674
1339.00,50.709
1340.00,50.764
1341.00,50.841
1342.00,50.891
1343.00,50.954
1344.00,50.991
1345.00,51.056
1346.00,51.097
1347.00,51.099
1348.00,51.154
1349.00,51.166
1350.00,51.197
1351.00,51.198
1352.00,51.251
1353.00,51.241
1354.00,51.242
1355.00,51.200
1356.00,51.235
1357.00,51.254
1358.00,51.293
1359.00,51.236
1360.00,51.346
1361.00,51.284
1362.00,51.231
1363.00,51.327
1364.00,51.276
1365.00,51.277
1366.00,51.347
1367.00,51.300
1368.00,51.257
1369.00,51.336
1370.00,51.282
1371.00,51.139
1372.00,51.209
1373.00,51.295
1374.00,51.330
1375.00,51.287
1376.00,51.315
1377.00,51.270
1378.00,51.394
1379.00,51.323
1380.00,51.353
1381.00,51.349
1382.00,51.255
1383.00,51.319
1384.00,51.242
1385.00,51.246
1386.00,51.305
1387.00,51.268
1388.00,51.245
1389.00,51.304
1390.00,51.327
1391.00,51.258
1392.00,51.284
1393.00,51.377
1394.00,51.330
1395.00,51.239
1396.00,51.233
1397.00,51.364
1398.00,51.319
1399.00,51.255
1400.00,51.223
1401.00,51.296
1402.00,51.100
1403.00,51.284
1404.00,51.283
1405.00,51.346
1406.00,51.356
1407.00,51.383
1408.00,51.309
1409.00,51.378
1410.00,51.408
1411.00,51.359
1412.00,51.487
1413.00,51.356
1414.00,51.363
1415.00,51.424
1416.00,51.441
1417.00,51.488
1418.00,51.429
1419.00,51.437
1420.00,51.499
1421.00,51.570
1422.00,51.522
1423.00,51.545
1424.00,51.557
1425.00,51.597
1426.00,51.594
1427.00,51.606
1428.00,51.624
1429.00,51.639
1430.00,51.645
1431.00,51.667
1432.00,51.692
1433.00,51.711
1434.00,51.717
1435.00,51.799
1436.00,51.780
1437.00,51.770
1438.00,51.781
1439.00,51.822
1440.00,51.834
1441.00,51.827
1442.00,51.863
1443.00,51.881
1444.00,51.961
1445.00,51.882
1446.00,51.919
1447.00,51.979
1448.00,52.031
1449.00,52.015
1450.00,51.997
1451.00,52.022
1452.00,52.051
1453.00,52.057
1454.00,52.083
1455.00,52.101
1456.00,52.133
1457.00,52.111
1458.00,52.159
1459.00,52.169
1460.00,52.196
1461.00,52.200
1462.00,52.234
1463.00,52.231
1464.00,52.253
1465.00,52.260
1466.00,52.268
1467.00,52.307
1468.00,52.372
1469.00,52.323
1470.00,52.361
1471.00,52.366
1472.00,52.375
1473.00,52.400
1474.00,52.430
1475.00,52.447
1476.00,52.459
1477.00,52.451
1478.00,52.492
1479.00,52.503
1480.00,52.500
1481.00,52.512
1482.00,52.545
1483.00,52.568
1484.00,52.583
1485.00,52.571
1486.00,52.610
1487.00,52.620
1488.00,52.647
1489.00,52.644
1490.00,52.654
1491.00,52.676
1492.00,52.708
1493.00,52.677
1494.00,52.723
1495.00,52.701
1496.00,52.730
1497.00,52.718
1498.00,52.731
1499.00,52.748
1500.00,52.783
1501.00, 
1502.00, 
1503.00, 
1504.00, 
1505.00, 
1506.00, 
1507.00, 
1508.00, 
1509.00, 
1510.00, 
1511.00, 
1512.00, 
1513.00, 
1514.00, 
1515.00, 
1516.00, 
1517.00, 
1518.00, 
1519.00, 
1520.00, 
1521.00, 
1522.00, 
1523.00, 
1524.00, 
1525.00, 
1526.00, 
1527.00, 
1528.00, 
1529.00, 
1530.00, 
1531.00, 
1532.00, 
1533.00, 
1534.00, 
1535.00, 
1536.00, 
1537.00, 
1538.00, 
1539.00, 
1540.00, 
1541.00, 
1542.00, 
1543.00, 
1544.00, 
1545.00, 
1546.00, 
1547.00, 
1548.00, 
1549.00, 
1550.00, 
1551.00, 
1552.00, 
1553.00, 
1554.00, 
1555.00, 
1556.00, 
1557.00, 
1558.00, 
1559.00, 
1560.00, 
1561.00, 
1562.00, 
1563.00, 
1564.00, 
1565.00, 
1566.00, 
1567.00, 
1568.00, 
1569.00, 
1570.00, 
1571.00, 
1572.00, 
1573.00, 
1574.00, 
1575.00, 
1576.00, 
1577.00, 
1578.00, 
1579.00, 
1580.00, 
1581.00, 
1582.00, 
1583.00, 
1584.00, 
1585.00, 
1586.00, 
1587.00, 
1588.00, 
1589.00, 
1590.00, 
1591.00, 
1592.00, 
1593.00, 
1594.00, 
1595.00, 
1596.00, 
1597.00, 
1598.00, 
1599.00, 
1600.00, 
1601.00, 
1602.00, 
1603.00, 
1604.00, 
1605.00, 
1606.00, 
1607.00, 
1608.00, 
1609.00, 
1610.00, 
1611.00, 
1612.00, 
1613.00, 
1614.00, 
1615.00, 
1616.00, 
1617.00, 
1618.00, 
1619.00, 
1620.00, 
1621.00, 
1622.00, 
1623.00, 
1624.00, 
1625.00, 
1626.00, 
1627.00, 
1628.00, 
1629.00, 
1630.00, 
1631.00, 
1632.00, 
1633.00, 
1634.00, 
1635.00, 
1636.00, 
1637.00, 
1638.00, 
1639.00, 
1640.00, 
1641.00, 
1642.00, 
1643.00, 
1644.00, 
1645.00, 
1646.00, 
1647.00, 
1648.00, 
1649.00, 
1650.00, 
1651.00, 
1652.00, 
1653.00, 
1654.00, 
1655.00, 
1656.00, 
1657.00, 
1658.00, 
1659.00, 
1660.00, 
1661.00, 
1662.00, 
1663.00, 
1664.00, 
1665.00, 
1666.00, 
1667.00, 
1668.00, 
1669.00, 
1670.00, 
1671.00, 
1672.00, 
1673.00, 
1674.00, 
1675.00, 
1676.00, 
1677.00, 
1678.00, 
1679.00, 
1680.00, 
1681.00, 
1682.00, 
1683.00, 
1684.00, 
1685.00, 
1686.00, 
1687.00, 
1688.00, 
1689.00, 
1690.00, 
1691.00, 
1692.00, 
1693.00, 
1694.00, 
1695.00, 
1696.00, 
1697.00, 
1698.00, 
1699.00, 
1700.00, 
1701.00, 
1702.00, 
1703.00, 
1704.00, 
1705.00, 
1706.00, 
1707.00, 
1708.00, 
1709.00, 
1710.00, 
1711.00, 
1712.00, 
1713.00, 
1714.00, 
1715.00, 
1716.00, 
1717.00, 
1718.00, 
1719.00, 
1720.00, 
1721.00, 
1722.00, 
1723.00, 
1724.00, 
1725.00, 
1726.00, 
1727.00, 
1728.00, 
1729.00, 
1730.00, 
1731.00, 
1732.00, 
1733.00, 
1734.00, 
1735.00, 
1736.00, 
1737.00, 
1738.00, 
1739.00, 
1740.00, 
1741.00, 
1742.00, 
1743.00, 
1744.00, 
1745.00, 
1746.00, 
1747.00, 
1748.00, 
1749.00, 
1750.00, 
1751.00, 
1752.00, 
1753.00, 
1754.00, 
1755.00, 
1756.00, 
1757.00, 
1758.00, 
1759.00, 
1760.00, 
1761.00, 
1762.00, 
1763.00, 
1764.00, 
1765.00, 
1766.00, 
1767.00, 
1768.00, 
1769.00, 
1770.00, 
1771.00, 
1772.00, 
1773.00, 
1774.00, 
1775.00, 
1776.00, 
1777.00, 
1778.00, 
1779.00, 
1780.00, 
1781.00, 
1782.00, 
1783.00, 
1784.00, 
1785.00, 
1786.00, 
1787.00, 
1788.00, 
1789.00, 
1790.00, 
1791.00, 
1792.00, 
1793.00, 
1794.00, 
1795.00, 
1796.00, 
1797.00, 
1798.00, 
1799.00, 
1800.00, 
1801.00, 
1802.00, 
1803.00, 
1804.00, 
1805.00, 
1806.00, 
1807.00, 
1808.00, 
1809.00, 
1810.00, 
1811.00, 
1812.00, 
1813.00, 
1814.00, 
1815.00, 
1816.00, 
1817.00, 
1818.00, 
1819.00, 
1820.00, 
1821.00, 
1822.00, 
1823.00, 
1824.00, 
1825.00, 
1826.00, 
1827.00, 
1828.00, 
1829.00, 
1830.00, 
1831.00, 
1832.00, 
1833.00, 
1834.00, 
1835.00, 
1836.00, 
1837.00, 
1838.00, 
1839.00, 
1840.00, 
1841.00, 
1842.00, 
1843.00, 
1844.00, 
1845.00, 
1846.00, 
1847.00, 
1848.00, 
1849.00, 
1850.00, 
1851.00, 
1852.00, 
1853.00, 
1854.00, 
1855.00, 
1856.00, 
1857.00, 
1858.00, 
1859.00, 
1860.00, 
1861.00, 
1862.00, 
1863.00, 
1864.00, 
1865.00, 
1866.00, 
1867.00, 
1868.00, 
1869.00, 
1870.00, 
1871.00, 
1872.00, 
1873.00, 
1874.00, 
1875.00, 
1876.00, 
1877.00, 
1878.00, 
1879.00, 
1880.00, 
1881.00, 
1882.00, 
1883.00, 
1884.00, 
1885.00, 
1886.00, 
1887.00, 
1888.00, 
1889.00, 
1890.00, 
1891.00, 
1892.00, 
1893.00, 
1894.00, 
1895.00, 
1896.00, 
1897.00, 
1898.00, 
1899.00, 
1900.00, 
1901.00, 
1902.00, 
1903.00, 
1904.00, 
1905.00, 
1906.00, 
1907.00, 
1908.00, 
1909.00, 
1910.00, 
1911.00, 
1912.00, 
1913.00, 
1914.00, 
1915.00, 
1916.00, 
1917.00, 
1918.00, 
1919.00, 
1920.00, 
1921.00, 
1922.00, 
1923.00, 
1924.00, 
1925.00, 
1926.00, 
1927.00, 
1928.00, 
1929.00, 
1930.00, 
1931.00, 
1932.00, 
1933.00, 
1934.00, 
1935.00, 
1936.00, 
1937.00, 
1938.00, 
1939.00, 
1940.00, 
1941.00, 
1942.00, 
1943.00, 
1944.00, 
1945.00, 
1946.00, 
1947.00, 
1948.00, 
1949.00, 
1950.00, 
1951.00, 
1952.00, 
1953.00, 
1954.00, 
1955.00, 
1956.00, 
1957.00, 
1958.00, 
1959.00, 
1960.00, 
1961.00, 
1962.00, 
1963.00, 
1964.00, 
1965.00, 
1966.00, 
1967.00, 
1968.00, 
1969.00, 
1970.00, 
1971.00, 
1972.00, 
1973.00, 
1974.00, 
1975.00, 
1976.00, 
1977.00, 
1978.00, 
1979.00, 
1980.00, 
1981.00, 
1982.00, 
1983.00, 
1984.00, 
1985.00, 
1986.00, 
1987.00, 
1988.00, 
1989.00, 
1990.00, 
1991.00, 
1992.00, 
1993.00, 
1994.00, 
1995.00, 
1996.00, 
1997.00, 
1998.00, 
1999.00, 
2000.00, 
2001.00, 
2002.00, 
2003.00, 
2004.00, 
2005.00, 
2006.00, 
2007.00, 
2008.00, 
2009.00, 
2010.00, 
2011.00, 
2012.00, 
2013.00, 
2014.00, 
2015.00, 
2016.00, 
2017.00, 
2018.00, 
2019.00, 
2020.00, 
2021.00, 
2022.00, 
2023.00, 
2024.00, 
2025.00, 
2026.00, 
2027.00, 
2028.00, 
2029.00, 
2030.00, 
2031.00, 
2032.00, 
2033.00, 
2034.00, 
2035.00, 
2036.00, 
2037.00, 
2038.00, 
2039.00, 
2040.00, 
2041.00, 
2042.00, 
2043.00, 
2044.00, 
2045.00, 
2046.00, 
2047.00, 
2048.00, 
2049.00, 
2050.00, 
2051.00, 
2052.00, 
2053.00, 
2054.00, 
2055.00, 
2056.00, 
2057.00, 
2058.00, 
2059.00, 
2060.00, 
2061.00, 
2062.00, 
2063.00, 
2064.00, 
2065.00, 
2066.00, 
2067.00, 
2068.00, 
2069.00, 
2070.00, 
2071.00, 
2072.00, 
2073.00, 
2074.00, 
2075.00, 
2076.00, 
2077.00, 
2078.00, 
2079.00, 
2080.00, 
2081.00, 
2082.00, 
2083.00, 
2084.00, 
2085.00, 
2086.00, 
2087.00, 
2088.00, 
2089.00, 
2090.00, 
2091.00, 
2092.00, 
2093.00, 
2094.00, 
2095.00, 
2096.00, 
2097.00, 
2098.00, 
2099.00, 
2100.00, 
2101.00, 
2102.00, 
2103.00, 
2104.00, 
2105.00, 
2106.00, 
2107.00, 
2108.00, 
2109.00, 
2110.00, 
2111.00, 
2112.00, 
2113.00, 
2114.00, 
2115.00, 
2116.00, 
2117.00, 
2118.00, 
2119.00, 
2120.00, 
2121.00, 
2122.00, 
2123.00, 
2124.00, 
2125.00, 
2126.00, 
2127.00, 
2128.00, 
2129.00, 
2130.00, 
2131.00, 
2132.00, 
2133.00, 
2134.00, 
2135.00, 
2136.00, 
2137.00, 
2138.00, 
2139.00, 
2140.00, 
2141.00, 
2142.00, 
2143.00, 
2144.00, 
2145.00, 
2146.00, 
2147.00, 
2148.00, 
2149.00, 
2150.00, 
2151.00, 
2152.00, 
2153.00, 
2154.00, 
2155.00, 
2156.00, 
2157.00, 
2158.00, 
2159.00, 
2160.00, 
2161.00, 
2162.00, 
2163.00, 
2164.00, 
2165.00, 
2166.00, 
2167.00, 
2168.00, 
2169.00, 
2170.00, 
2171.00, 
2172.00, 
2173.00, 
2174.00, 
2175.00, 
2176.00, 
2177.00, 
2178.00, 
2179.00, 
2180.00, 
2181.00, 
2182.00, 
2183.00, 
2184.00, 
2185.00, 
2186.00, 
2187.00, 
2188.00, 
2189.00, 
2190.00, 
2191.00, 
2192.00, 
2193.00, 
2194.00, 
2195.00, 
2196.00, 
2197.00, 
2198.00, 
2199.00, 
2200.00, 
2201.00, 
2202.00, 
2203.00, 
2204.00, 
2205.00, 
2206.00, 
2207.00, 
2208.00, 
2209.00, 
2210.00, 
2211.00, 
2212.00, 
2213.00, 
2214.00, 
2215.00, 
2216.00, 
2217.00, 
2218.00, 
2219.00, 
2220.00, 
2221.00, 
2222.00, 
2223.00, 
2224.00, 
2225.00, 
2226.00, 
2227.00, 
2228.00, 
2229.00, 
2230.00, 
2231.00, 
2232.00, 
2233.00, 
2234.00, 
2235.00, 
2236.00, 
2237.00, 
2238.00, 
2239.00, 
2240.00, 
2241.00, 
2242.00, 
2243.00, 
2244.00, 
2245.00, 
2246.00, 
2247.00, 
2248.00, 
2249.00, 
2250.00, 
2251.00, 
2252.00, 
2253.00, 
2254.00, 
2255.00, 
2256.00, 
2257.00, 
2258.00, 
2259.00, 
2260.00, 
2261.00, 
2262.00, 
2263.00, 
2264.00, 
2265.00, 
2266.00, 
2267.00, 
2268.00, 
2269.00, 
2270.00, 
2271.00, 
2272.00, 
2273.00, 
2274.00, 
2275.00, 
2276.00, 
2277.00, 
2278.00, 
2279.00, 
2280.00, 
2281.00, 
2282.00, 
2283.00, 
2284.00, 
2285.00, 
2286.00, 
2287.00, 
2288.00, 
2289.00, 
2290.00, 
2291.00, 
2292.00, 
2293.00, 
2294.00, 
2295.00, 
2296.00, 
2297.00, 
2298.00, 
2299.00, 
2300.00, 
2301.00, 
2302.00, 
2303.00, 
2304.00, 
2305.00, 
2306.00, 
2307.00, 
2308.00, 
2309.00, 
2310.00, 
2311.00, 
2312.00, 
2313.00, 
2314.00, 
2315.00, 
2316.00, 
2317.00, 
2318.00, 
2319.00, 
2320.00, 
2321.00, 
2322.00, 
2323.00, 
2324.00, 
2325.00, 
2326.00, 
2327.00, 
2328.00, 
2329.00, 
2330.00, 
2331.00, 
2332.00, 
2333.00, 
2334.00, 
2335.00, 
2336.00, 
2337.00, 
2338.00, 
2339.00, 
2340.00, 
2341.00, 
2342.00, 
2343.00, 
2344.00, 
2345.00, 
2346.00, 
2347.00, 
2348.00, 
2349.00, 
2350.00, 
2351.00, 
2352.00, 
2353.00, 
2354.00, 
2355.00, 
2356.00, 
2357.00, 
2358.00, 
2359.00, 
2360.00, 
2361.00, 
2362.00, 
2363.00, 
2364.00, 
2365.00, 
2366.00, 
2367.00, 
2368.00, 
2369.00, 
2370.00, 
2371.00, 
2372.00, 
2373.00, 
2374.00, 
2375.00, 
2376.00, 
2377.00, 
2378.00, 
2379.00, 
2380.00, 
2381.00, 
2382.00, 
2383.00, 
2384.00, 
2385.00, 
2386.00, 
2387.00, 
2388.00, 
2389.00, 
2390.00, 
2391.00, 
2392.00, 
2393.00, 
2394.00, 
2395.00, 
2396.00, 
2397.00, 
2398.00, 
2399.00, 
2400.00, 
2401.00, 
2402.00, 
2403.00, 
2404.00, 
2405.00, 
2406.00, 
2407.00, 
2408.00, 
2409.00, 
2410.00, 
2411.00, 
2412.00, 
2413.00, 
2414.00, 
2415.00, 
2416.00, 
2417.00, 
2418.00, 
2419.00, 
2420.00, 
2421.00, 
2422.00, 
2423.00, 
2424.00, 
2425.00, 
2426.00, 
2427.00, 
2428.00, 
2429.00, 
2430.00, 
2431.00, 
2432.00, 
2433.00, 
2434.00, 
2435.00, 
2436.00, 
2437.00, 
2438.00, 
2439.00, 
2440.00, 
2441.00, 
2442.00, 
2443.00, 
2444.00, 
2445.00, 
2446.00, 
2447.00, 
2448.00, 
2449.00, 
2450.00, 
2451.00, 
2452.00, 
2453.00, 
2454.00, 
2455.00, 
2456.00, 
2457.00, 
2458.00, 
2459.00, 
2460.00, 
2461.00, 
2462.00, 
2463.00, 
2464.00, 
2465.00, 
2466.00, 
2467.00, 
2468.00, 
2469.00, 
2470.00, 
2471.00, 
2472.00, 
2473.00, 
2474.00, 
2475.00, 
2476.00, 
2477.00, 
2478.00, 
2479.00, 
2480.00, 
2481.00, 
2482.00, 
2483.00, 
2484.00, 
2485.00, 
2486.00, 
2487.00, 
2488.00, 
2489.00, 
2490.00, 
2491.00, 
2492.00, 
2493.00, 
2494.00, 
2495.00, 
2496.00, 
2497.00, 
2498.00, 
2499.00, 
2500.00, 
2501.00, 
2502.00, 
2503.00, 
2504.00, 
2505.00, 
2506.00, 
2507.00, 
2508.00, 
2509.00, 
2510.00, 
2511.00, 
2512.00, 
2513.00, 
2514.00, 
2515.00, 
2516.00, 
2517.00, 
2518.00, 
2519.00, 
2520.00, 
2521.00, 
2522.00, 
2523.00, 
2524.00, 
2525.00, 
2526.00, 
2527.00, 
2528.00, 
2529.00, 
2530.00, 
2531.00, 
2532.00, 
2533.00, 
2534.00, 
2535.00, 
2536.00, 
2537.00, 
2538.00, 
2539.00, 
2540.00, 
2541.00, 
2542.00, 
2543.00, 
2544.00, 
2545.00, 
2546.00, 
2547.00, 
2548.00, 
2549.00, 
2550.00, 
2551.00, 
2552.00, 
2553.00, 
2554.00, 
2555.00, 
2556.00, 
2557.00, 
2558.00, 
2559.00, 
2560.00, 
2561.00, 
2562.00, 
2563.00, 
2564.00, 
2565.00, 
2566.00, 
2567.00, 
2568.00, 
2569.00, 
2570.00, 
2571.00, 
2572.00, 
2573.00, 
2574.00, 
2575.00, 
2576.00, 
2577.00, 
2578.00, 
2579.00, 
2580.00, 
2581.00, 
2582.00, 
2583.00, 
2584.00, 
2585.00, 
2586.00, 
2587.00, 
2588.00, 
2589.00, 
2590.00, 
2591.00, 
2592.00, 
2593.00, 
2594.00, 
2595.00, 
2596.00, 
2597.00, 
2598.00, 
2599.00, 
2600.00, 
