"1cP4 - RawData"
"Wavelength nm.","T%"
200.00,-0.002
201.00,-0.003
202.00,0.000
203.00,-0.001
204.00,0.001
205.00,0.001
206.00,0.002
207.00,0.002
208.00,0.007
209.00,0.001
210.00,0.001
211.00,0.002
212.00,0.001
213.00,-0.000
214.00,0.002
215.00,0.000
216.00,-0.001
217.00,0.002
218.00,0.000
219.00,0.002
220.00,0.002
221.00,0.000
222.00,-0.000
223.00,-0.000
224.00,-0.000
225.00,0.002
226.00,0.001
227.00,-0.001
228.00,-0.001
229.00,-0.001
230.00,0.002
231.00,0.002
232.00,-0.000
233.00,-0.002
234.00,-0.002
235.00,-0.001
236.00,0.000
237.00,0.003
238.00,0.001
239.00,0.000
240.00,0.001
241.00,-0.000
242.00,0.001
243.00,-0.000
244.00,0.001
245.00,-0.000
246.00,0.001
247.00,0.002
248.00,0.001
249.00,0.001
250.00,0.003
251.00,-0.001
252.00,-0.000
253.00,0.001
254.00,0.002
255.00,-0.001
256.00,-0.001
257.00,-0.000
258.00,-0.000
259.00,-0.003
260.00,0.001
261.00,-0.002
262.00,0.000
263.00,0.001
264.00,0.001
265.00,0.001
266.00,0.002
267.00,-0.000
268.00,0.001
269.00,-0.000
270.00,0.000
271.00,0.000
272.00,-0.000
273.00,0.000
274.00,-0.001
275.00,0.001
276.00,-0.000
277.00,0.001
278.00,0.001
279.00,-0.001
280.00,-0.002
281.00,0.001
282.00,0.000
283.00,-0.001
284.00,0.000
285.00,-0.002
286.00,-0.001
287.00,-0.001
288.00,0.002
289.00,-0.000
290.00,0.002
291.00,-0.001
292.00,0.000
293.00,0.001
294.00,-0.001
295.00,0.000
296.00,-0.000
297.00,-0.000
298.00,-0.000
299.00,-0.000
300.00,0.000
301.00,0.002
302.00,0.002
303.00,0.001
304.00,0.003
305.00,0.003
306.00,0.000
307.00,0.001
308.00,0.004
309.00,0.013
310.00,0.018
311.00,0.024
312.00,0.041
313.00,0.058
314.00,0.086
315.00,0.134
316.00,0.188
317.00,0.269
318.00,0.361
319.00,0.496
320.00,0.645
321.00,0.841
322.00,1.072
323.00,1.352
324.00,1.672
325.00,2.001
326.00,2.382
327.00,2.837
328.00,3.299
329.00,3.796
330.00,4.362
331.00,4.920
332.00,5.547
333.00,6.181
334.00,6.792
335.00,7.489
336.00,8.148
337.00,8.827
338.00,9.541
339.00,10.158
340.00,10.846
341.00,11.512
342.00,12.134
343.00,12.701
344.00,13.320
345.00,13.859
346.00,14.428
347.00,14.902
348.00,15.391
349.00,15.821
350.00,16.267
351.00,16.689
352.00,17.015
353.00,17.382
354.00,17.714
355.00,18.053
356.00,18.306
357.00,18.558
358.00,18.829
359.00,19.101
360.00,19.326
361.00,19.435
362.00,19.648
363.00,19.800
364.00,19.864
365.00,20.011
366.00,20.099
367.00,20.135
368.00,20.235
369.00,20.352
370.00,20.302
371.00,20.380
372.00,20.338
373.00,20.321
374.00,20.336
375.00,20.304
376.00,20.183
377.00,20.103
378.00,20.007
379.00,19.850
380.00,19.900
381.00,19.809
382.00,19.886
383.00,19.881
384.00,19.900
385.00,19.984
386.00,19.987
387.00,20.067
388.00,20.156
389.00,20.151
390.00,20.220
391.00,20.226
392.00,20.271
393.00,20.284
394.00,20.314
395.00,20.369
396.00,20.337
397.00,20.369
398.00,20.334
399.00,20.394
400.00,20.372
401.00,20.367
402.00,20.358
403.00,20.323
404.00,20.312
405.00,20.268
406.00,20.279
407.00,20.246
408.00,20.262
409.00,20.167
410.00,20.102
411.00,20.135
412.00,20.131
413.00,20.146
414.00,20.061
415.00,20.104
416.00,20.163
417.00,20.099
418.00,20.157
419.00,20.254
420.00,20.279
421.00,20.281
422.00,20.269
423.00,20.277
424.00,20.377
425.00,20.326
426.00,20.408
427.00,20.469
428.00,20.528
429.00,20.560
430.00,20.583
431.00,20.620
432.00,20.652
433.00,20.730
434.00,20.782
435.00,20.874
436.00,20.899
437.00,20.967
438.00,21.034
439.00,21.094
440.00,21.149
441.00,21.254
442.00,21.335
443.00,21.387
444.00,21.533
445.00,21.594
446.00,21.701
447.00,21.753
448.00,21.876
449.00,22.010
450.00,22.095
451.00,22.184
452.00,22.265
453.00,22.399
454.00,22.499
455.00,22.680
456.00,22.708
457.00,22.904
458.00,22.961
459.00,23.124
460.00,23.255
461.00,23.393
462.00,23.457
463.00,23.615
464.00,23.759
465.00,23.893
466.00,24.026
467.00,24.111
468.00,24.190
469.00,24.363
470.00,24.501
471.00,24.449
472.00,24.716
473.00,24.799
474.00,24.945
475.00,25.070
476.00,25.162
477.00,25.309
478.00,25.413
479.00,25.629
480.00,25.721
481.00,25.850
482.00,26.048
483.00,26.137
484.00,26.312
485.00,26.476
486.00,26.625
487.00,26.735
488.00,26.916
489.00,27.086
490.00,27.254
491.00,27.386
492.00,27.534
493.00,27.779
494.00,27.930
495.00,27.938
496.00,28.038
497.00,28.149
498.00,28.328
499.00,28.474
500.00,28.625
501.00,28.729
502.00,28.835
503.00,29.020
504.00,29.043
505.00,29.202
506.00,29.352
507.00,29.459
508.00,29.587
509.00,29.758
510.00,29.875
511.00,29.910
512.00,30.044
513.00,30.272
514.00,30.354
515.00,30.484
516.00,30.612
517.00,30.705
518.00,30.856
519.00,30.924
520.00,30.992
521.00,31.098
522.00,31.191
523.00,31.239
524.00,31.365
525.00,31.482
526.00,31.576
527.00,31.634
528.00,31.729
529.00,31.949
530.00,32.091
531.00,32.180
532.00,32.213
533.00,32.339
534.00,32.404
535.00,32.476
536.00,32.595
537.00,32.700
538.00,32.715
539.00,32.772
540.00,32.869
541.00,32.910
542.00,33.019
543.00,33.064
544.00,33.140
545.00,33.218
546.00,33.245
547.00,33.405
548.00,33.459
549.00,33.566
550.00,33.611
551.00,33.740
552.00,33.797
553.00,33.839
554.00,33.945
555.00,33.966
556.00,34.020
557.00,34.101
558.00,34.136
559.00,34.229
560.00,34.314
561.00,34.373
562.00,34.429
563.00,34.465
564.00,34.503
565.00,34.542
566.00,34.539
567.00,34.586
568.00,34.648
569.00,34.826
570.00,34.773
571.00,34.781
572.00,34.826
573.00,34.785
574.00,34.814
575.00,34.881
576.00,34.855
577.00,34.918
578.00,35.010
579.00,35.049
580.00,35.084
581.00,35.257
582.00,35.343
583.00,35.336
584.00,35.441
585.00,35.482
586.00,35.498
587.00,35.617
588.00,35.646
589.00,35.598
590.00,35.686
591.00,35.749
592.00,35.647
593.00,35.724
594.00,35.864
595.00,35.920
596.00,35.997
597.00,36.053
598.00,36.130
599.00,36.097
600.00,36.135
601.00,36.194
602.00,36.259
603.00,36.272
604.00,36.337
605.00,36.462
606.00,36.405
607.00,36.485
608.00,36.685
609.00,36.732
610.00,36.588
611.00,36.663
612.00,36.710
613.00,36.741
614.00,36.824
615.00,36.866
616.00,36.949
617.00,36.990
618.00,36.964
619.00,37.074
620.00,37.112
621.00,37.160
622.00,37.225
623.00,37.321
624.00,37.384
625.00,37.418
626.00,37.421
627.00,37.555
628.00,37.557
629.00,37.606
630.00,37.729
631.00,37.809
632.00,37.835
633.00,37.936
634.00,38.095
635.00,38.127
636.00,38.238
637.00,38.282
638.00,38.339
639.00,38.480
640.00,38.468
641.00,38.530
642.00,38.644
643.00,38.665
644.00,38.738
645.00,38.855
646.00,38.942
647.00,39.037
648.00,39.136
649.00,39.152
650.00,39.191
651.00,39.365
652.00,39.510
653.00,39.476
654.00,39.570
655.00,39.740
656.00,40.053
657.00,39.777
658.00,39.844
659.00,40.097
660.00,40.243
661.00,40.271
662.00,40.269
663.00,40.462
664.00,40.782
665.00,40.918
666.00,40.818
667.00,40.893
668.00,40.971
669.00,41.255
670.00,41.441
671.00,41.480
672.00,41.549
673.00,41.471
674.00,41.634
675.00,41.772
676.00,41.996
677.00,42.084
678.00,41.934
679.00,42.113
680.00,42.090
681.00,42.272
682.00,42.316
683.00,42.370
684.00,42.661
685.00,42.654
686.00,42.424
687.00,42.558
688.00,42.971
689.00,43.047
690.00,43.194
691.00,43.496
692.00,43.242
693.00,43.188
694.00,43.391
695.00,43.361
696.00,43.663
697.00,43.846
698.00,43.828
699.00,44.152
700.00,44.201
701.00,44.118
702.00,44.288
703.00,44.427
704.00,44.592
705.00,44.514
706.00,44.541
707.00,44.614
708.00,44.512
709.00,44.838
710.00,45.470
711.00,45.076
712.00,44.981
713.00,45.223
714.00,45.270
715.00,45.203
716.00,45.242
717.00,45.459
718.00,45.573
719.00,45.531
720.00,45.670
721.00,50.078
722.00,50.013
723.00,50.059
724.00,50.129
725.00,50.183
726.00,50.209
727.00,50.203
728.00,50.269
729.00,50.294
730.00,50.337
731.00,50.336
732.00,50.393
733.00,50.506
734.00,50.480
735.00,50.491
736.00,50.628
737.00,50.611
738.00,50.681
739.00,50.690
740.00,50.691
741.00,50.780
742.00,50.825
743.00,50.789
744.00,50.772
745.00,50.852
746.00,50.847
747.00,50.805
748.00,50.883
749.00,50.806
750.00,50.965
751.00,50.894
752.00,50.896
753.00,50.966
754.00,50.837
755.00,50.943
756.00,50.923
757.00,50.970
758.00,50.973
759.00,51.038
760.00,51.092
761.00,51.054
762.00,51.007
763.00,51.104
764.00,51.147
765.00,51.112
766.00,51.146
767.00,51.151
768.00,51.198
769.00,51.153
770.00,51.279
771.00,51.210
772.00,51.207
773.00,51.343
774.00,51.252
775.00,51.358
776.00,51.304
777.00,51.381
778.00,51.338
779.00,51.281
780.00,51.227
781.00,51.307
782.00,51.369
783.00,51.318
784.00,51.325
785.00,51.209
786.00,51.372
787.00,51.284
788.00,51.341
789.00,51.267
790.00,51.243
791.00,51.377
792.00,51.225
793.00,51.288
794.00,51.361
795.00,51.298
796.00,51.269
797.00,51.156
798.00,51.191
799.00,51.184
800.00,51.152
801.00,51.100
802.00,51.223
803.00,51.109
804.00,51.134
805.00,51.123
806.00,51.121
807.00,51.106
808.00,51.106
809.00,51.162
810.00,51.043
811.00,51.087
812.00,51.123
813.00,51.088
814.00,51.034
815.00,51.061
816.00,51.082
817.00,51.005
818.00,50.893
819.00,51.013
820.00,50.964
821.00,50.970
822.00,50.964
823.00,50.885
824.00,50.934
825.00,50.914
826.00,50.891
827.00,50.943
828.00,50.941
829.00,50.873
830.00,50.876
831.00,53.188
832.00,53.199
833.00,53.102
834.00,53.109
835.00,53.114
836.00,53.117
837.00,53.079
838.00,53.078
839.00,53.068
840.00,52.992
841.00,53.019
842.00,53.017
843.00,53.007
844.00,52.998
845.00,52.912
846.00,52.946
847.00,52.910
848.00,52.907
849.00,52.838
850.00,52.824
851.00,52.761
852.00,52.814
853.00,52.740
854.00,52.713
855.00,52.665
856.00,52.670
857.00,52.671
858.00,52.575
859.00,52.594
860.00,52.596
861.00,52.595
862.00,52.521
863.00,52.573
864.00,52.517
865.00,52.554
866.00,52.522
867.00,52.507
868.00,52.497
869.00,52.475
870.00,52.528
871.00,52.494
872.00,52.489
873.00,52.397
874.00,52.634
875.00,52.426
876.00,52.437
877.00,52.350
878.00,52.408
879.00,52.370
880.00,52.356
881.00,52.326
882.00,52.368
883.00,52.308
884.00,52.281
885.00,52.268
886.00,52.284
887.00,52.255
888.00,52.230
889.00,52.202
890.00,52.226
891.00,52.174
892.00,52.142
893.00,52.148
894.00,52.162
895.00,52.103
896.00,52.074
897.00,52.060
898.00,52.026
899.00,52.043
900.00,52.011
901.00,52.013
902.00,52.018
903.00,52.029
904.00,51.961
905.00,51.970
906.00,51.945
907.00,51.931
908.00,51.859
909.00,51.867
910.00,51.822
911.00,51.829
912.00,51.806
913.00,51.770
914.00,51.771
915.00,51.843
916.00,51.731
917.00,51.703
918.00,51.710
919.00,51.666
920.00,51.611
921.00,51.621
922.00,51.616
923.00,51.604
924.00,51.554
925.00,51.577
926.00,51.555
927.00,51.524
928.00,51.502
929.00,51.522
930.00,51.486
931.00,51.488
932.00,51.431
933.00,51.460
934.00,51.452
935.00,51.371
936.00,51.367
937.00,51.342
938.00,51.343
939.00,51.329
940.00,51.303
941.00,51.286
942.00,51.276
943.00,51.231
944.00,51.220
945.00,51.228
946.00,51.209
947.00,51.159
948.00,51.148
949.00,51.138
950.00,51.140
951.00,51.084
952.00,51.048
953.00,51.039
954.00,51.009
955.00,50.964
956.00,50.960
957.00,50.921
958.00,50.940
959.00,50.852
960.00,50.863
961.00,50.871
962.00,50.850
963.00,50.823
964.00,50.830
965.00,50.844
966.00,50.828
967.00,50.812
968.00,50.770
969.00,50.825
970.00,50.787
971.00,50.789
972.00,50.756
973.00,50.823
974.00,50.828
975.00,50.736
976.00,50.800
977.00,50.782
978.00,50.818
979.00,50.763
980.00,50.791
981.00,50.814
982.00,50.748
983.00,50.805
984.00,50.760
985.00,50.769
986.00,50.733
987.00,50.768
988.00,50.729
989.00,50.703
990.00,50.699
991.00,50.688
992.00,50.695
993.00,50.671
994.00,50.660
995.00,50.642
996.00,50.643
997.00,50.642
998.00,50.604
999.00,50.614
1000.00,50.586
1001.00,50.581
1002.00,50.579
1003.00,50.567
1004.00,50.540
1005.00,50.502
1006.00,50.584
1007.00,50.521
1008.00,50.495
1009.00,50.464
1010.00,50.472
1011.00,50.465
1012.00,50.422
1013.00,50.445
1014.00,50.419
1015.00,50.429
1016.00,50.394
1017.00,50.379
1018.00,50.376
1019.00,50.323
1020.00,50.335
1021.00,50.335
1022.00,50.317
1023.00,50.248
1024.00,50.288
1025.00,50.260
1026.00,50.226
1027.00,50.218
1028.00,50.208
1029.00,50.199
1030.00,50.161
1031.00,50.173
1032.00,50.141
1033.00,50.133
1034.00,50.116
1035.00,50.094
1036.00,50.065
1037.00,50.040
1038.00,50.034
1039.00,49.994
1040.00,49.997
1041.00,49.964
1042.00,49.959
1043.00,49.943
1044.00,49.968
1045.00,49.932
1046.00,49.961
1047.00,49.964
1048.00,49.948
1049.00,49.982
1050.00,49.978
1051.00,50.032
1052.00,50.019
1053.00,50.008
1054.00,50.021
1055.00,50.046
1056.00,50.041
1057.00,50.065
1058.00,50.045
1059.00,50.039
1060.00,50.062
1061.00,50.022
1062.00,50.012
1063.00,50.028
1064.00,50.028
1065.00,50.014
1066.00,50.017
1067.00,49.994
1068.00,50.032
1069.00,49.980
1070.00,49.959
1071.00,49.965
1072.00,49.970
1073.00,49.952
1074.00,49.958
1075.00,49.936
1076.00,49.953
1077.00,49.923
1078.00,49.887
1079.00,49.912
1080.00,49.900
1081.00,49.884
1082.00,49.897
1083.00,49.882
1084.00,49.879
1085.00,49.896
1086.00,49.870
1087.00,49.879
1088.00,49.848
1089.00,49.826
1090.00,49.840
1091.00,49.838
1092.00,49.808
1093.00,49.814
1094.00,49.785
1095.00,49.776
1096.00,49.762
1097.00,49.771
1098.00,49.753
1099.00,49.757
1100.00,49.737
1101.00,49.746
1102.00,49.721
1103.00,49.721
1104.00,49.717
1105.00,49.704
1106.00,49.681
1107.00,49.688
1108.00,49.671
1109.00,49.672
1110.00,49.655
1111.00,49.654
1112.00,49.649
1113.00,49.649
1114.00,49.622
1115.00,49.641
1116.00,49.617
1117.00,49.611
1118.00,49.602
1119.00,49.593
1120.00,49.595
1121.00,49.599
1122.00,49.564
1123.00,49.589
1124.00,49.576
1125.00,49.569
1126.00,49.570
1127.00,49.569
1128.00,49.542
1129.00,49.525
1130.00,49.505
1131.00,49.515
1132.00,49.501
1133.00,49.491
1134.00,49.484
1135.00,49.454
1136.00,49.469
1137.00,49.493
1138.00,49.473
1139.00,49.495
1140.00,49.494
1141.00,49.488
1142.00,49.475
1143.00,49.492
1144.00,49.458
1145.00,49.468
1146.00,49.459
1147.00,49.453
1148.00,49.457
1149.00,49.472
1150.00,49.469
1151.00,49.475
1152.00,49.456
1153.00,49.458
1154.00,49.446
1155.00,49.447
1156.00,49.439
1157.00,49.452
1158.00,49.433
1159.00,49.441
1160.00,49.429
1161.00,49.438
1162.00,49.444
1163.00,49.420
1164.00,49.443
1165.00,49.436
1166.00,49.431
1167.00,49.436
1168.00,49.461
1169.00,49.430
1170.00,49.437
1171.00,49.435
1172.00,49.426
1173.00,49.424
1174.00,49.438
1175.00,49.421
1176.00,49.421
1177.00,49.397
1178.00,49.414
1179.00,49.426
1180.00,49.399
1181.00,49.431
1182.00,49.414
1183.00,49.410
1184.00,49.401
1185.00,49.412
1186.00,49.413
1187.00,49.417
1188.00,49.415
1189.00,49.419
1190.00,49.402
1191.00,49.385
1192.00,49.425
1193.00,49.397
1194.00,49.395
1195.00,49.389
1196.00,49.408
1197.00,49.410
1198.00,49.400
1199.00,49.406
1200.00,49.424
1201.00,49.430
1202.00,49.414
1203.00,49.428
1204.00,49.406
1205.00,49.441
1206.00,49.414
1207.00,49.402
1208.00,49.399
1209.00,49.411
1210.00,49.411
1211.00,49.408
1212.00,49.423
1213.00,49.389
1214.00,49.427
1215.00,49.395
1216.00,49.408
1217.00,49.424
1218.00,49.400
1219.00,49.433
1220.00,49.407
1221.00,49.407
1222.00,49.407
1223.00,49.425
1224.00,49.412
1225.00,49.400
1226.00,49.405
1227.00,49.412
1228.00,49.437
1229.00,49.417
1230.00,49.462
1231.00,49.449
1232.00,49.455
1233.00,49.472
1234.00,49.476
1235.00,49.491
1236.00,49.488
1237.00,49.499
1238.00,49.480
1239.00,49.497
1240.00,49.457
1241.00,49.497
1242.00,49.503
1243.00,49.497
1244.00,49.491
1245.00,49.512
1246.00,49.501
1247.00,49.496
1248.00,49.486
1249.00,49.509
1250.00,49.526
1251.00,49.509
1252.00,49.527
1253.00,49.506
1254.00,49.532
1255.00,49.534
1256.00,49.537
1257.00,49.552
1258.00,49.572
1259.00,49.555
1260.00,49.570
1261.00,49.566
1262.00,49.563
1263.00,49.578
1264.00,49.600
1265.00,49.596
1266.00,49.589
1267.00,49.603
1268.00,49.605
1269.00,49.612
1270.00,49.617
1271.00,49.623
1272.00,49.623
1273.00,49.635
1274.00,49.631
1275.00,49.643
1276.00,49.624
1277.00,49.648
1278.00,49.672
1279.00,49.665
1280.00,49.682
1281.00,49.701
1282.00,49.700
1283.00,49.687
1284.00,49.696
1285.00,49.688
1286.00,49.716
1287.00,49.704
1288.00,49.718
1289.00,49.711
1290.00,49.740
1291.00,49.733
1292.00,49.743
1293.00,49.752
1294.00,49.773
1295.00,49.774
1296.00,49.783
1297.00,49.782
1298.00,49.809
1299.00,49.789
1300.00,49.804
1301.00,49.776
1302.00,49.821
1303.00,49.805
1304.00,49.790
1305.00,49.831
1306.00,49.837
1307.00,49.850
1308.00,49.845
1309.00,49.856
1310.00,49.861
1311.00,49.846
1312.00,49.842
1313.00,49.882
1314.00,49.897
1315.00,49.907
1316.00,49.911
1317.00,49.945
1318.00,49.925
1319.00,49.930
1320.00,49.928
1321.00,50.126
1322.00,50.107
1323.00,50.088
1324.00,50.092
1325.00,50.077
1326.00,50.097
1327.00,50.085
1328.00,50.090
1329.00,50.073
1330.00,50.092
1331.00,50.065
1332.00,50.095
1333.00,50.101
1334.00,50.142
1335.00,50.175
1336.00,50.196
1337.00,50.236
1338.00,50.266
1339.00,50.308
1340.00,50.364
1341.00,50.435
1342.00,50.502
1343.00,50.571
1344.00,50.604
1345.00,50.672
1346.00,50.717
1347.00,50.723
1348.00,50.747
1349.00,50.763
1350.00,50.784
1351.00,50.806
1352.00,50.833
1353.00,50.838
1354.00,50.841
1355.00,50.771
1356.00,50.840
1357.00,50.841
1358.00,50.876
1359.00,50.858
1360.00,50.961
1361.00,50.889
1362.00,50.836
1363.00,50.918
1364.00,50.852
1365.00,50.888
1366.00,50.971
1367.00,50.890
1368.00,50.901
1369.00,50.917
1370.00,50.923
1371.00,50.860
1372.00,50.871
1373.00,50.889
1374.00,50.909
1375.00,50.874
1376.00,50.886
1377.00,50.849
1378.00,50.961
1379.00,50.912
1380.00,50.921
1381.00,50.926
1382.00,50.830
1383.00,50.908
1384.00,50.829
1385.00,50.828
1386.00,50.893
1387.00,50.862
1388.00,50.832
1389.00,50.829
1390.00,50.871
1391.00,50.812
1392.00,50.850
1393.00,50.961
1394.00,50.911
1395.00,50.832
1396.00,50.789
1397.00,50.897
1398.00,50.969
1399.00,50.827
1400.00,50.768
1401.00,50.860
1402.00,50.974
1403.00,50.835
1404.00,50.839
1405.00,50.932
1406.00,50.924
1407.00,50.932
1408.00,50.895
1409.00,50.925
1410.00,50.968
1411.00,50.949
1412.00,51.052
1413.00,50.910
1414.00,50.946
1415.00,50.993
1416.00,51.015
1417.00,51.055
1418.00,50.981
1419.00,50.992
1420.00,51.051
1421.00,51.124
1422.00,51.074
1423.00,51.106
1424.00,51.111
1425.00,51.142
1426.00,51.145
1427.00,51.178
1428.00,51.179
1429.00,51.201
1430.00,51.199
1431.00,51.229
1432.00,51.248
1433.00,51.254
1434.00,51.264
1435.00,51.330
1436.00,51.323
1437.00,51.320
1438.00,51.339
1439.00,51.371
1440.00,51.393
1441.00,51.385
1442.00,51.418
1443.00,51.445
1444.00,51.509
1445.00,51.415
1446.00,51.448
1447.00,51.515
1448.00,51.566
1449.00,51.541
1450.00,51.535
1451.00,51.555
1452.00,51.591
1453.00,51.635
1454.00,51.624
1455.00,51.640
1456.00,51.684
1457.00,51.648
1458.00,51.692
1459.00,51.699
1460.00,51.721
1461.00,51.738
1462.00,51.769
1463.00,51.763
1464.00,51.804
1465.00,51.807
1466.00,51.806
1467.00,51.848
1468.00,51.896
1469.00,51.847
1470.00,51.875
1471.00,51.889
1472.00,51.898
1473.00,51.919
1474.00,51.957
1475.00,51.975
1476.00,51.993
1477.00,51.971
1478.00,52.021
1479.00,52.037
1480.00,52.019
1481.00,52.038
1482.00,52.071
1483.00,52.110
1484.00,52.125
1485.00,52.108
1486.00,52.147
1487.00,52.156
1488.00,52.181
1489.00,52.175
1490.00,52.188
1491.00,52.208
1492.00,52.246
1493.00,52.218
1494.00,52.272
1495.00,52.235
1496.00,52.280
1497.00,52.260
1498.00,52.270
1499.00,52.286
1500.00,52.318
1501.00, 
1502.00, 
1503.00, 
1504.00, 
1505.00, 
1506.00, 
1507.00, 
1508.00, 
1509.00, 
1510.00, 
1511.00, 
1512.00, 
1513.00, 
1514.00, 
1515.00, 
1516.00, 
1517.00, 
1518.00, 
1519.00, 
1520.00, 
1521.00, 
1522.00, 
1523.00, 
1524.00, 
1525.00, 
1526.00, 
1527.00, 
1528.00, 
1529.00, 
1530.00, 
1531.00, 
1532.00, 
1533.00, 
1534.00, 
1535.00, 
1536.00, 
1537.00, 
1538.00, 
1539.00, 
1540.00, 
1541.00, 
1542.00, 
1543.00, 
1544.00, 
1545.00, 
1546.00, 
1547.00, 
1548.00, 
1549.00, 
1550.00, 
1551.00, 
1552.00, 
1553.00, 
1554.00, 
1555.00, 
1556.00, 
1557.00, 
1558.00, 
1559.00, 
1560.00, 
1561.00, 
1562.00, 
1563.00, 
1564.00, 
1565.00, 
1566.00, 
1567.00, 
1568.00, 
1569.00, 
1570.00, 
1571.00, 
1572.00, 
1573.00, 
1574.00, 
1575.00, 
1576.00, 
1577.00, 
1578.00, 
1579.00, 
1580.00, 
1581.00, 
1582.00, 
1583.00, 
1584.00, 
1585.00, 
1586.00, 
1587.00, 
1588.00, 
1589.00, 
1590.00, 
1591.00, 
1592.00, 
1593.00, 
1594.00, 
1595.00, 
1596.00, 
1597.00, 
1598.00, 
1599.00, 
1600.00, 
1601.00, 
1602.00, 
1603.00, 
1604.00, 
1605.00, 
1606.00, 
1607.00, 
1608.00, 
1609.00, 
1610.00, 
1611.00, 
1612.00, 
1613.00, 
1614.00, 
1615.00, 
1616.00, 
1617.00, 
1618.00, 
1619.00, 
1620.00, 
1621.00, 
1622.00, 
1623.00, 
1624.00, 
1625.00, 
1626.00, 
1627.00, 
1628.00, 
1629.00, 
1630.00, 
1631.00, 
1632.00, 
1633.00, 
1634.00, 
1635.00, 
1636.00, 
1637.00, 
1638.00, 
1639.00, 
1640.00, 
1641.00, 
1642.00, 
1643.00, 
1644.00, 
1645.00, 
1646.00, 
1647.00, 
1648.00, 
1649.00, 
1650.00, 
1651.00, 
1652.00, 
1653.00, 
1654.00, 
1655.00, 
1656.00, 
1657.00, 
1658.00, 
1659.00, 
1660.00, 
1661.00, 
1662.00, 
1663.00, 
1664.00, 
1665.00, 
1666.00, 
1667.00, 
1668.00, 
1669.00, 
1670.00, 
1671.00, 
1672.00, 
1673.00, 
1674.00, 
1675.00, 
1676.00, 
1677.00, 
1678.00, 
1679.00, 
1680.00, 
1681.00, 
1682.00, 
1683.00, 
1684.00, 
1685.00, 
1686.00, 
1687.00, 
1688.00, 
1689.00, 
1690.00, 
1691.00, 
1692.00, 
1693.00, 
1694.00, 
1695.00, 
1696.00, 
1697.00, 
1698.00, 
1699.00, 
1700.00, 
1701.00, 
1702.00, 
1703.00, 
1704.00, 
1705.00, 
1706.00, 
1707.00, 
1708.00, 
1709.00, 
1710.00, 
1711.00, 
1712.00, 
1713.00, 
1714.00, 
1715.00, 
1716.00, 
1717.00, 
1718.00, 
1719.00, 
1720.00, 
1721.00, 
1722.00, 
1723.00, 
1724.00, 
1725.00, 
1726.00, 
1727.00, 
1728.00, 
1729.00, 
1730.00, 
1731.00, 
1732.00, 
1733.00, 
1734.00, 
1735.00, 
1736.00, 
1737.00, 
1738.00, 
1739.00, 
1740.00, 
1741.00, 
1742.00, 
1743.00, 
1744.00, 
1745.00, 
1746.00, 
1747.00, 
1748.00, 
1749.00, 
1750.00, 
1751.00, 
1752.00, 
1753.00, 
1754.00, 
1755.00, 
1756.00, 
1757.00, 
1758.00, 
1759.00, 
1760.00, 
1761.00, 
1762.00, 
1763.00, 
1764.00, 
1765.00, 
1766.00, 
1767.00, 
1768.00, 
1769.00, 
1770.00, 
1771.00, 
1772.00, 
1773.00, 
1774.00, 
1775.00, 
1776.00, 
1777.00, 
1778.00, 
1779.00, 
1780.00, 
1781.00, 
1782.00, 
1783.00, 
1784.00, 
1785.00, 
1786.00, 
1787.00, 
1788.00, 
1789.00, 
1790.00, 
1791.00, 
1792.00, 
1793.00, 
1794.00, 
1795.00, 
1796.00, 
1797.00, 
1798.00, 
1799.00, 
1800.00, 
1801.00, 
1802.00, 
1803.00, 
1804.00, 
1805.00, 
1806.00, 
1807.00, 
1808.00, 
1809.00, 
1810.00, 
1811.00, 
1812.00, 
1813.00, 
1814.00, 
1815.00, 
1816.00, 
1817.00, 
1818.00, 
1819.00, 
1820.00, 
1821.00, 
1822.00, 
1823.00, 
1824.00, 
1825.00, 
1826.00, 
1827.00, 
1828.00, 
1829.00, 
1830.00, 
1831.00, 
1832.00, 
1833.00, 
1834.00, 
1835.00, 
1836.00, 
1837.00, 
1838.00, 
1839.00, 
1840.00, 
1841.00, 
1842.00, 
1843.00, 
1844.00, 
1845.00, 
1846.00, 
1847.00, 
1848.00, 
1849.00, 
1850.00, 
1851.00, 
1852.00, 
1853.00, 
1854.00, 
1855.00, 
1856.00, 
1857.00, 
1858.00, 
1859.00, 
1860.00, 
1861.00, 
1862.00, 
1863.00, 
1864.00, 
1865.00, 
1866.00, 
1867.00, 
1868.00, 
1869.00, 
1870.00, 
1871.00, 
1872.00, 
1873.00, 
1874.00, 
1875.00, 
1876.00, 
1877.00, 
1878.00, 
1879.00, 
1880.00, 
1881.00, 
1882.00, 
1883.00, 
1884.00, 
1885.00, 
1886.00, 
1887.00, 
1888.00, 
1889.00, 
1890.00, 
1891.00, 
1892.00, 
1893.00, 
1894.00, 
1895.00, 
1896.00, 
1897.00, 
1898.00, 
1899.00, 
1900.00, 
1901.00, 
1902.00, 
1903.00, 
1904.00, 
1905.00, 
1906.00, 
1907.00, 
1908.00, 
1909.00, 
1910.00, 
1911.00, 
1912.00, 
1913.00, 
1914.00, 
1915.00, 
1916.00, 
1917.00, 
1918.00, 
1919.00, 
1920.00, 
1921.00, 
1922.00, 
1923.00, 
1924.00, 
1925.00, 
1926.00, 
1927.00, 
1928.00, 
1929.00, 
1930.00, 
1931.00, 
1932.00, 
1933.00, 
1934.00, 
1935.00, 
1936.00, 
1937.00, 
1938.00, 
1939.00, 
1940.00, 
1941.00, 
1942.00, 
1943.00, 
1944.00, 
1945.00, 
1946.00, 
1947.00, 
1948.00, 
1949.00, 
1950.00, 
1951.00, 
1952.00, 
1953.00, 
1954.00, 
1955.00, 
1956.00, 
1957.00, 
1958.00, 
1959.00, 
1960.00, 
1961.00, 
1962.00, 
1963.00, 
1964.00, 
1965.00, 
1966.00, 
1967.00, 
1968.00, 
1969.00, 
1970.00, 
1971.00, 
1972.00, 
1973.00, 
1974.00, 
1975.00, 
1976.00, 
1977.00, 
1978.00, 
1979.00, 
1980.00, 
1981.00, 
1982.00, 
1983.00, 
1984.00, 
1985.00, 
1986.00, 
1987.00, 
1988.00, 
1989.00, 
1990.00, 
1991.00, 
1992.00, 
1993.00, 
1994.00, 
1995.00, 
1996.00, 
1997.00, 
1998.00, 
1999.00, 
2000.00, 
2001.00, 
2002.00, 
2003.00, 
2004.00, 
2005.00, 
2006.00, 
2007.00, 
2008.00, 
2009.00, 
2010.00, 
2011.00, 
2012.00, 
2013.00, 
2014.00, 
2015.00, 
2016.00, 
2017.00, 
2018.00, 
2019.00, 
2020.00, 
2021.00, 
2022.00, 
2023.00, 
2024.00, 
2025.00, 
2026.00, 
2027.00, 
2028.00, 
2029.00, 
2030.00, 
2031.00, 
2032.00, 
2033.00, 
2034.00, 
2035.00, 
2036.00, 
2037.00, 
2038.00, 
2039.00, 
2040.00, 
2041.00, 
2042.00, 
2043.00, 
2044.00, 
2045.00, 
2046.00, 
2047.00, 
2048.00, 
2049.00, 
2050.00, 
2051.00, 
2052.00, 
2053.00, 
2054.00, 
2055.00, 
2056.00, 
2057.00, 
2058.00, 
2059.00, 
2060.00, 
2061.00, 
2062.00, 
2063.00, 
2064.00, 
2065.00, 
2066.00, 
2067.00, 
2068.00, 
2069.00, 
2070.00, 
2071.00, 
2072.00, 
2073.00, 
2074.00, 
2075.00, 
2076.00, 
2077.00, 
2078.00, 
2079.00, 
2080.00, 
2081.00, 
2082.00, 
2083.00, 
2084.00, 
2085.00, 
2086.00, 
2087.00, 
2088.00, 
2089.00, 
2090.00, 
2091.00, 
2092.00, 
2093.00, 
2094.00, 
2095.00, 
2096.00, 
2097.00, 
2098.00, 
2099.00, 
2100.00, 
2101.00, 
2102.00, 
2103.00, 
2104.00, 
2105.00, 
2106.00, 
2107.00, 
2108.00, 
2109.00, 
2110.00, 
2111.00, 
2112.00, 
2113.00, 
2114.00, 
2115.00, 
2116.00, 
2117.00, 
2118.00, 
2119.00, 
2120.00, 
2121.00, 
2122.00, 
2123.00, 
2124.00, 
2125.00, 
2126.00, 
2127.00, 
2128.00, 
2129.00, 
2130.00, 
2131.00, 
2132.00, 
2133.00, 
2134.00, 
2135.00, 
2136.00, 
2137.00, 
2138.00, 
2139.00, 
2140.00, 
2141.00, 
2142.00, 
2143.00, 
2144.00, 
2145.00, 
2146.00, 
2147.00, 
2148.00, 
2149.00, 
2150.00, 
2151.00, 
2152.00, 
2153.00, 
2154.00, 
2155.00, 
2156.00, 
2157.00, 
2158.00, 
2159.00, 
2160.00, 
2161.00, 
2162.00, 
2163.00, 
2164.00, 
2165.00, 
2166.00, 
2167.00, 
2168.00, 
2169.00, 
2170.00, 
2171.00, 
2172.00, 
2173.00, 
2174.00, 
2175.00, 
2176.00, 
2177.00, 
2178.00, 
2179.00, 
2180.00, 
2181.00, 
2182.00, 
2183.00, 
2184.00, 
2185.00, 
2186.00, 
2187.00, 
2188.00, 
2189.00, 
2190.00, 
2191.00, 
2192.00, 
2193.00, 
2194.00, 
2195.00, 
2196.00, 
2197.00, 
2198.00, 
2199.00, 
2200.00, 
2201.00, 
2202.00, 
2203.00, 
2204.00, 
2205.00, 
2206.00, 
2207.00, 
2208.00, 
2209.00, 
2210.00, 
2211.00, 
2212.00, 
2213.00, 
2214.00, 
2215.00, 
2216.00, 
2217.00, 
2218.00, 
2219.00, 
2220.00, 
2221.00, 
2222.00, 
2223.00, 
2224.00, 
2225.00, 
2226.00, 
2227.00, 
2228.00, 
2229.00, 
2230.00, 
2231.00, 
2232.00, 
2233.00, 
2234.00, 
2235.00, 
2236.00, 
2237.00, 
2238.00, 
2239.00, 
2240.00, 
2241.00, 
2242.00, 
2243.00, 
2244.00, 
2245.00, 
2246.00, 
2247.00, 
2248.00, 
2249.00, 
2250.00, 
2251.00, 
2252.00, 
2253.00, 
2254.00, 
2255.00, 
2256.00, 
2257.00, 
2258.00, 
2259.00, 
2260.00, 
2261.00, 
2262.00, 
2263.00, 
2264.00, 
2265.00, 
2266.00, 
2267.00, 
2268.00, 
2269.00, 
2270.00, 
2271.00, 
2272.00, 
2273.00, 
2274.00, 
2275.00, 
2276.00, 
2277.00, 
2278.00, 
2279.00, 
2280.00, 
2281.00, 
2282.00, 
2283.00, 
2284.00, 
2285.00, 
2286.00, 
2287.00, 
2288.00, 
2289.00, 
2290.00, 
2291.00, 
2292.00, 
2293.00, 
2294.00, 
2295.00, 
2296.00, 
2297.00, 
2298.00, 
2299.00, 
2300.00, 
2301.00, 
2302.00, 
2303.00, 
2304.00, 
2305.00, 
2306.00, 
2307.00, 
2308.00, 
2309.00, 
2310.00, 
2311.00, 
2312.00, 
2313.00, 
2314.00, 
2315.00, 
2316.00, 
2317.00, 
2318.00, 
2319.00, 
2320.00, 
2321.00, 
2322.00, 
2323.00, 
2324.00, 
2325.00, 
2326.00, 
2327.00, 
2328.00, 
2329.00, 
2330.00, 
2331.00, 
2332.00, 
2333.00, 
2334.00, 
2335.00, 
2336.00, 
2337.00, 
2338.00, 
2339.00, 
2340.00, 
2341.00, 
2342.00, 
2343.00, 
2344.00, 
2345.00, 
2346.00, 
2347.00, 
2348.00, 
2349.00, 
2350.00, 
2351.00, 
2352.00, 
2353.00, 
2354.00, 
2355.00, 
2356.00, 
2357.00, 
2358.00, 
2359.00, 
2360.00, 
2361.00, 
2362.00, 
2363.00, 
2364.00, 
2365.00, 
2366.00, 
2367.00, 
2368.00, 
2369.00, 
2370.00, 
2371.00, 
2372.00, 
2373.00, 
2374.00, 
2375.00, 
2376.00, 
2377.00, 
2378.00, 
2379.00, 
2380.00, 
2381.00, 
2382.00, 
2383.00, 
2384.00, 
2385.00, 
2386.00, 
2387.00, 
2388.00, 
2389.00, 
2390.00, 
2391.00, 
2392.00, 
2393.00, 
2394.00, 
2395.00, 
2396.00, 
2397.00, 
2398.00, 
2399.00, 
2400.00, 
2401.00, 
2402.00, 
2403.00, 
2404.00, 
2405.00, 
2406.00, 
2407.00, 
2408.00, 
2409.00, 
2410.00, 
2411.00, 
2412.00, 
2413.00, 
2414.00, 
2415.00, 
2416.00, 
2417.00, 
2418.00, 
2419.00, 
2420.00, 
2421.00, 
2422.00, 
2423.00, 
2424.00, 
2425.00, 
2426.00, 
2427.00, 
2428.00, 
2429.00, 
2430.00, 
2431.00, 
2432.00, 
2433.00, 
2434.00, 
2435.00, 
2436.00, 
2437.00, 
2438.00, 
2439.00, 
2440.00, 
2441.00, 
2442.00, 
2443.00, 
2444.00, 
2445.00, 
2446.00, 
2447.00, 
2448.00, 
2449.00, 
2450.00, 
2451.00, 
2452.00, 
2453.00, 
2454.00, 
2455.00, 
2456.00, 
2457.00, 
2458.00, 
2459.00, 
2460.00, 
2461.00, 
2462.00, 
2463.00, 
2464.00, 
2465.00, 
2466.00, 
2467.00, 
2468.00, 
2469.00, 
2470.00, 
2471.00, 
2472.00, 
2473.00, 
2474.00, 
2475.00, 
2476.00, 
2477.00, 
2478.00, 
2479.00, 
2480.00, 
2481.00, 
2482.00, 
2483.00, 
2484.00, 
2485.00, 
2486.00, 
2487.00, 
2488.00, 
2489.00, 
2490.00, 
2491.00, 
2492.00, 
2493.00, 
2494.00, 
2495.00, 
2496.00, 
2497.00, 
2498.00, 
2499.00, 
2500.00, 
2501.00, 
2502.00, 
2503.00, 
2504.00, 
2505.00, 
2506.00, 
2507.00, 
2508.00, 
2509.00, 
2510.00, 
2511.00, 
2512.00, 
2513.00, 
2514.00, 
2515.00, 
2516.00, 
2517.00, 
2518.00, 
2519.00, 
2520.00, 
2521.00, 
2522.00, 
2523.00, 
2524.00, 
2525.00, 
2526.00, 
2527.00, 
2528.00, 
2529.00, 
2530.00, 
2531.00, 
2532.00, 
2533.00, 
2534.00, 
2535.00, 
2536.00, 
2537.00, 
2538.00, 
2539.00, 
2540.00, 
2541.00, 
2542.00, 
2543.00, 
2544.00, 
2545.00, 
2546.00, 
2547.00, 
2548.00, 
2549.00, 
2550.00, 
2551.00, 
2552.00, 
2553.00, 
2554.00, 
2555.00, 
2556.00, 
2557.00, 
2558.00, 
2559.00, 
2560.00, 
2561.00, 
2562.00, 
2563.00, 
2564.00, 
2565.00, 
2566.00, 
2567.00, 
2568.00, 
2569.00, 
2570.00, 
2571.00, 
2572.00, 
2573.00, 
2574.00, 
2575.00, 
2576.00, 
2577.00, 
2578.00, 
2579.00, 
2580.00, 
2581.00, 
2582.00, 
2583.00, 
2584.00, 
2585.00, 
2586.00, 
2587.00, 
2588.00, 
2589.00, 
2590.00, 
2591.00, 
2592.00, 
2593.00, 
2594.00, 
2595.00, 
2596.00, 
2597.00, 
2598.00, 
2599.00, 
2600.00, 
