"2aP2 - RawData"
"Wavelength nm.","T%"
200.00,0.001
201.00,0.004
202.00,0.006
203.00,0.002
204.00,0.002
205.00,-0.000
206.00,0.001
207.00,0.001
208.00,0.000
209.00,-0.001
210.00,0.003
211.00,0.001
212.00,0.000
213.00,0.004
214.00,0.002
215.00,0.000
216.00,0.004
217.00,-0.000
218.00,0.001
219.00,0.003
220.00,0.001
221.00,0.003
222.00,0.003
223.00,0.003
224.00,0.001
225.00,0.001
226.00,0.002
227.00,0.002
228.00,0.002
229.00,0.003
230.00,0.001
231.00,0.002
232.00,0.001
233.00,0.002
234.00,0.002
235.00,0.001
236.00,0.002
237.00,0.001
238.00,0.004
239.00,0.001
240.00,0.002
241.00,0.002
242.00,0.000
243.00,0.002
244.00,0.001
245.00,-0.000
246.00,0.001
247.00,0.001
248.00,0.002
249.00,0.001
250.00,0.002
251.00,0.003
252.00,0.001
253.00,0.002
254.00,0.001
255.00,0.002
256.00,0.001
257.00,0.000
258.00,0.001
259.00,0.001
260.00,-0.000
261.00,-0.000
262.00,-0.000
263.00,-0.002
264.00,0.001
265.00,0.000
266.00,0.000
267.00,0.000
268.00,-0.000
269.00,0.001
270.00,-0.000
271.00,0.001
272.00,-0.001
273.00,0.000
274.00,-0.000
275.00,0.000
276.00,0.002
277.00,0.000
278.00,0.001
279.00,-0.001
280.00,-0.000
281.00,0.001
282.00,0.000
283.00,-0.001
284.00,0.001
285.00,-0.002
286.00,0.000
287.00,-0.000
288.00,0.001
289.00,0.002
290.00,-0.000
291.00,-0.001
292.00,0.001
293.00,0.000
294.00,-0.000
295.00,0.000
296.00,0.001
297.00,-0.000
298.00,0.003
299.00,0.001
300.00,-0.000
301.00,0.002
302.00,0.003
303.00,0.007
304.00,0.010
305.00,0.014
306.00,0.020
307.00,0.034
308.00,0.052
309.00,0.080
310.00,0.115
311.00,0.151
312.00,0.206
313.00,0.280
314.00,0.367
315.00,0.485
316.00,0.612
317.00,0.780
318.00,0.955
319.00,1.163
320.00,1.415
321.00,1.685
322.00,1.999
323.00,2.361
324.00,2.731
325.00,3.084
326.00,3.502
327.00,3.943
328.00,4.368
329.00,4.853
330.00,5.336
331.00,5.805
332.00,6.300
333.00,6.834
334.00,7.335
335.00,7.857
336.00,8.381
337.00,8.876
338.00,9.389
339.00,9.829
340.00,10.312
341.00,10.774
342.00,11.180
343.00,11.639
344.00,11.922
345.00,12.436
346.00,12.778
347.00,13.085
348.00,13.396
349.00,13.671
350.00,13.975
351.00,14.223
352.00,14.464
353.00,14.679
354.00,14.894
355.00,15.118
356.00,15.266
357.00,15.446
358.00,15.576
359.00,15.777
360.00,15.914
361.00,16.016
362.00,16.158
363.00,16.228
364.00,16.234
365.00,16.323
366.00,16.378
367.00,16.452
368.00,16.482
369.00,16.496
370.00,16.536
371.00,16.566
372.00,16.509
373.00,16.509
374.00,16.550
375.00,16.504
376.00,16.451
377.00,16.384
378.00,16.290
379.00,16.275
380.00,16.229
381.00,16.221
382.00,16.213
383.00,16.196
384.00,16.175
385.00,16.225
386.00,16.203
387.00,16.221
388.00,16.266
389.00,16.262
390.00,16.274
391.00,16.272
392.00,16.295
393.00,16.211
394.00,16.275
395.00,16.254
396.00,16.244
397.00,16.256
398.00,16.234
399.00,16.251
400.00,16.239
401.00,16.238
402.00,16.242
403.00,16.173
404.00,16.160
405.00,16.158
406.00,16.162
407.00,16.142
408.00,16.125
409.00,16.058
410.00,16.034
411.00,16.061
412.00,16.043
413.00,16.090
414.00,16.055
415.00,16.061
416.00,16.122
417.00,16.084
418.00,16.138
419.00,16.192
420.00,16.225
421.00,16.233
422.00,16.243
423.00,16.312
424.00,16.354
425.00,16.356
426.00,16.396
427.00,16.438
428.00,16.486
429.00,16.522
430.00,16.571
431.00,16.610
432.00,16.666
433.00,16.717
434.00,16.787
435.00,16.866
436.00,16.911
437.00,16.941
438.00,17.040
439.00,17.078
440.00,17.199
441.00,17.264
442.00,17.347
443.00,17.426
444.00,17.521
445.00,17.604
446.00,17.702
447.00,17.775
448.00,17.893
449.00,17.996
450.00,18.104
451.00,18.182
452.00,18.312
453.00,18.402
454.00,18.507
455.00,18.634
456.00,18.743
457.00,18.862
458.00,18.961
459.00,19.113
460.00,19.221
461.00,19.368
462.00,19.502
463.00,19.628
464.00,19.755
465.00,19.891
466.00,20.030
467.00,20.153
468.00,20.256
469.00,20.367
470.00,20.506
471.00,20.596
472.00,20.738
473.00,20.831
474.00,20.978
475.00,21.116
476.00,21.216
477.00,21.352
478.00,21.461
479.00,21.649
480.00,21.801
481.00,21.928
482.00,22.080
483.00,22.225
484.00,22.384
485.00,22.529
486.00,22.685
487.00,22.854
488.00,23.015
489.00,23.171
490.00,23.338
491.00,23.497
492.00,23.653
493.00,23.847
494.00,24.019
495.00,24.045
496.00,24.073
497.00,24.311
498.00,24.485
499.00,24.633
500.00,24.771
501.00,24.892
502.00,25.050
503.00,25.207
504.00,25.274
505.00,25.447
506.00,25.593
507.00,25.699
508.00,25.826
509.00,25.966
510.00,26.120
511.00,26.178
512.00,26.392
513.00,26.526
514.00,26.652
515.00,26.800
516.00,26.912
517.00,26.990
518.00,27.184
519.00,27.282
520.00,27.297
521.00,27.459
522.00,27.556
523.00,27.614
524.00,27.730
525.00,27.860
526.00,27.954
527.00,28.035
528.00,28.157
529.00,28.314
530.00,28.469
531.00,28.546
532.00,28.622
533.00,28.765
534.00,28.845
535.00,28.956
536.00,29.045
537.00,29.131
538.00,29.200
539.00,29.316
540.00,29.356
541.00,29.455
542.00,29.524
543.00,29.576
544.00,29.684
545.00,29.745
546.00,29.784
547.00,29.952
548.00,29.987
549.00,30.085
550.00,30.145
551.00,30.274
552.00,30.350
553.00,30.395
554.00,30.487
555.00,30.558
556.00,30.606
557.00,30.666
558.00,30.762
559.00,30.815
560.00,30.918
561.00,30.945
562.00,30.996
563.00,31.097
564.00,31.089
565.00,31.143
566.00,31.188
567.00,31.233
568.00,31.360
569.00,31.448
570.00,31.449
571.00,31.447
572.00,31.526
573.00,31.488
574.00,31.553
575.00,31.583
576.00,31.579
577.00,31.674
578.00,31.757
579.00,31.820
580.00,31.873
581.00,32.036
582.00,32.123
583.00,32.109
584.00,32.228
585.00,32.305
586.00,32.321
587.00,32.423
588.00,32.471
589.00,32.424
590.00,32.487
591.00,32.561
592.00,32.542
593.00,32.587
594.00,32.774
595.00,32.789
596.00,32.899
597.00,32.905
598.00,32.959
599.00,32.968
600.00,33.065
601.00,33.130
602.00,33.196
603.00,33.232
604.00,33.254
605.00,33.294
606.00,33.289
607.00,33.408
608.00,33.605
609.00,33.642
610.00,33.538
611.00,33.627
612.00,33.685
613.00,33.767
614.00,33.830
615.00,33.919
616.00,33.998
617.00,34.074
618.00,33.996
619.00,34.128
620.00,34.193
621.00,34.257
622.00,34.335
623.00,34.402
624.00,34.541
625.00,34.601
626.00,34.628
627.00,34.740
628.00,34.786
629.00,34.818
630.00,34.908
631.00,34.994
632.00,35.088
633.00,35.241
634.00,35.320
635.00,35.365
636.00,35.483
637.00,35.554
638.00,35.651
639.00,35.803
640.00,35.775
641.00,35.750
642.00,35.969
643.00,36.089
644.00,36.190
645.00,36.264
646.00,36.398
647.00,36.521
648.00,36.625
649.00,36.625
650.00,36.666
651.00,36.930
652.00,37.026
653.00,37.042
654.00,37.146
655.00,37.302
656.00,37.669
657.00,37.431
658.00,37.617
659.00,37.801
660.00,37.925
661.00,38.020
662.00,38.067
663.00,38.187
664.00,38.557
665.00,38.677
666.00,38.604
667.00,38.709
668.00,38.832
669.00,39.081
670.00,39.313
671.00,39.291
672.00,39.461
673.00,39.472
674.00,39.615
675.00,39.720
676.00,39.985
677.00,40.167
678.00,39.908
679.00,40.155
680.00,40.307
681.00,40.436
682.00,40.600
683.00,40.694
684.00,40.841
685.00,40.834
686.00,40.815
687.00,41.059
688.00,41.212
689.00,41.311
690.00,41.630
691.00,41.862
692.00,41.667
693.00,41.721
694.00,41.991
695.00,42.068
696.00,42.205
697.00,42.304
698.00,42.439
699.00,42.834
700.00,42.927
701.00,42.797
702.00,42.944
703.00,43.216
704.00,43.359
705.00,43.231
706.00,43.401
707.00,43.509
708.00,43.333
709.00,43.865
710.00,44.190
711.00,43.930
712.00,43.981
713.00,44.252
714.00,44.345
715.00,44.346
716.00,44.433
717.00,44.583
718.00,44.646
719.00,44.744
720.00,44.930
721.00,49.269
722.00,49.247
723.00,49.386
724.00,49.407
725.00,49.446
726.00,49.519
727.00,49.554
728.00,49.643
729.00,49.732
730.00,49.772
731.00,49.805
732.00,49.903
733.00,50.023
734.00,50.026
735.00,50.057
736.00,50.202
737.00,50.183
738.00,50.393
739.00,50.368
740.00,50.420
741.00,50.497
742.00,50.584
743.00,50.531
744.00,50.578
745.00,50.723
746.00,50.756
747.00,50.798
748.00,50.766
749.00,50.757
750.00,50.906
751.00,50.844
752.00,50.915
753.00,50.896
754.00,50.957
755.00,51.009
756.00,51.065
757.00,51.050
758.00,51.175
759.00,51.229
760.00,51.243
761.00,51.258
762.00,51.262
763.00,51.362
764.00,51.384
765.00,51.371
766.00,51.445
767.00,51.511
768.00,51.524
769.00,51.572
770.00,51.618
771.00,51.596
772.00,51.689
773.00,51.732
774.00,51.771
775.00,51.769
776.00,51.785
777.00,51.875
778.00,51.889
779.00,51.821
780.00,51.795
781.00,51.889
782.00,51.910
783.00,51.877
784.00,51.961
785.00,51.803
786.00,51.921
787.00,51.907
788.00,51.991
789.00,51.912
790.00,51.900
791.00,52.060
792.00,52.018
793.00,51.999
794.00,52.035
795.00,51.995
796.00,52.025
797.00,51.954
798.00,52.027
799.00,51.983
800.00,51.976
801.00,51.958
802.00,52.003
803.00,51.972
804.00,52.013
805.00,52.009
806.00,52.081
807.00,52.011
808.00,52.064
809.00,52.003
810.00,51.969
811.00,51.990
812.00,52.048
813.00,51.986
814.00,51.994
815.00,52.078
816.00,52.044
817.00,51.996
818.00,51.990
819.00,51.976
820.00,51.929
821.00,51.975
822.00,52.010
823.00,51.941
824.00,52.020
825.00,51.958
826.00,51.873
827.00,52.022
828.00,51.977
829.00,51.961
830.00,51.940
831.00,54.117
832.00,54.123
833.00,54.048
834.00,54.105
835.00,54.067
836.00,54.074
837.00,54.064
838.00,54.026
839.00,54.053
840.00,53.963
841.00,54.008
842.00,53.987
843.00,53.954
844.00,53.979
845.00,53.927
846.00,53.954
847.00,53.927
848.00,53.921
849.00,53.864
850.00,53.872
851.00,53.815
852.00,53.887
853.00,53.793
854.00,53.776
855.00,53.709
856.00,53.744
857.00,53.727
858.00,53.643
859.00,53.670
860.00,53.676
861.00,53.685
862.00,53.609
863.00,53.663
864.00,53.622
865.00,53.645
866.00,53.626
867.00,53.611
868.00,53.575
869.00,53.589
870.00,53.611
871.00,53.580
872.00,53.544
873.00,53.658
874.00,53.596
875.00,53.547
876.00,53.615
877.00,53.546
878.00,53.585
879.00,53.523
880.00,53.533
881.00,53.506
882.00,53.546
883.00,53.454
884.00,53.434
885.00,53.424
886.00,53.426
887.00,53.400
888.00,53.398
889.00,53.352
890.00,53.372
891.00,53.355
892.00,53.316
893.00,53.320
894.00,53.322
895.00,53.275
896.00,53.273
897.00,53.243
898.00,53.223
899.00,53.242
900.00,53.221
901.00,53.204
902.00,53.232
903.00,53.114
904.00,53.153
905.00,53.169
906.00,53.150
907.00,53.143
908.00,53.071
909.00,53.086
910.00,53.040
911.00,53.037
912.00,53.013
913.00,53.087
914.00,53.012
915.00,52.970
916.00,52.940
917.00,52.906
918.00,52.917
919.00,52.891
920.00,52.857
921.00,52.849
922.00,52.853
923.00,52.823
924.00,52.791
925.00,52.839
926.00,52.795
927.00,52.717
928.00,52.827
929.00,52.747
930.00,52.702
931.00,52.717
932.00,52.624
933.00,52.664
934.00,52.651
935.00,52.599
936.00,52.619
937.00,52.606
938.00,52.581
939.00,52.576
940.00,52.553
941.00,52.548
942.00,52.533
943.00,52.511
944.00,52.477
945.00,52.475
946.00,52.463
947.00,52.419
948.00,52.406
949.00,52.393
950.00,52.402
951.00,52.356
952.00,52.329
953.00,52.306
954.00,52.285
955.00,52.234
956.00,52.242
957.00,52.196
958.00,52.214
959.00,52.148
960.00,52.136
961.00,52.141
962.00,52.135
963.00,52.088
964.00,52.093
965.00,52.114
966.00,52.078
967.00,52.074
968.00,52.060
969.00,52.090
970.00,52.035
971.00,52.048
972.00,52.013
973.00,52.069
974.00,52.166
975.00,52.031
976.00,52.065
977.00,52.034
978.00,52.085
979.00,52.036
980.00,52.066
981.00,52.067
982.00,52.013
983.00,52.063
984.00,52.015
985.00,52.046
986.00,52.018
987.00,52.018
988.00,51.988
989.00,51.970
990.00,51.953
991.00,51.941
992.00,51.961
993.00,51.922
994.00,51.923
995.00,51.922
996.00,51.919
997.00,51.919
998.00,51.881
999.00,51.898
1000.00,51.855
1001.00,51.853
1002.00,51.853
1003.00,51.820
1004.00,51.789
1005.00,51.755
1006.00,51.806
1007.00,51.766
1008.00,51.751
1009.00,51.730
1010.00,51.732
1011.00,51.728
1012.00,51.689
1013.00,51.705
1014.00,51.655
1015.00,51.670
1016.00,51.629
1017.00,51.621
1018.00,51.609
1019.00,51.567
1020.00,51.585
1021.00,51.546
1022.00,51.556
1023.00,51.498
1024.00,51.531
1025.00,51.503
1026.00,51.479
1027.00,51.475
1028.00,51.448
1029.00,51.450
1030.00,51.432
1031.00,51.429
1032.00,51.385
1033.00,51.391
1034.00,51.358
1035.00,51.321
1036.00,51.297
1037.00,51.279
1038.00,51.284
1039.00,51.252
1040.00,51.261
1041.00,51.225
1042.00,51.216
1043.00,51.189
1044.00,51.205
1045.00,51.172
1046.00,51.199
1047.00,51.210
1048.00,51.204
1049.00,51.235
1050.00,51.216
1051.00,51.259
1052.00,51.247
1053.00,51.240
1054.00,51.259
1055.00,51.280
1056.00,51.281
1057.00,51.293
1058.00,51.257
1059.00,51.254
1060.00,51.284
1061.00,51.243
1062.00,51.237
1063.00,51.261
1064.00,51.255
1065.00,51.236
1066.00,51.231
1067.00,51.219
1068.00,51.259
1069.00,51.196
1070.00,51.179
1071.00,51.180
1072.00,51.176
1073.00,51.158
1074.00,51.160
1075.00,51.131
1076.00,51.136
1077.00,51.117
1078.00,51.088
1079.00,51.114
1080.00,51.109
1081.00,51.083
1082.00,51.085
1083.00,51.076
1084.00,51.063
1085.00,51.071
1086.00,51.049
1087.00,51.050
1088.00,51.025
1089.00,51.012
1090.00,51.022
1091.00,51.027
1092.00,51.008
1093.00,51.015
1094.00,50.990
1095.00,50.995
1096.00,50.971
1097.00,50.967
1098.00,50.949
1099.00,50.946
1100.00,50.920
1101.00,50.943
1102.00,50.910
1103.00,50.909
1104.00,50.913
1105.00,50.897
1106.00,50.880
1107.00,50.883
1108.00,50.867
1109.00,50.858
1110.00,50.836
1111.00,50.837
1112.00,50.830
1113.00,50.825
1114.00,50.797
1115.00,50.826
1116.00,50.796
1117.00,50.786
1118.00,50.777
1119.00,50.766
1120.00,50.751
1121.00,50.753
1122.00,50.714
1123.00,50.728
1124.00,50.719
1125.00,50.719
1126.00,50.729
1127.00,50.722
1128.00,50.688
1129.00,50.674
1130.00,50.661
1131.00,50.677
1132.00,50.653
1133.00,50.651
1134.00,50.641
1135.00,50.622
1136.00,50.611
1137.00,50.634
1138.00,50.627
1139.00,50.641
1140.00,50.639
1141.00,50.650
1142.00,50.610
1143.00,50.627
1144.00,50.595
1145.00,50.606
1146.00,50.581
1147.00,50.571
1148.00,50.575
1149.00,50.587
1150.00,50.588
1151.00,50.601
1152.00,50.580
1153.00,50.580
1154.00,50.576
1155.00,50.574
1156.00,50.575
1157.00,50.603
1158.00,50.556
1159.00,50.565
1160.00,50.556
1161.00,50.562
1162.00,50.556
1163.00,50.528
1164.00,50.543
1165.00,50.546
1166.00,50.537
1167.00,50.562
1168.00,50.592
1169.00,50.558
1170.00,50.552
1171.00,50.524
1172.00,50.534
1173.00,50.521
1174.00,50.527
1175.00,50.527
1176.00,50.514
1177.00,50.501
1178.00,50.506
1179.00,50.513
1180.00,50.492
1181.00,50.522
1182.00,50.505
1183.00,50.506
1184.00,50.508
1185.00,50.501
1186.00,50.478
1187.00,50.479
1188.00,50.478
1189.00,50.483
1190.00,50.465
1191.00,50.467
1192.00,50.504
1193.00,50.465
1194.00,50.474
1195.00,50.444
1196.00,50.477
1197.00,50.480
1198.00,50.459
1199.00,50.457
1200.00,50.466
1201.00,50.481
1202.00,50.446
1203.00,50.465
1204.00,50.447
1205.00,50.479
1206.00,50.463
1207.00,50.442
1208.00,50.441
1209.00,50.447
1210.00,50.451
1211.00,50.456
1212.00,50.472
1213.00,50.422
1214.00,50.454
1215.00,50.423
1216.00,50.425
1217.00,50.443
1218.00,50.420
1219.00,50.445
1220.00,50.425
1221.00,50.431
1222.00,50.441
1223.00,50.450
1224.00,50.447
1225.00,50.443
1226.00,50.452
1227.00,50.444
1228.00,50.466
1229.00,50.456
1230.00,50.483
1231.00,50.467
1232.00,50.478
1233.00,50.496
1234.00,50.476
1235.00,50.480
1236.00,50.503
1237.00,50.502
1238.00,50.493
1239.00,50.518
1240.00,50.482
1241.00,50.507
1242.00,50.507
1243.00,50.508
1244.00,50.490
1245.00,50.516
1246.00,50.516
1247.00,50.510
1248.00,50.511
1249.00,50.531
1250.00,50.544
1251.00,50.516
1252.00,50.523
1253.00,50.500
1254.00,50.527
1255.00,50.529
1256.00,50.495
1257.00,50.511
1258.00,50.543
1259.00,50.515
1260.00,50.532
1261.00,50.538
1262.00,50.517
1263.00,50.541
1264.00,50.534
1265.00,50.539
1266.00,50.549
1267.00,50.561
1268.00,50.570
1269.00,50.572
1270.00,50.601
1271.00,50.569
1272.00,50.594
1273.00,50.617
1274.00,50.574
1275.00,50.586
1276.00,50.578
1277.00,50.595
1278.00,50.596
1279.00,50.584
1280.00,50.596
1281.00,50.612
1282.00,50.627
1283.00,50.626
1284.00,50.618
1285.00,50.609
1286.00,50.625
1287.00,50.612
1288.00,50.623
1289.00,50.601
1290.00,50.621
1291.00,50.625
1292.00,50.620
1293.00,50.643
1294.00,50.675
1295.00,50.675
1296.00,50.680
1297.00,50.689
1298.00,50.709
1299.00,50.685
1300.00,50.702
1301.00,50.684
1302.00,50.722
1303.00,50.720
1304.00,50.704
1305.00,50.725
1306.00,50.724
1307.00,50.734
1308.00,50.734
1309.00,50.749
1310.00,50.760
1311.00,50.735
1312.00,50.720
1313.00,50.756
1314.00,50.769
1315.00,50.776
1316.00,50.783
1317.00,50.831
1318.00,50.817
1319.00,50.814
1320.00,50.815
1321.00,50.961
1322.00,50.947
1323.00,50.942
1324.00,50.952
1325.00,50.937
1326.00,50.931
1327.00,50.928
1328.00,50.916
1329.00,50.927
1330.00,50.923
1331.00,50.945
1332.00,50.956
1333.00,50.934
1334.00,50.969
1335.00,50.991
1336.00,51.013
1337.00,51.037
1338.00,51.110
1339.00,51.142
1340.00,51.199
1341.00,51.261
1342.00,51.322
1343.00,51.373
1344.00,51.413
1345.00,51.484
1346.00,51.517
1347.00,51.533
1348.00,51.567
1349.00,51.578
1350.00,51.589
1351.00,51.591
1352.00,51.613
1353.00,51.620
1354.00,51.617
1355.00,51.553
1356.00,51.620
1357.00,51.634
1358.00,51.662
1359.00,51.626
1360.00,51.732
1361.00,51.558
1362.00,51.541
1363.00,51.720
1364.00,51.654
1365.00,51.624
1366.00,51.683
1367.00,51.652
1368.00,51.612
1369.00,51.671
1370.00,51.670
1371.00,51.578
1372.00,51.609
1373.00,51.642
1374.00,51.649
1375.00,51.630
1376.00,51.629
1377.00,51.589
1378.00,51.719
1379.00,51.646
1380.00,51.640
1381.00,51.665
1382.00,51.599
1383.00,51.646
1384.00,51.586
1385.00,51.596
1386.00,51.650
1387.00,51.615
1388.00,51.578
1389.00,51.608
1390.00,51.653
1391.00,51.532
1392.00,51.589
1393.00,51.618
1394.00,51.605
1395.00,51.590
1396.00,51.534
1397.00,51.567
1398.00,51.606
1399.00,51.571
1400.00,51.499
1401.00,51.607
1402.00,51.507
1403.00,51.589
1404.00,51.579
1405.00,51.670
1406.00,51.644
1407.00,51.662
1408.00,51.655
1409.00,51.659
1410.00,51.697
1411.00,51.691
1412.00,51.793
1413.00,51.659
1414.00,51.662
1415.00,51.732
1416.00,51.749
1417.00,51.777
1418.00,51.702
1419.00,51.715
1420.00,51.762
1421.00,51.795
1422.00,51.776
1423.00,51.828
1424.00,51.796
1425.00,51.835
1426.00,51.852
1427.00,51.859
1428.00,51.847
1429.00,51.867
1430.00,51.860
1431.00,51.888
1432.00,51.903
1433.00,51.927
1434.00,51.936
1435.00,51.992
1436.00,51.978
1437.00,51.970
1438.00,51.979
1439.00,52.011
1440.00,52.032
1441.00,52.019
1442.00,52.042
1443.00,52.073
1444.00,52.155
1445.00,52.059
1446.00,52.077
1447.00,52.156
1448.00,52.184
1449.00,52.157
1450.00,52.154
1451.00,52.175
1452.00,52.207
1453.00,52.212
1454.00,52.218
1455.00,52.226
1456.00,52.258
1457.00,52.259
1458.00,52.293
1459.00,52.315
1460.00,52.317
1461.00,52.354
1462.00,52.354
1463.00,52.361
1464.00,52.422
1465.00,52.398
1466.00,52.390
1467.00,52.434
1468.00,52.475
1469.00,52.431
1470.00,52.466
1471.00,52.467
1472.00,52.480
1473.00,52.492
1474.00,52.525
1475.00,52.540
1476.00,52.547
1477.00,52.524
1478.00,52.565
1479.00,52.582
1480.00,52.568
1481.00,52.581
1482.00,52.594
1483.00,52.624
1484.00,52.653
1485.00,52.634
1486.00,52.660
1487.00,52.679
1488.00,52.707
1489.00,52.697
1490.00,52.704
1491.00,52.723
1492.00,52.750
1493.00,52.712
1494.00,52.768
1495.00,52.742
1496.00,52.769
1497.00,52.751
1498.00,52.758
1499.00,52.774
1500.00,52.802
1501.00, 
1502.00, 
1503.00, 
1504.00, 
1505.00, 
1506.00, 
1507.00, 
1508.00, 
1509.00, 
1510.00, 
1511.00, 
1512.00, 
1513.00, 
1514.00, 
1515.00, 
1516.00, 
1517.00, 
1518.00, 
1519.00, 
1520.00, 
1521.00, 
1522.00, 
1523.00, 
1524.00, 
1525.00, 
1526.00, 
1527.00, 
1528.00, 
1529.00, 
1530.00, 
1531.00, 
1532.00, 
1533.00, 
1534.00, 
1535.00, 
1536.00, 
1537.00, 
1538.00, 
1539.00, 
1540.00, 
1541.00, 
1542.00, 
1543.00, 
1544.00, 
1545.00, 
1546.00, 
1547.00, 
1548.00, 
1549.00, 
1550.00, 
1551.00, 
1552.00, 
1553.00, 
1554.00, 
1555.00, 
1556.00, 
1557.00, 
1558.00, 
1559.00, 
1560.00, 
1561.00, 
1562.00, 
1563.00, 
1564.00, 
1565.00, 
1566.00, 
1567.00, 
1568.00, 
1569.00, 
1570.00, 
1571.00, 
1572.00, 
1573.00, 
1574.00, 
1575.00, 
1576.00, 
1577.00, 
1578.00, 
1579.00, 
1580.00, 
1581.00, 
1582.00, 
1583.00, 
1584.00, 
1585.00, 
1586.00, 
1587.00, 
1588.00, 
1589.00, 
1590.00, 
1591.00, 
1592.00, 
1593.00, 
1594.00, 
1595.00, 
1596.00, 
1597.00, 
1598.00, 
1599.00, 
1600.00, 
1601.00, 
1602.00, 
1603.00, 
1604.00, 
1605.00, 
1606.00, 
1607.00, 
1608.00, 
1609.00, 
1610.00, 
1611.00, 
1612.00, 
1613.00, 
1614.00, 
1615.00, 
1616.00, 
1617.00, 
1618.00, 
1619.00, 
1620.00, 
1621.00, 
1622.00, 
1623.00, 
1624.00, 
1625.00, 
1626.00, 
1627.00, 
1628.00, 
1629.00, 
1630.00, 
1631.00, 
1632.00, 
1633.00, 
1634.00, 
1635.00, 
1636.00, 
1637.00, 
1638.00, 
1639.00, 
1640.00, 
1641.00, 
1642.00, 
1643.00, 
1644.00, 
1645.00, 
1646.00, 
1647.00, 
1648.00, 
1649.00, 
1650.00, 
1651.00, 
1652.00, 
1653.00, 
1654.00, 
1655.00, 
1656.00, 
1657.00, 
1658.00, 
1659.00, 
1660.00, 
1661.00, 
1662.00, 
1663.00, 
1664.00, 
1665.00, 
1666.00, 
1667.00, 
1668.00, 
1669.00, 
1670.00, 
1671.00, 
1672.00, 
1673.00, 
1674.00, 
1675.00, 
1676.00, 
1677.00, 
1678.00, 
1679.00, 
1680.00, 
1681.00, 
1682.00, 
1683.00, 
1684.00, 
1685.00, 
1686.00, 
1687.00, 
1688.00, 
1689.00, 
1690.00, 
1691.00, 
1692.00, 
1693.00, 
1694.00, 
1695.00, 
1696.00, 
1697.00, 
1698.00, 
1699.00, 
1700.00, 
1701.00, 
1702.00, 
1703.00, 
1704.00, 
1705.00, 
1706.00, 
1707.00, 
1708.00, 
1709.00, 
1710.00, 
1711.00, 
1712.00, 
1713.00, 
1714.00, 
1715.00, 
1716.00, 
1717.00, 
1718.00, 
1719.00, 
1720.00, 
1721.00, 
1722.00, 
1723.00, 
1724.00, 
1725.00, 
1726.00, 
1727.00, 
1728.00, 
1729.00, 
1730.00, 
1731.00, 
1732.00, 
1733.00, 
1734.00, 
1735.00, 
1736.00, 
1737.00, 
1738.00, 
1739.00, 
1740.00, 
1741.00, 
1742.00, 
1743.00, 
1744.00, 
1745.00, 
1746.00, 
1747.00, 
1748.00, 
1749.00, 
1750.00, 
1751.00, 
1752.00, 
1753.00, 
1754.00, 
1755.00, 
1756.00, 
1757.00, 
1758.00, 
1759.00, 
1760.00, 
1761.00, 
1762.00, 
1763.00, 
1764.00, 
1765.00, 
1766.00, 
1767.00, 
1768.00, 
1769.00, 
1770.00, 
1771.00, 
1772.00, 
1773.00, 
1774.00, 
1775.00, 
1776.00, 
1777.00, 
1778.00, 
1779.00, 
1780.00, 
1781.00, 
1782.00, 
1783.00, 
1784.00, 
1785.00, 
1786.00, 
1787.00, 
1788.00, 
1789.00, 
1790.00, 
1791.00, 
1792.00, 
1793.00, 
1794.00, 
1795.00, 
1796.00, 
1797.00, 
1798.00, 
1799.00, 
1800.00, 
1801.00, 
1802.00, 
1803.00, 
1804.00, 
1805.00, 
1806.00, 
1807.00, 
1808.00, 
1809.00, 
1810.00, 
1811.00, 
1812.00, 
1813.00, 
1814.00, 
1815.00, 
1816.00, 
1817.00, 
1818.00, 
1819.00, 
1820.00, 
1821.00, 
1822.00, 
1823.00, 
1824.00, 
1825.00, 
1826.00, 
1827.00, 
1828.00, 
1829.00, 
1830.00, 
1831.00, 
1832.00, 
1833.00, 
1834.00, 
1835.00, 
1836.00, 
1837.00, 
1838.00, 
1839.00, 
1840.00, 
1841.00, 
1842.00, 
1843.00, 
1844.00, 
1845.00, 
1846.00, 
1847.00, 
1848.00, 
1849.00, 
1850.00, 
1851.00, 
1852.00, 
1853.00, 
1854.00, 
1855.00, 
1856.00, 
1857.00, 
1858.00, 
1859.00, 
1860.00, 
1861.00, 
1862.00, 
1863.00, 
1864.00, 
1865.00, 
1866.00, 
1867.00, 
1868.00, 
1869.00, 
1870.00, 
1871.00, 
1872.00, 
1873.00, 
1874.00, 
1875.00, 
1876.00, 
1877.00, 
1878.00, 
1879.00, 
1880.00, 
1881.00, 
1882.00, 
1883.00, 
1884.00, 
1885.00, 
1886.00, 
1887.00, 
1888.00, 
1889.00, 
1890.00, 
1891.00, 
1892.00, 
1893.00, 
1894.00, 
1895.00, 
1896.00, 
1897.00, 
1898.00, 
1899.00, 
1900.00, 
1901.00, 
1902.00, 
1903.00, 
1904.00, 
1905.00, 
1906.00, 
1907.00, 
1908.00, 
1909.00, 
1910.00, 
1911.00, 
1912.00, 
1913.00, 
1914.00, 
1915.00, 
1916.00, 
1917.00, 
1918.00, 
1919.00, 
1920.00, 
1921.00, 
1922.00, 
1923.00, 
1924.00, 
1925.00, 
1926.00, 
1927.00, 
1928.00, 
1929.00, 
1930.00, 
1931.00, 
1932.00, 
1933.00, 
1934.00, 
1935.00, 
1936.00, 
1937.00, 
1938.00, 
1939.00, 
1940.00, 
1941.00, 
1942.00, 
1943.00, 
1944.00, 
1945.00, 
1946.00, 
1947.00, 
1948.00, 
1949.00, 
1950.00, 
1951.00, 
1952.00, 
1953.00, 
1954.00, 
1955.00, 
1956.00, 
1957.00, 
1958.00, 
1959.00, 
1960.00, 
1961.00, 
1962.00, 
1963.00, 
1964.00, 
1965.00, 
1966.00, 
1967.00, 
1968.00, 
1969.00, 
1970.00, 
1971.00, 
1972.00, 
1973.00, 
1974.00, 
1975.00, 
1976.00, 
1977.00, 
1978.00, 
1979.00, 
1980.00, 
1981.00, 
1982.00, 
1983.00, 
1984.00, 
1985.00, 
1986.00, 
1987.00, 
1988.00, 
1989.00, 
1990.00, 
1991.00, 
1992.00, 
1993.00, 
1994.00, 
1995.00, 
1996.00, 
1997.00, 
1998.00, 
1999.00, 
2000.00, 
2001.00, 
2002.00, 
2003.00, 
2004.00, 
2005.00, 
2006.00, 
2007.00, 
2008.00, 
2009.00, 
2010.00, 
2011.00, 
2012.00, 
2013.00, 
2014.00, 
2015.00, 
2016.00, 
2017.00, 
2018.00, 
2019.00, 
2020.00, 
2021.00, 
2022.00, 
2023.00, 
2024.00, 
2025.00, 
2026.00, 
2027.00, 
2028.00, 
2029.00, 
2030.00, 
2031.00, 
2032.00, 
2033.00, 
2034.00, 
2035.00, 
2036.00, 
2037.00, 
2038.00, 
2039.00, 
2040.00, 
2041.00, 
2042.00, 
2043.00, 
2044.00, 
2045.00, 
2046.00, 
2047.00, 
2048.00, 
2049.00, 
2050.00, 
2051.00, 
2052.00, 
2053.00, 
2054.00, 
2055.00, 
2056.00, 
2057.00, 
2058.00, 
2059.00, 
2060.00, 
2061.00, 
2062.00, 
2063.00, 
2064.00, 
2065.00, 
2066.00, 
2067.00, 
2068.00, 
2069.00, 
2070.00, 
2071.00, 
2072.00, 
2073.00, 
2074.00, 
2075.00, 
2076.00, 
2077.00, 
2078.00, 
2079.00, 
2080.00, 
2081.00, 
2082.00, 
2083.00, 
2084.00, 
2085.00, 
2086.00, 
2087.00, 
2088.00, 
2089.00, 
2090.00, 
2091.00, 
2092.00, 
2093.00, 
2094.00, 
2095.00, 
2096.00, 
2097.00, 
2098.00, 
2099.00, 
2100.00, 
2101.00, 
2102.00, 
2103.00, 
2104.00, 
2105.00, 
2106.00, 
2107.00, 
2108.00, 
2109.00, 
2110.00, 
2111.00, 
2112.00, 
2113.00, 
2114.00, 
2115.00, 
2116.00, 
2117.00, 
2118.00, 
2119.00, 
2120.00, 
2121.00, 
2122.00, 
2123.00, 
2124.00, 
2125.00, 
2126.00, 
2127.00, 
2128.00, 
2129.00, 
2130.00, 
2131.00, 
2132.00, 
2133.00, 
2134.00, 
2135.00, 
2136.00, 
2137.00, 
2138.00, 
2139.00, 
2140.00, 
2141.00, 
2142.00, 
2143.00, 
2144.00, 
2145.00, 
2146.00, 
2147.00, 
2148.00, 
2149.00, 
2150.00, 
2151.00, 
2152.00, 
2153.00, 
2154.00, 
2155.00, 
2156.00, 
2157.00, 
2158.00, 
2159.00, 
2160.00, 
2161.00, 
2162.00, 
2163.00, 
2164.00, 
2165.00, 
2166.00, 
2167.00, 
2168.00, 
2169.00, 
2170.00, 
2171.00, 
2172.00, 
2173.00, 
2174.00, 
2175.00, 
2176.00, 
2177.00, 
2178.00, 
2179.00, 
2180.00, 
2181.00, 
2182.00, 
2183.00, 
2184.00, 
2185.00, 
2186.00, 
2187.00, 
2188.00, 
2189.00, 
2190.00, 
2191.00, 
2192.00, 
2193.00, 
2194.00, 
2195.00, 
2196.00, 
2197.00, 
2198.00, 
2199.00, 
2200.00, 
2201.00, 
2202.00, 
2203.00, 
2204.00, 
2205.00, 
2206.00, 
2207.00, 
2208.00, 
2209.00, 
2210.00, 
2211.00, 
2212.00, 
2213.00, 
2214.00, 
2215.00, 
2216.00, 
2217.00, 
2218.00, 
2219.00, 
2220.00, 
2221.00, 
2222.00, 
2223.00, 
2224.00, 
2225.00, 
2226.00, 
2227.00, 
2228.00, 
2229.00, 
2230.00, 
2231.00, 
2232.00, 
2233.00, 
2234.00, 
2235.00, 
2236.00, 
2237.00, 
2238.00, 
2239.00, 
2240.00, 
2241.00, 
2242.00, 
2243.00, 
2244.00, 
2245.00, 
2246.00, 
2247.00, 
2248.00, 
2249.00, 
2250.00, 
2251.00, 
2252.00, 
2253.00, 
2254.00, 
2255.00, 
2256.00, 
2257.00, 
2258.00, 
2259.00, 
2260.00, 
2261.00, 
2262.00, 
2263.00, 
2264.00, 
2265.00, 
2266.00, 
2267.00, 
2268.00, 
2269.00, 
2270.00, 
2271.00, 
2272.00, 
2273.00, 
2274.00, 
2275.00, 
2276.00, 
2277.00, 
2278.00, 
2279.00, 
2280.00, 
2281.00, 
2282.00, 
2283.00, 
2284.00, 
2285.00, 
2286.00, 
2287.00, 
2288.00, 
2289.00, 
2290.00, 
2291.00, 
2292.00, 
2293.00, 
2294.00, 
2295.00, 
2296.00, 
2297.00, 
2298.00, 
2299.00, 
2300.00, 
2301.00, 
2302.00, 
2303.00, 
2304.00, 
2305.00, 
2306.00, 
2307.00, 
2308.00, 
2309.00, 
2310.00, 
2311.00, 
2312.00, 
2313.00, 
2314.00, 
2315.00, 
2316.00, 
2317.00, 
2318.00, 
2319.00, 
2320.00, 
2321.00, 
2322.00, 
2323.00, 
2324.00, 
2325.00, 
2326.00, 
2327.00, 
2328.00, 
2329.00, 
2330.00, 
2331.00, 
2332.00, 
2333.00, 
2334.00, 
2335.00, 
2336.00, 
2337.00, 
2338.00, 
2339.00, 
2340.00, 
2341.00, 
2342.00, 
2343.00, 
2344.00, 
2345.00, 
2346.00, 
2347.00, 
2348.00, 
2349.00, 
2350.00, 
2351.00, 
2352.00, 
2353.00, 
2354.00, 
2355.00, 
2356.00, 
2357.00, 
2358.00, 
2359.00, 
2360.00, 
2361.00, 
2362.00, 
2363.00, 
2364.00, 
2365.00, 
2366.00, 
2367.00, 
2368.00, 
2369.00, 
2370.00, 
2371.00, 
2372.00, 
2373.00, 
2374.00, 
2375.00, 
2376.00, 
2377.00, 
2378.00, 
2379.00, 
2380.00, 
2381.00, 
2382.00, 
2383.00, 
2384.00, 
2385.00, 
2386.00, 
2387.00, 
2388.00, 
2389.00, 
2390.00, 
2391.00, 
2392.00, 
2393.00, 
2394.00, 
2395.00, 
2396.00, 
2397.00, 
2398.00, 
2399.00, 
2400.00, 
2401.00, 
2402.00, 
2403.00, 
2404.00, 
2405.00, 
2406.00, 
2407.00, 
2408.00, 
2409.00, 
2410.00, 
2411.00, 
2412.00, 
2413.00, 
2414.00, 
2415.00, 
2416.00, 
2417.00, 
2418.00, 
2419.00, 
2420.00, 
2421.00, 
2422.00, 
2423.00, 
2424.00, 
2425.00, 
2426.00, 
2427.00, 
2428.00, 
2429.00, 
2430.00, 
2431.00, 
2432.00, 
2433.00, 
2434.00, 
2435.00, 
2436.00, 
2437.00, 
2438.00, 
2439.00, 
2440.00, 
2441.00, 
2442.00, 
2443.00, 
2444.00, 
2445.00, 
2446.00, 
2447.00, 
2448.00, 
2449.00, 
2450.00, 
2451.00, 
2452.00, 
2453.00, 
2454.00, 
2455.00, 
2456.00, 
2457.00, 
2458.00, 
2459.00, 
2460.00, 
2461.00, 
2462.00, 
2463.00, 
2464.00, 
2465.00, 
2466.00, 
2467.00, 
2468.00, 
2469.00, 
2470.00, 
2471.00, 
2472.00, 
2473.00, 
2474.00, 
2475.00, 
2476.00, 
2477.00, 
2478.00, 
2479.00, 
2480.00, 
2481.00, 
2482.00, 
2483.00, 
2484.00, 
2485.00, 
2486.00, 
2487.00, 
2488.00, 
2489.00, 
2490.00, 
2491.00, 
2492.00, 
2493.00, 
2494.00, 
2495.00, 
2496.00, 
2497.00, 
2498.00, 
2499.00, 
2500.00, 
2501.00, 
2502.00, 
2503.00, 
2504.00, 
2505.00, 
2506.00, 
2507.00, 
2508.00, 
2509.00, 
2510.00, 
2511.00, 
2512.00, 
2513.00, 
2514.00, 
2515.00, 
2516.00, 
2517.00, 
2518.00, 
2519.00, 
2520.00, 
2521.00, 
2522.00, 
2523.00, 
2524.00, 
2525.00, 
2526.00, 
2527.00, 
2528.00, 
2529.00, 
2530.00, 
2531.00, 
2532.00, 
2533.00, 
2534.00, 
2535.00, 
2536.00, 
2537.00, 
2538.00, 
2539.00, 
2540.00, 
2541.00, 
2542.00, 
2543.00, 
2544.00, 
2545.00, 
2546.00, 
2547.00, 
2548.00, 
2549.00, 
2550.00, 
2551.00, 
2552.00, 
2553.00, 
2554.00, 
2555.00, 
2556.00, 
2557.00, 
2558.00, 
2559.00, 
2560.00, 
2561.00, 
2562.00, 
2563.00, 
2564.00, 
2565.00, 
2566.00, 
2567.00, 
2568.00, 
2569.00, 
2570.00, 
2571.00, 
2572.00, 
2573.00, 
2574.00, 
2575.00, 
2576.00, 
2577.00, 
2578.00, 
2579.00, 
2580.00, 
2581.00, 
2582.00, 
2583.00, 
2584.00, 
2585.00, 
2586.00, 
2587.00, 
2588.00, 
2589.00, 
2590.00, 
2591.00, 
2592.00, 
2593.00, 
2594.00, 
2595.00, 
2596.00, 
2597.00, 
2598.00, 
2599.00, 
2600.00, 
