"2bP2 - RawData"
"Wavelength nm.","T%"
200.00,-0.000
201.00,0.000
202.00,0.002
203.00,0.003
204.00,0.006
205.00,0.002
206.00,-0.003
207.00,0.006
208.00,-0.002
209.00,0.003
210.00,0.006
211.00,-0.000
212.00,-0.001
213.00,0.003
214.00,0.003
215.00,-0.001
216.00,-0.000
217.00,-0.001
218.00,-0.001
219.00,0.002
220.00,0.004
221.00,-0.000
222.00,0.001
223.00,0.001
224.00,0.001
225.00,-0.002
226.00,-0.002
227.00,0.002
228.00,0.000
229.00,0.002
230.00,0.000
231.00,0.001
232.00,0.001
233.00,0.003
234.00,0.001
235.00,0.002
236.00,0.001
237.00,-0.000
238.00,0.000
239.00,0.001
240.00,0.001
241.00,0.001
242.00,0.002
243.00,0.001
244.00,0.002
245.00,0.000
246.00,0.001
247.00,0.000
248.00,-0.000
249.00,0.001
250.00,0.001
251.00,-0.001
252.00,-0.001
253.00,0.002
254.00,0.000
255.00,-0.000
256.00,0.001
257.00,0.001
258.00,0.000
259.00,0.000
260.00,-0.002
261.00,-0.000
262.00,-0.001
263.00,0.000
264.00,-0.000
265.00,-0.000
266.00,-0.000
267.00,0.003
268.00,0.000
269.00,-0.001
270.00,-0.000
271.00,0.000
272.00,-0.001
273.00,-0.000
274.00,-0.001
275.00,0.002
276.00,-0.000
277.00,0.000
278.00,0.001
279.00,0.000
280.00,0.002
281.00,0.000
282.00,-0.001
283.00,-0.000
284.00,-0.001
285.00,0.000
286.00,-0.002
287.00,0.000
288.00,0.001
289.00,-0.001
290.00,0.001
291.00,0.001
292.00,-0.001
293.00,0.000
294.00,0.001
295.00,0.002
296.00,0.000
297.00,-0.001
298.00,0.002
299.00,0.003
300.00,0.003
301.00,0.004
302.00,0.008
303.00,0.007
304.00,0.013
305.00,0.019
306.00,0.030
307.00,0.045
308.00,0.070
309.00,0.106
310.00,0.146
311.00,0.201
312.00,0.274
313.00,0.358
314.00,0.469
315.00,0.609
316.00,0.767
317.00,0.973
318.00,1.192
319.00,1.454
320.00,1.758
321.00,2.089
322.00,2.457
323.00,2.872
324.00,3.324
325.00,3.765
326.00,4.219
327.00,4.769
328.00,5.277
329.00,5.825
330.00,6.398
331.00,6.965
332.00,7.567
333.00,8.151
334.00,8.738
335.00,9.318
336.00,9.913
337.00,10.520
338.00,11.065
339.00,11.582
340.00,12.107
341.00,12.702
342.00,13.187
343.00,13.626
344.00,14.072
345.00,14.556
346.00,14.958
347.00,15.302
348.00,15.683
349.00,16.013
350.00,16.348
351.00,16.638
352.00,16.915
353.00,17.136
354.00,17.394
355.00,17.640
356.00,17.834
357.00,18.041
358.00,18.183
359.00,18.416
360.00,18.566
361.00,18.626
362.00,18.764
363.00,18.891
364.00,18.984
365.00,19.005
366.00,19.132
367.00,19.171
368.00,19.181
369.00,19.234
370.00,19.294
371.00,19.291
372.00,19.247
373.00,19.272
374.00,19.241
375.00,19.272
376.00,19.143
377.00,19.156
378.00,19.066
379.00,18.985
380.00,18.990
381.00,18.914
382.00,18.936
383.00,18.919
384.00,18.896
385.00,18.938
386.00,18.930
387.00,18.953
388.00,18.995
389.00,18.976
390.00,19.012
391.00,19.022
392.00,19.037
393.00,19.010
394.00,19.029
395.00,19.028
396.00,19.001
397.00,18.994
398.00,19.001
399.00,18.971
400.00,18.989
401.00,19.003
402.00,18.971
403.00,18.950
404.00,18.899
405.00,18.886
406.00,18.900
407.00,18.891
408.00,18.890
409.00,18.814
410.00,18.753
411.00,18.749
412.00,18.758
413.00,18.767
414.00,18.699
415.00,18.710
416.00,18.788
417.00,18.778
418.00,18.812
419.00,18.855
420.00,18.927
421.00,18.949
422.00,18.947
423.00,18.994
424.00,19.041
425.00,19.020
426.00,19.073
427.00,19.128
428.00,19.175
429.00,19.223
430.00,19.269
431.00,19.285
432.00,19.353
433.00,19.398
434.00,19.456
435.00,19.516
436.00,19.556
437.00,19.630
438.00,19.710
439.00,19.757
440.00,19.849
441.00,19.923
442.00,20.012
443.00,20.085
444.00,20.181
445.00,20.277
446.00,20.379
447.00,20.450
448.00,20.564
449.00,20.649
450.00,20.736
451.00,20.859
452.00,20.951
453.00,21.048
454.00,21.176
455.00,21.289
456.00,21.388
457.00,21.528
458.00,21.609
459.00,21.735
460.00,21.888
461.00,22.014
462.00,22.133
463.00,22.250
464.00,22.391
465.00,22.520
466.00,22.641
467.00,22.782
468.00,22.876
469.00,22.988
470.00,23.116
471.00,23.202
472.00,23.314
473.00,23.454
474.00,23.544
475.00,23.681
476.00,23.806
477.00,23.971
478.00,24.036
479.00,24.176
480.00,24.311
481.00,24.456
482.00,24.672
483.00,24.784
484.00,24.947
485.00,25.087
486.00,25.276
487.00,25.427
488.00,25.575
489.00,25.755
490.00,25.917
491.00,26.023
492.00,26.187
493.00,26.387
494.00,26.589
495.00,26.600
496.00,26.722
497.00,26.856
498.00,27.019
499.00,27.164
500.00,27.322
501.00,27.425
502.00,27.566
503.00,27.714
504.00,27.763
505.00,27.940
506.00,28.078
507.00,28.178
508.00,28.319
509.00,28.508
510.00,28.664
511.00,28.701
512.00,28.862
513.00,29.009
514.00,29.121
515.00,29.268
516.00,29.352
517.00,29.463
518.00,29.643
519.00,29.690
520.00,29.723
521.00,29.878
522.00,29.984
523.00,30.020
524.00,30.143
525.00,30.247
526.00,30.366
527.00,30.432
528.00,30.513
529.00,30.665
530.00,30.865
531.00,30.954
532.00,31.026
533.00,31.136
534.00,31.230
535.00,31.302
536.00,31.421
537.00,31.487
538.00,31.560
539.00,31.660
540.00,31.713
541.00,31.793
542.00,31.820
543.00,31.923
544.00,32.006
545.00,32.086
546.00,32.110
547.00,32.249
548.00,32.342
549.00,32.436
550.00,32.468
551.00,32.600
552.00,32.692
553.00,32.733
554.00,32.824
555.00,32.855
556.00,32.888
557.00,32.973
558.00,33.001
559.00,33.080
560.00,33.176
561.00,33.278
562.00,33.341
563.00,33.331
564.00,33.392
565.00,33.462
566.00,33.398
567.00,33.495
568.00,33.605
569.00,33.738
570.00,33.683
571.00,33.728
572.00,33.774
573.00,33.717
574.00,33.802
575.00,33.861
576.00,33.842
577.00,33.908
578.00,33.995
579.00,34.054
580.00,34.068
581.00,34.247
582.00,34.386
583.00,34.376
584.00,34.444
585.00,34.508
586.00,34.551
587.00,34.599
588.00,34.682
589.00,34.662
590.00,34.735
591.00,34.795
592.00,34.724
593.00,34.824
594.00,34.926
595.00,34.973
596.00,35.115
597.00,35.137
598.00,35.159
599.00,35.160
600.00,35.222
601.00,35.314
602.00,35.371
603.00,35.364
604.00,35.478
605.00,35.516
606.00,35.464
607.00,35.581
608.00,35.738
609.00,35.813
610.00,35.716
611.00,35.759
612.00,35.813
613.00,35.854
614.00,35.937
615.00,36.040
616.00,36.141
617.00,36.157
618.00,36.128
619.00,36.256
620.00,36.296
621.00,36.312
622.00,36.444
623.00,36.501
624.00,36.575
625.00,36.651
626.00,36.654
627.00,36.749
628.00,36.778
629.00,36.855
630.00,36.907
631.00,36.992
632.00,37.063
633.00,37.166
634.00,37.299
635.00,37.310
636.00,37.314
637.00,37.417
638.00,37.632
639.00,37.851
640.00,37.748
641.00,37.808
642.00,37.872
643.00,37.966
644.00,38.063
645.00,38.059
646.00,38.190
647.00,38.379
648.00,38.415
649.00,38.325
650.00,38.431
651.00,38.844
652.00,38.967
653.00,38.825
654.00,38.962
655.00,39.121
656.00,39.478
657.00,39.254
658.00,39.311
659.00,39.525
660.00,39.715
661.00,39.836
662.00,39.788
663.00,39.884
664.00,40.164
665.00,40.385
666.00,40.356
667.00,40.311
668.00,40.369
669.00,40.668
670.00,40.818
671.00,40.909
672.00,41.242
673.00,41.010
674.00,41.201
675.00,41.210
676.00,41.423
677.00,41.612
678.00,41.385
679.00,41.688
680.00,41.764
681.00,41.855
682.00,41.753
683.00,42.132
684.00,42.460
685.00,42.326
686.00,42.273
687.00,42.451
688.00,42.527
689.00,42.564
690.00,42.931
691.00,43.145
692.00,43.031
693.00,42.990
694.00,43.193
695.00,43.326
696.00,43.450
697.00,43.529
698.00,43.617
699.00,44.008
700.00,44.037
701.00,44.015
702.00,44.139
703.00,44.324
704.00,44.413
705.00,44.423
706.00,44.570
707.00,44.572
708.00,44.471
709.00,44.926
710.00,45.281
711.00,44.870
712.00,44.891
713.00,45.130
714.00,45.291
715.00,45.203
716.00,45.322
717.00,45.523
718.00,45.584
719.00,45.539
720.00,45.719
721.00,50.005
722.00,50.061
723.00,50.048
724.00,50.199
725.00,50.224
726.00,50.288
727.00,50.292
728.00,50.317
729.00,50.412
730.00,50.439
731.00,50.530
732.00,50.587
733.00,50.613
734.00,50.630
735.00,50.684
736.00,50.724
737.00,50.751
738.00,50.822
739.00,50.863
740.00,50.935
741.00,51.070
742.00,51.170
743.00,51.044
744.00,51.043
745.00,51.147
746.00,51.180
747.00,51.182
748.00,51.135
749.00,51.144
750.00,51.208
751.00,51.247
752.00,51.276
753.00,51.330
754.00,51.245
755.00,51.334
756.00,51.397
757.00,51.318
758.00,51.460
759.00,51.528
760.00,51.513
761.00,51.500
762.00,51.502
763.00,51.600
764.00,51.659
765.00,51.579
766.00,51.641
767.00,51.686
768.00,51.699
769.00,51.708
770.00,51.872
771.00,51.791
772.00,51.820
773.00,51.934
774.00,51.889
775.00,51.935
776.00,51.904
777.00,51.959
778.00,51.919
779.00,51.896
780.00,51.900
781.00,52.057
782.00,52.015
783.00,51.934
784.00,51.953
785.00,51.936
786.00,52.037
787.00,52.018
788.00,52.028
789.00,52.003
790.00,52.006
791.00,52.044
792.00,51.981
793.00,51.961
794.00,52.078
795.00,52.014
796.00,52.017
797.00,51.949
798.00,52.036
799.00,51.950
800.00,51.976
801.00,51.937
802.00,51.969
803.00,51.944
804.00,51.973
805.00,51.912
806.00,51.992
807.00,51.953
808.00,51.971
809.00,51.975
810.00,51.873
811.00,51.913
812.00,52.022
813.00,51.957
814.00,51.924
815.00,51.930
816.00,51.944
817.00,51.879
818.00,51.839
819.00,51.900
820.00,51.859
821.00,51.941
822.00,51.839
823.00,51.728
824.00,51.831
825.00,51.808
826.00,51.818
827.00,51.901
828.00,51.887
829.00,51.801
830.00,51.811
831.00,54.199
832.00,54.237
833.00,54.176
834.00,54.196
835.00,54.208
836.00,54.199
837.00,54.138
838.00,54.151
839.00,54.165
840.00,54.086
841.00,54.126
842.00,54.120
843.00,54.060
844.00,54.090
845.00,54.021
846.00,54.043
847.00,54.036
848.00,54.043
849.00,53.961
850.00,53.950
851.00,53.893
852.00,53.940
853.00,53.877
854.00,53.873
855.00,53.804
856.00,53.846
857.00,53.829
858.00,53.730
859.00,53.754
860.00,53.767
861.00,53.769
862.00,53.666
863.00,53.761
864.00,53.699
865.00,53.735
866.00,53.686
867.00,53.671
868.00,53.656
869.00,53.647
870.00,53.677
871.00,53.625
872.00,53.649
873.00,53.598
874.00,53.650
875.00,53.613
876.00,53.657
877.00,53.568
878.00,53.624
879.00,53.570
880.00,53.573
881.00,53.576
882.00,53.596
883.00,53.464
884.00,53.464
885.00,53.464
886.00,53.481
887.00,53.479
888.00,53.468
889.00,53.427
890.00,53.458
891.00,53.425
892.00,53.394
893.00,53.320
894.00,53.464
895.00,53.343
896.00,53.322
897.00,53.285
898.00,53.283
899.00,53.291
900.00,53.258
901.00,53.250
902.00,53.263
903.00,53.170
904.00,53.190
905.00,53.191
906.00,53.186
907.00,53.174
908.00,53.104
909.00,53.122
910.00,53.076
911.00,53.085
912.00,53.089
913.00,53.024
914.00,53.040
915.00,52.993
916.00,52.969
917.00,52.955
918.00,52.944
919.00,52.933
920.00,52.897
921.00,52.908
922.00,52.905
923.00,52.877
924.00,52.835
925.00,52.856
926.00,52.844
927.00,52.830
928.00,52.792
929.00,52.846
930.00,52.801
931.00,52.786
932.00,52.714
933.00,52.770
934.00,52.713
935.00,52.653
936.00,52.684
937.00,52.667
938.00,52.606
939.00,52.620
940.00,52.591
941.00,52.590
942.00,52.558
943.00,52.542
944.00,52.514
945.00,52.519
946.00,52.502
947.00,52.457
948.00,52.448
949.00,52.433
950.00,52.440
951.00,52.404
952.00,52.390
953.00,52.344
954.00,52.320
955.00,52.354
956.00,52.287
957.00,52.241
958.00,52.265
959.00,52.190
960.00,52.178
961.00,52.189
962.00,52.178
963.00,52.143
964.00,52.137
965.00,52.149
966.00,52.126
967.00,52.114
968.00,52.101
969.00,52.139
970.00,52.091
971.00,52.105
972.00,52.066
973.00,52.106
974.00,52.132
975.00,52.055
976.00,52.101
977.00,52.104
978.00,52.147
979.00,52.092
980.00,52.113
981.00,52.128
982.00,52.066
983.00,52.112
984.00,52.064
985.00,52.099
986.00,52.046
987.00,52.081
988.00,52.053
989.00,52.033
990.00,52.021
991.00,52.019
992.00,52.043
993.00,52.009
994.00,51.997
995.00,51.979
996.00,51.968
997.00,51.961
998.00,51.921
999.00,51.949
1000.00,51.933
1001.00,51.886
1002.00,51.883
1003.00,51.861
1004.00,51.843
1005.00,51.816
1006.00,51.853
1007.00,51.823
1008.00,51.809
1009.00,51.794
1010.00,51.799
1011.00,51.795
1012.00,51.756
1013.00,51.764
1014.00,51.714
1015.00,51.739
1016.00,51.701
1017.00,51.692
1018.00,51.698
1019.00,51.640
1020.00,51.654
1021.00,51.639
1022.00,51.646
1023.00,51.571
1024.00,51.596
1025.00,51.585
1026.00,51.556
1027.00,51.537
1028.00,51.537
1029.00,51.521
1030.00,51.489
1031.00,51.490
1032.00,51.457
1033.00,51.449
1034.00,51.417
1035.00,51.393
1036.00,51.382
1037.00,51.351
1038.00,51.348
1039.00,51.311
1040.00,51.313
1041.00,51.279
1042.00,51.266
1043.00,51.259
1044.00,51.268
1045.00,51.242
1046.00,51.255
1047.00,51.255
1048.00,51.261
1049.00,51.278
1050.00,51.265
1051.00,51.337
1052.00,51.321
1053.00,51.315
1054.00,51.319
1055.00,51.325
1056.00,51.326
1057.00,51.343
1058.00,51.331
1059.00,51.330
1060.00,51.360
1061.00,51.344
1062.00,51.316
1063.00,51.332
1064.00,51.325
1065.00,51.297
1066.00,51.296
1067.00,51.273
1068.00,51.319
1069.00,51.256
1070.00,51.245
1071.00,51.243
1072.00,51.256
1073.00,51.245
1074.00,51.242
1075.00,51.211
1076.00,51.228
1077.00,51.212
1078.00,51.177
1079.00,51.196
1080.00,51.188
1081.00,51.168
1082.00,51.167
1083.00,51.156
1084.00,51.156
1085.00,51.161
1086.00,51.132
1087.00,51.150
1088.00,51.119
1089.00,51.097
1090.00,51.090
1091.00,51.096
1092.00,51.078
1093.00,51.080
1094.00,51.059
1095.00,51.069
1096.00,51.040
1097.00,51.048
1098.00,51.031
1099.00,51.021
1100.00,50.983
1101.00,51.000
1102.00,50.960
1103.00,50.961
1104.00,50.957
1105.00,50.927
1106.00,50.937
1107.00,50.963
1108.00,50.923
1109.00,50.935
1110.00,50.922
1111.00,50.916
1112.00,50.901
1113.00,50.890
1114.00,50.863
1115.00,50.888
1116.00,50.875
1117.00,50.875
1118.00,50.850
1119.00,50.843
1120.00,50.854
1121.00,50.863
1122.00,50.837
1123.00,50.834
1124.00,50.815
1125.00,50.817
1126.00,50.811
1127.00,50.806
1128.00,50.793
1129.00,50.773
1130.00,50.752
1131.00,50.772
1132.00,50.752
1133.00,50.733
1134.00,50.743
1135.00,50.721
1136.00,50.724
1137.00,50.744
1138.00,50.727
1139.00,50.749
1140.00,50.725
1141.00,50.726
1142.00,50.714
1143.00,50.715
1144.00,50.680
1145.00,50.674
1146.00,50.665
1147.00,50.662
1148.00,50.661
1149.00,50.673
1150.00,50.686
1151.00,50.682
1152.00,50.660
1153.00,50.674
1154.00,50.661
1155.00,50.663
1156.00,50.653
1157.00,50.663
1158.00,50.648
1159.00,50.644
1160.00,50.637
1161.00,50.647
1162.00,50.643
1163.00,50.626
1164.00,50.641
1165.00,50.643
1166.00,50.622
1167.00,50.639
1168.00,50.663
1169.00,50.623
1170.00,50.629
1171.00,50.596
1172.00,50.614
1173.00,50.604
1174.00,50.607
1175.00,50.610
1176.00,50.600
1177.00,50.577
1178.00,50.587
1179.00,50.595
1180.00,50.578
1181.00,50.598
1182.00,50.582
1183.00,50.591
1184.00,50.589
1185.00,50.596
1186.00,50.584
1187.00,50.574
1188.00,50.568
1189.00,50.579
1190.00,50.568
1191.00,50.556
1192.00,50.582
1193.00,50.567
1194.00,50.587
1195.00,50.550
1196.00,50.579
1197.00,50.589
1198.00,50.573
1199.00,50.565
1200.00,50.560
1201.00,50.564
1202.00,50.532
1203.00,50.555
1204.00,50.534
1205.00,50.554
1206.00,50.545
1207.00,50.536
1208.00,50.543
1209.00,50.546
1210.00,50.550
1211.00,50.558
1212.00,50.575
1213.00,50.532
1214.00,50.566
1215.00,50.532
1216.00,50.542
1217.00,50.553
1218.00,50.518
1219.00,50.556
1220.00,50.527
1221.00,50.541
1222.00,50.546
1223.00,50.568
1224.00,50.561
1225.00,50.545
1226.00,50.550
1227.00,50.544
1228.00,50.561
1229.00,50.546
1230.00,50.583
1231.00,50.562
1232.00,50.574
1233.00,50.598
1234.00,50.579
1235.00,50.582
1236.00,50.588
1237.00,50.585
1238.00,50.582
1239.00,50.601
1240.00,50.553
1241.00,50.568
1242.00,50.580
1243.00,50.564
1244.00,50.565
1245.00,50.598
1246.00,50.578
1247.00,50.565
1248.00,50.554
1249.00,50.580
1250.00,50.595
1251.00,50.577
1252.00,50.606
1253.00,50.593
1254.00,50.631
1255.00,50.617
1256.00,50.600
1257.00,50.609
1258.00,50.641
1259.00,50.613
1260.00,50.641
1261.00,50.642
1262.00,50.622
1263.00,50.639
1264.00,50.634
1265.00,50.640
1266.00,50.656
1267.00,50.668
1268.00,50.681
1269.00,50.688
1270.00,50.683
1271.00,50.695
1272.00,50.687
1273.00,50.686
1274.00,50.680
1275.00,50.686
1276.00,50.679
1277.00,50.700
1278.00,50.705
1279.00,50.697
1280.00,50.706
1281.00,50.710
1282.00,50.731
1283.00,50.725
1284.00,50.730
1285.00,50.717
1286.00,50.734
1287.00,50.725
1288.00,50.720
1289.00,50.706
1290.00,50.734
1291.00,50.731
1292.00,50.723
1293.00,50.736
1294.00,50.765
1295.00,50.756
1296.00,50.778
1297.00,50.790
1298.00,50.799
1299.00,50.779
1300.00,50.787
1301.00,50.775
1302.00,50.808
1303.00,50.810
1304.00,50.806
1305.00,50.818
1306.00,50.821
1307.00,50.840
1308.00,50.835
1309.00,50.847
1310.00,50.868
1311.00,50.843
1312.00,50.827
1313.00,50.849
1314.00,50.850
1315.00,50.867
1316.00,50.853
1317.00,50.885
1318.00,50.874
1319.00,50.872
1320.00,50.887
1321.00,51.064
1322.00,51.049
1323.00,51.039
1324.00,51.027
1325.00,51.005
1326.00,51.017
1327.00,51.005
1328.00,51.003
1329.00,51.015
1330.00,51.018
1331.00,51.006
1332.00,51.036
1333.00,51.013
1334.00,51.051
1335.00,51.060
1336.00,51.075
1337.00,51.102
1338.00,51.147
1339.00,51.192
1340.00,51.259
1341.00,51.333
1342.00,51.381
1343.00,51.455
1344.00,51.491
1345.00,51.566
1346.00,51.591
1347.00,51.604
1348.00,51.649
1349.00,51.667
1350.00,51.671
1351.00,51.696
1352.00,51.717
1353.00,51.710
1354.00,51.728
1355.00,51.649
1356.00,51.726
1357.00,51.725
1358.00,51.731
1359.00,51.729
1360.00,51.817
1361.00,51.767
1362.00,51.706
1363.00,51.823
1364.00,51.735
1365.00,51.744
1366.00,51.796
1367.00,51.754
1368.00,51.718
1369.00,51.727
1370.00,51.751
1371.00,51.689
1372.00,51.699
1373.00,51.721
1374.00,51.730
1375.00,51.700
1376.00,51.724
1377.00,51.699
1378.00,51.785
1379.00,51.756
1380.00,51.748
1381.00,51.749
1382.00,51.664
1383.00,51.703
1384.00,51.639
1385.00,51.638
1386.00,51.701
1387.00,51.688
1388.00,51.623
1389.00,51.638
1390.00,51.731
1391.00,51.627
1392.00,51.665
1393.00,51.666
1394.00,51.684
1395.00,51.645
1396.00,51.609
1397.00,51.705
1398.00,51.746
1399.00,51.644
1400.00,51.598
1401.00,51.668
1402.00,51.737
1403.00,51.662
1404.00,51.679
1405.00,51.712
1406.00,51.725
1407.00,51.737
1408.00,51.684
1409.00,51.708
1410.00,51.762
1411.00,51.750
1412.00,51.824
1413.00,51.734
1414.00,51.715
1415.00,51.774
1416.00,51.792
1417.00,51.834
1418.00,51.773
1419.00,51.785
1420.00,51.846
1421.00,51.843
1422.00,51.849
1423.00,51.862
1424.00,51.862
1425.00,51.885
1426.00,51.891
1427.00,51.899
1428.00,51.907
1429.00,51.921
1430.00,51.923
1431.00,51.954
1432.00,51.965
1433.00,51.971
1434.00,51.971
1435.00,52.032
1436.00,52.031
1437.00,52.013
1438.00,52.026
1439.00,52.068
1440.00,52.078
1441.00,52.062
1442.00,52.098
1443.00,52.124
1444.00,52.203
1445.00,52.109
1446.00,52.128
1447.00,52.200
1448.00,52.218
1449.00,52.208
1450.00,52.220
1451.00,52.245
1452.00,52.235
1453.00,52.278
1454.00,52.285
1455.00,52.290
1456.00,52.326
1457.00,52.311
1458.00,52.350
1459.00,52.353
1460.00,52.346
1461.00,52.374
1462.00,52.391
1463.00,52.392
1464.00,52.429
1465.00,52.435
1466.00,52.437
1467.00,52.467
1468.00,52.504
1469.00,52.472
1470.00,52.495
1471.00,52.501
1472.00,52.517
1473.00,52.518
1474.00,52.533
1475.00,52.579
1476.00,52.580
1477.00,52.578
1478.00,52.619
1479.00,52.630
1480.00,52.632
1481.00,52.619
1482.00,52.635
1483.00,52.660
1484.00,52.673
1485.00,52.673
1486.00,52.706
1487.00,52.709
1488.00,52.733
1489.00,52.722
1490.00,52.740
1491.00,52.753
1492.00,52.770
1493.00,52.738
1494.00,52.805
1495.00,52.775
1496.00,52.797
1497.00,52.807
1498.00,52.807
1499.00,52.824
1500.00,52.849
1501.00, 
1502.00, 
1503.00, 
1504.00, 
1505.00, 
1506.00, 
1507.00, 
1508.00, 
1509.00, 
1510.00, 
1511.00, 
1512.00, 
1513.00, 
1514.00, 
1515.00, 
1516.00, 
1517.00, 
1518.00, 
1519.00, 
1520.00, 
1521.00, 
1522.00, 
1523.00, 
1524.00, 
1525.00, 
1526.00, 
1527.00, 
1528.00, 
1529.00, 
1530.00, 
1531.00, 
1532.00, 
1533.00, 
1534.00, 
1535.00, 
1536.00, 
1537.00, 
1538.00, 
1539.00, 
1540.00, 
1541.00, 
1542.00, 
1543.00, 
1544.00, 
1545.00, 
1546.00, 
1547.00, 
1548.00, 
1549.00, 
1550.00, 
1551.00, 
1552.00, 
1553.00, 
1554.00, 
1555.00, 
1556.00, 
1557.00, 
1558.00, 
1559.00, 
1560.00, 
1561.00, 
1562.00, 
1563.00, 
1564.00, 
1565.00, 
1566.00, 
1567.00, 
1568.00, 
1569.00, 
1570.00, 
1571.00, 
1572.00, 
1573.00, 
1574.00, 
1575.00, 
1576.00, 
1577.00, 
1578.00, 
1579.00, 
1580.00, 
1581.00, 
1582.00, 
1583.00, 
1584.00, 
1585.00, 
1586.00, 
1587.00, 
1588.00, 
1589.00, 
1590.00, 
1591.00, 
1592.00, 
1593.00, 
1594.00, 
1595.00, 
1596.00, 
1597.00, 
1598.00, 
1599.00, 
1600.00, 
1601.00, 
1602.00, 
1603.00, 
1604.00, 
1605.00, 
1606.00, 
1607.00, 
1608.00, 
1609.00, 
1610.00, 
1611.00, 
1612.00, 
1613.00, 
1614.00, 
1615.00, 
1616.00, 
1617.00, 
1618.00, 
1619.00, 
1620.00, 
1621.00, 
1622.00, 
1623.00, 
1624.00, 
1625.00, 
1626.00, 
1627.00, 
1628.00, 
1629.00, 
1630.00, 
1631.00, 
1632.00, 
1633.00, 
1634.00, 
1635.00, 
1636.00, 
1637.00, 
1638.00, 
1639.00, 
1640.00, 
1641.00, 
1642.00, 
1643.00, 
1644.00, 
1645.00, 
1646.00, 
1647.00, 
1648.00, 
1649.00, 
1650.00, 
1651.00, 
1652.00, 
1653.00, 
1654.00, 
1655.00, 
1656.00, 
1657.00, 
1658.00, 
1659.00, 
1660.00, 
1661.00, 
1662.00, 
1663.00, 
1664.00, 
1665.00, 
1666.00, 
1667.00, 
1668.00, 
1669.00, 
1670.00, 
1671.00, 
1672.00, 
1673.00, 
1674.00, 
1675.00, 
1676.00, 
1677.00, 
1678.00, 
1679.00, 
1680.00, 
1681.00, 
1682.00, 
1683.00, 
1684.00, 
1685.00, 
1686.00, 
1687.00, 
1688.00, 
1689.00, 
1690.00, 
1691.00, 
1692.00, 
1693.00, 
1694.00, 
1695.00, 
1696.00, 
1697.00, 
1698.00, 
1699.00, 
1700.00, 
1701.00, 
1702.00, 
1703.00, 
1704.00, 
1705.00, 
1706.00, 
1707.00, 
1708.00, 
1709.00, 
1710.00, 
1711.00, 
1712.00, 
1713.00, 
1714.00, 
1715.00, 
1716.00, 
1717.00, 
1718.00, 
1719.00, 
1720.00, 
1721.00, 
1722.00, 
1723.00, 
1724.00, 
1725.00, 
1726.00, 
1727.00, 
1728.00, 
1729.00, 
1730.00, 
1731.00, 
1732.00, 
1733.00, 
1734.00, 
1735.00, 
1736.00, 
1737.00, 
1738.00, 
1739.00, 
1740.00, 
1741.00, 
1742.00, 
1743.00, 
1744.00, 
1745.00, 
1746.00, 
1747.00, 
1748.00, 
1749.00, 
1750.00, 
1751.00, 
1752.00, 
1753.00, 
1754.00, 
1755.00, 
1756.00, 
1757.00, 
1758.00, 
1759.00, 
1760.00, 
1761.00, 
1762.00, 
1763.00, 
1764.00, 
1765.00, 
1766.00, 
1767.00, 
1768.00, 
1769.00, 
1770.00, 
1771.00, 
1772.00, 
1773.00, 
1774.00, 
1775.00, 
1776.00, 
1777.00, 
1778.00, 
1779.00, 
1780.00, 
1781.00, 
1782.00, 
1783.00, 
1784.00, 
1785.00, 
1786.00, 
1787.00, 
1788.00, 
1789.00, 
1790.00, 
1791.00, 
1792.00, 
1793.00, 
1794.00, 
1795.00, 
1796.00, 
1797.00, 
1798.00, 
1799.00, 
1800.00, 
1801.00, 
1802.00, 
1803.00, 
1804.00, 
1805.00, 
1806.00, 
1807.00, 
1808.00, 
1809.00, 
1810.00, 
1811.00, 
1812.00, 
1813.00, 
1814.00, 
1815.00, 
1816.00, 
1817.00, 
1818.00, 
1819.00, 
1820.00, 
1821.00, 
1822.00, 
1823.00, 
1824.00, 
1825.00, 
1826.00, 
1827.00, 
1828.00, 
1829.00, 
1830.00, 
1831.00, 
1832.00, 
1833.00, 
1834.00, 
1835.00, 
1836.00, 
1837.00, 
1838.00, 
1839.00, 
1840.00, 
1841.00, 
1842.00, 
1843.00, 
1844.00, 
1845.00, 
1846.00, 
1847.00, 
1848.00, 
1849.00, 
1850.00, 
1851.00, 
1852.00, 
1853.00, 
1854.00, 
1855.00, 
1856.00, 
1857.00, 
1858.00, 
1859.00, 
1860.00, 
1861.00, 
1862.00, 
1863.00, 
1864.00, 
1865.00, 
1866.00, 
1867.00, 
1868.00, 
1869.00, 
1870.00, 
1871.00, 
1872.00, 
1873.00, 
1874.00, 
1875.00, 
1876.00, 
1877.00, 
1878.00, 
1879.00, 
1880.00, 
1881.00, 
1882.00, 
1883.00, 
1884.00, 
1885.00, 
1886.00, 
1887.00, 
1888.00, 
1889.00, 
1890.00, 
1891.00, 
1892.00, 
1893.00, 
1894.00, 
1895.00, 
1896.00, 
1897.00, 
1898.00, 
1899.00, 
1900.00, 
1901.00, 
1902.00, 
1903.00, 
1904.00, 
1905.00, 
1906.00, 
1907.00, 
1908.00, 
1909.00, 
1910.00, 
1911.00, 
1912.00, 
1913.00, 
1914.00, 
1915.00, 
1916.00, 
1917.00, 
1918.00, 
1919.00, 
1920.00, 
1921.00, 
1922.00, 
1923.00, 
1924.00, 
1925.00, 
1926.00, 
1927.00, 
1928.00, 
1929.00, 
1930.00, 
1931.00, 
1932.00, 
1933.00, 
1934.00, 
1935.00, 
1936.00, 
1937.00, 
1938.00, 
1939.00, 
1940.00, 
1941.00, 
1942.00, 
1943.00, 
1944.00, 
1945.00, 
1946.00, 
1947.00, 
1948.00, 
1949.00, 
1950.00, 
1951.00, 
1952.00, 
1953.00, 
1954.00, 
1955.00, 
1956.00, 
1957.00, 
1958.00, 
1959.00, 
1960.00, 
1961.00, 
1962.00, 
1963.00, 
1964.00, 
1965.00, 
1966.00, 
1967.00, 
1968.00, 
1969.00, 
1970.00, 
1971.00, 
1972.00, 
1973.00, 
1974.00, 
1975.00, 
1976.00, 
1977.00, 
1978.00, 
1979.00, 
1980.00, 
1981.00, 
1982.00, 
1983.00, 
1984.00, 
1985.00, 
1986.00, 
1987.00, 
1988.00, 
1989.00, 
1990.00, 
1991.00, 
1992.00, 
1993.00, 
1994.00, 
1995.00, 
1996.00, 
1997.00, 
1998.00, 
1999.00, 
2000.00, 
2001.00, 
2002.00, 
2003.00, 
2004.00, 
2005.00, 
2006.00, 
2007.00, 
2008.00, 
2009.00, 
2010.00, 
2011.00, 
2012.00, 
2013.00, 
2014.00, 
2015.00, 
2016.00, 
2017.00, 
2018.00, 
2019.00, 
2020.00, 
2021.00, 
2022.00, 
2023.00, 
2024.00, 
2025.00, 
2026.00, 
2027.00, 
2028.00, 
2029.00, 
2030.00, 
2031.00, 
2032.00, 
2033.00, 
2034.00, 
2035.00, 
2036.00, 
2037.00, 
2038.00, 
2039.00, 
2040.00, 
2041.00, 
2042.00, 
2043.00, 
2044.00, 
2045.00, 
2046.00, 
2047.00, 
2048.00, 
2049.00, 
2050.00, 
2051.00, 
2052.00, 
2053.00, 
2054.00, 
2055.00, 
2056.00, 
2057.00, 
2058.00, 
2059.00, 
2060.00, 
2061.00, 
2062.00, 
2063.00, 
2064.00, 
2065.00, 
2066.00, 
2067.00, 
2068.00, 
2069.00, 
2070.00, 
2071.00, 
2072.00, 
2073.00, 
2074.00, 
2075.00, 
2076.00, 
2077.00, 
2078.00, 
2079.00, 
2080.00, 
2081.00, 
2082.00, 
2083.00, 
2084.00, 
2085.00, 
2086.00, 
2087.00, 
2088.00, 
2089.00, 
2090.00, 
2091.00, 
2092.00, 
2093.00, 
2094.00, 
2095.00, 
2096.00, 
2097.00, 
2098.00, 
2099.00, 
2100.00, 
2101.00, 
2102.00, 
2103.00, 
2104.00, 
2105.00, 
2106.00, 
2107.00, 
2108.00, 
2109.00, 
2110.00, 
2111.00, 
2112.00, 
2113.00, 
2114.00, 
2115.00, 
2116.00, 
2117.00, 
2118.00, 
2119.00, 
2120.00, 
2121.00, 
2122.00, 
2123.00, 
2124.00, 
2125.00, 
2126.00, 
2127.00, 
2128.00, 
2129.00, 
2130.00, 
2131.00, 
2132.00, 
2133.00, 
2134.00, 
2135.00, 
2136.00, 
2137.00, 
2138.00, 
2139.00, 
2140.00, 
2141.00, 
2142.00, 
2143.00, 
2144.00, 
2145.00, 
2146.00, 
2147.00, 
2148.00, 
2149.00, 
2150.00, 
2151.00, 
2152.00, 
2153.00, 
2154.00, 
2155.00, 
2156.00, 
2157.00, 
2158.00, 
2159.00, 
2160.00, 
2161.00, 
2162.00, 
2163.00, 
2164.00, 
2165.00, 
2166.00, 
2167.00, 
2168.00, 
2169.00, 
2170.00, 
2171.00, 
2172.00, 
2173.00, 
2174.00, 
2175.00, 
2176.00, 
2177.00, 
2178.00, 
2179.00, 
2180.00, 
2181.00, 
2182.00, 
2183.00, 
2184.00, 
2185.00, 
2186.00, 
2187.00, 
2188.00, 
2189.00, 
2190.00, 
2191.00, 
2192.00, 
2193.00, 
2194.00, 
2195.00, 
2196.00, 
2197.00, 
2198.00, 
2199.00, 
2200.00, 
2201.00, 
2202.00, 
2203.00, 
2204.00, 
2205.00, 
2206.00, 
2207.00, 
2208.00, 
2209.00, 
2210.00, 
2211.00, 
2212.00, 
2213.00, 
2214.00, 
2215.00, 
2216.00, 
2217.00, 
2218.00, 
2219.00, 
2220.00, 
2221.00, 
2222.00, 
2223.00, 
2224.00, 
2225.00, 
2226.00, 
2227.00, 
2228.00, 
2229.00, 
2230.00, 
2231.00, 
2232.00, 
2233.00, 
2234.00, 
2235.00, 
2236.00, 
2237.00, 
2238.00, 
2239.00, 
2240.00, 
2241.00, 
2242.00, 
2243.00, 
2244.00, 
2245.00, 
2246.00, 
2247.00, 
2248.00, 
2249.00, 
2250.00, 
2251.00, 
2252.00, 
2253.00, 
2254.00, 
2255.00, 
2256.00, 
2257.00, 
2258.00, 
2259.00, 
2260.00, 
2261.00, 
2262.00, 
2263.00, 
2264.00, 
2265.00, 
2266.00, 
2267.00, 
2268.00, 
2269.00, 
2270.00, 
2271.00, 
2272.00, 
2273.00, 
2274.00, 
2275.00, 
2276.00, 
2277.00, 
2278.00, 
2279.00, 
2280.00, 
2281.00, 
2282.00, 
2283.00, 
2284.00, 
2285.00, 
2286.00, 
2287.00, 
2288.00, 
2289.00, 
2290.00, 
2291.00, 
2292.00, 
2293.00, 
2294.00, 
2295.00, 
2296.00, 
2297.00, 
2298.00, 
2299.00, 
2300.00, 
2301.00, 
2302.00, 
2303.00, 
2304.00, 
2305.00, 
2306.00, 
2307.00, 
2308.00, 
2309.00, 
2310.00, 
2311.00, 
2312.00, 
2313.00, 
2314.00, 
2315.00, 
2316.00, 
2317.00, 
2318.00, 
2319.00, 
2320.00, 
2321.00, 
2322.00, 
2323.00, 
2324.00, 
2325.00, 
2326.00, 
2327.00, 
2328.00, 
2329.00, 
2330.00, 
2331.00, 
2332.00, 
2333.00, 
2334.00, 
2335.00, 
2336.00, 
2337.00, 
2338.00, 
2339.00, 
2340.00, 
2341.00, 
2342.00, 
2343.00, 
2344.00, 
2345.00, 
2346.00, 
2347.00, 
2348.00, 
2349.00, 
2350.00, 
2351.00, 
2352.00, 
2353.00, 
2354.00, 
2355.00, 
2356.00, 
2357.00, 
2358.00, 
2359.00, 
2360.00, 
2361.00, 
2362.00, 
2363.00, 
2364.00, 
2365.00, 
2366.00, 
2367.00, 
2368.00, 
2369.00, 
2370.00, 
2371.00, 
2372.00, 
2373.00, 
2374.00, 
2375.00, 
2376.00, 
2377.00, 
2378.00, 
2379.00, 
2380.00, 
2381.00, 
2382.00, 
2383.00, 
2384.00, 
2385.00, 
2386.00, 
2387.00, 
2388.00, 
2389.00, 
2390.00, 
2391.00, 
2392.00, 
2393.00, 
2394.00, 
2395.00, 
2396.00, 
2397.00, 
2398.00, 
2399.00, 
2400.00, 
2401.00, 
2402.00, 
2403.00, 
2404.00, 
2405.00, 
2406.00, 
2407.00, 
2408.00, 
2409.00, 
2410.00, 
2411.00, 
2412.00, 
2413.00, 
2414.00, 
2415.00, 
2416.00, 
2417.00, 
2418.00, 
2419.00, 
2420.00, 
2421.00, 
2422.00, 
2423.00, 
2424.00, 
2425.00, 
2426.00, 
2427.00, 
2428.00, 
2429.00, 
2430.00, 
2431.00, 
2432.00, 
2433.00, 
2434.00, 
2435.00, 
2436.00, 
2437.00, 
2438.00, 
2439.00, 
2440.00, 
2441.00, 
2442.00, 
2443.00, 
2444.00, 
2445.00, 
2446.00, 
2447.00, 
2448.00, 
2449.00, 
2450.00, 
2451.00, 
2452.00, 
2453.00, 
2454.00, 
2455.00, 
2456.00, 
2457.00, 
2458.00, 
2459.00, 
2460.00, 
2461.00, 
2462.00, 
2463.00, 
2464.00, 
2465.00, 
2466.00, 
2467.00, 
2468.00, 
2469.00, 
2470.00, 
2471.00, 
2472.00, 
2473.00, 
2474.00, 
2475.00, 
2476.00, 
2477.00, 
2478.00, 
2479.00, 
2480.00, 
2481.00, 
2482.00, 
2483.00, 
2484.00, 
2485.00, 
2486.00, 
2487.00, 
2488.00, 
2489.00, 
2490.00, 
2491.00, 
2492.00, 
2493.00, 
2494.00, 
2495.00, 
2496.00, 
2497.00, 
2498.00, 
2499.00, 
2500.00, 
2501.00, 
2502.00, 
2503.00, 
2504.00, 
2505.00, 
2506.00, 
2507.00, 
2508.00, 
2509.00, 
2510.00, 
2511.00, 
2512.00, 
2513.00, 
2514.00, 
2515.00, 
2516.00, 
2517.00, 
2518.00, 
2519.00, 
2520.00, 
2521.00, 
2522.00, 
2523.00, 
2524.00, 
2525.00, 
2526.00, 
2527.00, 
2528.00, 
2529.00, 
2530.00, 
2531.00, 
2532.00, 
2533.00, 
2534.00, 
2535.00, 
2536.00, 
2537.00, 
2538.00, 
2539.00, 
2540.00, 
2541.00, 
2542.00, 
2543.00, 
2544.00, 
2545.00, 
2546.00, 
2547.00, 
2548.00, 
2549.00, 
2550.00, 
2551.00, 
2552.00, 
2553.00, 
2554.00, 
2555.00, 
2556.00, 
2557.00, 
2558.00, 
2559.00, 
2560.00, 
2561.00, 
2562.00, 
2563.00, 
2564.00, 
2565.00, 
2566.00, 
2567.00, 
2568.00, 
2569.00, 
2570.00, 
2571.00, 
2572.00, 
2573.00, 
2574.00, 
2575.00, 
2576.00, 
2577.00, 
2578.00, 
2579.00, 
2580.00, 
2581.00, 
2582.00, 
2583.00, 
2584.00, 
2585.00, 
2586.00, 
2587.00, 
2588.00, 
2589.00, 
2590.00, 
2591.00, 
2592.00, 
2593.00, 
2594.00, 
2595.00, 
2596.00, 
2597.00, 
2598.00, 
2599.00, 
2600.00, 
