"2cP2 - RawData"
"Wavelength nm.","T%"
200.00,0.000
201.00,-0.000
202.00,0.005
203.00,0.004
204.00,0.002
205.00,-0.001
206.00,0.001
207.00,0.001
208.00,0.002
209.00,0.004
210.00,-0.001
211.00,0.001
212.00,-0.001
213.00,0.001
214.00,0.001
215.00,0.001
216.00,0.002
217.00,0.002
218.00,0.004
219.00,0.002
220.00,-0.001
221.00,-0.001
222.00,-0.001
223.00,0.002
224.00,0.002
225.00,0.000
226.00,0.000
227.00,0.003
228.00,0.002
229.00,0.001
230.00,-0.000
231.00,0.001
232.00,0.001
233.00,0.002
234.00,0.002
235.00,0.001
236.00,0.000
237.00,-0.001
238.00,-0.001
239.00,0.000
240.00,0.002
241.00,0.001
242.00,-0.001
243.00,0.001
244.00,-0.001
245.00,-0.001
246.00,-0.001
247.00,0.002
248.00,0.000
249.00,-0.000
250.00,-0.001
251.00,-0.000
252.00,-0.000
253.00,0.000
254.00,0.002
255.00,-0.000
256.00,-0.001
257.00,0.001
258.00,0.000
259.00,-0.001
260.00,-0.001
261.00,0.001
262.00,0.000
263.00,0.002
264.00,0.001
265.00,-0.000
266.00,-0.001
267.00,0.002
268.00,0.000
269.00,0.000
270.00,-0.001
271.00,-0.000
272.00,-0.001
273.00,-0.000
274.00,0.002
275.00,-0.000
276.00,0.000
277.00,0.000
278.00,0.001
279.00,0.001
280.00,0.000
281.00,0.000
282.00,-0.000
283.00,0.001
284.00,0.001
285.00,0.001
286.00,-0.000
287.00,0.001
288.00,0.000
289.00,-0.000
290.00,0.001
291.00,0.002
292.00,-0.002
293.00,-0.001
294.00,0.000
295.00,-0.000
296.00,0.001
297.00,0.000
298.00,0.001
299.00,0.003
300.00,0.003
301.00,0.006
302.00,0.005
303.00,0.011
304.00,0.015
305.00,0.027
306.00,0.043
307.00,0.064
308.00,0.094
309.00,0.156
310.00,0.215
311.00,0.296
312.00,0.409
313.00,0.557
314.00,0.728
315.00,0.950
316.00,1.205
317.00,1.526
318.00,1.893
319.00,2.336
320.00,2.851
321.00,3.409
322.00,4.059
323.00,4.781
324.00,5.529
325.00,6.293
326.00,7.122
327.00,8.061
328.00,9.005
329.00,9.966
330.00,11.030
331.00,12.052
332.00,13.147
333.00,14.239
334.00,15.261
335.00,16.373
336.00,17.422
337.00,18.525
338.00,19.601
339.00,20.631
340.00,21.676
341.00,22.682
342.00,23.626
343.00,24.570
344.00,25.432
345.00,26.267
346.00,27.014
347.00,27.860
348.00,28.563
349.00,29.272
350.00,29.864
351.00,30.513
352.00,31.140
353.00,31.651
354.00,32.183
355.00,32.683
356.00,33.135
357.00,33.626
358.00,34.001
359.00,34.391
360.00,34.772
361.00,35.047
362.00,35.465
363.00,35.675
364.00,35.977
365.00,36.267
366.00,36.464
367.00,36.630
368.00,36.817
369.00,36.934
370.00,37.089
371.00,37.202
372.00,37.281
373.00,37.354
374.00,37.344
375.00,37.408
376.00,37.395
377.00,37.380
378.00,37.324
379.00,37.333
380.00,37.315
381.00,37.361
382.00,37.391
383.00,37.491
384.00,37.511
385.00,37.661
386.00,37.729
387.00,37.851
388.00,37.959
389.00,38.062
390.00,38.184
391.00,38.231
392.00,38.343
393.00,38.358
394.00,38.436
395.00,38.521
396.00,38.540
397.00,38.580
398.00,38.585
399.00,38.618
400.00,38.715
401.00,38.705
402.00,38.767
403.00,38.676
404.00,38.751
405.00,38.745
406.00,38.763
407.00,38.757
408.00,38.764
409.00,38.666
410.00,38.623
411.00,38.613
412.00,38.550
413.00,38.600
414.00,38.582
415.00,38.590
416.00,38.644
417.00,38.567
418.00,38.596
419.00,38.649
420.00,38.608
421.00,38.753
422.00,38.788
423.00,38.832
424.00,38.895
425.00,38.780
426.00,38.825
427.00,38.880
428.00,38.892
429.00,38.928
430.00,38.938
431.00,38.927
432.00,38.967
433.00,39.035
434.00,39.042
435.00,39.126
436.00,39.099
437.00,39.177
438.00,39.221
439.00,39.236
440.00,39.308
441.00,39.342
442.00,39.415
443.00,39.425
444.00,39.512
445.00,39.562
446.00,39.632
447.00,39.720
448.00,39.784
449.00,39.874
450.00,39.911
451.00,39.994
452.00,40.072
453.00,40.061
454.00,40.200
455.00,40.278
456.00,40.263
457.00,40.486
458.00,40.470
459.00,40.514
460.00,40.681
461.00,40.701
462.00,40.730
463.00,40.882
464.00,40.966
465.00,41.044
466.00,41.082
467.00,41.166
468.00,41.197
469.00,41.248
470.00,41.312
471.00,41.348
472.00,41.394
473.00,41.415
474.00,41.478
475.00,41.550
476.00,41.562
477.00,41.654
478.00,41.705
479.00,41.875
480.00,41.948
481.00,42.057
482.00,42.152
483.00,42.226
484.00,42.304
485.00,42.429
486.00,42.522
487.00,42.636
488.00,42.698
489.00,42.802
490.00,42.913
491.00,43.023
492.00,43.063
493.00,43.217
494.00,43.251
495.00,43.234
496.00,43.307
497.00,43.353
498.00,43.440
499.00,43.581
500.00,43.673
501.00,43.651
502.00,43.790
503.00,43.812
504.00,43.758
505.00,44.006
506.00,44.087
507.00,44.140
508.00,44.239
509.00,44.324
510.00,44.444
511.00,44.453
512.00,44.486
513.00,44.559
514.00,44.698
515.00,44.744
516.00,44.790
517.00,44.846
518.00,45.015
519.00,45.025
520.00,44.996
521.00,45.042
522.00,45.076
523.00,45.120
524.00,45.167
525.00,45.235
526.00,45.315
527.00,45.390
528.00,45.389
529.00,45.421
530.00,45.481
531.00,45.503
532.00,45.528
533.00,45.758
534.00,45.842
535.00,45.865
536.00,45.927
537.00,45.995
538.00,46.040
539.00,46.111
540.00,46.116
541.00,46.219
542.00,46.189
543.00,46.223
544.00,46.259
545.00,46.270
546.00,46.339
547.00,46.447
548.00,46.474
549.00,46.540
550.00,46.617
551.00,46.629
552.00,46.716
553.00,46.740
554.00,46.798
555.00,46.903
556.00,46.825
557.00,46.877
558.00,46.994
559.00,46.960
560.00,47.049
561.00,47.039
562.00,47.087
563.00,47.141
564.00,47.113
565.00,47.137
566.00,47.140
567.00,47.147
568.00,47.184
569.00,47.283
570.00,47.190
571.00,47.256
572.00,47.216
573.00,47.253
574.00,47.333
575.00,47.318
576.00,47.292
577.00,47.375
578.00,47.351
579.00,47.466
580.00,47.568
581.00,47.663
582.00,47.737
583.00,47.789
584.00,47.915
585.00,47.867
586.00,47.876
587.00,47.986
588.00,48.030
589.00,48.001
590.00,48.036
591.00,48.076
592.00,48.015
593.00,48.094
594.00,48.141
595.00,48.109
596.00,48.173
597.00,48.193
598.00,48.305
599.00,48.275
600.00,48.320
601.00,48.384
602.00,48.390
603.00,48.341
604.00,48.397
605.00,48.438
606.00,48.393
607.00,48.418
608.00,48.585
609.00,48.473
610.00,48.453
611.00,48.525
612.00,48.570
613.00,48.473
614.00,48.557
615.00,48.545
616.00,48.617
617.00,48.652
618.00,48.602
619.00,48.735
620.00,48.710
621.00,48.693
622.00,48.664
623.00,48.719
624.00,48.722
625.00,48.795
626.00,48.725
627.00,48.811
628.00,48.805
629.00,48.854
630.00,48.874
631.00,48.920
632.00,48.858
633.00,48.974
634.00,48.975
635.00,48.955
636.00,49.013
637.00,49.151
638.00,49.120
639.00,49.182
640.00,49.147
641.00,49.119
642.00,49.206
643.00,49.168
644.00,49.297
645.00,49.255
646.00,49.203
647.00,49.289
648.00,49.358
649.00,49.273
650.00,49.269
651.00,49.392
652.00,49.390
653.00,49.309
654.00,49.418
655.00,49.189
656.00,49.584
657.00,49.575
658.00,49.461
659.00,49.477
660.00,49.652
661.00,49.673
662.00,49.744
663.00,49.730
664.00,49.762
665.00,49.746
666.00,49.863
667.00,49.939
668.00,49.924
669.00,49.961
670.00,49.969
671.00,49.952
672.00,49.982
673.00,50.016
674.00,50.030
675.00,50.030
676.00,50.100
677.00,49.958
678.00,49.945
679.00,50.160
680.00,50.160
681.00,50.086
682.00,50.120
683.00,50.205
684.00,50.395
685.00,50.243
686.00,50.187
687.00,50.332
688.00,50.311
689.00,50.266
690.00,50.261
691.00,50.302
692.00,50.264
693.00,50.424
694.00,50.409
695.00,50.386
696.00,50.387
697.00,50.427
698.00,50.459
699.00,50.609
700.00,50.680
701.00,50.496
702.00,50.567
703.00,50.655
704.00,50.655
705.00,50.540
706.00,50.678
707.00,50.642
708.00,50.450
709.00,50.553
710.00,50.860
711.00,50.577
712.00,50.489
713.00,50.612
714.00,50.624
715.00,50.588
716.00,50.630
717.00,50.587
718.00,50.553
719.00,50.652
720.00,50.588
721.00,54.897
722.00,54.805
723.00,54.763
724.00,54.759
725.00,54.723
726.00,54.649
727.00,54.552
728.00,54.559
729.00,54.596
730.00,54.464
731.00,54.528
732.00,54.519
733.00,54.435
734.00,54.378
735.00,54.425
736.00,54.291
737.00,54.289
738.00,54.325
739.00,54.290
740.00,54.293
741.00,54.273
742.00,54.210
743.00,54.165
744.00,54.097
745.00,54.083
746.00,54.050
747.00,53.976
748.00,53.964
749.00,53.850
750.00,53.883
751.00,53.762
752.00,53.747
753.00,53.676
754.00,53.678
755.00,53.651
756.00,53.610
757.00,53.550
758.00,53.564
759.00,53.560
760.00,53.578
761.00,53.473
762.00,53.432
763.00,53.432
764.00,53.456
765.00,53.368
766.00,53.383
767.00,53.325
768.00,53.366
769.00,53.275
770.00,53.247
771.00,53.271
772.00,53.257
773.00,53.269
774.00,53.249
775.00,53.179
776.00,53.195
777.00,53.188
778.00,53.149
779.00,53.093
780.00,52.943
781.00,53.079
782.00,53.043
783.00,52.931
784.00,52.986
785.00,52.859
786.00,52.895
787.00,52.886
788.00,52.780
789.00,52.740
790.00,52.753
791.00,52.730
792.00,52.727
793.00,52.599
794.00,52.659
795.00,52.535
796.00,52.572
797.00,52.447
798.00,52.476
799.00,52.396
800.00,52.375
801.00,52.326
802.00,52.390
803.00,52.331
804.00,52.258
805.00,52.264
806.00,52.254
807.00,52.242
808.00,52.191
809.00,52.151
810.00,52.070
811.00,52.057
812.00,52.057
813.00,52.044
814.00,51.960
815.00,52.019
816.00,51.975
817.00,51.846
818.00,51.874
819.00,51.857
820.00,51.840
821.00,51.794
822.00,51.788
823.00,51.729
824.00,51.744
825.00,51.721
826.00,51.813
827.00,51.776
828.00,51.582
829.00,51.596
830.00,51.553
831.00,54.151
832.00,54.175
833.00,54.090
834.00,54.088
835.00,54.057
836.00,54.033
837.00,54.009
838.00,53.995
839.00,53.976
840.00,53.910
841.00,53.924
842.00,53.867
843.00,53.828
844.00,53.845
845.00,53.753
846.00,53.756
847.00,53.764
848.00,53.719
849.00,53.633
850.00,53.590
851.00,53.539
852.00,53.578
853.00,53.481
854.00,53.435
855.00,53.480
856.00,53.406
857.00,53.377
858.00,53.290
859.00,53.277
860.00,53.291
861.00,53.245
862.00,53.182
863.00,53.241
864.00,53.165
865.00,53.194
866.00,53.141
867.00,53.137
868.00,53.095
869.00,53.075
870.00,53.089
871.00,53.083
872.00,53.047
873.00,52.988
874.00,53.006
875.00,52.998
876.00,52.980
877.00,52.909
878.00,52.941
879.00,52.924
880.00,52.899
881.00,52.858
882.00,52.891
883.00,52.834
884.00,52.779
885.00,52.812
886.00,52.737
887.00,52.741
888.00,52.704
889.00,52.653
890.00,52.690
891.00,52.636
892.00,52.601
893.00,52.583
894.00,52.587
895.00,52.536
896.00,52.519
897.00,52.494
898.00,52.468
899.00,52.466
900.00,52.439
901.00,52.413
902.00,52.428
903.00,52.317
904.00,52.374
905.00,52.352
906.00,52.320
907.00,52.314
908.00,52.255
909.00,52.261
910.00,52.229
911.00,52.202
912.00,52.217
913.00,52.148
914.00,52.159
915.00,52.115
916.00,52.097
917.00,52.055
918.00,52.059
919.00,52.041
920.00,51.986
921.00,51.982
922.00,52.001
923.00,51.977
924.00,51.891
925.00,51.920
926.00,51.898
927.00,51.881
928.00,51.827
929.00,51.829
930.00,51.796
931.00,51.791
932.00,51.740
933.00,51.770
934.00,51.725
935.00,51.681
936.00,51.683
937.00,51.679
938.00,51.643
939.00,51.634
940.00,51.588
941.00,51.591
942.00,51.546
943.00,51.527
944.00,51.505
945.00,51.484
946.00,51.491
947.00,51.441
948.00,51.414
949.00,51.396
950.00,51.410
951.00,51.363
952.00,51.317
953.00,51.318
954.00,51.288
955.00,51.217
956.00,51.278
957.00,51.190
958.00,51.226
959.00,51.144
960.00,51.139
961.00,51.117
962.00,51.121
963.00,51.078
964.00,51.069
965.00,51.065
966.00,51.053
967.00,51.042
968.00,51.004
969.00,51.067
970.00,51.011
971.00,51.015
972.00,50.997
973.00,51.009
974.00,51.050
975.00,50.987
976.00,51.018
977.00,50.994
978.00,51.031
979.00,50.989
980.00,51.018
981.00,51.021
982.00,50.979
983.00,51.010
984.00,50.966
985.00,50.979
986.00,50.978
987.00,50.948
988.00,50.941
989.00,50.910
990.00,50.907
991.00,50.890
992.00,50.894
993.00,50.884
994.00,50.861
995.00,50.860
996.00,50.846
997.00,50.844
998.00,50.801
999.00,50.821
1000.00,50.781
1001.00,50.780
1002.00,50.767
1003.00,50.754
1004.00,50.745
1005.00,50.709
1006.00,50.726
1007.00,50.709
1008.00,50.684
1009.00,50.664
1010.00,50.661
1011.00,50.650
1012.00,50.617
1013.00,50.625
1014.00,50.585
1015.00,50.591
1016.00,50.548
1017.00,50.536
1018.00,50.546
1019.00,50.501
1020.00,50.499
1021.00,50.493
1022.00,50.487
1023.00,50.415
1024.00,50.452
1025.00,50.421
1026.00,50.401
1027.00,50.388
1028.00,50.373
1029.00,50.373
1030.00,50.345
1031.00,50.338
1032.00,50.300
1033.00,50.300
1034.00,50.267
1035.00,50.233
1036.00,50.217
1037.00,50.183
1038.00,50.184
1039.00,50.138
1040.00,50.155
1041.00,50.116
1042.00,50.108
1043.00,50.076
1044.00,50.106
1045.00,50.077
1046.00,50.101
1047.00,50.103
1048.00,50.100
1049.00,50.122
1050.00,50.113
1051.00,50.155
1052.00,50.158
1053.00,50.158
1054.00,50.169
1055.00,50.185
1056.00,50.178
1057.00,50.201
1058.00,50.172
1059.00,50.174
1060.00,50.184
1061.00,50.157
1062.00,50.142
1063.00,50.147
1064.00,50.134
1065.00,50.123
1066.00,50.117
1067.00,50.091
1068.00,50.119
1069.00,50.074
1070.00,50.058
1071.00,50.057
1072.00,50.055
1073.00,50.038
1074.00,50.041
1075.00,50.010
1076.00,50.014
1077.00,49.998
1078.00,49.980
1079.00,49.982
1080.00,49.978
1081.00,49.960
1082.00,49.965
1083.00,49.954
1084.00,49.958
1085.00,49.952
1086.00,49.937
1087.00,49.942
1088.00,49.901
1089.00,49.886
1090.00,49.900
1091.00,49.882
1092.00,49.870
1093.00,49.855
1094.00,49.844
1095.00,49.842
1096.00,49.815
1097.00,49.813
1098.00,49.808
1099.00,49.806
1100.00,49.779
1101.00,49.782
1102.00,49.758
1103.00,49.750
1104.00,49.745
1105.00,49.718
1106.00,49.723
1107.00,49.721
1108.00,49.716
1109.00,49.716
1110.00,49.700
1111.00,49.693
1112.00,49.684
1113.00,49.674
1114.00,49.660
1115.00,49.669
1116.00,49.643
1117.00,49.631
1118.00,49.635
1119.00,49.624
1120.00,49.629
1121.00,49.604
1122.00,49.595
1123.00,49.615
1124.00,49.598
1125.00,49.590
1126.00,49.593
1127.00,49.589
1128.00,49.570
1129.00,49.548
1130.00,49.535
1131.00,49.531
1132.00,49.520
1133.00,49.510
1134.00,49.521
1135.00,49.492
1136.00,49.493
1137.00,49.503
1138.00,49.484
1139.00,49.498
1140.00,49.487
1141.00,49.475
1142.00,49.471
1143.00,49.485
1144.00,49.460
1145.00,49.462
1146.00,49.456
1147.00,49.453
1148.00,49.446
1149.00,49.441
1150.00,49.455
1151.00,49.461
1152.00,49.431
1153.00,49.434
1154.00,49.417
1155.00,49.436
1156.00,49.418
1157.00,49.422
1158.00,49.409
1159.00,49.401
1160.00,49.404
1161.00,49.397
1162.00,49.388
1163.00,49.366
1164.00,49.379
1165.00,49.368
1166.00,49.364
1167.00,49.389
1168.00,49.392
1169.00,49.386
1170.00,49.396
1171.00,49.366
1172.00,49.379
1173.00,49.370
1174.00,49.371
1175.00,49.375
1176.00,49.369
1177.00,49.358
1178.00,49.359
1179.00,49.360
1180.00,49.350
1181.00,49.362
1182.00,49.348
1183.00,49.347
1184.00,49.352
1185.00,49.357
1186.00,49.340
1187.00,49.341
1188.00,49.328
1189.00,49.336
1190.00,49.330
1191.00,49.326
1192.00,49.345
1193.00,49.323
1194.00,49.340
1195.00,49.312
1196.00,49.315
1197.00,49.329
1198.00,49.324
1199.00,49.311
1200.00,49.312
1201.00,49.305
1202.00,49.299
1203.00,49.322
1204.00,49.292
1205.00,49.310
1206.00,49.308
1207.00,49.303
1208.00,49.316
1209.00,49.307
1210.00,49.305
1211.00,49.303
1212.00,49.309
1213.00,49.281
1214.00,49.307
1215.00,49.281
1216.00,49.295
1217.00,49.307
1218.00,49.290
1219.00,49.310
1220.00,49.282
1221.00,49.289
1222.00,49.294
1223.00,49.304
1224.00,49.297
1225.00,49.286
1226.00,49.294
1227.00,49.287
1228.00,49.307
1229.00,49.301
1230.00,49.356
1231.00,49.335
1232.00,49.334
1233.00,49.348
1234.00,49.332
1235.00,49.340
1236.00,49.342
1237.00,49.335
1238.00,49.334
1239.00,49.346
1240.00,49.327
1241.00,49.346
1242.00,49.338
1243.00,49.343
1244.00,49.334
1245.00,49.347
1246.00,49.349
1247.00,49.357
1248.00,49.340
1249.00,49.362
1250.00,49.375
1251.00,49.364
1252.00,49.388
1253.00,49.359
1254.00,49.385
1255.00,49.389
1256.00,49.361
1257.00,49.354
1258.00,49.395
1259.00,49.365
1260.00,49.403
1261.00,49.415
1262.00,49.377
1263.00,49.396
1264.00,49.391
1265.00,49.393
1266.00,49.402
1267.00,49.403
1268.00,49.429
1269.00,49.414
1270.00,49.417
1271.00,49.426
1272.00,49.428
1273.00,49.418
1274.00,49.424
1275.00,49.443
1276.00,49.440
1277.00,49.447
1278.00,49.446
1279.00,49.442
1280.00,49.461
1281.00,49.453
1282.00,49.485
1283.00,49.462
1284.00,49.466
1285.00,49.448
1286.00,49.466
1287.00,49.455
1288.00,49.465
1289.00,49.473
1290.00,49.508
1291.00,49.515
1292.00,49.501
1293.00,49.505
1294.00,49.528
1295.00,49.523
1296.00,49.533
1297.00,49.531
1298.00,49.537
1299.00,49.532
1300.00,49.533
1301.00,49.519
1302.00,49.538
1303.00,49.555
1304.00,49.539
1305.00,49.561
1306.00,49.561
1307.00,49.579
1308.00,49.584
1309.00,49.576
1310.00,49.600
1311.00,49.581
1312.00,49.573
1313.00,49.586
1314.00,49.586
1315.00,49.608
1316.00,49.603
1317.00,49.612
1318.00,49.601
1319.00,49.608
1320.00,49.640
1321.00,49.800
1322.00,49.811
1323.00,49.787
1324.00,49.794
1325.00,49.761
1326.00,49.801
1327.00,49.789
1328.00,49.774
1329.00,49.783
1330.00,49.787
1331.00,49.775
1332.00,49.785
1333.00,49.782
1334.00,49.834
1335.00,49.847
1336.00,49.865
1337.00,49.889
1338.00,49.948
1339.00,49.989
1340.00,50.056
1341.00,50.105
1342.00,50.183
1343.00,50.249
1344.00,50.271
1345.00,50.335
1346.00,50.397
1347.00,50.383
1348.00,50.436
1349.00,50.451
1350.00,50.463
1351.00,50.483
1352.00,50.474
1353.00,50.516
1354.00,50.511
1355.00,50.404
1356.00,50.505
1357.00,50.520
1358.00,50.516
1359.00,50.529
1360.00,50.602
1361.00,50.461
1362.00,50.469
1363.00,50.582
1364.00,50.516
1365.00,50.513
1366.00,50.569
1367.00,50.496
1368.00,50.487
1369.00,50.502
1370.00,50.517
1371.00,50.426
1372.00,50.481
1373.00,50.477
1374.00,50.502
1375.00,50.470
1376.00,50.492
1377.00,50.454
1378.00,50.546
1379.00,50.507
1380.00,50.489
1381.00,50.490
1382.00,50.408
1383.00,50.468
1384.00,50.407
1385.00,50.407
1386.00,50.488
1387.00,50.437
1388.00,50.386
1389.00,50.380
1390.00,50.534
1391.00,50.396
1392.00,50.449
1393.00,50.456
1394.00,50.423
1395.00,50.367
1396.00,50.382
1397.00,50.468
1398.00,50.524
1399.00,50.390
1400.00,50.379
1401.00,50.480
1402.00,50.535
1403.00,50.426
1404.00,50.431
1405.00,50.499
1406.00,50.479
1407.00,50.521
1408.00,50.447
1409.00,50.476
1410.00,50.522
1411.00,50.529
1412.00,50.598
1413.00,50.470
1414.00,50.491
1415.00,50.553
1416.00,50.572
1417.00,50.610
1418.00,50.554
1419.00,50.548
1420.00,50.609
1421.00,50.635
1422.00,50.613
1423.00,50.623
1424.00,50.632
1425.00,50.655
1426.00,50.677
1427.00,50.682
1428.00,50.705
1429.00,50.717
1430.00,50.721
1431.00,50.735
1432.00,50.736
1433.00,50.756
1434.00,50.753
1435.00,50.807
1436.00,50.810
1437.00,50.799
1438.00,50.802
1439.00,50.851
1440.00,50.858
1441.00,50.850
1442.00,50.887
1443.00,50.914
1444.00,50.950
1445.00,50.893
1446.00,50.902
1447.00,50.978
1448.00,50.980
1449.00,50.972
1450.00,50.976
1451.00,51.003
1452.00,51.005
1453.00,51.048
1454.00,51.031
1455.00,51.054
1456.00,51.087
1457.00,51.069
1458.00,51.115
1459.00,51.139
1460.00,51.140
1461.00,51.175
1462.00,51.173
1463.00,51.186
1464.00,51.222
1465.00,51.212
1466.00,51.213
1467.00,51.254
1468.00,51.276
1469.00,51.270
1470.00,51.272
1471.00,51.273
1472.00,51.307
1473.00,51.305
1474.00,51.325
1475.00,51.352
1476.00,51.350
1477.00,51.358
1478.00,51.389
1479.00,51.391
1480.00,51.391
1481.00,51.378
1482.00,51.422
1483.00,51.435
1484.00,51.441
1485.00,51.451
1486.00,51.480
1487.00,51.480
1488.00,51.487
1489.00,51.494
1490.00,51.497
1491.00,51.522
1492.00,51.532
1493.00,51.519
1494.00,51.549
1495.00,51.554
1496.00,51.552
1497.00,51.571
1498.00,51.559
1499.00,51.578
1500.00,51.618
1501.00, 
1502.00, 
1503.00, 
1504.00, 
1505.00, 
1506.00, 
1507.00, 
1508.00, 
1509.00, 
1510.00, 
1511.00, 
1512.00, 
1513.00, 
1514.00, 
1515.00, 
1516.00, 
1517.00, 
1518.00, 
1519.00, 
1520.00, 
1521.00, 
1522.00, 
1523.00, 
1524.00, 
1525.00, 
1526.00, 
1527.00, 
1528.00, 
1529.00, 
1530.00, 
1531.00, 
1532.00, 
1533.00, 
1534.00, 
1535.00, 
1536.00, 
1537.00, 
1538.00, 
1539.00, 
1540.00, 
1541.00, 
1542.00, 
1543.00, 
1544.00, 
1545.00, 
1546.00, 
1547.00, 
1548.00, 
1549.00, 
1550.00, 
1551.00, 
1552.00, 
1553.00, 
1554.00, 
1555.00, 
1556.00, 
1557.00, 
1558.00, 
1559.00, 
1560.00, 
1561.00, 
1562.00, 
1563.00, 
1564.00, 
1565.00, 
1566.00, 
1567.00, 
1568.00, 
1569.00, 
1570.00, 
1571.00, 
1572.00, 
1573.00, 
1574.00, 
1575.00, 
1576.00, 
1577.00, 
1578.00, 
1579.00, 
1580.00, 
1581.00, 
1582.00, 
1583.00, 
1584.00, 
1585.00, 
1586.00, 
1587.00, 
1588.00, 
1589.00, 
1590.00, 
1591.00, 
1592.00, 
1593.00, 
1594.00, 
1595.00, 
1596.00, 
1597.00, 
1598.00, 
1599.00, 
1600.00, 
1601.00, 
1602.00, 
1603.00, 
1604.00, 
1605.00, 
1606.00, 
1607.00, 
1608.00, 
1609.00, 
1610.00, 
1611.00, 
1612.00, 
1613.00, 
1614.00, 
1615.00, 
1616.00, 
1617.00, 
1618.00, 
1619.00, 
1620.00, 
1621.00, 
1622.00, 
1623.00, 
1624.00, 
1625.00, 
1626.00, 
1627.00, 
1628.00, 
1629.00, 
1630.00, 
1631.00, 
1632.00, 
1633.00, 
1634.00, 
1635.00, 
1636.00, 
1637.00, 
1638.00, 
1639.00, 
1640.00, 
1641.00, 
1642.00, 
1643.00, 
1644.00, 
1645.00, 
1646.00, 
1647.00, 
1648.00, 
1649.00, 
1650.00, 
1651.00, 
1652.00, 
1653.00, 
1654.00, 
1655.00, 
1656.00, 
1657.00, 
1658.00, 
1659.00, 
1660.00, 
1661.00, 
1662.00, 
1663.00, 
1664.00, 
1665.00, 
1666.00, 
1667.00, 
1668.00, 
1669.00, 
1670.00, 
1671.00, 
1672.00, 
1673.00, 
1674.00, 
1675.00, 
1676.00, 
1677.00, 
1678.00, 
1679.00, 
1680.00, 
1681.00, 
1682.00, 
1683.00, 
1684.00, 
1685.00, 
1686.00, 
1687.00, 
1688.00, 
1689.00, 
1690.00, 
1691.00, 
1692.00, 
1693.00, 
1694.00, 
1695.00, 
1696.00, 
1697.00, 
1698.00, 
1699.00, 
1700.00, 
1701.00, 
1702.00, 
1703.00, 
1704.00, 
1705.00, 
1706.00, 
1707.00, 
1708.00, 
1709.00, 
1710.00, 
1711.00, 
1712.00, 
1713.00, 
1714.00, 
1715.00, 
1716.00, 
1717.00, 
1718.00, 
1719.00, 
1720.00, 
1721.00, 
1722.00, 
1723.00, 
1724.00, 
1725.00, 
1726.00, 
1727.00, 
1728.00, 
1729.00, 
1730.00, 
1731.00, 
1732.00, 
1733.00, 
1734.00, 
1735.00, 
1736.00, 
1737.00, 
1738.00, 
1739.00, 
1740.00, 
1741.00, 
1742.00, 
1743.00, 
1744.00, 
1745.00, 
1746.00, 
1747.00, 
1748.00, 
1749.00, 
1750.00, 
1751.00, 
1752.00, 
1753.00, 
1754.00, 
1755.00, 
1756.00, 
1757.00, 
1758.00, 
1759.00, 
1760.00, 
1761.00, 
1762.00, 
1763.00, 
1764.00, 
1765.00, 
1766.00, 
1767.00, 
1768.00, 
1769.00, 
1770.00, 
1771.00, 
1772.00, 
1773.00, 
1774.00, 
1775.00, 
1776.00, 
1777.00, 
1778.00, 
1779.00, 
1780.00, 
1781.00, 
1782.00, 
1783.00, 
1784.00, 
1785.00, 
1786.00, 
1787.00, 
1788.00, 
1789.00, 
1790.00, 
1791.00, 
1792.00, 
1793.00, 
1794.00, 
1795.00, 
1796.00, 
1797.00, 
1798.00, 
1799.00, 
1800.00, 
1801.00, 
1802.00, 
1803.00, 
1804.00, 
1805.00, 
1806.00, 
1807.00, 
1808.00, 
1809.00, 
1810.00, 
1811.00, 
1812.00, 
1813.00, 
1814.00, 
1815.00, 
1816.00, 
1817.00, 
1818.00, 
1819.00, 
1820.00, 
1821.00, 
1822.00, 
1823.00, 
1824.00, 
1825.00, 
1826.00, 
1827.00, 
1828.00, 
1829.00, 
1830.00, 
1831.00, 
1832.00, 
1833.00, 
1834.00, 
1835.00, 
1836.00, 
1837.00, 
1838.00, 
1839.00, 
1840.00, 
1841.00, 
1842.00, 
1843.00, 
1844.00, 
1845.00, 
1846.00, 
1847.00, 
1848.00, 
1849.00, 
1850.00, 
1851.00, 
1852.00, 
1853.00, 
1854.00, 
1855.00, 
1856.00, 
1857.00, 
1858.00, 
1859.00, 
1860.00, 
1861.00, 
1862.00, 
1863.00, 
1864.00, 
1865.00, 
1866.00, 
1867.00, 
1868.00, 
1869.00, 
1870.00, 
1871.00, 
1872.00, 
1873.00, 
1874.00, 
1875.00, 
1876.00, 
1877.00, 
1878.00, 
1879.00, 
1880.00, 
1881.00, 
1882.00, 
1883.00, 
1884.00, 
1885.00, 
1886.00, 
1887.00, 
1888.00, 
1889.00, 
1890.00, 
1891.00, 
1892.00, 
1893.00, 
1894.00, 
1895.00, 
1896.00, 
1897.00, 
1898.00, 
1899.00, 
1900.00, 
1901.00, 
1902.00, 
1903.00, 
1904.00, 
1905.00, 
1906.00, 
1907.00, 
1908.00, 
1909.00, 
1910.00, 
1911.00, 
1912.00, 
1913.00, 
1914.00, 
1915.00, 
1916.00, 
1917.00, 
1918.00, 
1919.00, 
1920.00, 
1921.00, 
1922.00, 
1923.00, 
1924.00, 
1925.00, 
1926.00, 
1927.00, 
1928.00, 
1929.00, 
1930.00, 
1931.00, 
1932.00, 
1933.00, 
1934.00, 
1935.00, 
1936.00, 
1937.00, 
1938.00, 
1939.00, 
1940.00, 
1941.00, 
1942.00, 
1943.00, 
1944.00, 
1945.00, 
1946.00, 
1947.00, 
1948.00, 
1949.00, 
1950.00, 
1951.00, 
1952.00, 
1953.00, 
1954.00, 
1955.00, 
1956.00, 
1957.00, 
1958.00, 
1959.00, 
1960.00, 
1961.00, 
1962.00, 
1963.00, 
1964.00, 
1965.00, 
1966.00, 
1967.00, 
1968.00, 
1969.00, 
1970.00, 
1971.00, 
1972.00, 
1973.00, 
1974.00, 
1975.00, 
1976.00, 
1977.00, 
1978.00, 
1979.00, 
1980.00, 
1981.00, 
1982.00, 
1983.00, 
1984.00, 
1985.00, 
1986.00, 
1987.00, 
1988.00, 
1989.00, 
1990.00, 
1991.00, 
1992.00, 
1993.00, 
1994.00, 
1995.00, 
1996.00, 
1997.00, 
1998.00, 
1999.00, 
2000.00, 
2001.00, 
2002.00, 
2003.00, 
2004.00, 
2005.00, 
2006.00, 
2007.00, 
2008.00, 
2009.00, 
2010.00, 
2011.00, 
2012.00, 
2013.00, 
2014.00, 
2015.00, 
2016.00, 
2017.00, 
2018.00, 
2019.00, 
2020.00, 
2021.00, 
2022.00, 
2023.00, 
2024.00, 
2025.00, 
2026.00, 
2027.00, 
2028.00, 
2029.00, 
2030.00, 
2031.00, 
2032.00, 
2033.00, 
2034.00, 
2035.00, 
2036.00, 
2037.00, 
2038.00, 
2039.00, 
2040.00, 
2041.00, 
2042.00, 
2043.00, 
2044.00, 
2045.00, 
2046.00, 
2047.00, 
2048.00, 
2049.00, 
2050.00, 
2051.00, 
2052.00, 
2053.00, 
2054.00, 
2055.00, 
2056.00, 
2057.00, 
2058.00, 
2059.00, 
2060.00, 
2061.00, 
2062.00, 
2063.00, 
2064.00, 
2065.00, 
2066.00, 
2067.00, 
2068.00, 
2069.00, 
2070.00, 
2071.00, 
2072.00, 
2073.00, 
2074.00, 
2075.00, 
2076.00, 
2077.00, 
2078.00, 
2079.00, 
2080.00, 
2081.00, 
2082.00, 
2083.00, 
2084.00, 
2085.00, 
2086.00, 
2087.00, 
2088.00, 
2089.00, 
2090.00, 
2091.00, 
2092.00, 
2093.00, 
2094.00, 
2095.00, 
2096.00, 
2097.00, 
2098.00, 
2099.00, 
2100.00, 
2101.00, 
2102.00, 
2103.00, 
2104.00, 
2105.00, 
2106.00, 
2107.00, 
2108.00, 
2109.00, 
2110.00, 
2111.00, 
2112.00, 
2113.00, 
2114.00, 
2115.00, 
2116.00, 
2117.00, 
2118.00, 
2119.00, 
2120.00, 
2121.00, 
2122.00, 
2123.00, 
2124.00, 
2125.00, 
2126.00, 
2127.00, 
2128.00, 
2129.00, 
2130.00, 
2131.00, 
2132.00, 
2133.00, 
2134.00, 
2135.00, 
2136.00, 
2137.00, 
2138.00, 
2139.00, 
2140.00, 
2141.00, 
2142.00, 
2143.00, 
2144.00, 
2145.00, 
2146.00, 
2147.00, 
2148.00, 
2149.00, 
2150.00, 
2151.00, 
2152.00, 
2153.00, 
2154.00, 
2155.00, 
2156.00, 
2157.00, 
2158.00, 
2159.00, 
2160.00, 
2161.00, 
2162.00, 
2163.00, 
2164.00, 
2165.00, 
2166.00, 
2167.00, 
2168.00, 
2169.00, 
2170.00, 
2171.00, 
2172.00, 
2173.00, 
2174.00, 
2175.00, 
2176.00, 
2177.00, 
2178.00, 
2179.00, 
2180.00, 
2181.00, 
2182.00, 
2183.00, 
2184.00, 
2185.00, 
2186.00, 
2187.00, 
2188.00, 
2189.00, 
2190.00, 
2191.00, 
2192.00, 
2193.00, 
2194.00, 
2195.00, 
2196.00, 
2197.00, 
2198.00, 
2199.00, 
2200.00, 
2201.00, 
2202.00, 
2203.00, 
2204.00, 
2205.00, 
2206.00, 
2207.00, 
2208.00, 
2209.00, 
2210.00, 
2211.00, 
2212.00, 
2213.00, 
2214.00, 
2215.00, 
2216.00, 
2217.00, 
2218.00, 
2219.00, 
2220.00, 
2221.00, 
2222.00, 
2223.00, 
2224.00, 
2225.00, 
2226.00, 
2227.00, 
2228.00, 
2229.00, 
2230.00, 
2231.00, 
2232.00, 
2233.00, 
2234.00, 
2235.00, 
2236.00, 
2237.00, 
2238.00, 
2239.00, 
2240.00, 
2241.00, 
2242.00, 
2243.00, 
2244.00, 
2245.00, 
2246.00, 
2247.00, 
2248.00, 
2249.00, 
2250.00, 
2251.00, 
2252.00, 
2253.00, 
2254.00, 
2255.00, 
2256.00, 
2257.00, 
2258.00, 
2259.00, 
2260.00, 
2261.00, 
2262.00, 
2263.00, 
2264.00, 
2265.00, 
2266.00, 
2267.00, 
2268.00, 
2269.00, 
2270.00, 
2271.00, 
2272.00, 
2273.00, 
2274.00, 
2275.00, 
2276.00, 
2277.00, 
2278.00, 
2279.00, 
2280.00, 
2281.00, 
2282.00, 
2283.00, 
2284.00, 
2285.00, 
2286.00, 
2287.00, 
2288.00, 
2289.00, 
2290.00, 
2291.00, 
2292.00, 
2293.00, 
2294.00, 
2295.00, 
2296.00, 
2297.00, 
2298.00, 
2299.00, 
2300.00, 
2301.00, 
2302.00, 
2303.00, 
2304.00, 
2305.00, 
2306.00, 
2307.00, 
2308.00, 
2309.00, 
2310.00, 
2311.00, 
2312.00, 
2313.00, 
2314.00, 
2315.00, 
2316.00, 
2317.00, 
2318.00, 
2319.00, 
2320.00, 
2321.00, 
2322.00, 
2323.00, 
2324.00, 
2325.00, 
2326.00, 
2327.00, 
2328.00, 
2329.00, 
2330.00, 
2331.00, 
2332.00, 
2333.00, 
2334.00, 
2335.00, 
2336.00, 
2337.00, 
2338.00, 
2339.00, 
2340.00, 
2341.00, 
2342.00, 
2343.00, 
2344.00, 
2345.00, 
2346.00, 
2347.00, 
2348.00, 
2349.00, 
2350.00, 
2351.00, 
2352.00, 
2353.00, 
2354.00, 
2355.00, 
2356.00, 
2357.00, 
2358.00, 
2359.00, 
2360.00, 
2361.00, 
2362.00, 
2363.00, 
2364.00, 
2365.00, 
2366.00, 
2367.00, 
2368.00, 
2369.00, 
2370.00, 
2371.00, 
2372.00, 
2373.00, 
2374.00, 
2375.00, 
2376.00, 
2377.00, 
2378.00, 
2379.00, 
2380.00, 
2381.00, 
2382.00, 
2383.00, 
2384.00, 
2385.00, 
2386.00, 
2387.00, 
2388.00, 
2389.00, 
2390.00, 
2391.00, 
2392.00, 
2393.00, 
2394.00, 
2395.00, 
2396.00, 
2397.00, 
2398.00, 
2399.00, 
2400.00, 
2401.00, 
2402.00, 
2403.00, 
2404.00, 
2405.00, 
2406.00, 
2407.00, 
2408.00, 
2409.00, 
2410.00, 
2411.00, 
2412.00, 
2413.00, 
2414.00, 
2415.00, 
2416.00, 
2417.00, 
2418.00, 
2419.00, 
2420.00, 
2421.00, 
2422.00, 
2423.00, 
2424.00, 
2425.00, 
2426.00, 
2427.00, 
2428.00, 
2429.00, 
2430.00, 
2431.00, 
2432.00, 
2433.00, 
2434.00, 
2435.00, 
2436.00, 
2437.00, 
2438.00, 
2439.00, 
2440.00, 
2441.00, 
2442.00, 
2443.00, 
2444.00, 
2445.00, 
2446.00, 
2447.00, 
2448.00, 
2449.00, 
2450.00, 
2451.00, 
2452.00, 
2453.00, 
2454.00, 
2455.00, 
2456.00, 
2457.00, 
2458.00, 
2459.00, 
2460.00, 
2461.00, 
2462.00, 
2463.00, 
2464.00, 
2465.00, 
2466.00, 
2467.00, 
2468.00, 
2469.00, 
2470.00, 
2471.00, 
2472.00, 
2473.00, 
2474.00, 
2475.00, 
2476.00, 
2477.00, 
2478.00, 
2479.00, 
2480.00, 
2481.00, 
2482.00, 
2483.00, 
2484.00, 
2485.00, 
2486.00, 
2487.00, 
2488.00, 
2489.00, 
2490.00, 
2491.00, 
2492.00, 
2493.00, 
2494.00, 
2495.00, 
2496.00, 
2497.00, 
2498.00, 
2499.00, 
2500.00, 
2501.00, 
2502.00, 
2503.00, 
2504.00, 
2505.00, 
2506.00, 
2507.00, 
2508.00, 
2509.00, 
2510.00, 
2511.00, 
2512.00, 
2513.00, 
2514.00, 
2515.00, 
2516.00, 
2517.00, 
2518.00, 
2519.00, 
2520.00, 
2521.00, 
2522.00, 
2523.00, 
2524.00, 
2525.00, 
2526.00, 
2527.00, 
2528.00, 
2529.00, 
2530.00, 
2531.00, 
2532.00, 
2533.00, 
2534.00, 
2535.00, 
2536.00, 
2537.00, 
2538.00, 
2539.00, 
2540.00, 
2541.00, 
2542.00, 
2543.00, 
2544.00, 
2545.00, 
2546.00, 
2547.00, 
2548.00, 
2549.00, 
2550.00, 
2551.00, 
2552.00, 
2553.00, 
2554.00, 
2555.00, 
2556.00, 
2557.00, 
2558.00, 
2559.00, 
2560.00, 
2561.00, 
2562.00, 
2563.00, 
2564.00, 
2565.00, 
2566.00, 
2567.00, 
2568.00, 
2569.00, 
2570.00, 
2571.00, 
2572.00, 
2573.00, 
2574.00, 
2575.00, 
2576.00, 
2577.00, 
2578.00, 
2579.00, 
2580.00, 
2581.00, 
2582.00, 
2583.00, 
2584.00, 
2585.00, 
2586.00, 
2587.00, 
2588.00, 
2589.00, 
2590.00, 
2591.00, 
2592.00, 
2593.00, 
2594.00, 
2595.00, 
2596.00, 
2597.00, 
2598.00, 
2599.00, 
2600.00, 
