"2cP3 - RawData"
"Wavelength nm.","T%"
200.00,0.000
201.00,-0.000
202.00,0.002
203.00,0.007
204.00,0.002
205.00,0.004
206.00,0.003
207.00,0.001
208.00,0.001
209.00,-0.001
210.00,0.002
211.00,0.002
212.00,-0.000
213.00,0.000
214.00,0.000
215.00,0.002
216.00,0.000
217.00,-0.002
218.00,0.002
219.00,0.002
220.00,0.004
221.00,0.002
222.00,0.003
223.00,-0.000
224.00,0.001
225.00,0.002
226.00,-0.001
227.00,0.000
228.00,0.002
229.00,0.002
230.00,0.002
231.00,0.001
232.00,-0.001
233.00,-0.001
234.00,-0.000
235.00,0.002
236.00,0.002
237.00,-0.000
238.00,0.001
239.00,-0.001
240.00,0.002
241.00,-0.000
242.00,0.002
243.00,0.000
244.00,-0.001
245.00,0.001
246.00,0.001
247.00,-0.000
248.00,-0.000
249.00,0.000
250.00,0.002
251.00,0.001
252.00,-0.001
253.00,0.001
254.00,0.003
255.00,-0.000
256.00,0.001
257.00,-0.002
258.00,-0.000
259.00,0.002
260.00,0.001
261.00,0.000
262.00,-0.001
263.00,0.001
264.00,-0.001
265.00,0.001
266.00,0.000
267.00,-0.000
268.00,0.000
269.00,0.001
270.00,0.001
271.00,-0.000
272.00,0.001
273.00,0.000
274.00,0.000
275.00,0.001
276.00,-0.002
277.00,0.000
278.00,-0.001
279.00,-0.000
280.00,0.001
281.00,0.000
282.00,-0.001
283.00,-0.001
284.00,0.002
285.00,0.002
286.00,-0.000
287.00,-0.001
288.00,-0.000
289.00,0.001
290.00,0.002
291.00,0.000
292.00,-0.000
293.00,-0.001
294.00,0.001
295.00,0.001
296.00,-0.000
297.00,0.002
298.00,0.000
299.00,0.003
300.00,0.002
301.00,0.003
302.00,0.005
303.00,0.006
304.00,0.011
305.00,0.017
306.00,0.031
307.00,0.042
308.00,0.064
309.00,0.106
310.00,0.147
311.00,0.196
312.00,0.271
313.00,0.366
314.00,0.480
315.00,0.635
316.00,0.811
317.00,1.030
318.00,1.256
319.00,1.560
320.00,1.890
321.00,2.284
322.00,2.694
323.00,3.165
324.00,3.659
325.00,4.183
326.00,4.727
327.00,5.343
328.00,5.984
329.00,6.618
330.00,7.279
331.00,7.935
332.00,8.674
333.00,9.367
334.00,10.079
335.00,10.848
336.00,11.499
337.00,12.227
338.00,12.935
339.00,13.567
340.00,14.242
341.00,14.898
342.00,15.519
343.00,16.146
344.00,16.720
345.00,17.267
346.00,17.716
347.00,18.202
348.00,18.689
349.00,19.137
350.00,19.559
351.00,19.944
352.00,20.311
353.00,20.662
354.00,20.974
355.00,21.302
356.00,21.567
357.00,21.880
358.00,22.101
359.00,22.337
360.00,22.591
361.00,22.712
362.00,22.909
363.00,23.082
364.00,23.259
365.00,23.466
366.00,23.517
367.00,23.593
368.00,23.709
369.00,23.828
370.00,23.883
371.00,23.904
372.00,23.933
373.00,23.936
374.00,23.930
375.00,23.900
376.00,23.920
377.00,23.866
378.00,23.812
379.00,23.794
380.00,23.751
381.00,23.758
382.00,23.742
383.00,23.773
384.00,23.792
385.00,23.832
386.00,23.869
387.00,23.934
388.00,23.966
389.00,24.017
390.00,24.096
391.00,24.111
392.00,24.160
393.00,24.157
394.00,24.191
395.00,24.190
396.00,24.182
397.00,24.226
398.00,24.163
399.00,24.253
400.00,24.255
401.00,24.248
402.00,24.249
403.00,24.217
404.00,24.222
405.00,24.225
406.00,24.241
407.00,24.240
408.00,24.219
409.00,24.146
410.00,24.099
411.00,24.099
412.00,24.067
413.00,24.098
414.00,24.077
415.00,24.095
416.00,24.146
417.00,24.115
418.00,24.156
419.00,24.215
420.00,24.220
421.00,24.263
422.00,24.294
423.00,24.346
424.00,24.382
425.00,24.357
426.00,24.415
427.00,24.420
428.00,24.485
429.00,24.514
430.00,24.567
431.00,24.562
432.00,24.584
433.00,24.681
434.00,24.756
435.00,24.823
436.00,24.809
437.00,24.901
438.00,24.967
439.00,25.020
440.00,25.088
441.00,25.163
442.00,25.269
443.00,25.284
444.00,25.385
445.00,25.464
446.00,25.532
447.00,25.645
448.00,25.744
449.00,25.813
450.00,25.933
451.00,26.005
452.00,26.113
453.00,26.230
454.00,26.331
455.00,26.452
456.00,26.505
457.00,26.645
458.00,26.714
459.00,26.827
460.00,26.938
461.00,27.031
462.00,27.164
463.00,27.269
464.00,27.384
465.00,27.494
466.00,27.586
467.00,27.711
468.00,27.805
469.00,27.930
470.00,28.021
471.00,28.133
472.00,28.248
473.00,28.320
474.00,28.415
475.00,28.534
476.00,28.632
477.00,28.730
478.00,28.869
479.00,29.005
480.00,29.107
481.00,29.246
482.00,29.384
483.00,29.515
484.00,29.659
485.00,29.817
486.00,29.953
487.00,30.098
488.00,30.249
489.00,30.414
490.00,30.532
491.00,30.686
492.00,30.812
493.00,30.966
494.00,31.054
495.00,31.108
496.00,31.161
497.00,31.325
498.00,31.448
499.00,31.610
500.00,31.722
501.00,31.795
502.00,31.960
503.00,32.060
504.00,32.106
505.00,32.337
506.00,32.461
507.00,32.564
508.00,32.677
509.00,32.811
510.00,32.949
511.00,32.998
512.00,33.091
513.00,33.215
514.00,33.342
515.00,33.458
516.00,33.590
517.00,33.689
518.00,33.833
519.00,33.887
520.00,33.962
521.00,34.095
522.00,34.125
523.00,34.236
524.00,34.320
525.00,34.405
526.00,34.566
527.00,34.662
528.00,34.712
529.00,34.844
530.00,34.928
531.00,35.050
532.00,35.112
533.00,35.231
534.00,35.317
535.00,35.419
536.00,35.502
537.00,35.585
538.00,35.669
539.00,35.792
540.00,35.828
541.00,35.914
542.00,35.950
543.00,36.014
544.00,36.103
545.00,36.156
546.00,36.206
547.00,36.322
548.00,36.373
549.00,36.482
550.00,36.548
551.00,36.645
552.00,36.723
553.00,36.836
554.00,36.921
555.00,36.961
556.00,37.014
557.00,37.067
558.00,37.126
559.00,37.202
560.00,37.300
561.00,37.339
562.00,37.414
563.00,37.467
564.00,37.505
565.00,37.493
566.00,37.566
567.00,37.607
568.00,37.663
569.00,37.771
570.00,37.738
571.00,37.778
572.00,37.774
573.00,37.836
574.00,37.883
575.00,37.910
576.00,37.896
577.00,37.940
578.00,38.033
579.00,38.228
580.00,38.288
581.00,38.438
582.00,38.496
583.00,38.573
584.00,38.681
585.00,38.697
586.00,38.745
587.00,38.828
588.00,38.848
589.00,38.885
590.00,38.910
591.00,38.944
592.00,38.962
593.00,39.001
594.00,39.141
595.00,39.139
596.00,39.204
597.00,39.233
598.00,39.323
599.00,39.348
600.00,39.436
601.00,39.539
602.00,39.602
603.00,39.627
604.00,39.648
605.00,39.707
606.00,39.777
607.00,39.817
608.00,39.936
609.00,39.885
610.00,39.877
611.00,39.942
612.00,39.971
613.00,40.002
614.00,40.059
615.00,40.106
616.00,40.210
617.00,40.260
618.00,40.262
619.00,40.383
620.00,40.433
621.00,40.424
622.00,40.494
623.00,40.573
624.00,40.625
625.00,40.741
626.00,40.690
627.00,40.787
628.00,40.811
629.00,40.863
630.00,40.985
631.00,41.011
632.00,41.054
633.00,41.159
634.00,41.185
635.00,41.237
636.00,41.362
637.00,41.449
638.00,41.517
639.00,41.591
640.00,41.597
641.00,41.683
642.00,41.723
643.00,41.781
644.00,41.937
645.00,41.912
646.00,42.030
647.00,42.076
648.00,42.158
649.00,42.260
650.00,42.259
651.00,42.391
652.00,42.391
653.00,42.462
654.00,42.576
655.00,42.378
656.00,42.670
657.00,41.901
658.00,42.844
659.00,43.046
660.00,43.178
661.00,43.205
662.00,42.848
663.00,43.280
664.00,43.525
665.00,43.493
666.00,43.555
667.00,43.704
668.00,43.744
669.00,43.842
670.00,43.944
671.00,43.960
672.00,43.999
673.00,44.161
674.00,44.262
675.00,44.276
676.00,44.429
677.00,44.470
678.00,44.375
679.00,44.448
680.00,44.497
681.00,44.605
682.00,44.708
683.00,44.780
684.00,45.033
685.00,44.983
686.00,44.885
687.00,45.065
688.00,45.245
689.00,45.272
690.00,45.229
691.00,45.474
692.00,45.279
693.00,45.425
694.00,45.486
695.00,45.602
696.00,45.606
697.00,45.826
698.00,45.863
699.00,46.011
700.00,46.110
701.00,46.052
702.00,46.183
703.00,46.396
704.00,46.386
705.00,46.299
706.00,46.440
707.00,46.676
708.00,46.518
709.00,46.663
710.00,46.895
711.00,46.821
712.00,46.744
713.00,46.924
714.00,46.892
715.00,46.964
716.00,47.056
717.00,46.940
718.00,47.116
719.00,47.133
720.00,47.250
721.00,51.406
722.00,51.386
723.00,51.435
724.00,51.455
725.00,51.400
726.00,51.457
727.00,51.422
728.00,51.444
729.00,51.485
730.00,51.528
731.00,51.521
732.00,51.581
733.00,51.570
734.00,51.542
735.00,51.611
736.00,51.666
737.00,51.651
738.00,51.691
739.00,51.724
740.00,51.790
741.00,51.749
742.00,51.806
743.00,51.748
744.00,51.683
745.00,51.743
746.00,51.788
747.00,51.759
748.00,51.695
749.00,51.671
750.00,51.728
751.00,51.704
752.00,51.737
753.00,51.664
754.00,51.654
755.00,51.773
756.00,51.702
757.00,51.747
758.00,51.739
759.00,51.781
760.00,51.792
761.00,51.784
762.00,51.726
763.00,51.775
764.00,51.852
765.00,51.752
766.00,51.791
767.00,51.814
768.00,51.851
769.00,51.825
770.00,51.842
771.00,51.849
772.00,51.933
773.00,51.937
774.00,51.863
775.00,51.897
776.00,51.899
777.00,51.905
778.00,51.883
779.00,51.807
780.00,51.824
781.00,51.835
782.00,51.950
783.00,51.768
784.00,51.895
785.00,51.848
786.00,51.803
787.00,51.838
788.00,51.815
789.00,51.757
790.00,51.750
791.00,51.822
792.00,51.727
793.00,51.700
794.00,51.781
795.00,51.695
796.00,51.698
797.00,51.649
798.00,51.677
799.00,51.656
800.00,51.638
801.00,51.609
802.00,51.636
803.00,51.593
804.00,51.579
805.00,51.534
806.00,51.568
807.00,51.507
808.00,51.526
809.00,51.496
810.00,51.483
811.00,51.430
812.00,51.513
813.00,51.516
814.00,51.391
815.00,51.494
816.00,51.436
817.00,51.368
818.00,51.344
819.00,51.383
820.00,51.345
821.00,51.287
822.00,51.394
823.00,51.225
824.00,51.324
825.00,51.280
826.00,51.248
827.00,51.353
828.00,51.229
829.00,51.253
830.00,51.259
831.00,53.742
832.00,53.753
833.00,53.690
834.00,53.683
835.00,53.668
836.00,53.655
837.00,53.630
838.00,53.604
839.00,53.620
840.00,53.555
841.00,53.573
842.00,53.543
843.00,53.525
844.00,53.554
845.00,53.464
846.00,53.487
847.00,53.452
848.00,53.459
849.00,53.371
850.00,53.348
851.00,53.317
852.00,53.327
853.00,53.265
854.00,53.231
855.00,53.176
856.00,53.189
857.00,53.159
858.00,53.080
859.00,53.107
860.00,53.087
861.00,53.066
862.00,53.033
863.00,53.053
864.00,53.012
865.00,53.023
866.00,53.016
867.00,52.991
868.00,52.952
869.00,52.938
870.00,52.981
871.00,52.940
872.00,52.936
873.00,52.892
874.00,52.929
875.00,52.896
876.00,52.918
877.00,52.843
878.00,52.901
879.00,52.859
880.00,52.824
881.00,52.885
882.00,52.853
883.00,52.767
884.00,52.751
885.00,52.710
886.00,52.713
887.00,52.714
888.00,52.672
889.00,52.642
890.00,52.663
891.00,52.620
892.00,52.583
893.00,52.582
894.00,52.597
895.00,52.545
896.00,52.520
897.00,52.498
898.00,52.457
899.00,52.462
900.00,52.453
901.00,52.429
902.00,52.443
903.00,52.374
904.00,52.377
905.00,52.383
906.00,52.354
907.00,52.350
908.00,52.271
909.00,52.288
910.00,52.248
911.00,52.264
912.00,52.258
913.00,52.207
914.00,52.202
915.00,52.172
916.00,52.165
917.00,52.105
918.00,52.139
919.00,52.083
920.00,52.015
921.00,52.022
922.00,52.048
923.00,52.019
924.00,51.999
925.00,51.986
926.00,51.995
927.00,51.945
928.00,51.918
929.00,51.915
930.00,51.903
931.00,51.884
932.00,51.841
933.00,51.853
934.00,51.857
935.00,51.772
936.00,51.843
937.00,51.778
938.00,51.770
939.00,51.751
940.00,51.720
941.00,51.714
942.00,51.682
943.00,51.657
944.00,51.634
945.00,51.613
946.00,51.629
947.00,51.585
948.00,51.513
949.00,51.595
950.00,51.528
951.00,51.497
952.00,51.454
953.00,51.440
954.00,51.419
955.00,51.385
956.00,51.377
957.00,51.341
958.00,51.341
959.00,51.294
960.00,51.280
961.00,51.271
962.00,51.264
963.00,51.220
964.00,51.217
965.00,51.228
966.00,51.208
967.00,51.203
968.00,51.179
969.00,51.206
970.00,51.174
971.00,51.168
972.00,51.145
973.00,51.176
974.00,51.206
975.00,51.142
976.00,51.185
977.00,51.161
978.00,51.206
979.00,51.159
980.00,51.183
981.00,51.185
982.00,51.148
983.00,51.170
984.00,51.146
985.00,51.159
986.00,51.109
987.00,51.133
988.00,51.114
989.00,51.078
990.00,51.090
991.00,51.063
992.00,51.078
993.00,51.061
994.00,51.050
995.00,51.047
996.00,51.015
997.00,51.028
998.00,50.987
999.00,51.006
1000.00,50.952
1001.00,50.958
1002.00,50.959
1003.00,50.935
1004.00,50.929
1005.00,50.902
1006.00,50.933
1007.00,50.892
1008.00,50.876
1009.00,50.870
1010.00,50.846
1011.00,50.836
1012.00,50.806
1013.00,50.804
1014.00,50.760
1015.00,50.779
1016.00,50.740
1017.00,50.736
1018.00,50.728
1019.00,50.684
1020.00,50.693
1021.00,50.670
1022.00,50.673
1023.00,50.619
1024.00,50.639
1025.00,50.609
1026.00,50.595
1027.00,50.580
1028.00,50.565
1029.00,50.559
1030.00,50.520
1031.00,50.521
1032.00,50.489
1033.00,50.492
1034.00,50.464
1035.00,50.433
1036.00,50.431
1037.00,50.392
1038.00,50.372
1039.00,50.341
1040.00,50.359
1041.00,50.309
1042.00,50.304
1043.00,50.266
1044.00,50.289
1045.00,50.266
1046.00,50.294
1047.00,50.287
1048.00,50.286
1049.00,50.304
1050.00,50.309
1051.00,50.340
1052.00,50.346
1053.00,50.354
1054.00,50.349
1055.00,50.363
1056.00,50.367
1057.00,50.376
1058.00,50.350
1059.00,50.364
1060.00,50.375
1061.00,50.354
1062.00,50.336
1063.00,50.347
1064.00,50.340
1065.00,50.335
1066.00,50.329
1067.00,50.310
1068.00,50.333
1069.00,50.286
1070.00,50.273
1071.00,50.265
1072.00,50.268
1073.00,50.254
1074.00,50.256
1075.00,50.245
1076.00,50.238
1077.00,50.218
1078.00,50.210
1079.00,50.204
1080.00,50.193
1081.00,50.177
1082.00,50.168
1083.00,50.163
1084.00,50.157
1085.00,50.142
1086.00,50.143
1087.00,50.131
1088.00,50.117
1089.00,50.133
1090.00,50.101
1091.00,50.082
1092.00,50.081
1093.00,50.063
1094.00,50.058
1095.00,50.045
1096.00,50.009
1097.00,50.018
1098.00,50.015
1099.00,50.004
1100.00,49.985
1101.00,49.981
1102.00,49.967
1103.00,49.966
1104.00,49.962
1105.00,49.933
1106.00,49.926
1107.00,49.917
1108.00,49.926
1109.00,49.916
1110.00,49.915
1111.00,49.916
1112.00,49.896
1113.00,49.886
1114.00,49.873
1115.00,49.876
1116.00,49.869
1117.00,49.858
1118.00,49.855
1119.00,49.834
1120.00,49.833
1121.00,49.826
1122.00,49.799
1123.00,49.798
1124.00,49.802
1125.00,49.792
1126.00,49.801
1127.00,49.799
1128.00,49.783
1129.00,49.784
1130.00,49.751
1131.00,49.749
1132.00,49.742
1133.00,49.741
1134.00,49.730
1135.00,49.711
1136.00,49.722
1137.00,49.722
1138.00,49.712
1139.00,49.714
1140.00,49.690
1141.00,49.693
1142.00,49.690
1143.00,49.689
1144.00,49.672
1145.00,49.664
1146.00,49.665
1147.00,49.648
1148.00,49.644
1149.00,49.660
1150.00,49.673
1151.00,49.655
1152.00,49.635
1153.00,49.632
1154.00,49.622
1155.00,49.640
1156.00,49.630
1157.00,49.630
1158.00,49.618
1159.00,49.605
1160.00,49.618
1161.00,49.614
1162.00,49.602
1163.00,49.603
1164.00,49.621
1165.00,49.616
1166.00,49.595
1167.00,49.608
1168.00,49.600
1169.00,49.581
1170.00,49.598
1171.00,49.576
1172.00,49.585
1173.00,49.567
1174.00,49.575
1175.00,49.579
1176.00,49.567
1177.00,49.570
1178.00,49.566
1179.00,49.576
1180.00,49.561
1181.00,49.570
1182.00,49.562
1183.00,49.556
1184.00,49.541
1185.00,49.553
1186.00,49.538
1187.00,49.540
1188.00,49.538
1189.00,49.545
1190.00,49.547
1191.00,49.542
1192.00,49.555
1193.00,49.538
1194.00,49.552
1195.00,49.518
1196.00,49.543
1197.00,49.534
1198.00,49.520
1199.00,49.525
1200.00,49.516
1201.00,49.518
1202.00,49.503
1203.00,49.529
1204.00,49.502
1205.00,49.525
1206.00,49.510
1207.00,49.515
1208.00,49.507
1209.00,49.493
1210.00,49.520
1211.00,49.509
1212.00,49.511
1213.00,49.478
1214.00,49.505
1215.00,49.484
1216.00,49.490
1217.00,49.512
1218.00,49.498
1219.00,49.514
1220.00,49.489
1221.00,49.503
1222.00,49.488
1223.00,49.504
1224.00,49.501
1225.00,49.489
1226.00,49.511
1227.00,49.487
1228.00,49.496
1229.00,49.501
1230.00,49.529
1231.00,49.516
1232.00,49.529
1233.00,49.533
1234.00,49.533
1235.00,49.536
1236.00,49.548
1237.00,49.549
1238.00,49.539
1239.00,49.552
1240.00,49.535
1241.00,49.560
1242.00,49.543
1243.00,49.562
1244.00,49.534
1245.00,49.556
1246.00,49.561
1247.00,49.552
1248.00,49.551
1249.00,49.574
1250.00,49.579
1251.00,49.565
1252.00,49.585
1253.00,49.554
1254.00,49.582
1255.00,49.577
1256.00,49.556
1257.00,49.547
1258.00,49.573
1259.00,49.574
1260.00,49.590
1261.00,49.585
1262.00,49.582
1263.00,49.590
1264.00,49.596
1265.00,49.594
1266.00,49.601
1267.00,49.607
1268.00,49.629
1269.00,49.615
1270.00,49.626
1271.00,49.629
1272.00,49.636
1273.00,49.637
1274.00,49.645
1275.00,49.644
1276.00,49.643
1277.00,49.646
1278.00,49.653
1279.00,49.651
1280.00,49.652
1281.00,49.649
1282.00,49.670
1283.00,49.653
1284.00,49.667
1285.00,49.639
1286.00,49.648
1287.00,49.649
1288.00,49.659
1289.00,49.658
1290.00,49.674
1291.00,49.676
1292.00,49.686
1293.00,49.690
1294.00,49.709
1295.00,49.702
1296.00,49.714
1297.00,49.707
1298.00,49.723
1299.00,49.713
1300.00,49.720
1301.00,49.725
1302.00,49.735
1303.00,49.750
1304.00,49.724
1305.00,49.739
1306.00,49.748
1307.00,49.756
1308.00,49.755
1309.00,49.755
1310.00,49.760
1311.00,49.749
1312.00,49.740
1313.00,49.750
1314.00,49.764
1315.00,49.769
1316.00,49.776
1317.00,49.805
1318.00,49.795
1319.00,49.794
1320.00,49.826
1321.00,49.994
1322.00,50.003
1323.00,49.980
1324.00,49.982
1325.00,49.959
1326.00,49.991
1327.00,49.968
1328.00,49.972
1329.00,49.970
1330.00,49.978
1331.00,49.964
1332.00,49.976
1333.00,49.952
1334.00,50.031
1335.00,50.025
1336.00,50.051
1337.00,50.068
1338.00,50.139
1339.00,50.189
1340.00,50.244
1341.00,50.300
1342.00,50.389
1343.00,50.479
1344.00,50.458
1345.00,50.535
1346.00,50.564
1347.00,50.574
1348.00,50.606
1349.00,50.609
1350.00,50.624
1351.00,50.646
1352.00,50.657
1353.00,50.667
1354.00,50.682
1355.00,50.604
1356.00,50.689
1357.00,50.684
1358.00,50.705
1359.00,50.702
1360.00,50.782
1361.00,50.657
1362.00,50.626
1363.00,50.735
1364.00,50.665
1365.00,50.674
1366.00,50.751
1367.00,50.682
1368.00,50.623
1369.00,50.688
1370.00,50.683
1371.00,50.616
1372.00,50.648
1373.00,50.665
1374.00,50.675
1375.00,50.652
1376.00,50.658
1377.00,50.612
1378.00,50.720
1379.00,50.674
1380.00,50.674
1381.00,50.674
1382.00,50.570
1383.00,50.644
1384.00,50.575
1385.00,50.586
1386.00,50.681
1387.00,50.616
1388.00,50.592
1389.00,50.607
1390.00,50.683
1391.00,50.552
1392.00,50.629
1393.00,50.728
1394.00,50.618
1395.00,50.560
1396.00,50.563
1397.00,50.712
1398.00,50.774
1399.00,50.575
1400.00,50.508
1401.00,50.627
1402.00,50.753
1403.00,50.635
1404.00,50.595
1405.00,50.693
1406.00,50.639
1407.00,50.684
1408.00,50.627
1409.00,50.652
1410.00,50.698
1411.00,50.685
1412.00,50.769
1413.00,50.663
1414.00,50.660
1415.00,50.707
1416.00,50.761
1417.00,50.793
1418.00,50.737
1419.00,50.725
1420.00,50.787
1421.00,50.814
1422.00,50.808
1423.00,50.797
1424.00,50.816
1425.00,50.843
1426.00,50.846
1427.00,50.851
1428.00,50.873
1429.00,50.898
1430.00,50.890
1431.00,50.904
1432.00,50.913
1433.00,50.948
1434.00,50.930
1435.00,50.988
1436.00,50.996
1437.00,50.980
1438.00,50.999
1439.00,51.034
1440.00,51.037
1441.00,51.039
1442.00,51.047
1443.00,51.101
1444.00,51.153
1445.00,51.057
1446.00,51.099
1447.00,51.159
1448.00,51.179
1449.00,51.176
1450.00,51.162
1451.00,51.180
1452.00,51.208
1453.00,51.248
1454.00,51.235
1455.00,51.268
1456.00,51.278
1457.00,51.285
1458.00,51.297
1459.00,51.307
1460.00,51.309
1461.00,51.338
1462.00,51.338
1463.00,51.361
1464.00,51.393
1465.00,51.387
1466.00,51.399
1467.00,51.424
1468.00,51.458
1469.00,51.440
1470.00,51.444
1471.00,51.458
1472.00,51.474
1473.00,51.467
1474.00,51.509
1475.00,51.520
1476.00,51.522
1477.00,51.535
1478.00,51.553
1479.00,51.565
1480.00,51.564
1481.00,51.551
1482.00,51.592
1483.00,51.611
1484.00,51.607
1485.00,51.639
1486.00,51.646
1487.00,51.648
1488.00,51.689
1489.00,51.691
1490.00,51.698
1491.00,51.713
1492.00,51.715
1493.00,51.712
1494.00,51.736
1495.00,51.729
1496.00,51.755
1497.00,51.770
1498.00,51.758
1499.00,51.790
1500.00,51.804
1501.00, 
1502.00, 
1503.00, 
1504.00, 
1505.00, 
1506.00, 
1507.00, 
1508.00, 
1509.00, 
1510.00, 
1511.00, 
1512.00, 
1513.00, 
1514.00, 
1515.00, 
1516.00, 
1517.00, 
1518.00, 
1519.00, 
1520.00, 
1521.00, 
1522.00, 
1523.00, 
1524.00, 
1525.00, 
1526.00, 
1527.00, 
1528.00, 
1529.00, 
1530.00, 
1531.00, 
1532.00, 
1533.00, 
1534.00, 
1535.00, 
1536.00, 
1537.00, 
1538.00, 
1539.00, 
1540.00, 
1541.00, 
1542.00, 
1543.00, 
1544.00, 
1545.00, 
1546.00, 
1547.00, 
1548.00, 
1549.00, 
1550.00, 
1551.00, 
1552.00, 
1553.00, 
1554.00, 
1555.00, 
1556.00, 
1557.00, 
1558.00, 
1559.00, 
1560.00, 
1561.00, 
1562.00, 
1563.00, 
1564.00, 
1565.00, 
1566.00, 
1567.00, 
1568.00, 
1569.00, 
1570.00, 
1571.00, 
1572.00, 
1573.00, 
1574.00, 
1575.00, 
1576.00, 
1577.00, 
1578.00, 
1579.00, 
1580.00, 
1581.00, 
1582.00, 
1583.00, 
1584.00, 
1585.00, 
1586.00, 
1587.00, 
1588.00, 
1589.00, 
1590.00, 
1591.00, 
1592.00, 
1593.00, 
1594.00, 
1595.00, 
1596.00, 
1597.00, 
1598.00, 
1599.00, 
1600.00, 
1601.00, 
1602.00, 
1603.00, 
1604.00, 
1605.00, 
1606.00, 
1607.00, 
1608.00, 
1609.00, 
1610.00, 
1611.00, 
1612.00, 
1613.00, 
1614.00, 
1615.00, 
1616.00, 
1617.00, 
1618.00, 
1619.00, 
1620.00, 
1621.00, 
1622.00, 
1623.00, 
1624.00, 
1625.00, 
1626.00, 
1627.00, 
1628.00, 
1629.00, 
1630.00, 
1631.00, 
1632.00, 
1633.00, 
1634.00, 
1635.00, 
1636.00, 
1637.00, 
1638.00, 
1639.00, 
1640.00, 
1641.00, 
1642.00, 
1643.00, 
1644.00, 
1645.00, 
1646.00, 
1647.00, 
1648.00, 
1649.00, 
1650.00, 
1651.00, 
1652.00, 
1653.00, 
1654.00, 
1655.00, 
1656.00, 
1657.00, 
1658.00, 
1659.00, 
1660.00, 
1661.00, 
1662.00, 
1663.00, 
1664.00, 
1665.00, 
1666.00, 
1667.00, 
1668.00, 
1669.00, 
1670.00, 
1671.00, 
1672.00, 
1673.00, 
1674.00, 
1675.00, 
1676.00, 
1677.00, 
1678.00, 
1679.00, 
1680.00, 
1681.00, 
1682.00, 
1683.00, 
1684.00, 
1685.00, 
1686.00, 
1687.00, 
1688.00, 
1689.00, 
1690.00, 
1691.00, 
1692.00, 
1693.00, 
1694.00, 
1695.00, 
1696.00, 
1697.00, 
1698.00, 
1699.00, 
1700.00, 
1701.00, 
1702.00, 
1703.00, 
1704.00, 
1705.00, 
1706.00, 
1707.00, 
1708.00, 
1709.00, 
1710.00, 
1711.00, 
1712.00, 
1713.00, 
1714.00, 
1715.00, 
1716.00, 
1717.00, 
1718.00, 
1719.00, 
1720.00, 
1721.00, 
1722.00, 
1723.00, 
1724.00, 
1725.00, 
1726.00, 
1727.00, 
1728.00, 
1729.00, 
1730.00, 
1731.00, 
1732.00, 
1733.00, 
1734.00, 
1735.00, 
1736.00, 
1737.00, 
1738.00, 
1739.00, 
1740.00, 
1741.00, 
1742.00, 
1743.00, 
1744.00, 
1745.00, 
1746.00, 
1747.00, 
1748.00, 
1749.00, 
1750.00, 
1751.00, 
1752.00, 
1753.00, 
1754.00, 
1755.00, 
1756.00, 
1757.00, 
1758.00, 
1759.00, 
1760.00, 
1761.00, 
1762.00, 
1763.00, 
1764.00, 
1765.00, 
1766.00, 
1767.00, 
1768.00, 
1769.00, 
1770.00, 
1771.00, 
1772.00, 
1773.00, 
1774.00, 
1775.00, 
1776.00, 
1777.00, 
1778.00, 
1779.00, 
1780.00, 
1781.00, 
1782.00, 
1783.00, 
1784.00, 
1785.00, 
1786.00, 
1787.00, 
1788.00, 
1789.00, 
1790.00, 
1791.00, 
1792.00, 
1793.00, 
1794.00, 
1795.00, 
1796.00, 
1797.00, 
1798.00, 
1799.00, 
1800.00, 
1801.00, 
1802.00, 
1803.00, 
1804.00, 
1805.00, 
1806.00, 
1807.00, 
1808.00, 
1809.00, 
1810.00, 
1811.00, 
1812.00, 
1813.00, 
1814.00, 
1815.00, 
1816.00, 
1817.00, 
1818.00, 
1819.00, 
1820.00, 
1821.00, 
1822.00, 
1823.00, 
1824.00, 
1825.00, 
1826.00, 
1827.00, 
1828.00, 
1829.00, 
1830.00, 
1831.00, 
1832.00, 
1833.00, 
1834.00, 
1835.00, 
1836.00, 
1837.00, 
1838.00, 
1839.00, 
1840.00, 
1841.00, 
1842.00, 
1843.00, 
1844.00, 
1845.00, 
1846.00, 
1847.00, 
1848.00, 
1849.00, 
1850.00, 
1851.00, 
1852.00, 
1853.00, 
1854.00, 
1855.00, 
1856.00, 
1857.00, 
1858.00, 
1859.00, 
1860.00, 
1861.00, 
1862.00, 
1863.00, 
1864.00, 
1865.00, 
1866.00, 
1867.00, 
1868.00, 
1869.00, 
1870.00, 
1871.00, 
1872.00, 
1873.00, 
1874.00, 
1875.00, 
1876.00, 
1877.00, 
1878.00, 
1879.00, 
1880.00, 
1881.00, 
1882.00, 
1883.00, 
1884.00, 
1885.00, 
1886.00, 
1887.00, 
1888.00, 
1889.00, 
1890.00, 
1891.00, 
1892.00, 
1893.00, 
1894.00, 
1895.00, 
1896.00, 
1897.00, 
1898.00, 
1899.00, 
1900.00, 
1901.00, 
1902.00, 
1903.00, 
1904.00, 
1905.00, 
1906.00, 
1907.00, 
1908.00, 
1909.00, 
1910.00, 
1911.00, 
1912.00, 
1913.00, 
1914.00, 
1915.00, 
1916.00, 
1917.00, 
1918.00, 
1919.00, 
1920.00, 
1921.00, 
1922.00, 
1923.00, 
1924.00, 
1925.00, 
1926.00, 
1927.00, 
1928.00, 
1929.00, 
1930.00, 
1931.00, 
1932.00, 
1933.00, 
1934.00, 
1935.00, 
1936.00, 
1937.00, 
1938.00, 
1939.00, 
1940.00, 
1941.00, 
1942.00, 
1943.00, 
1944.00, 
1945.00, 
1946.00, 
1947.00, 
1948.00, 
1949.00, 
1950.00, 
1951.00, 
1952.00, 
1953.00, 
1954.00, 
1955.00, 
1956.00, 
1957.00, 
1958.00, 
1959.00, 
1960.00, 
1961.00, 
1962.00, 
1963.00, 
1964.00, 
1965.00, 
1966.00, 
1967.00, 
1968.00, 
1969.00, 
1970.00, 
1971.00, 
1972.00, 
1973.00, 
1974.00, 
1975.00, 
1976.00, 
1977.00, 
1978.00, 
1979.00, 
1980.00, 
1981.00, 
1982.00, 
1983.00, 
1984.00, 
1985.00, 
1986.00, 
1987.00, 
1988.00, 
1989.00, 
1990.00, 
1991.00, 
1992.00, 
1993.00, 
1994.00, 
1995.00, 
1996.00, 
1997.00, 
1998.00, 
1999.00, 
2000.00, 
2001.00, 
2002.00, 
2003.00, 
2004.00, 
2005.00, 
2006.00, 
2007.00, 
2008.00, 
2009.00, 
2010.00, 
2011.00, 
2012.00, 
2013.00, 
2014.00, 
2015.00, 
2016.00, 
2017.00, 
2018.00, 
2019.00, 
2020.00, 
2021.00, 
2022.00, 
2023.00, 
2024.00, 
2025.00, 
2026.00, 
2027.00, 
2028.00, 
2029.00, 
2030.00, 
2031.00, 
2032.00, 
2033.00, 
2034.00, 
2035.00, 
2036.00, 
2037.00, 
2038.00, 
2039.00, 
2040.00, 
2041.00, 
2042.00, 
2043.00, 
2044.00, 
2045.00, 
2046.00, 
2047.00, 
2048.00, 
2049.00, 
2050.00, 
2051.00, 
2052.00, 
2053.00, 
2054.00, 
2055.00, 
2056.00, 
2057.00, 
2058.00, 
2059.00, 
2060.00, 
2061.00, 
2062.00, 
2063.00, 
2064.00, 
2065.00, 
2066.00, 
2067.00, 
2068.00, 
2069.00, 
2070.00, 
2071.00, 
2072.00, 
2073.00, 
2074.00, 
2075.00, 
2076.00, 
2077.00, 
2078.00, 
2079.00, 
2080.00, 
2081.00, 
2082.00, 
2083.00, 
2084.00, 
2085.00, 
2086.00, 
2087.00, 
2088.00, 
2089.00, 
2090.00, 
2091.00, 
2092.00, 
2093.00, 
2094.00, 
2095.00, 
2096.00, 
2097.00, 
2098.00, 
2099.00, 
2100.00, 
2101.00, 
2102.00, 
2103.00, 
2104.00, 
2105.00, 
2106.00, 
2107.00, 
2108.00, 
2109.00, 
2110.00, 
2111.00, 
2112.00, 
2113.00, 
2114.00, 
2115.00, 
2116.00, 
2117.00, 
2118.00, 
2119.00, 
2120.00, 
2121.00, 
2122.00, 
2123.00, 
2124.00, 
2125.00, 
2126.00, 
2127.00, 
2128.00, 
2129.00, 
2130.00, 
2131.00, 
2132.00, 
2133.00, 
2134.00, 
2135.00, 
2136.00, 
2137.00, 
2138.00, 
2139.00, 
2140.00, 
2141.00, 
2142.00, 
2143.00, 
2144.00, 
2145.00, 
2146.00, 
2147.00, 
2148.00, 
2149.00, 
2150.00, 
2151.00, 
2152.00, 
2153.00, 
2154.00, 
2155.00, 
2156.00, 
2157.00, 
2158.00, 
2159.00, 
2160.00, 
2161.00, 
2162.00, 
2163.00, 
2164.00, 
2165.00, 
2166.00, 
2167.00, 
2168.00, 
2169.00, 
2170.00, 
2171.00, 
2172.00, 
2173.00, 
2174.00, 
2175.00, 
2176.00, 
2177.00, 
2178.00, 
2179.00, 
2180.00, 
2181.00, 
2182.00, 
2183.00, 
2184.00, 
2185.00, 
2186.00, 
2187.00, 
2188.00, 
2189.00, 
2190.00, 
2191.00, 
2192.00, 
2193.00, 
2194.00, 
2195.00, 
2196.00, 
2197.00, 
2198.00, 
2199.00, 
2200.00, 
2201.00, 
2202.00, 
2203.00, 
2204.00, 
2205.00, 
2206.00, 
2207.00, 
2208.00, 
2209.00, 
2210.00, 
2211.00, 
2212.00, 
2213.00, 
2214.00, 
2215.00, 
2216.00, 
2217.00, 
2218.00, 
2219.00, 
2220.00, 
2221.00, 
2222.00, 
2223.00, 
2224.00, 
2225.00, 
2226.00, 
2227.00, 
2228.00, 
2229.00, 
2230.00, 
2231.00, 
2232.00, 
2233.00, 
2234.00, 
2235.00, 
2236.00, 
2237.00, 
2238.00, 
2239.00, 
2240.00, 
2241.00, 
2242.00, 
2243.00, 
2244.00, 
2245.00, 
2246.00, 
2247.00, 
2248.00, 
2249.00, 
2250.00, 
2251.00, 
2252.00, 
2253.00, 
2254.00, 
2255.00, 
2256.00, 
2257.00, 
2258.00, 
2259.00, 
2260.00, 
2261.00, 
2262.00, 
2263.00, 
2264.00, 
2265.00, 
2266.00, 
2267.00, 
2268.00, 
2269.00, 
2270.00, 
2271.00, 
2272.00, 
2273.00, 
2274.00, 
2275.00, 
2276.00, 
2277.00, 
2278.00, 
2279.00, 
2280.00, 
2281.00, 
2282.00, 
2283.00, 
2284.00, 
2285.00, 
2286.00, 
2287.00, 
2288.00, 
2289.00, 
2290.00, 
2291.00, 
2292.00, 
2293.00, 
2294.00, 
2295.00, 
2296.00, 
2297.00, 
2298.00, 
2299.00, 
2300.00, 
2301.00, 
2302.00, 
2303.00, 
2304.00, 
2305.00, 
2306.00, 
2307.00, 
2308.00, 
2309.00, 
2310.00, 
2311.00, 
2312.00, 
2313.00, 
2314.00, 
2315.00, 
2316.00, 
2317.00, 
2318.00, 
2319.00, 
2320.00, 
2321.00, 
2322.00, 
2323.00, 
2324.00, 
2325.00, 
2326.00, 
2327.00, 
2328.00, 
2329.00, 
2330.00, 
2331.00, 
2332.00, 
2333.00, 
2334.00, 
2335.00, 
2336.00, 
2337.00, 
2338.00, 
2339.00, 
2340.00, 
2341.00, 
2342.00, 
2343.00, 
2344.00, 
2345.00, 
2346.00, 
2347.00, 
2348.00, 
2349.00, 
2350.00, 
2351.00, 
2352.00, 
2353.00, 
2354.00, 
2355.00, 
2356.00, 
2357.00, 
2358.00, 
2359.00, 
2360.00, 
2361.00, 
2362.00, 
2363.00, 
2364.00, 
2365.00, 
2366.00, 
2367.00, 
2368.00, 
2369.00, 
2370.00, 
2371.00, 
2372.00, 
2373.00, 
2374.00, 
2375.00, 
2376.00, 
2377.00, 
2378.00, 
2379.00, 
2380.00, 
2381.00, 
2382.00, 
2383.00, 
2384.00, 
2385.00, 
2386.00, 
2387.00, 
2388.00, 
2389.00, 
2390.00, 
2391.00, 
2392.00, 
2393.00, 
2394.00, 
2395.00, 
2396.00, 
2397.00, 
2398.00, 
2399.00, 
2400.00, 
2401.00, 
2402.00, 
2403.00, 
2404.00, 
2405.00, 
2406.00, 
2407.00, 
2408.00, 
2409.00, 
2410.00, 
2411.00, 
2412.00, 
2413.00, 
2414.00, 
2415.00, 
2416.00, 
2417.00, 
2418.00, 
2419.00, 
2420.00, 
2421.00, 
2422.00, 
2423.00, 
2424.00, 
2425.00, 
2426.00, 
2427.00, 
2428.00, 
2429.00, 
2430.00, 
2431.00, 
2432.00, 
2433.00, 
2434.00, 
2435.00, 
2436.00, 
2437.00, 
2438.00, 
2439.00, 
2440.00, 
2441.00, 
2442.00, 
2443.00, 
2444.00, 
2445.00, 
2446.00, 
2447.00, 
2448.00, 
2449.00, 
2450.00, 
2451.00, 
2452.00, 
2453.00, 
2454.00, 
2455.00, 
2456.00, 
2457.00, 
2458.00, 
2459.00, 
2460.00, 
2461.00, 
2462.00, 
2463.00, 
2464.00, 
2465.00, 
2466.00, 
2467.00, 
2468.00, 
2469.00, 
2470.00, 
2471.00, 
2472.00, 
2473.00, 
2474.00, 
2475.00, 
2476.00, 
2477.00, 
2478.00, 
2479.00, 
2480.00, 
2481.00, 
2482.00, 
2483.00, 
2484.00, 
2485.00, 
2486.00, 
2487.00, 
2488.00, 
2489.00, 
2490.00, 
2491.00, 
2492.00, 
2493.00, 
2494.00, 
2495.00, 
2496.00, 
2497.00, 
2498.00, 
2499.00, 
2500.00, 
2501.00, 
2502.00, 
2503.00, 
2504.00, 
2505.00, 
2506.00, 
2507.00, 
2508.00, 
2509.00, 
2510.00, 
2511.00, 
2512.00, 
2513.00, 
2514.00, 
2515.00, 
2516.00, 
2517.00, 
2518.00, 
2519.00, 
2520.00, 
2521.00, 
2522.00, 
2523.00, 
2524.00, 
2525.00, 
2526.00, 
2527.00, 
2528.00, 
2529.00, 
2530.00, 
2531.00, 
2532.00, 
2533.00, 
2534.00, 
2535.00, 
2536.00, 
2537.00, 
2538.00, 
2539.00, 
2540.00, 
2541.00, 
2542.00, 
2543.00, 
2544.00, 
2545.00, 
2546.00, 
2547.00, 
2548.00, 
2549.00, 
2550.00, 
2551.00, 
2552.00, 
2553.00, 
2554.00, 
2555.00, 
2556.00, 
2557.00, 
2558.00, 
2559.00, 
2560.00, 
2561.00, 
2562.00, 
2563.00, 
2564.00, 
2565.00, 
2566.00, 
2567.00, 
2568.00, 
2569.00, 
2570.00, 
2571.00, 
2572.00, 
2573.00, 
2574.00, 
2575.00, 
2576.00, 
2577.00, 
2578.00, 
2579.00, 
2580.00, 
2581.00, 
2582.00, 
2583.00, 
2584.00, 
2585.00, 
2586.00, 
2587.00, 
2588.00, 
2589.00, 
2590.00, 
2591.00, 
2592.00, 
2593.00, 
2594.00, 
2595.00, 
2596.00, 
2597.00, 
2598.00, 
2599.00, 
2600.00, 
