"2cP4 - RawData"
"Wavelength nm.","T%"
200.00,0.002
201.00,0.002
202.00,-0.001
203.00,-0.001
204.00,0.002
205.00,-0.001
206.00,-0.001
207.00,0.005
208.00,0.001
209.00,0.000
210.00,0.002
211.00,-0.000
212.00,0.002
213.00,-0.001
214.00,0.000
215.00,0.001
216.00,-0.001
217.00,0.001
218.00,0.001
219.00,0.003
220.00,-0.000
221.00,0.004
222.00,0.000
223.00,-0.001
224.00,0.002
225.00,0.000
226.00,-0.001
227.00,0.001
228.00,0.002
229.00,0.001
230.00,0.000
231.00,0.000
232.00,-0.001
233.00,0.002
234.00,0.002
235.00,0.001
236.00,0.000
237.00,-0.001
238.00,0.002
239.00,0.002
240.00,-0.001
241.00,-0.001
242.00,0.001
243.00,0.002
244.00,0.002
245.00,0.002
246.00,-0.000
247.00,0.000
248.00,0.000
249.00,-0.002
250.00,-0.000
251.00,0.001
252.00,0.003
253.00,0.000
254.00,0.000
255.00,-0.000
256.00,0.001
257.00,-0.001
258.00,0.001
259.00,-0.000
260.00,0.001
261.00,-0.001
262.00,0.001
263.00,-0.000
264.00,0.000
265.00,0.000
266.00,-0.001
267.00,0.002
268.00,0.001
269.00,-0.001
270.00,-0.001
271.00,0.001
272.00,0.000
273.00,0.000
274.00,0.002
275.00,-0.000
276.00,-0.001
277.00,-0.000
278.00,0.001
279.00,-0.000
280.00,-0.002
281.00,0.001
282.00,0.000
283.00,0.001
284.00,-0.001
285.00,0.001
286.00,0.001
287.00,0.000
288.00,-0.002
289.00,-0.001
290.00,-0.001
291.00,-0.000
292.00,-0.000
293.00,0.002
294.00,0.001
295.00,0.002
296.00,0.002
297.00,0.001
298.00,0.000
299.00,0.002
300.00,0.001
301.00,0.004
302.00,0.006
303.00,0.007
304.00,0.009
305.00,0.016
306.00,0.025
307.00,0.036
308.00,0.055
309.00,0.086
310.00,0.122
311.00,0.164
312.00,0.222
313.00,0.304
314.00,0.382
315.00,0.512
316.00,0.655
317.00,0.838
318.00,1.029
319.00,1.261
320.00,1.531
321.00,1.823
322.00,2.164
323.00,2.544
324.00,2.931
325.00,3.348
326.00,3.797
327.00,4.292
328.00,4.777
329.00,5.269
330.00,5.817
331.00,6.336
332.00,6.896
333.00,7.480
334.00,7.990
335.00,8.580
336.00,9.132
337.00,9.701
338.00,10.247
339.00,10.716
340.00,11.257
341.00,11.786
342.00,12.247
343.00,12.744
344.00,13.164
345.00,13.575
346.00,13.961
347.00,14.342
348.00,14.680
349.00,15.013
350.00,15.335
351.00,15.627
352.00,15.885
353.00,16.130
354.00,16.314
355.00,16.593
356.00,16.804
357.00,17.014
358.00,17.196
359.00,17.344
360.00,17.490
361.00,17.574
362.00,17.730
363.00,17.834
364.00,17.958
365.00,18.049
366.00,18.068
367.00,18.143
368.00,18.187
369.00,18.260
370.00,18.267
371.00,18.299
372.00,18.274
373.00,18.273
374.00,18.288
375.00,18.261
376.00,18.177
377.00,18.158
378.00,18.105
379.00,18.061
380.00,18.027
381.00,17.996
382.00,17.983
383.00,17.978
384.00,18.002
385.00,18.037
386.00,18.051
387.00,18.051
388.00,18.076
389.00,18.087
390.00,18.133
391.00,18.126
392.00,18.135
393.00,18.126
394.00,18.157
395.00,18.125
396.00,18.128
397.00,18.139
398.00,18.125
399.00,18.166
400.00,18.157
401.00,18.153
402.00,18.127
403.00,18.093
404.00,18.110
405.00,18.078
406.00,18.081
407.00,18.051
408.00,18.059
409.00,18.029
410.00,17.992
411.00,17.972
412.00,18.007
413.00,17.998
414.00,17.986
415.00,18.012
416.00,18.039
417.00,18.047
418.00,18.094
419.00,18.115
420.00,18.147
421.00,18.197
422.00,18.231
423.00,18.267
424.00,18.307
425.00,18.313
426.00,18.352
427.00,18.390
428.00,18.443
429.00,18.501
430.00,18.529
431.00,18.551
432.00,18.630
433.00,18.684
434.00,18.729
435.00,18.791
436.00,18.818
437.00,18.914
438.00,19.008
439.00,19.069
440.00,19.156
441.00,19.243
442.00,19.330
443.00,19.422
444.00,19.500
445.00,19.585
446.00,19.675
447.00,19.780
448.00,19.870
449.00,19.979
450.00,20.094
451.00,20.172
452.00,20.302
453.00,20.396
454.00,20.544
455.00,20.652
456.00,20.735
457.00,20.896
458.00,20.980
459.00,21.081
460.00,21.191
461.00,21.308
462.00,21.488
463.00,21.575
464.00,21.733
465.00,21.879
466.00,21.889
467.00,22.112
468.00,22.222
469.00,22.349
470.00,22.473
471.00,22.617
472.00,22.664
473.00,22.843
474.00,22.982
475.00,23.073
476.00,23.217
477.00,23.333
478.00,23.463
479.00,23.602
480.00,23.740
481.00,23.855
482.00,24.052
483.00,24.195
484.00,24.324
485.00,24.516
486.00,24.663
487.00,24.812
488.00,24.980
489.00,25.146
490.00,25.320
491.00,25.466
492.00,25.630
493.00,25.799
494.00,25.914
495.00,25.990
496.00,26.065
497.00,26.221
498.00,26.431
499.00,26.543
500.00,26.687
501.00,26.808
502.00,26.931
503.00,27.103
504.00,27.178
505.00,27.327
506.00,27.419
507.00,27.512
508.00,27.661
509.00,27.898
510.00,28.019
511.00,28.114
512.00,28.243
513.00,28.382
514.00,28.511
515.00,28.606
516.00,28.737
517.00,28.867
518.00,28.992
519.00,29.103
520.00,29.167
521.00,29.253
522.00,29.341
523.00,29.421
524.00,29.501
525.00,29.625
526.00,29.693
527.00,29.855
528.00,29.968
529.00,30.089
530.00,30.158
531.00,30.329
532.00,30.400
533.00,30.532
534.00,30.594
535.00,30.678
536.00,30.783
537.00,30.821
538.00,30.977
539.00,31.052
540.00,31.068
541.00,31.156
542.00,31.189
543.00,31.242
544.00,31.427
545.00,31.479
546.00,31.496
547.00,31.650
548.00,31.697
549.00,31.776
550.00,31.883
551.00,31.969
552.00,32.016
553.00,32.106
554.00,32.190
555.00,32.244
556.00,32.314
557.00,32.373
558.00,32.405
559.00,32.472
560.00,32.576
561.00,32.569
562.00,32.710
563.00,32.784
564.00,32.795
565.00,32.814
566.00,32.877
567.00,32.882
568.00,32.947
569.00,33.089
570.00,32.992
571.00,33.075
572.00,33.154
573.00,33.116
574.00,33.221
575.00,33.246
576.00,33.203
577.00,33.389
578.00,33.414
579.00,33.455
580.00,33.544
581.00,33.640
582.00,33.769
583.00,33.812
584.00,33.895
585.00,33.950
586.00,33.955
587.00,34.049
588.00,34.122
589.00,34.135
590.00,34.166
591.00,34.201
592.00,34.221
593.00,34.281
594.00,34.356
595.00,34.377
596.00,34.500
597.00,34.525
598.00,34.614
599.00,34.617
600.00,34.697
601.00,34.785
602.00,34.828
603.00,34.867
604.00,34.918
605.00,34.992
606.00,35.039
607.00,35.090
608.00,35.219
609.00,35.179
610.00,35.189
611.00,35.291
612.00,35.345
613.00,35.330
614.00,35.454
615.00,35.468
616.00,35.611
617.00,35.619
618.00,35.683
619.00,35.753
620.00,35.827
621.00,35.849
622.00,35.907
623.00,35.997
624.00,36.079
625.00,36.147
626.00,36.213
627.00,36.278
628.00,36.311
629.00,36.386
630.00,36.511
631.00,36.536
632.00,36.584
633.00,36.712
634.00,36.805
635.00,36.851
636.00,36.991
637.00,37.120
638.00,37.165
639.00,37.312
640.00,37.333
641.00,37.382
642.00,37.509
643.00,37.494
644.00,37.688
645.00,37.758
646.00,37.828
647.00,37.911
648.00,38.015
649.00,38.140
650.00,38.190
651.00,38.303
652.00,38.440
653.00,38.488
654.00,38.670
655.00,38.638
656.00,38.899
657.00,38.808
658.00,39.012
659.00,39.190
660.00,39.324
661.00,39.400
662.00,39.528
663.00,39.565
664.00,39.847
665.00,39.835
666.00,39.946
667.00,40.097
668.00,40.173
669.00,40.374
670.00,40.432
671.00,40.540
672.00,40.670
673.00,40.687
674.00,40.879
675.00,40.960
676.00,41.033
677.00,41.236
678.00,41.148
679.00,41.320
680.00,41.432
681.00,41.528
682.00,41.647
683.00,41.785
684.00,42.034
685.00,42.079
686.00,42.089
687.00,42.224
688.00,42.358
689.00,42.395
690.00,42.596
691.00,42.674
692.00,42.740
693.00,42.872
694.00,42.941
695.00,43.013
696.00,43.164
697.00,43.354
698.00,43.476
699.00,43.743
700.00,43.864
701.00,43.788
702.00,43.971
703.00,44.166
704.00,44.232
705.00,44.247
706.00,44.477
707.00,44.528
708.00,44.390
709.00,44.657
710.00,44.909
711.00,44.870
712.00,44.822
713.00,45.130
714.00,45.005
715.00,45.094
716.00,45.316
717.00,45.184
718.00,45.305
719.00,45.440
720.00,45.502
721.00,49.741
722.00,49.792
723.00,49.789
724.00,49.898
725.00,49.851
726.00,49.872
727.00,49.949
728.00,49.963
729.00,50.049
730.00,50.063
731.00,50.220
732.00,50.269
733.00,50.256
734.00,50.338
735.00,50.407
736.00,50.402
737.00,50.494
738.00,50.600
739.00,50.568
740.00,50.658
741.00,50.621
742.00,50.751
743.00,50.706
744.00,50.752
745.00,50.855
746.00,50.848
747.00,50.923
748.00,50.891
749.00,50.843
750.00,51.032
751.00,50.945
752.00,50.988
753.00,51.041
754.00,50.936
755.00,51.059
756.00,51.049
757.00,51.085
758.00,51.161
759.00,51.242
760.00,51.238
761.00,51.215
762.00,51.240
763.00,51.303
764.00,51.378
765.00,51.312
766.00,51.366
767.00,51.351
768.00,51.447
769.00,51.447
770.00,51.480
771.00,51.438
772.00,51.537
773.00,51.574
774.00,51.587
775.00,51.634
776.00,51.597
777.00,51.644
778.00,51.638
779.00,51.619
780.00,51.608
781.00,51.651
782.00,51.749
783.00,51.633
784.00,51.705
785.00,51.627
786.00,51.717
787.00,51.699
788.00,51.722
789.00,51.697
790.00,51.676
791.00,51.746
792.00,51.660
793.00,51.683
794.00,51.704
795.00,51.701
796.00,51.709
797.00,51.642
798.00,51.726
799.00,51.686
800.00,51.724
801.00,51.613
802.00,51.711
803.00,51.677
804.00,51.649
805.00,51.636
806.00,51.638
807.00,51.609
808.00,51.612
809.00,51.611
810.00,51.581
811.00,51.569
812.00,51.679
813.00,51.636
814.00,51.640
815.00,51.697
816.00,51.686
817.00,51.592
818.00,51.566
819.00,51.538
820.00,51.539
821.00,51.564
822.00,51.560
823.00,51.469
824.00,51.558
825.00,51.582
826.00,51.584
827.00,51.655
828.00,51.495
829.00,51.483
830.00,51.386
831.00,53.669
832.00,53.688
833.00,53.602
834.00,53.633
835.00,53.622
836.00,53.602
837.00,53.597
838.00,53.577
839.00,53.576
840.00,53.503
841.00,53.551
842.00,53.506
843.00,53.506
844.00,53.530
845.00,53.440
846.00,53.490
847.00,53.472
848.00,53.419
849.00,53.374
850.00,53.355
851.00,53.317
852.00,53.328
853.00,53.269
854.00,53.259
855.00,53.197
856.00,53.216
857.00,53.213
858.00,53.123
859.00,53.112
860.00,53.117
861.00,53.152
862.00,53.065
863.00,53.121
864.00,53.198
865.00,53.083
866.00,53.068
867.00,53.074
868.00,53.058
869.00,53.009
870.00,53.043
871.00,53.034
872.00,53.050
873.00,52.988
874.00,53.042
875.00,53.016
876.00,53.018
877.00,52.964
878.00,52.953
879.00,53.062
880.00,52.957
881.00,52.944
882.00,52.969
883.00,52.940
884.00,52.887
885.00,52.865
886.00,52.850
887.00,52.854
888.00,52.824
889.00,52.776
890.00,52.809
891.00,52.759
892.00,52.713
893.00,52.712
894.00,52.749
895.00,52.685
896.00,52.665
897.00,52.644
898.00,52.623
899.00,52.638
900.00,52.607
901.00,52.590
902.00,52.622
903.00,52.531
904.00,52.559
905.00,52.588
906.00,52.515
907.00,52.461
908.00,52.455
909.00,52.460
910.00,52.465
911.00,52.431
912.00,52.444
913.00,52.405
914.00,52.412
915.00,52.389
916.00,52.356
917.00,52.334
918.00,52.309
919.00,52.296
920.00,52.259
921.00,52.248
922.00,52.256
923.00,52.230
924.00,52.195
925.00,52.207
926.00,52.194
927.00,52.173
928.00,52.123
929.00,52.145
930.00,52.109
931.00,52.114
932.00,52.033
933.00,52.057
934.00,52.172
935.00,51.986
936.00,52.002
937.00,51.995
938.00,51.982
939.00,51.986
940.00,51.937
941.00,51.938
942.00,51.907
943.00,51.883
944.00,51.857
945.00,51.836
946.00,51.847
947.00,51.786
948.00,51.759
949.00,51.783
950.00,51.775
951.00,51.738
952.00,51.709
953.00,51.700
954.00,51.669
955.00,51.631
956.00,51.625
957.00,51.589
958.00,51.608
959.00,51.540
960.00,51.527
961.00,51.526
962.00,51.520
963.00,51.472
964.00,51.479
965.00,51.575
966.00,51.454
967.00,51.452
968.00,51.413
969.00,51.467
970.00,51.429
971.00,51.430
972.00,51.407
973.00,51.429
974.00,51.456
975.00,51.384
976.00,51.436
977.00,51.420
978.00,51.448
979.00,51.402
980.00,51.440
981.00,51.457
982.00,51.394
983.00,51.449
984.00,51.395
985.00,51.415
986.00,51.364
987.00,51.370
988.00,51.351
989.00,51.320
990.00,51.338
991.00,51.327
992.00,51.328
993.00,51.297
994.00,51.297
995.00,51.343
996.00,51.270
997.00,51.271
998.00,51.227
999.00,51.263
1000.00,51.226
1001.00,51.223
1002.00,51.224
1003.00,51.199
1004.00,51.190
1005.00,51.164
1006.00,51.184
1007.00,51.147
1008.00,51.136
1009.00,51.109
1010.00,51.111
1011.00,51.100
1012.00,51.058
1013.00,51.076
1014.00,51.032
1015.00,51.039
1016.00,51.014
1017.00,50.997
1018.00,50.992
1019.00,50.948
1020.00,50.953
1021.00,50.937
1022.00,50.948
1023.00,50.895
1024.00,50.919
1025.00,50.904
1026.00,50.874
1027.00,50.861
1028.00,50.830
1029.00,50.825
1030.00,50.789
1031.00,50.778
1032.00,50.756
1033.00,50.767
1034.00,50.726
1035.00,50.698
1036.00,50.681
1037.00,50.660
1038.00,50.659
1039.00,50.624
1040.00,50.641
1041.00,50.592
1042.00,50.586
1043.00,50.559
1044.00,50.581
1045.00,50.542
1046.00,50.571
1047.00,50.574
1048.00,50.579
1049.00,50.598
1050.00,50.587
1051.00,50.625
1052.00,50.622
1053.00,50.624
1054.00,50.637
1055.00,50.652
1056.00,50.676
1057.00,50.664
1058.00,50.643
1059.00,50.637
1060.00,50.656
1061.00,50.626
1062.00,50.619
1063.00,50.627
1064.00,50.604
1065.00,50.600
1066.00,50.601
1067.00,50.581
1068.00,50.612
1069.00,50.568
1070.00,50.562
1071.00,50.570
1072.00,50.558
1073.00,50.522
1074.00,50.520
1075.00,50.503
1076.00,50.501
1077.00,50.495
1078.00,50.462
1079.00,50.479
1080.00,50.473
1081.00,50.443
1082.00,50.449
1083.00,50.437
1084.00,50.445
1085.00,50.453
1086.00,50.408
1087.00,50.416
1088.00,50.391
1089.00,50.381
1090.00,50.394
1091.00,50.384
1092.00,50.364
1093.00,50.359
1094.00,50.342
1095.00,50.345
1096.00,50.323
1097.00,50.320
1098.00,50.322
1099.00,50.313
1100.00,50.286
1101.00,50.287
1102.00,50.264
1103.00,50.260
1104.00,50.257
1105.00,50.233
1106.00,50.231
1107.00,50.234
1108.00,50.212
1109.00,50.218
1110.00,50.213
1111.00,50.195
1112.00,50.190
1113.00,50.175
1114.00,50.167
1115.00,50.188
1116.00,50.157
1117.00,50.165
1118.00,50.147
1119.00,50.133
1120.00,50.132
1121.00,50.118
1122.00,50.097
1123.00,50.105
1124.00,50.103
1125.00,50.090
1126.00,50.094
1127.00,50.081
1128.00,50.059
1129.00,50.048
1130.00,50.028
1131.00,50.044
1132.00,50.017
1133.00,50.016
1134.00,50.024
1135.00,49.988
1136.00,49.993
1137.00,50.010
1138.00,49.992
1139.00,50.012
1140.00,49.994
1141.00,49.985
1142.00,49.982
1143.00,50.000
1144.00,49.970
1145.00,49.965
1146.00,49.962
1147.00,49.952
1148.00,49.951
1149.00,49.941
1150.00,49.954
1151.00,49.954
1152.00,49.926
1153.00,49.935
1154.00,49.922
1155.00,49.925
1156.00,49.912
1157.00,49.925
1158.00,49.906
1159.00,49.907
1160.00,49.887
1161.00,49.896
1162.00,49.893
1163.00,49.875
1164.00,49.891
1165.00,49.883
1166.00,49.885
1167.00,49.903
1168.00,49.900
1169.00,49.877
1170.00,49.900
1171.00,49.865
1172.00,49.872
1173.00,49.862
1174.00,49.854
1175.00,49.862
1176.00,49.856
1177.00,49.852
1178.00,49.867
1179.00,49.860
1180.00,49.834
1181.00,49.869
1182.00,49.849
1183.00,49.849
1184.00,49.836
1185.00,49.839
1186.00,49.831
1187.00,49.836
1188.00,49.814
1189.00,49.820
1190.00,49.815
1191.00,49.822
1192.00,49.852
1193.00,49.821
1194.00,49.846
1195.00,49.813
1196.00,49.834
1197.00,49.841
1198.00,49.822
1199.00,49.815
1200.00,49.827
1201.00,49.830
1202.00,49.803
1203.00,49.825
1204.00,49.805
1205.00,49.822
1206.00,49.803
1207.00,49.796
1208.00,49.804
1209.00,49.800
1210.00,49.802
1211.00,49.796
1212.00,49.812
1213.00,49.765
1214.00,49.809
1215.00,49.775
1216.00,49.783
1217.00,49.800
1218.00,49.774
1219.00,49.802
1220.00,49.774
1221.00,49.776
1222.00,49.777
1223.00,49.799
1224.00,49.783
1225.00,49.774
1226.00,49.773
1227.00,49.769
1228.00,49.792
1229.00,49.782
1230.00,49.819
1231.00,49.809
1232.00,49.814
1233.00,49.828
1234.00,49.824
1235.00,49.824
1236.00,49.838
1237.00,49.834
1238.00,49.835
1239.00,49.859
1240.00,49.815
1241.00,49.850
1242.00,49.843
1243.00,49.837
1244.00,49.825
1245.00,49.836
1246.00,49.844
1247.00,49.842
1248.00,49.829
1249.00,49.848
1250.00,49.857
1251.00,49.843
1252.00,49.858
1253.00,49.847
1254.00,49.886
1255.00,49.847
1256.00,49.844
1257.00,49.849
1258.00,49.878
1259.00,49.852
1260.00,49.873
1261.00,49.875
1262.00,49.863
1263.00,49.875
1264.00,49.882
1265.00,49.880
1266.00,49.896
1267.00,49.896
1268.00,49.905
1269.00,49.910
1270.00,49.919
1271.00,49.905
1272.00,49.915
1273.00,49.915
1274.00,49.917
1275.00,49.932
1276.00,49.921
1277.00,49.940
1278.00,49.939
1279.00,49.938
1280.00,49.948
1281.00,49.946
1282.00,49.967
1283.00,49.942
1284.00,49.954
1285.00,49.946
1286.00,49.965
1287.00,49.944
1288.00,49.964
1289.00,49.964
1290.00,49.978
1291.00,49.984
1292.00,49.975
1293.00,49.985
1294.00,50.008
1295.00,50.000
1296.00,50.018
1297.00,50.011
1298.00,50.021
1299.00,50.005
1300.00,50.013
1301.00,50.001
1302.00,50.032
1303.00,50.037
1304.00,50.015
1305.00,50.042
1306.00,50.047
1307.00,50.061
1308.00,50.064
1309.00,50.058
1310.00,50.065
1311.00,50.040
1312.00,50.031
1313.00,50.057
1314.00,50.050
1315.00,50.073
1316.00,50.073
1317.00,50.093
1318.00,50.085
1319.00,50.099
1320.00,50.117
1321.00,50.285
1322.00,50.278
1323.00,50.262
1324.00,50.278
1325.00,50.248
1326.00,50.271
1327.00,50.276
1328.00,50.272
1329.00,50.262
1330.00,50.272
1331.00,50.248
1332.00,50.265
1333.00,50.252
1334.00,50.312
1335.00,50.311
1336.00,50.330
1337.00,50.357
1338.00,50.436
1339.00,50.472
1340.00,50.532
1341.00,50.591
1342.00,50.652
1343.00,50.712
1344.00,50.731
1345.00,50.809
1346.00,50.845
1347.00,50.851
1348.00,50.881
1349.00,50.893
1350.00,50.912
1351.00,50.933
1352.00,50.945
1353.00,50.939
1354.00,50.971
1355.00,50.900
1356.00,50.982
1357.00,50.984
1358.00,50.980
1359.00,51.001
1360.00,51.098
1361.00,50.964
1362.00,50.913
1363.00,51.049
1364.00,51.000
1365.00,50.969
1366.00,51.066
1367.00,50.978
1368.00,50.936
1369.00,50.996
1370.00,50.978
1371.00,50.907
1372.00,50.949
1373.00,50.954
1374.00,50.976
1375.00,50.939
1376.00,50.957
1377.00,50.930
1378.00,51.007
1379.00,50.972
1380.00,50.989
1381.00,50.956
1382.00,50.878
1383.00,50.937
1384.00,50.877
1385.00,50.885
1386.00,50.942
1387.00,50.958
1388.00,50.859
1389.00,50.871
1390.00,50.683
1391.00,50.887
1392.00,50.914
1393.00,50.954
1394.00,50.940
1395.00,50.882
1396.00,50.844
1397.00,50.969
1398.00,50.988
1399.00,50.851
1400.00,50.828
1401.00,50.926
1402.00,50.763
1403.00,50.912
1404.00,50.899
1405.00,50.971
1406.00,50.940
1407.00,50.989
1408.00,50.940
1409.00,50.953
1410.00,50.999
1411.00,51.006
1412.00,51.102
1413.00,50.941
1414.00,50.966
1415.00,51.030
1416.00,51.100
1417.00,51.079
1418.00,51.022
1419.00,51.018
1420.00,51.082
1421.00,51.117
1422.00,51.100
1423.00,51.112
1424.00,51.127
1425.00,51.146
1426.00,51.154
1427.00,51.164
1428.00,51.173
1429.00,51.187
1430.00,51.185
1431.00,51.211
1432.00,51.221
1433.00,51.240
1434.00,51.231
1435.00,51.283
1436.00,51.283
1437.00,51.285
1438.00,51.280
1439.00,51.327
1440.00,51.330
1441.00,51.321
1442.00,51.360
1443.00,51.397
1444.00,51.427
1445.00,51.384
1446.00,51.396
1447.00,51.451
1448.00,51.484
1449.00,51.476
1450.00,51.458
1451.00,51.474
1452.00,51.487
1453.00,51.530
1454.00,51.532
1455.00,51.539
1456.00,51.576
1457.00,51.554
1458.00,51.583
1459.00,51.597
1460.00,51.604
1461.00,51.625
1462.00,51.640
1463.00,51.641
1464.00,51.675
1465.00,51.679
1466.00,51.678
1467.00,51.718
1468.00,51.766
1469.00,51.738
1470.00,51.759
1471.00,51.762
1472.00,51.790
1473.00,51.792
1474.00,51.813
1475.00,51.845
1476.00,51.841
1477.00,51.839
1478.00,51.869
1479.00,51.880
1480.00,51.871
1481.00,51.891
1482.00,51.896
1483.00,51.921
1484.00,51.927
1485.00,51.932
1486.00,51.962
1487.00,51.954
1488.00,51.974
1489.00,51.981
1490.00,51.985
1491.00,51.999
1492.00,52.019
1493.00,52.004
1494.00,52.041
1495.00,52.026
1496.00,52.035
1497.00,52.059
1498.00,52.050
1499.00,52.070
1500.00,52.114
1501.00, 
1502.00, 
1503.00, 
1504.00, 
1505.00, 
1506.00, 
1507.00, 
1508.00, 
1509.00, 
1510.00, 
1511.00, 
1512.00, 
1513.00, 
1514.00, 
1515.00, 
1516.00, 
1517.00, 
1518.00, 
1519.00, 
1520.00, 
1521.00, 
1522.00, 
1523.00, 
1524.00, 
1525.00, 
1526.00, 
1527.00, 
1528.00, 
1529.00, 
1530.00, 
1531.00, 
1532.00, 
1533.00, 
1534.00, 
1535.00, 
1536.00, 
1537.00, 
1538.00, 
1539.00, 
1540.00, 
1541.00, 
1542.00, 
1543.00, 
1544.00, 
1545.00, 
1546.00, 
1547.00, 
1548.00, 
1549.00, 
1550.00, 
1551.00, 
1552.00, 
1553.00, 
1554.00, 
1555.00, 
1556.00, 
1557.00, 
1558.00, 
1559.00, 
1560.00, 
1561.00, 
1562.00, 
1563.00, 
1564.00, 
1565.00, 
1566.00, 
1567.00, 
1568.00, 
1569.00, 
1570.00, 
1571.00, 
1572.00, 
1573.00, 
1574.00, 
1575.00, 
1576.00, 
1577.00, 
1578.00, 
1579.00, 
1580.00, 
1581.00, 
1582.00, 
1583.00, 
1584.00, 
1585.00, 
1586.00, 
1587.00, 
1588.00, 
1589.00, 
1590.00, 
1591.00, 
1592.00, 
1593.00, 
1594.00, 
1595.00, 
1596.00, 
1597.00, 
1598.00, 
1599.00, 
1600.00, 
1601.00, 
1602.00, 
1603.00, 
1604.00, 
1605.00, 
1606.00, 
1607.00, 
1608.00, 
1609.00, 
1610.00, 
1611.00, 
1612.00, 
1613.00, 
1614.00, 
1615.00, 
1616.00, 
1617.00, 
1618.00, 
1619.00, 
1620.00, 
1621.00, 
1622.00, 
1623.00, 
1624.00, 
1625.00, 
1626.00, 
1627.00, 
1628.00, 
1629.00, 
1630.00, 
1631.00, 
1632.00, 
1633.00, 
1634.00, 
1635.00, 
1636.00, 
1637.00, 
1638.00, 
1639.00, 
1640.00, 
1641.00, 
1642.00, 
1643.00, 
1644.00, 
1645.00, 
1646.00, 
1647.00, 
1648.00, 
1649.00, 
1650.00, 
1651.00, 
1652.00, 
1653.00, 
1654.00, 
1655.00, 
1656.00, 
1657.00, 
1658.00, 
1659.00, 
1660.00, 
1661.00, 
1662.00, 
1663.00, 
1664.00, 
1665.00, 
1666.00, 
1667.00, 
1668.00, 
1669.00, 
1670.00, 
1671.00, 
1672.00, 
1673.00, 
1674.00, 
1675.00, 
1676.00, 
1677.00, 
1678.00, 
1679.00, 
1680.00, 
1681.00, 
1682.00, 
1683.00, 
1684.00, 
1685.00, 
1686.00, 
1687.00, 
1688.00, 
1689.00, 
1690.00, 
1691.00, 
1692.00, 
1693.00, 
1694.00, 
1695.00, 
1696.00, 
1697.00, 
1698.00, 
1699.00, 
1700.00, 
1701.00, 
1702.00, 
1703.00, 
1704.00, 
1705.00, 
1706.00, 
1707.00, 
1708.00, 
1709.00, 
1710.00, 
1711.00, 
1712.00, 
1713.00, 
1714.00, 
1715.00, 
1716.00, 
1717.00, 
1718.00, 
1719.00, 
1720.00, 
1721.00, 
1722.00, 
1723.00, 
1724.00, 
1725.00, 
1726.00, 
1727.00, 
1728.00, 
1729.00, 
1730.00, 
1731.00, 
1732.00, 
1733.00, 
1734.00, 
1735.00, 
1736.00, 
1737.00, 
1738.00, 
1739.00, 
1740.00, 
1741.00, 
1742.00, 
1743.00, 
1744.00, 
1745.00, 
1746.00, 
1747.00, 
1748.00, 
1749.00, 
1750.00, 
1751.00, 
1752.00, 
1753.00, 
1754.00, 
1755.00, 
1756.00, 
1757.00, 
1758.00, 
1759.00, 
1760.00, 
1761.00, 
1762.00, 
1763.00, 
1764.00, 
1765.00, 
1766.00, 
1767.00, 
1768.00, 
1769.00, 
1770.00, 
1771.00, 
1772.00, 
1773.00, 
1774.00, 
1775.00, 
1776.00, 
1777.00, 
1778.00, 
1779.00, 
1780.00, 
1781.00, 
1782.00, 
1783.00, 
1784.00, 
1785.00, 
1786.00, 
1787.00, 
1788.00, 
1789.00, 
1790.00, 
1791.00, 
1792.00, 
1793.00, 
1794.00, 
1795.00, 
1796.00, 
1797.00, 
1798.00, 
1799.00, 
1800.00, 
1801.00, 
1802.00, 
1803.00, 
1804.00, 
1805.00, 
1806.00, 
1807.00, 
1808.00, 
1809.00, 
1810.00, 
1811.00, 
1812.00, 
1813.00, 
1814.00, 
1815.00, 
1816.00, 
1817.00, 
1818.00, 
1819.00, 
1820.00, 
1821.00, 
1822.00, 
1823.00, 
1824.00, 
1825.00, 
1826.00, 
1827.00, 
1828.00, 
1829.00, 
1830.00, 
1831.00, 
1832.00, 
1833.00, 
1834.00, 
1835.00, 
1836.00, 
1837.00, 
1838.00, 
1839.00, 
1840.00, 
1841.00, 
1842.00, 
1843.00, 
1844.00, 
1845.00, 
1846.00, 
1847.00, 
1848.00, 
1849.00, 
1850.00, 
1851.00, 
1852.00, 
1853.00, 
1854.00, 
1855.00, 
1856.00, 
1857.00, 
1858.00, 
1859.00, 
1860.00, 
1861.00, 
1862.00, 
1863.00, 
1864.00, 
1865.00, 
1866.00, 
1867.00, 
1868.00, 
1869.00, 
1870.00, 
1871.00, 
1872.00, 
1873.00, 
1874.00, 
1875.00, 
1876.00, 
1877.00, 
1878.00, 
1879.00, 
1880.00, 
1881.00, 
1882.00, 
1883.00, 
1884.00, 
1885.00, 
1886.00, 
1887.00, 
1888.00, 
1889.00, 
1890.00, 
1891.00, 
1892.00, 
1893.00, 
1894.00, 
1895.00, 
1896.00, 
1897.00, 
1898.00, 
1899.00, 
1900.00, 
1901.00, 
1902.00, 
1903.00, 
1904.00, 
1905.00, 
1906.00, 
1907.00, 
1908.00, 
1909.00, 
1910.00, 
1911.00, 
1912.00, 
1913.00, 
1914.00, 
1915.00, 
1916.00, 
1917.00, 
1918.00, 
1919.00, 
1920.00, 
1921.00, 
1922.00, 
1923.00, 
1924.00, 
1925.00, 
1926.00, 
1927.00, 
1928.00, 
1929.00, 
1930.00, 
1931.00, 
1932.00, 
1933.00, 
1934.00, 
1935.00, 
1936.00, 
1937.00, 
1938.00, 
1939.00, 
1940.00, 
1941.00, 
1942.00, 
1943.00, 
1944.00, 
1945.00, 
1946.00, 
1947.00, 
1948.00, 
1949.00, 
1950.00, 
1951.00, 
1952.00, 
1953.00, 
1954.00, 
1955.00, 
1956.00, 
1957.00, 
1958.00, 
1959.00, 
1960.00, 
1961.00, 
1962.00, 
1963.00, 
1964.00, 
1965.00, 
1966.00, 
1967.00, 
1968.00, 
1969.00, 
1970.00, 
1971.00, 
1972.00, 
1973.00, 
1974.00, 
1975.00, 
1976.00, 
1977.00, 
1978.00, 
1979.00, 
1980.00, 
1981.00, 
1982.00, 
1983.00, 
1984.00, 
1985.00, 
1986.00, 
1987.00, 
1988.00, 
1989.00, 
1990.00, 
1991.00, 
1992.00, 
1993.00, 
1994.00, 
1995.00, 
1996.00, 
1997.00, 
1998.00, 
1999.00, 
2000.00, 
2001.00, 
2002.00, 
2003.00, 
2004.00, 
2005.00, 
2006.00, 
2007.00, 
2008.00, 
2009.00, 
2010.00, 
2011.00, 
2012.00, 
2013.00, 
2014.00, 
2015.00, 
2016.00, 
2017.00, 
2018.00, 
2019.00, 
2020.00, 
2021.00, 
2022.00, 
2023.00, 
2024.00, 
2025.00, 
2026.00, 
2027.00, 
2028.00, 
2029.00, 
2030.00, 
2031.00, 
2032.00, 
2033.00, 
2034.00, 
2035.00, 
2036.00, 
2037.00, 
2038.00, 
2039.00, 
2040.00, 
2041.00, 
2042.00, 
2043.00, 
2044.00, 
2045.00, 
2046.00, 
2047.00, 
2048.00, 
2049.00, 
2050.00, 
2051.00, 
2052.00, 
2053.00, 
2054.00, 
2055.00, 
2056.00, 
2057.00, 
2058.00, 
2059.00, 
2060.00, 
2061.00, 
2062.00, 
2063.00, 
2064.00, 
2065.00, 
2066.00, 
2067.00, 
2068.00, 
2069.00, 
2070.00, 
2071.00, 
2072.00, 
2073.00, 
2074.00, 
2075.00, 
2076.00, 
2077.00, 
2078.00, 
2079.00, 
2080.00, 
2081.00, 
2082.00, 
2083.00, 
2084.00, 
2085.00, 
2086.00, 
2087.00, 
2088.00, 
2089.00, 
2090.00, 
2091.00, 
2092.00, 
2093.00, 
2094.00, 
2095.00, 
2096.00, 
2097.00, 
2098.00, 
2099.00, 
2100.00, 
2101.00, 
2102.00, 
2103.00, 
2104.00, 
2105.00, 
2106.00, 
2107.00, 
2108.00, 
2109.00, 
2110.00, 
2111.00, 
2112.00, 
2113.00, 
2114.00, 
2115.00, 
2116.00, 
2117.00, 
2118.00, 
2119.00, 
2120.00, 
2121.00, 
2122.00, 
2123.00, 
2124.00, 
2125.00, 
2126.00, 
2127.00, 
2128.00, 
2129.00, 
2130.00, 
2131.00, 
2132.00, 
2133.00, 
2134.00, 
2135.00, 
2136.00, 
2137.00, 
2138.00, 
2139.00, 
2140.00, 
2141.00, 
2142.00, 
2143.00, 
2144.00, 
2145.00, 
2146.00, 
2147.00, 
2148.00, 
2149.00, 
2150.00, 
2151.00, 
2152.00, 
2153.00, 
2154.00, 
2155.00, 
2156.00, 
2157.00, 
2158.00, 
2159.00, 
2160.00, 
2161.00, 
2162.00, 
2163.00, 
2164.00, 
2165.00, 
2166.00, 
2167.00, 
2168.00, 
2169.00, 
2170.00, 
2171.00, 
2172.00, 
2173.00, 
2174.00, 
2175.00, 
2176.00, 
2177.00, 
2178.00, 
2179.00, 
2180.00, 
2181.00, 
2182.00, 
2183.00, 
2184.00, 
2185.00, 
2186.00, 
2187.00, 
2188.00, 
2189.00, 
2190.00, 
2191.00, 
2192.00, 
2193.00, 
2194.00, 
2195.00, 
2196.00, 
2197.00, 
2198.00, 
2199.00, 
2200.00, 
2201.00, 
2202.00, 
2203.00, 
2204.00, 
2205.00, 
2206.00, 
2207.00, 
2208.00, 
2209.00, 
2210.00, 
2211.00, 
2212.00, 
2213.00, 
2214.00, 
2215.00, 
2216.00, 
2217.00, 
2218.00, 
2219.00, 
2220.00, 
2221.00, 
2222.00, 
2223.00, 
2224.00, 
2225.00, 
2226.00, 
2227.00, 
2228.00, 
2229.00, 
2230.00, 
2231.00, 
2232.00, 
2233.00, 
2234.00, 
2235.00, 
2236.00, 
2237.00, 
2238.00, 
2239.00, 
2240.00, 
2241.00, 
2242.00, 
2243.00, 
2244.00, 
2245.00, 
2246.00, 
2247.00, 
2248.00, 
2249.00, 
2250.00, 
2251.00, 
2252.00, 
2253.00, 
2254.00, 
2255.00, 
2256.00, 
2257.00, 
2258.00, 
2259.00, 
2260.00, 
2261.00, 
2262.00, 
2263.00, 
2264.00, 
2265.00, 
2266.00, 
2267.00, 
2268.00, 
2269.00, 
2270.00, 
2271.00, 
2272.00, 
2273.00, 
2274.00, 
2275.00, 
2276.00, 
2277.00, 
2278.00, 
2279.00, 
2280.00, 
2281.00, 
2282.00, 
2283.00, 
2284.00, 
2285.00, 
2286.00, 
2287.00, 
2288.00, 
2289.00, 
2290.00, 
2291.00, 
2292.00, 
2293.00, 
2294.00, 
2295.00, 
2296.00, 
2297.00, 
2298.00, 
2299.00, 
2300.00, 
2301.00, 
2302.00, 
2303.00, 
2304.00, 
2305.00, 
2306.00, 
2307.00, 
2308.00, 
2309.00, 
2310.00, 
2311.00, 
2312.00, 
2313.00, 
2314.00, 
2315.00, 
2316.00, 
2317.00, 
2318.00, 
2319.00, 
2320.00, 
2321.00, 
2322.00, 
2323.00, 
2324.00, 
2325.00, 
2326.00, 
2327.00, 
2328.00, 
2329.00, 
2330.00, 
2331.00, 
2332.00, 
2333.00, 
2334.00, 
2335.00, 
2336.00, 
2337.00, 
2338.00, 
2339.00, 
2340.00, 
2341.00, 
2342.00, 
2343.00, 
2344.00, 
2345.00, 
2346.00, 
2347.00, 
2348.00, 
2349.00, 
2350.00, 
2351.00, 
2352.00, 
2353.00, 
2354.00, 
2355.00, 
2356.00, 
2357.00, 
2358.00, 
2359.00, 
2360.00, 
2361.00, 
2362.00, 
2363.00, 
2364.00, 
2365.00, 
2366.00, 
2367.00, 
2368.00, 
2369.00, 
2370.00, 
2371.00, 
2372.00, 
2373.00, 
2374.00, 
2375.00, 
2376.00, 
2377.00, 
2378.00, 
2379.00, 
2380.00, 
2381.00, 
2382.00, 
2383.00, 
2384.00, 
2385.00, 
2386.00, 
2387.00, 
2388.00, 
2389.00, 
2390.00, 
2391.00, 
2392.00, 
2393.00, 
2394.00, 
2395.00, 
2396.00, 
2397.00, 
2398.00, 
2399.00, 
2400.00, 
2401.00, 
2402.00, 
2403.00, 
2404.00, 
2405.00, 
2406.00, 
2407.00, 
2408.00, 
2409.00, 
2410.00, 
2411.00, 
2412.00, 
2413.00, 
2414.00, 
2415.00, 
2416.00, 
2417.00, 
2418.00, 
2419.00, 
2420.00, 
2421.00, 
2422.00, 
2423.00, 
2424.00, 
2425.00, 
2426.00, 
2427.00, 
2428.00, 
2429.00, 
2430.00, 
2431.00, 
2432.00, 
2433.00, 
2434.00, 
2435.00, 
2436.00, 
2437.00, 
2438.00, 
2439.00, 
2440.00, 
2441.00, 
2442.00, 
2443.00, 
2444.00, 
2445.00, 
2446.00, 
2447.00, 
2448.00, 
2449.00, 
2450.00, 
2451.00, 
2452.00, 
2453.00, 
2454.00, 
2455.00, 
2456.00, 
2457.00, 
2458.00, 
2459.00, 
2460.00, 
2461.00, 
2462.00, 
2463.00, 
2464.00, 
2465.00, 
2466.00, 
2467.00, 
2468.00, 
2469.00, 
2470.00, 
2471.00, 
2472.00, 
2473.00, 
2474.00, 
2475.00, 
2476.00, 
2477.00, 
2478.00, 
2479.00, 
2480.00, 
2481.00, 
2482.00, 
2483.00, 
2484.00, 
2485.00, 
2486.00, 
2487.00, 
2488.00, 
2489.00, 
2490.00, 
2491.00, 
2492.00, 
2493.00, 
2494.00, 
2495.00, 
2496.00, 
2497.00, 
2498.00, 
2499.00, 
2500.00, 
2501.00, 
2502.00, 
2503.00, 
2504.00, 
2505.00, 
2506.00, 
2507.00, 
2508.00, 
2509.00, 
2510.00, 
2511.00, 
2512.00, 
2513.00, 
2514.00, 
2515.00, 
2516.00, 
2517.00, 
2518.00, 
2519.00, 
2520.00, 
2521.00, 
2522.00, 
2523.00, 
2524.00, 
2525.00, 
2526.00, 
2527.00, 
2528.00, 
2529.00, 
2530.00, 
2531.00, 
2532.00, 
2533.00, 
2534.00, 
2535.00, 
2536.00, 
2537.00, 
2538.00, 
2539.00, 
2540.00, 
2541.00, 
2542.00, 
2543.00, 
2544.00, 
2545.00, 
2546.00, 
2547.00, 
2548.00, 
2549.00, 
2550.00, 
2551.00, 
2552.00, 
2553.00, 
2554.00, 
2555.00, 
2556.00, 
2557.00, 
2558.00, 
2559.00, 
2560.00, 
2561.00, 
2562.00, 
2563.00, 
2564.00, 
2565.00, 
2566.00, 
2567.00, 
2568.00, 
2569.00, 
2570.00, 
2571.00, 
2572.00, 
2573.00, 
2574.00, 
2575.00, 
2576.00, 
2577.00, 
2578.00, 
2579.00, 
2580.00, 
2581.00, 
2582.00, 
2583.00, 
2584.00, 
2585.00, 
2586.00, 
2587.00, 
2588.00, 
2589.00, 
2590.00, 
2591.00, 
2592.00, 
2593.00, 
2594.00, 
2595.00, 
2596.00, 
2597.00, 
2598.00, 
2599.00, 
2600.00, 
