"2cP5 - RawData"
"Wavelength nm.","T%"
200.00,0.005
201.00,0.002
202.00,0.001
203.00,0.004
204.00,0.001
205.00,0.000
206.00,0.001
207.00,0.001
208.00,-0.003
209.00,0.003
210.00,-0.001
211.00,0.001
212.00,-0.001
213.00,0.004
214.00,-0.002
215.00,0.001
216.00,0.002
217.00,0.001
218.00,-0.002
219.00,0.002
220.00,0.002
221.00,0.002
222.00,0.004
223.00,0.002
224.00,0.001
225.00,-0.002
226.00,0.001
227.00,0.001
228.00,-0.001
229.00,-0.001
230.00,-0.002
231.00,-0.001
232.00,0.001
233.00,-0.001
234.00,0.000
235.00,0.002
236.00,-0.002
237.00,0.000
238.00,0.001
239.00,0.001
240.00,0.002
241.00,0.000
242.00,0.001
243.00,0.001
244.00,0.000
245.00,0.000
246.00,-0.000
247.00,-0.001
248.00,0.001
249.00,0.002
250.00,-0.001
251.00,0.000
252.00,0.002
253.00,0.002
254.00,0.000
255.00,0.001
256.00,0.000
257.00,0.001
258.00,-0.001
259.00,-0.000
260.00,0.000
261.00,0.004
262.00,-0.001
263.00,-0.001
264.00,-0.000
265.00,0.002
266.00,0.000
267.00,0.002
268.00,0.002
269.00,-0.000
270.00,0.001
271.00,-0.000
272.00,0.001
273.00,0.000
274.00,0.000
275.00,0.000
276.00,0.001
277.00,0.001
278.00,-0.001
279.00,-0.001
280.00,-0.000
281.00,0.001
282.00,0.001
283.00,0.001
284.00,-0.000
285.00,-0.001
286.00,-0.000
287.00,0.002
288.00,-0.002
289.00,-0.001
290.00,-0.003
291.00,-0.001
292.00,-0.000
293.00,0.001
294.00,-0.002
295.00,0.001
296.00,0.001
297.00,0.001
298.00,-0.000
299.00,0.001
300.00,0.002
301.00,0.004
302.00,0.004
303.00,0.006
304.00,0.011
305.00,0.013
306.00,0.022
307.00,0.032
308.00,0.053
309.00,0.081
310.00,0.113
311.00,0.155
312.00,0.210
313.00,0.282
314.00,0.365
315.00,0.493
316.00,0.612
317.00,0.781
318.00,0.968
319.00,1.199
320.00,1.432
321.00,1.726
322.00,2.035
323.00,2.405
324.00,2.780
325.00,3.172
326.00,3.578
327.00,4.024
328.00,4.507
329.00,4.995
330.00,5.482
331.00,5.956
332.00,6.498
333.00,7.057
334.00,7.531
335.00,8.102
336.00,8.606
337.00,9.125
338.00,9.641
339.00,10.100
340.00,10.634
341.00,11.081
342.00,11.544
343.00,11.945
344.00,12.395
345.00,12.813
346.00,13.150
347.00,13.493
348.00,13.817
349.00,14.123
350.00,14.410
351.00,14.693
352.00,14.945
353.00,15.159
354.00,15.374
355.00,15.592
356.00,15.774
357.00,15.967
358.00,16.120
359.00,16.292
360.00,16.435
361.00,16.493
362.00,16.605
363.00,16.756
364.00,16.850
365.00,16.919
366.00,16.962
367.00,16.998
368.00,17.068
369.00,17.128
370.00,17.117
371.00,17.130
372.00,17.118
373.00,17.111
374.00,17.099
375.00,17.076
376.00,17.044
377.00,16.980
378.00,16.909
379.00,16.849
380.00,16.841
381.00,16.838
382.00,16.829
383.00,16.806
384.00,16.804
385.00,16.808
386.00,16.825
387.00,16.824
388.00,16.857
389.00,16.855
390.00,16.898
391.00,16.884
392.00,16.903
393.00,16.892
394.00,16.889
395.00,16.897
396.00,16.895
397.00,16.890
398.00,16.893
399.00,16.901
400.00,16.885
401.00,16.893
402.00,16.859
403.00,16.844
404.00,16.836
405.00,16.826
406.00,16.820
407.00,16.821
408.00,16.799
409.00,16.752
410.00,16.736
411.00,16.715
412.00,16.717
413.00,16.720
414.00,16.719
415.00,16.746
416.00,16.780
417.00,16.774
418.00,16.797
419.00,16.855
420.00,16.875
421.00,16.925
422.00,16.943
423.00,16.995
424.00,17.041
425.00,17.033
426.00,17.073
427.00,17.107
428.00,17.160
429.00,17.216
430.00,17.234
431.00,17.283
432.00,17.341
433.00,17.402
434.00,17.476
435.00,17.524
436.00,17.572
437.00,17.651
438.00,17.714
439.00,17.778
440.00,17.860
441.00,17.951
442.00,18.036
443.00,18.093
444.00,18.188
445.00,18.284
446.00,18.393
447.00,18.471
448.00,18.584
449.00,18.674
450.00,18.776
451.00,18.868
452.00,18.985
453.00,19.082
454.00,19.190
455.00,19.307
456.00,19.414
457.00,19.549
458.00,19.646
459.00,19.754
460.00,19.897
461.00,20.019
462.00,20.167
463.00,20.282
464.00,20.449
465.00,20.538
466.00,20.684
467.00,20.836
468.00,20.902
469.00,21.059
470.00,21.174
471.00,21.283
472.00,21.412
473.00,21.489
474.00,21.635
475.00,21.764
476.00,21.880
477.00,22.006
478.00,22.144
479.00,22.286
480.00,22.432
481.00,22.612
482.00,22.715
483.00,22.862
484.00,22.907
485.00,23.200
486.00,23.355
487.00,23.501
488.00,23.668
489.00,23.829
490.00,23.976
491.00,24.160
492.00,24.279
493.00,24.456
494.00,24.619
495.00,24.590
496.00,24.819
497.00,24.943
498.00,25.139
499.00,25.287
500.00,25.396
501.00,25.531
502.00,25.676
503.00,25.813
504.00,25.952
505.00,26.074
506.00,26.208
507.00,26.327
508.00,26.449
509.00,26.628
510.00,26.780
511.00,26.835
512.00,26.978
513.00,27.130
514.00,27.263
515.00,27.426
516.00,27.512
517.00,27.642
518.00,27.811
519.00,27.881
520.00,27.949
521.00,28.087
522.00,28.144
523.00,28.229
524.00,28.325
525.00,28.429
526.00,28.544
527.00,28.644
528.00,28.777
529.00,28.899
530.00,29.014
531.00,29.134
532.00,29.234
533.00,29.339
534.00,29.451
535.00,29.528
536.00,29.635
537.00,29.674
538.00,29.811
539.00,29.801
540.00,29.951
541.00,30.001
542.00,30.048
543.00,30.153
544.00,30.231
545.00,30.253
546.00,30.346
547.00,30.437
548.00,30.525
549.00,30.623
550.00,30.623
551.00,30.749
552.00,30.833
553.00,30.910
554.00,31.105
555.00,31.145
556.00,31.188
557.00,31.247
558.00,31.330
559.00,31.397
560.00,31.448
561.00,31.552
562.00,31.626
563.00,31.591
564.00,31.686
565.00,31.709
566.00,31.761
567.00,31.792
568.00,31.873
569.00,31.946
570.00,31.917
571.00,32.013
572.00,32.065
573.00,32.071
574.00,32.119
575.00,32.155
576.00,32.190
577.00,32.264
578.00,32.296
579.00,32.382
580.00,32.440
581.00,32.522
582.00,32.657
583.00,32.683
584.00,32.717
585.00,32.832
586.00,32.847
587.00,32.944
588.00,32.977
589.00,33.029
590.00,33.072
591.00,33.026
592.00,33.073
593.00,33.180
594.00,33.161
595.00,33.250
596.00,33.368
597.00,33.362
598.00,33.414
599.00,33.438
600.00,33.553
601.00,33.700
602.00,33.748
603.00,33.763
604.00,33.767
605.00,33.837
606.00,33.928
607.00,33.932
608.00,34.082
609.00,34.087
610.00,34.088
611.00,34.153
612.00,34.218
613.00,34.188
614.00,34.320
615.00,34.358
616.00,34.455
617.00,34.512
618.00,34.536
619.00,34.658
620.00,34.648
621.00,34.724
622.00,34.806
623.00,34.833
624.00,34.961
625.00,35.022
626.00,35.003
627.00,35.147
628.00,35.184
629.00,35.241
630.00,35.340
631.00,35.420
632.00,35.471
633.00,35.581
634.00,35.669
635.00,35.720
636.00,35.913
637.00,36.008
638.00,36.068
639.00,36.145
640.00,36.138
641.00,36.196
642.00,36.363
643.00,36.435
644.00,36.566
645.00,36.627
646.00,36.726
647.00,36.817
648.00,36.902
649.00,37.003
650.00,37.060
651.00,37.201
652.00,37.346
653.00,37.399
654.00,37.492
655.00,37.467
656.00,37.795
657.00,37.770
658.00,37.886
659.00,38.084
660.00,38.250
661.00,38.276
662.00,38.329
663.00,38.440
664.00,38.665
665.00,38.767
666.00,38.840
667.00,38.959
668.00,39.132
669.00,39.255
670.00,39.290
671.00,39.477
672.00,39.585
673.00,39.517
674.00,39.801
675.00,40.032
676.00,40.071
677.00,40.116
678.00,40.151
679.00,40.218
680.00,40.394
681.00,40.519
682.00,40.635
683.00,40.811
684.00,41.015
685.00,41.053
686.00,40.993
687.00,41.165
688.00,41.391
689.00,41.419
690.00,41.570
691.00,41.756
692.00,41.683
693.00,41.814
694.00,41.871
695.00,42.008
696.00,42.162
697.00,42.353
698.00,42.457
699.00,42.746
700.00,42.866
701.00,42.839
702.00,43.000
703.00,43.266
704.00,43.245
705.00,43.353
706.00,43.517
707.00,43.597
708.00,43.485
709.00,43.726
710.00,44.099
711.00,44.002
712.00,43.954
713.00,44.181
714.00,44.210
715.00,44.273
716.00,44.462
717.00,44.404
718.00,44.505
719.00,44.743
720.00,44.789
721.00,48.924
722.00,48.950
723.00,49.116
724.00,49.116
725.00,49.203
726.00,49.264
727.00,49.277
728.00,49.335
729.00,49.404
730.00,49.379
731.00,49.523
732.00,49.578
733.00,49.622
734.00,49.713
735.00,49.759
736.00,49.801
737.00,49.891
738.00,49.972
739.00,49.988
740.00,50.071
741.00,50.115
742.00,50.173
743.00,50.123
744.00,50.132
745.00,50.249
746.00,50.318
747.00,50.366
748.00,50.299
749.00,50.334
750.00,50.464
751.00,50.438
752.00,50.446
753.00,50.496
754.00,50.462
755.00,50.538
756.00,50.549
757.00,50.616
758.00,50.657
759.00,50.723
760.00,50.739
761.00,50.753
762.00,50.728
763.00,50.840
764.00,50.866
765.00,50.890
766.00,50.933
767.00,50.928
768.00,50.971
769.00,51.013
770.00,51.072
771.00,51.020
772.00,51.149
773.00,51.095
774.00,51.180
775.00,51.236
776.00,51.158
777.00,51.270
778.00,51.187
779.00,51.275
780.00,51.155
781.00,51.285
782.00,51.345
783.00,51.248
784.00,51.373
785.00,51.281
786.00,51.334
787.00,51.359
788.00,51.332
789.00,51.371
790.00,51.316
791.00,51.390
792.00,51.323
793.00,51.396
794.00,51.386
795.00,51.400
796.00,51.397
797.00,51.283
798.00,51.349
799.00,51.327
800.00,51.324
801.00,51.300
802.00,51.360
803.00,51.356
804.00,51.314
805.00,51.353
806.00,51.385
807.00,51.361
808.00,51.337
809.00,51.376
810.00,51.294
811.00,51.333
812.00,51.353
813.00,51.301
814.00,51.309
815.00,51.285
816.00,51.335
817.00,51.315
818.00,51.239
819.00,51.259
820.00,51.309
821.00,51.234
822.00,51.260
823.00,51.225
824.00,51.276
825.00,51.219
826.00,51.225
827.00,51.353
828.00,51.191
829.00,51.193
830.00,51.253
831.00,53.407
832.00,53.434
833.00,53.352
834.00,53.403
835.00,53.384
836.00,53.359
837.00,53.363
838.00,53.351
839.00,53.317
840.00,53.254
841.00,53.322
842.00,53.310
843.00,53.250
844.00,53.288
845.00,53.207
846.00,53.235
847.00,53.222
848.00,53.211
849.00,53.124
850.00,53.139
851.00,53.074
852.00,53.104
853.00,53.064
854.00,53.042
855.00,52.962
856.00,52.990
857.00,52.972
858.00,52.923
859.00,52.952
860.00,52.915
861.00,52.920
862.00,52.877
863.00,52.916
864.00,52.865
865.00,52.885
866.00,52.960
867.00,52.868
868.00,52.844
869.00,52.806
870.00,52.868
871.00,52.784
872.00,52.930
873.00,52.808
874.00,52.839
875.00,52.805
876.00,52.825
877.00,52.762
878.00,52.796
879.00,52.742
880.00,52.749
881.00,52.722
882.00,52.761
883.00,52.692
884.00,52.691
885.00,52.657
886.00,52.625
887.00,52.715
888.00,52.630
889.00,52.591
890.00,52.598
891.00,52.565
892.00,52.541
893.00,52.528
894.00,52.538
895.00,52.508
896.00,52.485
897.00,52.457
898.00,52.421
899.00,52.468
900.00,52.430
901.00,52.414
902.00,52.447
903.00,52.351
904.00,52.386
905.00,52.372
906.00,52.364
907.00,52.345
908.00,52.289
909.00,52.298
910.00,52.251
911.00,52.257
912.00,52.259
913.00,52.216
914.00,52.224
915.00,52.194
916.00,52.173
917.00,52.130
918.00,52.120
919.00,52.103
920.00,52.052
921.00,52.064
922.00,52.060
923.00,52.067
924.00,51.923
925.00,52.114
926.00,52.018
927.00,52.001
928.00,51.959
929.00,51.981
930.00,51.934
931.00,51.921
932.00,51.870
933.00,51.883
934.00,51.858
935.00,51.838
936.00,51.831
937.00,51.826
938.00,51.816
939.00,51.799
940.00,51.761
941.00,51.755
942.00,51.725
943.00,51.724
944.00,51.690
945.00,51.662
946.00,51.662
947.00,51.622
948.00,51.606
949.00,51.601
950.00,51.595
951.00,51.559
952.00,51.521
953.00,51.496
954.00,51.505
955.00,51.452
956.00,51.448
957.00,51.414
958.00,51.445
959.00,51.369
960.00,51.362
961.00,51.355
962.00,51.361
963.00,51.316
964.00,51.297
965.00,51.311
966.00,51.283
967.00,51.285
968.00,51.241
969.00,51.294
970.00,51.266
971.00,51.270
972.00,51.224
973.00,51.302
974.00,51.291
975.00,51.231
976.00,51.280
977.00,51.263
978.00,51.297
979.00,51.256
980.00,51.271
981.00,51.298
982.00,51.240
983.00,51.287
984.00,51.242
985.00,51.267
986.00,51.209
987.00,51.234
988.00,51.212
989.00,51.174
990.00,51.181
991.00,51.170
992.00,51.185
993.00,51.162
994.00,51.157
995.00,51.148
996.00,51.131
997.00,51.119
998.00,51.083
999.00,51.097
1000.00,51.042
1001.00,51.071
1002.00,51.057
1003.00,51.032
1004.00,51.024
1005.00,50.993
1006.00,51.025
1007.00,50.984
1008.00,50.971
1009.00,50.968
1010.00,50.956
1011.00,50.937
1012.00,50.912
1013.00,50.915
1014.00,50.875
1015.00,50.898
1016.00,50.867
1017.00,50.841
1018.00,50.842
1019.00,50.797
1020.00,50.809
1021.00,50.784
1022.00,50.783
1023.00,50.727
1024.00,50.762
1025.00,50.732
1026.00,50.721
1027.00,50.695
1028.00,50.677
1029.00,50.678
1030.00,50.639
1031.00,50.648
1032.00,50.611
1033.00,50.611
1034.00,50.586
1035.00,50.556
1036.00,50.529
1037.00,50.503
1038.00,50.493
1039.00,50.459
1040.00,50.463
1041.00,50.423
1042.00,50.422
1043.00,50.398
1044.00,50.420
1045.00,50.401
1046.00,50.419
1047.00,50.414
1048.00,50.424
1049.00,50.440
1050.00,50.426
1051.00,50.467
1052.00,50.463
1053.00,50.483
1054.00,50.483
1055.00,50.491
1056.00,50.492
1057.00,50.497
1058.00,50.467
1059.00,50.479
1060.00,50.480
1061.00,50.453
1062.00,50.444
1063.00,50.456
1064.00,50.470
1065.00,50.438
1066.00,50.434
1067.00,50.428
1068.00,50.455
1069.00,50.399
1070.00,50.386
1071.00,50.392
1072.00,50.401
1073.00,50.381
1074.00,50.378
1075.00,50.358
1076.00,50.354
1077.00,50.332
1078.00,50.320
1079.00,50.326
1080.00,50.319
1081.00,50.302
1082.00,50.307
1083.00,50.294
1084.00,50.276
1085.00,50.272
1086.00,50.272
1087.00,50.281
1088.00,50.238
1089.00,50.234
1090.00,50.232
1091.00,50.230
1092.00,50.216
1093.00,50.199
1094.00,50.179
1095.00,50.176
1096.00,50.157
1097.00,50.164
1098.00,50.142
1099.00,50.142
1100.00,50.124
1101.00,50.133
1102.00,50.110
1103.00,50.119
1104.00,50.114
1105.00,50.090
1106.00,50.086
1107.00,50.074
1108.00,50.058
1109.00,50.050
1110.00,50.047
1111.00,50.050
1112.00,50.034
1113.00,50.017
1114.00,50.001
1115.00,50.016
1116.00,49.986
1117.00,49.977
1118.00,49.968
1119.00,49.964
1120.00,49.968
1121.00,49.947
1122.00,49.934
1123.00,49.939
1124.00,49.932
1125.00,49.939
1126.00,49.931
1127.00,49.926
1128.00,49.897
1129.00,49.878
1130.00,49.876
1131.00,49.878
1132.00,49.865
1133.00,49.862
1134.00,49.865
1135.00,49.844
1136.00,49.849
1137.00,49.857
1138.00,49.839
1139.00,49.839
1140.00,49.815
1141.00,49.821
1142.00,49.813
1143.00,49.830
1144.00,49.805
1145.00,49.816
1146.00,49.808
1147.00,49.810
1148.00,49.798
1149.00,49.798
1150.00,49.808
1151.00,49.794
1152.00,49.772
1153.00,49.773
1154.00,49.754
1155.00,49.768
1156.00,49.750
1157.00,49.768
1158.00,49.763
1159.00,49.757
1160.00,49.753
1161.00,49.763
1162.00,49.754
1163.00,49.751
1164.00,49.760
1165.00,49.751
1166.00,49.735
1167.00,49.753
1168.00,49.751
1169.00,49.737
1170.00,49.761
1171.00,49.737
1172.00,49.739
1173.00,49.718
1174.00,49.733
1175.00,49.723
1176.00,49.711
1177.00,49.707
1178.00,49.702
1179.00,49.712
1180.00,49.691
1181.00,49.726
1182.00,49.699
1183.00,49.694
1184.00,49.684
1185.00,49.714
1186.00,49.712
1187.00,49.694
1188.00,49.690
1189.00,49.688
1190.00,49.684
1191.00,49.684
1192.00,49.696
1193.00,49.678
1194.00,49.684
1195.00,49.657
1196.00,49.684
1197.00,49.686
1198.00,49.663
1199.00,49.671
1200.00,49.685
1201.00,49.685
1202.00,49.660
1203.00,49.674
1204.00,49.657
1205.00,49.679
1206.00,49.655
1207.00,49.654
1208.00,49.648
1209.00,49.646
1210.00,49.656
1211.00,49.653
1212.00,49.658
1213.00,49.619
1214.00,49.654
1215.00,49.626
1216.00,49.635
1217.00,49.634
1218.00,49.620
1219.00,49.639
1220.00,49.619
1221.00,49.637
1222.00,49.635
1223.00,49.649
1224.00,49.639
1225.00,49.618
1226.00,49.630
1227.00,49.628
1228.00,49.645
1229.00,49.642
1230.00,49.683
1231.00,49.665
1232.00,49.678
1233.00,49.696
1234.00,49.683
1235.00,49.688
1236.00,49.695
1237.00,49.686
1238.00,49.682
1239.00,49.693
1240.00,49.680
1241.00,49.686
1242.00,49.689
1243.00,49.697
1244.00,49.687
1245.00,49.704
1246.00,49.719
1247.00,49.728
1248.00,49.697
1249.00,49.721
1250.00,49.721
1251.00,49.712
1252.00,49.724
1253.00,49.701
1254.00,49.738
1255.00,49.711
1256.00,49.689
1257.00,49.708
1258.00,49.736
1259.00,49.707
1260.00,49.733
1261.00,49.728
1262.00,49.724
1263.00,49.732
1264.00,49.732
1265.00,49.740
1266.00,49.739
1267.00,49.741
1268.00,49.768
1269.00,49.754
1270.00,49.766
1271.00,49.772
1272.00,49.768
1273.00,49.783
1274.00,49.777
1275.00,49.771
1276.00,49.776
1277.00,49.806
1278.00,49.810
1279.00,49.796
1280.00,49.802
1281.00,49.805
1282.00,49.817
1283.00,49.792
1284.00,49.820
1285.00,49.806
1286.00,49.809
1287.00,49.811
1288.00,49.826
1289.00,49.819
1290.00,49.831
1291.00,49.838
1292.00,49.846
1293.00,49.852
1294.00,49.848
1295.00,49.861
1296.00,49.872
1297.00,49.862
1298.00,49.887
1299.00,49.859
1300.00,49.864
1301.00,49.859
1302.00,49.884
1303.00,49.882
1304.00,49.858
1305.00,49.884
1306.00,49.886
1307.00,49.897
1308.00,49.907
1309.00,49.925
1310.00,49.931
1311.00,49.893
1312.00,49.913
1313.00,49.928
1314.00,49.927
1315.00,49.949
1316.00,49.941
1317.00,49.973
1318.00,49.953
1319.00,49.960
1320.00,49.974
1321.00,50.142
1322.00,50.133
1323.00,50.127
1324.00,50.126
1325.00,50.102
1326.00,50.122
1327.00,50.110
1328.00,50.102
1329.00,50.112
1330.00,50.120
1331.00,50.121
1332.00,50.120
1333.00,50.097
1334.00,50.162
1335.00,50.173
1336.00,50.194
1337.00,50.217
1338.00,50.272
1339.00,50.310
1340.00,50.373
1341.00,50.434
1342.00,50.514
1343.00,50.563
1344.00,50.591
1345.00,50.669
1346.00,50.707
1347.00,50.711
1348.00,50.757
1349.00,50.755
1350.00,50.776
1351.00,50.794
1352.00,50.793
1353.00,50.847
1354.00,50.829
1355.00,50.755
1356.00,50.832
1357.00,50.834
1358.00,50.833
1359.00,50.854
1360.00,50.894
1361.00,50.801
1362.00,50.771
1363.00,50.899
1364.00,50.857
1365.00,50.822
1366.00,50.878
1367.00,50.833
1368.00,50.771
1369.00,50.788
1370.00,50.848
1371.00,50.761
1372.00,50.793
1373.00,50.810
1374.00,50.814
1375.00,50.799
1376.00,50.804
1377.00,50.762
1378.00,50.832
1379.00,50.828
1380.00,50.814
1381.00,50.839
1382.00,50.775
1383.00,50.812
1384.00,50.759
1385.00,50.742
1386.00,50.819
1387.00,50.789
1388.00,50.736
1389.00,50.745
1390.00,50.836
1391.00,50.728
1392.00,50.769
1393.00,50.823
1394.00,50.800
1395.00,50.759
1396.00,50.698
1397.00,50.802
1398.00,50.809
1399.00,50.734
1400.00,50.680
1401.00,50.778
1402.00,50.774
1403.00,50.760
1404.00,50.760
1405.00,50.815
1406.00,50.787
1407.00,50.824
1408.00,50.794
1409.00,50.784
1410.00,50.824
1411.00,50.834
1412.00,50.910
1413.00,50.761
1414.00,50.798
1415.00,50.859
1416.00,50.880
1417.00,50.972
1418.00,50.918
1419.00,50.880
1420.00,50.934
1421.00,50.974
1422.00,50.965
1423.00,50.968
1424.00,50.961
1425.00,50.997
1426.00,50.999
1427.00,50.997
1428.00,51.025
1429.00,51.014
1430.00,51.043
1431.00,51.059
1432.00,51.067
1433.00,51.093
1434.00,51.072
1435.00,51.134
1436.00,51.142
1437.00,51.130
1438.00,51.140
1439.00,51.173
1440.00,51.174
1441.00,51.171
1442.00,51.213
1443.00,51.248
1444.00,51.295
1445.00,51.238
1446.00,51.256
1447.00,51.324
1448.00,51.324
1449.00,51.312
1450.00,51.304
1451.00,51.316
1452.00,51.336
1453.00,51.365
1454.00,51.364
1455.00,51.394
1456.00,51.415
1457.00,51.399
1458.00,51.446
1459.00,51.450
1460.00,51.457
1461.00,51.479
1462.00,51.482
1463.00,51.507
1464.00,51.542
1465.00,51.518
1466.00,51.531
1467.00,51.553
1468.00,51.594
1469.00,51.578
1470.00,51.588
1471.00,51.597
1472.00,51.619
1473.00,51.610
1474.00,51.651
1475.00,51.667
1476.00,51.662
1477.00,51.676
1478.00,51.703
1479.00,51.713
1480.00,51.717
1481.00,51.717
1482.00,51.741
1483.00,51.760
1484.00,51.755
1485.00,51.772
1486.00,51.794
1487.00,51.792
1488.00,51.831
1489.00,51.826
1490.00,51.821
1491.00,51.846
1492.00,51.853
1493.00,51.844
1494.00,51.875
1495.00,51.850
1496.00,51.875
1497.00,51.876
1498.00,51.866
1499.00,51.892
1500.00,51.916
1501.00, 
1502.00, 
1503.00, 
1504.00, 
1505.00, 
1506.00, 
1507.00, 
1508.00, 
1509.00, 
1510.00, 
1511.00, 
1512.00, 
1513.00, 
1514.00, 
1515.00, 
1516.00, 
1517.00, 
1518.00, 
1519.00, 
1520.00, 
1521.00, 
1522.00, 
1523.00, 
1524.00, 
1525.00, 
1526.00, 
1527.00, 
1528.00, 
1529.00, 
1530.00, 
1531.00, 
1532.00, 
1533.00, 
1534.00, 
1535.00, 
1536.00, 
1537.00, 
1538.00, 
1539.00, 
1540.00, 
1541.00, 
1542.00, 
1543.00, 
1544.00, 
1545.00, 
1546.00, 
1547.00, 
1548.00, 
1549.00, 
1550.00, 
1551.00, 
1552.00, 
1553.00, 
1554.00, 
1555.00, 
1556.00, 
1557.00, 
1558.00, 
1559.00, 
1560.00, 
1561.00, 
1562.00, 
1563.00, 
1564.00, 
1565.00, 
1566.00, 
1567.00, 
1568.00, 
1569.00, 
1570.00, 
1571.00, 
1572.00, 
1573.00, 
1574.00, 
1575.00, 
1576.00, 
1577.00, 
1578.00, 
1579.00, 
1580.00, 
1581.00, 
1582.00, 
1583.00, 
1584.00, 
1585.00, 
1586.00, 
1587.00, 
1588.00, 
1589.00, 
1590.00, 
1591.00, 
1592.00, 
1593.00, 
1594.00, 
1595.00, 
1596.00, 
1597.00, 
1598.00, 
1599.00, 
1600.00, 
1601.00, 
1602.00, 
1603.00, 
1604.00, 
1605.00, 
1606.00, 
1607.00, 
1608.00, 
1609.00, 
1610.00, 
1611.00, 
1612.00, 
1613.00, 
1614.00, 
1615.00, 
1616.00, 
1617.00, 
1618.00, 
1619.00, 
1620.00, 
1621.00, 
1622.00, 
1623.00, 
1624.00, 
1625.00, 
1626.00, 
1627.00, 
1628.00, 
1629.00, 
1630.00, 
1631.00, 
1632.00, 
1633.00, 
1634.00, 
1635.00, 
1636.00, 
1637.00, 
1638.00, 
1639.00, 
1640.00, 
1641.00, 
1642.00, 
1643.00, 
1644.00, 
1645.00, 
1646.00, 
1647.00, 
1648.00, 
1649.00, 
1650.00, 
1651.00, 
1652.00, 
1653.00, 
1654.00, 
1655.00, 
1656.00, 
1657.00, 
1658.00, 
1659.00, 
1660.00, 
1661.00, 
1662.00, 
1663.00, 
1664.00, 
1665.00, 
1666.00, 
1667.00, 
1668.00, 
1669.00, 
1670.00, 
1671.00, 
1672.00, 
1673.00, 
1674.00, 
1675.00, 
1676.00, 
1677.00, 
1678.00, 
1679.00, 
1680.00, 
1681.00, 
1682.00, 
1683.00, 
1684.00, 
1685.00, 
1686.00, 
1687.00, 
1688.00, 
1689.00, 
1690.00, 
1691.00, 
1692.00, 
1693.00, 
1694.00, 
1695.00, 
1696.00, 
1697.00, 
1698.00, 
1699.00, 
1700.00, 
1701.00, 
1702.00, 
1703.00, 
1704.00, 
1705.00, 
1706.00, 
1707.00, 
1708.00, 
1709.00, 
1710.00, 
1711.00, 
1712.00, 
1713.00, 
1714.00, 
1715.00, 
1716.00, 
1717.00, 
1718.00, 
1719.00, 
1720.00, 
1721.00, 
1722.00, 
1723.00, 
1724.00, 
1725.00, 
1726.00, 
1727.00, 
1728.00, 
1729.00, 
1730.00, 
1731.00, 
1732.00, 
1733.00, 
1734.00, 
1735.00, 
1736.00, 
1737.00, 
1738.00, 
1739.00, 
1740.00, 
1741.00, 
1742.00, 
1743.00, 
1744.00, 
1745.00, 
1746.00, 
1747.00, 
1748.00, 
1749.00, 
1750.00, 
1751.00, 
1752.00, 
1753.00, 
1754.00, 
1755.00, 
1756.00, 
1757.00, 
1758.00, 
1759.00, 
1760.00, 
1761.00, 
1762.00, 
1763.00, 
1764.00, 
1765.00, 
1766.00, 
1767.00, 
1768.00, 
1769.00, 
1770.00, 
1771.00, 
1772.00, 
1773.00, 
1774.00, 
1775.00, 
1776.00, 
1777.00, 
1778.00, 
1779.00, 
1780.00, 
1781.00, 
1782.00, 
1783.00, 
1784.00, 
1785.00, 
1786.00, 
1787.00, 
1788.00, 
1789.00, 
1790.00, 
1791.00, 
1792.00, 
1793.00, 
1794.00, 
1795.00, 
1796.00, 
1797.00, 
1798.00, 
1799.00, 
1800.00, 
1801.00, 
1802.00, 
1803.00, 
1804.00, 
1805.00, 
1806.00, 
1807.00, 
1808.00, 
1809.00, 
1810.00, 
1811.00, 
1812.00, 
1813.00, 
1814.00, 
1815.00, 
1816.00, 
1817.00, 
1818.00, 
1819.00, 
1820.00, 
1821.00, 
1822.00, 
1823.00, 
1824.00, 
1825.00, 
1826.00, 
1827.00, 
1828.00, 
1829.00, 
1830.00, 
1831.00, 
1832.00, 
1833.00, 
1834.00, 
1835.00, 
1836.00, 
1837.00, 
1838.00, 
1839.00, 
1840.00, 
1841.00, 
1842.00, 
1843.00, 
1844.00, 
1845.00, 
1846.00, 
1847.00, 
1848.00, 
1849.00, 
1850.00, 
1851.00, 
1852.00, 
1853.00, 
1854.00, 
1855.00, 
1856.00, 
1857.00, 
1858.00, 
1859.00, 
1860.00, 
1861.00, 
1862.00, 
1863.00, 
1864.00, 
1865.00, 
1866.00, 
1867.00, 
1868.00, 
1869.00, 
1870.00, 
1871.00, 
1872.00, 
1873.00, 
1874.00, 
1875.00, 
1876.00, 
1877.00, 
1878.00, 
1879.00, 
1880.00, 
1881.00, 
1882.00, 
1883.00, 
1884.00, 
1885.00, 
1886.00, 
1887.00, 
1888.00, 
1889.00, 
1890.00, 
1891.00, 
1892.00, 
1893.00, 
1894.00, 
1895.00, 
1896.00, 
1897.00, 
1898.00, 
1899.00, 
1900.00, 
1901.00, 
1902.00, 
1903.00, 
1904.00, 
1905.00, 
1906.00, 
1907.00, 
1908.00, 
1909.00, 
1910.00, 
1911.00, 
1912.00, 
1913.00, 
1914.00, 
1915.00, 
1916.00, 
1917.00, 
1918.00, 
1919.00, 
1920.00, 
1921.00, 
1922.00, 
1923.00, 
1924.00, 
1925.00, 
1926.00, 
1927.00, 
1928.00, 
1929.00, 
1930.00, 
1931.00, 
1932.00, 
1933.00, 
1934.00, 
1935.00, 
1936.00, 
1937.00, 
1938.00, 
1939.00, 
1940.00, 
1941.00, 
1942.00, 
1943.00, 
1944.00, 
1945.00, 
1946.00, 
1947.00, 
1948.00, 
1949.00, 
1950.00, 
1951.00, 
1952.00, 
1953.00, 
1954.00, 
1955.00, 
1956.00, 
1957.00, 
1958.00, 
1959.00, 
1960.00, 
1961.00, 
1962.00, 
1963.00, 
1964.00, 
1965.00, 
1966.00, 
1967.00, 
1968.00, 
1969.00, 
1970.00, 
1971.00, 
1972.00, 
1973.00, 
1974.00, 
1975.00, 
1976.00, 
1977.00, 
1978.00, 
1979.00, 
1980.00, 
1981.00, 
1982.00, 
1983.00, 
1984.00, 
1985.00, 
1986.00, 
1987.00, 
1988.00, 
1989.00, 
1990.00, 
1991.00, 
1992.00, 
1993.00, 
1994.00, 
1995.00, 
1996.00, 
1997.00, 
1998.00, 
1999.00, 
2000.00, 
2001.00, 
2002.00, 
2003.00, 
2004.00, 
2005.00, 
2006.00, 
2007.00, 
2008.00, 
2009.00, 
2010.00, 
2011.00, 
2012.00, 
2013.00, 
2014.00, 
2015.00, 
2016.00, 
2017.00, 
2018.00, 
2019.00, 
2020.00, 
2021.00, 
2022.00, 
2023.00, 
2024.00, 
2025.00, 
2026.00, 
2027.00, 
2028.00, 
2029.00, 
2030.00, 
2031.00, 
2032.00, 
2033.00, 
2034.00, 
2035.00, 
2036.00, 
2037.00, 
2038.00, 
2039.00, 
2040.00, 
2041.00, 
2042.00, 
2043.00, 
2044.00, 
2045.00, 
2046.00, 
2047.00, 
2048.00, 
2049.00, 
2050.00, 
2051.00, 
2052.00, 
2053.00, 
2054.00, 
2055.00, 
2056.00, 
2057.00, 
2058.00, 
2059.00, 
2060.00, 
2061.00, 
2062.00, 
2063.00, 
2064.00, 
2065.00, 
2066.00, 
2067.00, 
2068.00, 
2069.00, 
2070.00, 
2071.00, 
2072.00, 
2073.00, 
2074.00, 
2075.00, 
2076.00, 
2077.00, 
2078.00, 
2079.00, 
2080.00, 
2081.00, 
2082.00, 
2083.00, 
2084.00, 
2085.00, 
2086.00, 
2087.00, 
2088.00, 
2089.00, 
2090.00, 
2091.00, 
2092.00, 
2093.00, 
2094.00, 
2095.00, 
2096.00, 
2097.00, 
2098.00, 
2099.00, 
2100.00, 
2101.00, 
2102.00, 
2103.00, 
2104.00, 
2105.00, 
2106.00, 
2107.00, 
2108.00, 
2109.00, 
2110.00, 
2111.00, 
2112.00, 
2113.00, 
2114.00, 
2115.00, 
2116.00, 
2117.00, 
2118.00, 
2119.00, 
2120.00, 
2121.00, 
2122.00, 
2123.00, 
2124.00, 
2125.00, 
2126.00, 
2127.00, 
2128.00, 
2129.00, 
2130.00, 
2131.00, 
2132.00, 
2133.00, 
2134.00, 
2135.00, 
2136.00, 
2137.00, 
2138.00, 
2139.00, 
2140.00, 
2141.00, 
2142.00, 
2143.00, 
2144.00, 
2145.00, 
2146.00, 
2147.00, 
2148.00, 
2149.00, 
2150.00, 
2151.00, 
2152.00, 
2153.00, 
2154.00, 
2155.00, 
2156.00, 
2157.00, 
2158.00, 
2159.00, 
2160.00, 
2161.00, 
2162.00, 
2163.00, 
2164.00, 
2165.00, 
2166.00, 
2167.00, 
2168.00, 
2169.00, 
2170.00, 
2171.00, 
2172.00, 
2173.00, 
2174.00, 
2175.00, 
2176.00, 
2177.00, 
2178.00, 
2179.00, 
2180.00, 
2181.00, 
2182.00, 
2183.00, 
2184.00, 
2185.00, 
2186.00, 
2187.00, 
2188.00, 
2189.00, 
2190.00, 
2191.00, 
2192.00, 
2193.00, 
2194.00, 
2195.00, 
2196.00, 
2197.00, 
2198.00, 
2199.00, 
2200.00, 
2201.00, 
2202.00, 
2203.00, 
2204.00, 
2205.00, 
2206.00, 
2207.00, 
2208.00, 
2209.00, 
2210.00, 
2211.00, 
2212.00, 
2213.00, 
2214.00, 
2215.00, 
2216.00, 
2217.00, 
2218.00, 
2219.00, 
2220.00, 
2221.00, 
2222.00, 
2223.00, 
2224.00, 
2225.00, 
2226.00, 
2227.00, 
2228.00, 
2229.00, 
2230.00, 
2231.00, 
2232.00, 
2233.00, 
2234.00, 
2235.00, 
2236.00, 
2237.00, 
2238.00, 
2239.00, 
2240.00, 
2241.00, 
2242.00, 
2243.00, 
2244.00, 
2245.00, 
2246.00, 
2247.00, 
2248.00, 
2249.00, 
2250.00, 
2251.00, 
2252.00, 
2253.00, 
2254.00, 
2255.00, 
2256.00, 
2257.00, 
2258.00, 
2259.00, 
2260.00, 
2261.00, 
2262.00, 
2263.00, 
2264.00, 
2265.00, 
2266.00, 
2267.00, 
2268.00, 
2269.00, 
2270.00, 
2271.00, 
2272.00, 
2273.00, 
2274.00, 
2275.00, 
2276.00, 
2277.00, 
2278.00, 
2279.00, 
2280.00, 
2281.00, 
2282.00, 
2283.00, 
2284.00, 
2285.00, 
2286.00, 
2287.00, 
2288.00, 
2289.00, 
2290.00, 
2291.00, 
2292.00, 
2293.00, 
2294.00, 
2295.00, 
2296.00, 
2297.00, 
2298.00, 
2299.00, 
2300.00, 
2301.00, 
2302.00, 
2303.00, 
2304.00, 
2305.00, 
2306.00, 
2307.00, 
2308.00, 
2309.00, 
2310.00, 
2311.00, 
2312.00, 
2313.00, 
2314.00, 
2315.00, 
2316.00, 
2317.00, 
2318.00, 
2319.00, 
2320.00, 
2321.00, 
2322.00, 
2323.00, 
2324.00, 
2325.00, 
2326.00, 
2327.00, 
2328.00, 
2329.00, 
2330.00, 
2331.00, 
2332.00, 
2333.00, 
2334.00, 
2335.00, 
2336.00, 
2337.00, 
2338.00, 
2339.00, 
2340.00, 
2341.00, 
2342.00, 
2343.00, 
2344.00, 
2345.00, 
2346.00, 
2347.00, 
2348.00, 
2349.00, 
2350.00, 
2351.00, 
2352.00, 
2353.00, 
2354.00, 
2355.00, 
2356.00, 
2357.00, 
2358.00, 
2359.00, 
2360.00, 
2361.00, 
2362.00, 
2363.00, 
2364.00, 
2365.00, 
2366.00, 
2367.00, 
2368.00, 
2369.00, 
2370.00, 
2371.00, 
2372.00, 
2373.00, 
2374.00, 
2375.00, 
2376.00, 
2377.00, 
2378.00, 
2379.00, 
2380.00, 
2381.00, 
2382.00, 
2383.00, 
2384.00, 
2385.00, 
2386.00, 
2387.00, 
2388.00, 
2389.00, 
2390.00, 
2391.00, 
2392.00, 
2393.00, 
2394.00, 
2395.00, 
2396.00, 
2397.00, 
2398.00, 
2399.00, 
2400.00, 
2401.00, 
2402.00, 
2403.00, 
2404.00, 
2405.00, 
2406.00, 
2407.00, 
2408.00, 
2409.00, 
2410.00, 
2411.00, 
2412.00, 
2413.00, 
2414.00, 
2415.00, 
2416.00, 
2417.00, 
2418.00, 
2419.00, 
2420.00, 
2421.00, 
2422.00, 
2423.00, 
2424.00, 
2425.00, 
2426.00, 
2427.00, 
2428.00, 
2429.00, 
2430.00, 
2431.00, 
2432.00, 
2433.00, 
2434.00, 
2435.00, 
2436.00, 
2437.00, 
2438.00, 
2439.00, 
2440.00, 
2441.00, 
2442.00, 
2443.00, 
2444.00, 
2445.00, 
2446.00, 
2447.00, 
2448.00, 
2449.00, 
2450.00, 
2451.00, 
2452.00, 
2453.00, 
2454.00, 
2455.00, 
2456.00, 
2457.00, 
2458.00, 
2459.00, 
2460.00, 
2461.00, 
2462.00, 
2463.00, 
2464.00, 
2465.00, 
2466.00, 
2467.00, 
2468.00, 
2469.00, 
2470.00, 
2471.00, 
2472.00, 
2473.00, 
2474.00, 
2475.00, 
2476.00, 
2477.00, 
2478.00, 
2479.00, 
2480.00, 
2481.00, 
2482.00, 
2483.00, 
2484.00, 
2485.00, 
2486.00, 
2487.00, 
2488.00, 
2489.00, 
2490.00, 
2491.00, 
2492.00, 
2493.00, 
2494.00, 
2495.00, 
2496.00, 
2497.00, 
2498.00, 
2499.00, 
2500.00, 
2501.00, 
2502.00, 
2503.00, 
2504.00, 
2505.00, 
2506.00, 
2507.00, 
2508.00, 
2509.00, 
2510.00, 
2511.00, 
2512.00, 
2513.00, 
2514.00, 
2515.00, 
2516.00, 
2517.00, 
2518.00, 
2519.00, 
2520.00, 
2521.00, 
2522.00, 
2523.00, 
2524.00, 
2525.00, 
2526.00, 
2527.00, 
2528.00, 
2529.00, 
2530.00, 
2531.00, 
2532.00, 
2533.00, 
2534.00, 
2535.00, 
2536.00, 
2537.00, 
2538.00, 
2539.00, 
2540.00, 
2541.00, 
2542.00, 
2543.00, 
2544.00, 
2545.00, 
2546.00, 
2547.00, 
2548.00, 
2549.00, 
2550.00, 
2551.00, 
2552.00, 
2553.00, 
2554.00, 
2555.00, 
2556.00, 
2557.00, 
2558.00, 
2559.00, 
2560.00, 
2561.00, 
2562.00, 
2563.00, 
2564.00, 
2565.00, 
2566.00, 
2567.00, 
2568.00, 
2569.00, 
2570.00, 
2571.00, 
2572.00, 
2573.00, 
2574.00, 
2575.00, 
2576.00, 
2577.00, 
2578.00, 
2579.00, 
2580.00, 
2581.00, 
2582.00, 
2583.00, 
2584.00, 
2585.00, 
2586.00, 
2587.00, 
2588.00, 
2589.00, 
2590.00, 
2591.00, 
2592.00, 
2593.00, 
2594.00, 
2595.00, 
2596.00, 
2597.00, 
2598.00, 
2599.00, 
2600.00, 
