"air - RawData"
"Wavelength nm.","T%"
200.00,99.115
201.00,99.291
202.00,99.232
203.00,99.432
204.00,98.583
205.00,99.087
206.00,99.613
207.00,98.722
208.00,99.208
209.00,99.262
210.00,99.110
211.00,98.977
212.00,99.340
213.00,99.179
214.00,98.995
215.00,99.470
216.00,99.268
217.00,99.069
218.00,99.148
219.00,98.922
220.00,99.321
221.00,99.053
222.00,99.373
223.00,98.827
224.00,99.222
225.00,99.046
226.00,98.998
227.00,98.844
228.00,98.833
229.00,98.870
230.00,98.920
231.00,98.943
232.00,98.575
233.00,99.145
234.00,99.110
235.00,98.944
236.00,98.824
237.00,99.152
238.00,98.918
239.00,99.072
240.00,99.171
241.00,98.806
242.00,99.236
243.00,99.170
244.00,99.180
245.00,98.739
246.00,99.083
247.00,99.012
248.00,98.916
249.00,99.096
250.00,98.820
251.00,99.152
252.00,98.862
253.00,99.276
254.00,99.026
255.00,99.189
256.00,99.329
257.00,99.216
258.00,99.050
259.00,99.278
260.00,99.540
261.00,99.271
262.00,99.103
263.00,99.338
264.00,99.443
265.00,99.307
266.00,99.466
267.00,99.877
268.00,98.961
269.00,98.791
270.00,99.503
271.00,98.905
272.00,99.050
273.00,99.039
274.00,99.380
275.00,98.782
276.00,99.111
277.00,100.093
278.00,98.884
279.00,99.120
280.00,98.934
281.00,98.909
282.00,98.758
283.00,99.283
284.00,98.964
285.00,99.106
286.00,99.110
287.00,99.435
288.00,99.089
289.00,99.252
290.00,99.545
291.00,99.152
292.00,99.899
293.00,99.231
294.00,98.272
295.00,99.442
296.00,99.147
297.00,99.009
298.00,100.256
299.00,99.233
300.00,99.595
301.00,98.879
302.00,99.087
303.00,98.843
304.00,98.908
305.00,98.589
306.00,98.896
307.00,99.064
308.00,98.842
309.00,98.739
310.00,98.715
311.00,99.413
312.00,99.430
313.00,99.762
314.00,99.698
315.00,99.560
316.00,99.592
317.00,99.863
318.00,99.966
319.00,99.634
320.00,99.584
321.00,99.526
322.00,99.281
323.00,99.626
324.00,99.362
325.00,99.271
326.00,99.491
327.00,99.531
328.00,99.333
329.00,99.548
330.00,99.378
331.00,99.369
332.00,99.382
333.00,99.371
334.00,99.427
335.00,99.420
336.00,99.273
337.00,99.325
338.00,99.315
339.00,99.361
340.00,99.454
341.00,99.456
342.00,99.779
343.00,99.687
344.00,99.744
345.00,99.938
346.00,100.089
347.00,99.523
348.00,99.420
349.00,99.430
350.00,99.450
351.00,99.526
352.00,99.568
353.00,99.387
354.00,99.392
355.00,99.785
356.00,99.518
357.00,99.564
358.00,99.563
359.00,99.744
360.00,99.856
361.00,99.360
362.00,99.757
363.00,99.525
364.00,99.464
365.00,99.622
366.00,99.326
367.00,99.476
368.00,99.474
369.00,99.522
370.00,99.620
371.00,99.538
372.00,99.504
373.00,99.580
374.00,99.761
375.00,99.842
376.00,99.519
377.00,99.501
378.00,99.394
379.00,99.460
380.00,99.463
381.00,99.474
382.00,99.422
383.00,99.406
384.00,99.366
385.00,99.365
386.00,99.404
387.00,99.271
388.00,99.363
389.00,99.375
390.00,99.408
391.00,99.340
392.00,99.367
393.00,99.243
394.00,99.361
395.00,99.345
396.00,99.305
397.00,99.358
398.00,99.158
399.00,99.302
400.00,99.175
401.00,99.441
402.00,99.350
403.00,99.199
404.00,99.261
405.00,99.249
406.00,99.187
407.00,99.284
408.00,99.499
409.00,99.278
410.00,99.161
411.00,99.221
412.00,99.180
413.00,99.278
414.00,99.190
415.00,99.235
416.00,99.371
417.00,99.159
418.00,99.450
419.00,99.675
420.00,99.786
421.00,99.326
422.00,99.287
423.00,99.444
424.00,99.489
425.00,99.354
426.00,99.384
427.00,99.402
428.00,99.345
429.00,99.455
430.00,99.433
431.00,99.315
432.00,99.459
433.00,99.277
434.00,99.470
435.00,99.506
436.00,99.377
437.00,99.415
438.00,99.339
439.00,99.357
440.00,99.352
441.00,99.450
442.00,99.363
443.00,99.403
444.00,99.458
445.00,99.503
446.00,99.481
447.00,99.284
448.00,99.452
449.00,99.212
450.00,99.445
451.00,99.370
452.00,99.314
453.00,99.368
454.00,99.426
455.00,99.372
456.00,99.371
457.00,99.378
458.00,99.303
459.00,99.360
460.00,99.424
461.00,99.447
462.00,99.318
463.00,99.395
464.00,99.325
465.00,99.403
466.00,99.560
467.00,99.474
468.00,99.297
469.00,99.226
470.00,99.357
471.00,99.186
472.00,99.274
473.00,99.210
474.00,99.287
475.00,99.178
476.00,99.131
477.00,99.061
478.00,98.832
479.00,99.205
480.00,99.074
481.00,99.030
482.00,99.103
483.00,98.983
484.00,99.028
485.00,99.012
486.00,99.087
487.00,99.043
488.00,99.111
489.00,99.112
490.00,99.300
491.00,99.260
492.00,99.307
493.00,99.526
494.00,99.623
495.00,99.269
496.00,99.287
497.00,99.155
498.00,99.343
499.00,99.332
500.00,99.456
501.00,99.267
502.00,99.204
503.00,99.302
504.00,99.037
505.00,99.072
506.00,99.154
507.00,99.132
508.00,99.195
509.00,99.205
510.00,99.325
511.00,99.008
512.00,99.040
513.00,99.281
514.00,99.159
515.00,99.114
516.00,99.259
517.00,99.183
518.00,99.127
519.00,98.966
520.00,98.827
521.00,99.158
522.00,99.144
523.00,98.857
524.00,99.115
525.00,99.048
526.00,99.144
527.00,99.094
528.00,99.155
529.00,99.504
530.00,99.555
531.00,99.355
532.00,99.286
533.00,99.390
534.00,99.386
535.00,99.303
536.00,99.345
537.00,99.344
538.00,99.222
539.00,99.249
540.00,99.229
541.00,99.214
542.00,99.095
543.00,99.091
544.00,99.157
545.00,99.149
546.00,99.047
547.00,99.200
548.00,99.206
549.00,99.255
550.00,99.138
551.00,99.274
552.00,99.243
553.00,99.210
554.00,99.203
555.00,99.262
556.00,99.144
557.00,99.198
558.00,99.223
559.00,99.173
560.00,99.276
561.00,99.291
562.00,99.275
563.00,99.281
564.00,99.274
565.00,99.013
566.00,99.226
567.00,99.140
568.00,99.354
569.00,99.639
570.00,99.349
571.00,99.230
572.00,99.229
573.00,99.161
574.00,99.116
575.00,99.093
576.00,99.109
577.00,99.094
578.00,99.136
579.00,99.086
580.00,98.985
581.00,99.227
582.00,99.294
583.00,99.222
584.00,99.193
585.00,99.281
586.00,99.171
587.00,99.213
588.00,99.211
589.00,98.892
590.00,99.030
591.00,99.070
592.00,98.911
593.00,98.961
594.00,98.896
595.00,99.137
596.00,99.327
597.00,99.294
598.00,99.292
599.00,99.153
600.00,99.101
601.00,99.160
602.00,99.063
603.00,99.077
604.00,99.128
605.00,99.163
606.00,99.010
607.00,99.125
608.00,99.597
609.00,99.574
610.00,98.973
611.00,99.114
612.00,99.044
613.00,99.031
614.00,99.126
615.00,99.138
616.00,99.202
617.00,99.214
618.00,98.869
619.00,99.093
620.00,98.896
621.00,99.169
622.00,99.286
623.00,99.156
624.00,99.274
625.00,99.178
626.00,99.108
627.00,99.225
628.00,98.997
629.00,98.872
630.00,99.065
631.00,99.001
632.00,98.940
633.00,99.213
634.00,99.122
635.00,98.986
636.00,99.061
637.00,99.069
638.00,99.053
639.00,99.109
640.00,99.010
641.00,98.990
642.00,99.130
643.00,99.048
644.00,99.091
645.00,98.899
646.00,99.127
647.00,99.135
648.00,99.189
649.00,98.924
650.00,98.906
651.00,99.192
652.00,99.251
653.00,98.815
654.00,99.044
655.00,99.209
656.00,99.772
657.00,98.904
658.00,98.722
659.00,98.926
660.00,99.026
661.00,98.849
662.00,98.909
663.00,99.175
664.00,100.205
665.00,99.647
666.00,99.239
667.00,99.238
668.00,99.156
669.00,99.360
670.00,99.886
671.00,100.148
672.00,99.486
673.00,99.327
674.00,99.238
675.00,99.113
676.00,99.659
677.00,99.644
678.00,98.982
679.00,99.214
680.00,99.128
681.00,99.194
682.00,99.063
683.00,99.006
684.00,99.090
685.00,99.192
686.00,98.910
687.00,99.040
688.00,99.035
689.00,98.925
690.00,99.283
691.00,99.690
692.00,98.903
693.00,98.976
694.00,99.077
695.00,98.975
696.00,98.994
697.00,98.776
698.00,98.716
699.00,99.112
700.00,99.146
701.00,98.741
702.00,99.019
703.00,99.401
704.00,99.088
705.00,98.795
706.00,98.909
707.00,98.508
708.00,98.887
709.00,100.011
710.00,99.990
711.00,99.013
712.00,98.881
713.00,99.058
714.00,99.174
715.00,98.997
716.00,98.811
717.00,98.700
718.00,98.962
719.00,98.983
720.00,98.905
721.00,99.396
722.00,99.163
723.00,99.294
724.00,99.318
725.00,99.313
726.00,99.312
727.00,99.326
728.00,99.297
729.00,99.365
730.00,99.311
731.00,99.264
732.00,99.342
733.00,99.245
734.00,99.126
735.00,99.307
736.00,99.298
737.00,99.328
738.00,99.311
739.00,99.235
740.00,99.269
741.00,99.240
742.00,99.302
743.00,99.146
744.00,99.202
745.00,99.300
746.00,99.204
747.00,99.226
748.00,99.154
749.00,99.287
750.00,99.268
751.00,99.307
752.00,99.310
753.00,99.290
754.00,99.135
755.00,99.231
756.00,99.232
757.00,99.241
758.00,99.310
759.00,99.348
760.00,99.279
761.00,99.276
762.00,99.136
763.00,99.351
764.00,99.317
765.00,99.317
766.00,99.349
767.00,99.220
768.00,99.344
769.00,99.265
770.00,99.273
771.00,99.226
772.00,99.274
773.00,99.355
774.00,99.297
775.00,99.247
776.00,99.216
777.00,99.289
778.00,99.204
779.00,99.256
780.00,99.146
781.00,99.254
782.00,99.289
783.00,99.189
784.00,99.276
785.00,99.196
786.00,99.248
787.00,99.210
788.00,99.206
789.00,99.243
790.00,99.045
791.00,99.261
792.00,99.181
793.00,99.201
794.00,99.287
795.00,99.185
796.00,99.263
797.00,99.124
798.00,99.215
799.00,99.197
800.00,99.144
801.00,99.089
802.00,99.227
803.00,99.204
804.00,99.131
805.00,99.180
806.00,99.222
807.00,99.263
808.00,99.351
809.00,99.248
810.00,99.028
811.00,99.151
812.00,99.305
813.00,99.287
814.00,99.161
815.00,99.176
816.00,99.223
817.00,99.191
818.00,99.178
819.00,99.271
820.00,99.160
821.00,99.194
822.00,99.194
823.00,99.147
824.00,99.227
825.00,99.158
826.00,99.203
827.00,99.290
828.00,99.375
829.00,99.225
830.00,99.211
831.00,99.831
832.00,99.955
833.00,99.778
834.00,99.865
835.00,99.915
836.00,99.842
837.00,99.887
838.00,99.890
839.00,99.917
840.00,99.782
841.00,99.922
842.00,99.890
843.00,99.927
844.00,99.960
845.00,99.871
846.00,99.918
847.00,99.904
848.00,100.008
849.00,99.767
850.00,99.938
851.00,99.847
852.00,100.026
853.00,100.142
854.00,99.952
855.00,99.887
856.00,99.976
857.00,99.969
858.00,99.844
859.00,99.985
860.00,99.931
861.00,100.028
862.00,99.910
863.00,100.014
864.00,99.928
865.00,99.984
866.00,99.981
867.00,99.972
868.00,100.017
869.00,99.923
870.00,100.111
871.00,99.971
872.00,100.058
873.00,99.952
874.00,100.089
875.00,99.956
876.00,100.070
877.00,99.939
878.00,100.065
879.00,100.000
880.00,100.049
881.00,100.056
882.00,100.034
883.00,100.221
884.00,99.993
885.00,100.004
886.00,100.085
887.00,100.041
888.00,100.006
889.00,100.005
890.00,100.063
891.00,100.033
892.00,100.001
893.00,100.057
894.00,100.087
895.00,100.078
896.00,100.062
897.00,100.050
898.00,100.055
899.00,100.114
900.00,100.029
901.00,100.002
902.00,100.105
903.00,99.989
904.00,100.013
905.00,100.112
906.00,100.079
907.00,100.078
908.00,99.980
909.00,100.056
910.00,100.020
911.00,100.052
912.00,100.002
913.00,100.075
914.00,100.051
915.00,100.052
916.00,100.062
917.00,100.045
918.00,100.094
919.00,100.049
920.00,100.016
921.00,100.073
922.00,100.083
923.00,100.049
924.00,100.001
925.00,100.088
926.00,100.062
927.00,100.064
928.00,99.993
929.00,100.107
930.00,100.068
931.00,100.067
932.00,99.995
933.00,100.056
934.00,100.058
935.00,100.034
936.00,100.023
937.00,100.087
938.00,100.067
939.00,100.064
940.00,100.058
941.00,100.075
942.00,100.097
943.00,100.060
944.00,100.077
945.00,100.030
946.00,100.083
947.00,99.972
948.00,100.019
949.00,100.070
950.00,100.076
951.00,100.031
952.00,100.046
953.00,100.083
954.00,100.076
955.00,100.020
956.00,100.051
957.00,100.055
958.00,100.075
959.00,99.997
960.00,100.036
961.00,100.050
962.00,100.034
963.00,100.054
964.00,100.032
965.00,100.127
966.00,100.024
967.00,100.068
968.00,100.014
969.00,100.094
970.00,100.043
971.00,100.034
972.00,100.022
973.00,100.032
974.00,100.078
975.00,99.977
976.00,100.045
977.00,100.028
978.00,100.024
979.00,100.040
980.00,100.005
981.00,100.080
982.00,99.949
983.00,100.064
984.00,100.072
985.00,100.052
986.00,100.010
987.00,100.047
988.00,100.021
989.00,99.987
990.00,100.027
991.00,100.009
992.00,100.010
993.00,100.014
994.00,100.009
995.00,100.033
996.00,100.005
997.00,100.038
998.00,100.020
999.00,100.013
1000.00,100.016
1001.00,100.008
1002.00,100.030
1003.00,99.977
1004.00,100.010
1005.00,99.973
1006.00,100.035
1007.00,100.006
1008.00,99.976
1009.00,100.011
1010.00,100.022
1011.00,100.034
1012.00,100.003
1013.00,100.018
1014.00,99.986
1015.00,100.043
1016.00,100.033
1017.00,99.998
1018.00,100.028
1019.00,99.958
1020.00,100.038
1021.00,99.994
1022.00,100.025
1023.00,99.974
1024.00,100.008
1025.00,99.999
1026.00,99.975
1027.00,99.995
1028.00,99.985
1029.00,100.021
1030.00,99.976
1031.00,100.019
1032.00,99.998
1033.00,100.003
1034.00,100.006
1035.00,99.971
1036.00,99.998
1037.00,99.981
1038.00,100.000
1039.00,99.977
1040.00,100.017
1041.00,99.980
1042.00,99.992
1043.00,99.984
1044.00,100.005
1045.00,99.962
1046.00,99.982
1047.00,100.011
1048.00,99.967
1049.00,100.002
1050.00,99.953
1051.00,100.016
1052.00,99.957
1053.00,99.967
1054.00,99.975
1055.00,99.990
1056.00,99.986
1057.00,99.974
1058.00,99.974
1059.00,99.993
1060.00,100.013
1061.00,99.977
1062.00,100.000
1063.00,99.993
1064.00,100.018
1065.00,99.969
1066.00,100.011
1067.00,99.983
1068.00,100.032
1069.00,99.952
1070.00,99.980
1071.00,99.993
1072.00,100.004
1073.00,99.989
1074.00,99.987
1075.00,99.980
1076.00,99.997
1077.00,99.966
1078.00,99.967
1079.00,99.991
1080.00,99.979
1081.00,99.990
1082.00,99.973
1083.00,99.986
1084.00,99.973
1085.00,100.006
1086.00,99.982
1087.00,100.018
1088.00,99.967
1089.00,99.989
1090.00,99.975
1091.00,100.005
1092.00,99.983
1093.00,99.996
1094.00,99.983
1095.00,100.011
1096.00,99.966
1097.00,100.028
1098.00,99.980
1099.00,100.011
1100.00,99.975
1101.00,100.013
1102.00,99.968
1103.00,100.004
1104.00,99.974
1105.00,100.005
1106.00,100.008
1107.00,99.994
1108.00,99.984
1109.00,99.993
1110.00,99.976
1111.00,100.005
1112.00,99.971
1113.00,100.005
1114.00,99.978
1115.00,100.024
1116.00,99.972
1117.00,100.011
1118.00,99.973
1119.00,100.000
1120.00,100.014
1121.00,99.990
1122.00,99.973
1123.00,99.989
1124.00,99.962
1125.00,100.020
1126.00,99.994
1127.00,100.016
1128.00,99.987
1129.00,99.997
1130.00,99.979
1131.00,100.007
1132.00,99.987
1133.00,99.993
1134.00,99.967
1135.00,99.959
1136.00,99.964
1137.00,100.011
1138.00,99.972
1139.00,100.028
1140.00,99.982
1141.00,100.015
1142.00,99.985
1143.00,100.022
1144.00,100.001
1145.00,100.000
1146.00,99.983
1147.00,99.993
1148.00,99.979
1149.00,99.984
1150.00,99.989
1151.00,100.003
1152.00,99.987
1153.00,99.997
1154.00,99.968
1155.00,100.028
1156.00,99.990
1157.00,100.021
1158.00,100.001
1159.00,100.008
1160.00,100.006
1161.00,99.995
1162.00,100.002
1163.00,99.982
1164.00,100.012
1165.00,99.981
1166.00,100.006
1167.00,99.995
1168.00,100.003
1169.00,99.985
1170.00,100.003
1171.00,99.987
1172.00,100.023
1173.00,99.991
1174.00,100.011
1175.00,100.006
1176.00,99.994
1177.00,100.005
1178.00,99.981
1179.00,99.995
1180.00,99.982
1181.00,100.014
1182.00,99.963
1183.00,100.001
1184.00,99.999
1185.00,100.003
1186.00,100.015
1187.00,99.997
1188.00,100.029
1189.00,99.983
1190.00,100.009
1191.00,100.007
1192.00,100.030
1193.00,99.981
1194.00,99.998
1195.00,99.979
1196.00,100.007
1197.00,100.000
1198.00,99.968
1199.00,100.000
1200.00,99.995
1201.00,100.014
1202.00,99.979
1203.00,100.003
1204.00,99.996
1205.00,100.023
1206.00,99.992
1207.00,99.982
1208.00,100.004
1209.00,99.985
1210.00,100.014
1211.00,99.997
1212.00,100.022
1213.00,99.995
1214.00,100.017
1215.00,99.984
1216.00,100.009
1217.00,100.015
1218.00,99.993
1219.00,100.026
1220.00,99.972
1221.00,100.001
1222.00,99.982
1223.00,100.003
1224.00,100.000
1225.00,99.980
1226.00,100.004
1227.00,100.023
1228.00,100.033
1229.00,99.993
1230.00,99.993
1231.00,99.974
1232.00,99.984
1233.00,99.988
1234.00,99.971
1235.00,99.998
1236.00,99.983
1237.00,100.023
1238.00,99.986
1239.00,100.017
1240.00,99.990
1241.00,100.038
1242.00,100.004
1243.00,99.998
1244.00,99.987
1245.00,99.999
1246.00,99.982
1247.00,99.966
1248.00,99.977
1249.00,100.020
1250.00,100.015
1251.00,99.984
1252.00,100.005
1253.00,99.982
1254.00,100.028
1255.00,99.947
1256.00,99.993
1257.00,100.064
1258.00,100.008
1259.00,99.973
1260.00,99.993
1261.00,99.992
1262.00,99.984
1263.00,100.011
1264.00,99.980
1265.00,99.992
1266.00,99.984
1267.00,100.002
1268.00,100.006
1269.00,100.011
1270.00,99.986
1271.00,100.006
1272.00,100.012
1273.00,100.058
1274.00,99.976
1275.00,100.019
1276.00,99.982
1277.00,100.014
1278.00,99.975
1279.00,99.989
1280.00,99.974
1281.00,99.991
1282.00,100.003
1283.00,99.965
1284.00,100.013
1285.00,99.999
1286.00,100.004
1287.00,100.003
1288.00,99.994
1289.00,100.000
1290.00,100.016
1291.00,99.980
1292.00,99.979
1293.00,100.003
1294.00,100.002
1295.00,99.970
1296.00,100.005
1297.00,99.950
1298.00,100.015
1299.00,99.949
1300.00,99.997
1301.00,99.983
1302.00,100.017
1303.00,99.977
1304.00,99.985
1305.00,100.014
1306.00,100.002
1307.00,99.982
1308.00,99.977
1309.00,99.998
1310.00,99.959
1311.00,99.932
1312.00,99.939
1313.00,99.962
1314.00,99.957
1315.00,100.008
1316.00,99.987
1317.00,100.032
1318.00,100.003
1319.00,100.020
1320.00,99.976
1321.00,100.034
1322.00,99.954
1323.00,99.998
1324.00,99.985
1325.00,99.977
1326.00,99.975
1327.00,99.958
1328.00,99.979
1329.00,99.959
1330.00,99.966
1331.00,99.954
1332.00,99.954
1333.00,99.916
1334.00,100.003
1335.00,99.952
1336.00,99.985
1337.00,99.961
1338.00,99.954
1339.00,99.956
1340.00,99.979
1341.00,99.986
1342.00,99.985
1343.00,99.991
1344.00,99.972
1345.00,99.990
1346.00,99.986
1347.00,99.951
1348.00,100.002
1349.00,99.931
1350.00,99.979
1351.00,99.970
1352.00,100.016
1353.00,99.973
1354.00,100.000
1355.00,99.902
1356.00,100.002
1357.00,99.976
1358.00,100.036
1359.00,99.967
1360.00,100.074
1361.00,100.031
1362.00,99.883
1363.00,99.985
1364.00,100.031
1365.00,99.940
1366.00,100.143
1367.00,100.038
1368.00,99.863
1369.00,100.007
1370.00,100.049
1371.00,99.845
1372.00,99.963
1373.00,100.019
1374.00,99.991
1375.00,99.988
1376.00,99.998
1377.00,99.844
1378.00,100.108
1379.00,100.020
1380.00,100.014
1381.00,100.119
1382.00,99.849
1383.00,100.088
1384.00,99.944
1385.00,99.892
1386.00,99.989
1387.00,100.073
1388.00,99.973
1389.00,99.926
1390.00,99.899
1391.00,99.925
1392.00,99.945
1393.00,100.001
1394.00,100.061
1395.00,99.946
1396.00,99.881
1397.00,100.001
1398.00,99.955
1399.00,99.878
1400.00,99.925
1401.00,99.938
1402.00,100.076
1403.00,99.939
1404.00,99.923
1405.00,100.003
1406.00,99.993
1407.00,99.962
1408.00,99.911
1409.00,100.018
1410.00,100.010
1411.00,99.950
1412.00,100.135
1413.00,99.970
1414.00,99.867
1415.00,99.953
1416.00,100.021
1417.00,100.117
1418.00,99.925
1419.00,99.995
1420.00,99.972
1421.00,100.040
1422.00,99.990
1423.00,100.019
1424.00,99.965
1425.00,100.045
1426.00,99.984
1427.00,100.014
1428.00,100.001
1429.00,99.984
1430.00,99.990
1431.00,100.018
1432.00,99.987
1433.00,100.007
1434.00,99.969
1435.00,100.029
1436.00,100.029
1437.00,99.979
1438.00,99.968
1439.00,99.989
1440.00,100.002
1441.00,99.966
1442.00,100.011
1443.00,99.996
1444.00,100.183
1445.00,99.914
1446.00,99.969
1447.00,100.041
1448.00,100.042
1449.00,99.987
1450.00,99.994
1451.00,99.961
1452.00,100.005
1453.00,99.992
1454.00,100.018
1455.00,99.983
1456.00,100.011
1457.00,99.963
1458.00,100.042
1459.00,99.983
1460.00,100.008
1461.00,100.012
1462.00,100.001
1463.00,99.992
1464.00,100.011
1465.00,99.986
1466.00,100.004
1467.00,100.000
1468.00,100.049
1469.00,99.974
1470.00,100.009
1471.00,99.980
1472.00,99.978
1473.00,99.974
1474.00,99.996
1475.00,100.019
1476.00,99.989
1477.00,99.975
1478.00,99.998
1479.00,99.974
1480.00,99.987
1481.00,99.962
1482.00,99.966
1483.00,99.997
1484.00,99.990
1485.00,99.973
1486.00,100.041
1487.00,99.986
1488.00,100.041
1489.00,99.982
1490.00,99.999
1491.00,100.012
1492.00,100.022
1493.00,99.937
1494.00,100.037
1495.00,99.962
1496.00,100.059
1497.00,99.959
1498.00,99.999
1499.00,99.994
1500.00,99.960
1501.00, 
1502.00, 
1503.00, 
1504.00, 
1505.00, 
1506.00, 
1507.00, 
1508.00, 
1509.00, 
1510.00, 
1511.00, 
1512.00, 
1513.00, 
1514.00, 
1515.00, 
1516.00, 
1517.00, 
1518.00, 
1519.00, 
1520.00, 
1521.00, 
1522.00, 
1523.00, 
1524.00, 
1525.00, 
1526.00, 
1527.00, 
1528.00, 
1529.00, 
1530.00, 
1531.00, 
1532.00, 
1533.00, 
1534.00, 
1535.00, 
1536.00, 
1537.00, 
1538.00, 
1539.00, 
1540.00, 
1541.00, 
1542.00, 
1543.00, 
1544.00, 
1545.00, 
1546.00, 
1547.00, 
1548.00, 
1549.00, 
1550.00, 
1551.00, 
1552.00, 
1553.00, 
1554.00, 
1555.00, 
1556.00, 
1557.00, 
1558.00, 
1559.00, 
1560.00, 
1561.00, 
1562.00, 
1563.00, 
1564.00, 
1565.00, 
1566.00, 
1567.00, 
1568.00, 
1569.00, 
1570.00, 
1571.00, 
1572.00, 
1573.00, 
1574.00, 
1575.00, 
1576.00, 
1577.00, 
1578.00, 
1579.00, 
1580.00, 
1581.00, 
1582.00, 
1583.00, 
1584.00, 
1585.00, 
1586.00, 
1587.00, 
1588.00, 
1589.00, 
1590.00, 
1591.00, 
1592.00, 
1593.00, 
1594.00, 
1595.00, 
1596.00, 
1597.00, 
1598.00, 
1599.00, 
1600.00, 
1601.00, 
1602.00, 
1603.00, 
1604.00, 
1605.00, 
1606.00, 
1607.00, 
1608.00, 
1609.00, 
1610.00, 
1611.00, 
1612.00, 
1613.00, 
1614.00, 
1615.00, 
1616.00, 
1617.00, 
1618.00, 
1619.00, 
1620.00, 
1621.00, 
1622.00, 
1623.00, 
1624.00, 
1625.00, 
1626.00, 
1627.00, 
1628.00, 
1629.00, 
1630.00, 
1631.00, 
1632.00, 
1633.00, 
1634.00, 
1635.00, 
1636.00, 
1637.00, 
1638.00, 
1639.00, 
1640.00, 
1641.00, 
1642.00, 
1643.00, 
1644.00, 
1645.00, 
1646.00, 
1647.00, 
1648.00, 
1649.00, 
1650.00, 
1651.00, 
1652.00, 
1653.00, 
1654.00, 
1655.00, 
1656.00, 
1657.00, 
1658.00, 
1659.00, 
1660.00, 
1661.00, 
1662.00, 
1663.00, 
1664.00, 
1665.00, 
1666.00, 
1667.00, 
1668.00, 
1669.00, 
1670.00, 
1671.00, 
1672.00, 
1673.00, 
1674.00, 
1675.00, 
1676.00, 
1677.00, 
1678.00, 
1679.00, 
1680.00, 
1681.00, 
1682.00, 
1683.00, 
1684.00, 
1685.00, 
1686.00, 
1687.00, 
1688.00, 
1689.00, 
1690.00, 
1691.00, 
1692.00, 
1693.00, 
1694.00, 
1695.00, 
1696.00, 
1697.00, 
1698.00, 
1699.00, 
1700.00, 
1701.00, 
1702.00, 
1703.00, 
1704.00, 
1705.00, 
1706.00, 
1707.00, 
1708.00, 
1709.00, 
1710.00, 
1711.00, 
1712.00, 
1713.00, 
1714.00, 
1715.00, 
1716.00, 
1717.00, 
1718.00, 
1719.00, 
1720.00, 
1721.00, 
1722.00, 
1723.00, 
1724.00, 
1725.00, 
1726.00, 
1727.00, 
1728.00, 
1729.00, 
1730.00, 
1731.00, 
1732.00, 
1733.00, 
1734.00, 
1735.00, 
1736.00, 
1737.00, 
1738.00, 
1739.00, 
1740.00, 
1741.00, 
1742.00, 
1743.00, 
1744.00, 
1745.00, 
1746.00, 
1747.00, 
1748.00, 
1749.00, 
1750.00, 
1751.00, 
1752.00, 
1753.00, 
1754.00, 
1755.00, 
1756.00, 
1757.00, 
1758.00, 
1759.00, 
1760.00, 
1761.00, 
1762.00, 
1763.00, 
1764.00, 
1765.00, 
1766.00, 
1767.00, 
1768.00, 
1769.00, 
1770.00, 
1771.00, 
1772.00, 
1773.00, 
1774.00, 
1775.00, 
1776.00, 
1777.00, 
1778.00, 
1779.00, 
1780.00, 
1781.00, 
1782.00, 
1783.00, 
1784.00, 
1785.00, 
1786.00, 
1787.00, 
1788.00, 
1789.00, 
1790.00, 
1791.00, 
1792.00, 
1793.00, 
1794.00, 
1795.00, 
1796.00, 
1797.00, 
1798.00, 
1799.00, 
1800.00, 
1801.00, 
1802.00, 
1803.00, 
1804.00, 
1805.00, 
1806.00, 
1807.00, 
1808.00, 
1809.00, 
1810.00, 
1811.00, 
1812.00, 
1813.00, 
1814.00, 
1815.00, 
1816.00, 
1817.00, 
1818.00, 
1819.00, 
1820.00, 
1821.00, 
1822.00, 
1823.00, 
1824.00, 
1825.00, 
1826.00, 
1827.00, 
1828.00, 
1829.00, 
1830.00, 
1831.00, 
1832.00, 
1833.00, 
1834.00, 
1835.00, 
1836.00, 
1837.00, 
1838.00, 
1839.00, 
1840.00, 
1841.00, 
1842.00, 
1843.00, 
1844.00, 
1845.00, 
1846.00, 
1847.00, 
1848.00, 
1849.00, 
1850.00, 
1851.00, 
1852.00, 
1853.00, 
1854.00, 
1855.00, 
1856.00, 
1857.00, 
1858.00, 
1859.00, 
1860.00, 
1861.00, 
1862.00, 
1863.00, 
1864.00, 
1865.00, 
1866.00, 
1867.00, 
1868.00, 
1869.00, 
1870.00, 
1871.00, 
1872.00, 
1873.00, 
1874.00, 
1875.00, 
1876.00, 
1877.00, 
1878.00, 
1879.00, 
1880.00, 
1881.00, 
1882.00, 
1883.00, 
1884.00, 
1885.00, 
1886.00, 
1887.00, 
1888.00, 
1889.00, 
1890.00, 
1891.00, 
1892.00, 
1893.00, 
1894.00, 
1895.00, 
1896.00, 
1897.00, 
1898.00, 
1899.00, 
1900.00, 
1901.00, 
1902.00, 
1903.00, 
1904.00, 
1905.00, 
1906.00, 
1907.00, 
1908.00, 
1909.00, 
1910.00, 
1911.00, 
1912.00, 
1913.00, 
1914.00, 
1915.00, 
1916.00, 
1917.00, 
1918.00, 
1919.00, 
1920.00, 
1921.00, 
1922.00, 
1923.00, 
1924.00, 
1925.00, 
1926.00, 
1927.00, 
1928.00, 
1929.00, 
1930.00, 
1931.00, 
1932.00, 
1933.00, 
1934.00, 
1935.00, 
1936.00, 
1937.00, 
1938.00, 
1939.00, 
1940.00, 
1941.00, 
1942.00, 
1943.00, 
1944.00, 
1945.00, 
1946.00, 
1947.00, 
1948.00, 
1949.00, 
1950.00, 
1951.00, 
1952.00, 
1953.00, 
1954.00, 
1955.00, 
1956.00, 
1957.00, 
1958.00, 
1959.00, 
1960.00, 
1961.00, 
1962.00, 
1963.00, 
1964.00, 
1965.00, 
1966.00, 
1967.00, 
1968.00, 
1969.00, 
1970.00, 
1971.00, 
1972.00, 
1973.00, 
1974.00, 
1975.00, 
1976.00, 
1977.00, 
1978.00, 
1979.00, 
1980.00, 
1981.00, 
1982.00, 
1983.00, 
1984.00, 
1985.00, 
1986.00, 
1987.00, 
1988.00, 
1989.00, 
1990.00, 
1991.00, 
1992.00, 
1993.00, 
1994.00, 
1995.00, 
1996.00, 
1997.00, 
1998.00, 
1999.00, 
2000.00, 
2001.00, 
2002.00, 
2003.00, 
2004.00, 
2005.00, 
2006.00, 
2007.00, 
2008.00, 
2009.00, 
2010.00, 
2011.00, 
2012.00, 
2013.00, 
2014.00, 
2015.00, 
2016.00, 
2017.00, 
2018.00, 
2019.00, 
2020.00, 
2021.00, 
2022.00, 
2023.00, 
2024.00, 
2025.00, 
2026.00, 
2027.00, 
2028.00, 
2029.00, 
2030.00, 
2031.00, 
2032.00, 
2033.00, 
2034.00, 
2035.00, 
2036.00, 
2037.00, 
2038.00, 
2039.00, 
2040.00, 
2041.00, 
2042.00, 
2043.00, 
2044.00, 
2045.00, 
2046.00, 
2047.00, 
2048.00, 
2049.00, 
2050.00, 
2051.00, 
2052.00, 
2053.00, 
2054.00, 
2055.00, 
2056.00, 
2057.00, 
2058.00, 
2059.00, 
2060.00, 
2061.00, 
2062.00, 
2063.00, 
2064.00, 
2065.00, 
2066.00, 
2067.00, 
2068.00, 
2069.00, 
2070.00, 
2071.00, 
2072.00, 
2073.00, 
2074.00, 
2075.00, 
2076.00, 
2077.00, 
2078.00, 
2079.00, 
2080.00, 
2081.00, 
2082.00, 
2083.00, 
2084.00, 
2085.00, 
2086.00, 
2087.00, 
2088.00, 
2089.00, 
2090.00, 
2091.00, 
2092.00, 
2093.00, 
2094.00, 
2095.00, 
2096.00, 
2097.00, 
2098.00, 
2099.00, 
2100.00, 
2101.00, 
2102.00, 
2103.00, 
2104.00, 
2105.00, 
2106.00, 
2107.00, 
2108.00, 
2109.00, 
2110.00, 
2111.00, 
2112.00, 
2113.00, 
2114.00, 
2115.00, 
2116.00, 
2117.00, 
2118.00, 
2119.00, 
2120.00, 
2121.00, 
2122.00, 
2123.00, 
2124.00, 
2125.00, 
2126.00, 
2127.00, 
2128.00, 
2129.00, 
2130.00, 
2131.00, 
2132.00, 
2133.00, 
2134.00, 
2135.00, 
2136.00, 
2137.00, 
2138.00, 
2139.00, 
2140.00, 
2141.00, 
2142.00, 
2143.00, 
2144.00, 
2145.00, 
2146.00, 
2147.00, 
2148.00, 
2149.00, 
2150.00, 
2151.00, 
2152.00, 
2153.00, 
2154.00, 
2155.00, 
2156.00, 
2157.00, 
2158.00, 
2159.00, 
2160.00, 
2161.00, 
2162.00, 
2163.00, 
2164.00, 
2165.00, 
2166.00, 
2167.00, 
2168.00, 
2169.00, 
2170.00, 
2171.00, 
2172.00, 
2173.00, 
2174.00, 
2175.00, 
2176.00, 
2177.00, 
2178.00, 
2179.00, 
2180.00, 
2181.00, 
2182.00, 
2183.00, 
2184.00, 
2185.00, 
2186.00, 
2187.00, 
2188.00, 
2189.00, 
2190.00, 
2191.00, 
2192.00, 
2193.00, 
2194.00, 
2195.00, 
2196.00, 
2197.00, 
2198.00, 
2199.00, 
2200.00, 
2201.00, 
2202.00, 
2203.00, 
2204.00, 
2205.00, 
2206.00, 
2207.00, 
2208.00, 
2209.00, 
2210.00, 
2211.00, 
2212.00, 
2213.00, 
2214.00, 
2215.00, 
2216.00, 
2217.00, 
2218.00, 
2219.00, 
2220.00, 
2221.00, 
2222.00, 
2223.00, 
2224.00, 
2225.00, 
2226.00, 
2227.00, 
2228.00, 
2229.00, 
2230.00, 
2231.00, 
2232.00, 
2233.00, 
2234.00, 
2235.00, 
2236.00, 
2237.00, 
2238.00, 
2239.00, 
2240.00, 
2241.00, 
2242.00, 
2243.00, 
2244.00, 
2245.00, 
2246.00, 
2247.00, 
2248.00, 
2249.00, 
2250.00, 
2251.00, 
2252.00, 
2253.00, 
2254.00, 
2255.00, 
2256.00, 
2257.00, 
2258.00, 
2259.00, 
2260.00, 
2261.00, 
2262.00, 
2263.00, 
2264.00, 
2265.00, 
2266.00, 
2267.00, 
2268.00, 
2269.00, 
2270.00, 
2271.00, 
2272.00, 
2273.00, 
2274.00, 
2275.00, 
2276.00, 
2277.00, 
2278.00, 
2279.00, 
2280.00, 
2281.00, 
2282.00, 
2283.00, 
2284.00, 
2285.00, 
2286.00, 
2287.00, 
2288.00, 
2289.00, 
2290.00, 
2291.00, 
2292.00, 
2293.00, 
2294.00, 
2295.00, 
2296.00, 
2297.00, 
2298.00, 
2299.00, 
2300.00, 
2301.00, 
2302.00, 
2303.00, 
2304.00, 
2305.00, 
2306.00, 
2307.00, 
2308.00, 
2309.00, 
2310.00, 
2311.00, 
2312.00, 
2313.00, 
2314.00, 
2315.00, 
2316.00, 
2317.00, 
2318.00, 
2319.00, 
2320.00, 
2321.00, 
2322.00, 
2323.00, 
2324.00, 
2325.00, 
2326.00, 
2327.00, 
2328.00, 
2329.00, 
2330.00, 
2331.00, 
2332.00, 
2333.00, 
2334.00, 
2335.00, 
2336.00, 
2337.00, 
2338.00, 
2339.00, 
2340.00, 
2341.00, 
2342.00, 
2343.00, 
2344.00, 
2345.00, 
2346.00, 
2347.00, 
2348.00, 
2349.00, 
2350.00, 
2351.00, 
2352.00, 
2353.00, 
2354.00, 
2355.00, 
2356.00, 
2357.00, 
2358.00, 
2359.00, 
2360.00, 
2361.00, 
2362.00, 
2363.00, 
2364.00, 
2365.00, 
2366.00, 
2367.00, 
2368.00, 
2369.00, 
2370.00, 
2371.00, 
2372.00, 
2373.00, 
2374.00, 
2375.00, 
2376.00, 
2377.00, 
2378.00, 
2379.00, 
2380.00, 
2381.00, 
2382.00, 
2383.00, 
2384.00, 
2385.00, 
2386.00, 
2387.00, 
2388.00, 
2389.00, 
2390.00, 
2391.00, 
2392.00, 
2393.00, 
2394.00, 
2395.00, 
2396.00, 
2397.00, 
2398.00, 
2399.00, 
2400.00, 
2401.00, 
2402.00, 
2403.00, 
2404.00, 
2405.00, 
2406.00, 
2407.00, 
2408.00, 
2409.00, 
2410.00, 
2411.00, 
2412.00, 
2413.00, 
2414.00, 
2415.00, 
2416.00, 
2417.00, 
2418.00, 
2419.00, 
2420.00, 
2421.00, 
2422.00, 
2423.00, 
2424.00, 
2425.00, 
2426.00, 
2427.00, 
2428.00, 
2429.00, 
2430.00, 
2431.00, 
2432.00, 
2433.00, 
2434.00, 
2435.00, 
2436.00, 
2437.00, 
2438.00, 
2439.00, 
2440.00, 
2441.00, 
2442.00, 
2443.00, 
2444.00, 
2445.00, 
2446.00, 
2447.00, 
2448.00, 
2449.00, 
2450.00, 
2451.00, 
2452.00, 
2453.00, 
2454.00, 
2455.00, 
2456.00, 
2457.00, 
2458.00, 
2459.00, 
2460.00, 
2461.00, 
2462.00, 
2463.00, 
2464.00, 
2465.00, 
2466.00, 
2467.00, 
2468.00, 
2469.00, 
2470.00, 
2471.00, 
2472.00, 
2473.00, 
2474.00, 
2475.00, 
2476.00, 
2477.00, 
2478.00, 
2479.00, 
2480.00, 
2481.00, 
2482.00, 
2483.00, 
2484.00, 
2485.00, 
2486.00, 
2487.00, 
2488.00, 
2489.00, 
2490.00, 
2491.00, 
2492.00, 
2493.00, 
2494.00, 
2495.00, 
2496.00, 
2497.00, 
2498.00, 
2499.00, 
2500.00, 
2501.00, 
2502.00, 
2503.00, 
2504.00, 
2505.00, 
2506.00, 
2507.00, 
2508.00, 
2509.00, 
2510.00, 
2511.00, 
2512.00, 
2513.00, 
2514.00, 
2515.00, 
2516.00, 
2517.00, 
2518.00, 
2519.00, 
2520.00, 
2521.00, 
2522.00, 
2523.00, 
2524.00, 
2525.00, 
2526.00, 
2527.00, 
2528.00, 
2529.00, 
2530.00, 
2531.00, 
2532.00, 
2533.00, 
2534.00, 
2535.00, 
2536.00, 
2537.00, 
2538.00, 
2539.00, 
2540.00, 
2541.00, 
2542.00, 
2543.00, 
2544.00, 
2545.00, 
2546.00, 
2547.00, 
2548.00, 
2549.00, 
2550.00, 
2551.00, 
2552.00, 
2553.00, 
2554.00, 
2555.00, 
2556.00, 
2557.00, 
2558.00, 
2559.00, 
2560.00, 
2561.00, 
2562.00, 
2563.00, 
2564.00, 
2565.00, 
2566.00, 
2567.00, 
2568.00, 
2569.00, 
2570.00, 
2571.00, 
2572.00, 
2573.00, 
2574.00, 
2575.00, 
2576.00, 
2577.00, 
2578.00, 
2579.00, 
2580.00, 
2581.00, 
2582.00, 
2583.00, 
2584.00, 
2585.00, 
2586.00, 
2587.00, 
2588.00, 
2589.00, 
2590.00, 
2591.00, 
2592.00, 
2593.00, 
2594.00, 
2595.00, 
2596.00, 
2597.00, 
2598.00, 
2599.00, 
2600.00, 
