"1cP1 - RawData"
"Wavelength nm.","T%"
200.00,0.003
201.00,0.003
202.00,0.003
203.00,-0.001
204.00,0.003
205.00,0.002
206.00,0.001
207.00,0.000
208.00,0.000
209.00,0.001
210.00,0.003
211.00,0.004
212.00,0.002
213.00,0.000
214.00,0.002
215.00,-0.000
216.00,0.002
217.00,0.001
218.00,-0.003
219.00,0.004
220.00,0.000
221.00,0.002
222.00,0.002
223.00,0.002
224.00,-0.002
225.00,-0.002
226.00,0.001
227.00,0.002
228.00,-0.001
229.00,-0.003
230.00,0.001
231.00,-0.001
232.00,0.002
233.00,-0.001
234.00,0.001
235.00,0.001
236.00,-0.001
237.00,0.001
238.00,-0.000
239.00,0.000
240.00,0.001
241.00,-0.000
242.00,0.000
243.00,0.001
244.00,0.003
245.00,0.000
246.00,-0.001
247.00,-0.001
248.00,-0.000
249.00,0.000
250.00,0.001
251.00,0.001
252.00,0.000
253.00,0.001
254.00,0.001
255.00,0.002
256.00,0.001
257.00,0.001
258.00,0.002
259.00,0.001
260.00,-0.001
261.00,0.001
262.00,0.002
263.00,0.001
264.00,0.001
265.00,-0.001
266.00,-0.000
267.00,-0.001
268.00,-0.001
269.00,-0.000
270.00,0.000
271.00,0.001
272.00,-0.000
273.00,-0.001
274.00,0.002
275.00,0.001
276.00,-0.001
277.00,0.000
278.00,-0.001
279.00,0.000
280.00,-0.001
281.00,-0.000
282.00,0.001
283.00,0.001
284.00,-0.000
285.00,0.002
286.00,0.000
287.00,-0.001
288.00,-0.001
289.00,0.002
290.00,0.001
291.00,-0.000
292.00,0.001
293.00,0.002
294.00,0.000
295.00,-0.001
296.00,-0.000
297.00,-0.002
298.00,0.001
299.00,0.002
300.00,0.000
301.00,0.001
302.00,0.002
303.00,-0.000
304.00,-0.000
305.00,0.002
306.00,0.002
307.00,0.003
308.00,0.006
309.00,0.012
310.00,0.017
311.00,0.028
312.00,0.041
313.00,0.069
314.00,0.104
315.00,0.154
316.00,0.217
317.00,0.311
318.00,0.425
319.00,0.571
320.00,0.765
321.00,0.974
322.00,1.250
323.00,1.579
324.00,1.957
325.00,2.376
326.00,2.806
327.00,3.348
328.00,3.910
329.00,4.491
330.00,5.171
331.00,5.829
332.00,6.540
333.00,7.323
334.00,8.105
335.00,8.924
336.00,9.727
337.00,10.585
338.00,11.379
339.00,12.136
340.00,12.953
341.00,13.737
342.00,14.500
343.00,15.238
344.00,15.940
345.00,16.691
346.00,17.364
347.00,17.922
348.00,18.549
349.00,19.143
350.00,19.629
351.00,20.117
352.00,20.586
353.00,21.021
354.00,21.418
355.00,21.854
356.00,22.196
357.00,22.528
358.00,22.889
359.00,23.249
360.00,23.531
361.00,23.730
362.00,23.958
363.00,24.189
364.00,24.349
365.00,24.479
366.00,24.660
367.00,24.763
368.00,24.883
369.00,24.914
370.00,25.054
371.00,25.051
372.00,25.039
373.00,25.073
374.00,25.080
375.00,25.046
376.00,24.969
377.00,24.875
378.00,24.798
379.00,24.722
380.00,24.678
381.00,24.687
382.00,24.702
383.00,24.721
384.00,24.827
385.00,24.880
386.00,24.978
387.00,25.077
388.00,25.210
389.00,25.265
390.00,25.233
391.00,25.373
392.00,25.405
393.00,25.536
394.00,25.491
395.00,25.567
396.00,25.550
397.00,25.588
398.00,25.594
399.00,25.603
400.00,25.633
401.00,25.625
402.00,25.648
403.00,25.615
404.00,25.649
405.00,25.624
406.00,25.584
407.00,25.580
408.00,25.572
409.00,25.497
410.00,25.474
411.00,25.427
412.00,25.412
413.00,25.403
414.00,25.383
415.00,25.342
416.00,25.425
417.00,25.392
418.00,25.427
419.00,25.489
420.00,25.534
421.00,25.577
422.00,25.562
423.00,25.608
424.00,25.651
425.00,25.662
426.00,25.688
427.00,25.752
428.00,25.810
429.00,25.785
430.00,25.845
431.00,25.946
432.00,25.923
433.00,25.953
434.00,26.011
435.00,26.061
436.00,26.153
437.00,26.185
438.00,26.254
439.00,26.322
440.00,26.419
441.00,26.454
442.00,26.553
443.00,26.604
444.00,26.682
445.00,26.756
446.00,26.865
447.00,26.970
448.00,27.039
449.00,27.149
450.00,27.264
451.00,27.296
452.00,27.459
453.00,27.586
454.00,27.658
455.00,27.747
456.00,27.901
457.00,27.954
458.00,28.048
459.00,28.207
460.00,28.314
461.00,28.431
462.00,28.548
463.00,28.655
464.00,28.762
465.00,28.878
466.00,29.029
467.00,29.174
468.00,29.221
469.00,29.311
470.00,29.398
471.00,29.486
472.00,29.607
473.00,29.673
474.00,29.813
475.00,29.896
476.00,29.997
477.00,30.068
478.00,30.191
479.00,30.355
480.00,30.520
481.00,30.562
482.00,30.761
483.00,30.888
484.00,31.066
485.00,31.189
486.00,31.300
487.00,31.429
488.00,31.586
489.00,31.766
490.00,31.887
491.00,32.023
492.00,32.244
493.00,32.368
494.00,32.345
495.00,32.478
496.00,32.622
497.00,32.757
498.00,32.847
499.00,33.015
500.00,33.160
501.00,33.246
502.00,33.338
503.00,33.498
504.00,33.519
505.00,33.646
506.00,33.794
507.00,33.877
508.00,33.962
509.00,34.107
510.00,34.251
511.00,34.303
512.00,34.494
513.00,34.607
514.00,34.725
515.00,34.833
516.00,34.933
517.00,34.996
518.00,35.124
519.00,35.154
520.00,35.205
521.00,35.342
522.00,35.397
523.00,35.445
524.00,35.538
525.00,35.672
526.00,35.763
527.00,35.805
528.00,35.864
529.00,36.050
530.00,36.236
531.00,36.333
532.00,36.381
533.00,36.496
534.00,36.559
535.00,36.666
536.00,36.748
537.00,36.822
538.00,36.855
539.00,36.911
540.00,37.004
541.00,37.063
542.00,37.123
543.00,37.169
544.00,37.257
545.00,37.322
546.00,37.341
547.00,37.464
548.00,37.562
549.00,37.617
550.00,37.680
551.00,37.796
552.00,37.822
553.00,37.906
554.00,37.995
555.00,37.954
556.00,38.067
557.00,38.078
558.00,38.136
559.00,38.207
560.00,38.254
561.00,38.366
562.00,38.453
563.00,38.400
564.00,38.439
565.00,38.446
566.00,38.524
567.00,38.500
568.00,38.676
569.00,38.757
570.00,38.758
571.00,38.774
572.00,38.770
573.00,38.765
574.00,38.809
575.00,38.833
576.00,38.860
577.00,38.903
578.00,38.999
579.00,39.084
580.00,39.055
581.00,39.243
582.00,39.336
583.00,39.311
584.00,39.401
585.00,39.482
586.00,39.490
587.00,39.626
588.00,39.663
589.00,39.515
590.00,39.552
591.00,39.691
592.00,39.701
593.00,39.711
594.00,39.787
595.00,39.914
596.00,40.054
597.00,40.223
598.00,40.122
599.00,40.059
600.00,40.071
601.00,40.136
602.00,40.141
603.00,40.179
604.00,40.240
605.00,40.280
606.00,40.287
607.00,40.305
608.00,40.451
609.00,40.544
610.00,40.396
611.00,40.485
612.00,40.415
613.00,40.513
614.00,40.594
615.00,40.611
616.00,40.672
617.00,40.727
618.00,40.746
619.00,40.856
620.00,40.866
621.00,40.915
622.00,41.000
623.00,41.030
624.00,41.126
625.00,41.159
626.00,41.169
627.00,41.271
628.00,41.245
629.00,41.307
630.00,41.370
631.00,41.424
632.00,41.564
633.00,41.606
634.00,41.621
635.00,41.661
636.00,41.706
637.00,41.723
638.00,41.734
639.00,41.892
640.00,41.907
641.00,41.912
642.00,41.982
643.00,42.086
644.00,42.129
645.00,42.194
646.00,42.319
647.00,42.371
648.00,42.323
649.00,42.395
650.00,42.471
651.00,42.609
652.00,42.652
653.00,42.600
654.00,42.604
655.00,42.862
656.00,43.099
657.00,42.932
658.00,42.954
659.00,42.997
660.00,43.120
661.00,43.157
662.00,43.169
663.00,43.279
664.00,43.477
665.00,43.705
666.00,43.668
667.00,43.699
668.00,43.640
669.00,43.934
670.00,44.101
671.00,43.967
672.00,44.109
673.00,44.166
674.00,44.135
675.00,44.206
676.00,44.459
677.00,44.577
678.00,44.399
679.00,44.510
680.00,44.610
681.00,44.758
682.00,44.797
683.00,44.779
684.00,44.927
685.00,45.018
686.00,44.961
687.00,45.021
688.00,45.002
689.00,45.013
690.00,45.274
691.00,45.530
692.00,45.384
693.00,45.374
694.00,45.530
695.00,45.585
696.00,45.636
697.00,45.578
698.00,45.650
699.00,45.942
700.00,46.038
701.00,45.978
702.00,46.020
703.00,46.240
704.00,46.208
705.00,46.141
706.00,46.288
707.00,46.284
708.00,46.167
709.00,46.443
710.00,46.824
711.00,46.417
712.00,46.480
713.00,46.584
714.00,46.810
715.00,46.581
716.00,46.678
717.00,46.803
718.00,46.934
719.00,46.883
720.00,46.863
721.00,51.537
722.00,51.475
723.00,51.461
724.00,51.455
725.00,51.490
726.00,51.538
727.00,51.526
728.00,51.528
729.00,51.484
730.00,51.636
731.00,51.594
732.00,51.536
733.00,51.589
734.00,51.573
735.00,51.672
736.00,51.679
737.00,51.592
738.00,51.654
739.00,51.722
740.00,51.652
741.00,51.752
742.00,51.737
743.00,51.666
744.00,51.692
745.00,51.715
746.00,51.750
747.00,51.621
748.00,51.564
749.00,51.673
750.00,51.687
751.00,51.602
752.00,51.600
753.00,51.603
754.00,51.502
755.00,51.581
756.00,51.587
757.00,51.579
758.00,51.551
759.00,51.592
760.00,51.549
761.00,51.600
762.00,51.537
763.00,51.564
764.00,51.568
765.00,51.562
766.00,51.580
767.00,51.579
768.00,51.574
769.00,51.526
770.00,51.633
771.00,51.615
772.00,51.556
773.00,51.562
774.00,51.577
775.00,51.570
776.00,51.558
777.00,51.595
778.00,51.554
779.00,51.622
780.00,51.528
781.00,51.524
782.00,51.539
783.00,51.386
784.00,51.510
785.00,51.338
786.00,51.494
787.00,51.388
788.00,51.401
789.00,51.416
790.00,51.368
791.00,51.397
792.00,51.304
793.00,51.342
794.00,51.346
795.00,51.370
796.00,51.303
797.00,51.184
798.00,51.292
799.00,51.235
800.00,51.289
801.00,51.186
802.00,51.187
803.00,51.125
804.00,51.101
805.00,51.150
806.00,51.038
807.00,51.017
808.00,51.070
809.00,51.064
810.00,51.019
811.00,51.012
812.00,51.072
813.00,50.969
814.00,50.955
815.00,50.971
816.00,50.980
817.00,50.878
818.00,50.858
819.00,50.867
820.00,50.806
821.00,50.807
822.00,50.752
823.00,50.732
824.00,50.735
825.00,50.756
826.00,50.643
827.00,50.793
828.00,50.729
829.00,50.704
830.00,50.617
831.00,52.977
832.00,52.993
833.00,52.911
834.00,52.945
835.00,52.869
836.00,52.882
837.00,52.872
838.00,52.846
839.00,52.794
840.00,52.747
841.00,52.768
842.00,52.734
843.00,52.762
844.00,52.722
845.00,52.657
846.00,52.686
847.00,52.632
848.00,52.495
849.00,52.564
850.00,52.540
851.00,52.437
852.00,52.480
853.00,52.411
854.00,52.375
855.00,52.334
856.00,52.320
857.00,52.314
858.00,52.293
859.00,52.282
860.00,52.266
861.00,52.244
862.00,52.172
863.00,52.221
864.00,52.135
865.00,52.192
866.00,52.153
867.00,52.152
868.00,52.128
869.00,52.078
870.00,52.280
871.00,52.104
872.00,52.068
873.00,52.022
874.00,52.088
875.00,52.019
876.00,52.043
877.00,52.016
878.00,52.035
879.00,51.958
880.00,51.948
881.00,51.939
882.00,51.932
883.00,51.883
884.00,51.809
885.00,51.994
886.00,51.811
887.00,51.813
888.00,51.782
889.00,51.759
890.00,51.768
891.00,51.731
892.00,51.705
893.00,51.682
894.00,51.678
895.00,51.629
896.00,51.642
897.00,51.598
898.00,51.557
899.00,51.588
900.00,51.540
901.00,51.537
902.00,51.581
903.00,51.514
904.00,51.503
905.00,51.508
906.00,51.487
907.00,51.375
908.00,51.427
909.00,51.418
910.00,51.388
911.00,51.339
912.00,51.345
913.00,51.308
914.00,51.291
915.00,51.274
916.00,51.246
917.00,51.232
918.00,51.204
919.00,51.200
920.00,51.145
921.00,51.147
922.00,51.162
923.00,51.107
924.00,51.006
925.00,51.185
926.00,51.074
927.00,51.060
928.00,51.003
929.00,51.044
930.00,51.002
931.00,50.994
932.00,50.928
933.00,50.959
934.00,50.929
935.00,50.900
936.00,50.865
937.00,50.845
938.00,50.844
939.00,50.803
940.00,50.903
941.00,50.814
942.00,50.789
943.00,50.761
944.00,50.708
945.00,50.723
946.00,50.719
947.00,50.650
948.00,50.648
949.00,50.626
950.00,50.590
951.00,50.575
952.00,50.555
953.00,50.499
954.00,50.478
955.00,50.468
956.00,50.436
957.00,50.394
958.00,50.403
959.00,50.348
960.00,50.354
961.00,50.336
962.00,50.340
963.00,50.293
964.00,50.287
965.00,50.286
966.00,50.253
967.00,50.254
968.00,50.213
969.00,50.263
970.00,50.266
971.00,50.257
972.00,50.212
973.00,50.254
974.00,50.267
975.00,50.246
976.00,50.263
977.00,50.232
978.00,50.300
979.00,50.233
980.00,50.242
981.00,50.252
982.00,50.215
983.00,50.239
984.00,50.196
985.00,50.230
986.00,50.227
987.00,50.212
988.00,50.179
989.00,50.162
990.00,50.163
991.00,50.130
992.00,50.160
993.00,50.116
994.00,50.112
995.00,50.116
996.00,50.082
997.00,50.071
998.00,50.094
999.00,50.075
1000.00,50.026
1001.00,50.038
1002.00,50.020
1003.00,50.011
1004.00,49.995
1005.00,49.956
1006.00,49.996
1007.00,49.947
1008.00,49.933
1009.00,49.905
1010.00,49.896
1011.00,49.899
1012.00,49.856
1013.00,49.861
1014.00,49.835
1015.00,49.856
1016.00,49.809
1017.00,49.816
1018.00,49.822
1019.00,49.782
1020.00,49.783
1021.00,49.749
1022.00,49.765
1023.00,49.715
1024.00,49.713
1025.00,49.702
1026.00,49.703
1027.00,49.678
1028.00,49.671
1029.00,49.661
1030.00,49.603
1031.00,49.641
1032.00,49.596
1033.00,49.593
1034.00,49.560
1035.00,49.532
1036.00,49.507
1037.00,49.482
1038.00,49.478
1039.00,49.442
1040.00,49.433
1041.00,49.400
1042.00,49.395
1043.00,49.379
1044.00,49.407
1045.00,49.399
1046.00,49.377
1047.00,49.406
1048.00,49.421
1049.00,49.434
1050.00,49.429
1051.00,49.478
1052.00,49.452
1053.00,49.472
1054.00,49.461
1055.00,49.491
1056.00,49.499
1057.00,49.481
1058.00,49.465
1059.00,49.473
1060.00,49.474
1061.00,49.462
1062.00,49.464
1063.00,49.471
1064.00,49.472
1065.00,49.446
1066.00,49.441
1067.00,49.452
1068.00,49.467
1069.00,49.420
1070.00,49.395
1071.00,49.381
1072.00,49.397
1073.00,49.367
1074.00,49.382
1075.00,49.371
1076.00,49.371
1077.00,49.355
1078.00,49.328
1079.00,49.326
1080.00,49.325
1081.00,49.308
1082.00,49.308
1083.00,49.297
1084.00,49.299
1085.00,49.296
1086.00,49.296
1087.00,49.282
1088.00,49.270
1089.00,49.247
1090.00,49.236
1091.00,49.254
1092.00,49.241
1093.00,49.203
1094.00,49.193
1095.00,49.197
1096.00,49.171
1097.00,49.179
1098.00,49.170
1099.00,49.155
1100.00,49.133
1101.00,49.130
1102.00,49.113
1103.00,49.114
1104.00,49.106
1105.00,49.097
1106.00,49.075
1107.00,49.103
1108.00,49.105
1109.00,49.077
1110.00,49.085
1111.00,49.078
1112.00,49.057
1113.00,49.062
1114.00,49.051
1115.00,49.045
1116.00,49.024
1117.00,49.006
1118.00,49.003
1119.00,49.000
1120.00,48.997
1121.00,49.017
1122.00,48.986
1123.00,48.980
1124.00,48.981
1125.00,48.983
1126.00,48.956
1127.00,48.956
1128.00,48.943
1129.00,48.923
1130.00,48.915
1131.00,48.935
1132.00,48.910
1133.00,48.921
1134.00,48.921
1135.00,48.914
1136.00,48.897
1137.00,48.915
1138.00,48.914
1139.00,48.905
1140.00,48.896
1141.00,48.868
1142.00,48.891
1143.00,48.891
1144.00,48.853
1145.00,48.856
1146.00,48.862
1147.00,48.840
1148.00,48.848
1149.00,48.871
1150.00,48.855
1151.00,48.865
1152.00,48.853
1153.00,48.847
1154.00,48.820
1155.00,48.831
1156.00,48.822
1157.00,48.831
1158.00,48.828
1159.00,48.826
1160.00,48.820
1161.00,48.834
1162.00,48.839
1163.00,48.833
1164.00,48.830
1165.00,48.835
1166.00,48.843
1167.00,48.817
1168.00,48.840
1169.00,48.817
1170.00,48.822
1171.00,48.801
1172.00,48.810
1173.00,48.810
1174.00,48.808
1175.00,48.807
1176.00,48.811
1177.00,48.808
1178.00,48.791
1179.00,48.817
1180.00,48.803
1181.00,48.817
1182.00,48.793
1183.00,48.792
1184.00,48.799
1185.00,48.816
1186.00,48.807
1187.00,48.823
1188.00,48.823
1189.00,48.817
1190.00,48.807
1191.00,48.801
1192.00,48.822
1193.00,48.795
1194.00,48.803
1195.00,48.763
1196.00,48.803
1197.00,48.803
1198.00,48.789
1199.00,48.796
1200.00,48.783
1201.00,48.819
1202.00,48.799
1203.00,48.800
1204.00,48.790
1205.00,48.812
1206.00,48.799
1207.00,48.811
1208.00,48.798
1209.00,48.809
1210.00,48.808
1211.00,48.812
1212.00,48.829
1213.00,48.792
1214.00,48.822
1215.00,48.799
1216.00,48.793
1217.00,48.803
1218.00,48.805
1219.00,48.819
1220.00,48.807
1221.00,48.824
1222.00,48.801
1223.00,48.811
1224.00,48.818
1225.00,48.814
1226.00,48.809
1227.00,48.834
1228.00,48.840
1229.00,48.823
1230.00,48.848
1231.00,48.855
1232.00,48.876
1233.00,48.862
1234.00,48.865
1235.00,48.865
1236.00,48.843
1237.00,48.853
1238.00,48.863
1239.00,48.873
1240.00,48.854
1241.00,48.862
1242.00,48.889
1243.00,48.886
1244.00,48.873
1245.00,48.933
1246.00,48.916
1247.00,48.894
1248.00,48.899
1249.00,48.912
1250.00,48.933
1251.00,48.914
1252.00,48.929
1253.00,48.928
1254.00,48.948
1255.00,48.918
1256.00,48.898
1257.00,48.911
1258.00,48.977
1259.00,48.961
1260.00,49.006
1261.00,48.986
1262.00,48.973
1263.00,48.962
1264.00,48.977
1265.00,48.982
1266.00,48.971
1267.00,48.989
1268.00,48.989
1269.00,48.987
1270.00,48.998
1271.00,49.012
1272.00,49.023
1273.00,49.035
1274.00,49.036
1275.00,49.033
1276.00,49.024
1277.00,49.041
1278.00,49.059
1279.00,49.061
1280.00,49.049
1281.00,49.058
1282.00,49.069
1283.00,49.061
1284.00,49.057
1285.00,49.056
1286.00,49.079
1287.00,49.077
1288.00,49.083
1289.00,49.087
1290.00,49.113
1291.00,49.098
1292.00,49.100
1293.00,49.116
1294.00,49.134
1295.00,49.148
1296.00,49.163
1297.00,49.175
1298.00,49.196
1299.00,49.166
1300.00,49.190
1301.00,49.182
1302.00,49.188
1303.00,49.191
1304.00,49.200
1305.00,49.229
1306.00,49.210
1307.00,49.227
1308.00,49.224
1309.00,49.238
1310.00,49.234
1311.00,49.231
1312.00,49.233
1313.00,49.246
1314.00,49.267
1315.00,49.277
1316.00,49.284
1317.00,49.316
1318.00,49.309
1319.00,49.312
1320.00,49.325
1321.00,49.476
1322.00,49.470
1323.00,49.461
1324.00,49.435
1325.00,49.432
1326.00,49.482
1327.00,49.463
1328.00,49.457
1329.00,49.474
1330.00,49.462
1331.00,49.449
1332.00,49.431
1333.00,49.482
1334.00,49.539
1335.00,49.490
1336.00,49.549
1337.00,49.589
1338.00,49.648
1339.00,49.700
1340.00,49.784
1341.00,49.824
1342.00,49.877
1343.00,49.924
1344.00,49.965
1345.00,50.034
1346.00,50.076
1347.00,50.088
1348.00,50.111
1349.00,50.130
1350.00,50.160
1351.00,50.174
1352.00,50.185
1353.00,50.248
1354.00,50.205
1355.00,50.144
1356.00,50.230
1357.00,50.217
1358.00,50.213
1359.00,50.241
1360.00,50.222
1361.00,50.226
1362.00,50.124
1363.00,50.351
1364.00,50.376
1365.00,50.235
1366.00,50.306
1367.00,50.218
1368.00,50.193
1369.00,50.265
1370.00,50.238
1371.00,50.171
1372.00,50.235
1373.00,50.275
1374.00,50.274
1375.00,50.266
1376.00,50.249
1377.00,50.249
1378.00,50.274
1379.00,50.277
1380.00,50.303
1381.00,50.254
1382.00,50.198
1383.00,50.264
1384.00,50.288
1385.00,50.321
1386.00,50.291
1387.00,50.214
1388.00,50.207
1389.00,50.213
1390.00,50.279
1391.00,50.206
1392.00,50.242
1393.00,50.287
1394.00,50.281
1395.00,50.215
1396.00,50.167
1397.00,50.209
1398.00,50.317
1399.00,50.295
1400.00,50.204
1401.00,50.217
1402.00,50.264
1403.00,50.231
1404.00,50.239
1405.00,50.283
1406.00,50.289
1407.00,50.271
1408.00,50.329
1409.00,50.274
1410.00,50.357
1411.00,50.036
1412.00,50.367
1413.00,50.322
1414.00,50.318
1415.00,50.353
1416.00,50.374
1417.00,50.400
1418.00,50.355
1419.00,50.398
1420.00,50.424
1421.00,50.454
1422.00,50.453
1423.00,50.467
1424.00,50.461
1425.00,50.478
1426.00,50.479
1427.00,50.522
1428.00,50.516
1429.00,50.518
1430.00,50.544
1431.00,50.557
1432.00,50.589
1433.00,50.613
1434.00,50.602
1435.00,50.668
1436.00,50.673
1437.00,50.655
1438.00,50.680
1439.00,50.732
1440.00,50.732
1441.00,50.741
1442.00,50.747
1443.00,50.788
1444.00,50.842
1445.00,50.783
1446.00,50.818
1447.00,50.846
1448.00,50.878
1449.00,50.883
1450.00,50.891
1451.00,50.897
1452.00,50.935
1453.00,50.932
1454.00,50.960
1455.00,50.975
1456.00,51.007
1457.00,51.005
1458.00,51.029
1459.00,51.041
1460.00,51.071
1461.00,51.068
1462.00,51.110
1463.00,51.120
1464.00,51.126
1465.00,51.148
1466.00,51.152
1467.00,51.193
1468.00,51.222
1469.00,51.202
1470.00,51.223
1471.00,51.241
1472.00,51.263
1473.00,51.271
1474.00,51.293
1475.00,51.294
1476.00,51.323
1477.00,51.306
1478.00,51.333
1479.00,51.365
1480.00,51.352
1481.00,51.359
1482.00,51.405
1483.00,51.424
1484.00,51.441
1485.00,51.447
1486.00,51.463
1487.00,51.497
1488.00,51.525
1489.00,51.508
1490.00,51.515
1491.00,51.529
1492.00,51.557
1493.00,51.549
1494.00,51.589
1495.00,51.561
1496.00,51.592
1497.00,51.576
1498.00,51.595
1499.00,51.611
1500.00,51.618
1501.00, 
1502.00, 
1503.00, 
1504.00, 
1505.00, 
1506.00, 
1507.00, 
1508.00, 
1509.00, 
1510.00, 
1511.00, 
1512.00, 
1513.00, 
1514.00, 
1515.00, 
1516.00, 
1517.00, 
1518.00, 
1519.00, 
1520.00, 
1521.00, 
1522.00, 
1523.00, 
1524.00, 
1525.00, 
1526.00, 
1527.00, 
1528.00, 
1529.00, 
1530.00, 
1531.00, 
1532.00, 
1533.00, 
1534.00, 
1535.00, 
1536.00, 
1537.00, 
1538.00, 
1539.00, 
1540.00, 
1541.00, 
1542.00, 
1543.00, 
1544.00, 
1545.00, 
1546.00, 
1547.00, 
1548.00, 
1549.00, 
1550.00, 
1551.00, 
1552.00, 
1553.00, 
1554.00, 
1555.00, 
1556.00, 
1557.00, 
1558.00, 
1559.00, 
1560.00, 
1561.00, 
1562.00, 
1563.00, 
1564.00, 
1565.00, 
1566.00, 
1567.00, 
1568.00, 
1569.00, 
1570.00, 
1571.00, 
1572.00, 
1573.00, 
1574.00, 
1575.00, 
1576.00, 
1577.00, 
1578.00, 
1579.00, 
1580.00, 
1581.00, 
1582.00, 
1583.00, 
1584.00, 
1585.00, 
1586.00, 
1587.00, 
1588.00, 
1589.00, 
1590.00, 
1591.00, 
1592.00, 
1593.00, 
1594.00, 
1595.00, 
1596.00, 
1597.00, 
1598.00, 
1599.00, 
1600.00, 
1601.00, 
1602.00, 
1603.00, 
1604.00, 
1605.00, 
1606.00, 
1607.00, 
1608.00, 
1609.00, 
1610.00, 
1611.00, 
1612.00, 
1613.00, 
1614.00, 
1615.00, 
1616.00, 
1617.00, 
1618.00, 
1619.00, 
1620.00, 
1621.00, 
1622.00, 
1623.00, 
1624.00, 
1625.00, 
1626.00, 
1627.00, 
1628.00, 
1629.00, 
1630.00, 
1631.00, 
1632.00, 
1633.00, 
1634.00, 
1635.00, 
1636.00, 
1637.00, 
1638.00, 
1639.00, 
1640.00, 
1641.00, 
1642.00, 
1643.00, 
1644.00, 
1645.00, 
1646.00, 
1647.00, 
1648.00, 
1649.00, 
1650.00, 
1651.00, 
1652.00, 
1653.00, 
1654.00, 
1655.00, 
1656.00, 
1657.00, 
1658.00, 
1659.00, 
1660.00, 
1661.00, 
1662.00, 
1663.00, 
1664.00, 
1665.00, 
1666.00, 
1667.00, 
1668.00, 
1669.00, 
1670.00, 
1671.00, 
1672.00, 
1673.00, 
1674.00, 
1675.00, 
1676.00, 
1677.00, 
1678.00, 
1679.00, 
1680.00, 
1681.00, 
1682.00, 
1683.00, 
1684.00, 
1685.00, 
1686.00, 
1687.00, 
1688.00, 
1689.00, 
1690.00, 
1691.00, 
1692.00, 
1693.00, 
1694.00, 
1695.00, 
1696.00, 
1697.00, 
1698.00, 
1699.00, 
1700.00, 
1701.00, 
1702.00, 
1703.00, 
1704.00, 
1705.00, 
1706.00, 
1707.00, 
1708.00, 
1709.00, 
1710.00, 
1711.00, 
1712.00, 
1713.00, 
1714.00, 
1715.00, 
1716.00, 
1717.00, 
1718.00, 
1719.00, 
1720.00, 
1721.00, 
1722.00, 
1723.00, 
1724.00, 
1725.00, 
1726.00, 
1727.00, 
1728.00, 
1729.00, 
1730.00, 
1731.00, 
1732.00, 
1733.00, 
1734.00, 
1735.00, 
1736.00, 
1737.00, 
1738.00, 
1739.00, 
1740.00, 
1741.00, 
1742.00, 
1743.00, 
1744.00, 
1745.00, 
1746.00, 
1747.00, 
1748.00, 
1749.00, 
1750.00, 
1751.00, 
1752.00, 
1753.00, 
1754.00, 
1755.00, 
1756.00, 
1757.00, 
1758.00, 
1759.00, 
1760.00, 
1761.00, 
1762.00, 
1763.00, 
1764.00, 
1765.00, 
1766.00, 
1767.00, 
1768.00, 
1769.00, 
1770.00, 
1771.00, 
1772.00, 
1773.00, 
1774.00, 
1775.00, 
1776.00, 
1777.00, 
1778.00, 
1779.00, 
1780.00, 
1781.00, 
1782.00, 
1783.00, 
1784.00, 
1785.00, 
1786.00, 
1787.00, 
1788.00, 
1789.00, 
1790.00, 
1791.00, 
1792.00, 
1793.00, 
1794.00, 
1795.00, 
1796.00, 
1797.00, 
1798.00, 
1799.00, 
1800.00, 
1801.00, 
1802.00, 
1803.00, 
1804.00, 
1805.00, 
1806.00, 
1807.00, 
1808.00, 
1809.00, 
1810.00, 
1811.00, 
1812.00, 
1813.00, 
1814.00, 
1815.00, 
1816.00, 
1817.00, 
1818.00, 
1819.00, 
1820.00, 
1821.00, 
1822.00, 
1823.00, 
1824.00, 
1825.00, 
1826.00, 
1827.00, 
1828.00, 
1829.00, 
1830.00, 
1831.00, 
1832.00, 
1833.00, 
1834.00, 
1835.00, 
1836.00, 
1837.00, 
1838.00, 
1839.00, 
1840.00, 
1841.00, 
1842.00, 
1843.00, 
1844.00, 
1845.00, 
1846.00, 
1847.00, 
1848.00, 
1849.00, 
1850.00, 
1851.00, 
1852.00, 
1853.00, 
1854.00, 
1855.00, 
1856.00, 
1857.00, 
1858.00, 
1859.00, 
1860.00, 
1861.00, 
1862.00, 
1863.00, 
1864.00, 
1865.00, 
1866.00, 
1867.00, 
1868.00, 
1869.00, 
1870.00, 
1871.00, 
1872.00, 
1873.00, 
1874.00, 
1875.00, 
1876.00, 
1877.00, 
1878.00, 
1879.00, 
1880.00, 
1881.00, 
1882.00, 
1883.00, 
1884.00, 
1885.00, 
1886.00, 
1887.00, 
1888.00, 
1889.00, 
1890.00, 
1891.00, 
1892.00, 
1893.00, 
1894.00, 
1895.00, 
1896.00, 
1897.00, 
1898.00, 
1899.00, 
1900.00, 
1901.00, 
1902.00, 
1903.00, 
1904.00, 
1905.00, 
1906.00, 
1907.00, 
1908.00, 
1909.00, 
1910.00, 
1911.00, 
1912.00, 
1913.00, 
1914.00, 
1915.00, 
1916.00, 
1917.00, 
1918.00, 
1919.00, 
1920.00, 
1921.00, 
1922.00, 
1923.00, 
1924.00, 
1925.00, 
1926.00, 
1927.00, 
1928.00, 
1929.00, 
1930.00, 
1931.00, 
1932.00, 
1933.00, 
1934.00, 
1935.00, 
1936.00, 
1937.00, 
1938.00, 
1939.00, 
1940.00, 
1941.00, 
1942.00, 
1943.00, 
1944.00, 
1945.00, 
1946.00, 
1947.00, 
1948.00, 
1949.00, 
1950.00, 
1951.00, 
1952.00, 
1953.00, 
1954.00, 
1955.00, 
1956.00, 
1957.00, 
1958.00, 
1959.00, 
1960.00, 
1961.00, 
1962.00, 
1963.00, 
1964.00, 
1965.00, 
1966.00, 
1967.00, 
1968.00, 
1969.00, 
1970.00, 
1971.00, 
1972.00, 
1973.00, 
1974.00, 
1975.00, 
1976.00, 
1977.00, 
1978.00, 
1979.00, 
1980.00, 
1981.00, 
1982.00, 
1983.00, 
1984.00, 
1985.00, 
1986.00, 
1987.00, 
1988.00, 
1989.00, 
1990.00, 
1991.00, 
1992.00, 
1993.00, 
1994.00, 
1995.00, 
1996.00, 
1997.00, 
1998.00, 
1999.00, 
2000.00, 
2001.00, 
2002.00, 
2003.00, 
2004.00, 
2005.00, 
2006.00, 
2007.00, 
2008.00, 
2009.00, 
2010.00, 
2011.00, 
2012.00, 
2013.00, 
2014.00, 
2015.00, 
2016.00, 
2017.00, 
2018.00, 
2019.00, 
2020.00, 
2021.00, 
2022.00, 
2023.00, 
2024.00, 
2025.00, 
2026.00, 
2027.00, 
2028.00, 
2029.00, 
2030.00, 
2031.00, 
2032.00, 
2033.00, 
2034.00, 
2035.00, 
2036.00, 
2037.00, 
2038.00, 
2039.00, 
2040.00, 
2041.00, 
2042.00, 
2043.00, 
2044.00, 
2045.00, 
2046.00, 
2047.00, 
2048.00, 
2049.00, 
2050.00, 
2051.00, 
2052.00, 
2053.00, 
2054.00, 
2055.00, 
2056.00, 
2057.00, 
2058.00, 
2059.00, 
2060.00, 
2061.00, 
2062.00, 
2063.00, 
2064.00, 
2065.00, 
2066.00, 
2067.00, 
2068.00, 
2069.00, 
2070.00, 
2071.00, 
2072.00, 
2073.00, 
2074.00, 
2075.00, 
2076.00, 
2077.00, 
2078.00, 
2079.00, 
2080.00, 
2081.00, 
2082.00, 
2083.00, 
2084.00, 
2085.00, 
2086.00, 
2087.00, 
2088.00, 
2089.00, 
2090.00, 
2091.00, 
2092.00, 
2093.00, 
2094.00, 
2095.00, 
2096.00, 
2097.00, 
2098.00, 
2099.00, 
2100.00, 
2101.00, 
2102.00, 
2103.00, 
2104.00, 
2105.00, 
2106.00, 
2107.00, 
2108.00, 
2109.00, 
2110.00, 
2111.00, 
2112.00, 
2113.00, 
2114.00, 
2115.00, 
2116.00, 
2117.00, 
2118.00, 
2119.00, 
2120.00, 
2121.00, 
2122.00, 
2123.00, 
2124.00, 
2125.00, 
2126.00, 
2127.00, 
2128.00, 
2129.00, 
2130.00, 
2131.00, 
2132.00, 
2133.00, 
2134.00, 
2135.00, 
2136.00, 
2137.00, 
2138.00, 
2139.00, 
2140.00, 
2141.00, 
2142.00, 
2143.00, 
2144.00, 
2145.00, 
2146.00, 
2147.00, 
2148.00, 
2149.00, 
2150.00, 
2151.00, 
2152.00, 
2153.00, 
2154.00, 
2155.00, 
2156.00, 
2157.00, 
2158.00, 
2159.00, 
2160.00, 
2161.00, 
2162.00, 
2163.00, 
2164.00, 
2165.00, 
2166.00, 
2167.00, 
2168.00, 
2169.00, 
2170.00, 
2171.00, 
2172.00, 
2173.00, 
2174.00, 
2175.00, 
2176.00, 
2177.00, 
2178.00, 
2179.00, 
2180.00, 
2181.00, 
2182.00, 
2183.00, 
2184.00, 
2185.00, 
2186.00, 
2187.00, 
2188.00, 
2189.00, 
2190.00, 
2191.00, 
2192.00, 
2193.00, 
2194.00, 
2195.00, 
2196.00, 
2197.00, 
2198.00, 
2199.00, 
2200.00, 
2201.00, 
2202.00, 
2203.00, 
2204.00, 
2205.00, 
2206.00, 
2207.00, 
2208.00, 
2209.00, 
2210.00, 
2211.00, 
2212.00, 
2213.00, 
2214.00, 
2215.00, 
2216.00, 
2217.00, 
2218.00, 
2219.00, 
2220.00, 
2221.00, 
2222.00, 
2223.00, 
2224.00, 
2225.00, 
2226.00, 
2227.00, 
2228.00, 
2229.00, 
2230.00, 
2231.00, 
2232.00, 
2233.00, 
2234.00, 
2235.00, 
2236.00, 
2237.00, 
2238.00, 
2239.00, 
2240.00, 
2241.00, 
2242.00, 
2243.00, 
2244.00, 
2245.00, 
2246.00, 
2247.00, 
2248.00, 
2249.00, 
2250.00, 
2251.00, 
2252.00, 
2253.00, 
2254.00, 
2255.00, 
2256.00, 
2257.00, 
2258.00, 
2259.00, 
2260.00, 
2261.00, 
2262.00, 
2263.00, 
2264.00, 
2265.00, 
2266.00, 
2267.00, 
2268.00, 
2269.00, 
2270.00, 
2271.00, 
2272.00, 
2273.00, 
2274.00, 
2275.00, 
2276.00, 
2277.00, 
2278.00, 
2279.00, 
2280.00, 
2281.00, 
2282.00, 
2283.00, 
2284.00, 
2285.00, 
2286.00, 
2287.00, 
2288.00, 
2289.00, 
2290.00, 
2291.00, 
2292.00, 
2293.00, 
2294.00, 
2295.00, 
2296.00, 
2297.00, 
2298.00, 
2299.00, 
2300.00, 
2301.00, 
2302.00, 
2303.00, 
2304.00, 
2305.00, 
2306.00, 
2307.00, 
2308.00, 
2309.00, 
2310.00, 
2311.00, 
2312.00, 
2313.00, 
2314.00, 
2315.00, 
2316.00, 
2317.00, 
2318.00, 
2319.00, 
2320.00, 
2321.00, 
2322.00, 
2323.00, 
2324.00, 
2325.00, 
2326.00, 
2327.00, 
2328.00, 
2329.00, 
2330.00, 
2331.00, 
2332.00, 
2333.00, 
2334.00, 
2335.00, 
2336.00, 
2337.00, 
2338.00, 
2339.00, 
2340.00, 
2341.00, 
2342.00, 
2343.00, 
2344.00, 
2345.00, 
2346.00, 
2347.00, 
2348.00, 
2349.00, 
2350.00, 
2351.00, 
2352.00, 
2353.00, 
2354.00, 
2355.00, 
2356.00, 
2357.00, 
2358.00, 
2359.00, 
2360.00, 
2361.00, 
2362.00, 
2363.00, 
2364.00, 
2365.00, 
2366.00, 
2367.00, 
2368.00, 
2369.00, 
2370.00, 
2371.00, 
2372.00, 
2373.00, 
2374.00, 
2375.00, 
2376.00, 
2377.00, 
2378.00, 
2379.00, 
2380.00, 
2381.00, 
2382.00, 
2383.00, 
2384.00, 
2385.00, 
2386.00, 
2387.00, 
2388.00, 
2389.00, 
2390.00, 
2391.00, 
2392.00, 
2393.00, 
2394.00, 
2395.00, 
2396.00, 
2397.00, 
2398.00, 
2399.00, 
2400.00, 
2401.00, 
2402.00, 
2403.00, 
2404.00, 
2405.00, 
2406.00, 
2407.00, 
2408.00, 
2409.00, 
2410.00, 
2411.00, 
2412.00, 
2413.00, 
2414.00, 
2415.00, 
2416.00, 
2417.00, 
2418.00, 
2419.00, 
2420.00, 
2421.00, 
2422.00, 
2423.00, 
2424.00, 
2425.00, 
2426.00, 
2427.00, 
2428.00, 
2429.00, 
2430.00, 
2431.00, 
2432.00, 
2433.00, 
2434.00, 
2435.00, 
2436.00, 
2437.00, 
2438.00, 
2439.00, 
2440.00, 
2441.00, 
2442.00, 
2443.00, 
2444.00, 
2445.00, 
2446.00, 
2447.00, 
2448.00, 
2449.00, 
2450.00, 
2451.00, 
2452.00, 
2453.00, 
2454.00, 
2455.00, 
2456.00, 
2457.00, 
2458.00, 
2459.00, 
2460.00, 
2461.00, 
2462.00, 
2463.00, 
2464.00, 
2465.00, 
2466.00, 
2467.00, 
2468.00, 
2469.00, 
2470.00, 
2471.00, 
2472.00, 
2473.00, 
2474.00, 
2475.00, 
2476.00, 
2477.00, 
2478.00, 
2479.00, 
2480.00, 
2481.00, 
2482.00, 
2483.00, 
2484.00, 
2485.00, 
2486.00, 
2487.00, 
2488.00, 
2489.00, 
2490.00, 
2491.00, 
2492.00, 
2493.00, 
2494.00, 
2495.00, 
2496.00, 
2497.00, 
2498.00, 
2499.00, 
2500.00, 
2501.00, 
2502.00, 
2503.00, 
2504.00, 
2505.00, 
2506.00, 
2507.00, 
2508.00, 
2509.00, 
2510.00, 
2511.00, 
2512.00, 
2513.00, 
2514.00, 
2515.00, 
2516.00, 
2517.00, 
2518.00, 
2519.00, 
2520.00, 
2521.00, 
2522.00, 
2523.00, 
2524.00, 
2525.00, 
2526.00, 
2527.00, 
2528.00, 
2529.00, 
2530.00, 
2531.00, 
2532.00, 
2533.00, 
2534.00, 
2535.00, 
2536.00, 
2537.00, 
2538.00, 
2539.00, 
2540.00, 
2541.00, 
2542.00, 
2543.00, 
2544.00, 
2545.00, 
2546.00, 
2547.00, 
2548.00, 
2549.00, 
2550.00, 
2551.00, 
2552.00, 
2553.00, 
2554.00, 
2555.00, 
2556.00, 
2557.00, 
2558.00, 
2559.00, 
2560.00, 
2561.00, 
2562.00, 
2563.00, 
2564.00, 
2565.00, 
2566.00, 
2567.00, 
2568.00, 
2569.00, 
2570.00, 
2571.00, 
2572.00, 
2573.00, 
2574.00, 
2575.00, 
2576.00, 
2577.00, 
2578.00, 
2579.00, 
2580.00, 
2581.00, 
2582.00, 
2583.00, 
2584.00, 
2585.00, 
2586.00, 
2587.00, 
2588.00, 
2589.00, 
2590.00, 
2591.00, 
2592.00, 
2593.00, 
2594.00, 
2595.00, 
2596.00, 
2597.00, 
2598.00, 
2599.00, 
2600.00, 
