"1cP2 - RawData"
"Wavelength nm.","T%"
200.00,-0.000
201.00,0.005
202.00,-0.002
203.00,0.000
204.00,-0.000
205.00,0.003
206.00,0.000
207.00,0.002
208.00,0.003
209.00,-0.001
210.00,0.000
211.00,0.001
212.00,-0.001
213.00,-0.000
214.00,0.000
215.00,0.001
216.00,0.001
217.00,-0.002
218.00,0.002
219.00,0.003
220.00,-0.001
221.00,0.001
222.00,-0.000
223.00,0.002
224.00,0.000
225.00,-0.002
226.00,-0.001
227.00,0.002
228.00,0.001
229.00,-0.001
230.00,0.001
231.00,-0.001
232.00,-0.000
233.00,0.003
234.00,0.001
235.00,0.001
236.00,0.001
237.00,0.001
238.00,-0.000
239.00,0.001
240.00,0.000
241.00,0.002
242.00,-0.001
243.00,-0.000
244.00,0.002
245.00,-0.000
246.00,0.001
247.00,0.001
248.00,-0.000
249.00,0.002
250.00,0.001
251.00,0.001
252.00,0.001
253.00,0.001
254.00,0.002
255.00,0.000
256.00,-0.001
257.00,0.001
258.00,0.001
259.00,-0.001
260.00,-0.000
261.00,0.002
262.00,-0.000
263.00,0.000
264.00,0.003
265.00,-0.000
266.00,-0.001
267.00,0.000
268.00,-0.000
269.00,-0.000
270.00,-0.000
271.00,0.002
272.00,-0.000
273.00,-0.001
274.00,-0.001
275.00,0.001
276.00,-0.000
277.00,-0.000
278.00,0.001
279.00,0.001
280.00,0.001
281.00,0.001
282.00,0.001
283.00,0.000
284.00,-0.001
285.00,0.001
286.00,-0.001
287.00,0.000
288.00,-0.000
289.00,0.002
290.00,-0.000
291.00,-0.000
292.00,-0.001
293.00,-0.000
294.00,0.002
295.00,0.000
296.00,0.001
297.00,0.000
298.00,0.002
299.00,-0.000
300.00,-0.000
301.00,-0.000
302.00,0.003
303.00,0.003
304.00,0.001
305.00,0.004
306.00,0.005
307.00,0.006
308.00,0.009
309.00,0.019
310.00,0.028
311.00,0.047
312.00,0.069
313.00,0.115
314.00,0.158
315.00,0.235
316.00,0.337
317.00,0.484
318.00,0.650
319.00,0.882
320.00,1.192
321.00,1.545
322.00,1.965
323.00,2.487
324.00,3.083
325.00,3.708
326.00,4.418
327.00,5.271
328.00,6.164
329.00,7.152
330.00,8.109
331.00,9.262
332.00,10.399
333.00,11.675
334.00,12.844
335.00,14.132
336.00,15.448
337.00,16.824
338.00,18.168
339.00,19.434
340.00,20.745
341.00,21.988
342.00,23.247
343.00,24.415
344.00,25.580
345.00,26.806
346.00,27.820
347.00,28.853
348.00,29.813
349.00,30.788
350.00,31.684
351.00,32.521
352.00,33.306
353.00,34.082
354.00,34.767
355.00,35.420
356.00,36.122
357.00,36.454
358.00,37.252
359.00,37.930
360.00,38.425
361.00,38.824
362.00,39.300
363.00,39.706
364.00,39.956
365.00,40.264
366.00,40.561
367.00,40.837
368.00,41.065
369.00,41.259
370.00,41.502
371.00,41.600
372.00,41.630
373.00,41.681
374.00,41.777
375.00,41.801
376.00,41.655
377.00,41.612
378.00,41.566
379.00,41.329
380.00,41.402
381.00,41.392
382.00,41.575
383.00,41.731
384.00,41.902
385.00,42.137
386.00,42.319
387.00,42.535
388.00,42.789
389.00,42.931
390.00,43.074
391.00,43.255
392.00,43.427
393.00,43.705
394.00,43.564
395.00,43.701
396.00,43.783
397.00,43.945
398.00,43.930
399.00,44.001
400.00,44.095
401.00,44.113
402.00,44.201
403.00,44.185
404.00,44.241
405.00,44.247
406.00,44.218
407.00,44.114
408.00,44.145
409.00,44.085
410.00,44.025
411.00,44.027
412.00,43.941
413.00,43.874
414.00,43.860
415.00,43.862
416.00,43.972
417.00,43.868
418.00,43.962
419.00,43.998
420.00,44.097
421.00,44.085
422.00,43.979
423.00,44.129
424.00,44.071
425.00,44.173
426.00,44.185
427.00,44.251
428.00,44.233
429.00,44.219
430.00,44.289
431.00,44.324
432.00,44.266
433.00,44.329
434.00,44.360
435.00,44.421
436.00,44.380
437.00,44.411
438.00,44.418
439.00,44.400
440.00,44.516
441.00,44.543
442.00,44.565
443.00,44.587
444.00,44.679
445.00,44.733
446.00,44.755
447.00,44.798
448.00,44.895
449.00,44.951
450.00,45.091
451.00,45.092
452.00,45.112
453.00,45.136
454.00,45.204
455.00,45.269
456.00,45.433
457.00,45.437
458.00,45.477
459.00,45.626
460.00,45.661
461.00,45.750
462.00,45.776
463.00,45.837
464.00,45.901
465.00,45.983
466.00,46.113
467.00,46.223
468.00,46.157
469.00,46.198
470.00,46.187
471.00,46.208
472.00,46.252
473.00,46.241
474.00,46.329
475.00,46.322
476.00,46.305
477.00,46.343
478.00,46.381
479.00,46.553
480.00,46.596
481.00,46.555
482.00,46.781
483.00,46.703
484.00,46.893
485.00,46.996
486.00,47.061
487.00,47.148
488.00,47.154
489.00,47.281
490.00,47.383
491.00,47.433
492.00,47.649
493.00,47.704
494.00,47.517
495.00,47.532
496.00,47.625
497.00,47.604
498.00,47.793
499.00,47.859
500.00,47.978
501.00,48.024
502.00,48.015
503.00,48.080
504.00,48.022
505.00,48.089
506.00,48.126
507.00,48.132
508.00,48.247
509.00,48.250
510.00,48.353
511.00,48.420
512.00,48.513
513.00,48.646
514.00,48.670
515.00,48.757
516.00,48.788
517.00,48.826
518.00,48.910
519.00,48.863
520.00,48.843
521.00,48.896
522.00,48.960
523.00,48.946
524.00,48.992
525.00,49.034
526.00,49.080
527.00,49.104
528.00,49.069
529.00,49.264
530.00,49.383
531.00,49.474
532.00,49.425
533.00,49.541
534.00,49.586
535.00,49.627
536.00,49.698
537.00,49.696
538.00,49.685
539.00,49.682
540.00,49.768
541.00,49.719
542.00,49.719
543.00,49.778
544.00,49.774
545.00,49.852
546.00,49.860
547.00,49.943
548.00,49.979
549.00,49.970
550.00,50.072
551.00,50.184
552.00,50.147
553.00,50.198
554.00,50.281
555.00,50.288
556.00,50.320
557.00,50.314
558.00,50.321
559.00,50.348
560.00,50.385
561.00,50.434
562.00,50.527
563.00,50.477
564.00,50.531
565.00,50.498
566.00,50.449
567.00,50.448
568.00,50.461
569.00,50.527
570.00,50.494
571.00,50.559
572.00,50.509
573.00,50.424
574.00,50.466
575.00,50.418
576.00,50.428
577.00,50.404
578.00,50.548
579.00,50.563
580.00,50.507
581.00,50.744
582.00,50.728
583.00,50.799
584.00,50.907
585.00,50.892
586.00,50.884
587.00,50.944
588.00,50.953
589.00,50.838
590.00,50.892
591.00,51.023
592.00,50.908
593.00,50.799
594.00,50.909
595.00,51.019
596.00,50.978
597.00,51.284
598.00,51.174
599.00,50.943
600.00,50.875
601.00,51.072
602.00,51.216
603.00,51.022
604.00,51.116
605.00,51.116
606.00,51.054
607.00,51.028
608.00,51.189
609.00,51.310
610.00,51.001
611.00,51.093
612.00,51.062
613.00,51.097
614.00,51.089
615.00,51.200
616.00,51.293
617.00,51.153
618.00,51.125
619.00,51.177
620.00,51.086
621.00,51.173
622.00,51.194
623.00,51.240
624.00,51.284
625.00,51.240
626.00,51.199
627.00,51.236
628.00,51.127
629.00,51.190
630.00,51.159
631.00,51.186
632.00,51.280
633.00,51.253
634.00,51.297
635.00,51.292
636.00,51.310
637.00,51.230
638.00,51.275
639.00,51.404
640.00,51.314
641.00,51.228
642.00,51.249
643.00,51.317
644.00,51.275
645.00,51.343
646.00,51.452
647.00,51.342
648.00,51.362
649.00,51.307
650.00,51.196
651.00,51.276
652.00,51.434
653.00,51.359
654.00,51.273
655.00,51.462
656.00,51.717
657.00,51.398
658.00,51.442
659.00,51.391
660.00,51.286
661.00,51.226
662.00,51.310
663.00,51.377
664.00,51.534
665.00,51.716
666.00,51.604
667.00,51.536
668.00,51.417
669.00,51.646
670.00,51.825
671.00,51.534
672.00,51.670
673.00,51.663
674.00,51.590
675.00,51.475
676.00,51.664
677.00,51.772
678.00,51.465
679.00,51.607
680.00,51.631
681.00,51.776
682.00,51.665
683.00,51.414
684.00,51.567
685.00,51.668
686.00,51.553
687.00,51.520
688.00,51.484
689.00,51.277
690.00,51.589
691.00,51.817
692.00,51.272
693.00,51.496
694.00,51.519
695.00,51.515
696.00,51.356
697.00,51.215
698.00,51.014
699.00,51.772
700.00,52.383
701.00,51.448
702.00,51.514
703.00,51.621
704.00,51.533
705.00,51.387
706.00,51.425
707.00,51.392
708.00,51.232
709.00,51.570
710.00,51.932
711.00,51.268
712.00,51.381
713.00,51.338
714.00,51.453
715.00,51.287
716.00,51.211
717.00,51.366
718.00,51.385
719.00,51.365
720.00,51.236
721.00,56.090
722.00,56.024
723.00,56.029
724.00,55.942
725.00,55.864
726.00,55.789
727.00,55.793
728.00,55.730
729.00,55.624
730.00,55.738
731.00,55.594
732.00,55.519
733.00,55.494
734.00,55.437
735.00,55.453
736.00,55.378
737.00,55.335
738.00,55.239
739.00,55.250
740.00,55.208
741.00,55.196
742.00,55.246
743.00,55.075
744.00,55.054
745.00,54.993
746.00,54.996
747.00,54.884
748.00,54.772
749.00,54.769
750.00,54.646
751.00,54.621
752.00,54.540
753.00,54.569
754.00,54.402
755.00,54.398
756.00,54.408
757.00,54.366
758.00,54.274
759.00,54.234
760.00,54.183
761.00,54.154
762.00,54.093
763.00,54.127
764.00,54.105
765.00,54.050
766.00,53.988
767.00,53.962
768.00,53.943
769.00,53.955
770.00,53.877
771.00,53.840
772.00,53.869
773.00,53.754
774.00,53.742
775.00,53.697
776.00,53.615
777.00,53.652
778.00,53.594
779.00,53.609
780.00,53.485
781.00,53.566
782.00,53.488
783.00,53.375
784.00,53.451
785.00,53.266
786.00,53.364
787.00,53.250
788.00,53.158
789.00,53.160
790.00,53.138
791.00,53.115
792.00,53.019
793.00,53.004
794.00,53.022
795.00,52.976
796.00,53.051
797.00,52.840
798.00,52.830
799.00,52.775
800.00,52.764
801.00,52.719
802.00,52.731
803.00,52.589
804.00,52.592
805.00,52.599
806.00,52.449
807.00,52.467
808.00,52.515
809.00,52.395
810.00,52.389
811.00,52.353
812.00,52.453
813.00,52.225
814.00,52.229
815.00,52.219
816.00,52.224
817.00,52.151
818.00,52.075
819.00,52.073
820.00,51.989
821.00,51.963
822.00,51.948
823.00,51.917
824.00,51.883
825.00,51.933
826.00,51.822
827.00,51.843
828.00,51.880
829.00,51.848
830.00,51.753
831.00,54.139
832.00,54.086
833.00,53.996
834.00,54.018
835.00,53.960
836.00,53.973
837.00,53.914
838.00,53.921
839.00,53.872
840.00,53.799
841.00,53.816
842.00,53.758
843.00,53.771
844.00,53.730
845.00,53.654
846.00,53.680
847.00,53.620
848.00,53.458
849.00,53.517
850.00,53.489
851.00,53.420
852.00,53.422
853.00,53.299
854.00,53.308
855.00,53.261
856.00,53.259
857.00,53.239
858.00,53.137
859.00,53.089
860.00,53.247
861.00,53.121
862.00,53.051
863.00,53.053
864.00,53.003
865.00,53.043
866.00,52.965
867.00,52.979
868.00,52.957
869.00,52.923
870.00,52.932
871.00,52.893
872.00,52.879
873.00,52.837
874.00,52.853
875.00,52.933
876.00,52.810
877.00,52.796
878.00,52.793
879.00,52.717
880.00,52.738
881.00,52.685
882.00,52.708
883.00,52.630
884.00,52.602
885.00,52.605
886.00,52.565
887.00,52.490
888.00,52.520
889.00,52.479
890.00,52.472
891.00,52.450
892.00,52.399
893.00,52.372
894.00,52.399
895.00,52.344
896.00,52.327
897.00,52.295
898.00,52.245
899.00,52.253
900.00,52.219
901.00,52.217
902.00,52.203
903.00,52.175
904.00,52.162
905.00,52.163
906.00,52.146
907.00,52.089
908.00,52.055
909.00,52.059
910.00,52.011
911.00,51.978
912.00,51.975
913.00,51.957
914.00,51.859
915.00,51.976
916.00,51.871
917.00,51.848
918.00,51.855
919.00,51.823
920.00,51.775
921.00,51.774
922.00,51.763
923.00,51.739
924.00,51.683
925.00,51.689
926.00,51.684
927.00,51.665
928.00,51.609
929.00,51.608
930.00,51.687
931.00,51.561
932.00,51.523
933.00,51.533
934.00,51.520
935.00,51.495
936.00,51.448
937.00,51.425
938.00,51.408
939.00,51.402
940.00,51.350
941.00,51.348
942.00,51.333
943.00,51.324
944.00,51.261
945.00,51.263
946.00,51.270
947.00,51.203
948.00,51.187
949.00,51.183
950.00,51.159
951.00,51.133
952.00,51.097
953.00,51.065
954.00,51.045
955.00,51.004
956.00,51.020
957.00,50.955
958.00,50.958
959.00,50.921
960.00,50.924
961.00,50.882
962.00,50.891
963.00,50.847
964.00,50.834
965.00,50.852
966.00,50.825
967.00,50.820
968.00,50.781
969.00,50.809
970.00,50.812
971.00,50.793
972.00,50.737
973.00,50.803
974.00,50.776
975.00,50.723
976.00,50.807
977.00,50.755
978.00,50.819
979.00,50.756
980.00,50.767
981.00,50.791
982.00,50.742
983.00,50.758
984.00,50.722
985.00,50.733
986.00,50.688
987.00,50.717
988.00,50.672
989.00,50.666
990.00,50.654
991.00,50.641
992.00,50.654
993.00,50.625
994.00,50.608
995.00,50.594
996.00,50.577
997.00,50.590
998.00,50.559
999.00,50.563
1000.00,50.528
1001.00,50.522
1002.00,50.495
1003.00,50.491
1004.00,50.482
1005.00,50.443
1006.00,50.501
1007.00,50.449
1008.00,50.450
1009.00,50.411
1010.00,50.406
1011.00,50.421
1012.00,50.379
1013.00,50.380
1014.00,50.355
1015.00,50.359
1016.00,50.297
1017.00,50.311
1018.00,50.293
1019.00,50.256
1020.00,50.268
1021.00,50.228
1022.00,50.241
1023.00,50.187
1024.00,50.179
1025.00,50.165
1026.00,50.168
1027.00,50.133
1028.00,50.140
1029.00,50.121
1030.00,50.087
1031.00,50.107
1032.00,50.059
1033.00,50.068
1034.00,50.023
1035.00,49.990
1036.00,49.984
1037.00,49.961
1038.00,49.947
1039.00,49.911
1040.00,49.917
1041.00,49.882
1042.00,49.869
1043.00,49.851
1044.00,49.893
1045.00,49.875
1046.00,49.823
1047.00,49.870
1048.00,49.891
1049.00,49.881
1050.00,49.888
1051.00,49.962
1052.00,49.929
1053.00,49.927
1054.00,49.919
1055.00,49.967
1056.00,49.970
1057.00,49.943
1058.00,49.942
1059.00,49.946
1060.00,49.944
1061.00,49.936
1062.00,49.916
1063.00,49.922
1064.00,49.921
1065.00,49.898
1066.00,49.898
1067.00,49.892
1068.00,49.903
1069.00,49.875
1070.00,49.867
1071.00,49.841
1072.00,49.881
1073.00,49.854
1074.00,49.849
1075.00,49.834
1076.00,49.834
1077.00,49.826
1078.00,49.790
1079.00,49.782
1080.00,49.795
1081.00,49.767
1082.00,49.776
1083.00,49.805
1084.00,49.752
1085.00,49.747
1086.00,49.741
1087.00,49.727
1088.00,49.731
1089.00,49.720
1090.00,49.704
1091.00,49.732
1092.00,49.717
1093.00,49.682
1094.00,49.680
1095.00,49.667
1096.00,49.634
1097.00,49.654
1098.00,49.655
1099.00,49.635
1100.00,49.612
1101.00,49.608
1102.00,49.610
1103.00,49.616
1104.00,49.579
1105.00,49.594
1106.00,49.564
1107.00,49.560
1108.00,49.561
1109.00,49.548
1110.00,49.545
1111.00,49.522
1112.00,49.507
1113.00,49.516
1114.00,49.486
1115.00,49.479
1116.00,49.488
1117.00,49.466
1118.00,49.458
1119.00,49.461
1120.00,49.457
1121.00,49.472
1122.00,49.440
1123.00,49.423
1124.00,49.447
1125.00,49.453
1126.00,49.430
1127.00,49.449
1128.00,49.421
1129.00,49.397
1130.00,49.395
1131.00,49.383
1132.00,49.376
1133.00,49.387
1134.00,49.374
1135.00,49.359
1136.00,49.371
1137.00,49.366
1138.00,49.370
1139.00,49.380
1140.00,49.370
1141.00,49.355
1142.00,49.360
1143.00,49.377
1144.00,49.338
1145.00,49.322
1146.00,49.340
1147.00,49.325
1148.00,49.312
1149.00,49.353
1150.00,49.336
1151.00,49.348
1152.00,49.338
1153.00,49.332
1154.00,49.342
1155.00,49.342
1156.00,49.315
1157.00,49.330
1158.00,49.312
1159.00,49.303
1160.00,49.316
1161.00,49.329
1162.00,49.318
1163.00,49.312
1164.00,49.313
1165.00,49.319
1166.00,49.318
1167.00,49.288
1168.00,49.328
1169.00,49.309
1170.00,49.310
1171.00,49.304
1172.00,49.308
1173.00,49.291
1174.00,49.310
1175.00,49.303
1176.00,49.302
1177.00,49.291
1178.00,49.284
1179.00,49.317
1180.00,49.301
1181.00,49.307
1182.00,49.321
1183.00,49.301
1184.00,49.292
1185.00,49.306
1186.00,49.289
1187.00,49.303
1188.00,49.294
1189.00,49.288
1190.00,49.286
1191.00,49.272
1192.00,49.302
1193.00,49.303
1194.00,49.308
1195.00,49.283
1196.00,49.319
1197.00,49.307
1198.00,49.284
1199.00,49.286
1200.00,49.276
1201.00,49.303
1202.00,49.280
1203.00,49.272
1204.00,49.266
1205.00,49.288
1206.00,49.278
1207.00,49.299
1208.00,49.267
1209.00,49.287
1210.00,49.294
1211.00,49.274
1212.00,49.296
1213.00,49.276
1214.00,49.299
1215.00,49.284
1216.00,49.273
1217.00,49.290
1218.00,49.299
1219.00,49.291
1220.00,49.295
1221.00,49.330
1222.00,49.290
1223.00,49.324
1224.00,49.321
1225.00,49.298
1226.00,49.321
1227.00,49.313
1228.00,49.329
1229.00,49.348
1230.00,49.361
1231.00,49.357
1232.00,49.367
1233.00,49.344
1234.00,49.375
1235.00,49.370
1236.00,49.359
1237.00,49.370
1238.00,49.362
1239.00,49.373
1240.00,49.363
1241.00,49.368
1242.00,49.379
1243.00,49.384
1244.00,49.354
1245.00,49.402
1246.00,49.413
1247.00,49.381
1248.00,49.391
1249.00,49.403
1250.00,49.427
1251.00,49.413
1252.00,49.407
1253.00,49.420
1254.00,49.450
1255.00,49.415
1256.00,49.412
1257.00,49.403
1258.00,49.452
1259.00,49.452
1260.00,49.470
1261.00,49.474
1262.00,49.464
1263.00,49.458
1264.00,49.476
1265.00,49.484
1266.00,49.465
1267.00,49.495
1268.00,49.505
1269.00,49.498
1270.00,49.524
1271.00,49.521
1272.00,49.525
1273.00,49.546
1274.00,49.537
1275.00,49.547
1276.00,49.539
1277.00,49.548
1278.00,49.572
1279.00,49.571
1280.00,49.561
1281.00,49.589
1282.00,49.590
1283.00,49.582
1284.00,49.588
1285.00,49.580
1286.00,49.604
1287.00,49.601
1288.00,49.602
1289.00,49.598
1290.00,49.626
1291.00,49.614
1292.00,49.613
1293.00,49.606
1294.00,49.619
1295.00,49.662
1296.00,49.674
1297.00,49.666
1298.00,49.704
1299.00,49.657
1300.00,49.690
1301.00,49.686
1302.00,49.699
1303.00,49.705
1304.00,49.693
1305.00,49.725
1306.00,49.735
1307.00,49.740
1308.00,49.742
1309.00,49.750
1310.00,49.732
1311.00,49.739
1312.00,49.757
1313.00,49.768
1314.00,49.789
1315.00,49.803
1316.00,49.793
1317.00,49.835
1318.00,49.827
1319.00,49.837
1320.00,49.838
1321.00,49.991
1322.00,49.998
1323.00,49.980
1324.00,49.973
1325.00,49.979
1326.00,49.988
1327.00,49.958
1328.00,49.980
1329.00,49.965
1330.00,49.954
1331.00,49.970
1332.00,49.972
1333.00,49.991
1334.00,50.023
1335.00,50.046
1336.00,50.097
1337.00,50.113
1338.00,50.164
1339.00,50.218
1340.00,50.279
1341.00,50.330
1342.00,50.401
1343.00,50.442
1344.00,50.486
1345.00,50.555
1346.00,50.600
1347.00,50.629
1348.00,50.658
1349.00,50.661
1350.00,50.697
1351.00,50.701
1352.00,50.685
1353.00,50.792
1354.00,50.726
1355.00,50.703
1356.00,50.763
1357.00,50.739
1358.00,50.777
1359.00,50.796
1360.00,50.779
1361.00,50.900
1362.00,50.726
1363.00,50.797
1364.00,50.876
1365.00,50.773
1366.00,50.841
1367.00,50.738
1368.00,50.734
1369.00,50.818
1370.00,50.748
1371.00,50.589
1372.00,50.726
1373.00,50.797
1374.00,50.781
1375.00,50.761
1376.00,50.757
1377.00,50.753
1378.00,50.791
1379.00,50.786
1380.00,50.789
1381.00,50.806
1382.00,50.764
1383.00,50.815
1384.00,50.834
1385.00,50.841
1386.00,50.852
1387.00,50.636
1388.00,50.853
1389.00,50.753
1390.00,50.789
1391.00,50.737
1392.00,50.764
1393.00,50.797
1394.00,50.802
1395.00,50.718
1396.00,50.703
1397.00,50.770
1398.00,50.771
1399.00,50.795
1400.00,50.729
1401.00,50.736
1402.00,50.811
1403.00,50.801
1404.00,50.765
1405.00,50.833
1406.00,50.815
1407.00,50.805
1408.00,50.855
1409.00,50.834
1410.00,50.868
1411.00,50.877
1412.00,50.910
1413.00,50.851
1414.00,50.857
1415.00,50.877
1416.00,50.913
1417.00,50.970
1418.00,50.911
1419.00,50.917
1420.00,50.919
1421.00,50.973
1422.00,50.981
1423.00,50.994
1424.00,50.990
1425.00,51.025
1426.00,51.014
1427.00,51.074
1428.00,51.075
1429.00,51.071
1430.00,51.123
1431.00,51.104
1432.00,51.138
1433.00,51.157
1434.00,51.129
1435.00,51.213
1436.00,51.214
1437.00,51.185
1438.00,51.225
1439.00,51.259
1440.00,51.265
1441.00,51.273
1442.00,51.284
1443.00,51.330
1444.00,51.392
1445.00,51.321
1446.00,51.362
1447.00,51.407
1448.00,51.470
1449.00,51.466
1450.00,51.456
1451.00,51.457
1452.00,51.501
1453.00,51.485
1454.00,51.521
1455.00,51.541
1456.00,51.551
1457.00,51.556
1458.00,51.598
1459.00,51.590
1460.00,51.628
1461.00,51.631
1462.00,51.666
1463.00,51.667
1464.00,51.666
1465.00,51.701
1466.00,51.702
1467.00,51.722
1468.00,51.785
1469.00,51.766
1470.00,51.767
1471.00,51.809
1472.00,51.817
1473.00,51.822
1474.00,51.855
1475.00,51.855
1476.00,51.881
1477.00,51.863
1478.00,51.880
1479.00,51.928
1480.00,51.911
1481.00,51.916
1482.00,51.974
1483.00,51.967
1484.00,51.970
1485.00,51.969
1486.00,51.995
1487.00,52.035
1488.00,52.057
1489.00,52.036
1490.00,52.059
1491.00,52.080
1492.00,52.096
1493.00,52.100
1494.00,52.138
1495.00,52.112
1496.00,52.155
1497.00,52.122
1498.00,52.149
1499.00,52.161
1500.00,52.167
1501.00, 
1502.00, 
1503.00, 
1504.00, 
1505.00, 
1506.00, 
1507.00, 
1508.00, 
1509.00, 
1510.00, 
1511.00, 
1512.00, 
1513.00, 
1514.00, 
1515.00, 
1516.00, 
1517.00, 
1518.00, 
1519.00, 
1520.00, 
1521.00, 
1522.00, 
1523.00, 
1524.00, 
1525.00, 
1526.00, 
1527.00, 
1528.00, 
1529.00, 
1530.00, 
1531.00, 
1532.00, 
1533.00, 
1534.00, 
1535.00, 
1536.00, 
1537.00, 
1538.00, 
1539.00, 
1540.00, 
1541.00, 
1542.00, 
1543.00, 
1544.00, 
1545.00, 
1546.00, 
1547.00, 
1548.00, 
1549.00, 
1550.00, 
1551.00, 
1552.00, 
1553.00, 
1554.00, 
1555.00, 
1556.00, 
1557.00, 
1558.00, 
1559.00, 
1560.00, 
1561.00, 
1562.00, 
1563.00, 
1564.00, 
1565.00, 
1566.00, 
1567.00, 
1568.00, 
1569.00, 
1570.00, 
1571.00, 
1572.00, 
1573.00, 
1574.00, 
1575.00, 
1576.00, 
1577.00, 
1578.00, 
1579.00, 
1580.00, 
1581.00, 
1582.00, 
1583.00, 
1584.00, 
1585.00, 
1586.00, 
1587.00, 
1588.00, 
1589.00, 
1590.00, 
1591.00, 
1592.00, 
1593.00, 
1594.00, 
1595.00, 
1596.00, 
1597.00, 
1598.00, 
1599.00, 
1600.00, 
1601.00, 
1602.00, 
1603.00, 
1604.00, 
1605.00, 
1606.00, 
1607.00, 
1608.00, 
1609.00, 
1610.00, 
1611.00, 
1612.00, 
1613.00, 
1614.00, 
1615.00, 
1616.00, 
1617.00, 
1618.00, 
1619.00, 
1620.00, 
1621.00, 
1622.00, 
1623.00, 
1624.00, 
1625.00, 
1626.00, 
1627.00, 
1628.00, 
1629.00, 
1630.00, 
1631.00, 
1632.00, 
1633.00, 
1634.00, 
1635.00, 
1636.00, 
1637.00, 
1638.00, 
1639.00, 
1640.00, 
1641.00, 
1642.00, 
1643.00, 
1644.00, 
1645.00, 
1646.00, 
1647.00, 
1648.00, 
1649.00, 
1650.00, 
1651.00, 
1652.00, 
1653.00, 
1654.00, 
1655.00, 
1656.00, 
1657.00, 
1658.00, 
1659.00, 
1660.00, 
1661.00, 
1662.00, 
1663.00, 
1664.00, 
1665.00, 
1666.00, 
1667.00, 
1668.00, 
1669.00, 
1670.00, 
1671.00, 
1672.00, 
1673.00, 
1674.00, 
1675.00, 
1676.00, 
1677.00, 
1678.00, 
1679.00, 
1680.00, 
1681.00, 
1682.00, 
1683.00, 
1684.00, 
1685.00, 
1686.00, 
1687.00, 
1688.00, 
1689.00, 
1690.00, 
1691.00, 
1692.00, 
1693.00, 
1694.00, 
1695.00, 
1696.00, 
1697.00, 
1698.00, 
1699.00, 
1700.00, 
1701.00, 
1702.00, 
1703.00, 
1704.00, 
1705.00, 
1706.00, 
1707.00, 
1708.00, 
1709.00, 
1710.00, 
1711.00, 
1712.00, 
1713.00, 
1714.00, 
1715.00, 
1716.00, 
1717.00, 
1718.00, 
1719.00, 
1720.00, 
1721.00, 
1722.00, 
1723.00, 
1724.00, 
1725.00, 
1726.00, 
1727.00, 
1728.00, 
1729.00, 
1730.00, 
1731.00, 
1732.00, 
1733.00, 
1734.00, 
1735.00, 
1736.00, 
1737.00, 
1738.00, 
1739.00, 
1740.00, 
1741.00, 
1742.00, 
1743.00, 
1744.00, 
1745.00, 
1746.00, 
1747.00, 
1748.00, 
1749.00, 
1750.00, 
1751.00, 
1752.00, 
1753.00, 
1754.00, 
1755.00, 
1756.00, 
1757.00, 
1758.00, 
1759.00, 
1760.00, 
1761.00, 
1762.00, 
1763.00, 
1764.00, 
1765.00, 
1766.00, 
1767.00, 
1768.00, 
1769.00, 
1770.00, 
1771.00, 
1772.00, 
1773.00, 
1774.00, 
1775.00, 
1776.00, 
1777.00, 
1778.00, 
1779.00, 
1780.00, 
1781.00, 
1782.00, 
1783.00, 
1784.00, 
1785.00, 
1786.00, 
1787.00, 
1788.00, 
1789.00, 
1790.00, 
1791.00, 
1792.00, 
1793.00, 
1794.00, 
1795.00, 
1796.00, 
1797.00, 
1798.00, 
1799.00, 
1800.00, 
1801.00, 
1802.00, 
1803.00, 
1804.00, 
1805.00, 
1806.00, 
1807.00, 
1808.00, 
1809.00, 
1810.00, 
1811.00, 
1812.00, 
1813.00, 
1814.00, 
1815.00, 
1816.00, 
1817.00, 
1818.00, 
1819.00, 
1820.00, 
1821.00, 
1822.00, 
1823.00, 
1824.00, 
1825.00, 
1826.00, 
1827.00, 
1828.00, 
1829.00, 
1830.00, 
1831.00, 
1832.00, 
1833.00, 
1834.00, 
1835.00, 
1836.00, 
1837.00, 
1838.00, 
1839.00, 
1840.00, 
1841.00, 
1842.00, 
1843.00, 
1844.00, 
1845.00, 
1846.00, 
1847.00, 
1848.00, 
1849.00, 
1850.00, 
1851.00, 
1852.00, 
1853.00, 
1854.00, 
1855.00, 
1856.00, 
1857.00, 
1858.00, 
1859.00, 
1860.00, 
1861.00, 
1862.00, 
1863.00, 
1864.00, 
1865.00, 
1866.00, 
1867.00, 
1868.00, 
1869.00, 
1870.00, 
1871.00, 
1872.00, 
1873.00, 
1874.00, 
1875.00, 
1876.00, 
1877.00, 
1878.00, 
1879.00, 
1880.00, 
1881.00, 
1882.00, 
1883.00, 
1884.00, 
1885.00, 
1886.00, 
1887.00, 
1888.00, 
1889.00, 
1890.00, 
1891.00, 
1892.00, 
1893.00, 
1894.00, 
1895.00, 
1896.00, 
1897.00, 
1898.00, 
1899.00, 
1900.00, 
1901.00, 
1902.00, 
1903.00, 
1904.00, 
1905.00, 
1906.00, 
1907.00, 
1908.00, 
1909.00, 
1910.00, 
1911.00, 
1912.00, 
1913.00, 
1914.00, 
1915.00, 
1916.00, 
1917.00, 
1918.00, 
1919.00, 
1920.00, 
1921.00, 
1922.00, 
1923.00, 
1924.00, 
1925.00, 
1926.00, 
1927.00, 
1928.00, 
1929.00, 
1930.00, 
1931.00, 
1932.00, 
1933.00, 
1934.00, 
1935.00, 
1936.00, 
1937.00, 
1938.00, 
1939.00, 
1940.00, 
1941.00, 
1942.00, 
1943.00, 
1944.00, 
1945.00, 
1946.00, 
1947.00, 
1948.00, 
1949.00, 
1950.00, 
1951.00, 
1952.00, 
1953.00, 
1954.00, 
1955.00, 
1956.00, 
1957.00, 
1958.00, 
1959.00, 
1960.00, 
1961.00, 
1962.00, 
1963.00, 
1964.00, 
1965.00, 
1966.00, 
1967.00, 
1968.00, 
1969.00, 
1970.00, 
1971.00, 
1972.00, 
1973.00, 
1974.00, 
1975.00, 
1976.00, 
1977.00, 
1978.00, 
1979.00, 
1980.00, 
1981.00, 
1982.00, 
1983.00, 
1984.00, 
1985.00, 
1986.00, 
1987.00, 
1988.00, 
1989.00, 
1990.00, 
1991.00, 
1992.00, 
1993.00, 
1994.00, 
1995.00, 
1996.00, 
1997.00, 
1998.00, 
1999.00, 
2000.00, 
2001.00, 
2002.00, 
2003.00, 
2004.00, 
2005.00, 
2006.00, 
2007.00, 
2008.00, 
2009.00, 
2010.00, 
2011.00, 
2012.00, 
2013.00, 
2014.00, 
2015.00, 
2016.00, 
2017.00, 
2018.00, 
2019.00, 
2020.00, 
2021.00, 
2022.00, 
2023.00, 
2024.00, 
2025.00, 
2026.00, 
2027.00, 
2028.00, 
2029.00, 
2030.00, 
2031.00, 
2032.00, 
2033.00, 
2034.00, 
2035.00, 
2036.00, 
2037.00, 
2038.00, 
2039.00, 
2040.00, 
2041.00, 
2042.00, 
2043.00, 
2044.00, 
2045.00, 
2046.00, 
2047.00, 
2048.00, 
2049.00, 
2050.00, 
2051.00, 
2052.00, 
2053.00, 
2054.00, 
2055.00, 
2056.00, 
2057.00, 
2058.00, 
2059.00, 
2060.00, 
2061.00, 
2062.00, 
2063.00, 
2064.00, 
2065.00, 
2066.00, 
2067.00, 
2068.00, 
2069.00, 
2070.00, 
2071.00, 
2072.00, 
2073.00, 
2074.00, 
2075.00, 
2076.00, 
2077.00, 
2078.00, 
2079.00, 
2080.00, 
2081.00, 
2082.00, 
2083.00, 
2084.00, 
2085.00, 
2086.00, 
2087.00, 
2088.00, 
2089.00, 
2090.00, 
2091.00, 
2092.00, 
2093.00, 
2094.00, 
2095.00, 
2096.00, 
2097.00, 
2098.00, 
2099.00, 
2100.00, 
2101.00, 
2102.00, 
2103.00, 
2104.00, 
2105.00, 
2106.00, 
2107.00, 
2108.00, 
2109.00, 
2110.00, 
2111.00, 
2112.00, 
2113.00, 
2114.00, 
2115.00, 
2116.00, 
2117.00, 
2118.00, 
2119.00, 
2120.00, 
2121.00, 
2122.00, 
2123.00, 
2124.00, 
2125.00, 
2126.00, 
2127.00, 
2128.00, 
2129.00, 
2130.00, 
2131.00, 
2132.00, 
2133.00, 
2134.00, 
2135.00, 
2136.00, 
2137.00, 
2138.00, 
2139.00, 
2140.00, 
2141.00, 
2142.00, 
2143.00, 
2144.00, 
2145.00, 
2146.00, 
2147.00, 
2148.00, 
2149.00, 
2150.00, 
2151.00, 
2152.00, 
2153.00, 
2154.00, 
2155.00, 
2156.00, 
2157.00, 
2158.00, 
2159.00, 
2160.00, 
2161.00, 
2162.00, 
2163.00, 
2164.00, 
2165.00, 
2166.00, 
2167.00, 
2168.00, 
2169.00, 
2170.00, 
2171.00, 
2172.00, 
2173.00, 
2174.00, 
2175.00, 
2176.00, 
2177.00, 
2178.00, 
2179.00, 
2180.00, 
2181.00, 
2182.00, 
2183.00, 
2184.00, 
2185.00, 
2186.00, 
2187.00, 
2188.00, 
2189.00, 
2190.00, 
2191.00, 
2192.00, 
2193.00, 
2194.00, 
2195.00, 
2196.00, 
2197.00, 
2198.00, 
2199.00, 
2200.00, 
2201.00, 
2202.00, 
2203.00, 
2204.00, 
2205.00, 
2206.00, 
2207.00, 
2208.00, 
2209.00, 
2210.00, 
2211.00, 
2212.00, 
2213.00, 
2214.00, 
2215.00, 
2216.00, 
2217.00, 
2218.00, 
2219.00, 
2220.00, 
2221.00, 
2222.00, 
2223.00, 
2224.00, 
2225.00, 
2226.00, 
2227.00, 
2228.00, 
2229.00, 
2230.00, 
2231.00, 
2232.00, 
2233.00, 
2234.00, 
2235.00, 
2236.00, 
2237.00, 
2238.00, 
2239.00, 
2240.00, 
2241.00, 
2242.00, 
2243.00, 
2244.00, 
2245.00, 
2246.00, 
2247.00, 
2248.00, 
2249.00, 
2250.00, 
2251.00, 
2252.00, 
2253.00, 
2254.00, 
2255.00, 
2256.00, 
2257.00, 
2258.00, 
2259.00, 
2260.00, 
2261.00, 
2262.00, 
2263.00, 
2264.00, 
2265.00, 
2266.00, 
2267.00, 
2268.00, 
2269.00, 
2270.00, 
2271.00, 
2272.00, 
2273.00, 
2274.00, 
2275.00, 
2276.00, 
2277.00, 
2278.00, 
2279.00, 
2280.00, 
2281.00, 
2282.00, 
2283.00, 
2284.00, 
2285.00, 
2286.00, 
2287.00, 
2288.00, 
2289.00, 
2290.00, 
2291.00, 
2292.00, 
2293.00, 
2294.00, 
2295.00, 
2296.00, 
2297.00, 
2298.00, 
2299.00, 
2300.00, 
2301.00, 
2302.00, 
2303.00, 
2304.00, 
2305.00, 
2306.00, 
2307.00, 
2308.00, 
2309.00, 
2310.00, 
2311.00, 
2312.00, 
2313.00, 
2314.00, 
2315.00, 
2316.00, 
2317.00, 
2318.00, 
2319.00, 
2320.00, 
2321.00, 
2322.00, 
2323.00, 
2324.00, 
2325.00, 
2326.00, 
2327.00, 
2328.00, 
2329.00, 
2330.00, 
2331.00, 
2332.00, 
2333.00, 
2334.00, 
2335.00, 
2336.00, 
2337.00, 
2338.00, 
2339.00, 
2340.00, 
2341.00, 
2342.00, 
2343.00, 
2344.00, 
2345.00, 
2346.00, 
2347.00, 
2348.00, 
2349.00, 
2350.00, 
2351.00, 
2352.00, 
2353.00, 
2354.00, 
2355.00, 
2356.00, 
2357.00, 
2358.00, 
2359.00, 
2360.00, 
2361.00, 
2362.00, 
2363.00, 
2364.00, 
2365.00, 
2366.00, 
2367.00, 
2368.00, 
2369.00, 
2370.00, 
2371.00, 
2372.00, 
2373.00, 
2374.00, 
2375.00, 
2376.00, 
2377.00, 
2378.00, 
2379.00, 
2380.00, 
2381.00, 
2382.00, 
2383.00, 
2384.00, 
2385.00, 
2386.00, 
2387.00, 
2388.00, 
2389.00, 
2390.00, 
2391.00, 
2392.00, 
2393.00, 
2394.00, 
2395.00, 
2396.00, 
2397.00, 
2398.00, 
2399.00, 
2400.00, 
2401.00, 
2402.00, 
2403.00, 
2404.00, 
2405.00, 
2406.00, 
2407.00, 
2408.00, 
2409.00, 
2410.00, 
2411.00, 
2412.00, 
2413.00, 
2414.00, 
2415.00, 
2416.00, 
2417.00, 
2418.00, 
2419.00, 
2420.00, 
2421.00, 
2422.00, 
2423.00, 
2424.00, 
2425.00, 
2426.00, 
2427.00, 
2428.00, 
2429.00, 
2430.00, 
2431.00, 
2432.00, 
2433.00, 
2434.00, 
2435.00, 
2436.00, 
2437.00, 
2438.00, 
2439.00, 
2440.00, 
2441.00, 
2442.00, 
2443.00, 
2444.00, 
2445.00, 
2446.00, 
2447.00, 
2448.00, 
2449.00, 
2450.00, 
2451.00, 
2452.00, 
2453.00, 
2454.00, 
2455.00, 
2456.00, 
2457.00, 
2458.00, 
2459.00, 
2460.00, 
2461.00, 
2462.00, 
2463.00, 
2464.00, 
2465.00, 
2466.00, 
2467.00, 
2468.00, 
2469.00, 
2470.00, 
2471.00, 
2472.00, 
2473.00, 
2474.00, 
2475.00, 
2476.00, 
2477.00, 
2478.00, 
2479.00, 
2480.00, 
2481.00, 
2482.00, 
2483.00, 
2484.00, 
2485.00, 
2486.00, 
2487.00, 
2488.00, 
2489.00, 
2490.00, 
2491.00, 
2492.00, 
2493.00, 
2494.00, 
2495.00, 
2496.00, 
2497.00, 
2498.00, 
2499.00, 
2500.00, 
2501.00, 
2502.00, 
2503.00, 
2504.00, 
2505.00, 
2506.00, 
2507.00, 
2508.00, 
2509.00, 
2510.00, 
2511.00, 
2512.00, 
2513.00, 
2514.00, 
2515.00, 
2516.00, 
2517.00, 
2518.00, 
2519.00, 
2520.00, 
2521.00, 
2522.00, 
2523.00, 
2524.00, 
2525.00, 
2526.00, 
2527.00, 
2528.00, 
2529.00, 
2530.00, 
2531.00, 
2532.00, 
2533.00, 
2534.00, 
2535.00, 
2536.00, 
2537.00, 
2538.00, 
2539.00, 
2540.00, 
2541.00, 
2542.00, 
2543.00, 
2544.00, 
2545.00, 
2546.00, 
2547.00, 
2548.00, 
2549.00, 
2550.00, 
2551.00, 
2552.00, 
2553.00, 
2554.00, 
2555.00, 
2556.00, 
2557.00, 
2558.00, 
2559.00, 
2560.00, 
2561.00, 
2562.00, 
2563.00, 
2564.00, 
2565.00, 
2566.00, 
2567.00, 
2568.00, 
2569.00, 
2570.00, 
2571.00, 
2572.00, 
2573.00, 
2574.00, 
2575.00, 
2576.00, 
2577.00, 
2578.00, 
2579.00, 
2580.00, 
2581.00, 
2582.00, 
2583.00, 
2584.00, 
2585.00, 
2586.00, 
2587.00, 
2588.00, 
2589.00, 
2590.00, 
2591.00, 
2592.00, 
2593.00, 
2594.00, 
2595.00, 
2596.00, 
2597.00, 
2598.00, 
2599.00, 
2600.00, 
