"1cP3 - RawData"
"Wavelength nm.","T%"
200.00,0.001
201.00,0.002
202.00,-0.001
203.00,-0.002
204.00,0.003
205.00,0.000
206.00,0.002
207.00,0.002
208.00,0.002
209.00,0.002
210.00,-0.003
211.00,0.003
212.00,0.001
213.00,0.001
214.00,-0.001
215.00,0.006
216.00,-0.000
217.00,0.001
218.00,0.001
219.00,0.001
220.00,0.001
221.00,0.002
222.00,0.003
223.00,0.001
224.00,0.002
225.00,0.002
226.00,0.001
227.00,0.002
228.00,0.003
229.00,0.002
230.00,-0.002
231.00,-0.002
232.00,-0.001
233.00,-0.001
234.00,-0.000
235.00,-0.000
236.00,-0.000
237.00,-0.001
238.00,0.001
239.00,-0.002
240.00,-0.000
241.00,-0.001
242.00,0.002
243.00,0.001
244.00,-0.001
245.00,-0.001
246.00,0.000
247.00,0.001
248.00,0.000
249.00,-0.000
250.00,0.000
251.00,0.001
252.00,-0.000
253.00,0.002
254.00,-0.000
255.00,0.001
256.00,-0.000
257.00,0.000
258.00,0.000
259.00,0.002
260.00,0.000
261.00,0.002
262.00,-0.000
263.00,0.001
264.00,0.000
265.00,0.002
266.00,-0.002
267.00,-0.000
268.00,0.000
269.00,0.002
270.00,-0.000
271.00,-0.001
272.00,-0.001
273.00,0.001
274.00,0.002
275.00,-0.000
276.00,-0.000
277.00,0.002
278.00,-0.001
279.00,-0.000
280.00,0.002
281.00,0.001
282.00,-0.000
283.00,0.001
284.00,0.000
285.00,0.001
286.00,0.001
287.00,0.001
288.00,-0.001
289.00,0.002
290.00,-0.001
291.00,-0.000
292.00,0.001
293.00,-0.001
294.00,0.000
295.00,0.002
296.00,0.001
297.00,0.000
298.00,0.000
299.00,0.002
300.00,0.000
301.00,0.002
302.00,-0.001
303.00,0.000
304.00,0.002
305.00,0.001
306.00,0.003
307.00,0.003
308.00,0.008
309.00,0.014
310.00,0.020
311.00,0.032
312.00,0.048
313.00,0.075
314.00,0.117
315.00,0.177
316.00,0.247
317.00,0.352
318.00,0.483
319.00,0.652
320.00,0.858
321.00,1.126
322.00,1.432
323.00,1.812
324.00,2.242
325.00,2.717
326.00,3.222
327.00,3.832
328.00,4.467
329.00,5.157
330.00,5.923
331.00,6.691
332.00,7.540
333.00,8.440
334.00,9.296
335.00,10.250
336.00,11.221
337.00,12.181
338.00,13.098
339.00,13.932
340.00,14.858
341.00,15.894
342.00,16.769
343.00,17.641
344.00,18.484
345.00,19.356
346.00,20.066
347.00,20.763
348.00,21.475
349.00,22.163
350.00,22.789
351.00,23.383
352.00,23.923
353.00,24.446
354.00,24.946
355.00,25.429
356.00,25.881
357.00,26.234
358.00,26.640
359.00,27.130
360.00,27.519
361.00,27.714
362.00,28.009
363.00,28.318
364.00,28.468
365.00,28.748
366.00,28.794
367.00,29.059
368.00,29.174
369.00,29.263
370.00,29.465
371.00,29.520
372.00,29.510
373.00,29.482
374.00,29.560
375.00,29.550
376.00,29.504
377.00,29.316
378.00,29.292
379.00,29.162
380.00,29.184
381.00,29.210
382.00,29.247
383.00,29.326
384.00,29.417
385.00,29.548
386.00,29.658
387.00,29.793
388.00,29.924
389.00,30.013
390.00,30.103
391.00,30.196
392.00,30.331
393.00,30.443
394.00,30.376
395.00,30.490
396.00,30.476
397.00,30.512
398.00,30.537
399.00,30.566
400.00,30.622
401.00,30.624
402.00,30.645
403.00,30.634
404.00,30.672
405.00,30.615
406.00,30.570
407.00,30.578
408.00,30.592
409.00,30.504
410.00,30.448
411.00,30.466
412.00,30.430
413.00,30.411
414.00,30.357
415.00,30.353
416.00,30.440
417.00,30.388
418.00,30.441
419.00,30.521
420.00,30.584
421.00,30.512
422.00,30.543
423.00,30.608
424.00,30.663
425.00,30.657
426.00,30.696
427.00,30.734
428.00,30.784
429.00,30.752
430.00,30.887
431.00,30.939
432.00,30.916
433.00,30.921
434.00,30.945
435.00,31.039
436.00,31.046
437.00,31.184
438.00,31.207
439.00,31.299
440.00,31.356
441.00,31.397
442.00,31.489
443.00,31.504
444.00,31.623
445.00,31.703
446.00,31.774
447.00,31.886
448.00,31.939
449.00,32.067
450.00,32.142
451.00,32.210
452.00,32.301
453.00,32.417
454.00,32.488
455.00,32.577
456.00,32.717
457.00,32.757
458.00,32.872
459.00,32.991
460.00,33.118
461.00,33.257
462.00,33.326
463.00,33.444
464.00,33.540
465.00,33.657
466.00,33.812
467.00,33.885
468.00,33.930
469.00,34.052
470.00,34.093
471.00,34.191
472.00,34.287
473.00,34.359
474.00,34.421
475.00,34.523
476.00,34.606
477.00,34.688
478.00,34.810
479.00,34.959
480.00,35.034
481.00,35.117
482.00,35.257
483.00,35.439
484.00,35.597
485.00,35.680
486.00,35.803
487.00,35.978
488.00,36.075
489.00,36.241
490.00,36.354
491.00,36.497
492.00,36.714
493.00,36.817
494.00,36.731
495.00,36.886
496.00,36.985
497.00,37.089
498.00,37.208
499.00,37.330
500.00,37.470
501.00,37.524
502.00,37.574
503.00,37.822
504.00,37.794
505.00,37.884
506.00,38.009
507.00,38.085
508.00,38.217
509.00,38.364
510.00,38.472
511.00,38.520
512.00,38.719
513.00,38.867
514.00,38.922
515.00,39.028
516.00,39.096
517.00,39.222
518.00,39.319
519.00,39.351
520.00,39.408
521.00,39.500
522.00,39.530
523.00,39.623
524.00,39.683
525.00,39.810
526.00,39.902
527.00,39.950
528.00,40.027
529.00,40.194
530.00,40.347
531.00,40.441
532.00,40.463
533.00,40.593
534.00,40.641
535.00,40.697
536.00,40.857
537.00,40.866
538.00,40.938
539.00,40.982
540.00,41.074
541.00,41.128
542.00,41.180
543.00,41.224
544.00,41.314
545.00,41.388
546.00,41.386
547.00,41.507
548.00,41.633
549.00,41.651
550.00,41.726
551.00,41.835
552.00,41.882
553.00,41.972
554.00,42.033
555.00,41.993
556.00,42.135
557.00,42.150
558.00,42.205
559.00,42.305
560.00,42.369
561.00,42.431
562.00,42.513
563.00,42.529
564.00,42.580
565.00,42.550
566.00,42.552
567.00,42.555
568.00,42.656
569.00,42.741
570.00,42.789
571.00,42.815
572.00,42.814
573.00,42.801
574.00,42.858
575.00,42.865
576.00,42.847
577.00,42.883
578.00,43.016
579.00,43.065
580.00,43.087
581.00,43.249
582.00,43.332
583.00,43.302
584.00,43.418
585.00,43.469
586.00,43.542
587.00,43.590
588.00,43.618
589.00,43.536
590.00,43.622
591.00,43.723
592.00,43.621
593.00,43.720
594.00,43.809
595.00,43.774
596.00,43.872
597.00,44.122
598.00,44.052
599.00,44.005
600.00,44.080
601.00,44.114
602.00,44.116
603.00,44.115
604.00,44.226
605.00,44.276
606.00,44.237
607.00,44.244
608.00,44.450
609.00,44.525
610.00,44.362
611.00,44.441
612.00,44.444
613.00,44.440
614.00,44.498
615.00,44.638
616.00,44.689
617.00,44.659
618.00,44.609
619.00,44.711
620.00,44.766
621.00,44.800
622.00,44.778
623.00,44.935
624.00,44.995
625.00,44.985
626.00,45.056
627.00,45.103
628.00,45.019
629.00,45.115
630.00,45.195
631.00,45.123
632.00,45.283
633.00,45.343
634.00,45.405
635.00,45.445
636.00,45.455
637.00,45.391
638.00,45.353
639.00,45.741
640.00,45.723
641.00,45.589
642.00,45.697
643.00,45.814
644.00,45.802
645.00,45.855
646.00,45.974
647.00,45.892
648.00,46.024
649.00,46.030
650.00,45.993
651.00,46.116
652.00,46.245
653.00,46.297
654.00,46.256
655.00,46.443
656.00,46.706
657.00,46.463
658.00,46.484
659.00,46.554
660.00,46.593
661.00,46.586
662.00,46.651
663.00,46.758
664.00,46.930
665.00,47.112
666.00,47.012
667.00,47.002
668.00,46.963
669.00,47.257
670.00,47.459
671.00,47.166
672.00,47.326
673.00,47.448
674.00,47.392
675.00,47.429
676.00,47.715
677.00,47.810
678.00,47.461
679.00,47.663
680.00,47.760
681.00,47.814
682.00,47.865
683.00,47.789
684.00,47.998
685.00,48.028
686.00,47.939
687.00,47.993
688.00,47.973
689.00,47.904
690.00,48.265
691.00,48.535
692.00,48.280
693.00,48.269
694.00,48.410
695.00,48.465
696.00,48.538
697.00,48.366
698.00,48.355
699.00,48.640
700.00,48.827
701.00,48.654
702.00,48.730
703.00,48.885
704.00,48.828
705.00,48.824
706.00,48.950
707.00,48.930
708.00,48.798
709.00,49.100
710.00,49.503
711.00,48.879
712.00,49.016
713.00,49.028
714.00,49.206
715.00,49.130
716.00,49.083
717.00,49.252
718.00,49.329
719.00,49.160
720.00,49.136
721.00,54.096
722.00,53.931
723.00,54.031
724.00,53.963
725.00,53.905
726.00,53.921
727.00,53.905
728.00,53.893
729.00,53.865
730.00,53.958
731.00,53.899
732.00,53.816
733.00,53.904
734.00,53.909
735.00,53.930
736.00,53.911
737.00,53.861
738.00,53.893
739.00,53.903
740.00,53.894
741.00,53.995
742.00,53.917
743.00,53.846
744.00,53.881
745.00,53.804
746.00,53.900
747.00,53.823
748.00,53.687
749.00,53.701
750.00,53.681
751.00,53.583
752.00,53.661
753.00,53.625
754.00,53.612
755.00,53.686
756.00,53.560
757.00,53.613
758.00,53.517
759.00,53.550
760.00,53.530
761.00,53.506
762.00,53.444
763.00,53.531
764.00,53.485
765.00,53.465
766.00,53.484
767.00,53.505
768.00,53.483
769.00,53.438
770.00,53.396
771.00,53.405
772.00,53.371
773.00,53.392
774.00,53.390
775.00,53.381
776.00,53.409
777.00,53.371
778.00,53.279
779.00,53.412
780.00,53.281
781.00,53.344
782.00,53.323
783.00,53.188
784.00,53.341
785.00,53.068
786.00,53.234
787.00,53.179
788.00,53.138
789.00,53.150
790.00,53.079
791.00,53.098
792.00,53.026
793.00,53.009
794.00,53.018
795.00,52.998
796.00,53.013
797.00,52.862
798.00,53.008
799.00,52.859
800.00,52.881
801.00,52.825
802.00,52.806
803.00,52.734
804.00,52.738
805.00,52.743
806.00,52.661
807.00,52.608
808.00,52.664
809.00,52.641
810.00,52.591
811.00,52.550
812.00,52.621
813.00,52.602
814.00,52.549
815.00,52.501
816.00,52.570
817.00,52.467
818.00,52.288
819.00,52.370
820.00,52.328
821.00,52.385
822.00,52.321
823.00,52.204
824.00,52.301
825.00,52.274
826.00,52.271
827.00,52.250
828.00,52.296
829.00,52.218
830.00,52.122
831.00,54.564
832.00,54.537
833.00,54.441
834.00,54.510
835.00,54.422
836.00,54.452
837.00,54.380
838.00,54.383
839.00,54.355
840.00,54.281
841.00,54.322
842.00,54.278
843.00,54.257
844.00,54.225
845.00,54.175
846.00,54.217
847.00,54.117
848.00,54.037
849.00,54.077
850.00,54.047
851.00,53.978
852.00,54.010
853.00,53.907
854.00,53.840
855.00,53.946
856.00,53.825
857.00,53.809
858.00,53.789
859.00,53.761
860.00,53.733
861.00,53.714
862.00,53.673
863.00,53.703
864.00,53.607
865.00,53.644
866.00,53.586
867.00,53.612
868.00,53.605
869.00,53.555
870.00,53.591
871.00,53.551
872.00,53.540
873.00,53.514
874.00,53.529
875.00,53.475
876.00,53.499
877.00,53.458
878.00,53.465
879.00,53.411
880.00,53.425
881.00,53.353
882.00,53.372
883.00,53.348
884.00,53.284
885.00,53.292
886.00,53.297
887.00,53.243
888.00,53.212
889.00,53.199
890.00,53.216
891.00,53.195
892.00,53.163
893.00,53.127
894.00,53.135
895.00,53.079
896.00,53.073
897.00,53.036
898.00,52.992
899.00,53.053
900.00,52.978
901.00,52.929
902.00,52.967
903.00,52.912
904.00,52.882
905.00,52.884
906.00,52.877
907.00,52.825
908.00,52.808
909.00,52.790
910.00,52.767
911.00,52.738
912.00,52.739
913.00,52.685
914.00,52.694
915.00,52.666
916.00,52.614
917.00,52.606
918.00,52.613
919.00,52.563
920.00,52.531
921.00,52.543
922.00,52.533
923.00,52.495
924.00,52.459
925.00,52.472
926.00,52.466
927.00,52.412
928.00,52.378
929.00,52.396
930.00,52.364
931.00,52.347
932.00,52.292
933.00,52.292
934.00,52.285
935.00,52.233
936.00,52.206
937.00,52.212
938.00,52.201
939.00,52.168
940.00,52.230
941.00,52.141
942.00,52.138
943.00,52.118
944.00,52.051
945.00,52.074
946.00,52.076
947.00,52.015
948.00,52.014
949.00,51.970
950.00,51.942
951.00,51.930
952.00,51.896
953.00,51.884
954.00,51.830
955.00,51.789
956.00,51.847
957.00,51.766
958.00,51.768
959.00,51.728
960.00,51.720
961.00,51.692
962.00,51.707
963.00,51.642
964.00,51.649
965.00,51.661
966.00,51.630
967.00,51.625
968.00,51.589
969.00,51.641
970.00,51.583
971.00,51.594
972.00,51.550
973.00,51.598
974.00,51.582
975.00,51.569
976.00,51.602
977.00,51.567
978.00,51.618
979.00,51.564
980.00,51.571
981.00,51.582
982.00,51.526
983.00,51.559
984.00,51.514
985.00,51.532
986.00,51.503
987.00,51.538
988.00,51.485
989.00,51.471
990.00,51.483
991.00,51.438
992.00,51.470
993.00,51.420
994.00,51.413
995.00,51.419
996.00,51.395
997.00,51.402
998.00,51.378
999.00,51.370
1000.00,51.305
1001.00,51.322
1002.00,51.315
1003.00,51.323
1004.00,51.309
1005.00,51.263
1006.00,51.308
1007.00,51.250
1008.00,51.257
1009.00,51.236
1010.00,51.228
1011.00,51.224
1012.00,51.176
1013.00,51.170
1014.00,51.154
1015.00,51.147
1016.00,51.103
1017.00,51.121
1018.00,51.114
1019.00,51.082
1020.00,51.095
1021.00,51.047
1022.00,51.056
1023.00,51.017
1024.00,51.011
1025.00,50.997
1026.00,50.991
1027.00,50.973
1028.00,50.958
1029.00,50.947
1030.00,50.925
1031.00,50.929
1032.00,50.875
1033.00,50.890
1034.00,50.861
1035.00,50.802
1036.00,50.792
1037.00,50.776
1038.00,50.766
1039.00,50.734
1040.00,50.725
1041.00,50.712
1042.00,50.700
1043.00,50.669
1044.00,50.710
1045.00,50.691
1046.00,50.670
1047.00,50.700
1048.00,50.705
1049.00,50.711
1050.00,50.717
1051.00,50.750
1052.00,50.739
1053.00,50.740
1054.00,50.727
1055.00,50.770
1056.00,50.784
1057.00,50.761
1058.00,50.756
1059.00,50.760
1060.00,50.760
1061.00,50.749
1062.00,50.743
1063.00,50.758
1064.00,50.754
1065.00,50.732
1066.00,50.726
1067.00,50.721
1068.00,50.730
1069.00,50.695
1070.00,50.681
1071.00,50.666
1072.00,50.684
1073.00,50.648
1074.00,50.660
1075.00,50.652
1076.00,50.633
1077.00,50.621
1078.00,50.624
1079.00,50.605
1080.00,50.612
1081.00,50.589
1082.00,50.590
1083.00,50.590
1084.00,50.582
1085.00,50.600
1086.00,50.590
1087.00,50.565
1088.00,50.561
1089.00,50.546
1090.00,50.529
1091.00,50.562
1092.00,50.536
1093.00,50.516
1094.00,50.502
1095.00,50.487
1096.00,50.466
1097.00,50.466
1098.00,50.449
1099.00,50.454
1100.00,50.442
1101.00,50.427
1102.00,50.424
1103.00,50.434
1104.00,50.403
1105.00,50.402
1106.00,50.373
1107.00,50.396
1108.00,50.375
1109.00,50.362
1110.00,50.363
1111.00,50.333
1112.00,50.307
1113.00,50.339
1114.00,50.322
1115.00,50.319
1116.00,50.321
1117.00,50.303
1118.00,50.301
1119.00,50.302
1120.00,50.296
1121.00,50.308
1122.00,50.270
1123.00,50.260
1124.00,50.283
1125.00,50.286
1126.00,50.265
1127.00,50.264
1128.00,50.242
1129.00,50.233
1130.00,50.215
1131.00,50.207
1132.00,50.213
1133.00,50.222
1134.00,50.214
1135.00,50.204
1136.00,50.197
1137.00,50.194
1138.00,50.183
1139.00,50.197
1140.00,50.185
1141.00,50.162
1142.00,50.176
1143.00,50.189
1144.00,50.155
1145.00,50.147
1146.00,50.160
1147.00,50.142
1148.00,50.136
1149.00,50.152
1150.00,50.133
1151.00,50.154
1152.00,50.139
1153.00,50.120
1154.00,50.126
1155.00,50.136
1156.00,50.103
1157.00,50.120
1158.00,50.120
1159.00,50.109
1160.00,50.108
1161.00,50.128
1162.00,50.131
1163.00,50.114
1164.00,50.110
1165.00,50.121
1166.00,50.118
1167.00,50.083
1168.00,50.130
1169.00,50.112
1170.00,50.108
1171.00,50.090
1172.00,50.087
1173.00,50.095
1174.00,50.095
1175.00,50.103
1176.00,50.096
1177.00,50.086
1178.00,50.077
1179.00,50.103
1180.00,50.084
1181.00,50.093
1182.00,50.117
1183.00,50.072
1184.00,50.089
1185.00,50.121
1186.00,50.076
1187.00,50.094
1188.00,50.088
1189.00,50.076
1190.00,50.074
1191.00,50.067
1192.00,50.090
1193.00,50.078
1194.00,50.079
1195.00,50.063
1196.00,50.107
1197.00,50.096
1198.00,50.093
1199.00,50.109
1200.00,50.100
1201.00,50.113
1202.00,50.087
1203.00,50.082
1204.00,50.064
1205.00,50.068
1206.00,50.067
1207.00,50.075
1208.00,50.037
1209.00,50.067
1210.00,50.083
1211.00,50.060
1212.00,50.102
1213.00,50.055
1214.00,50.060
1215.00,50.067
1216.00,50.050
1217.00,50.079
1218.00,50.079
1219.00,50.086
1220.00,50.073
1221.00,50.094
1222.00,50.082
1223.00,50.127
1224.00,50.110
1225.00,50.088
1226.00,50.094
1227.00,50.068
1228.00,50.096
1229.00,50.099
1230.00,50.116
1231.00,50.138
1232.00,50.147
1233.00,50.133
1234.00,50.147
1235.00,50.135
1236.00,50.131
1237.00,50.149
1238.00,50.145
1239.00,50.167
1240.00,50.157
1241.00,50.161
1242.00,50.179
1243.00,50.184
1244.00,50.155
1245.00,50.226
1246.00,50.218
1247.00,50.179
1248.00,50.176
1249.00,50.178
1250.00,50.217
1251.00,50.198
1252.00,50.199
1253.00,50.207
1254.00,50.224
1255.00,50.187
1256.00,50.182
1257.00,50.193
1258.00,50.247
1259.00,50.261
1260.00,50.248
1261.00,50.266
1262.00,50.261
1263.00,50.245
1264.00,50.264
1265.00,50.261
1266.00,50.245
1267.00,50.278
1268.00,50.278
1269.00,50.284
1270.00,50.309
1271.00,50.304
1272.00,50.318
1273.00,50.337
1274.00,50.317
1275.00,50.332
1276.00,50.333
1277.00,50.338
1278.00,50.362
1279.00,50.346
1280.00,50.339
1281.00,50.369
1282.00,50.358
1283.00,50.361
1284.00,50.367
1285.00,50.370
1286.00,50.398
1287.00,50.392
1288.00,50.393
1289.00,50.386
1290.00,50.422
1291.00,50.416
1292.00,50.421
1293.00,50.414
1294.00,50.445
1295.00,50.458
1296.00,50.448
1297.00,50.475
1298.00,50.511
1299.00,50.482
1300.00,50.513
1301.00,50.498
1302.00,50.516
1303.00,50.504
1304.00,50.490
1305.00,50.523
1306.00,50.527
1307.00,50.541
1308.00,50.544
1309.00,50.552
1310.00,50.529
1311.00,50.537
1312.00,50.554
1313.00,50.565
1314.00,50.593
1315.00,50.606
1316.00,50.614
1317.00,50.636
1318.00,50.638
1319.00,50.636
1320.00,50.645
1321.00,50.795
1322.00,50.799
1323.00,50.789
1324.00,50.752
1325.00,50.763
1326.00,50.802
1327.00,50.768
1328.00,50.799
1329.00,50.787
1330.00,50.792
1331.00,50.819
1332.00,50.804
1333.00,50.838
1334.00,50.844
1335.00,50.869
1336.00,50.940
1337.00,50.920
1338.00,50.985
1339.00,51.026
1340.00,51.091
1341.00,51.157
1342.00,51.204
1343.00,51.257
1344.00,51.311
1345.00,51.367
1346.00,51.409
1347.00,51.426
1348.00,51.450
1349.00,51.465
1350.00,51.511
1351.00,51.487
1352.00,51.532
1353.00,51.560
1354.00,51.550
1355.00,51.520
1356.00,51.570
1357.00,51.550
1358.00,51.569
1359.00,51.575
1360.00,51.571
1361.00,51.670
1362.00,51.511
1363.00,51.670
1364.00,51.672
1365.00,51.587
1366.00,51.701
1367.00,51.609
1368.00,51.575
1369.00,51.634
1370.00,51.602
1371.00,51.577
1372.00,51.585
1373.00,51.634
1374.00,51.629
1375.00,51.621
1376.00,51.629
1377.00,51.591
1378.00,51.648
1379.00,51.623
1380.00,51.642
1381.00,51.630
1382.00,51.592
1383.00,51.657
1384.00,51.694
1385.00,51.704
1386.00,51.655
1387.00,51.605
1388.00,51.605
1389.00,51.575
1390.00,51.562
1391.00,51.595
1392.00,51.608
1393.00,51.649
1394.00,51.668
1395.00,51.561
1396.00,51.557
1397.00,51.627
1398.00,51.624
1399.00,51.648
1400.00,51.573
1401.00,51.576
1402.00,51.665
1403.00,51.642
1404.00,51.621
1405.00,51.679
1406.00,51.688
1407.00,51.665
1408.00,51.661
1409.00,51.675
1410.00,51.712
1411.00,51.729
1412.00,51.785
1413.00,51.741
1414.00,51.685
1415.00,51.728
1416.00,51.778
1417.00,51.805
1418.00,51.774
1419.00,51.790
1420.00,51.795
1421.00,51.851
1422.00,51.867
1423.00,51.889
1424.00,51.886
1425.00,51.888
1426.00,51.890
1427.00,51.933
1428.00,51.905
1429.00,51.936
1430.00,51.968
1431.00,51.962
1432.00,52.001
1433.00,52.029
1434.00,51.998
1435.00,52.073
1436.00,52.083
1437.00,52.046
1438.00,52.077
1439.00,52.129
1440.00,52.142
1441.00,52.164
1442.00,52.162
1443.00,52.204
1444.00,52.306
1445.00,52.210
1446.00,52.260
1447.00,52.270
1448.00,52.296
1449.00,52.321
1450.00,52.333
1451.00,52.338
1452.00,52.347
1453.00,52.371
1454.00,52.423
1455.00,52.390
1456.00,52.388
1457.00,52.419
1458.00,52.432
1459.00,52.456
1460.00,52.513
1461.00,52.477
1462.00,52.537
1463.00,52.540
1464.00,52.540
1465.00,52.570
1466.00,52.585
1467.00,52.608
1468.00,52.662
1469.00,52.642
1470.00,52.655
1471.00,52.686
1472.00,52.681
1473.00,52.721
1474.00,52.770
1475.00,52.740
1476.00,52.766
1477.00,52.764
1478.00,52.780
1479.00,52.817
1480.00,52.804
1481.00,52.808
1482.00,52.846
1483.00,52.864
1484.00,52.897
1485.00,52.892
1486.00,52.910
1487.00,52.944
1488.00,52.982
1489.00,52.963
1490.00,52.976
1491.00,52.996
1492.00,53.003
1493.00,53.000
1494.00,53.041
1495.00,53.035
1496.00,53.060
1497.00,53.037
1498.00,53.075
1499.00,53.074
1500.00,53.086
1501.00, 
1502.00, 
1503.00, 
1504.00, 
1505.00, 
1506.00, 
1507.00, 
1508.00, 
1509.00, 
1510.00, 
1511.00, 
1512.00, 
1513.00, 
1514.00, 
1515.00, 
1516.00, 
1517.00, 
1518.00, 
1519.00, 
1520.00, 
1521.00, 
1522.00, 
1523.00, 
1524.00, 
1525.00, 
1526.00, 
1527.00, 
1528.00, 
1529.00, 
1530.00, 
1531.00, 
1532.00, 
1533.00, 
1534.00, 
1535.00, 
1536.00, 
1537.00, 
1538.00, 
1539.00, 
1540.00, 
1541.00, 
1542.00, 
1543.00, 
1544.00, 
1545.00, 
1546.00, 
1547.00, 
1548.00, 
1549.00, 
1550.00, 
1551.00, 
1552.00, 
1553.00, 
1554.00, 
1555.00, 
1556.00, 
1557.00, 
1558.00, 
1559.00, 
1560.00, 
1561.00, 
1562.00, 
1563.00, 
1564.00, 
1565.00, 
1566.00, 
1567.00, 
1568.00, 
1569.00, 
1570.00, 
1571.00, 
1572.00, 
1573.00, 
1574.00, 
1575.00, 
1576.00, 
1577.00, 
1578.00, 
1579.00, 
1580.00, 
1581.00, 
1582.00, 
1583.00, 
1584.00, 
1585.00, 
1586.00, 
1587.00, 
1588.00, 
1589.00, 
1590.00, 
1591.00, 
1592.00, 
1593.00, 
1594.00, 
1595.00, 
1596.00, 
1597.00, 
1598.00, 
1599.00, 
1600.00, 
1601.00, 
1602.00, 
1603.00, 
1604.00, 
1605.00, 
1606.00, 
1607.00, 
1608.00, 
1609.00, 
1610.00, 
1611.00, 
1612.00, 
1613.00, 
1614.00, 
1615.00, 
1616.00, 
1617.00, 
1618.00, 
1619.00, 
1620.00, 
1621.00, 
1622.00, 
1623.00, 
1624.00, 
1625.00, 
1626.00, 
1627.00, 
1628.00, 
1629.00, 
1630.00, 
1631.00, 
1632.00, 
1633.00, 
1634.00, 
1635.00, 
1636.00, 
1637.00, 
1638.00, 
1639.00, 
1640.00, 
1641.00, 
1642.00, 
1643.00, 
1644.00, 
1645.00, 
1646.00, 
1647.00, 
1648.00, 
1649.00, 
1650.00, 
1651.00, 
1652.00, 
1653.00, 
1654.00, 
1655.00, 
1656.00, 
1657.00, 
1658.00, 
1659.00, 
1660.00, 
1661.00, 
1662.00, 
1663.00, 
1664.00, 
1665.00, 
1666.00, 
1667.00, 
1668.00, 
1669.00, 
1670.00, 
1671.00, 
1672.00, 
1673.00, 
1674.00, 
1675.00, 
1676.00, 
1677.00, 
1678.00, 
1679.00, 
1680.00, 
1681.00, 
1682.00, 
1683.00, 
1684.00, 
1685.00, 
1686.00, 
1687.00, 
1688.00, 
1689.00, 
1690.00, 
1691.00, 
1692.00, 
1693.00, 
1694.00, 
1695.00, 
1696.00, 
1697.00, 
1698.00, 
1699.00, 
1700.00, 
1701.00, 
1702.00, 
1703.00, 
1704.00, 
1705.00, 
1706.00, 
1707.00, 
1708.00, 
1709.00, 
1710.00, 
1711.00, 
1712.00, 
1713.00, 
1714.00, 
1715.00, 
1716.00, 
1717.00, 
1718.00, 
1719.00, 
1720.00, 
1721.00, 
1722.00, 
1723.00, 
1724.00, 
1725.00, 
1726.00, 
1727.00, 
1728.00, 
1729.00, 
1730.00, 
1731.00, 
1732.00, 
1733.00, 
1734.00, 
1735.00, 
1736.00, 
1737.00, 
1738.00, 
1739.00, 
1740.00, 
1741.00, 
1742.00, 
1743.00, 
1744.00, 
1745.00, 
1746.00, 
1747.00, 
1748.00, 
1749.00, 
1750.00, 
1751.00, 
1752.00, 
1753.00, 
1754.00, 
1755.00, 
1756.00, 
1757.00, 
1758.00, 
1759.00, 
1760.00, 
1761.00, 
1762.00, 
1763.00, 
1764.00, 
1765.00, 
1766.00, 
1767.00, 
1768.00, 
1769.00, 
1770.00, 
1771.00, 
1772.00, 
1773.00, 
1774.00, 
1775.00, 
1776.00, 
1777.00, 
1778.00, 
1779.00, 
1780.00, 
1781.00, 
1782.00, 
1783.00, 
1784.00, 
1785.00, 
1786.00, 
1787.00, 
1788.00, 
1789.00, 
1790.00, 
1791.00, 
1792.00, 
1793.00, 
1794.00, 
1795.00, 
1796.00, 
1797.00, 
1798.00, 
1799.00, 
1800.00, 
1801.00, 
1802.00, 
1803.00, 
1804.00, 
1805.00, 
1806.00, 
1807.00, 
1808.00, 
1809.00, 
1810.00, 
1811.00, 
1812.00, 
1813.00, 
1814.00, 
1815.00, 
1816.00, 
1817.00, 
1818.00, 
1819.00, 
1820.00, 
1821.00, 
1822.00, 
1823.00, 
1824.00, 
1825.00, 
1826.00, 
1827.00, 
1828.00, 
1829.00, 
1830.00, 
1831.00, 
1832.00, 
1833.00, 
1834.00, 
1835.00, 
1836.00, 
1837.00, 
1838.00, 
1839.00, 
1840.00, 
1841.00, 
1842.00, 
1843.00, 
1844.00, 
1845.00, 
1846.00, 
1847.00, 
1848.00, 
1849.00, 
1850.00, 
1851.00, 
1852.00, 
1853.00, 
1854.00, 
1855.00, 
1856.00, 
1857.00, 
1858.00, 
1859.00, 
1860.00, 
1861.00, 
1862.00, 
1863.00, 
1864.00, 
1865.00, 
1866.00, 
1867.00, 
1868.00, 
1869.00, 
1870.00, 
1871.00, 
1872.00, 
1873.00, 
1874.00, 
1875.00, 
1876.00, 
1877.00, 
1878.00, 
1879.00, 
1880.00, 
1881.00, 
1882.00, 
1883.00, 
1884.00, 
1885.00, 
1886.00, 
1887.00, 
1888.00, 
1889.00, 
1890.00, 
1891.00, 
1892.00, 
1893.00, 
1894.00, 
1895.00, 
1896.00, 
1897.00, 
1898.00, 
1899.00, 
1900.00, 
1901.00, 
1902.00, 
1903.00, 
1904.00, 
1905.00, 
1906.00, 
1907.00, 
1908.00, 
1909.00, 
1910.00, 
1911.00, 
1912.00, 
1913.00, 
1914.00, 
1915.00, 
1916.00, 
1917.00, 
1918.00, 
1919.00, 
1920.00, 
1921.00, 
1922.00, 
1923.00, 
1924.00, 
1925.00, 
1926.00, 
1927.00, 
1928.00, 
1929.00, 
1930.00, 
1931.00, 
1932.00, 
1933.00, 
1934.00, 
1935.00, 
1936.00, 
1937.00, 
1938.00, 
1939.00, 
1940.00, 
1941.00, 
1942.00, 
1943.00, 
1944.00, 
1945.00, 
1946.00, 
1947.00, 
1948.00, 
1949.00, 
1950.00, 
1951.00, 
1952.00, 
1953.00, 
1954.00, 
1955.00, 
1956.00, 
1957.00, 
1958.00, 
1959.00, 
1960.00, 
1961.00, 
1962.00, 
1963.00, 
1964.00, 
1965.00, 
1966.00, 
1967.00, 
1968.00, 
1969.00, 
1970.00, 
1971.00, 
1972.00, 
1973.00, 
1974.00, 
1975.00, 
1976.00, 
1977.00, 
1978.00, 
1979.00, 
1980.00, 
1981.00, 
1982.00, 
1983.00, 
1984.00, 
1985.00, 
1986.00, 
1987.00, 
1988.00, 
1989.00, 
1990.00, 
1991.00, 
1992.00, 
1993.00, 
1994.00, 
1995.00, 
1996.00, 
1997.00, 
1998.00, 
1999.00, 
2000.00, 
2001.00, 
2002.00, 
2003.00, 
2004.00, 
2005.00, 
2006.00, 
2007.00, 
2008.00, 
2009.00, 
2010.00, 
2011.00, 
2012.00, 
2013.00, 
2014.00, 
2015.00, 
2016.00, 
2017.00, 
2018.00, 
2019.00, 
2020.00, 
2021.00, 
2022.00, 
2023.00, 
2024.00, 
2025.00, 
2026.00, 
2027.00, 
2028.00, 
2029.00, 
2030.00, 
2031.00, 
2032.00, 
2033.00, 
2034.00, 
2035.00, 
2036.00, 
2037.00, 
2038.00, 
2039.00, 
2040.00, 
2041.00, 
2042.00, 
2043.00, 
2044.00, 
2045.00, 
2046.00, 
2047.00, 
2048.00, 
2049.00, 
2050.00, 
2051.00, 
2052.00, 
2053.00, 
2054.00, 
2055.00, 
2056.00, 
2057.00, 
2058.00, 
2059.00, 
2060.00, 
2061.00, 
2062.00, 
2063.00, 
2064.00, 
2065.00, 
2066.00, 
2067.00, 
2068.00, 
2069.00, 
2070.00, 
2071.00, 
2072.00, 
2073.00, 
2074.00, 
2075.00, 
2076.00, 
2077.00, 
2078.00, 
2079.00, 
2080.00, 
2081.00, 
2082.00, 
2083.00, 
2084.00, 
2085.00, 
2086.00, 
2087.00, 
2088.00, 
2089.00, 
2090.00, 
2091.00, 
2092.00, 
2093.00, 
2094.00, 
2095.00, 
2096.00, 
2097.00, 
2098.00, 
2099.00, 
2100.00, 
2101.00, 
2102.00, 
2103.00, 
2104.00, 
2105.00, 
2106.00, 
2107.00, 
2108.00, 
2109.00, 
2110.00, 
2111.00, 
2112.00, 
2113.00, 
2114.00, 
2115.00, 
2116.00, 
2117.00, 
2118.00, 
2119.00, 
2120.00, 
2121.00, 
2122.00, 
2123.00, 
2124.00, 
2125.00, 
2126.00, 
2127.00, 
2128.00, 
2129.00, 
2130.00, 
2131.00, 
2132.00, 
2133.00, 
2134.00, 
2135.00, 
2136.00, 
2137.00, 
2138.00, 
2139.00, 
2140.00, 
2141.00, 
2142.00, 
2143.00, 
2144.00, 
2145.00, 
2146.00, 
2147.00, 
2148.00, 
2149.00, 
2150.00, 
2151.00, 
2152.00, 
2153.00, 
2154.00, 
2155.00, 
2156.00, 
2157.00, 
2158.00, 
2159.00, 
2160.00, 
2161.00, 
2162.00, 
2163.00, 
2164.00, 
2165.00, 
2166.00, 
2167.00, 
2168.00, 
2169.00, 
2170.00, 
2171.00, 
2172.00, 
2173.00, 
2174.00, 
2175.00, 
2176.00, 
2177.00, 
2178.00, 
2179.00, 
2180.00, 
2181.00, 
2182.00, 
2183.00, 
2184.00, 
2185.00, 
2186.00, 
2187.00, 
2188.00, 
2189.00, 
2190.00, 
2191.00, 
2192.00, 
2193.00, 
2194.00, 
2195.00, 
2196.00, 
2197.00, 
2198.00, 
2199.00, 
2200.00, 
2201.00, 
2202.00, 
2203.00, 
2204.00, 
2205.00, 
2206.00, 
2207.00, 
2208.00, 
2209.00, 
2210.00, 
2211.00, 
2212.00, 
2213.00, 
2214.00, 
2215.00, 
2216.00, 
2217.00, 
2218.00, 
2219.00, 
2220.00, 
2221.00, 
2222.00, 
2223.00, 
2224.00, 
2225.00, 
2226.00, 
2227.00, 
2228.00, 
2229.00, 
2230.00, 
2231.00, 
2232.00, 
2233.00, 
2234.00, 
2235.00, 
2236.00, 
2237.00, 
2238.00, 
2239.00, 
2240.00, 
2241.00, 
2242.00, 
2243.00, 
2244.00, 
2245.00, 
2246.00, 
2247.00, 
2248.00, 
2249.00, 
2250.00, 
2251.00, 
2252.00, 
2253.00, 
2254.00, 
2255.00, 
2256.00, 
2257.00, 
2258.00, 
2259.00, 
2260.00, 
2261.00, 
2262.00, 
2263.00, 
2264.00, 
2265.00, 
2266.00, 
2267.00, 
2268.00, 
2269.00, 
2270.00, 
2271.00, 
2272.00, 
2273.00, 
2274.00, 
2275.00, 
2276.00, 
2277.00, 
2278.00, 
2279.00, 
2280.00, 
2281.00, 
2282.00, 
2283.00, 
2284.00, 
2285.00, 
2286.00, 
2287.00, 
2288.00, 
2289.00, 
2290.00, 
2291.00, 
2292.00, 
2293.00, 
2294.00, 
2295.00, 
2296.00, 
2297.00, 
2298.00, 
2299.00, 
2300.00, 
2301.00, 
2302.00, 
2303.00, 
2304.00, 
2305.00, 
2306.00, 
2307.00, 
2308.00, 
2309.00, 
2310.00, 
2311.00, 
2312.00, 
2313.00, 
2314.00, 
2315.00, 
2316.00, 
2317.00, 
2318.00, 
2319.00, 
2320.00, 
2321.00, 
2322.00, 
2323.00, 
2324.00, 
2325.00, 
2326.00, 
2327.00, 
2328.00, 
2329.00, 
2330.00, 
2331.00, 
2332.00, 
2333.00, 
2334.00, 
2335.00, 
2336.00, 
2337.00, 
2338.00, 
2339.00, 
2340.00, 
2341.00, 
2342.00, 
2343.00, 
2344.00, 
2345.00, 
2346.00, 
2347.00, 
2348.00, 
2349.00, 
2350.00, 
2351.00, 
2352.00, 
2353.00, 
2354.00, 
2355.00, 
2356.00, 
2357.00, 
2358.00, 
2359.00, 
2360.00, 
2361.00, 
2362.00, 
2363.00, 
2364.00, 
2365.00, 
2366.00, 
2367.00, 
2368.00, 
2369.00, 
2370.00, 
2371.00, 
2372.00, 
2373.00, 
2374.00, 
2375.00, 
2376.00, 
2377.00, 
2378.00, 
2379.00, 
2380.00, 
2381.00, 
2382.00, 
2383.00, 
2384.00, 
2385.00, 
2386.00, 
2387.00, 
2388.00, 
2389.00, 
2390.00, 
2391.00, 
2392.00, 
2393.00, 
2394.00, 
2395.00, 
2396.00, 
2397.00, 
2398.00, 
2399.00, 
2400.00, 
2401.00, 
2402.00, 
2403.00, 
2404.00, 
2405.00, 
2406.00, 
2407.00, 
2408.00, 
2409.00, 
2410.00, 
2411.00, 
2412.00, 
2413.00, 
2414.00, 
2415.00, 
2416.00, 
2417.00, 
2418.00, 
2419.00, 
2420.00, 
2421.00, 
2422.00, 
2423.00, 
2424.00, 
2425.00, 
2426.00, 
2427.00, 
2428.00, 
2429.00, 
2430.00, 
2431.00, 
2432.00, 
2433.00, 
2434.00, 
2435.00, 
2436.00, 
2437.00, 
2438.00, 
2439.00, 
2440.00, 
2441.00, 
2442.00, 
2443.00, 
2444.00, 
2445.00, 
2446.00, 
2447.00, 
2448.00, 
2449.00, 
2450.00, 
2451.00, 
2452.00, 
2453.00, 
2454.00, 
2455.00, 
2456.00, 
2457.00, 
2458.00, 
2459.00, 
2460.00, 
2461.00, 
2462.00, 
2463.00, 
2464.00, 
2465.00, 
2466.00, 
2467.00, 
2468.00, 
2469.00, 
2470.00, 
2471.00, 
2472.00, 
2473.00, 
2474.00, 
2475.00, 
2476.00, 
2477.00, 
2478.00, 
2479.00, 
2480.00, 
2481.00, 
2482.00, 
2483.00, 
2484.00, 
2485.00, 
2486.00, 
2487.00, 
2488.00, 
2489.00, 
2490.00, 
2491.00, 
2492.00, 
2493.00, 
2494.00, 
2495.00, 
2496.00, 
2497.00, 
2498.00, 
2499.00, 
2500.00, 
2501.00, 
2502.00, 
2503.00, 
2504.00, 
2505.00, 
2506.00, 
2507.00, 
2508.00, 
2509.00, 
2510.00, 
2511.00, 
2512.00, 
2513.00, 
2514.00, 
2515.00, 
2516.00, 
2517.00, 
2518.00, 
2519.00, 
2520.00, 
2521.00, 
2522.00, 
2523.00, 
2524.00, 
2525.00, 
2526.00, 
2527.00, 
2528.00, 
2529.00, 
2530.00, 
2531.00, 
2532.00, 
2533.00, 
2534.00, 
2535.00, 
2536.00, 
2537.00, 
2538.00, 
2539.00, 
2540.00, 
2541.00, 
2542.00, 
2543.00, 
2544.00, 
2545.00, 
2546.00, 
2547.00, 
2548.00, 
2549.00, 
2550.00, 
2551.00, 
2552.00, 
2553.00, 
2554.00, 
2555.00, 
2556.00, 
2557.00, 
2558.00, 
2559.00, 
2560.00, 
2561.00, 
2562.00, 
2563.00, 
2564.00, 
2565.00, 
2566.00, 
2567.00, 
2568.00, 
2569.00, 
2570.00, 
2571.00, 
2572.00, 
2573.00, 
2574.00, 
2575.00, 
2576.00, 
2577.00, 
2578.00, 
2579.00, 
2580.00, 
2581.00, 
2582.00, 
2583.00, 
2584.00, 
2585.00, 
2586.00, 
2587.00, 
2588.00, 
2589.00, 
2590.00, 
2591.00, 
2592.00, 
2593.00, 
2594.00, 
2595.00, 
2596.00, 
2597.00, 
2598.00, 
2599.00, 
2600.00, 
