"1cP5 - RawData"
"Wavelength nm.","T%"
200.00,-0.001
201.00,0.001
202.00,0.000
203.00,0.005
204.00,-0.001
205.00,0.004
206.00,0.002
207.00,0.001
208.00,0.001
209.00,0.000
210.00,0.000
211.00,-0.000
212.00,0.000
213.00,0.000
214.00,-0.000
215.00,0.002
216.00,0.003
217.00,0.004
218.00,-0.001
219.00,0.001
220.00,0.004
221.00,0.001
222.00,-0.001
223.00,0.001
224.00,-0.000
225.00,0.002
226.00,0.001
227.00,0.000
228.00,0.002
229.00,0.001
230.00,-0.001
231.00,0.001
232.00,0.001
233.00,0.001
234.00,0.001
235.00,0.002
236.00,0.001
237.00,0.001
238.00,0.001
239.00,0.000
240.00,-0.002
241.00,0.001
242.00,0.001
243.00,-0.001
244.00,0.000
245.00,0.001
246.00,-0.000
247.00,-0.001
248.00,0.002
249.00,-0.000
250.00,-0.001
251.00,-0.000
252.00,0.001
253.00,0.002
254.00,0.002
255.00,0.001
256.00,-0.001
257.00,0.001
258.00,0.002
259.00,-0.000
260.00,0.001
261.00,0.001
262.00,0.003
263.00,-0.001
264.00,0.000
265.00,-0.001
266.00,-0.001
267.00,-0.001
268.00,-0.002
269.00,-0.000
270.00,-0.001
271.00,0.001
272.00,-0.000
273.00,0.001
274.00,0.000
275.00,0.000
276.00,-0.001
277.00,-0.000
278.00,0.000
279.00,0.000
280.00,0.000
281.00,0.000
282.00,0.000
283.00,-0.001
284.00,0.001
285.00,0.001
286.00,-0.002
287.00,0.001
288.00,0.001
289.00,0.000
290.00,0.001
291.00,0.001
292.00,-0.002
293.00,-0.001
294.00,-0.001
295.00,-0.000
296.00,0.001
297.00,0.000
298.00,0.000
299.00,-0.000
300.00,-0.000
301.00,0.002
302.00,0.001
303.00,-0.000
304.00,0.001
305.00,0.001
306.00,0.003
307.00,0.003
308.00,0.007
309.00,0.011
310.00,0.017
311.00,0.027
312.00,0.042
313.00,0.065
314.00,0.097
315.00,0.141
316.00,0.199
317.00,0.282
318.00,0.381
319.00,0.517
320.00,0.693
321.00,0.897
322.00,1.143
323.00,1.441
324.00,1.779
325.00,2.138
326.00,2.537
327.00,3.026
328.00,3.524
329.00,4.078
330.00,4.651
331.00,5.270
332.00,5.927
333.00,6.608
334.00,7.279
335.00,7.985
336.00,8.721
337.00,9.473
338.00,10.215
339.00,10.889
340.00,11.617
341.00,12.325
342.00,12.973
343.00,13.612
344.00,14.246
345.00,14.899
346.00,15.466
347.00,15.979
348.00,16.501
349.00,17.013
350.00,17.447
351.00,17.880
352.00,18.290
353.00,18.616
354.00,18.987
355.00,19.341
356.00,19.613
357.00,19.937
358.00,20.108
359.00,20.489
360.00,20.743
361.00,20.952
362.00,21.124
363.00,21.298
364.00,21.391
365.00,21.539
366.00,21.647
367.00,21.723
368.00,21.793
369.00,21.836
370.00,21.955
371.00,21.880
372.00,21.915
373.00,21.939
374.00,21.908
375.00,21.875
376.00,21.781
377.00,21.736
378.00,21.633
379.00,21.512
380.00,21.450
381.00,21.465
382.00,21.456
383.00,21.523
384.00,21.572
385.00,21.617
386.00,21.658
387.00,21.764
388.00,21.863
389.00,21.884
390.00,21.933
391.00,21.955
392.00,22.035
393.00,22.090
394.00,22.076
395.00,22.077
396.00,22.061
397.00,22.075
398.00,22.095
399.00,22.108
400.00,22.099
401.00,22.087
402.00,22.112
403.00,22.079
404.00,22.071
405.00,22.051
406.00,22.055
407.00,21.966
408.00,21.995
409.00,21.947
410.00,21.893
411.00,21.897
412.00,21.854
413.00,21.861
414.00,21.835
415.00,21.852
416.00,21.889
417.00,21.848
418.00,21.915
419.00,21.956
420.00,22.015
421.00,22.034
422.00,22.045
423.00,22.070
424.00,22.112
425.00,22.162
426.00,22.179
427.00,22.222
428.00,22.257
429.00,22.300
430.00,22.365
431.00,22.426
432.00,22.457
433.00,22.504
434.00,22.578
435.00,22.618
436.00,22.702
437.00,22.761
438.00,22.799
439.00,22.877
440.00,22.939
441.00,22.988
442.00,23.128
443.00,23.156
444.00,23.276
445.00,23.383
446.00,23.507
447.00,23.556
448.00,23.671
449.00,23.780
450.00,23.889
451.00,23.987
452.00,24.092
453.00,24.214
454.00,24.311
455.00,24.418
456.00,24.542
457.00,24.638
458.00,24.771
459.00,24.929
460.00,25.054
461.00,25.188
462.00,25.287
463.00,25.430
464.00,25.550
465.00,25.690
466.00,25.858
467.00,25.997
468.00,26.085
469.00,26.195
470.00,26.280
471.00,26.356
472.00,26.517
473.00,26.604
474.00,26.725
475.00,26.835
476.00,26.938
477.00,27.038
478.00,27.171
479.00,27.375
480.00,27.511
481.00,27.613
482.00,27.772
483.00,27.957
484.00,28.100
485.00,28.231
486.00,28.423
487.00,28.528
488.00,28.660
489.00,28.827
490.00,28.988
491.00,29.136
492.00,29.393
493.00,29.508
494.00,29.538
495.00,29.657
496.00,29.758
497.00,29.897
498.00,29.991
499.00,30.215
500.00,30.375
501.00,30.477
502.00,30.582
503.00,30.759
504.00,30.755
505.00,30.913
506.00,31.063
507.00,31.157
508.00,31.272
509.00,31.419
510.00,31.580
511.00,31.605
512.00,31.846
513.00,31.927
514.00,32.086
515.00,32.231
516.00,32.324
517.00,32.408
518.00,32.542
519.00,32.567
520.00,32.630
521.00,32.777
522.00,32.846
523.00,32.923
524.00,33.026
525.00,33.147
526.00,33.268
527.00,33.304
528.00,33.367
529.00,33.532
530.00,33.719
531.00,33.825
532.00,33.863
533.00,33.991
534.00,34.098
535.00,34.196
536.00,34.279
537.00,34.334
538.00,34.400
539.00,34.424
540.00,34.530
541.00,34.580
542.00,34.634
543.00,34.707
544.00,34.803
545.00,34.861
546.00,34.879
547.00,35.000
548.00,35.099
549.00,35.149
550.00,35.248
551.00,35.345
552.00,35.408
553.00,35.456
554.00,35.514
555.00,35.548
556.00,35.645
557.00,35.691
558.00,35.776
559.00,35.808
560.00,35.840
561.00,35.949
562.00,36.028
563.00,36.040
564.00,36.109
565.00,36.093
566.00,36.110
567.00,36.150
568.00,36.219
569.00,36.284
570.00,36.293
571.00,36.357
572.00,36.371
573.00,36.349
574.00,36.388
575.00,36.406
576.00,36.413
577.00,36.476
578.00,36.589
579.00,36.634
580.00,36.645
581.00,36.795
582.00,36.834
583.00,36.874
584.00,36.988
585.00,37.052
586.00,37.085
587.00,37.154
588.00,37.163
589.00,37.095
590.00,37.202
591.00,37.271
592.00,37.214
593.00,37.278
594.00,37.291
595.00,37.385
596.00,37.521
597.00,37.639
598.00,37.592
599.00,37.609
600.00,37.601
601.00,37.524
602.00,37.689
603.00,37.796
604.00,37.749
605.00,37.853
606.00,37.827
607.00,37.863
608.00,38.019
609.00,38.117
610.00,37.948
611.00,38.049
612.00,38.000
613.00,38.072
614.00,38.180
615.00,38.282
616.00,38.349
617.00,38.322
618.00,38.316
619.00,38.416
620.00,38.407
621.00,38.508
622.00,38.597
623.00,38.535
624.00,38.708
625.00,38.846
626.00,38.746
627.00,38.748
628.00,38.865
629.00,39.001
630.00,38.959
631.00,39.012
632.00,39.219
633.00,39.189
634.00,39.294
635.00,39.415
636.00,39.370
637.00,39.356
638.00,39.531
639.00,39.727
640.00,39.691
641.00,39.724
642.00,39.801
643.00,39.880
644.00,39.951
645.00,40.037
646.00,40.217
647.00,40.220
648.00,40.232
649.00,40.276
650.00,40.328
651.00,40.473
652.00,40.611
653.00,40.600
654.00,40.629
655.00,40.846
656.00,41.063
657.00,41.010
658.00,41.114
659.00,41.127
660.00,41.202
661.00,41.160
662.00,41.309
663.00,41.402
664.00,41.656
665.00,41.872
666.00,41.822
667.00,41.891
668.00,41.855
669.00,42.111
670.00,42.331
671.00,42.237
672.00,42.400
673.00,42.502
674.00,42.568
675.00,42.568
676.00,42.797
677.00,42.934
678.00,42.836
679.00,43.007
680.00,43.097
681.00,43.281
682.00,43.342
683.00,43.264
684.00,43.429
685.00,43.542
686.00,43.479
687.00,43.626
688.00,43.683
689.00,43.634
690.00,44.007
691.00,44.231
692.00,43.998
693.00,44.138
694.00,44.268
695.00,44.435
696.00,44.507
697.00,44.423
698.00,44.453
699.00,44.677
700.00,44.923
701.00,44.806
702.00,44.862
703.00,45.122
704.00,45.122
705.00,45.029
706.00,45.219
707.00,45.227
708.00,45.145
709.00,45.525
710.00,45.871
711.00,45.443
712.00,45.706
713.00,45.783
714.00,45.919
715.00,45.772
716.00,45.898
717.00,45.975
718.00,46.089
719.00,46.168
720.00,46.146
721.00,50.601
722.00,50.545
723.00,50.630
724.00,50.648
725.00,50.606
726.00,50.706
727.00,50.690
728.00,50.732
729.00,50.804
730.00,50.899
731.00,50.850
732.00,50.807
733.00,50.894
734.00,50.938
735.00,50.997
736.00,51.052
737.00,51.040
738.00,51.079
739.00,51.094
740.00,51.144
741.00,51.149
742.00,51.215
743.00,51.150
744.00,51.235
745.00,51.276
746.00,51.338
747.00,51.253
748.00,51.180
749.00,51.226
750.00,51.277
751.00,51.149
752.00,51.299
753.00,51.301
754.00,51.257
755.00,51.269
756.00,51.325
757.00,51.290
758.00,51.290
759.00,51.350
760.00,51.309
761.00,51.349
762.00,51.293
763.00,51.362
764.00,51.343
765.00,51.350
766.00,51.437
767.00,51.458
768.00,51.426
769.00,51.449
770.00,51.464
771.00,51.476
772.00,51.478
773.00,51.522
774.00,51.493
775.00,51.497
776.00,51.483
777.00,51.536
778.00,51.472
779.00,51.545
780.00,51.518
781.00,51.534
782.00,51.521
783.00,51.455
784.00,51.531
785.00,51.398
786.00,51.520
787.00,51.419
788.00,51.418
789.00,51.481
790.00,51.421
791.00,51.490
792.00,51.376
793.00,51.380
794.00,51.442
795.00,51.423
796.00,51.482
797.00,51.267
798.00,51.411
799.00,51.327
800.00,51.349
801.00,51.377
802.00,51.335
803.00,51.277
804.00,51.235
805.00,51.236
806.00,51.159
807.00,51.176
808.00,51.234
809.00,51.179
810.00,51.193
811.00,51.151
812.00,51.331
813.00,51.164
814.00,51.192
815.00,51.146
816.00,51.156
817.00,51.140
818.00,51.084
819.00,51.106
820.00,50.990
821.00,51.057
822.00,51.005
823.00,51.004
824.00,51.037
825.00,50.998
826.00,50.963
827.00,51.044
828.00,51.033
829.00,50.997
830.00,50.961
831.00,53.272
832.00,53.223
833.00,53.184
834.00,53.218
835.00,53.148
836.00,53.172
837.00,53.161
838.00,53.133
839.00,53.129
840.00,53.055
841.00,53.127
842.00,53.065
843.00,53.098
844.00,53.082
845.00,52.973
846.00,53.031
847.00,52.962
848.00,52.865
849.00,52.905
850.00,52.862
851.00,52.795
852.00,52.844
853.00,52.785
854.00,52.737
855.00,52.718
856.00,52.685
857.00,52.722
858.00,52.653
859.00,52.616
860.00,52.642
861.00,52.650
862.00,52.585
863.00,52.614
864.00,52.556
865.00,52.590
866.00,52.555
867.00,52.532
868.00,52.545
869.00,52.501
870.00,52.516
871.00,52.507
872.00,52.484
873.00,52.460
874.00,52.473
875.00,52.545
876.00,52.455
877.00,52.439
878.00,52.459
879.00,52.403
880.00,52.392
881.00,52.355
882.00,52.399
883.00,52.325
884.00,52.308
885.00,52.312
886.00,52.307
887.00,52.259
888.00,52.246
889.00,52.226
890.00,52.240
891.00,52.193
892.00,52.183
893.00,52.143
894.00,52.157
895.00,52.106
896.00,52.096
897.00,52.087
898.00,52.047
899.00,52.072
900.00,52.025
901.00,52.041
902.00,52.032
903.00,51.910
904.00,51.994
905.00,51.979
906.00,51.993
907.00,51.907
908.00,51.877
909.00,51.892
910.00,51.860
911.00,51.829
912.00,51.822
913.00,51.785
914.00,51.795
915.00,51.770
916.00,51.758
917.00,51.740
918.00,51.727
919.00,51.683
920.00,51.641
921.00,51.653
922.00,51.659
923.00,51.594
924.00,51.556
925.00,51.571
926.00,51.555
927.00,51.528
928.00,51.497
929.00,51.510
930.00,51.493
931.00,51.472
932.00,51.422
933.00,51.445
934.00,51.420
935.00,51.413
936.00,51.383
937.00,51.360
938.00,51.345
939.00,51.334
940.00,51.307
941.00,51.291
942.00,51.272
943.00,51.261
944.00,51.217
945.00,51.231
946.00,51.216
947.00,51.167
948.00,51.144
949.00,51.141
950.00,51.107
951.00,51.089
952.00,51.064
953.00,51.030
954.00,51.022
955.00,50.975
956.00,50.967
957.00,50.924
958.00,50.925
959.00,50.868
960.00,50.882
961.00,50.879
962.00,50.883
963.00,50.846
964.00,50.842
965.00,50.854
966.00,50.828
967.00,50.824
968.00,50.788
969.00,50.825
970.00,50.809
971.00,50.823
972.00,50.761
973.00,50.814
974.00,50.808
975.00,50.795
976.00,50.814
977.00,50.793
978.00,50.835
979.00,50.771
980.00,50.788
981.00,50.803
982.00,50.758
983.00,50.776
984.00,50.748
985.00,50.777
986.00,50.726
987.00,50.759
988.00,50.719
989.00,50.707
990.00,50.707
991.00,50.683
992.00,50.709
993.00,50.676
994.00,50.674
995.00,50.648
996.00,50.625
997.00,50.629
998.00,50.612
999.00,50.627
1000.00,50.572
1001.00,50.587
1002.00,50.569
1003.00,50.557
1004.00,50.538
1005.00,50.503
1006.00,50.545
1007.00,50.501
1008.00,50.505
1009.00,50.462
1010.00,50.459
1011.00,50.454
1012.00,50.418
1013.00,50.426
1014.00,50.394
1015.00,50.425
1016.00,50.385
1017.00,50.381
1018.00,50.374
1019.00,50.340
1020.00,50.341
1021.00,50.307
1022.00,50.296
1023.00,50.254
1024.00,50.262
1025.00,50.237
1026.00,50.246
1027.00,50.203
1028.00,50.191
1029.00,50.185
1030.00,50.164
1031.00,50.184
1032.00,50.142
1033.00,50.140
1034.00,50.106
1035.00,50.078
1036.00,50.053
1037.00,50.032
1038.00,50.024
1039.00,49.993
1040.00,49.978
1041.00,49.939
1042.00,49.938
1043.00,49.931
1044.00,49.953
1045.00,49.953
1046.00,49.920
1047.00,49.952
1048.00,49.971
1049.00,49.980
1050.00,49.993
1051.00,50.034
1052.00,50.016
1053.00,50.023
1054.00,50.015
1055.00,50.050
1056.00,50.052
1057.00,50.036
1058.00,50.015
1059.00,50.031
1060.00,50.035
1061.00,50.011
1062.00,50.006
1063.00,50.015
1064.00,50.019
1065.00,50.002
1066.00,49.995
1067.00,49.997
1068.00,50.008
1069.00,49.969
1070.00,49.962
1071.00,49.946
1072.00,49.967
1073.00,49.940
1074.00,49.946
1075.00,49.935
1076.00,49.941
1077.00,49.920
1078.00,49.911
1079.00,49.898
1080.00,49.889
1081.00,49.866
1082.00,49.865
1083.00,49.863
1084.00,49.851
1085.00,49.857
1086.00,49.844
1087.00,49.839
1088.00,49.823
1089.00,49.819
1090.00,49.809
1091.00,49.818
1092.00,49.817
1093.00,49.790
1094.00,49.780
1095.00,49.772
1096.00,49.740
1097.00,49.756
1098.00,49.750
1099.00,49.713
1100.00,49.700
1101.00,49.697
1102.00,49.692
1103.00,49.706
1104.00,49.685
1105.00,49.680
1106.00,49.650
1107.00,49.659
1108.00,49.656
1109.00,49.670
1110.00,49.658
1111.00,49.644
1112.00,49.631
1113.00,49.635
1114.00,49.609
1115.00,49.607
1116.00,49.598
1117.00,49.583
1118.00,49.585
1119.00,49.578
1120.00,49.579
1121.00,49.587
1122.00,49.560
1123.00,49.539
1124.00,49.546
1125.00,49.579
1126.00,49.553
1127.00,49.549
1128.00,49.537
1129.00,49.517
1130.00,49.502
1131.00,49.493
1132.00,49.474
1133.00,49.482
1134.00,49.476
1135.00,49.469
1136.00,49.477
1137.00,49.488
1138.00,49.489
1139.00,49.480
1140.00,49.470
1141.00,49.441
1142.00,49.476
1143.00,49.475
1144.00,49.435
1145.00,49.430
1146.00,49.437
1147.00,49.421
1148.00,49.421
1149.00,49.459
1150.00,49.439
1151.00,49.449
1152.00,49.439
1153.00,49.443
1154.00,49.433
1155.00,49.439
1156.00,49.448
1157.00,49.431
1158.00,49.431
1159.00,49.436
1160.00,49.407
1161.00,49.424
1162.00,49.416
1163.00,49.416
1164.00,49.427
1165.00,49.418
1166.00,49.429
1167.00,49.399
1168.00,49.422
1169.00,49.418
1170.00,49.421
1171.00,49.401
1172.00,49.402
1173.00,49.399
1174.00,49.426
1175.00,49.421
1176.00,49.406
1177.00,49.391
1178.00,49.370
1179.00,49.399
1180.00,49.382
1181.00,49.392
1182.00,49.393
1183.00,49.391
1184.00,49.419
1185.00,49.393
1186.00,49.388
1187.00,49.400
1188.00,49.378
1189.00,49.379
1190.00,49.364
1191.00,49.373
1192.00,49.397
1193.00,49.379
1194.00,49.393
1195.00,49.362
1196.00,49.397
1197.00,49.400
1198.00,49.376
1199.00,49.373
1200.00,49.379
1201.00,49.402
1202.00,49.389
1203.00,49.404
1204.00,49.401
1205.00,49.419
1206.00,49.406
1207.00,49.423
1208.00,49.397
1209.00,49.400
1210.00,49.398
1211.00,49.389
1212.00,49.401
1213.00,49.371
1214.00,49.396
1215.00,49.378
1216.00,49.387
1217.00,49.408
1218.00,49.399
1219.00,49.419
1220.00,49.398
1221.00,49.406
1222.00,49.382
1223.00,49.411
1224.00,49.413
1225.00,49.390
1226.00,49.405
1227.00,49.398
1228.00,49.416
1229.00,49.424
1230.00,49.452
1231.00,49.433
1232.00,49.443
1233.00,49.428
1234.00,49.433
1235.00,49.455
1236.00,49.445
1237.00,49.467
1238.00,49.476
1239.00,49.473
1240.00,49.462
1241.00,49.475
1242.00,49.456
1243.00,49.474
1244.00,49.437
1245.00,49.479
1246.00,49.492
1247.00,49.488
1248.00,49.493
1249.00,49.494
1250.00,49.516
1251.00,49.508
1252.00,49.516
1253.00,49.503
1254.00,49.536
1255.00,49.503
1256.00,49.487
1257.00,49.507
1258.00,49.560
1259.00,49.546
1260.00,49.558
1261.00,49.566
1262.00,49.565
1263.00,49.558
1264.00,49.560
1265.00,49.565
1266.00,49.557
1267.00,49.579
1268.00,49.591
1269.00,49.591
1270.00,49.606
1271.00,49.611
1272.00,49.615
1273.00,49.636
1274.00,49.633
1275.00,49.650
1276.00,49.646
1277.00,49.644
1278.00,49.662
1279.00,49.659
1280.00,49.644
1281.00,49.673
1282.00,49.681
1283.00,49.670
1284.00,49.672
1285.00,49.679
1286.00,49.685
1287.00,49.696
1288.00,49.695
1289.00,49.688
1290.00,49.732
1291.00,49.718
1292.00,49.709
1293.00,49.724
1294.00,49.747
1295.00,49.756
1296.00,49.767
1297.00,49.764
1298.00,49.797
1299.00,49.761
1300.00,49.781
1301.00,49.792
1302.00,49.809
1303.00,49.799
1304.00,49.791
1305.00,49.813
1306.00,49.817
1307.00,49.827
1308.00,49.827
1309.00,49.836
1310.00,49.819
1311.00,49.812
1312.00,49.838
1313.00,49.853
1314.00,49.874
1315.00,49.899
1316.00,49.888
1317.00,49.910
1318.00,49.929
1319.00,49.913
1320.00,49.927
1321.00,50.087
1322.00,50.066
1323.00,50.072
1324.00,50.085
1325.00,50.046
1326.00,50.074
1327.00,50.058
1328.00,50.063
1329.00,50.062
1330.00,50.076
1331.00,50.067
1332.00,50.073
1333.00,50.060
1334.00,50.093
1335.00,50.112
1336.00,50.145
1337.00,50.182
1338.00,50.247
1339.00,50.296
1340.00,50.359
1341.00,50.411
1342.00,50.472
1343.00,50.528
1344.00,50.564
1345.00,50.628
1346.00,50.674
1347.00,50.678
1348.00,50.713
1349.00,50.733
1350.00,50.747
1351.00,50.786
1352.00,50.798
1353.00,50.831
1354.00,50.804
1355.00,50.748
1356.00,50.819
1357.00,50.814
1358.00,50.855
1359.00,50.848
1360.00,50.867
1361.00,50.911
1362.00,50.793
1363.00,50.935
1364.00,50.968
1365.00,50.863
1366.00,50.939
1367.00,50.861
1368.00,50.800
1369.00,50.879
1370.00,50.803
1371.00,51.144
1372.00,50.828
1373.00,50.868
1374.00,50.868
1375.00,50.849
1376.00,50.850
1377.00,50.835
1378.00,50.908
1379.00,50.895
1380.00,50.831
1381.00,50.862
1382.00,50.831
1383.00,50.872
1384.00,50.872
1385.00,50.839
1386.00,50.688
1387.00,50.852
1388.00,50.815
1389.00,50.804
1390.00,50.811
1391.00,50.831
1392.00,50.830
1393.00,50.904
1394.00,50.893
1395.00,50.809
1396.00,50.797
1397.00,50.813
1398.00,50.834
1399.00,50.850
1400.00,50.697
1401.00,50.823
1402.00,50.871
1403.00,50.891
1404.00,50.847
1405.00,50.923
1406.00,50.914
1407.00,50.907
1408.00,50.910
1409.00,50.887
1410.00,50.923
1411.00,50.922
1412.00,50.991
1413.00,50.953
1414.00,50.941
1415.00,50.955
1416.00,51.001
1417.00,51.049
1418.00,50.985
1419.00,51.027
1420.00,51.036
1421.00,51.083
1422.00,51.071
1423.00,51.077
1424.00,51.084
1425.00,51.117
1426.00,51.120
1427.00,51.154
1428.00,51.145
1429.00,51.145
1430.00,51.175
1431.00,51.200
1432.00,51.211
1433.00,51.241
1434.00,51.232
1435.00,51.299
1436.00,51.301
1437.00,51.279
1438.00,51.308
1439.00,51.353
1440.00,51.353
1441.00,51.353
1442.00,51.369
1443.00,51.389
1444.00,51.473
1445.00,51.408
1446.00,51.433
1447.00,51.475
1448.00,51.520
1449.00,51.516
1450.00,51.532
1451.00,51.526
1452.00,51.562
1453.00,51.568
1454.00,51.596
1455.00,51.604
1456.00,51.622
1457.00,51.628
1458.00,51.660
1459.00,51.668
1460.00,51.703
1461.00,51.711
1462.00,51.741
1463.00,51.736
1464.00,51.752
1465.00,51.753
1466.00,51.763
1467.00,51.799
1468.00,51.849
1469.00,51.834
1470.00,51.852
1471.00,51.885
1472.00,51.895
1473.00,51.905
1474.00,51.928
1475.00,51.934
1476.00,51.948
1477.00,51.940
1478.00,51.964
1479.00,51.991
1480.00,51.992
1481.00,51.992
1482.00,52.037
1483.00,52.056
1484.00,52.069
1485.00,52.064
1486.00,52.087
1487.00,52.112
1488.00,52.144
1489.00,52.131
1490.00,52.151
1491.00,52.173
1492.00,52.194
1493.00,52.166
1494.00,52.217
1495.00,52.189
1496.00,52.227
1497.00,52.217
1498.00,52.237
1499.00,52.249
1500.00,52.266
1501.00, 
1502.00, 
1503.00, 
1504.00, 
1505.00, 
1506.00, 
1507.00, 
1508.00, 
1509.00, 
1510.00, 
1511.00, 
1512.00, 
1513.00, 
1514.00, 
1515.00, 
1516.00, 
1517.00, 
1518.00, 
1519.00, 
1520.00, 
1521.00, 
1522.00, 
1523.00, 
1524.00, 
1525.00, 
1526.00, 
1527.00, 
1528.00, 
1529.00, 
1530.00, 
1531.00, 
1532.00, 
1533.00, 
1534.00, 
1535.00, 
1536.00, 
1537.00, 
1538.00, 
1539.00, 
1540.00, 
1541.00, 
1542.00, 
1543.00, 
1544.00, 
1545.00, 
1546.00, 
1547.00, 
1548.00, 
1549.00, 
1550.00, 
1551.00, 
1552.00, 
1553.00, 
1554.00, 
1555.00, 
1556.00, 
1557.00, 
1558.00, 
1559.00, 
1560.00, 
1561.00, 
1562.00, 
1563.00, 
1564.00, 
1565.00, 
1566.00, 
1567.00, 
1568.00, 
1569.00, 
1570.00, 
1571.00, 
1572.00, 
1573.00, 
1574.00, 
1575.00, 
1576.00, 
1577.00, 
1578.00, 
1579.00, 
1580.00, 
1581.00, 
1582.00, 
1583.00, 
1584.00, 
1585.00, 
1586.00, 
1587.00, 
1588.00, 
1589.00, 
1590.00, 
1591.00, 
1592.00, 
1593.00, 
1594.00, 
1595.00, 
1596.00, 
1597.00, 
1598.00, 
1599.00, 
1600.00, 
1601.00, 
1602.00, 
1603.00, 
1604.00, 
1605.00, 
1606.00, 
1607.00, 
1608.00, 
1609.00, 
1610.00, 
1611.00, 
1612.00, 
1613.00, 
1614.00, 
1615.00, 
1616.00, 
1617.00, 
1618.00, 
1619.00, 
1620.00, 
1621.00, 
1622.00, 
1623.00, 
1624.00, 
1625.00, 
1626.00, 
1627.00, 
1628.00, 
1629.00, 
1630.00, 
1631.00, 
1632.00, 
1633.00, 
1634.00, 
1635.00, 
1636.00, 
1637.00, 
1638.00, 
1639.00, 
1640.00, 
1641.00, 
1642.00, 
1643.00, 
1644.00, 
1645.00, 
1646.00, 
1647.00, 
1648.00, 
1649.00, 
1650.00, 
1651.00, 
1652.00, 
1653.00, 
1654.00, 
1655.00, 
1656.00, 
1657.00, 
1658.00, 
1659.00, 
1660.00, 
1661.00, 
1662.00, 
1663.00, 
1664.00, 
1665.00, 
1666.00, 
1667.00, 
1668.00, 
1669.00, 
1670.00, 
1671.00, 
1672.00, 
1673.00, 
1674.00, 
1675.00, 
1676.00, 
1677.00, 
1678.00, 
1679.00, 
1680.00, 
1681.00, 
1682.00, 
1683.00, 
1684.00, 
1685.00, 
1686.00, 
1687.00, 
1688.00, 
1689.00, 
1690.00, 
1691.00, 
1692.00, 
1693.00, 
1694.00, 
1695.00, 
1696.00, 
1697.00, 
1698.00, 
1699.00, 
1700.00, 
1701.00, 
1702.00, 
1703.00, 
1704.00, 
1705.00, 
1706.00, 
1707.00, 
1708.00, 
1709.00, 
1710.00, 
1711.00, 
1712.00, 
1713.00, 
1714.00, 
1715.00, 
1716.00, 
1717.00, 
1718.00, 
1719.00, 
1720.00, 
1721.00, 
1722.00, 
1723.00, 
1724.00, 
1725.00, 
1726.00, 
1727.00, 
1728.00, 
1729.00, 
1730.00, 
1731.00, 
1732.00, 
1733.00, 
1734.00, 
1735.00, 
1736.00, 
1737.00, 
1738.00, 
1739.00, 
1740.00, 
1741.00, 
1742.00, 
1743.00, 
1744.00, 
1745.00, 
1746.00, 
1747.00, 
1748.00, 
1749.00, 
1750.00, 
1751.00, 
1752.00, 
1753.00, 
1754.00, 
1755.00, 
1756.00, 
1757.00, 
1758.00, 
1759.00, 
1760.00, 
1761.00, 
1762.00, 
1763.00, 
1764.00, 
1765.00, 
1766.00, 
1767.00, 
1768.00, 
1769.00, 
1770.00, 
1771.00, 
1772.00, 
1773.00, 
1774.00, 
1775.00, 
1776.00, 
1777.00, 
1778.00, 
1779.00, 
1780.00, 
1781.00, 
1782.00, 
1783.00, 
1784.00, 
1785.00, 
1786.00, 
1787.00, 
1788.00, 
1789.00, 
1790.00, 
1791.00, 
1792.00, 
1793.00, 
1794.00, 
1795.00, 
1796.00, 
1797.00, 
1798.00, 
1799.00, 
1800.00, 
1801.00, 
1802.00, 
1803.00, 
1804.00, 
1805.00, 
1806.00, 
1807.00, 
1808.00, 
1809.00, 
1810.00, 
1811.00, 
1812.00, 
1813.00, 
1814.00, 
1815.00, 
1816.00, 
1817.00, 
1818.00, 
1819.00, 
1820.00, 
1821.00, 
1822.00, 
1823.00, 
1824.00, 
1825.00, 
1826.00, 
1827.00, 
1828.00, 
1829.00, 
1830.00, 
1831.00, 
1832.00, 
1833.00, 
1834.00, 
1835.00, 
1836.00, 
1837.00, 
1838.00, 
1839.00, 
1840.00, 
1841.00, 
1842.00, 
1843.00, 
1844.00, 
1845.00, 
1846.00, 
1847.00, 
1848.00, 
1849.00, 
1850.00, 
1851.00, 
1852.00, 
1853.00, 
1854.00, 
1855.00, 
1856.00, 
1857.00, 
1858.00, 
1859.00, 
1860.00, 
1861.00, 
1862.00, 
1863.00, 
1864.00, 
1865.00, 
1866.00, 
1867.00, 
1868.00, 
1869.00, 
1870.00, 
1871.00, 
1872.00, 
1873.00, 
1874.00, 
1875.00, 
1876.00, 
1877.00, 
1878.00, 
1879.00, 
1880.00, 
1881.00, 
1882.00, 
1883.00, 
1884.00, 
1885.00, 
1886.00, 
1887.00, 
1888.00, 
1889.00, 
1890.00, 
1891.00, 
1892.00, 
1893.00, 
1894.00, 
1895.00, 
1896.00, 
1897.00, 
1898.00, 
1899.00, 
1900.00, 
1901.00, 
1902.00, 
1903.00, 
1904.00, 
1905.00, 
1906.00, 
1907.00, 
1908.00, 
1909.00, 
1910.00, 
1911.00, 
1912.00, 
1913.00, 
1914.00, 
1915.00, 
1916.00, 
1917.00, 
1918.00, 
1919.00, 
1920.00, 
1921.00, 
1922.00, 
1923.00, 
1924.00, 
1925.00, 
1926.00, 
1927.00, 
1928.00, 
1929.00, 
1930.00, 
1931.00, 
1932.00, 
1933.00, 
1934.00, 
1935.00, 
1936.00, 
1937.00, 
1938.00, 
1939.00, 
1940.00, 
1941.00, 
1942.00, 
1943.00, 
1944.00, 
1945.00, 
1946.00, 
1947.00, 
1948.00, 
1949.00, 
1950.00, 
1951.00, 
1952.00, 
1953.00, 
1954.00, 
1955.00, 
1956.00, 
1957.00, 
1958.00, 
1959.00, 
1960.00, 
1961.00, 
1962.00, 
1963.00, 
1964.00, 
1965.00, 
1966.00, 
1967.00, 
1968.00, 
1969.00, 
1970.00, 
1971.00, 
1972.00, 
1973.00, 
1974.00, 
1975.00, 
1976.00, 
1977.00, 
1978.00, 
1979.00, 
1980.00, 
1981.00, 
1982.00, 
1983.00, 
1984.00, 
1985.00, 
1986.00, 
1987.00, 
1988.00, 
1989.00, 
1990.00, 
1991.00, 
1992.00, 
1993.00, 
1994.00, 
1995.00, 
1996.00, 
1997.00, 
1998.00, 
1999.00, 
2000.00, 
2001.00, 
2002.00, 
2003.00, 
2004.00, 
2005.00, 
2006.00, 
2007.00, 
2008.00, 
2009.00, 
2010.00, 
2011.00, 
2012.00, 
2013.00, 
2014.00, 
2015.00, 
2016.00, 
2017.00, 
2018.00, 
2019.00, 
2020.00, 
2021.00, 
2022.00, 
2023.00, 
2024.00, 
2025.00, 
2026.00, 
2027.00, 
2028.00, 
2029.00, 
2030.00, 
2031.00, 
2032.00, 
2033.00, 
2034.00, 
2035.00, 
2036.00, 
2037.00, 
2038.00, 
2039.00, 
2040.00, 
2041.00, 
2042.00, 
2043.00, 
2044.00, 
2045.00, 
2046.00, 
2047.00, 
2048.00, 
2049.00, 
2050.00, 
2051.00, 
2052.00, 
2053.00, 
2054.00, 
2055.00, 
2056.00, 
2057.00, 
2058.00, 
2059.00, 
2060.00, 
2061.00, 
2062.00, 
2063.00, 
2064.00, 
2065.00, 
2066.00, 
2067.00, 
2068.00, 
2069.00, 
2070.00, 
2071.00, 
2072.00, 
2073.00, 
2074.00, 
2075.00, 
2076.00, 
2077.00, 
2078.00, 
2079.00, 
2080.00, 
2081.00, 
2082.00, 
2083.00, 
2084.00, 
2085.00, 
2086.00, 
2087.00, 
2088.00, 
2089.00, 
2090.00, 
2091.00, 
2092.00, 
2093.00, 
2094.00, 
2095.00, 
2096.00, 
2097.00, 
2098.00, 
2099.00, 
2100.00, 
2101.00, 
2102.00, 
2103.00, 
2104.00, 
2105.00, 
2106.00, 
2107.00, 
2108.00, 
2109.00, 
2110.00, 
2111.00, 
2112.00, 
2113.00, 
2114.00, 
2115.00, 
2116.00, 
2117.00, 
2118.00, 
2119.00, 
2120.00, 
2121.00, 
2122.00, 
2123.00, 
2124.00, 
2125.00, 
2126.00, 
2127.00, 
2128.00, 
2129.00, 
2130.00, 
2131.00, 
2132.00, 
2133.00, 
2134.00, 
2135.00, 
2136.00, 
2137.00, 
2138.00, 
2139.00, 
2140.00, 
2141.00, 
2142.00, 
2143.00, 
2144.00, 
2145.00, 
2146.00, 
2147.00, 
2148.00, 
2149.00, 
2150.00, 
2151.00, 
2152.00, 
2153.00, 
2154.00, 
2155.00, 
2156.00, 
2157.00, 
2158.00, 
2159.00, 
2160.00, 
2161.00, 
2162.00, 
2163.00, 
2164.00, 
2165.00, 
2166.00, 
2167.00, 
2168.00, 
2169.00, 
2170.00, 
2171.00, 
2172.00, 
2173.00, 
2174.00, 
2175.00, 
2176.00, 
2177.00, 
2178.00, 
2179.00, 
2180.00, 
2181.00, 
2182.00, 
2183.00, 
2184.00, 
2185.00, 
2186.00, 
2187.00, 
2188.00, 
2189.00, 
2190.00, 
2191.00, 
2192.00, 
2193.00, 
2194.00, 
2195.00, 
2196.00, 
2197.00, 
2198.00, 
2199.00, 
2200.00, 
2201.00, 
2202.00, 
2203.00, 
2204.00, 
2205.00, 
2206.00, 
2207.00, 
2208.00, 
2209.00, 
2210.00, 
2211.00, 
2212.00, 
2213.00, 
2214.00, 
2215.00, 
2216.00, 
2217.00, 
2218.00, 
2219.00, 
2220.00, 
2221.00, 
2222.00, 
2223.00, 
2224.00, 
2225.00, 
2226.00, 
2227.00, 
2228.00, 
2229.00, 
2230.00, 
2231.00, 
2232.00, 
2233.00, 
2234.00, 
2235.00, 
2236.00, 
2237.00, 
2238.00, 
2239.00, 
2240.00, 
2241.00, 
2242.00, 
2243.00, 
2244.00, 
2245.00, 
2246.00, 
2247.00, 
2248.00, 
2249.00, 
2250.00, 
2251.00, 
2252.00, 
2253.00, 
2254.00, 
2255.00, 
2256.00, 
2257.00, 
2258.00, 
2259.00, 
2260.00, 
2261.00, 
2262.00, 
2263.00, 
2264.00, 
2265.00, 
2266.00, 
2267.00, 
2268.00, 
2269.00, 
2270.00, 
2271.00, 
2272.00, 
2273.00, 
2274.00, 
2275.00, 
2276.00, 
2277.00, 
2278.00, 
2279.00, 
2280.00, 
2281.00, 
2282.00, 
2283.00, 
2284.00, 
2285.00, 
2286.00, 
2287.00, 
2288.00, 
2289.00, 
2290.00, 
2291.00, 
2292.00, 
2293.00, 
2294.00, 
2295.00, 
2296.00, 
2297.00, 
2298.00, 
2299.00, 
2300.00, 
2301.00, 
2302.00, 
2303.00, 
2304.00, 
2305.00, 
2306.00, 
2307.00, 
2308.00, 
2309.00, 
2310.00, 
2311.00, 
2312.00, 
2313.00, 
2314.00, 
2315.00, 
2316.00, 
2317.00, 
2318.00, 
2319.00, 
2320.00, 
2321.00, 
2322.00, 
2323.00, 
2324.00, 
2325.00, 
2326.00, 
2327.00, 
2328.00, 
2329.00, 
2330.00, 
2331.00, 
2332.00, 
2333.00, 
2334.00, 
2335.00, 
2336.00, 
2337.00, 
2338.00, 
2339.00, 
2340.00, 
2341.00, 
2342.00, 
2343.00, 
2344.00, 
2345.00, 
2346.00, 
2347.00, 
2348.00, 
2349.00, 
2350.00, 
2351.00, 
2352.00, 
2353.00, 
2354.00, 
2355.00, 
2356.00, 
2357.00, 
2358.00, 
2359.00, 
2360.00, 
2361.00, 
2362.00, 
2363.00, 
2364.00, 
2365.00, 
2366.00, 
2367.00, 
2368.00, 
2369.00, 
2370.00, 
2371.00, 
2372.00, 
2373.00, 
2374.00, 
2375.00, 
2376.00, 
2377.00, 
2378.00, 
2379.00, 
2380.00, 
2381.00, 
2382.00, 
2383.00, 
2384.00, 
2385.00, 
2386.00, 
2387.00, 
2388.00, 
2389.00, 
2390.00, 
2391.00, 
2392.00, 
2393.00, 
2394.00, 
2395.00, 
2396.00, 
2397.00, 
2398.00, 
2399.00, 
2400.00, 
2401.00, 
2402.00, 
2403.00, 
2404.00, 
2405.00, 
2406.00, 
2407.00, 
2408.00, 
2409.00, 
2410.00, 
2411.00, 
2412.00, 
2413.00, 
2414.00, 
2415.00, 
2416.00, 
2417.00, 
2418.00, 
2419.00, 
2420.00, 
2421.00, 
2422.00, 
2423.00, 
2424.00, 
2425.00, 
2426.00, 
2427.00, 
2428.00, 
2429.00, 
2430.00, 
2431.00, 
2432.00, 
2433.00, 
2434.00, 
2435.00, 
2436.00, 
2437.00, 
2438.00, 
2439.00, 
2440.00, 
2441.00, 
2442.00, 
2443.00, 
2444.00, 
2445.00, 
2446.00, 
2447.00, 
2448.00, 
2449.00, 
2450.00, 
2451.00, 
2452.00, 
2453.00, 
2454.00, 
2455.00, 
2456.00, 
2457.00, 
2458.00, 
2459.00, 
2460.00, 
2461.00, 
2462.00, 
2463.00, 
2464.00, 
2465.00, 
2466.00, 
2467.00, 
2468.00, 
2469.00, 
2470.00, 
2471.00, 
2472.00, 
2473.00, 
2474.00, 
2475.00, 
2476.00, 
2477.00, 
2478.00, 
2479.00, 
2480.00, 
2481.00, 
2482.00, 
2483.00, 
2484.00, 
2485.00, 
2486.00, 
2487.00, 
2488.00, 
2489.00, 
2490.00, 
2491.00, 
2492.00, 
2493.00, 
2494.00, 
2495.00, 
2496.00, 
2497.00, 
2498.00, 
2499.00, 
2500.00, 
2501.00, 
2502.00, 
2503.00, 
2504.00, 
2505.00, 
2506.00, 
2507.00, 
2508.00, 
2509.00, 
2510.00, 
2511.00, 
2512.00, 
2513.00, 
2514.00, 
2515.00, 
2516.00, 
2517.00, 
2518.00, 
2519.00, 
2520.00, 
2521.00, 
2522.00, 
2523.00, 
2524.00, 
2525.00, 
2526.00, 
2527.00, 
2528.00, 
2529.00, 
2530.00, 
2531.00, 
2532.00, 
2533.00, 
2534.00, 
2535.00, 
2536.00, 
2537.00, 
2538.00, 
2539.00, 
2540.00, 
2541.00, 
2542.00, 
2543.00, 
2544.00, 
2545.00, 
2546.00, 
2547.00, 
2548.00, 
2549.00, 
2550.00, 
2551.00, 
2552.00, 
2553.00, 
2554.00, 
2555.00, 
2556.00, 
2557.00, 
2558.00, 
2559.00, 
2560.00, 
2561.00, 
2562.00, 
2563.00, 
2564.00, 
2565.00, 
2566.00, 
2567.00, 
2568.00, 
2569.00, 
2570.00, 
2571.00, 
2572.00, 
2573.00, 
2574.00, 
2575.00, 
2576.00, 
2577.00, 
2578.00, 
2579.00, 
2580.00, 
2581.00, 
2582.00, 
2583.00, 
2584.00, 
2585.00, 
2586.00, 
2587.00, 
2588.00, 
2589.00, 
2590.00, 
2591.00, 
2592.00, 
2593.00, 
2594.00, 
2595.00, 
2596.00, 
2597.00, 
2598.00, 
2599.00, 
2600.00, 
