"2aP2 - RawData"
"Wavelength nm.","T%"
200.00,-0.000
201.00,0.001
202.00,0.002
203.00,0.001
204.00,0.001
205.00,0.002
206.00,0.001
207.00,0.002
208.00,0.001
209.00,0.002
210.00,0.002
211.00,0.004
212.00,0.001
213.00,0.000
214.00,0.001
215.00,-0.000
216.00,0.004
217.00,0.004
218.00,0.001
219.00,0.001
220.00,0.003
221.00,0.003
222.00,0.000
223.00,0.001
224.00,0.000
225.00,0.002
226.00,-0.001
227.00,-0.000
228.00,0.001
229.00,0.001
230.00,0.002
231.00,0.002
232.00,0.001
233.00,0.001
234.00,0.002
235.00,0.002
236.00,0.003
237.00,0.002
238.00,0.003
239.00,-0.000
240.00,-0.000
241.00,0.001
242.00,0.000
243.00,0.001
244.00,0.002
245.00,0.001
246.00,0.001
247.00,0.001
248.00,0.003
249.00,0.001
250.00,0.000
251.00,0.002
252.00,0.000
253.00,0.001
254.00,-0.000
255.00,0.000
256.00,0.001
257.00,-0.000
258.00,0.000
259.00,0.000
260.00,-0.001
261.00,0.000
262.00,0.000
263.00,0.002
264.00,0.002
265.00,0.000
266.00,0.001
267.00,0.000
268.00,0.001
269.00,0.000
270.00,-0.001
271.00,0.001
272.00,0.001
273.00,0.000
274.00,-0.001
275.00,0.000
276.00,-0.000
277.00,-0.000
278.00,-0.001
279.00,0.000
280.00,0.002
281.00,0.000
282.00,-0.000
283.00,-0.001
284.00,0.001
285.00,0.000
286.00,0.001
287.00,0.002
288.00,0.001
289.00,-0.002
290.00,0.000
291.00,-0.001
292.00,0.001
293.00,-0.000
294.00,-0.001
295.00,0.000
296.00,0.000
297.00,-0.001
298.00,-0.000
299.00,0.002
300.00,0.001
301.00,0.004
302.00,0.005
303.00,0.006
304.00,0.011
305.00,0.018
306.00,0.023
307.00,0.039
308.00,0.061
309.00,0.092
310.00,0.128
311.00,0.180
312.00,0.243
313.00,0.325
314.00,0.430
315.00,0.553
316.00,0.701
317.00,0.891
318.00,1.094
319.00,1.353
320.00,1.627
321.00,1.957
322.00,2.311
323.00,2.701
324.00,3.139
325.00,3.578
326.00,4.040
327.00,4.529
328.00,5.066
329.00,5.617
330.00,6.186
331.00,6.746
332.00,7.325
333.00,7.955
334.00,8.509
335.00,9.120
336.00,9.710
337.00,10.303
338.00,10.888
339.00,11.422
340.00,11.969
341.00,12.516
342.00,13.021
343.00,13.513
344.00,13.950
345.00,14.455
346.00,14.861
347.00,15.221
348.00,15.557
349.00,15.952
350.00,16.266
351.00,16.609
352.00,16.883
353.00,17.115
354.00,17.360
355.00,17.619
356.00,17.848
357.00,18.070
358.00,18.253
359.00,18.492
360.00,18.622
361.00,18.721
362.00,18.909
363.00,19.033
364.00,19.083
365.00,19.151
366.00,19.221
367.00,19.293
368.00,19.347
369.00,19.363
370.00,19.416
371.00,19.461
372.00,19.438
373.00,19.476
374.00,19.460
375.00,19.444
376.00,19.404
377.00,19.355
378.00,19.281
379.00,19.241
380.00,19.190
381.00,19.201
382.00,19.177
383.00,19.188
384.00,19.176
385.00,19.222
386.00,19.221
387.00,19.291
388.00,19.342
389.00,19.343
390.00,19.339
391.00,19.372
392.00,19.387
393.00,19.425
394.00,19.368
395.00,19.390
396.00,19.360
397.00,19.393
398.00,19.392
399.00,19.346
400.00,19.379
401.00,19.361
402.00,19.376
403.00,19.373
404.00,19.359
405.00,19.364
406.00,19.300
407.00,19.302
408.00,19.311
409.00,19.281
410.00,19.241
411.00,19.217
412.00,19.214
413.00,19.207
414.00,19.204
415.00,19.206
416.00,19.268
417.00,19.262
418.00,19.290
419.00,19.343
420.00,19.377
421.00,19.429
422.00,19.454
423.00,19.495
424.00,19.522
425.00,19.551
426.00,19.599
427.00,19.647
428.00,19.687
429.00,19.699
430.00,19.736
431.00,19.868
432.00,19.901
433.00,19.957
434.00,20.045
435.00,20.088
436.00,20.164
437.00,20.214
438.00,20.283
439.00,20.359
440.00,20.451
441.00,20.544
442.00,20.607
443.00,20.672
444.00,20.772
445.00,20.848
446.00,20.963
447.00,21.068
448.00,21.176
449.00,21.290
450.00,21.395
451.00,21.471
452.00,21.608
453.00,21.698
454.00,21.798
455.00,21.926
456.00,22.058
457.00,22.147
458.00,22.253
459.00,22.414
460.00,22.537
461.00,22.658
462.00,22.810
463.00,22.944
464.00,23.042
465.00,23.182
466.00,23.338
467.00,23.489
468.00,23.578
469.00,23.700
470.00,23.828
471.00,23.922
472.00,24.048
473.00,24.162
474.00,24.285
475.00,24.414
476.00,24.528
477.00,24.641
478.00,24.768
479.00,24.942
480.00,25.092
481.00,25.204
482.00,25.383
483.00,25.534
484.00,25.712
485.00,25.844
486.00,25.988
487.00,26.169
488.00,26.332
489.00,26.503
490.00,26.641
491.00,26.775
492.00,27.044
493.00,27.151
494.00,27.165
495.00,27.332
496.00,27.465
497.00,27.583
498.00,27.746
499.00,27.908
500.00,28.055
501.00,28.156
502.00,28.307
503.00,28.432
504.00,28.515
505.00,28.629
506.00,28.735
507.00,28.879
508.00,29.034
509.00,29.172
510.00,29.259
511.00,29.408
512.00,29.532
513.00,29.733
514.00,29.842
515.00,29.954
516.00,30.075
517.00,30.171
518.00,30.335
519.00,30.377
520.00,30.421
521.00,30.545
522.00,30.636
523.00,30.766
524.00,30.830
525.00,30.938
526.00,31.067
527.00,31.135
528.00,31.236
529.00,31.370
530.00,31.531
531.00,31.668
532.00,31.729
533.00,31.844
534.00,31.952
535.00,32.043
536.00,32.147
537.00,32.217
538.00,32.267
539.00,32.329
540.00,32.448
541.00,32.493
542.00,32.548
543.00,32.621
544.00,32.641
545.00,32.766
546.00,32.794
547.00,32.971
548.00,33.030
549.00,33.059
550.00,33.180
551.00,33.285
552.00,33.320
553.00,33.369
554.00,33.450
555.00,33.486
556.00,33.596
557.00,33.657
558.00,33.666
559.00,33.720
560.00,33.827
561.00,33.873
562.00,33.963
563.00,34.021
564.00,34.117
565.00,34.097
566.00,34.111
567.00,34.150
568.00,34.214
569.00,34.310
570.00,34.297
571.00,34.381
572.00,34.391
573.00,34.375
574.00,34.463
575.00,34.488
576.00,34.479
577.00,34.551
578.00,34.671
579.00,34.687
580.00,34.707
581.00,34.864
582.00,34.945
583.00,34.950
584.00,35.077
585.00,35.131
586.00,35.129
587.00,35.264
588.00,35.329
589.00,35.201
590.00,35.285
591.00,35.431
592.00,35.424
593.00,35.468
594.00,35.599
595.00,35.637
596.00,35.740
597.00,35.894
598.00,35.863
599.00,35.868
600.00,35.918
601.00,35.910
602.00,35.882
603.00,35.941
604.00,36.009
605.00,36.098
606.00,36.115
607.00,36.140
608.00,36.324
609.00,36.422
610.00,36.310
611.00,36.387
612.00,36.420
613.00,36.449
614.00,36.488
615.00,36.615
616.00,36.727
617.00,36.743
618.00,36.738
619.00,36.826
620.00,36.900
621.00,36.954
622.00,37.023
623.00,37.103
624.00,37.191
625.00,37.265
626.00,37.289
627.00,37.404
628.00,37.365
629.00,37.452
630.00,37.553
631.00,37.656
632.00,37.807
633.00,37.829
634.00,37.967
635.00,38.022
636.00,38.065
637.00,38.133
638.00,38.150
639.00,38.295
640.00,38.361
641.00,38.436
642.00,38.529
643.00,38.631
644.00,38.708
645.00,38.780
646.00,38.929
647.00,39.021
648.00,39.057
649.00,39.089
650.00,39.173
651.00,39.373
652.00,39.512
653.00,39.498
654.00,39.552
655.00,39.792
656.00,40.045
657.00,39.934
658.00,39.993
659.00,40.122
660.00,40.122
661.00,40.228
662.00,40.368
663.00,40.500
664.00,40.676
665.00,40.940
666.00,40.931
667.00,40.953
668.00,41.059
669.00,41.315
670.00,41.447
671.00,41.402
672.00,41.622
673.00,41.687
674.00,41.757
675.00,41.714
676.00,42.028
677.00,42.255
678.00,42.080
679.00,42.309
680.00,42.420
681.00,42.670
682.00,42.677
683.00,42.634
684.00,42.893
685.00,42.986
686.00,42.986
687.00,43.105
688.00,43.148
689.00,43.129
690.00,43.477
691.00,43.785
692.00,43.587
693.00,43.702
694.00,43.918
695.00,44.064
696.00,44.125
697.00,44.067
698.00,44.148
699.00,44.376
700.00,44.689
701.00,44.529
702.00,44.641
703.00,44.953
704.00,44.906
705.00,44.853
706.00,45.093
707.00,45.086
708.00,45.051
709.00,45.408
710.00,45.846
711.00,45.322
712.00,45.510
713.00,45.689
714.00,45.856
715.00,45.764
716.00,45.905
717.00,46.089
718.00,46.227
719.00,46.226
720.00,46.353
721.00,50.728
722.00,50.708
723.00,50.746
724.00,50.821
725.00,50.916
726.00,50.949
727.00,51.001
728.00,50.970
729.00,51.036
730.00,51.143
731.00,51.131
732.00,51.176
733.00,51.296
734.00,51.360
735.00,51.417
736.00,51.426
737.00,51.455
738.00,51.582
739.00,51.542
740.00,51.585
741.00,51.682
742.00,51.730
743.00,51.692
744.00,51.817
745.00,51.828
746.00,51.877
747.00,51.834
748.00,51.796
749.00,51.884
750.00,51.889
751.00,51.870
752.00,51.880
753.00,51.939
754.00,51.931
755.00,52.007
756.00,52.027
757.00,52.047
758.00,52.114
759.00,52.058
760.00,52.086
761.00,52.143
762.00,52.150
763.00,52.183
764.00,52.154
765.00,52.298
766.00,52.254
767.00,52.295
768.00,52.348
769.00,52.392
770.00,52.498
771.00,52.402
772.00,52.392
773.00,52.505
774.00,52.416
775.00,52.476
776.00,52.505
777.00,52.532
778.00,52.538
779.00,52.575
780.00,52.537
781.00,52.563
782.00,52.573
783.00,52.488
784.00,52.637
785.00,52.429
786.00,52.635
787.00,52.551
788.00,52.608
789.00,52.566
790.00,52.562
791.00,52.616
792.00,52.546
793.00,52.575
794.00,52.638
795.00,52.602
796.00,52.621
797.00,52.484
798.00,52.583
799.00,52.563
800.00,52.554
801.00,52.535
802.00,52.602
803.00,52.556
804.00,52.423
805.00,52.575
806.00,52.504
807.00,52.478
808.00,52.547
809.00,52.500
810.00,52.464
811.00,52.466
812.00,52.596
813.00,52.423
814.00,52.507
815.00,52.485
816.00,52.511
817.00,52.466
818.00,52.357
819.00,52.431
820.00,52.372
821.00,52.415
822.00,52.359
823.00,52.384
824.00,52.443
825.00,52.394
826.00,52.309
827.00,52.368
828.00,52.354
829.00,52.333
830.00,52.326
831.00,54.485
832.00,54.517
833.00,54.459
834.00,54.465
835.00,54.427
836.00,54.425
837.00,54.377
838.00,54.412
839.00,54.413
840.00,54.327
841.00,54.346
842.00,54.290
843.00,54.344
844.00,54.319
845.00,54.255
846.00,54.293
847.00,54.267
848.00,54.162
849.00,54.236
850.00,54.202
851.00,54.159
852.00,54.170
853.00,54.159
854.00,54.101
855.00,54.073
856.00,54.023
857.00,54.039
858.00,53.994
859.00,53.995
860.00,54.014
861.00,53.998
862.00,53.938
863.00,53.979
864.00,53.885
865.00,53.947
866.00,53.915
867.00,53.912
868.00,53.922
869.00,53.897
870.00,53.918
871.00,53.884
872.00,53.853
873.00,53.857
874.00,53.897
875.00,53.828
876.00,53.873
877.00,53.851
878.00,53.844
879.00,53.894
880.00,53.803
881.00,53.758
882.00,53.787
883.00,53.746
884.00,53.714
885.00,53.692
886.00,53.670
887.00,53.669
888.00,53.647
889.00,53.614
890.00,53.629
891.00,53.628
892.00,53.579
893.00,53.554
894.00,53.562
895.00,53.517
896.00,53.529
897.00,53.518
898.00,53.465
899.00,53.506
900.00,53.461
901.00,53.448
902.00,53.475
903.00,53.404
904.00,53.401
905.00,53.408
906.00,53.410
907.00,53.356
908.00,53.318
909.00,53.345
910.00,53.306
911.00,53.280
912.00,53.292
913.00,53.256
914.00,53.212
915.00,53.203
916.00,53.194
917.00,53.177
918.00,53.114
919.00,53.212
920.00,53.100
921.00,53.092
922.00,53.089
923.00,53.083
924.00,53.025
925.00,53.037
926.00,53.034
927.00,53.021
928.00,52.969
929.00,52.999
930.00,52.963
931.00,52.958
932.00,52.889
933.00,52.916
934.00,52.973
935.00,52.872
936.00,52.833
937.00,52.815
938.00,52.810
939.00,52.808
940.00,52.753
941.00,52.763
942.00,52.743
943.00,52.732
944.00,52.680
945.00,52.697
946.00,52.696
947.00,52.636
948.00,52.621
949.00,52.597
950.00,52.582
951.00,52.564
952.00,52.539
953.00,52.504
954.00,52.489
955.00,52.445
956.00,52.462
957.00,52.411
958.00,52.406
959.00,52.364
960.00,52.379
961.00,52.345
962.00,52.355
963.00,52.326
964.00,52.315
965.00,52.323
966.00,52.285
967.00,52.302
968.00,52.248
969.00,52.287
970.00,52.263
971.00,52.274
972.00,52.221
973.00,52.274
974.00,52.309
975.00,52.262
976.00,52.274
977.00,52.264
978.00,52.300
979.00,52.197
980.00,52.236
981.00,52.265
982.00,52.218
983.00,52.255
984.00,52.216
985.00,52.247
986.00,52.184
987.00,52.218
988.00,52.188
989.00,52.181
990.00,52.176
991.00,52.136
992.00,52.178
993.00,52.135
994.00,52.127
995.00,52.149
996.00,52.098
997.00,52.105
998.00,52.071
999.00,52.089
1000.00,52.043
1001.00,52.042
1002.00,52.026
1003.00,52.014
1004.00,52.013
1005.00,51.978
1006.00,52.026
1007.00,51.967
1008.00,51.969
1009.00,51.926
1010.00,51.909
1011.00,51.922
1012.00,51.885
1013.00,51.898
1014.00,51.856
1015.00,51.872
1016.00,51.826
1017.00,51.827
1018.00,51.823
1019.00,51.789
1020.00,51.798
1021.00,51.761
1022.00,51.778
1023.00,51.713
1024.00,51.717
1025.00,51.704
1026.00,51.699
1027.00,51.667
1028.00,51.668
1029.00,51.665
1030.00,51.620
1031.00,51.626
1032.00,51.581
1033.00,51.599
1034.00,51.560
1035.00,51.523
1036.00,51.506
1037.00,51.484
1038.00,51.469
1039.00,51.438
1040.00,51.430
1041.00,51.396
1042.00,51.385
1043.00,51.370
1044.00,51.415
1045.00,51.399
1046.00,51.381
1047.00,51.411
1048.00,51.414
1049.00,51.421
1050.00,51.415
1051.00,51.450
1052.00,51.436
1053.00,51.446
1054.00,51.425
1055.00,51.463
1056.00,51.464
1057.00,51.453
1058.00,51.457
1059.00,51.454
1060.00,51.472
1061.00,51.464
1062.00,51.445
1063.00,51.441
1064.00,51.441
1065.00,51.418
1066.00,51.414
1067.00,51.407
1068.00,51.417
1069.00,51.378
1070.00,51.365
1071.00,51.348
1072.00,51.376
1073.00,51.353
1074.00,51.365
1075.00,51.344
1076.00,51.342
1077.00,51.334
1078.00,51.299
1079.00,51.297
1080.00,51.295
1081.00,51.278
1082.00,51.268
1083.00,51.268
1084.00,51.272
1085.00,51.261
1086.00,51.257
1087.00,51.269
1088.00,51.230
1089.00,51.218
1090.00,51.206
1091.00,51.227
1092.00,51.214
1093.00,51.189
1094.00,51.178
1095.00,51.171
1096.00,51.156
1097.00,51.156
1098.00,51.126
1099.00,51.130
1100.00,51.114
1101.00,51.103
1102.00,51.089
1103.00,51.099
1104.00,51.074
1105.00,51.069
1106.00,51.042
1107.00,51.053
1108.00,51.043
1109.00,51.025
1110.00,51.026
1111.00,51.016
1112.00,51.001
1113.00,51.007
1114.00,50.999
1115.00,50.998
1116.00,50.987
1117.00,50.965
1118.00,50.963
1119.00,50.962
1120.00,50.952
1121.00,50.974
1122.00,50.933
1123.00,50.921
1124.00,50.937
1125.00,50.920
1126.00,50.913
1127.00,50.928
1128.00,50.884
1129.00,50.867
1130.00,50.860
1131.00,50.856
1132.00,50.887
1133.00,50.817
1134.00,50.843
1135.00,50.825
1136.00,50.828
1137.00,50.830
1138.00,50.819
1139.00,50.823
1140.00,50.819
1141.00,50.791
1142.00,50.814
1143.00,50.820
1144.00,50.788
1145.00,50.792
1146.00,50.786
1147.00,50.779
1148.00,50.788
1149.00,50.796
1150.00,50.784
1151.00,50.795
1152.00,50.778
1153.00,50.767
1154.00,50.759
1155.00,50.767
1156.00,50.739
1157.00,50.745
1158.00,50.738
1159.00,50.743
1160.00,50.739
1161.00,50.739
1162.00,50.745
1163.00,50.747
1164.00,50.729
1165.00,50.735
1166.00,50.741
1167.00,50.710
1168.00,50.743
1169.00,50.732
1170.00,50.726
1171.00,50.709
1172.00,50.714
1173.00,50.710
1174.00,50.703
1175.00,50.700
1176.00,50.705
1177.00,50.684
1178.00,50.683
1179.00,50.699
1180.00,50.690
1181.00,50.710
1182.00,50.700
1183.00,50.687
1184.00,50.691
1185.00,50.693
1186.00,50.678
1187.00,50.677
1188.00,50.667
1189.00,50.666
1190.00,50.666
1191.00,50.674
1192.00,50.700
1193.00,50.678
1194.00,50.681
1195.00,50.652
1196.00,50.681
1197.00,50.666
1198.00,50.652
1199.00,50.635
1200.00,50.612
1201.00,50.639
1202.00,50.624
1203.00,50.625
1204.00,50.633
1205.00,50.650
1206.00,50.655
1207.00,50.664
1208.00,50.640
1209.00,50.662
1210.00,50.645
1211.00,50.638
1212.00,50.658
1213.00,50.624
1214.00,50.645
1215.00,50.638
1216.00,50.629
1217.00,50.634
1218.00,50.634
1219.00,50.641
1220.00,50.625
1221.00,50.644
1222.00,50.618
1223.00,50.658
1224.00,50.667
1225.00,50.637
1226.00,50.648
1227.00,50.644
1228.00,50.665
1229.00,50.651
1230.00,50.666
1231.00,50.673
1232.00,50.685
1233.00,50.672
1234.00,50.688
1235.00,50.683
1236.00,50.669
1237.00,50.680
1238.00,50.678
1239.00,50.685
1240.00,50.676
1241.00,50.683
1242.00,50.702
1243.00,50.697
1244.00,50.673
1245.00,50.726
1246.00,50.728
1247.00,50.698
1248.00,50.696
1249.00,50.700
1250.00,50.717
1251.00,50.704
1252.00,50.709
1253.00,50.697
1254.00,50.734
1255.00,50.714
1256.00,50.698
1257.00,50.697
1258.00,50.735
1259.00,50.729
1260.00,50.737
1261.00,50.748
1262.00,50.731
1263.00,50.720
1264.00,50.737
1265.00,50.740
1266.00,50.725
1267.00,50.764
1268.00,50.768
1269.00,50.760
1270.00,50.774
1271.00,50.776
1272.00,50.781
1273.00,50.796
1274.00,50.790
1275.00,50.806
1276.00,50.792
1277.00,50.798
1278.00,50.819
1279.00,50.806
1280.00,50.800
1281.00,50.816
1282.00,50.812
1283.00,50.811
1284.00,50.797
1285.00,50.805
1286.00,50.812
1287.00,50.811
1288.00,50.820
1289.00,50.821
1290.00,50.850
1291.00,50.842
1292.00,50.846
1293.00,50.847
1294.00,50.867
1295.00,50.875
1296.00,50.863
1297.00,50.883
1298.00,50.905
1299.00,50.868
1300.00,50.912
1301.00,50.901
1302.00,50.912
1303.00,50.912
1304.00,50.890
1305.00,50.921
1306.00,50.923
1307.00,50.930
1308.00,50.930
1309.00,50.930
1310.00,50.921
1311.00,50.917
1312.00,50.926
1313.00,50.935
1314.00,50.952
1315.00,50.972
1316.00,50.965
1317.00,50.987
1318.00,50.976
1319.00,50.975
1320.00,50.986
1321.00,51.145
1322.00,51.155
1323.00,51.143
1324.00,51.115
1325.00,51.099
1326.00,51.129
1327.00,51.119
1328.00,51.148
1329.00,51.058
1330.00,51.119
1331.00,51.124
1332.00,51.111
1333.00,51.123
1334.00,51.149
1335.00,51.161
1336.00,51.204
1337.00,51.235
1338.00,51.287
1339.00,51.327
1340.00,51.390
1341.00,51.452
1342.00,51.502
1343.00,51.552
1344.00,51.608
1345.00,51.662
1346.00,51.696
1347.00,51.712
1348.00,51.738
1349.00,51.753
1350.00,51.782
1351.00,51.790
1352.00,51.805
1353.00,51.845
1354.00,51.817
1355.00,51.780
1356.00,51.829
1357.00,51.825
1358.00,51.839
1359.00,51.848
1360.00,51.841
1361.00,51.827
1362.00,51.773
1363.00,51.949
1364.00,51.939
1365.00,51.845
1366.00,51.916
1367.00,51.837
1368.00,51.805
1369.00,51.867
1370.00,51.809
1371.00,51.794
1372.00,51.802
1373.00,51.837
1374.00,51.858
1375.00,51.780
1376.00,51.791
1377.00,51.792
1378.00,51.833
1379.00,51.825
1380.00,51.801
1381.00,51.811
1382.00,51.740
1383.00,51.825
1384.00,51.870
1385.00,51.879
1386.00,51.826
1387.00,51.873
1388.00,51.773
1389.00,51.777
1390.00,51.375
1391.00,51.784
1392.00,51.792
1393.00,51.783
1394.00,51.828
1395.00,51.772
1396.00,51.717
1397.00,51.756
1398.00,51.809
1399.00,51.839
1400.00,51.744
1401.00,51.765
1402.00,51.752
1403.00,51.822
1404.00,51.791
1405.00,51.883
1406.00,51.873
1407.00,51.869
1408.00,51.879
1409.00,51.832
1410.00,51.890
1411.00,51.903
1412.00,51.911
1413.00,51.898
1414.00,51.880
1415.00,51.912
1416.00,51.922
1417.00,51.938
1418.00,51.929
1419.00,51.959
1420.00,51.970
1421.00,51.978
1422.00,52.004
1423.00,52.006
1424.00,52.009
1425.00,52.035
1426.00,52.022
1427.00,52.064
1428.00,52.042
1429.00,52.042
1430.00,52.072
1431.00,52.071
1432.00,52.098
1433.00,52.103
1434.00,52.115
1435.00,52.213
1436.00,52.181
1437.00,52.159
1438.00,52.183
1439.00,52.218
1440.00,52.219
1441.00,52.226
1442.00,52.241
1443.00,52.264
1444.00,52.344
1445.00,52.271
1446.00,52.294
1447.00,52.322
1448.00,52.364
1449.00,52.370
1450.00,52.378
1451.00,52.392
1452.00,52.393
1453.00,52.387
1454.00,52.424
1455.00,52.430
1456.00,52.446
1457.00,52.442
1458.00,52.474
1459.00,52.487
1460.00,52.522
1461.00,52.515
1462.00,52.544
1463.00,52.539
1464.00,52.540
1465.00,52.569
1466.00,52.556
1467.00,52.589
1468.00,52.631
1469.00,52.608
1470.00,52.617
1471.00,52.639
1472.00,52.662
1473.00,52.674
1474.00,52.704
1475.00,52.711
1476.00,52.753
1477.00,52.734
1478.00,52.750
1479.00,52.801
1480.00,52.778
1481.00,52.799
1482.00,52.819
1483.00,52.828
1484.00,52.849
1485.00,52.842
1486.00,52.852
1487.00,52.883
1488.00,52.900
1489.00,52.886
1490.00,52.889
1491.00,52.905
1492.00,52.926
1493.00,52.920
1494.00,52.959
1495.00,52.947
1496.00,52.966
1497.00,52.934
1498.00,52.972
1499.00,52.986
1500.00,52.991
1501.00, 
1502.00, 
1503.00, 
1504.00, 
1505.00, 
1506.00, 
1507.00, 
1508.00, 
1509.00, 
1510.00, 
1511.00, 
1512.00, 
1513.00, 
1514.00, 
1515.00, 
1516.00, 
1517.00, 
1518.00, 
1519.00, 
1520.00, 
1521.00, 
1522.00, 
1523.00, 
1524.00, 
1525.00, 
1526.00, 
1527.00, 
1528.00, 
1529.00, 
1530.00, 
1531.00, 
1532.00, 
1533.00, 
1534.00, 
1535.00, 
1536.00, 
1537.00, 
1538.00, 
1539.00, 
1540.00, 
1541.00, 
1542.00, 
1543.00, 
1544.00, 
1545.00, 
1546.00, 
1547.00, 
1548.00, 
1549.00, 
1550.00, 
1551.00, 
1552.00, 
1553.00, 
1554.00, 
1555.00, 
1556.00, 
1557.00, 
1558.00, 
1559.00, 
1560.00, 
1561.00, 
1562.00, 
1563.00, 
1564.00, 
1565.00, 
1566.00, 
1567.00, 
1568.00, 
1569.00, 
1570.00, 
1571.00, 
1572.00, 
1573.00, 
1574.00, 
1575.00, 
1576.00, 
1577.00, 
1578.00, 
1579.00, 
1580.00, 
1581.00, 
1582.00, 
1583.00, 
1584.00, 
1585.00, 
1586.00, 
1587.00, 
1588.00, 
1589.00, 
1590.00, 
1591.00, 
1592.00, 
1593.00, 
1594.00, 
1595.00, 
1596.00, 
1597.00, 
1598.00, 
1599.00, 
1600.00, 
1601.00, 
1602.00, 
1603.00, 
1604.00, 
1605.00, 
1606.00, 
1607.00, 
1608.00, 
1609.00, 
1610.00, 
1611.00, 
1612.00, 
1613.00, 
1614.00, 
1615.00, 
1616.00, 
1617.00, 
1618.00, 
1619.00, 
1620.00, 
1621.00, 
1622.00, 
1623.00, 
1624.00, 
1625.00, 
1626.00, 
1627.00, 
1628.00, 
1629.00, 
1630.00, 
1631.00, 
1632.00, 
1633.00, 
1634.00, 
1635.00, 
1636.00, 
1637.00, 
1638.00, 
1639.00, 
1640.00, 
1641.00, 
1642.00, 
1643.00, 
1644.00, 
1645.00, 
1646.00, 
1647.00, 
1648.00, 
1649.00, 
1650.00, 
1651.00, 
1652.00, 
1653.00, 
1654.00, 
1655.00, 
1656.00, 
1657.00, 
1658.00, 
1659.00, 
1660.00, 
1661.00, 
1662.00, 
1663.00, 
1664.00, 
1665.00, 
1666.00, 
1667.00, 
1668.00, 
1669.00, 
1670.00, 
1671.00, 
1672.00, 
1673.00, 
1674.00, 
1675.00, 
1676.00, 
1677.00, 
1678.00, 
1679.00, 
1680.00, 
1681.00, 
1682.00, 
1683.00, 
1684.00, 
1685.00, 
1686.00, 
1687.00, 
1688.00, 
1689.00, 
1690.00, 
1691.00, 
1692.00, 
1693.00, 
1694.00, 
1695.00, 
1696.00, 
1697.00, 
1698.00, 
1699.00, 
1700.00, 
1701.00, 
1702.00, 
1703.00, 
1704.00, 
1705.00, 
1706.00, 
1707.00, 
1708.00, 
1709.00, 
1710.00, 
1711.00, 
1712.00, 
1713.00, 
1714.00, 
1715.00, 
1716.00, 
1717.00, 
1718.00, 
1719.00, 
1720.00, 
1721.00, 
1722.00, 
1723.00, 
1724.00, 
1725.00, 
1726.00, 
1727.00, 
1728.00, 
1729.00, 
1730.00, 
1731.00, 
1732.00, 
1733.00, 
1734.00, 
1735.00, 
1736.00, 
1737.00, 
1738.00, 
1739.00, 
1740.00, 
1741.00, 
1742.00, 
1743.00, 
1744.00, 
1745.00, 
1746.00, 
1747.00, 
1748.00, 
1749.00, 
1750.00, 
1751.00, 
1752.00, 
1753.00, 
1754.00, 
1755.00, 
1756.00, 
1757.00, 
1758.00, 
1759.00, 
1760.00, 
1761.00, 
1762.00, 
1763.00, 
1764.00, 
1765.00, 
1766.00, 
1767.00, 
1768.00, 
1769.00, 
1770.00, 
1771.00, 
1772.00, 
1773.00, 
1774.00, 
1775.00, 
1776.00, 
1777.00, 
1778.00, 
1779.00, 
1780.00, 
1781.00, 
1782.00, 
1783.00, 
1784.00, 
1785.00, 
1786.00, 
1787.00, 
1788.00, 
1789.00, 
1790.00, 
1791.00, 
1792.00, 
1793.00, 
1794.00, 
1795.00, 
1796.00, 
1797.00, 
1798.00, 
1799.00, 
1800.00, 
1801.00, 
1802.00, 
1803.00, 
1804.00, 
1805.00, 
1806.00, 
1807.00, 
1808.00, 
1809.00, 
1810.00, 
1811.00, 
1812.00, 
1813.00, 
1814.00, 
1815.00, 
1816.00, 
1817.00, 
1818.00, 
1819.00, 
1820.00, 
1821.00, 
1822.00, 
1823.00, 
1824.00, 
1825.00, 
1826.00, 
1827.00, 
1828.00, 
1829.00, 
1830.00, 
1831.00, 
1832.00, 
1833.00, 
1834.00, 
1835.00, 
1836.00, 
1837.00, 
1838.00, 
1839.00, 
1840.00, 
1841.00, 
1842.00, 
1843.00, 
1844.00, 
1845.00, 
1846.00, 
1847.00, 
1848.00, 
1849.00, 
1850.00, 
1851.00, 
1852.00, 
1853.00, 
1854.00, 
1855.00, 
1856.00, 
1857.00, 
1858.00, 
1859.00, 
1860.00, 
1861.00, 
1862.00, 
1863.00, 
1864.00, 
1865.00, 
1866.00, 
1867.00, 
1868.00, 
1869.00, 
1870.00, 
1871.00, 
1872.00, 
1873.00, 
1874.00, 
1875.00, 
1876.00, 
1877.00, 
1878.00, 
1879.00, 
1880.00, 
1881.00, 
1882.00, 
1883.00, 
1884.00, 
1885.00, 
1886.00, 
1887.00, 
1888.00, 
1889.00, 
1890.00, 
1891.00, 
1892.00, 
1893.00, 
1894.00, 
1895.00, 
1896.00, 
1897.00, 
1898.00, 
1899.00, 
1900.00, 
1901.00, 
1902.00, 
1903.00, 
1904.00, 
1905.00, 
1906.00, 
1907.00, 
1908.00, 
1909.00, 
1910.00, 
1911.00, 
1912.00, 
1913.00, 
1914.00, 
1915.00, 
1916.00, 
1917.00, 
1918.00, 
1919.00, 
1920.00, 
1921.00, 
1922.00, 
1923.00, 
1924.00, 
1925.00, 
1926.00, 
1927.00, 
1928.00, 
1929.00, 
1930.00, 
1931.00, 
1932.00, 
1933.00, 
1934.00, 
1935.00, 
1936.00, 
1937.00, 
1938.00, 
1939.00, 
1940.00, 
1941.00, 
1942.00, 
1943.00, 
1944.00, 
1945.00, 
1946.00, 
1947.00, 
1948.00, 
1949.00, 
1950.00, 
1951.00, 
1952.00, 
1953.00, 
1954.00, 
1955.00, 
1956.00, 
1957.00, 
1958.00, 
1959.00, 
1960.00, 
1961.00, 
1962.00, 
1963.00, 
1964.00, 
1965.00, 
1966.00, 
1967.00, 
1968.00, 
1969.00, 
1970.00, 
1971.00, 
1972.00, 
1973.00, 
1974.00, 
1975.00, 
1976.00, 
1977.00, 
1978.00, 
1979.00, 
1980.00, 
1981.00, 
1982.00, 
1983.00, 
1984.00, 
1985.00, 
1986.00, 
1987.00, 
1988.00, 
1989.00, 
1990.00, 
1991.00, 
1992.00, 
1993.00, 
1994.00, 
1995.00, 
1996.00, 
1997.00, 
1998.00, 
1999.00, 
2000.00, 
2001.00, 
2002.00, 
2003.00, 
2004.00, 
2005.00, 
2006.00, 
2007.00, 
2008.00, 
2009.00, 
2010.00, 
2011.00, 
2012.00, 
2013.00, 
2014.00, 
2015.00, 
2016.00, 
2017.00, 
2018.00, 
2019.00, 
2020.00, 
2021.00, 
2022.00, 
2023.00, 
2024.00, 
2025.00, 
2026.00, 
2027.00, 
2028.00, 
2029.00, 
2030.00, 
2031.00, 
2032.00, 
2033.00, 
2034.00, 
2035.00, 
2036.00, 
2037.00, 
2038.00, 
2039.00, 
2040.00, 
2041.00, 
2042.00, 
2043.00, 
2044.00, 
2045.00, 
2046.00, 
2047.00, 
2048.00, 
2049.00, 
2050.00, 
2051.00, 
2052.00, 
2053.00, 
2054.00, 
2055.00, 
2056.00, 
2057.00, 
2058.00, 
2059.00, 
2060.00, 
2061.00, 
2062.00, 
2063.00, 
2064.00, 
2065.00, 
2066.00, 
2067.00, 
2068.00, 
2069.00, 
2070.00, 
2071.00, 
2072.00, 
2073.00, 
2074.00, 
2075.00, 
2076.00, 
2077.00, 
2078.00, 
2079.00, 
2080.00, 
2081.00, 
2082.00, 
2083.00, 
2084.00, 
2085.00, 
2086.00, 
2087.00, 
2088.00, 
2089.00, 
2090.00, 
2091.00, 
2092.00, 
2093.00, 
2094.00, 
2095.00, 
2096.00, 
2097.00, 
2098.00, 
2099.00, 
2100.00, 
2101.00, 
2102.00, 
2103.00, 
2104.00, 
2105.00, 
2106.00, 
2107.00, 
2108.00, 
2109.00, 
2110.00, 
2111.00, 
2112.00, 
2113.00, 
2114.00, 
2115.00, 
2116.00, 
2117.00, 
2118.00, 
2119.00, 
2120.00, 
2121.00, 
2122.00, 
2123.00, 
2124.00, 
2125.00, 
2126.00, 
2127.00, 
2128.00, 
2129.00, 
2130.00, 
2131.00, 
2132.00, 
2133.00, 
2134.00, 
2135.00, 
2136.00, 
2137.00, 
2138.00, 
2139.00, 
2140.00, 
2141.00, 
2142.00, 
2143.00, 
2144.00, 
2145.00, 
2146.00, 
2147.00, 
2148.00, 
2149.00, 
2150.00, 
2151.00, 
2152.00, 
2153.00, 
2154.00, 
2155.00, 
2156.00, 
2157.00, 
2158.00, 
2159.00, 
2160.00, 
2161.00, 
2162.00, 
2163.00, 
2164.00, 
2165.00, 
2166.00, 
2167.00, 
2168.00, 
2169.00, 
2170.00, 
2171.00, 
2172.00, 
2173.00, 
2174.00, 
2175.00, 
2176.00, 
2177.00, 
2178.00, 
2179.00, 
2180.00, 
2181.00, 
2182.00, 
2183.00, 
2184.00, 
2185.00, 
2186.00, 
2187.00, 
2188.00, 
2189.00, 
2190.00, 
2191.00, 
2192.00, 
2193.00, 
2194.00, 
2195.00, 
2196.00, 
2197.00, 
2198.00, 
2199.00, 
2200.00, 
2201.00, 
2202.00, 
2203.00, 
2204.00, 
2205.00, 
2206.00, 
2207.00, 
2208.00, 
2209.00, 
2210.00, 
2211.00, 
2212.00, 
2213.00, 
2214.00, 
2215.00, 
2216.00, 
2217.00, 
2218.00, 
2219.00, 
2220.00, 
2221.00, 
2222.00, 
2223.00, 
2224.00, 
2225.00, 
2226.00, 
2227.00, 
2228.00, 
2229.00, 
2230.00, 
2231.00, 
2232.00, 
2233.00, 
2234.00, 
2235.00, 
2236.00, 
2237.00, 
2238.00, 
2239.00, 
2240.00, 
2241.00, 
2242.00, 
2243.00, 
2244.00, 
2245.00, 
2246.00, 
2247.00, 
2248.00, 
2249.00, 
2250.00, 
2251.00, 
2252.00, 
2253.00, 
2254.00, 
2255.00, 
2256.00, 
2257.00, 
2258.00, 
2259.00, 
2260.00, 
2261.00, 
2262.00, 
2263.00, 
2264.00, 
2265.00, 
2266.00, 
2267.00, 
2268.00, 
2269.00, 
2270.00, 
2271.00, 
2272.00, 
2273.00, 
2274.00, 
2275.00, 
2276.00, 
2277.00, 
2278.00, 
2279.00, 
2280.00, 
2281.00, 
2282.00, 
2283.00, 
2284.00, 
2285.00, 
2286.00, 
2287.00, 
2288.00, 
2289.00, 
2290.00, 
2291.00, 
2292.00, 
2293.00, 
2294.00, 
2295.00, 
2296.00, 
2297.00, 
2298.00, 
2299.00, 
2300.00, 
2301.00, 
2302.00, 
2303.00, 
2304.00, 
2305.00, 
2306.00, 
2307.00, 
2308.00, 
2309.00, 
2310.00, 
2311.00, 
2312.00, 
2313.00, 
2314.00, 
2315.00, 
2316.00, 
2317.00, 
2318.00, 
2319.00, 
2320.00, 
2321.00, 
2322.00, 
2323.00, 
2324.00, 
2325.00, 
2326.00, 
2327.00, 
2328.00, 
2329.00, 
2330.00, 
2331.00, 
2332.00, 
2333.00, 
2334.00, 
2335.00, 
2336.00, 
2337.00, 
2338.00, 
2339.00, 
2340.00, 
2341.00, 
2342.00, 
2343.00, 
2344.00, 
2345.00, 
2346.00, 
2347.00, 
2348.00, 
2349.00, 
2350.00, 
2351.00, 
2352.00, 
2353.00, 
2354.00, 
2355.00, 
2356.00, 
2357.00, 
2358.00, 
2359.00, 
2360.00, 
2361.00, 
2362.00, 
2363.00, 
2364.00, 
2365.00, 
2366.00, 
2367.00, 
2368.00, 
2369.00, 
2370.00, 
2371.00, 
2372.00, 
2373.00, 
2374.00, 
2375.00, 
2376.00, 
2377.00, 
2378.00, 
2379.00, 
2380.00, 
2381.00, 
2382.00, 
2383.00, 
2384.00, 
2385.00, 
2386.00, 
2387.00, 
2388.00, 
2389.00, 
2390.00, 
2391.00, 
2392.00, 
2393.00, 
2394.00, 
2395.00, 
2396.00, 
2397.00, 
2398.00, 
2399.00, 
2400.00, 
2401.00, 
2402.00, 
2403.00, 
2404.00, 
2405.00, 
2406.00, 
2407.00, 
2408.00, 
2409.00, 
2410.00, 
2411.00, 
2412.00, 
2413.00, 
2414.00, 
2415.00, 
2416.00, 
2417.00, 
2418.00, 
2419.00, 
2420.00, 
2421.00, 
2422.00, 
2423.00, 
2424.00, 
2425.00, 
2426.00, 
2427.00, 
2428.00, 
2429.00, 
2430.00, 
2431.00, 
2432.00, 
2433.00, 
2434.00, 
2435.00, 
2436.00, 
2437.00, 
2438.00, 
2439.00, 
2440.00, 
2441.00, 
2442.00, 
2443.00, 
2444.00, 
2445.00, 
2446.00, 
2447.00, 
2448.00, 
2449.00, 
2450.00, 
2451.00, 
2452.00, 
2453.00, 
2454.00, 
2455.00, 
2456.00, 
2457.00, 
2458.00, 
2459.00, 
2460.00, 
2461.00, 
2462.00, 
2463.00, 
2464.00, 
2465.00, 
2466.00, 
2467.00, 
2468.00, 
2469.00, 
2470.00, 
2471.00, 
2472.00, 
2473.00, 
2474.00, 
2475.00, 
2476.00, 
2477.00, 
2478.00, 
2479.00, 
2480.00, 
2481.00, 
2482.00, 
2483.00, 
2484.00, 
2485.00, 
2486.00, 
2487.00, 
2488.00, 
2489.00, 
2490.00, 
2491.00, 
2492.00, 
2493.00, 
2494.00, 
2495.00, 
2496.00, 
2497.00, 
2498.00, 
2499.00, 
2500.00, 
2501.00, 
2502.00, 
2503.00, 
2504.00, 
2505.00, 
2506.00, 
2507.00, 
2508.00, 
2509.00, 
2510.00, 
2511.00, 
2512.00, 
2513.00, 
2514.00, 
2515.00, 
2516.00, 
2517.00, 
2518.00, 
2519.00, 
2520.00, 
2521.00, 
2522.00, 
2523.00, 
2524.00, 
2525.00, 
2526.00, 
2527.00, 
2528.00, 
2529.00, 
2530.00, 
2531.00, 
2532.00, 
2533.00, 
2534.00, 
2535.00, 
2536.00, 
2537.00, 
2538.00, 
2539.00, 
2540.00, 
2541.00, 
2542.00, 
2543.00, 
2544.00, 
2545.00, 
2546.00, 
2547.00, 
2548.00, 
2549.00, 
2550.00, 
2551.00, 
2552.00, 
2553.00, 
2554.00, 
2555.00, 
2556.00, 
2557.00, 
2558.00, 
2559.00, 
2560.00, 
2561.00, 
2562.00, 
2563.00, 
2564.00, 
2565.00, 
2566.00, 
2567.00, 
2568.00, 
2569.00, 
2570.00, 
2571.00, 
2572.00, 
2573.00, 
2574.00, 
2575.00, 
2576.00, 
2577.00, 
2578.00, 
2579.00, 
2580.00, 
2581.00, 
2582.00, 
2583.00, 
2584.00, 
2585.00, 
2586.00, 
2587.00, 
2588.00, 
2589.00, 
2590.00, 
2591.00, 
2592.00, 
2593.00, 
2594.00, 
2595.00, 
2596.00, 
2597.00, 
2598.00, 
2599.00, 
2600.00, 
