"2cP1 - RawData"
"Wavelength nm.","T%"
200.00,0.001
201.00,0.001
202.00,-0.004
203.00,0.002
204.00,0.002
205.00,0.003
206.00,0.001
207.00,0.003
208.00,0.001
209.00,0.003
210.00,0.000
211.00,0.003
212.00,0.001
213.00,0.002
214.00,0.000
215.00,0.003
216.00,0.004
217.00,0.002
218.00,-0.001
219.00,-0.001
220.00,0.002
221.00,0.002
222.00,-0.001
223.00,0.002
224.00,-0.000
225.00,0.003
226.00,0.000
227.00,0.002
228.00,0.000
229.00,0.001
230.00,0.000
231.00,0.000
232.00,0.002
233.00,-0.000
234.00,0.001
235.00,0.001
236.00,0.000
237.00,-0.001
238.00,-0.000
239.00,0.001
240.00,-0.001
241.00,0.001
242.00,-0.002
243.00,0.000
244.00,0.001
245.00,0.001
246.00,-0.001
247.00,0.000
248.00,0.000
249.00,0.002
250.00,0.000
251.00,-0.000
252.00,0.002
253.00,-0.001
254.00,0.001
255.00,0.000
256.00,-0.000
257.00,0.001
258.00,-0.001
259.00,-0.001
260.00,0.002
261.00,-0.001
262.00,0.002
263.00,0.001
264.00,0.000
265.00,-0.002
266.00,-0.000
267.00,-0.002
268.00,-0.000
269.00,0.000
270.00,-0.000
271.00,-0.000
272.00,0.001
273.00,-0.001
274.00,0.001
275.00,0.001
276.00,0.001
277.00,0.000
278.00,0.001
279.00,0.001
280.00,-0.001
281.00,-0.001
282.00,0.001
283.00,-0.000
284.00,0.000
285.00,0.000
286.00,-0.002
287.00,-0.000
288.00,-0.001
289.00,-0.001
290.00,0.000
291.00,0.000
292.00,0.001
293.00,0.001
294.00,0.001
295.00,-0.000
296.00,0.000
297.00,-0.001
298.00,0.001
299.00,0.004
300.00,0.001
301.00,0.004
302.00,0.005
303.00,0.009
304.00,0.012
305.00,0.019
306.00,0.029
307.00,0.047
308.00,0.068
309.00,0.111
310.00,0.149
311.00,0.210
312.00,0.281
313.00,0.368
314.00,0.500
315.00,0.656
316.00,0.832
317.00,1.054
318.00,1.295
319.00,1.612
320.00,1.956
321.00,2.335
322.00,2.773
323.00,3.275
324.00,3.791
325.00,4.307
326.00,4.881
327.00,5.538
328.00,6.141
329.00,6.810
330.00,7.506
331.00,8.214
332.00,8.918
333.00,9.684
334.00,10.376
335.00,11.129
336.00,11.917
337.00,12.591
338.00,13.336
339.00,14.004
340.00,14.701
341.00,15.351
342.00,15.969
343.00,16.614
344.00,17.181
345.00,17.749
346.00,18.232
347.00,18.799
348.00,19.249
349.00,19.755
350.00,20.139
351.00,20.556
352.00,20.933
353.00,21.281
354.00,21.559
355.00,21.919
356.00,22.217
357.00,22.513
358.00,22.783
359.00,23.016
360.00,23.194
361.00,23.434
362.00,23.598
363.00,23.765
364.00,23.885
365.00,24.113
366.00,24.189
367.00,24.310
368.00,24.416
369.00,24.488
370.00,24.536
371.00,24.591
372.00,24.603
373.00,24.636
374.00,24.623
375.00,24.636
376.00,24.629
377.00,24.600
378.00,24.531
379.00,24.495
380.00,24.460
381.00,24.471
382.00,24.515
383.00,24.492
384.00,24.570
385.00,24.605
386.00,24.655
387.00,24.730
388.00,24.759
389.00,24.825
390.00,24.837
391.00,24.931
392.00,24.957
393.00,25.014
394.00,24.965
395.00,25.005
396.00,24.993
397.00,25.003
398.00,25.013
399.00,24.999
400.00,25.036
401.00,25.049
402.00,25.068
403.00,25.058
404.00,25.033
405.00,25.043
406.00,25.019
407.00,24.996
408.00,24.997
409.00,24.947
410.00,24.955
411.00,24.941
412.00,24.901
413.00,24.878
414.00,24.929
415.00,24.899
416.00,24.935
417.00,24.944
418.00,24.946
419.00,24.968
420.00,25.010
421.00,25.094
422.00,25.131
423.00,25.133
424.00,25.194
425.00,25.206
426.00,25.264
427.00,25.265
428.00,25.314
429.00,25.343
430.00,25.394
431.00,25.458
432.00,25.453
433.00,25.541
434.00,25.606
435.00,25.634
436.00,25.716
437.00,25.766
438.00,25.807
439.00,25.897
440.00,25.973
441.00,26.027
442.00,26.117
443.00,26.177
444.00,26.269
445.00,26.345
446.00,26.437
447.00,26.544
448.00,26.648
449.00,26.710
450.00,26.825
451.00,26.923
452.00,27.026
453.00,27.115
454.00,27.209
455.00,27.341
456.00,27.444
457.00,27.540
458.00,27.619
459.00,27.723
460.00,27.857
461.00,27.955
462.00,28.098
463.00,28.201
464.00,28.322
465.00,28.355
466.00,28.555
467.00,28.696
468.00,28.730
469.00,28.883
470.00,28.949
471.00,29.053
472.00,29.167
473.00,29.237
474.00,29.355
475.00,29.468
476.00,29.536
477.00,29.660
478.00,29.783
479.00,29.920
480.00,30.095
481.00,30.192
482.00,30.350
483.00,30.472
484.00,30.601
485.00,30.771
486.00,30.879
487.00,31.008
488.00,31.153
489.00,31.308
490.00,31.414
491.00,31.568
492.00,31.771
493.00,31.833
494.00,31.870
495.00,32.028
496.00,32.157
497.00,32.214
498.00,32.409
499.00,32.515
500.00,32.584
501.00,32.759
502.00,32.894
503.00,33.000
504.00,33.050
505.00,33.156
506.00,33.282
507.00,33.425
508.00,33.567
509.00,33.691
510.00,33.808
511.00,33.907
512.00,34.086
513.00,34.123
514.00,34.277
515.00,34.366
516.00,34.428
517.00,34.591
518.00,34.684
519.00,34.744
520.00,34.844
521.00,34.931
522.00,34.989
523.00,35.110
524.00,35.180
525.00,35.245
526.00,35.336
527.00,35.388
528.00,35.454
529.00,35.562
530.00,35.646
531.00,35.870
532.00,35.921
533.00,35.992
534.00,36.103
535.00,36.189
536.00,36.287
537.00,36.348
538.00,36.423
539.00,36.514
540.00,36.605
541.00,36.609
542.00,36.698
543.00,36.798
544.00,36.824
545.00,36.936
546.00,36.951
547.00,37.038
548.00,37.118
549.00,37.137
550.00,37.224
551.00,37.374
552.00,37.456
553.00,37.528
554.00,37.623
555.00,37.653
556.00,37.712
557.00,37.794
558.00,37.840
559.00,37.887
560.00,37.940
561.00,37.999
562.00,38.098
563.00,38.053
564.00,38.149
565.00,38.211
566.00,38.182
567.00,38.230
568.00,38.277
569.00,38.338
570.00,38.297
571.00,38.396
572.00,38.428
573.00,38.468
574.00,38.531
575.00,38.566
576.00,38.613
577.00,38.649
578.00,38.732
579.00,38.789
580.00,38.859
581.00,38.914
582.00,39.016
583.00,39.114
584.00,39.162
585.00,39.243
586.00,39.268
587.00,39.357
588.00,39.427
589.00,39.439
590.00,39.546
591.00,39.594
592.00,39.589
593.00,39.604
594.00,39.644
595.00,39.696
596.00,39.825
597.00,39.967
598.00,39.982
599.00,39.942
600.00,39.987
601.00,40.020
602.00,40.050
603.00,40.063
604.00,40.155
605.00,40.179
606.00,40.230
607.00,40.201
608.00,40.302
609.00,40.338
610.00,40.360
611.00,40.416
612.00,40.507
613.00,40.472
614.00,40.475
615.00,40.587
616.00,40.669
617.00,40.692
618.00,40.750
619.00,40.818
620.00,40.851
621.00,40.861
622.00,40.942
623.00,41.007
624.00,41.049
625.00,41.123
626.00,41.097
627.00,41.223
628.00,41.255
629.00,41.319
630.00,41.415
631.00,41.415
632.00,41.570
633.00,41.586
634.00,41.607
635.00,41.656
636.00,41.772
637.00,41.820
638.00,41.850
639.00,41.952
640.00,41.998
641.00,42.024
642.00,42.031
643.00,42.151
644.00,42.226
645.00,42.265
646.00,42.371
647.00,42.414
648.00,42.485
649.00,42.600
650.00,42.626
651.00,42.757
652.00,42.828
653.00,42.797
654.00,42.986
655.00,43.025
656.00,43.077
657.00,43.163
658.00,43.058
659.00,43.121
660.00,43.324
661.00,43.373
662.00,43.540
663.00,43.532
664.00,43.642
665.00,43.667
666.00,43.782
667.00,43.955
668.00,43.893
669.00,43.891
670.00,44.158
671.00,44.381
672.00,44.173
673.00,44.408
674.00,44.424
675.00,44.310
676.00,44.588
677.00,44.644
678.00,44.620
679.00,44.734
680.00,44.862
681.00,44.919
682.00,45.046
683.00,45.088
684.00,45.253
685.00,45.323
686.00,45.307
687.00,45.391
688.00,45.433
689.00,45.321
690.00,45.456
691.00,45.578
692.00,45.718
693.00,45.817
694.00,45.877
695.00,45.923
696.00,45.932
697.00,45.980
698.00,46.057
699.00,46.210
700.00,46.300
701.00,46.275
702.00,46.445
703.00,46.422
704.00,46.451
705.00,46.512
706.00,46.589
707.00,46.550
708.00,46.461
709.00,46.833
710.00,46.924
711.00,46.860
712.00,46.944
713.00,46.830
714.00,46.987
715.00,47.130
716.00,47.237
717.00,47.221
718.00,47.291
719.00,47.267
720.00,47.306
721.00,51.444
722.00,51.461
723.00,51.474
724.00,51.507
725.00,51.442
726.00,51.488
727.00,51.528
728.00,51.516
729.00,51.495
730.00,51.606
731.00,51.534
732.00,51.532
733.00,51.587
734.00,51.641
735.00,51.639
736.00,51.703
737.00,51.691
738.00,51.635
739.00,51.727
740.00,51.753
741.00,51.792
742.00,51.759
743.00,51.755
744.00,51.783
745.00,51.730
746.00,51.774
747.00,51.747
748.00,51.713
749.00,51.676
750.00,51.695
751.00,51.671
752.00,51.689
753.00,51.650
754.00,51.611
755.00,51.737
756.00,51.654
757.00,51.683
758.00,51.643
759.00,51.693
760.00,51.672
761.00,51.730
762.00,51.667
763.00,51.663
764.00,51.676
765.00,51.689
766.00,51.747
767.00,51.744
768.00,51.726
769.00,51.727
770.00,51.768
771.00,51.723
772.00,51.777
773.00,51.677
774.00,51.733
775.00,51.735
776.00,51.756
777.00,51.835
778.00,51.735
779.00,51.769
780.00,51.761
781.00,51.805
782.00,51.782
783.00,51.664
784.00,51.776
785.00,51.637
786.00,51.757
787.00,51.646
788.00,51.643
789.00,51.631
790.00,51.615
791.00,51.602
792.00,51.597
793.00,51.587
794.00,51.631
795.00,51.512
796.00,51.649
797.00,51.501
798.00,51.542
799.00,51.516
800.00,51.507
801.00,51.425
802.00,51.471
803.00,51.468
804.00,51.390
805.00,51.423
806.00,51.314
807.00,51.311
808.00,51.348
809.00,51.342
810.00,51.380
811.00,51.262
812.00,51.386
813.00,51.228
814.00,51.332
815.00,51.200
816.00,51.256
817.00,51.162
818.00,51.189
819.00,51.155
820.00,51.143
821.00,51.132
822.00,51.132
823.00,51.049
824.00,51.096
825.00,51.196
826.00,51.092
827.00,51.108
828.00,51.069
829.00,51.061
830.00,51.104
831.00,53.539
832.00,53.546
833.00,53.479
834.00,53.505
835.00,53.475
836.00,53.489
837.00,53.424
838.00,53.398
839.00,53.412
840.00,53.346
841.00,53.361
842.00,53.330
843.00,53.352
844.00,53.343
845.00,53.282
846.00,53.291
847.00,53.268
848.00,53.088
849.00,53.176
850.00,53.162
851.00,53.074
852.00,53.056
853.00,53.195
854.00,53.015
855.00,52.978
856.00,52.969
857.00,52.939
858.00,52.894
859.00,52.882
860.00,52.887
861.00,52.858
862.00,52.819
863.00,52.860
864.00,52.767
865.00,52.806
866.00,52.755
867.00,52.744
868.00,52.786
869.00,52.732
870.00,52.734
871.00,52.692
872.00,52.692
873.00,52.644
874.00,52.686
875.00,52.661
876.00,52.637
877.00,52.628
878.00,52.626
879.00,52.603
880.00,52.619
881.00,52.545
882.00,52.546
883.00,52.552
884.00,52.502
885.00,52.454
886.00,52.466
887.00,52.430
888.00,52.423
889.00,52.406
890.00,52.420
891.00,52.387
892.00,52.369
893.00,52.329
894.00,52.342
895.00,52.279
896.00,52.261
897.00,52.247
898.00,52.198
899.00,52.214
900.00,52.195
901.00,52.203
902.00,52.199
903.00,52.166
904.00,52.133
905.00,52.123
906.00,52.100
907.00,52.057
908.00,52.050
909.00,52.049
910.00,52.023
911.00,51.989
912.00,52.022
913.00,51.943
914.00,51.909
915.00,51.933
916.00,51.906
917.00,51.847
918.00,51.854
919.00,51.802
920.00,51.796
921.00,51.809
922.00,51.729
923.00,51.793
924.00,51.716
925.00,51.714
926.00,51.713
927.00,51.678
928.00,51.635
929.00,51.658
930.00,51.625
931.00,51.641
932.00,51.581
933.00,51.581
934.00,51.568
935.00,51.555
936.00,51.517
937.00,51.488
938.00,51.523
939.00,51.480
940.00,51.441
941.00,51.444
942.00,51.416
943.00,51.406
944.00,51.364
945.00,51.379
946.00,51.370
947.00,51.323
948.00,51.305
949.00,51.280
950.00,51.243
951.00,51.247
952.00,51.198
953.00,51.174
954.00,51.159
955.00,51.101
956.00,51.114
957.00,51.062
958.00,51.071
959.00,51.041
960.00,51.044
961.00,51.007
962.00,51.018
963.00,50.985
964.00,50.965
965.00,50.950
966.00,50.952
967.00,50.949
968.00,50.900
969.00,50.982
970.00,50.913
971.00,50.927
972.00,50.895
973.00,50.922
974.00,50.928
975.00,50.900
976.00,50.933
977.00,50.897
978.00,50.950
979.00,50.892
980.00,50.922
981.00,50.936
982.00,50.892
983.00,50.906
984.00,50.930
985.00,50.904
986.00,50.859
987.00,50.893
988.00,50.868
989.00,50.848
990.00,50.854
991.00,50.805
992.00,50.839
993.00,50.808
994.00,50.787
995.00,50.773
996.00,50.756
997.00,50.762
998.00,50.718
999.00,50.748
1000.00,50.695
1001.00,50.716
1002.00,50.685
1003.00,50.679
1004.00,50.679
1005.00,50.639
1006.00,50.648
1007.00,50.631
1008.00,50.627
1009.00,50.604
1010.00,50.574
1011.00,50.580
1012.00,50.541
1013.00,50.543
1014.00,50.509
1015.00,50.523
1016.00,50.471
1017.00,50.484
1018.00,50.471
1019.00,50.429
1020.00,50.439
1021.00,50.399
1022.00,50.407
1023.00,50.361
1024.00,50.345
1025.00,50.351
1026.00,50.350
1027.00,50.321
1028.00,50.312
1029.00,50.309
1030.00,50.290
1031.00,50.283
1032.00,50.237
1033.00,50.237
1034.00,50.203
1035.00,50.175
1036.00,50.162
1037.00,50.135
1038.00,50.114
1039.00,50.094
1040.00,50.081
1041.00,50.039
1042.00,50.044
1043.00,50.016
1044.00,50.070
1045.00,50.050
1046.00,50.024
1047.00,50.044
1048.00,50.055
1049.00,50.056
1050.00,50.062
1051.00,50.085
1052.00,50.087
1053.00,50.105
1054.00,50.090
1055.00,50.109
1056.00,50.129
1057.00,50.109
1058.00,50.140
1059.00,50.136
1060.00,50.109
1061.00,50.117
1062.00,50.096
1063.00,50.110
1064.00,50.092
1065.00,50.066
1066.00,50.049
1067.00,50.041
1068.00,50.045
1069.00,50.030
1070.00,50.019
1071.00,49.982
1072.00,50.010
1073.00,49.981
1074.00,49.993
1075.00,49.980
1076.00,49.956
1077.00,49.953
1078.00,49.940
1079.00,49.919
1080.00,49.928
1081.00,49.896
1082.00,49.899
1083.00,49.901
1084.00,49.886
1085.00,49.872
1086.00,49.881
1087.00,49.857
1088.00,49.861
1089.00,49.843
1090.00,49.827
1091.00,49.860
1092.00,49.836
1093.00,49.803
1094.00,49.811
1095.00,49.784
1096.00,49.768
1097.00,49.770
1098.00,49.760
1099.00,49.751
1100.00,49.732
1101.00,49.708
1102.00,49.715
1103.00,49.712
1104.00,49.692
1105.00,49.692
1106.00,49.678
1107.00,49.669
1108.00,49.677
1109.00,49.655
1110.00,49.654
1111.00,49.639
1112.00,49.621
1113.00,49.616
1114.00,49.624
1115.00,49.612
1116.00,49.614
1117.00,49.583
1118.00,49.596
1119.00,49.592
1120.00,49.578
1121.00,49.574
1122.00,49.562
1123.00,49.547
1124.00,49.552
1125.00,49.544
1126.00,49.525
1127.00,49.521
1128.00,49.504
1129.00,49.477
1130.00,49.484
1131.00,49.457
1132.00,49.468
1133.00,49.469
1134.00,49.466
1135.00,49.453
1136.00,49.458
1137.00,49.447
1138.00,49.450
1139.00,49.446
1140.00,49.437
1141.00,49.418
1142.00,49.438
1143.00,49.427
1144.00,49.402
1145.00,49.399
1146.00,49.404
1147.00,49.392
1148.00,49.379
1149.00,49.392
1150.00,49.391
1151.00,49.395
1152.00,49.396
1153.00,49.371
1154.00,49.374
1155.00,49.383
1156.00,49.342
1157.00,49.355
1158.00,49.356
1159.00,49.333
1160.00,49.347
1161.00,49.346
1162.00,49.328
1163.00,49.339
1164.00,49.325
1165.00,49.339
1166.00,49.333
1167.00,49.315
1168.00,49.354
1169.00,49.334
1170.00,49.322
1171.00,49.307
1172.00,49.305
1173.00,49.298
1174.00,49.317
1175.00,49.309
1176.00,49.297
1177.00,49.298
1178.00,49.280
1179.00,49.311
1180.00,49.295
1181.00,49.300
1182.00,49.310
1183.00,49.294
1184.00,49.290
1185.00,49.304
1186.00,49.273
1187.00,49.284
1188.00,49.276
1189.00,49.270
1190.00,49.261
1191.00,49.262
1192.00,49.256
1193.00,49.261
1194.00,49.274
1195.00,49.237
1196.00,49.271
1197.00,49.252
1198.00,49.257
1199.00,49.271
1200.00,49.232
1201.00,49.262
1202.00,49.252
1203.00,49.243
1204.00,49.239
1205.00,49.236
1206.00,49.232
1207.00,49.260
1208.00,49.225
1209.00,49.245
1210.00,49.238
1211.00,49.224
1212.00,49.240
1213.00,49.221
1214.00,49.239
1215.00,49.237
1216.00,49.214
1217.00,49.231
1218.00,49.239
1219.00,49.224
1220.00,49.221
1221.00,49.224
1222.00,49.202
1223.00,49.231
1224.00,49.225
1225.00,49.217
1226.00,49.228
1227.00,49.219
1228.00,49.232
1229.00,49.243
1230.00,49.262
1231.00,49.273
1232.00,49.282
1233.00,49.252
1234.00,49.283
1235.00,49.280
1236.00,49.263
1237.00,49.261
1238.00,49.264
1239.00,49.266
1240.00,49.274
1241.00,49.268
1242.00,49.268
1243.00,49.280
1244.00,49.245
1245.00,49.284
1246.00,49.300
1247.00,49.283
1248.00,49.285
1249.00,49.274
1250.00,49.289
1251.00,49.286
1252.00,49.285
1253.00,49.285
1254.00,49.305
1255.00,49.301
1256.00,49.290
1257.00,49.278
1258.00,49.311
1259.00,49.308
1260.00,49.328
1261.00,49.318
1262.00,49.319
1263.00,49.306
1264.00,49.324
1265.00,49.322
1266.00,49.307
1267.00,49.331
1268.00,49.342
1269.00,49.325
1270.00,49.343
1271.00,49.341
1272.00,49.356
1273.00,49.370
1274.00,49.366
1275.00,49.377
1276.00,49.362
1277.00,49.351
1278.00,49.380
1279.00,49.379
1280.00,49.376
1281.00,49.387
1282.00,49.382
1283.00,49.390
1284.00,49.388
1285.00,49.372
1286.00,49.399
1287.00,49.412
1288.00,49.406
1289.00,49.392
1290.00,49.415
1291.00,49.409
1292.00,49.427
1293.00,49.415
1294.00,49.436
1295.00,49.448
1296.00,49.435
1297.00,49.452
1298.00,49.471
1299.00,49.439
1300.00,49.454
1301.00,49.474
1302.00,49.459
1303.00,49.497
1304.00,49.472
1305.00,49.487
1306.00,49.505
1307.00,49.503
1308.00,49.508
1309.00,49.496
1310.00,49.478
1311.00,49.503
1312.00,49.504
1313.00,49.494
1314.00,49.512
1315.00,49.519
1316.00,49.521
1317.00,49.542
1318.00,49.527
1319.00,49.528
1320.00,49.553
1321.00,49.721
1322.00,49.744
1323.00,49.732
1324.00,49.719
1325.00,49.715
1326.00,49.752
1327.00,49.712
1328.00,49.719
1329.00,49.721
1330.00,49.707
1331.00,49.723
1332.00,49.709
1333.00,49.727
1334.00,49.753
1335.00,49.755
1336.00,49.808
1337.00,49.834
1338.00,49.885
1339.00,49.940
1340.00,50.004
1341.00,50.050
1342.00,50.125
1343.00,50.164
1344.00,50.203
1345.00,50.278
1346.00,50.312
1347.00,50.326
1348.00,50.350
1349.00,50.370
1350.00,50.398
1351.00,50.407
1352.00,50.410
1353.00,50.460
1354.00,50.411
1355.00,50.367
1356.00,50.427
1357.00,50.429
1358.00,50.423
1359.00,50.490
1360.00,50.497
1361.00,50.463
1362.00,50.382
1363.00,50.502
1364.00,50.489
1365.00,50.452
1366.00,50.493
1367.00,50.400
1368.00,50.420
1369.00,50.447
1370.00,50.409
1371.00,50.366
1372.00,50.413
1373.00,50.409
1374.00,50.403
1375.00,50.410
1376.00,50.405
1377.00,50.363
1378.00,50.320
1379.00,50.400
1380.00,50.471
1381.00,50.533
1382.00,50.361
1383.00,50.407
1384.00,50.466
1385.00,50.421
1386.00,50.422
1387.00,50.397
1388.00,50.356
1389.00,50.289
1390.00,50.360
1391.00,50.393
1392.00,50.392
1393.00,50.330
1394.00,50.506
1395.00,50.372
1396.00,50.331
1397.00,50.339
1398.00,50.354
1399.00,50.419
1400.00,50.336
1401.00,50.353
1402.00,50.350
1403.00,50.364
1404.00,50.366
1405.00,50.419
1406.00,50.393
1407.00,50.411
1408.00,50.428
1409.00,50.380
1410.00,50.436
1411.00,50.452
1412.00,50.465
1413.00,50.429
1414.00,50.478
1415.00,50.460
1416.00,50.499
1417.00,50.510
1418.00,50.477
1419.00,50.497
1420.00,50.510
1421.00,50.537
1422.00,50.554
1423.00,50.527
1424.00,50.550
1425.00,50.568
1426.00,50.541
1427.00,50.601
1428.00,50.600
1429.00,50.607
1430.00,50.648
1431.00,50.637
1432.00,50.659
1433.00,50.681
1434.00,50.650
1435.00,50.716
1436.00,50.722
1437.00,50.700
1438.00,50.733
1439.00,50.776
1440.00,50.772
1441.00,50.784
1442.00,50.791
1443.00,50.826
1444.00,50.863
1445.00,50.823
1446.00,50.855
1447.00,50.890
1448.00,50.890
1449.00,50.935
1450.00,50.900
1451.00,50.917
1452.00,50.931
1453.00,50.973
1454.00,50.973
1455.00,50.977
1456.00,50.992
1457.00,51.007
1458.00,51.028
1459.00,51.028
1460.00,51.052
1461.00,51.055
1462.00,51.079
1463.00,51.102
1464.00,51.091
1465.00,51.100
1466.00,51.113
1467.00,51.138
1468.00,51.175
1469.00,51.181
1470.00,51.162
1471.00,51.193
1472.00,51.218
1473.00,51.219
1474.00,51.259
1475.00,51.233
1476.00,51.267
1477.00,51.271
1478.00,51.269
1479.00,51.311
1480.00,51.296
1481.00,51.302
1482.00,51.340
1483.00,51.349
1484.00,51.351
1485.00,51.367
1486.00,51.365
1487.00,51.403
1488.00,51.405
1489.00,51.405
1490.00,51.418
1491.00,51.428
1492.00,51.437
1493.00,51.456
1494.00,51.466
1495.00,51.467
1496.00,51.477
1497.00,51.471
1498.00,51.474
1499.00,51.499
1500.00,51.514
1501.00, 
1502.00, 
1503.00, 
1504.00, 
1505.00, 
1506.00, 
1507.00, 
1508.00, 
1509.00, 
1510.00, 
1511.00, 
1512.00, 
1513.00, 
1514.00, 
1515.00, 
1516.00, 
1517.00, 
1518.00, 
1519.00, 
1520.00, 
1521.00, 
1522.00, 
1523.00, 
1524.00, 
1525.00, 
1526.00, 
1527.00, 
1528.00, 
1529.00, 
1530.00, 
1531.00, 
1532.00, 
1533.00, 
1534.00, 
1535.00, 
1536.00, 
1537.00, 
1538.00, 
1539.00, 
1540.00, 
1541.00, 
1542.00, 
1543.00, 
1544.00, 
1545.00, 
1546.00, 
1547.00, 
1548.00, 
1549.00, 
1550.00, 
1551.00, 
1552.00, 
1553.00, 
1554.00, 
1555.00, 
1556.00, 
1557.00, 
1558.00, 
1559.00, 
1560.00, 
1561.00, 
1562.00, 
1563.00, 
1564.00, 
1565.00, 
1566.00, 
1567.00, 
1568.00, 
1569.00, 
1570.00, 
1571.00, 
1572.00, 
1573.00, 
1574.00, 
1575.00, 
1576.00, 
1577.00, 
1578.00, 
1579.00, 
1580.00, 
1581.00, 
1582.00, 
1583.00, 
1584.00, 
1585.00, 
1586.00, 
1587.00, 
1588.00, 
1589.00, 
1590.00, 
1591.00, 
1592.00, 
1593.00, 
1594.00, 
1595.00, 
1596.00, 
1597.00, 
1598.00, 
1599.00, 
1600.00, 
1601.00, 
1602.00, 
1603.00, 
1604.00, 
1605.00, 
1606.00, 
1607.00, 
1608.00, 
1609.00, 
1610.00, 
1611.00, 
1612.00, 
1613.00, 
1614.00, 
1615.00, 
1616.00, 
1617.00, 
1618.00, 
1619.00, 
1620.00, 
1621.00, 
1622.00, 
1623.00, 
1624.00, 
1625.00, 
1626.00, 
1627.00, 
1628.00, 
1629.00, 
1630.00, 
1631.00, 
1632.00, 
1633.00, 
1634.00, 
1635.00, 
1636.00, 
1637.00, 
1638.00, 
1639.00, 
1640.00, 
1641.00, 
1642.00, 
1643.00, 
1644.00, 
1645.00, 
1646.00, 
1647.00, 
1648.00, 
1649.00, 
1650.00, 
1651.00, 
1652.00, 
1653.00, 
1654.00, 
1655.00, 
1656.00, 
1657.00, 
1658.00, 
1659.00, 
1660.00, 
1661.00, 
1662.00, 
1663.00, 
1664.00, 
1665.00, 
1666.00, 
1667.00, 
1668.00, 
1669.00, 
1670.00, 
1671.00, 
1672.00, 
1673.00, 
1674.00, 
1675.00, 
1676.00, 
1677.00, 
1678.00, 
1679.00, 
1680.00, 
1681.00, 
1682.00, 
1683.00, 
1684.00, 
1685.00, 
1686.00, 
1687.00, 
1688.00, 
1689.00, 
1690.00, 
1691.00, 
1692.00, 
1693.00, 
1694.00, 
1695.00, 
1696.00, 
1697.00, 
1698.00, 
1699.00, 
1700.00, 
1701.00, 
1702.00, 
1703.00, 
1704.00, 
1705.00, 
1706.00, 
1707.00, 
1708.00, 
1709.00, 
1710.00, 
1711.00, 
1712.00, 
1713.00, 
1714.00, 
1715.00, 
1716.00, 
1717.00, 
1718.00, 
1719.00, 
1720.00, 
1721.00, 
1722.00, 
1723.00, 
1724.00, 
1725.00, 
1726.00, 
1727.00, 
1728.00, 
1729.00, 
1730.00, 
1731.00, 
1732.00, 
1733.00, 
1734.00, 
1735.00, 
1736.00, 
1737.00, 
1738.00, 
1739.00, 
1740.00, 
1741.00, 
1742.00, 
1743.00, 
1744.00, 
1745.00, 
1746.00, 
1747.00, 
1748.00, 
1749.00, 
1750.00, 
1751.00, 
1752.00, 
1753.00, 
1754.00, 
1755.00, 
1756.00, 
1757.00, 
1758.00, 
1759.00, 
1760.00, 
1761.00, 
1762.00, 
1763.00, 
1764.00, 
1765.00, 
1766.00, 
1767.00, 
1768.00, 
1769.00, 
1770.00, 
1771.00, 
1772.00, 
1773.00, 
1774.00, 
1775.00, 
1776.00, 
1777.00, 
1778.00, 
1779.00, 
1780.00, 
1781.00, 
1782.00, 
1783.00, 
1784.00, 
1785.00, 
1786.00, 
1787.00, 
1788.00, 
1789.00, 
1790.00, 
1791.00, 
1792.00, 
1793.00, 
1794.00, 
1795.00, 
1796.00, 
1797.00, 
1798.00, 
1799.00, 
1800.00, 
1801.00, 
1802.00, 
1803.00, 
1804.00, 
1805.00, 
1806.00, 
1807.00, 
1808.00, 
1809.00, 
1810.00, 
1811.00, 
1812.00, 
1813.00, 
1814.00, 
1815.00, 
1816.00, 
1817.00, 
1818.00, 
1819.00, 
1820.00, 
1821.00, 
1822.00, 
1823.00, 
1824.00, 
1825.00, 
1826.00, 
1827.00, 
1828.00, 
1829.00, 
1830.00, 
1831.00, 
1832.00, 
1833.00, 
1834.00, 
1835.00, 
1836.00, 
1837.00, 
1838.00, 
1839.00, 
1840.00, 
1841.00, 
1842.00, 
1843.00, 
1844.00, 
1845.00, 
1846.00, 
1847.00, 
1848.00, 
1849.00, 
1850.00, 
1851.00, 
1852.00, 
1853.00, 
1854.00, 
1855.00, 
1856.00, 
1857.00, 
1858.00, 
1859.00, 
1860.00, 
1861.00, 
1862.00, 
1863.00, 
1864.00, 
1865.00, 
1866.00, 
1867.00, 
1868.00, 
1869.00, 
1870.00, 
1871.00, 
1872.00, 
1873.00, 
1874.00, 
1875.00, 
1876.00, 
1877.00, 
1878.00, 
1879.00, 
1880.00, 
1881.00, 
1882.00, 
1883.00, 
1884.00, 
1885.00, 
1886.00, 
1887.00, 
1888.00, 
1889.00, 
1890.00, 
1891.00, 
1892.00, 
1893.00, 
1894.00, 
1895.00, 
1896.00, 
1897.00, 
1898.00, 
1899.00, 
1900.00, 
1901.00, 
1902.00, 
1903.00, 
1904.00, 
1905.00, 
1906.00, 
1907.00, 
1908.00, 
1909.00, 
1910.00, 
1911.00, 
1912.00, 
1913.00, 
1914.00, 
1915.00, 
1916.00, 
1917.00, 
1918.00, 
1919.00, 
1920.00, 
1921.00, 
1922.00, 
1923.00, 
1924.00, 
1925.00, 
1926.00, 
1927.00, 
1928.00, 
1929.00, 
1930.00, 
1931.00, 
1932.00, 
1933.00, 
1934.00, 
1935.00, 
1936.00, 
1937.00, 
1938.00, 
1939.00, 
1940.00, 
1941.00, 
1942.00, 
1943.00, 
1944.00, 
1945.00, 
1946.00, 
1947.00, 
1948.00, 
1949.00, 
1950.00, 
1951.00, 
1952.00, 
1953.00, 
1954.00, 
1955.00, 
1956.00, 
1957.00, 
1958.00, 
1959.00, 
1960.00, 
1961.00, 
1962.00, 
1963.00, 
1964.00, 
1965.00, 
1966.00, 
1967.00, 
1968.00, 
1969.00, 
1970.00, 
1971.00, 
1972.00, 
1973.00, 
1974.00, 
1975.00, 
1976.00, 
1977.00, 
1978.00, 
1979.00, 
1980.00, 
1981.00, 
1982.00, 
1983.00, 
1984.00, 
1985.00, 
1986.00, 
1987.00, 
1988.00, 
1989.00, 
1990.00, 
1991.00, 
1992.00, 
1993.00, 
1994.00, 
1995.00, 
1996.00, 
1997.00, 
1998.00, 
1999.00, 
2000.00, 
2001.00, 
2002.00, 
2003.00, 
2004.00, 
2005.00, 
2006.00, 
2007.00, 
2008.00, 
2009.00, 
2010.00, 
2011.00, 
2012.00, 
2013.00, 
2014.00, 
2015.00, 
2016.00, 
2017.00, 
2018.00, 
2019.00, 
2020.00, 
2021.00, 
2022.00, 
2023.00, 
2024.00, 
2025.00, 
2026.00, 
2027.00, 
2028.00, 
2029.00, 
2030.00, 
2031.00, 
2032.00, 
2033.00, 
2034.00, 
2035.00, 
2036.00, 
2037.00, 
2038.00, 
2039.00, 
2040.00, 
2041.00, 
2042.00, 
2043.00, 
2044.00, 
2045.00, 
2046.00, 
2047.00, 
2048.00, 
2049.00, 
2050.00, 
2051.00, 
2052.00, 
2053.00, 
2054.00, 
2055.00, 
2056.00, 
2057.00, 
2058.00, 
2059.00, 
2060.00, 
2061.00, 
2062.00, 
2063.00, 
2064.00, 
2065.00, 
2066.00, 
2067.00, 
2068.00, 
2069.00, 
2070.00, 
2071.00, 
2072.00, 
2073.00, 
2074.00, 
2075.00, 
2076.00, 
2077.00, 
2078.00, 
2079.00, 
2080.00, 
2081.00, 
2082.00, 
2083.00, 
2084.00, 
2085.00, 
2086.00, 
2087.00, 
2088.00, 
2089.00, 
2090.00, 
2091.00, 
2092.00, 
2093.00, 
2094.00, 
2095.00, 
2096.00, 
2097.00, 
2098.00, 
2099.00, 
2100.00, 
2101.00, 
2102.00, 
2103.00, 
2104.00, 
2105.00, 
2106.00, 
2107.00, 
2108.00, 
2109.00, 
2110.00, 
2111.00, 
2112.00, 
2113.00, 
2114.00, 
2115.00, 
2116.00, 
2117.00, 
2118.00, 
2119.00, 
2120.00, 
2121.00, 
2122.00, 
2123.00, 
2124.00, 
2125.00, 
2126.00, 
2127.00, 
2128.00, 
2129.00, 
2130.00, 
2131.00, 
2132.00, 
2133.00, 
2134.00, 
2135.00, 
2136.00, 
2137.00, 
2138.00, 
2139.00, 
2140.00, 
2141.00, 
2142.00, 
2143.00, 
2144.00, 
2145.00, 
2146.00, 
2147.00, 
2148.00, 
2149.00, 
2150.00, 
2151.00, 
2152.00, 
2153.00, 
2154.00, 
2155.00, 
2156.00, 
2157.00, 
2158.00, 
2159.00, 
2160.00, 
2161.00, 
2162.00, 
2163.00, 
2164.00, 
2165.00, 
2166.00, 
2167.00, 
2168.00, 
2169.00, 
2170.00, 
2171.00, 
2172.00, 
2173.00, 
2174.00, 
2175.00, 
2176.00, 
2177.00, 
2178.00, 
2179.00, 
2180.00, 
2181.00, 
2182.00, 
2183.00, 
2184.00, 
2185.00, 
2186.00, 
2187.00, 
2188.00, 
2189.00, 
2190.00, 
2191.00, 
2192.00, 
2193.00, 
2194.00, 
2195.00, 
2196.00, 
2197.00, 
2198.00, 
2199.00, 
2200.00, 
2201.00, 
2202.00, 
2203.00, 
2204.00, 
2205.00, 
2206.00, 
2207.00, 
2208.00, 
2209.00, 
2210.00, 
2211.00, 
2212.00, 
2213.00, 
2214.00, 
2215.00, 
2216.00, 
2217.00, 
2218.00, 
2219.00, 
2220.00, 
2221.00, 
2222.00, 
2223.00, 
2224.00, 
2225.00, 
2226.00, 
2227.00, 
2228.00, 
2229.00, 
2230.00, 
2231.00, 
2232.00, 
2233.00, 
2234.00, 
2235.00, 
2236.00, 
2237.00, 
2238.00, 
2239.00, 
2240.00, 
2241.00, 
2242.00, 
2243.00, 
2244.00, 
2245.00, 
2246.00, 
2247.00, 
2248.00, 
2249.00, 
2250.00, 
2251.00, 
2252.00, 
2253.00, 
2254.00, 
2255.00, 
2256.00, 
2257.00, 
2258.00, 
2259.00, 
2260.00, 
2261.00, 
2262.00, 
2263.00, 
2264.00, 
2265.00, 
2266.00, 
2267.00, 
2268.00, 
2269.00, 
2270.00, 
2271.00, 
2272.00, 
2273.00, 
2274.00, 
2275.00, 
2276.00, 
2277.00, 
2278.00, 
2279.00, 
2280.00, 
2281.00, 
2282.00, 
2283.00, 
2284.00, 
2285.00, 
2286.00, 
2287.00, 
2288.00, 
2289.00, 
2290.00, 
2291.00, 
2292.00, 
2293.00, 
2294.00, 
2295.00, 
2296.00, 
2297.00, 
2298.00, 
2299.00, 
2300.00, 
2301.00, 
2302.00, 
2303.00, 
2304.00, 
2305.00, 
2306.00, 
2307.00, 
2308.00, 
2309.00, 
2310.00, 
2311.00, 
2312.00, 
2313.00, 
2314.00, 
2315.00, 
2316.00, 
2317.00, 
2318.00, 
2319.00, 
2320.00, 
2321.00, 
2322.00, 
2323.00, 
2324.00, 
2325.00, 
2326.00, 
2327.00, 
2328.00, 
2329.00, 
2330.00, 
2331.00, 
2332.00, 
2333.00, 
2334.00, 
2335.00, 
2336.00, 
2337.00, 
2338.00, 
2339.00, 
2340.00, 
2341.00, 
2342.00, 
2343.00, 
2344.00, 
2345.00, 
2346.00, 
2347.00, 
2348.00, 
2349.00, 
2350.00, 
2351.00, 
2352.00, 
2353.00, 
2354.00, 
2355.00, 
2356.00, 
2357.00, 
2358.00, 
2359.00, 
2360.00, 
2361.00, 
2362.00, 
2363.00, 
2364.00, 
2365.00, 
2366.00, 
2367.00, 
2368.00, 
2369.00, 
2370.00, 
2371.00, 
2372.00, 
2373.00, 
2374.00, 
2375.00, 
2376.00, 
2377.00, 
2378.00, 
2379.00, 
2380.00, 
2381.00, 
2382.00, 
2383.00, 
2384.00, 
2385.00, 
2386.00, 
2387.00, 
2388.00, 
2389.00, 
2390.00, 
2391.00, 
2392.00, 
2393.00, 
2394.00, 
2395.00, 
2396.00, 
2397.00, 
2398.00, 
2399.00, 
2400.00, 
2401.00, 
2402.00, 
2403.00, 
2404.00, 
2405.00, 
2406.00, 
2407.00, 
2408.00, 
2409.00, 
2410.00, 
2411.00, 
2412.00, 
2413.00, 
2414.00, 
2415.00, 
2416.00, 
2417.00, 
2418.00, 
2419.00, 
2420.00, 
2421.00, 
2422.00, 
2423.00, 
2424.00, 
2425.00, 
2426.00, 
2427.00, 
2428.00, 
2429.00, 
2430.00, 
2431.00, 
2432.00, 
2433.00, 
2434.00, 
2435.00, 
2436.00, 
2437.00, 
2438.00, 
2439.00, 
2440.00, 
2441.00, 
2442.00, 
2443.00, 
2444.00, 
2445.00, 
2446.00, 
2447.00, 
2448.00, 
2449.00, 
2450.00, 
2451.00, 
2452.00, 
2453.00, 
2454.00, 
2455.00, 
2456.00, 
2457.00, 
2458.00, 
2459.00, 
2460.00, 
2461.00, 
2462.00, 
2463.00, 
2464.00, 
2465.00, 
2466.00, 
2467.00, 
2468.00, 
2469.00, 
2470.00, 
2471.00, 
2472.00, 
2473.00, 
2474.00, 
2475.00, 
2476.00, 
2477.00, 
2478.00, 
2479.00, 
2480.00, 
2481.00, 
2482.00, 
2483.00, 
2484.00, 
2485.00, 
2486.00, 
2487.00, 
2488.00, 
2489.00, 
2490.00, 
2491.00, 
2492.00, 
2493.00, 
2494.00, 
2495.00, 
2496.00, 
2497.00, 
2498.00, 
2499.00, 
2500.00, 
2501.00, 
2502.00, 
2503.00, 
2504.00, 
2505.00, 
2506.00, 
2507.00, 
2508.00, 
2509.00, 
2510.00, 
2511.00, 
2512.00, 
2513.00, 
2514.00, 
2515.00, 
2516.00, 
2517.00, 
2518.00, 
2519.00, 
2520.00, 
2521.00, 
2522.00, 
2523.00, 
2524.00, 
2525.00, 
2526.00, 
2527.00, 
2528.00, 
2529.00, 
2530.00, 
2531.00, 
2532.00, 
2533.00, 
2534.00, 
2535.00, 
2536.00, 
2537.00, 
2538.00, 
2539.00, 
2540.00, 
2541.00, 
2542.00, 
2543.00, 
2544.00, 
2545.00, 
2546.00, 
2547.00, 
2548.00, 
2549.00, 
2550.00, 
2551.00, 
2552.00, 
2553.00, 
2554.00, 
2555.00, 
2556.00, 
2557.00, 
2558.00, 
2559.00, 
2560.00, 
2561.00, 
2562.00, 
2563.00, 
2564.00, 
2565.00, 
2566.00, 
2567.00, 
2568.00, 
2569.00, 
2570.00, 
2571.00, 
2572.00, 
2573.00, 
2574.00, 
2575.00, 
2576.00, 
2577.00, 
2578.00, 
2579.00, 
2580.00, 
2581.00, 
2582.00, 
2583.00, 
2584.00, 
2585.00, 
2586.00, 
2587.00, 
2588.00, 
2589.00, 
2590.00, 
2591.00, 
2592.00, 
2593.00, 
2594.00, 
2595.00, 
2596.00, 
2597.00, 
2598.00, 
2599.00, 
2600.00, 
