"2cP3 - RawData"
"Wavelength nm.","T%"
200.00,0.003
201.00,0.000
202.00,0.002
203.00,-0.005
204.00,0.003
205.00,0.002
206.00,-0.001
207.00,0.002
208.00,-0.000
209.00,0.001
210.00,-0.000
211.00,0.001
212.00,-0.002
213.00,0.002
214.00,0.002
215.00,0.002
216.00,0.004
217.00,0.001
218.00,0.003
219.00,0.001
220.00,-0.001
221.00,0.000
222.00,-0.001
223.00,-0.000
224.00,0.001
225.00,-0.000
226.00,-0.001
227.00,-0.002
228.00,0.001
229.00,0.002
230.00,0.001
231.00,0.001
232.00,0.002
233.00,-0.000
234.00,0.002
235.00,0.000
236.00,-0.000
237.00,0.002
238.00,-0.000
239.00,0.001
240.00,0.001
241.00,0.001
242.00,0.000
243.00,-0.001
244.00,-0.001
245.00,0.001
246.00,-0.002
247.00,0.001
248.00,-0.000
249.00,-0.001
250.00,0.001
251.00,0.001
252.00,0.000
253.00,-0.002
254.00,0.001
255.00,0.000
256.00,-0.001
257.00,-0.001
258.00,0.001
259.00,0.002
260.00,0.000
261.00,-0.000
262.00,0.001
263.00,0.000
264.00,0.001
265.00,-0.000
266.00,0.000
267.00,-0.000
268.00,0.001
269.00,-0.001
270.00,0.001
271.00,-0.000
272.00,0.002
273.00,0.002
274.00,-0.000
275.00,0.001
276.00,0.000
277.00,0.001
278.00,0.000
279.00,-0.000
280.00,0.001
281.00,-0.000
282.00,0.001
283.00,-0.000
284.00,0.000
285.00,0.001
286.00,0.000
287.00,-0.001
288.00,-0.000
289.00,0.000
290.00,0.002
291.00,0.001
292.00,-0.001
293.00,-0.001
294.00,0.000
295.00,0.002
296.00,-0.001
297.00,0.000
298.00,0.002
299.00,0.002
300.00,0.002
301.00,0.003
302.00,0.005
303.00,0.007
304.00,0.015
305.00,0.022
306.00,0.035
307.00,0.052
308.00,0.076
309.00,0.123
310.00,0.167
311.00,0.227
312.00,0.319
313.00,0.436
314.00,0.574
315.00,0.745
316.00,0.949
317.00,1.211
318.00,1.491
319.00,1.831
320.00,2.235
321.00,2.670
322.00,3.169
323.00,3.727
324.00,4.326
325.00,4.924
326.00,5.561
327.00,6.300
328.00,7.055
329.00,7.772
330.00,8.597
331.00,9.373
332.00,10.228
333.00,11.068
334.00,11.899
335.00,12.735
336.00,13.601
337.00,14.480
338.00,15.329
339.00,16.077
340.00,16.870
341.00,17.628
342.00,18.415
343.00,19.134
344.00,19.808
345.00,20.433
346.00,21.037
347.00,21.663
348.00,22.191
349.00,22.805
350.00,23.282
351.00,23.757
352.00,24.211
353.00,24.594
354.00,24.984
355.00,25.402
356.00,25.775
357.00,26.130
358.00,26.452
359.00,26.734
360.00,26.990
361.00,27.198
362.00,27.420
363.00,27.685
364.00,27.874
365.00,28.025
366.00,28.208
367.00,28.316
368.00,28.454
369.00,28.554
370.00,28.701
371.00,28.686
372.00,28.794
373.00,28.836
374.00,28.869
375.00,28.848
376.00,28.845
377.00,28.836
378.00,28.801
379.00,28.753
380.00,28.749
381.00,28.764
382.00,28.811
383.00,28.854
384.00,28.911
385.00,28.977
386.00,29.045
387.00,29.142
388.00,29.194
389.00,29.285
390.00,29.327
391.00,29.381
392.00,29.467
393.00,29.603
394.00,29.559
395.00,29.551
396.00,29.586
397.00,29.605
398.00,29.630
399.00,29.661
400.00,29.684
401.00,29.701
402.00,29.697
403.00,29.729
404.00,29.756
405.00,29.741
406.00,29.704
407.00,29.651
408.00,29.663
409.00,29.637
410.00,29.615
411.00,29.579
412.00,29.589
413.00,29.562
414.00,29.512
415.00,29.574
416.00,29.633
417.00,29.629
418.00,29.660
419.00,29.657
420.00,29.708
421.00,29.795
422.00,29.801
423.00,29.834
424.00,29.845
425.00,29.897
426.00,29.883
427.00,29.938
428.00,30.011
429.00,30.004
430.00,30.102
431.00,30.150
432.00,30.142
433.00,30.214
434.00,30.261
435.00,30.336
436.00,30.403
437.00,30.427
438.00,30.462
439.00,30.528
440.00,30.627
441.00,30.655
442.00,30.678
443.00,30.790
444.00,30.886
445.00,30.954
446.00,31.033
447.00,31.125
448.00,31.211
449.00,31.317
450.00,31.392
451.00,31.487
452.00,31.583
453.00,31.662
454.00,31.762
455.00,31.843
456.00,31.945
457.00,32.013
458.00,32.127
459.00,32.235
460.00,32.349
461.00,32.428
462.00,32.537
463.00,32.626
464.00,32.730
465.00,32.850
466.00,32.970
467.00,33.107
468.00,33.117
469.00,33.276
470.00,33.330
471.00,33.370
472.00,33.502
473.00,33.559
474.00,33.674
475.00,33.702
476.00,33.826
477.00,33.908
478.00,34.009
479.00,34.130
480.00,34.271
481.00,34.363
482.00,34.478
483.00,34.598
484.00,34.764
485.00,34.817
486.00,34.944
487.00,34.999
488.00,35.256
489.00,35.420
490.00,35.527
491.00,35.671
492.00,35.867
493.00,35.900
494.00,35.904
495.00,35.999
496.00,36.158
497.00,36.181
498.00,36.357
499.00,36.498
500.00,36.589
501.00,36.708
502.00,36.803
503.00,36.954
504.00,36.944
505.00,37.039
506.00,37.226
507.00,37.279
508.00,37.365
509.00,37.495
510.00,37.621
511.00,37.666
512.00,37.831
513.00,37.871
514.00,37.881
515.00,38.090
516.00,38.179
517.00,38.311
518.00,38.406
519.00,38.406
520.00,38.505
521.00,38.592
522.00,38.668
523.00,38.728
524.00,38.845
525.00,38.921
526.00,39.048
527.00,39.116
528.00,39.149
529.00,39.293
530.00,39.358
531.00,39.504
532.00,39.516
533.00,39.593
534.00,39.725
535.00,39.805
536.00,39.872
537.00,39.910
538.00,39.997
539.00,40.053
540.00,40.138
541.00,40.167
542.00,40.144
543.00,40.261
544.00,40.400
545.00,40.497
546.00,40.519
547.00,40.603
548.00,40.659
549.00,40.691
550.00,40.859
551.00,40.888
552.00,40.951
553.00,41.019
554.00,41.075
555.00,41.148
556.00,41.196
557.00,41.268
558.00,41.344
559.00,41.341
560.00,41.431
561.00,41.509
562.00,41.582
563.00,41.558
564.00,41.670
565.00,41.659
566.00,41.667
567.00,41.690
568.00,41.735
569.00,41.777
570.00,41.745
571.00,41.861
572.00,41.879
573.00,41.917
574.00,41.968
575.00,41.967
576.00,42.009
577.00,42.065
578.00,42.163
579.00,42.198
580.00,42.265
581.00,42.360
582.00,42.417
583.00,42.523
584.00,42.615
585.00,42.650
586.00,42.681
587.00,42.706
588.00,42.730
589.00,42.826
590.00,42.908
591.00,42.942
592.00,42.937
593.00,43.019
594.00,42.990
595.00,43.058
596.00,43.156
597.00,43.274
598.00,43.278
599.00,43.291
600.00,43.354
601.00,43.369
602.00,43.327
603.00,43.361
604.00,43.481
605.00,43.517
606.00,43.574
607.00,43.572
608.00,43.655
609.00,43.692
610.00,43.610
611.00,43.716
612.00,43.744
613.00,43.742
614.00,43.755
615.00,43.871
616.00,43.927
617.00,43.936
618.00,43.997
619.00,44.032
620.00,44.044
621.00,44.091
622.00,44.156
623.00,44.211
624.00,44.311
625.00,44.332
626.00,44.324
627.00,44.385
628.00,44.396
629.00,44.507
630.00,44.516
631.00,44.570
632.00,44.650
633.00,44.660
634.00,44.703
635.00,44.785
636.00,44.826
637.00,44.895
638.00,44.900
639.00,44.985
640.00,45.018
641.00,45.027
642.00,45.105
643.00,45.146
644.00,45.215
645.00,45.202
646.00,45.364
647.00,45.400
648.00,45.407
649.00,45.504
650.00,45.506
651.00,45.615
652.00,45.697
653.00,45.691
654.00,45.768
655.00,45.834
656.00,45.818
657.00,46.009
658.00,45.946
659.00,45.867
660.00,46.043
661.00,46.082
662.00,46.269
663.00,46.277
664.00,46.356
665.00,46.407
666.00,46.397
667.00,46.440
668.00,46.634
669.00,46.709
670.00,46.739
671.00,46.722
672.00,46.768
673.00,46.900
674.00,46.936
675.00,46.890
676.00,47.088
677.00,47.103
678.00,47.016
679.00,47.086
680.00,47.162
681.00,47.175
682.00,47.328
683.00,47.305
684.00,47.437
685.00,47.516
686.00,47.552
687.00,47.593
688.00,47.606
689.00,47.589
690.00,47.718
691.00,47.762
692.00,47.707
693.00,47.756
694.00,47.686
695.00,47.787
696.00,47.842
697.00,47.785
698.00,47.705
699.00,48.304
700.00,48.777
701.00,48.281
702.00,48.265
703.00,48.475
704.00,48.391
705.00,48.447
706.00,48.509
707.00,48.478
708.00,48.519
709.00,48.579
710.00,48.803
711.00,48.590
712.00,48.624
713.00,48.636
714.00,48.768
715.00,48.739
716.00,48.826
717.00,48.762
718.00,48.854
719.00,48.905
720.00,48.859
721.00,53.160
722.00,53.171
723.00,53.175
724.00,53.135
725.00,53.124
726.00,53.035
727.00,53.145
728.00,53.042
729.00,53.056
730.00,53.158
731.00,53.107
732.00,53.013
733.00,53.134
734.00,53.140
735.00,53.143
736.00,53.147
737.00,53.063
738.00,53.064
739.00,53.126
740.00,53.141
741.00,53.147
742.00,53.157
743.00,53.021
744.00,53.116
745.00,53.089
746.00,53.077
747.00,53.010
748.00,52.931
749.00,52.952
750.00,52.969
751.00,52.910
752.00,52.905
753.00,52.875
754.00,52.849
755.00,52.889
756.00,52.899
757.00,52.819
758.00,52.806
759.00,52.817
760.00,52.778
761.00,52.855
762.00,52.794
763.00,52.774
764.00,52.762
765.00,52.737
766.00,52.771
767.00,52.812
768.00,52.753
769.00,52.740
770.00,52.796
771.00,52.742
772.00,52.674
773.00,52.735
774.00,52.695
775.00,52.746
776.00,52.690
777.00,52.742
778.00,52.680
779.00,52.699
780.00,52.700
781.00,52.695
782.00,52.687
783.00,52.541
784.00,52.679
785.00,52.471
786.00,52.596
787.00,52.552
788.00,52.480
789.00,52.483
790.00,52.416
791.00,52.535
792.00,52.424
793.00,52.389
794.00,52.455
795.00,52.320
796.00,52.450
797.00,52.293
798.00,52.327
799.00,52.287
800.00,52.330
801.00,52.246
802.00,52.305
803.00,52.146
804.00,52.109
805.00,52.167
806.00,52.091
807.00,52.064
808.00,52.104
809.00,52.097
810.00,52.113
811.00,51.946
812.00,52.092
813.00,51.990
814.00,51.982
815.00,51.944
816.00,51.991
817.00,51.915
818.00,51.875
819.00,51.832
820.00,51.840
821.00,51.732
822.00,51.801
823.00,51.778
824.00,51.768
825.00,51.701
826.00,51.732
827.00,51.849
828.00,51.682
829.00,51.757
830.00,51.678
831.00,54.226
832.00,54.237
833.00,54.143
834.00,54.177
835.00,54.124
836.00,54.147
837.00,54.079
838.00,54.044
839.00,54.047
840.00,53.977
841.00,54.017
842.00,53.936
843.00,53.969
844.00,53.972
845.00,53.866
846.00,53.903
847.00,53.845
848.00,53.749
849.00,53.810
850.00,53.738
851.00,53.714
852.00,53.690
853.00,53.668
854.00,53.614
855.00,53.550
856.00,53.552
857.00,53.531
858.00,53.507
859.00,53.479
860.00,53.466
861.00,53.457
862.00,53.408
863.00,53.424
864.00,53.374
865.00,53.370
866.00,53.334
867.00,53.349
868.00,53.324
869.00,53.283
870.00,53.307
871.00,53.285
872.00,53.266
873.00,53.249
874.00,53.273
875.00,53.238
876.00,53.232
877.00,53.198
878.00,53.212
879.00,53.141
880.00,53.155
881.00,53.105
882.00,53.107
883.00,53.112
884.00,53.040
885.00,53.018
886.00,52.998
887.00,52.983
888.00,52.972
889.00,52.948
890.00,52.934
891.00,52.942
892.00,52.892
893.00,52.855
894.00,52.867
895.00,52.831
896.00,52.805
897.00,52.786
898.00,52.733
899.00,52.748
900.00,52.742
901.00,52.726
902.00,52.694
903.00,52.662
904.00,52.656
905.00,52.660
906.00,52.650
907.00,52.605
908.00,52.586
909.00,52.599
910.00,52.566
911.00,52.540
912.00,52.534
913.00,52.461
914.00,52.442
915.00,52.427
916.00,52.420
917.00,52.373
918.00,52.366
919.00,52.355
920.00,52.305
921.00,52.325
922.00,52.321
923.00,52.280
924.00,52.239
925.00,52.206
926.00,52.237
927.00,52.214
928.00,52.176
929.00,52.190
930.00,52.166
931.00,52.152
932.00,52.099
933.00,52.113
934.00,52.093
935.00,52.074
936.00,52.028
937.00,51.995
938.00,52.004
939.00,51.989
940.00,51.943
941.00,51.940
942.00,51.921
943.00,51.910
944.00,51.871
945.00,51.865
946.00,51.961
947.00,51.816
948.00,51.798
949.00,51.776
950.00,51.741
951.00,51.733
952.00,51.697
953.00,51.676
954.00,51.658
955.00,51.602
956.00,51.602
957.00,51.584
958.00,51.567
959.00,51.532
960.00,51.558
961.00,51.596
962.00,51.517
963.00,51.458
964.00,51.451
965.00,51.442
966.00,51.428
967.00,51.421
968.00,51.394
969.00,51.416
970.00,51.400
971.00,51.408
972.00,51.369
973.00,51.394
974.00,51.407
975.00,51.389
976.00,51.428
977.00,51.392
978.00,51.441
979.00,51.387
980.00,51.409
981.00,51.413
982.00,51.382
983.00,51.392
984.00,51.359
985.00,51.370
986.00,51.324
987.00,51.349
988.00,51.331
989.00,51.317
990.00,51.316
991.00,51.293
992.00,51.308
993.00,51.278
994.00,51.261
995.00,51.254
996.00,51.222
997.00,51.223
998.00,51.200
999.00,51.216
1000.00,51.164
1001.00,51.174
1002.00,51.160
1003.00,51.148
1004.00,51.147
1005.00,51.103
1006.00,51.145
1007.00,51.119
1008.00,51.087
1009.00,51.066
1010.00,51.053
1011.00,51.042
1012.00,51.009
1013.00,51.001
1014.00,50.981
1015.00,50.998
1016.00,50.946
1017.00,50.948
1018.00,50.938
1019.00,50.904
1020.00,50.905
1021.00,50.873
1022.00,50.900
1023.00,50.848
1024.00,50.844
1025.00,50.825
1026.00,50.828
1027.00,50.791
1028.00,50.773
1029.00,50.769
1030.00,50.732
1031.00,50.743
1032.00,50.691
1033.00,50.698
1034.00,50.668
1035.00,50.631
1036.00,50.630
1037.00,50.597
1038.00,50.584
1039.00,50.543
1040.00,50.552
1041.00,50.509
1042.00,50.507
1043.00,50.482
1044.00,50.516
1045.00,50.508
1046.00,50.488
1047.00,50.504
1048.00,50.522
1049.00,50.514
1050.00,50.529
1051.00,50.556
1052.00,50.545
1053.00,50.565
1054.00,50.552
1055.00,50.575
1056.00,50.587
1057.00,50.569
1058.00,50.561
1059.00,50.569
1060.00,50.558
1061.00,50.568
1062.00,50.548
1063.00,50.550
1064.00,50.525
1065.00,50.519
1066.00,50.504
1067.00,50.510
1068.00,50.532
1069.00,50.485
1070.00,50.473
1071.00,50.462
1072.00,50.481
1073.00,50.451
1074.00,50.446
1075.00,50.450
1076.00,50.432
1077.00,50.411
1078.00,50.404
1079.00,50.379
1080.00,50.389
1081.00,50.359
1082.00,50.362
1083.00,50.372
1084.00,50.351
1085.00,50.342
1086.00,50.345
1087.00,50.321
1088.00,50.319
1089.00,50.311
1090.00,50.301
1091.00,50.301
1092.00,50.303
1093.00,50.262
1094.00,50.250
1095.00,50.244
1096.00,50.243
1097.00,50.210
1098.00,50.208
1099.00,50.198
1100.00,50.188
1101.00,50.174
1102.00,50.173
1103.00,50.172
1104.00,50.154
1105.00,50.135
1106.00,50.131
1107.00,50.134
1108.00,50.134
1109.00,50.117
1110.00,50.117
1111.00,50.102
1112.00,50.079
1113.00,50.083
1114.00,50.088
1115.00,50.070
1116.00,50.068
1117.00,50.032
1118.00,50.040
1119.00,50.035
1120.00,50.045
1121.00,50.040
1122.00,50.019
1123.00,50.004
1124.00,50.017
1125.00,50.010
1126.00,49.983
1127.00,49.973
1128.00,49.961
1129.00,49.982
1130.00,49.951
1131.00,49.943
1132.00,49.938
1133.00,49.932
1134.00,49.934
1135.00,49.916
1136.00,49.932
1137.00,49.923
1138.00,49.918
1139.00,49.918
1140.00,49.900
1141.00,49.885
1142.00,49.912
1143.00,49.904
1144.00,49.896
1145.00,49.869
1146.00,49.872
1147.00,49.852
1148.00,49.843
1149.00,49.857
1150.00,49.848
1151.00,49.857
1152.00,49.848
1153.00,49.839
1154.00,49.832
1155.00,49.838
1156.00,49.810
1157.00,49.815
1158.00,49.810
1159.00,49.786
1160.00,49.792
1161.00,49.801
1162.00,49.781
1163.00,49.792
1164.00,49.792
1165.00,49.793
1166.00,49.792
1167.00,49.786
1168.00,49.811
1169.00,49.805
1170.00,49.798
1171.00,49.766
1172.00,49.776
1173.00,49.755
1174.00,49.781
1175.00,49.788
1176.00,49.765
1177.00,49.764
1178.00,49.745
1179.00,49.763
1180.00,49.755
1181.00,49.774
1182.00,49.772
1183.00,49.755
1184.00,49.737
1185.00,49.772
1186.00,49.747
1187.00,49.752
1188.00,49.741
1189.00,49.745
1190.00,49.749
1191.00,49.744
1192.00,49.745
1193.00,49.734
1194.00,49.741
1195.00,49.712
1196.00,49.746
1197.00,49.738
1198.00,49.730
1199.00,49.725
1200.00,49.709
1201.00,49.724
1202.00,49.720
1203.00,49.717
1204.00,49.695
1205.00,49.720
1206.00,49.702
1207.00,49.729
1208.00,49.691
1209.00,49.690
1210.00,49.705
1211.00,49.690
1212.00,49.715
1213.00,49.685
1214.00,49.694
1215.00,49.694
1216.00,49.689
1217.00,49.704
1218.00,49.709
1219.00,49.708
1220.00,49.680
1221.00,49.703
1222.00,49.675
1223.00,49.692
1224.00,49.693
1225.00,49.671
1226.00,49.682
1227.00,49.665
1228.00,49.686
1229.00,49.691
1230.00,49.712
1231.00,49.724
1232.00,49.738
1233.00,49.713
1234.00,49.719
1235.00,49.729
1236.00,49.730
1237.00,49.710
1238.00,49.717
1239.00,49.723
1240.00,49.723
1241.00,49.721
1242.00,49.735
1243.00,49.755
1244.00,49.716
1245.00,49.753
1246.00,49.763
1247.00,49.748
1248.00,49.744
1249.00,49.740
1250.00,49.757
1251.00,49.756
1252.00,49.769
1253.00,49.768
1254.00,49.800
1255.00,49.774
1256.00,49.761
1257.00,49.762
1258.00,49.789
1259.00,49.784
1260.00,49.791
1261.00,49.795
1262.00,49.789
1263.00,49.771
1264.00,49.798
1265.00,49.810
1266.00,49.811
1267.00,49.821
1268.00,49.831
1269.00,49.799
1270.00,49.810
1271.00,49.824
1272.00,49.828
1273.00,49.831
1274.00,49.829
1275.00,49.831
1276.00,49.826
1277.00,49.819
1278.00,49.836
1279.00,49.837
1280.00,49.838
1281.00,49.842
1282.00,49.862
1283.00,49.851
1284.00,49.857
1285.00,49.860
1286.00,49.869
1287.00,49.863
1288.00,49.864
1289.00,49.872
1290.00,49.896
1291.00,49.887
1292.00,49.895
1293.00,49.885
1294.00,49.909
1295.00,49.914
1296.00,49.910
1297.00,49.906
1298.00,49.926
1299.00,49.908
1300.00,49.927
1301.00,49.947
1302.00,49.927
1303.00,49.948
1304.00,49.925
1305.00,49.945
1306.00,49.953
1307.00,49.965
1308.00,49.965
1309.00,49.961
1310.00,49.956
1311.00,49.979
1312.00,49.982
1313.00,49.972
1314.00,49.980
1315.00,49.999
1316.00,49.987
1317.00,50.015
1318.00,50.006
1319.00,50.013
1320.00,50.047
1321.00,50.184
1322.00,50.208
1323.00,50.195
1324.00,50.174
1325.00,50.165
1326.00,50.202
1327.00,50.180
1328.00,50.176
1329.00,50.173
1330.00,50.175
1331.00,50.179
1332.00,50.184
1333.00,50.170
1334.00,50.205
1335.00,50.212
1336.00,50.247
1337.00,50.269
1338.00,50.316
1339.00,50.378
1340.00,50.466
1341.00,50.525
1342.00,50.567
1343.00,50.623
1344.00,50.655
1345.00,50.731
1346.00,50.776
1347.00,50.784
1348.00,50.811
1349.00,50.828
1350.00,50.826
1351.00,50.852
1352.00,50.855
1353.00,50.934
1354.00,50.865
1355.00,50.696
1356.00,50.922
1357.00,50.876
1358.00,50.868
1359.00,50.914
1360.00,50.929
1361.00,50.945
1362.00,50.761
1363.00,50.947
1364.00,50.957
1365.00,50.898
1366.00,51.013
1367.00,50.899
1368.00,50.829
1369.00,50.914
1370.00,50.855
1371.00,51.052
1372.00,50.872
1373.00,50.877
1374.00,50.881
1375.00,50.853
1376.00,50.849
1377.00,50.818
1378.00,50.911
1379.00,50.855
1380.00,50.876
1381.00,50.826
1382.00,50.762
1383.00,50.842
1384.00,50.902
1385.00,50.912
1386.00,50.880
1387.00,50.766
1388.00,50.805
1389.00,50.806
1390.00,50.844
1391.00,50.763
1392.00,50.849
1393.00,50.902
1394.00,50.841
1395.00,50.747
1396.00,50.747
1397.00,50.835
1398.00,50.875
1399.00,50.839
1400.00,50.751
1401.00,50.810
1402.00,50.884
1403.00,50.845
1404.00,50.816
1405.00,50.888
1406.00,50.859
1407.00,50.875
1408.00,50.851
1409.00,50.837
1410.00,50.884
1411.00,50.895
1412.00,50.933
1413.00,50.873
1414.00,50.898
1415.00,50.924
1416.00,50.966
1417.00,50.966
1418.00,50.941
1419.00,50.937
1420.00,50.961
1421.00,51.002
1422.00,51.017
1423.00,50.993
1424.00,51.009
1425.00,51.018
1426.00,51.028
1427.00,51.072
1428.00,51.079
1429.00,51.094
1430.00,51.109
1431.00,51.106
1432.00,51.135
1433.00,51.161
1434.00,51.128
1435.00,51.187
1436.00,51.196
1437.00,51.172
1438.00,51.196
1439.00,51.238
1440.00,51.224
1441.00,51.259
1442.00,51.268
1443.00,51.296
1444.00,51.336
1445.00,51.294
1446.00,51.311
1447.00,51.365
1448.00,51.378
1449.00,51.391
1450.00,51.373
1451.00,51.388
1452.00,51.402
1453.00,51.424
1454.00,51.432
1455.00,51.449
1456.00,51.460
1457.00,51.462
1458.00,51.497
1459.00,51.497
1460.00,51.520
1461.00,51.541
1462.00,51.552
1463.00,51.578
1464.00,51.591
1465.00,51.591
1466.00,51.607
1467.00,51.615
1468.00,51.657
1469.00,51.655
1470.00,51.641
1471.00,51.665
1472.00,51.692
1473.00,51.694
1474.00,51.727
1475.00,51.716
1476.00,51.743
1477.00,51.753
1478.00,51.754
1479.00,51.786
1480.00,51.793
1481.00,51.772
1482.00,51.810
1483.00,51.821
1484.00,51.814
1485.00,51.836
1486.00,51.840
1487.00,51.878
1488.00,51.864
1489.00,51.914
1490.00,51.911
1491.00,51.922
1492.00,51.914
1493.00,51.924
1494.00,51.951
1495.00,51.941
1496.00,51.964
1497.00,51.950
1498.00,51.958
1499.00,51.982
1500.00,51.986
1501.00, 
1502.00, 
1503.00, 
1504.00, 
1505.00, 
1506.00, 
1507.00, 
1508.00, 
1509.00, 
1510.00, 
1511.00, 
1512.00, 
1513.00, 
1514.00, 
1515.00, 
1516.00, 
1517.00, 
1518.00, 
1519.00, 
1520.00, 
1521.00, 
1522.00, 
1523.00, 
1524.00, 
1525.00, 
1526.00, 
1527.00, 
1528.00, 
1529.00, 
1530.00, 
1531.00, 
1532.00, 
1533.00, 
1534.00, 
1535.00, 
1536.00, 
1537.00, 
1538.00, 
1539.00, 
1540.00, 
1541.00, 
1542.00, 
1543.00, 
1544.00, 
1545.00, 
1546.00, 
1547.00, 
1548.00, 
1549.00, 
1550.00, 
1551.00, 
1552.00, 
1553.00, 
1554.00, 
1555.00, 
1556.00, 
1557.00, 
1558.00, 
1559.00, 
1560.00, 
1561.00, 
1562.00, 
1563.00, 
1564.00, 
1565.00, 
1566.00, 
1567.00, 
1568.00, 
1569.00, 
1570.00, 
1571.00, 
1572.00, 
1573.00, 
1574.00, 
1575.00, 
1576.00, 
1577.00, 
1578.00, 
1579.00, 
1580.00, 
1581.00, 
1582.00, 
1583.00, 
1584.00, 
1585.00, 
1586.00, 
1587.00, 
1588.00, 
1589.00, 
1590.00, 
1591.00, 
1592.00, 
1593.00, 
1594.00, 
1595.00, 
1596.00, 
1597.00, 
1598.00, 
1599.00, 
1600.00, 
1601.00, 
1602.00, 
1603.00, 
1604.00, 
1605.00, 
1606.00, 
1607.00, 
1608.00, 
1609.00, 
1610.00, 
1611.00, 
1612.00, 
1613.00, 
1614.00, 
1615.00, 
1616.00, 
1617.00, 
1618.00, 
1619.00, 
1620.00, 
1621.00, 
1622.00, 
1623.00, 
1624.00, 
1625.00, 
1626.00, 
1627.00, 
1628.00, 
1629.00, 
1630.00, 
1631.00, 
1632.00, 
1633.00, 
1634.00, 
1635.00, 
1636.00, 
1637.00, 
1638.00, 
1639.00, 
1640.00, 
1641.00, 
1642.00, 
1643.00, 
1644.00, 
1645.00, 
1646.00, 
1647.00, 
1648.00, 
1649.00, 
1650.00, 
1651.00, 
1652.00, 
1653.00, 
1654.00, 
1655.00, 
1656.00, 
1657.00, 
1658.00, 
1659.00, 
1660.00, 
1661.00, 
1662.00, 
1663.00, 
1664.00, 
1665.00, 
1666.00, 
1667.00, 
1668.00, 
1669.00, 
1670.00, 
1671.00, 
1672.00, 
1673.00, 
1674.00, 
1675.00, 
1676.00, 
1677.00, 
1678.00, 
1679.00, 
1680.00, 
1681.00, 
1682.00, 
1683.00, 
1684.00, 
1685.00, 
1686.00, 
1687.00, 
1688.00, 
1689.00, 
1690.00, 
1691.00, 
1692.00, 
1693.00, 
1694.00, 
1695.00, 
1696.00, 
1697.00, 
1698.00, 
1699.00, 
1700.00, 
1701.00, 
1702.00, 
1703.00, 
1704.00, 
1705.00, 
1706.00, 
1707.00, 
1708.00, 
1709.00, 
1710.00, 
1711.00, 
1712.00, 
1713.00, 
1714.00, 
1715.00, 
1716.00, 
1717.00, 
1718.00, 
1719.00, 
1720.00, 
1721.00, 
1722.00, 
1723.00, 
1724.00, 
1725.00, 
1726.00, 
1727.00, 
1728.00, 
1729.00, 
1730.00, 
1731.00, 
1732.00, 
1733.00, 
1734.00, 
1735.00, 
1736.00, 
1737.00, 
1738.00, 
1739.00, 
1740.00, 
1741.00, 
1742.00, 
1743.00, 
1744.00, 
1745.00, 
1746.00, 
1747.00, 
1748.00, 
1749.00, 
1750.00, 
1751.00, 
1752.00, 
1753.00, 
1754.00, 
1755.00, 
1756.00, 
1757.00, 
1758.00, 
1759.00, 
1760.00, 
1761.00, 
1762.00, 
1763.00, 
1764.00, 
1765.00, 
1766.00, 
1767.00, 
1768.00, 
1769.00, 
1770.00, 
1771.00, 
1772.00, 
1773.00, 
1774.00, 
1775.00, 
1776.00, 
1777.00, 
1778.00, 
1779.00, 
1780.00, 
1781.00, 
1782.00, 
1783.00, 
1784.00, 
1785.00, 
1786.00, 
1787.00, 
1788.00, 
1789.00, 
1790.00, 
1791.00, 
1792.00, 
1793.00, 
1794.00, 
1795.00, 
1796.00, 
1797.00, 
1798.00, 
1799.00, 
1800.00, 
1801.00, 
1802.00, 
1803.00, 
1804.00, 
1805.00, 
1806.00, 
1807.00, 
1808.00, 
1809.00, 
1810.00, 
1811.00, 
1812.00, 
1813.00, 
1814.00, 
1815.00, 
1816.00, 
1817.00, 
1818.00, 
1819.00, 
1820.00, 
1821.00, 
1822.00, 
1823.00, 
1824.00, 
1825.00, 
1826.00, 
1827.00, 
1828.00, 
1829.00, 
1830.00, 
1831.00, 
1832.00, 
1833.00, 
1834.00, 
1835.00, 
1836.00, 
1837.00, 
1838.00, 
1839.00, 
1840.00, 
1841.00, 
1842.00, 
1843.00, 
1844.00, 
1845.00, 
1846.00, 
1847.00, 
1848.00, 
1849.00, 
1850.00, 
1851.00, 
1852.00, 
1853.00, 
1854.00, 
1855.00, 
1856.00, 
1857.00, 
1858.00, 
1859.00, 
1860.00, 
1861.00, 
1862.00, 
1863.00, 
1864.00, 
1865.00, 
1866.00, 
1867.00, 
1868.00, 
1869.00, 
1870.00, 
1871.00, 
1872.00, 
1873.00, 
1874.00, 
1875.00, 
1876.00, 
1877.00, 
1878.00, 
1879.00, 
1880.00, 
1881.00, 
1882.00, 
1883.00, 
1884.00, 
1885.00, 
1886.00, 
1887.00, 
1888.00, 
1889.00, 
1890.00, 
1891.00, 
1892.00, 
1893.00, 
1894.00, 
1895.00, 
1896.00, 
1897.00, 
1898.00, 
1899.00, 
1900.00, 
1901.00, 
1902.00, 
1903.00, 
1904.00, 
1905.00, 
1906.00, 
1907.00, 
1908.00, 
1909.00, 
1910.00, 
1911.00, 
1912.00, 
1913.00, 
1914.00, 
1915.00, 
1916.00, 
1917.00, 
1918.00, 
1919.00, 
1920.00, 
1921.00, 
1922.00, 
1923.00, 
1924.00, 
1925.00, 
1926.00, 
1927.00, 
1928.00, 
1929.00, 
1930.00, 
1931.00, 
1932.00, 
1933.00, 
1934.00, 
1935.00, 
1936.00, 
1937.00, 
1938.00, 
1939.00, 
1940.00, 
1941.00, 
1942.00, 
1943.00, 
1944.00, 
1945.00, 
1946.00, 
1947.00, 
1948.00, 
1949.00, 
1950.00, 
1951.00, 
1952.00, 
1953.00, 
1954.00, 
1955.00, 
1956.00, 
1957.00, 
1958.00, 
1959.00, 
1960.00, 
1961.00, 
1962.00, 
1963.00, 
1964.00, 
1965.00, 
1966.00, 
1967.00, 
1968.00, 
1969.00, 
1970.00, 
1971.00, 
1972.00, 
1973.00, 
1974.00, 
1975.00, 
1976.00, 
1977.00, 
1978.00, 
1979.00, 
1980.00, 
1981.00, 
1982.00, 
1983.00, 
1984.00, 
1985.00, 
1986.00, 
1987.00, 
1988.00, 
1989.00, 
1990.00, 
1991.00, 
1992.00, 
1993.00, 
1994.00, 
1995.00, 
1996.00, 
1997.00, 
1998.00, 
1999.00, 
2000.00, 
2001.00, 
2002.00, 
2003.00, 
2004.00, 
2005.00, 
2006.00, 
2007.00, 
2008.00, 
2009.00, 
2010.00, 
2011.00, 
2012.00, 
2013.00, 
2014.00, 
2015.00, 
2016.00, 
2017.00, 
2018.00, 
2019.00, 
2020.00, 
2021.00, 
2022.00, 
2023.00, 
2024.00, 
2025.00, 
2026.00, 
2027.00, 
2028.00, 
2029.00, 
2030.00, 
2031.00, 
2032.00, 
2033.00, 
2034.00, 
2035.00, 
2036.00, 
2037.00, 
2038.00, 
2039.00, 
2040.00, 
2041.00, 
2042.00, 
2043.00, 
2044.00, 
2045.00, 
2046.00, 
2047.00, 
2048.00, 
2049.00, 
2050.00, 
2051.00, 
2052.00, 
2053.00, 
2054.00, 
2055.00, 
2056.00, 
2057.00, 
2058.00, 
2059.00, 
2060.00, 
2061.00, 
2062.00, 
2063.00, 
2064.00, 
2065.00, 
2066.00, 
2067.00, 
2068.00, 
2069.00, 
2070.00, 
2071.00, 
2072.00, 
2073.00, 
2074.00, 
2075.00, 
2076.00, 
2077.00, 
2078.00, 
2079.00, 
2080.00, 
2081.00, 
2082.00, 
2083.00, 
2084.00, 
2085.00, 
2086.00, 
2087.00, 
2088.00, 
2089.00, 
2090.00, 
2091.00, 
2092.00, 
2093.00, 
2094.00, 
2095.00, 
2096.00, 
2097.00, 
2098.00, 
2099.00, 
2100.00, 
2101.00, 
2102.00, 
2103.00, 
2104.00, 
2105.00, 
2106.00, 
2107.00, 
2108.00, 
2109.00, 
2110.00, 
2111.00, 
2112.00, 
2113.00, 
2114.00, 
2115.00, 
2116.00, 
2117.00, 
2118.00, 
2119.00, 
2120.00, 
2121.00, 
2122.00, 
2123.00, 
2124.00, 
2125.00, 
2126.00, 
2127.00, 
2128.00, 
2129.00, 
2130.00, 
2131.00, 
2132.00, 
2133.00, 
2134.00, 
2135.00, 
2136.00, 
2137.00, 
2138.00, 
2139.00, 
2140.00, 
2141.00, 
2142.00, 
2143.00, 
2144.00, 
2145.00, 
2146.00, 
2147.00, 
2148.00, 
2149.00, 
2150.00, 
2151.00, 
2152.00, 
2153.00, 
2154.00, 
2155.00, 
2156.00, 
2157.00, 
2158.00, 
2159.00, 
2160.00, 
2161.00, 
2162.00, 
2163.00, 
2164.00, 
2165.00, 
2166.00, 
2167.00, 
2168.00, 
2169.00, 
2170.00, 
2171.00, 
2172.00, 
2173.00, 
2174.00, 
2175.00, 
2176.00, 
2177.00, 
2178.00, 
2179.00, 
2180.00, 
2181.00, 
2182.00, 
2183.00, 
2184.00, 
2185.00, 
2186.00, 
2187.00, 
2188.00, 
2189.00, 
2190.00, 
2191.00, 
2192.00, 
2193.00, 
2194.00, 
2195.00, 
2196.00, 
2197.00, 
2198.00, 
2199.00, 
2200.00, 
2201.00, 
2202.00, 
2203.00, 
2204.00, 
2205.00, 
2206.00, 
2207.00, 
2208.00, 
2209.00, 
2210.00, 
2211.00, 
2212.00, 
2213.00, 
2214.00, 
2215.00, 
2216.00, 
2217.00, 
2218.00, 
2219.00, 
2220.00, 
2221.00, 
2222.00, 
2223.00, 
2224.00, 
2225.00, 
2226.00, 
2227.00, 
2228.00, 
2229.00, 
2230.00, 
2231.00, 
2232.00, 
2233.00, 
2234.00, 
2235.00, 
2236.00, 
2237.00, 
2238.00, 
2239.00, 
2240.00, 
2241.00, 
2242.00, 
2243.00, 
2244.00, 
2245.00, 
2246.00, 
2247.00, 
2248.00, 
2249.00, 
2250.00, 
2251.00, 
2252.00, 
2253.00, 
2254.00, 
2255.00, 
2256.00, 
2257.00, 
2258.00, 
2259.00, 
2260.00, 
2261.00, 
2262.00, 
2263.00, 
2264.00, 
2265.00, 
2266.00, 
2267.00, 
2268.00, 
2269.00, 
2270.00, 
2271.00, 
2272.00, 
2273.00, 
2274.00, 
2275.00, 
2276.00, 
2277.00, 
2278.00, 
2279.00, 
2280.00, 
2281.00, 
2282.00, 
2283.00, 
2284.00, 
2285.00, 
2286.00, 
2287.00, 
2288.00, 
2289.00, 
2290.00, 
2291.00, 
2292.00, 
2293.00, 
2294.00, 
2295.00, 
2296.00, 
2297.00, 
2298.00, 
2299.00, 
2300.00, 
2301.00, 
2302.00, 
2303.00, 
2304.00, 
2305.00, 
2306.00, 
2307.00, 
2308.00, 
2309.00, 
2310.00, 
2311.00, 
2312.00, 
2313.00, 
2314.00, 
2315.00, 
2316.00, 
2317.00, 
2318.00, 
2319.00, 
2320.00, 
2321.00, 
2322.00, 
2323.00, 
2324.00, 
2325.00, 
2326.00, 
2327.00, 
2328.00, 
2329.00, 
2330.00, 
2331.00, 
2332.00, 
2333.00, 
2334.00, 
2335.00, 
2336.00, 
2337.00, 
2338.00, 
2339.00, 
2340.00, 
2341.00, 
2342.00, 
2343.00, 
2344.00, 
2345.00, 
2346.00, 
2347.00, 
2348.00, 
2349.00, 
2350.00, 
2351.00, 
2352.00, 
2353.00, 
2354.00, 
2355.00, 
2356.00, 
2357.00, 
2358.00, 
2359.00, 
2360.00, 
2361.00, 
2362.00, 
2363.00, 
2364.00, 
2365.00, 
2366.00, 
2367.00, 
2368.00, 
2369.00, 
2370.00, 
2371.00, 
2372.00, 
2373.00, 
2374.00, 
2375.00, 
2376.00, 
2377.00, 
2378.00, 
2379.00, 
2380.00, 
2381.00, 
2382.00, 
2383.00, 
2384.00, 
2385.00, 
2386.00, 
2387.00, 
2388.00, 
2389.00, 
2390.00, 
2391.00, 
2392.00, 
2393.00, 
2394.00, 
2395.00, 
2396.00, 
2397.00, 
2398.00, 
2399.00, 
2400.00, 
2401.00, 
2402.00, 
2403.00, 
2404.00, 
2405.00, 
2406.00, 
2407.00, 
2408.00, 
2409.00, 
2410.00, 
2411.00, 
2412.00, 
2413.00, 
2414.00, 
2415.00, 
2416.00, 
2417.00, 
2418.00, 
2419.00, 
2420.00, 
2421.00, 
2422.00, 
2423.00, 
2424.00, 
2425.00, 
2426.00, 
2427.00, 
2428.00, 
2429.00, 
2430.00, 
2431.00, 
2432.00, 
2433.00, 
2434.00, 
2435.00, 
2436.00, 
2437.00, 
2438.00, 
2439.00, 
2440.00, 
2441.00, 
2442.00, 
2443.00, 
2444.00, 
2445.00, 
2446.00, 
2447.00, 
2448.00, 
2449.00, 
2450.00, 
2451.00, 
2452.00, 
2453.00, 
2454.00, 
2455.00, 
2456.00, 
2457.00, 
2458.00, 
2459.00, 
2460.00, 
2461.00, 
2462.00, 
2463.00, 
2464.00, 
2465.00, 
2466.00, 
2467.00, 
2468.00, 
2469.00, 
2470.00, 
2471.00, 
2472.00, 
2473.00, 
2474.00, 
2475.00, 
2476.00, 
2477.00, 
2478.00, 
2479.00, 
2480.00, 
2481.00, 
2482.00, 
2483.00, 
2484.00, 
2485.00, 
2486.00, 
2487.00, 
2488.00, 
2489.00, 
2490.00, 
2491.00, 
2492.00, 
2493.00, 
2494.00, 
2495.00, 
2496.00, 
2497.00, 
2498.00, 
2499.00, 
2500.00, 
2501.00, 
2502.00, 
2503.00, 
2504.00, 
2505.00, 
2506.00, 
2507.00, 
2508.00, 
2509.00, 
2510.00, 
2511.00, 
2512.00, 
2513.00, 
2514.00, 
2515.00, 
2516.00, 
2517.00, 
2518.00, 
2519.00, 
2520.00, 
2521.00, 
2522.00, 
2523.00, 
2524.00, 
2525.00, 
2526.00, 
2527.00, 
2528.00, 
2529.00, 
2530.00, 
2531.00, 
2532.00, 
2533.00, 
2534.00, 
2535.00, 
2536.00, 
2537.00, 
2538.00, 
2539.00, 
2540.00, 
2541.00, 
2542.00, 
2543.00, 
2544.00, 
2545.00, 
2546.00, 
2547.00, 
2548.00, 
2549.00, 
2550.00, 
2551.00, 
2552.00, 
2553.00, 
2554.00, 
2555.00, 
2556.00, 
2557.00, 
2558.00, 
2559.00, 
2560.00, 
2561.00, 
2562.00, 
2563.00, 
2564.00, 
2565.00, 
2566.00, 
2567.00, 
2568.00, 
2569.00, 
2570.00, 
2571.00, 
2572.00, 
2573.00, 
2574.00, 
2575.00, 
2576.00, 
2577.00, 
2578.00, 
2579.00, 
2580.00, 
2581.00, 
2582.00, 
2583.00, 
2584.00, 
2585.00, 
2586.00, 
2587.00, 
2588.00, 
2589.00, 
2590.00, 
2591.00, 
2592.00, 
2593.00, 
2594.00, 
2595.00, 
2596.00, 
2597.00, 
2598.00, 
2599.00, 
2600.00, 
