"1aP2 - RawData"
"Wavelength nm.","T%"
200.00,0.003
201.00,0.002
202.00,0.003
203.00,0.000
204.00,-0.001
205.00,-0.000
206.00,0.005
207.00,0.005
208.00,0.002
209.00,0.001
210.00,-0.002
211.00,-0.001
212.00,0.002
213.00,0.001
214.00,0.001
215.00,-0.001
216.00,-0.001
217.00,0.003
218.00,-0.002
219.00,-0.002
220.00,-0.000
221.00,-0.001
222.00,0.000
223.00,0.000
224.00,0.000
225.00,0.001
226.00,-0.000
227.00,0.000
228.00,0.003
229.00,0.001
230.00,-0.001
231.00,0.001
232.00,0.001
233.00,-0.003
234.00,0.001
235.00,0.002
236.00,-0.001
237.00,-0.002
238.00,0.000
239.00,0.001
240.00,-0.001
241.00,0.001
242.00,-0.001
243.00,0.001
244.00,-0.001
245.00,0.000
246.00,0.001
247.00,0.001
248.00,-0.001
249.00,0.001
250.00,-0.001
251.00,0.002
252.00,0.001
253.00,-0.001
254.00,0.001
255.00,-0.000
256.00,0.002
257.00,-0.000
258.00,0.001
259.00,-0.000
260.00,0.002
261.00,0.001
262.00,0.001
263.00,0.000
264.00,-0.001
265.00,0.000
266.00,-0.002
267.00,0.001
268.00,-0.001
269.00,-0.001
270.00,0.002
271.00,-0.000
272.00,0.000
273.00,0.001
274.00,0.001
275.00,0.000
276.00,0.000
277.00,-0.001
278.00,0.001
279.00,0.001
280.00,0.001
281.00,0.001
282.00,0.001
283.00,-0.000
284.00,0.001
285.00,0.000
286.00,0.001
287.00,0.001
288.00,-0.000
289.00,-0.001
290.00,0.000
291.00,0.000
292.00,-0.001
293.00,0.001
294.00,0.000
295.00,-0.000
296.00,0.000
297.00,-0.000
298.00,0.001
299.00,0.003
300.00,0.002
301.00,0.004
302.00,0.008
303.00,0.014
304.00,0.018
305.00,0.029
306.00,0.046
307.00,0.065
308.00,0.105
309.00,0.157
310.00,0.215
311.00,0.293
312.00,0.399
313.00,0.539
314.00,0.711
315.00,0.915
316.00,1.151
317.00,1.455
318.00,1.766
319.00,2.156
320.00,2.606
321.00,3.076
322.00,3.650
323.00,4.263
324.00,4.860
325.00,5.519
326.00,6.187
327.00,6.919
328.00,7.678
329.00,8.445
330.00,9.255
331.00,10.017
332.00,10.810
333.00,11.650
334.00,12.468
335.00,13.269
336.00,14.003
337.00,14.832
338.00,15.590
339.00,16.312
340.00,17.034
341.00,17.711
342.00,18.358
343.00,18.969
344.00,19.555
345.00,20.154
346.00,20.658
347.00,21.165
348.00,21.638
349.00,22.037
350.00,22.464
351.00,22.787
352.00,23.188
353.00,23.521
354.00,23.849
355.00,24.121
356.00,24.396
357.00,24.626
358.00,24.829
359.00,25.075
360.00,25.276
361.00,25.429
362.00,25.591
363.00,25.754
364.00,25.841
365.00,25.925
366.00,26.051
367.00,26.130
368.00,26.176
369.00,26.201
370.00,26.241
371.00,26.252
372.00,26.257
373.00,26.261
374.00,26.254
375.00,26.198
376.00,26.161
377.00,26.096
378.00,25.981
379.00,25.935
380.00,25.910
381.00,25.920
382.00,25.900
383.00,25.894
384.00,25.891
385.00,25.977
386.00,25.958
387.00,26.012
388.00,26.072
389.00,26.073
390.00,26.103
391.00,26.133
392.00,26.143
393.00,26.172
394.00,26.173
395.00,26.183
396.00,26.173
397.00,26.177
398.00,26.202
399.00,26.193
400.00,26.221
401.00,26.186
402.00,26.220
403.00,26.176
404.00,26.205
405.00,26.172
406.00,26.144
407.00,26.109
408.00,26.080
409.00,26.059
410.00,25.974
411.00,26.024
412.00,25.928
413.00,25.933
414.00,25.989
415.00,25.932
416.00,26.017
417.00,25.993
418.00,26.042
419.00,26.121
420.00,26.104
421.00,26.174
422.00,26.204
423.00,26.231
424.00,26.286
425.00,26.299
426.00,26.310
427.00,26.363
428.00,26.414
429.00,26.456
430.00,26.491
431.00,26.592
432.00,26.612
433.00,26.667
434.00,26.747
435.00,26.815
436.00,26.896
437.00,26.953
438.00,27.047
439.00,27.057
440.00,27.178
441.00,27.228
442.00,27.313
443.00,27.412
444.00,27.534
445.00,27.584
446.00,27.688
447.00,27.776
448.00,27.867
449.00,27.968
450.00,28.050
451.00,28.184
452.00,28.264
453.00,28.384
454.00,28.512
455.00,28.591
456.00,28.721
457.00,28.858
458.00,28.932
459.00,29.078
460.00,29.188
461.00,29.312
462.00,29.451
463.00,29.553
464.00,29.717
465.00,29.835
466.00,30.003
467.00,30.114
468.00,30.210
469.00,30.343
470.00,30.375
471.00,30.514
472.00,30.619
473.00,30.716
474.00,30.807
475.00,30.926
476.00,31.012
477.00,31.186
478.00,31.281
479.00,31.438
480.00,31.599
481.00,31.706
482.00,31.893
483.00,32.033
484.00,32.138
485.00,32.353
486.00,32.465
487.00,32.593
488.00,32.727
489.00,32.875
490.00,33.036
491.00,33.154
492.00,33.319
493.00,33.541
494.00,33.620
495.00,33.733
496.00,34.015
497.00,33.903
498.00,34.019
499.00,34.226
500.00,34.294
501.00,34.404
502.00,34.571
503.00,34.677
504.00,34.742
505.00,34.848
506.00,35.015
507.00,35.072
508.00,35.202
509.00,35.359
510.00,35.463
511.00,35.586
512.00,35.718
513.00,35.867
514.00,35.948
515.00,36.062
516.00,36.205
517.00,36.284
518.00,36.385
519.00,36.441
520.00,36.521
521.00,36.564
522.00,36.726
523.00,36.774
524.00,36.815
525.00,36.933
526.00,37.071
527.00,37.133
528.00,37.160
529.00,37.338
530.00,37.445
531.00,37.633
532.00,37.655
533.00,37.774
534.00,37.839
535.00,37.971
536.00,37.985
537.00,38.052
538.00,38.144
539.00,38.144
540.00,38.227
541.00,38.208
542.00,38.243
543.00,38.374
544.00,38.417
545.00,38.473
546.00,38.550
547.00,38.629
548.00,38.661
549.00,38.756
550.00,38.777
551.00,38.883
552.00,38.963
553.00,38.956
554.00,39.050
555.00,39.055
556.00,39.231
557.00,39.256
558.00,39.305
559.00,39.408
560.00,39.420
561.00,39.526
562.00,39.555
563.00,39.585
564.00,39.603
565.00,39.622
566.00,39.711
567.00,39.634
568.00,39.721
569.00,39.762
570.00,39.718
571.00,39.887
572.00,39.855
573.00,39.716
574.00,39.933
575.00,39.904
576.00,40.005
577.00,40.079
578.00,40.043
579.00,40.129
580.00,40.173
581.00,40.299
582.00,40.345
583.00,40.425
584.00,40.514
585.00,40.461
586.00,40.581
587.00,40.619
588.00,40.606
589.00,40.637
590.00,40.700
591.00,40.740
592.00,40.764
593.00,40.773
594.00,40.840
595.00,40.834
596.00,40.937
597.00,40.966
598.00,41.068
599.00,41.066
600.00,41.128
601.00,41.149
602.00,41.083
603.00,41.156
604.00,41.216
605.00,41.311
606.00,41.305
607.00,41.284
608.00,41.445
609.00,41.465
610.00,41.373
611.00,41.424
612.00,41.495
613.00,41.544
614.00,41.564
615.00,41.630
616.00,41.719
617.00,41.765
618.00,41.772
619.00,41.765
620.00,41.853
621.00,41.855
622.00,41.975
623.00,42.040
624.00,41.979
625.00,42.144
626.00,42.156
627.00,42.153
628.00,42.179
629.00,42.221
630.00,42.373
631.00,42.396
632.00,42.534
633.00,42.577
634.00,42.606
635.00,42.747
636.00,42.847
637.00,42.882
638.00,42.951
639.00,43.053
640.00,43.016
641.00,43.133
642.00,43.258
643.00,43.175
644.00,43.276
645.00,43.325
646.00,43.514
647.00,43.437
648.00,43.591
649.00,43.621
650.00,43.678
651.00,43.735
652.00,43.808
653.00,43.927
654.00,44.017
655.00,44.096
656.00,44.201
657.00,44.408
658.00,44.331
659.00,44.517
660.00,44.473
661.00,44.521
662.00,44.577
663.00,44.674
664.00,44.795
665.00,44.964
666.00,45.022
667.00,45.218
668.00,45.186
669.00,45.220
670.00,45.442
671.00,45.349
672.00,45.426
673.00,45.635
674.00,45.654
675.00,45.698
676.00,45.796
677.00,45.915
678.00,45.844
679.00,45.944
680.00,46.125
681.00,46.251
682.00,46.348
683.00,46.382
684.00,46.476
685.00,46.535
686.00,46.555
687.00,46.574
688.00,46.657
689.00,46.713
690.00,46.873
691.00,47.113
692.00,47.012
693.00,46.919
694.00,47.005
695.00,47.157
696.00,47.290
697.00,47.341
698.00,47.242
699.00,47.707
700.00,47.358
701.00,47.641
702.00,48.044
703.00,47.867
704.00,48.027
705.00,47.916
706.00,47.896
707.00,48.195
708.00,47.938
709.00,48.233
710.00,48.596
711.00,47.945
712.00,48.192
713.00,48.735
714.00,48.552
715.00,48.651
716.00,48.600
717.00,48.633
718.00,48.722
719.00,48.804
720.00,48.856
721.00,53.265
722.00,53.227
723.00,53.222
724.00,53.270
725.00,53.266
726.00,53.269
727.00,53.260
728.00,53.281
729.00,53.360
730.00,53.345
731.00,53.369
732.00,53.456
733.00,53.480
734.00,53.472
735.00,53.468
736.00,53.562
737.00,53.521
738.00,53.579
739.00,53.622
740.00,53.693
741.00,53.565
742.00,53.751
743.00,53.650
744.00,53.658
745.00,53.659
746.00,53.672
747.00,53.663
748.00,53.598
749.00,53.650
750.00,53.653
751.00,53.634
752.00,53.718
753.00,53.703
754.00,53.695
755.00,53.586
756.00,53.702
757.00,53.661
758.00,53.669
759.00,53.738
760.00,53.699
761.00,53.771
762.00,53.686
763.00,53.781
764.00,53.789
765.00,53.757
766.00,53.875
767.00,53.818
768.00,53.786
769.00,53.775
770.00,53.850
771.00,53.825
772.00,53.878
773.00,53.806
774.00,53.771
775.00,53.917
776.00,53.835
777.00,53.857
778.00,53.806
779.00,53.930
780.00,53.831
781.00,53.780
782.00,53.810
783.00,53.854
784.00,53.841
785.00,53.687
786.00,53.804
787.00,53.797
788.00,53.784
789.00,53.818
790.00,53.717
791.00,53.858
792.00,53.769
793.00,53.749
794.00,53.769
795.00,53.644
796.00,53.728
797.00,53.685
798.00,53.758
799.00,53.573
800.00,53.660
801.00,53.710
802.00,53.596
803.00,53.725
804.00,53.504
805.00,53.625
806.00,53.495
807.00,53.607
808.00,53.594
809.00,53.468
810.00,53.529
811.00,53.528
812.00,53.561
813.00,53.482
814.00,53.535
815.00,53.455
816.00,53.481
817.00,53.479
818.00,53.434
819.00,53.425
820.00,53.399
821.00,53.381
822.00,53.312
823.00,53.422
824.00,53.341
825.00,53.254
826.00,53.376
827.00,53.443
828.00,53.381
829.00,53.252
830.00,53.408
831.00,55.835
832.00,55.791
833.00,55.752
834.00,55.771
835.00,55.787
836.00,55.730
837.00,55.717
838.00,55.695
839.00,55.720
840.00,55.651
841.00,55.687
842.00,55.622
843.00,55.645
844.00,55.647
845.00,55.600
846.00,55.608
847.00,55.569
848.00,55.570
849.00,55.504
850.00,55.473
851.00,55.446
852.00,55.456
853.00,55.353
854.00,55.425
855.00,55.311
856.00,55.331
857.00,55.301
858.00,55.304
859.00,55.257
860.00,55.260
861.00,55.252
862.00,55.252
863.00,55.209
864.00,55.181
865.00,55.200
866.00,55.213
867.00,55.170
868.00,55.099
869.00,55.135
870.00,55.167
871.00,55.143
872.00,55.146
873.00,55.115
874.00,55.118
875.00,55.080
876.00,55.088
877.00,55.097
878.00,55.110
879.00,55.080
880.00,55.084
881.00,55.045
882.00,55.074
883.00,55.006
884.00,54.977
885.00,54.946
886.00,54.946
887.00,54.965
888.00,54.926
889.00,54.919
890.00,54.858
891.00,54.960
892.00,54.879
893.00,54.810
894.00,54.845
895.00,54.806
896.00,54.777
897.00,54.773
898.00,54.737
899.00,54.739
900.00,54.725
901.00,54.760
902.00,54.746
903.00,54.708
904.00,54.682
905.00,54.689
906.00,54.676
907.00,54.626
908.00,54.633
909.00,54.597
910.00,54.574
911.00,54.559
912.00,54.547
913.00,54.522
914.00,54.501
915.00,54.478
916.00,54.500
917.00,54.438
918.00,54.459
919.00,54.406
920.00,54.385
921.00,54.412
922.00,54.372
923.00,54.290
924.00,54.388
925.00,54.313
926.00,54.315
927.00,54.263
928.00,54.226
929.00,54.253
930.00,54.226
931.00,54.206
932.00,54.171
933.00,54.182
934.00,54.188
935.00,54.132
936.00,54.112
937.00,54.121
938.00,54.116
939.00,54.086
940.00,54.065
941.00,54.055
942.00,54.027
943.00,54.019
944.00,53.959
945.00,53.983
946.00,53.985
947.00,53.929
948.00,53.928
949.00,53.931
950.00,53.891
951.00,53.892
952.00,53.869
953.00,53.827
954.00,53.802
955.00,53.759
956.00,53.745
957.00,53.722
958.00,53.724
959.00,53.691
960.00,53.674
961.00,53.662
962.00,53.662
963.00,53.653
964.00,53.616
965.00,53.626
966.00,53.612
967.00,53.609
968.00,53.585
969.00,53.601
970.00,53.648
971.00,53.598
972.00,53.543
973.00,53.608
974.00,53.612
975.00,53.579
976.00,53.590
977.00,53.593
978.00,53.621
979.00,53.586
980.00,53.572
981.00,53.608
982.00,53.582
983.00,53.582
984.00,53.583
985.00,53.592
986.00,53.549
987.00,53.575
988.00,53.540
989.00,53.544
990.00,53.527
991.00,53.511
992.00,53.531
993.00,53.490
994.00,53.472
995.00,53.469
996.00,53.474
997.00,53.452
998.00,53.444
999.00,53.436
1000.00,53.402
1001.00,53.394
1002.00,53.371
1003.00,53.379
1004.00,53.347
1005.00,53.313
1006.00,53.362
1007.00,53.347
1008.00,53.323
1009.00,53.301
1010.00,53.313
1011.00,53.336
1012.00,53.287
1013.00,53.255
1014.00,53.243
1015.00,53.254
1016.00,53.211
1017.00,53.207
1018.00,53.216
1019.00,53.187
1020.00,53.173
1021.00,53.158
1022.00,53.171
1023.00,53.126
1024.00,53.113
1025.00,53.110
1026.00,53.099
1027.00,53.052
1028.00,53.056
1029.00,53.052
1030.00,53.010
1031.00,53.029
1032.00,52.990
1033.00,52.996
1034.00,52.969
1035.00,52.932
1036.00,52.915
1037.00,52.899
1038.00,52.862
1039.00,52.876
1040.00,52.840
1041.00,52.841
1042.00,52.855
1043.00,52.806
1044.00,52.844
1045.00,52.820
1046.00,52.788
1047.00,52.808
1048.00,52.816
1049.00,52.811
1050.00,52.820
1051.00,52.852
1052.00,52.857
1053.00,52.860
1054.00,52.869
1055.00,52.894
1056.00,52.897
1057.00,52.884
1058.00,52.888
1059.00,52.895
1060.00,52.889
1061.00,52.884
1062.00,52.878
1063.00,52.881
1064.00,52.901
1065.00,52.876
1066.00,52.883
1067.00,52.863
1068.00,52.861
1069.00,52.884
1070.00,52.836
1071.00,52.821
1072.00,52.870
1073.00,52.834
1074.00,52.824
1075.00,52.818
1076.00,52.809
1077.00,52.797
1078.00,52.782
1079.00,52.770
1080.00,52.783
1081.00,52.762
1082.00,52.752
1083.00,52.752
1084.00,52.753
1085.00,52.747
1086.00,52.756
1087.00,52.771
1088.00,52.738
1089.00,52.720
1090.00,52.707
1091.00,52.721
1092.00,52.718
1093.00,52.683
1094.00,52.669
1095.00,52.675
1096.00,52.658
1097.00,52.661
1098.00,52.643
1099.00,52.646
1100.00,52.630
1101.00,52.606
1102.00,52.604
1103.00,52.603
1104.00,52.579
1105.00,52.574
1106.00,52.578
1107.00,52.555
1108.00,52.547
1109.00,52.535
1110.00,52.550
1111.00,52.526
1112.00,52.496
1113.00,52.528
1114.00,52.520
1115.00,52.509
1116.00,52.518
1117.00,52.502
1118.00,52.489
1119.00,52.491
1120.00,52.497
1121.00,52.499
1122.00,52.483
1123.00,52.461
1124.00,52.481
1125.00,52.478
1126.00,52.442
1127.00,52.461
1128.00,52.435
1129.00,52.419
1130.00,52.416
1131.00,52.399
1132.00,52.434
1133.00,52.380
1134.00,52.390
1135.00,52.396
1136.00,52.382
1137.00,52.371
1138.00,52.384
1139.00,52.388
1140.00,52.380
1141.00,52.359
1142.00,52.344
1143.00,52.377
1144.00,52.350
1145.00,52.334
1146.00,52.346
1147.00,52.336
1148.00,52.341
1149.00,52.346
1150.00,52.356
1151.00,52.359
1152.00,52.356
1153.00,52.350
1154.00,52.350
1155.00,52.359
1156.00,52.320
1157.00,52.348
1158.00,52.343
1159.00,52.328
1160.00,52.336
1161.00,52.357
1162.00,52.353
1163.00,52.355
1164.00,52.345
1165.00,52.348
1166.00,52.339
1167.00,52.316
1168.00,52.346
1169.00,52.327
1170.00,52.308
1171.00,52.311
1172.00,52.317
1173.00,52.310
1174.00,52.326
1175.00,52.313
1176.00,52.344
1177.00,52.336
1178.00,52.305
1179.00,52.328
1180.00,52.314
1181.00,52.309
1182.00,52.315
1183.00,52.311
1184.00,52.283
1185.00,52.308
1186.00,52.294
1187.00,52.313
1188.00,52.321
1189.00,52.307
1190.00,52.309
1191.00,52.321
1192.00,52.308
1193.00,52.317
1194.00,52.324
1195.00,52.285
1196.00,52.325
1197.00,52.316
1198.00,52.321
1199.00,52.314
1200.00,52.303
1201.00,52.335
1202.00,52.319
1203.00,52.301
1204.00,52.300
1205.00,52.318
1206.00,52.309
1207.00,52.311
1208.00,52.294
1209.00,52.325
1210.00,52.305
1211.00,52.287
1212.00,52.316
1213.00,52.277
1214.00,52.298
1215.00,52.290
1216.00,52.310
1217.00,52.306
1218.00,52.303
1219.00,52.314
1220.00,52.309
1221.00,52.342
1222.00,52.302
1223.00,52.336
1224.00,52.332
1225.00,52.313
1226.00,52.330
1227.00,52.321
1228.00,52.330
1229.00,52.339
1230.00,52.357
1231.00,52.357
1232.00,52.383
1233.00,52.366
1234.00,52.365
1235.00,52.380
1236.00,52.363
1237.00,52.366
1238.00,52.373
1239.00,52.376
1240.00,52.371
1241.00,52.364
1242.00,52.382
1243.00,52.384
1244.00,52.352
1245.00,52.392
1246.00,52.391
1247.00,52.369
1248.00,52.375
1249.00,52.390
1250.00,52.397
1251.00,52.390
1252.00,52.388
1253.00,52.392
1254.00,52.446
1255.00,52.380
1256.00,52.401
1257.00,52.399
1258.00,52.441
1259.00,52.446
1260.00,52.455
1261.00,52.447
1262.00,52.446
1263.00,52.439
1264.00,52.467
1265.00,52.469
1266.00,52.455
1267.00,52.475
1268.00,52.498
1269.00,52.497
1270.00,52.520
1271.00,52.496
1272.00,52.492
1273.00,52.516
1274.00,52.501
1275.00,52.530
1276.00,52.531
1277.00,52.518
1278.00,52.543
1279.00,52.548
1280.00,52.525
1281.00,52.558
1282.00,52.557
1283.00,52.567
1284.00,52.549
1285.00,52.568
1286.00,52.592
1287.00,52.587
1288.00,52.568
1289.00,52.587
1290.00,52.606
1291.00,52.577
1292.00,52.621
1293.00,52.608
1294.00,52.607
1295.00,52.621
1296.00,52.623
1297.00,52.640
1298.00,52.656
1299.00,52.627
1300.00,52.686
1301.00,52.650
1302.00,52.654
1303.00,52.646
1304.00,52.627
1305.00,52.652
1306.00,52.674
1307.00,52.660
1308.00,52.675
1309.00,52.691
1310.00,52.674
1311.00,52.662
1312.00,52.674
1313.00,52.663
1314.00,52.702
1315.00,52.728
1316.00,52.733
1317.00,52.756
1318.00,52.746
1319.00,52.761
1320.00,52.750
1321.00,52.933
1322.00,52.930
1323.00,52.921
1324.00,52.895
1325.00,52.885
1326.00,52.907
1327.00,52.888
1328.00,52.890
1329.00,52.888
1330.00,52.878
1331.00,52.904
1332.00,52.903
1333.00,52.914
1334.00,52.934
1335.00,52.953
1336.00,52.988
1337.00,53.020
1338.00,53.051
1339.00,53.105
1340.00,53.168
1341.00,53.216
1342.00,53.291
1343.00,53.357
1344.00,53.385
1345.00,53.456
1346.00,53.463
1347.00,53.471
1348.00,53.527
1349.00,53.521
1350.00,53.540
1351.00,53.569
1352.00,53.554
1353.00,53.560
1354.00,53.562
1355.00,53.544
1356.00,53.613
1357.00,53.561
1358.00,53.570
1359.00,53.609
1360.00,53.608
1361.00,53.651
1362.00,53.557
1363.00,53.672
1364.00,53.721
1365.00,53.601
1366.00,53.728
1367.00,53.647
1368.00,53.542
1369.00,53.637
1370.00,53.617
1371.00,53.549
1372.00,53.582
1373.00,53.632
1374.00,53.618
1375.00,53.620
1376.00,53.576
1377.00,53.560
1378.00,53.700
1379.00,53.623
1380.00,53.639
1381.00,53.676
1382.00,53.590
1383.00,53.658
1384.00,53.558
1385.00,53.522
1386.00,53.646
1387.00,53.603
1388.00,53.552
1389.00,53.521
1390.00,53.577
1391.00,53.598
1392.00,53.592
1393.00,53.647
1394.00,53.647
1395.00,53.581
1396.00,53.516
1397.00,53.561
1398.00,53.664
1399.00,53.615
1400.00,53.490
1401.00,53.543
1402.00,53.637
1403.00,53.641
1404.00,53.584
1405.00,53.652
1406.00,53.641
1407.00,53.635
1408.00,53.679
1409.00,53.650
1410.00,53.677
1411.00,53.638
1412.00,53.729
1413.00,53.651
1414.00,53.611
1415.00,53.683
1416.00,53.728
1417.00,53.770
1418.00,53.702
1419.00,53.712
1420.00,53.734
1421.00,53.789
1422.00,53.771
1423.00,53.769
1424.00,53.773
1425.00,53.788
1426.00,53.783
1427.00,53.827
1428.00,53.821
1429.00,53.826
1430.00,53.861
1431.00,53.861
1432.00,53.903
1433.00,53.911
1434.00,53.895
1435.00,53.947
1436.00,53.963
1437.00,53.924
1438.00,53.963
1439.00,54.002
1440.00,54.005
1441.00,54.015
1442.00,54.021
1443.00,54.037
1444.00,54.110
1445.00,54.028
1446.00,54.061
1447.00,54.108
1448.00,54.131
1449.00,54.152
1450.00,54.147
1451.00,54.148
1452.00,54.182
1453.00,54.197
1454.00,54.217
1455.00,54.241
1456.00,54.228
1457.00,54.273
1458.00,54.273
1459.00,54.271
1460.00,54.324
1461.00,54.290
1462.00,54.300
1463.00,54.326
1464.00,54.316
1465.00,54.349
1466.00,54.361
1467.00,54.351
1468.00,54.435
1469.00,54.417
1470.00,54.419
1471.00,54.449
1472.00,54.449
1473.00,54.470
1474.00,54.490
1475.00,54.517
1476.00,54.528
1477.00,54.516
1478.00,54.522
1479.00,54.567
1480.00,54.566
1481.00,54.565
1482.00,54.599
1483.00,54.608
1484.00,54.598
1485.00,54.610
1486.00,54.610
1487.00,54.633
1488.00,54.655
1489.00,54.622
1490.00,54.681
1491.00,54.687
1492.00,54.685
1493.00,54.668
1494.00,54.716
1495.00,54.678
1496.00,54.729
1497.00,54.691
1498.00,54.707
1499.00,54.758
1500.00,54.752
1501.00, 
1502.00, 
1503.00, 
1504.00, 
1505.00, 
1506.00, 
1507.00, 
1508.00, 
1509.00, 
1510.00, 
1511.00, 
1512.00, 
1513.00, 
1514.00, 
1515.00, 
1516.00, 
1517.00, 
1518.00, 
1519.00, 
1520.00, 
1521.00, 
1522.00, 
1523.00, 
1524.00, 
1525.00, 
1526.00, 
1527.00, 
1528.00, 
1529.00, 
1530.00, 
1531.00, 
1532.00, 
1533.00, 
1534.00, 
1535.00, 
1536.00, 
1537.00, 
1538.00, 
1539.00, 
1540.00, 
1541.00, 
1542.00, 
1543.00, 
1544.00, 
1545.00, 
1546.00, 
1547.00, 
1548.00, 
1549.00, 
1550.00, 
1551.00, 
1552.00, 
1553.00, 
1554.00, 
1555.00, 
1556.00, 
1557.00, 
1558.00, 
1559.00, 
1560.00, 
1561.00, 
1562.00, 
1563.00, 
1564.00, 
1565.00, 
1566.00, 
1567.00, 
1568.00, 
1569.00, 
1570.00, 
1571.00, 
1572.00, 
1573.00, 
1574.00, 
1575.00, 
1576.00, 
1577.00, 
1578.00, 
1579.00, 
1580.00, 
1581.00, 
1582.00, 
1583.00, 
1584.00, 
1585.00, 
1586.00, 
1587.00, 
1588.00, 
1589.00, 
1590.00, 
1591.00, 
1592.00, 
1593.00, 
1594.00, 
1595.00, 
1596.00, 
1597.00, 
1598.00, 
1599.00, 
1600.00, 
1601.00, 
1602.00, 
1603.00, 
1604.00, 
1605.00, 
1606.00, 
1607.00, 
1608.00, 
1609.00, 
1610.00, 
1611.00, 
1612.00, 
1613.00, 
1614.00, 
1615.00, 
1616.00, 
1617.00, 
1618.00, 
1619.00, 
1620.00, 
1621.00, 
1622.00, 
1623.00, 
1624.00, 
1625.00, 
1626.00, 
1627.00, 
1628.00, 
1629.00, 
1630.00, 
1631.00, 
1632.00, 
1633.00, 
1634.00, 
1635.00, 
1636.00, 
1637.00, 
1638.00, 
1639.00, 
1640.00, 
1641.00, 
1642.00, 
1643.00, 
1644.00, 
1645.00, 
1646.00, 
1647.00, 
1648.00, 
1649.00, 
1650.00, 
1651.00, 
1652.00, 
1653.00, 
1654.00, 
1655.00, 
1656.00, 
1657.00, 
1658.00, 
1659.00, 
1660.00, 
1661.00, 
1662.00, 
1663.00, 
1664.00, 
1665.00, 
1666.00, 
1667.00, 
1668.00, 
1669.00, 
1670.00, 
1671.00, 
1672.00, 
1673.00, 
1674.00, 
1675.00, 
1676.00, 
1677.00, 
1678.00, 
1679.00, 
1680.00, 
1681.00, 
1682.00, 
1683.00, 
1684.00, 
1685.00, 
1686.00, 
1687.00, 
1688.00, 
1689.00, 
1690.00, 
1691.00, 
1692.00, 
1693.00, 
1694.00, 
1695.00, 
1696.00, 
1697.00, 
1698.00, 
1699.00, 
1700.00, 
1701.00, 
1702.00, 
1703.00, 
1704.00, 
1705.00, 
1706.00, 
1707.00, 
1708.00, 
1709.00, 
1710.00, 
1711.00, 
1712.00, 
1713.00, 
1714.00, 
1715.00, 
1716.00, 
1717.00, 
1718.00, 
1719.00, 
1720.00, 
1721.00, 
1722.00, 
1723.00, 
1724.00, 
1725.00, 
1726.00, 
1727.00, 
1728.00, 
1729.00, 
1730.00, 
1731.00, 
1732.00, 
1733.00, 
1734.00, 
1735.00, 
1736.00, 
1737.00, 
1738.00, 
1739.00, 
1740.00, 
1741.00, 
1742.00, 
1743.00, 
1744.00, 
1745.00, 
1746.00, 
1747.00, 
1748.00, 
1749.00, 
1750.00, 
1751.00, 
1752.00, 
1753.00, 
1754.00, 
1755.00, 
1756.00, 
1757.00, 
1758.00, 
1759.00, 
1760.00, 
1761.00, 
1762.00, 
1763.00, 
1764.00, 
1765.00, 
1766.00, 
1767.00, 
1768.00, 
1769.00, 
1770.00, 
1771.00, 
1772.00, 
1773.00, 
1774.00, 
1775.00, 
1776.00, 
1777.00, 
1778.00, 
1779.00, 
1780.00, 
1781.00, 
1782.00, 
1783.00, 
1784.00, 
1785.00, 
1786.00, 
1787.00, 
1788.00, 
1789.00, 
1790.00, 
1791.00, 
1792.00, 
1793.00, 
1794.00, 
1795.00, 
1796.00, 
1797.00, 
1798.00, 
1799.00, 
1800.00, 
1801.00, 
1802.00, 
1803.00, 
1804.00, 
1805.00, 
1806.00, 
1807.00, 
1808.00, 
1809.00, 
1810.00, 
1811.00, 
1812.00, 
1813.00, 
1814.00, 
1815.00, 
1816.00, 
1817.00, 
1818.00, 
1819.00, 
1820.00, 
1821.00, 
1822.00, 
1823.00, 
1824.00, 
1825.00, 
1826.00, 
1827.00, 
1828.00, 
1829.00, 
1830.00, 
1831.00, 
1832.00, 
1833.00, 
1834.00, 
1835.00, 
1836.00, 
1837.00, 
1838.00, 
1839.00, 
1840.00, 
1841.00, 
1842.00, 
1843.00, 
1844.00, 
1845.00, 
1846.00, 
1847.00, 
1848.00, 
1849.00, 
1850.00, 
1851.00, 
1852.00, 
1853.00, 
1854.00, 
1855.00, 
1856.00, 
1857.00, 
1858.00, 
1859.00, 
1860.00, 
1861.00, 
1862.00, 
1863.00, 
1864.00, 
1865.00, 
1866.00, 
1867.00, 
1868.00, 
1869.00, 
1870.00, 
1871.00, 
1872.00, 
1873.00, 
1874.00, 
1875.00, 
1876.00, 
1877.00, 
1878.00, 
1879.00, 
1880.00, 
1881.00, 
1882.00, 
1883.00, 
1884.00, 
1885.00, 
1886.00, 
1887.00, 
1888.00, 
1889.00, 
1890.00, 
1891.00, 
1892.00, 
1893.00, 
1894.00, 
1895.00, 
1896.00, 
1897.00, 
1898.00, 
1899.00, 
1900.00, 
1901.00, 
1902.00, 
1903.00, 
1904.00, 
1905.00, 
1906.00, 
1907.00, 
1908.00, 
1909.00, 
1910.00, 
1911.00, 
1912.00, 
1913.00, 
1914.00, 
1915.00, 
1916.00, 
1917.00, 
1918.00, 
1919.00, 
1920.00, 
1921.00, 
1922.00, 
1923.00, 
1924.00, 
1925.00, 
1926.00, 
1927.00, 
1928.00, 
1929.00, 
1930.00, 
1931.00, 
1932.00, 
1933.00, 
1934.00, 
1935.00, 
1936.00, 
1937.00, 
1938.00, 
1939.00, 
1940.00, 
1941.00, 
1942.00, 
1943.00, 
1944.00, 
1945.00, 
1946.00, 
1947.00, 
1948.00, 
1949.00, 
1950.00, 
1951.00, 
1952.00, 
1953.00, 
1954.00, 
1955.00, 
1956.00, 
1957.00, 
1958.00, 
1959.00, 
1960.00, 
1961.00, 
1962.00, 
1963.00, 
1964.00, 
1965.00, 
1966.00, 
1967.00, 
1968.00, 
1969.00, 
1970.00, 
1971.00, 
1972.00, 
1973.00, 
1974.00, 
1975.00, 
1976.00, 
1977.00, 
1978.00, 
1979.00, 
1980.00, 
1981.00, 
1982.00, 
1983.00, 
1984.00, 
1985.00, 
1986.00, 
1987.00, 
1988.00, 
1989.00, 
1990.00, 
1991.00, 
1992.00, 
1993.00, 
1994.00, 
1995.00, 
1996.00, 
1997.00, 
1998.00, 
1999.00, 
2000.00, 
2001.00, 
2002.00, 
2003.00, 
2004.00, 
2005.00, 
2006.00, 
2007.00, 
2008.00, 
2009.00, 
2010.00, 
2011.00, 
2012.00, 
2013.00, 
2014.00, 
2015.00, 
2016.00, 
2017.00, 
2018.00, 
2019.00, 
2020.00, 
2021.00, 
2022.00, 
2023.00, 
2024.00, 
2025.00, 
2026.00, 
2027.00, 
2028.00, 
2029.00, 
2030.00, 
2031.00, 
2032.00, 
2033.00, 
2034.00, 
2035.00, 
2036.00, 
2037.00, 
2038.00, 
2039.00, 
2040.00, 
2041.00, 
2042.00, 
2043.00, 
2044.00, 
2045.00, 
2046.00, 
2047.00, 
2048.00, 
2049.00, 
2050.00, 
2051.00, 
2052.00, 
2053.00, 
2054.00, 
2055.00, 
2056.00, 
2057.00, 
2058.00, 
2059.00, 
2060.00, 
2061.00, 
2062.00, 
2063.00, 
2064.00, 
2065.00, 
2066.00, 
2067.00, 
2068.00, 
2069.00, 
2070.00, 
2071.00, 
2072.00, 
2073.00, 
2074.00, 
2075.00, 
2076.00, 
2077.00, 
2078.00, 
2079.00, 
2080.00, 
2081.00, 
2082.00, 
2083.00, 
2084.00, 
2085.00, 
2086.00, 
2087.00, 
2088.00, 
2089.00, 
2090.00, 
2091.00, 
2092.00, 
2093.00, 
2094.00, 
2095.00, 
2096.00, 
2097.00, 
2098.00, 
2099.00, 
2100.00, 
2101.00, 
2102.00, 
2103.00, 
2104.00, 
2105.00, 
2106.00, 
2107.00, 
2108.00, 
2109.00, 
2110.00, 
2111.00, 
2112.00, 
2113.00, 
2114.00, 
2115.00, 
2116.00, 
2117.00, 
2118.00, 
2119.00, 
2120.00, 
2121.00, 
2122.00, 
2123.00, 
2124.00, 
2125.00, 
2126.00, 
2127.00, 
2128.00, 
2129.00, 
2130.00, 
2131.00, 
2132.00, 
2133.00, 
2134.00, 
2135.00, 
2136.00, 
2137.00, 
2138.00, 
2139.00, 
2140.00, 
2141.00, 
2142.00, 
2143.00, 
2144.00, 
2145.00, 
2146.00, 
2147.00, 
2148.00, 
2149.00, 
2150.00, 
2151.00, 
2152.00, 
2153.00, 
2154.00, 
2155.00, 
2156.00, 
2157.00, 
2158.00, 
2159.00, 
2160.00, 
2161.00, 
2162.00, 
2163.00, 
2164.00, 
2165.00, 
2166.00, 
2167.00, 
2168.00, 
2169.00, 
2170.00, 
2171.00, 
2172.00, 
2173.00, 
2174.00, 
2175.00, 
2176.00, 
2177.00, 
2178.00, 
2179.00, 
2180.00, 
2181.00, 
2182.00, 
2183.00, 
2184.00, 
2185.00, 
2186.00, 
2187.00, 
2188.00, 
2189.00, 
2190.00, 
2191.00, 
2192.00, 
2193.00, 
2194.00, 
2195.00, 
2196.00, 
2197.00, 
2198.00, 
2199.00, 
2200.00, 
2201.00, 
2202.00, 
2203.00, 
2204.00, 
2205.00, 
2206.00, 
2207.00, 
2208.00, 
2209.00, 
2210.00, 
2211.00, 
2212.00, 
2213.00, 
2214.00, 
2215.00, 
2216.00, 
2217.00, 
2218.00, 
2219.00, 
2220.00, 
2221.00, 
2222.00, 
2223.00, 
2224.00, 
2225.00, 
2226.00, 
2227.00, 
2228.00, 
2229.00, 
2230.00, 
2231.00, 
2232.00, 
2233.00, 
2234.00, 
2235.00, 
2236.00, 
2237.00, 
2238.00, 
2239.00, 
2240.00, 
2241.00, 
2242.00, 
2243.00, 
2244.00, 
2245.00, 
2246.00, 
2247.00, 
2248.00, 
2249.00, 
2250.00, 
2251.00, 
2252.00, 
2253.00, 
2254.00, 
2255.00, 
2256.00, 
2257.00, 
2258.00, 
2259.00, 
2260.00, 
2261.00, 
2262.00, 
2263.00, 
2264.00, 
2265.00, 
2266.00, 
2267.00, 
2268.00, 
2269.00, 
2270.00, 
2271.00, 
2272.00, 
2273.00, 
2274.00, 
2275.00, 
2276.00, 
2277.00, 
2278.00, 
2279.00, 
2280.00, 
2281.00, 
2282.00, 
2283.00, 
2284.00, 
2285.00, 
2286.00, 
2287.00, 
2288.00, 
2289.00, 
2290.00, 
2291.00, 
2292.00, 
2293.00, 
2294.00, 
2295.00, 
2296.00, 
2297.00, 
2298.00, 
2299.00, 
2300.00, 
2301.00, 
2302.00, 
2303.00, 
2304.00, 
2305.00, 
2306.00, 
2307.00, 
2308.00, 
2309.00, 
2310.00, 
2311.00, 
2312.00, 
2313.00, 
2314.00, 
2315.00, 
2316.00, 
2317.00, 
2318.00, 
2319.00, 
2320.00, 
2321.00, 
2322.00, 
2323.00, 
2324.00, 
2325.00, 
2326.00, 
2327.00, 
2328.00, 
2329.00, 
2330.00, 
2331.00, 
2332.00, 
2333.00, 
2334.00, 
2335.00, 
2336.00, 
2337.00, 
2338.00, 
2339.00, 
2340.00, 
2341.00, 
2342.00, 
2343.00, 
2344.00, 
2345.00, 
2346.00, 
2347.00, 
2348.00, 
2349.00, 
2350.00, 
2351.00, 
2352.00, 
2353.00, 
2354.00, 
2355.00, 
2356.00, 
2357.00, 
2358.00, 
2359.00, 
2360.00, 
2361.00, 
2362.00, 
2363.00, 
2364.00, 
2365.00, 
2366.00, 
2367.00, 
2368.00, 
2369.00, 
2370.00, 
2371.00, 
2372.00, 
2373.00, 
2374.00, 
2375.00, 
2376.00, 
2377.00, 
2378.00, 
2379.00, 
2380.00, 
2381.00, 
2382.00, 
2383.00, 
2384.00, 
2385.00, 
2386.00, 
2387.00, 
2388.00, 
2389.00, 
2390.00, 
2391.00, 
2392.00, 
2393.00, 
2394.00, 
2395.00, 
2396.00, 
2397.00, 
2398.00, 
2399.00, 
2400.00, 
2401.00, 
2402.00, 
2403.00, 
2404.00, 
2405.00, 
2406.00, 
2407.00, 
2408.00, 
2409.00, 
2410.00, 
2411.00, 
2412.00, 
2413.00, 
2414.00, 
2415.00, 
2416.00, 
2417.00, 
2418.00, 
2419.00, 
2420.00, 
2421.00, 
2422.00, 
2423.00, 
2424.00, 
2425.00, 
2426.00, 
2427.00, 
2428.00, 
2429.00, 
2430.00, 
2431.00, 
2432.00, 
2433.00, 
2434.00, 
2435.00, 
2436.00, 
2437.00, 
2438.00, 
2439.00, 
2440.00, 
2441.00, 
2442.00, 
2443.00, 
2444.00, 
2445.00, 
2446.00, 
2447.00, 
2448.00, 
2449.00, 
2450.00, 
2451.00, 
2452.00, 
2453.00, 
2454.00, 
2455.00, 
2456.00, 
2457.00, 
2458.00, 
2459.00, 
2460.00, 
2461.00, 
2462.00, 
2463.00, 
2464.00, 
2465.00, 
2466.00, 
2467.00, 
2468.00, 
2469.00, 
2470.00, 
2471.00, 
2472.00, 
2473.00, 
2474.00, 
2475.00, 
2476.00, 
2477.00, 
2478.00, 
2479.00, 
2480.00, 
2481.00, 
2482.00, 
2483.00, 
2484.00, 
2485.00, 
2486.00, 
2487.00, 
2488.00, 
2489.00, 
2490.00, 
2491.00, 
2492.00, 
2493.00, 
2494.00, 
2495.00, 
2496.00, 
2497.00, 
2498.00, 
2499.00, 
2500.00, 
2501.00, 
2502.00, 
2503.00, 
2504.00, 
2505.00, 
2506.00, 
2507.00, 
2508.00, 
2509.00, 
2510.00, 
2511.00, 
2512.00, 
2513.00, 
2514.00, 
2515.00, 
2516.00, 
2517.00, 
2518.00, 
2519.00, 
2520.00, 
2521.00, 
2522.00, 
2523.00, 
2524.00, 
2525.00, 
2526.00, 
2527.00, 
2528.00, 
2529.00, 
2530.00, 
2531.00, 
2532.00, 
2533.00, 
2534.00, 
2535.00, 
2536.00, 
2537.00, 
2538.00, 
2539.00, 
2540.00, 
2541.00, 
2542.00, 
2543.00, 
2544.00, 
2545.00, 
2546.00, 
2547.00, 
2548.00, 
2549.00, 
2550.00, 
2551.00, 
2552.00, 
2553.00, 
2554.00, 
2555.00, 
2556.00, 
2557.00, 
2558.00, 
2559.00, 
2560.00, 
2561.00, 
2562.00, 
2563.00, 
2564.00, 
2565.00, 
2566.00, 
2567.00, 
2568.00, 
2569.00, 
2570.00, 
2571.00, 
2572.00, 
2573.00, 
2574.00, 
2575.00, 
2576.00, 
2577.00, 
2578.00, 
2579.00, 
2580.00, 
2581.00, 
2582.00, 
2583.00, 
2584.00, 
2585.00, 
2586.00, 
2587.00, 
2588.00, 
2589.00, 
2590.00, 
2591.00, 
2592.00, 
2593.00, 
2594.00, 
2595.00, 
2596.00, 
2597.00, 
2598.00, 
2599.00, 
2600.00, 
