"1cP1 - RawData"
"Wavelength nm.","T%"
200.00,0.002
201.00,-0.000
202.00,0.003
203.00,0.003
204.00,0.001
205.00,-0.000
206.00,0.001
207.00,0.002
208.00,-0.003
209.00,-0.000
210.00,0.003
211.00,0.001
212.00,0.002
213.00,-0.001
214.00,0.001
215.00,0.002
216.00,-0.002
217.00,0.002
218.00,0.000
219.00,0.002
220.00,0.000
221.00,0.000
222.00,0.000
223.00,-0.000
224.00,0.001
225.00,0.002
226.00,0.001
227.00,0.002
228.00,0.001
229.00,0.001
230.00,0.000
231.00,0.002
232.00,-0.000
233.00,-0.000
234.00,0.000
235.00,0.001
236.00,-0.001
237.00,0.000
238.00,0.003
239.00,0.002
240.00,0.000
241.00,0.001
242.00,0.000
243.00,0.001
244.00,0.002
245.00,0.000
246.00,-0.000
247.00,-0.000
248.00,-0.001
249.00,-0.001
250.00,0.001
251.00,0.002
252.00,-0.000
253.00,-0.001
254.00,-0.001
255.00,0.002
256.00,0.000
257.00,0.001
258.00,-0.001
259.00,-0.000
260.00,-0.002
261.00,0.000
262.00,-0.000
263.00,0.000
264.00,0.001
265.00,0.001
266.00,-0.001
267.00,-0.000
268.00,-0.002
269.00,0.000
270.00,-0.000
271.00,0.001
272.00,0.001
273.00,0.002
274.00,0.001
275.00,0.001
276.00,-0.001
277.00,-0.001
278.00,-0.000
279.00,0.001
280.00,-0.001
281.00,-0.000
282.00,0.001
283.00,0.003
284.00,0.002
285.00,-0.001
286.00,0.001
287.00,0.001
288.00,0.001
289.00,0.000
290.00,-0.001
291.00,0.001
292.00,-0.000
293.00,-0.001
294.00,-0.000
295.00,0.000
296.00,0.002
297.00,0.000
298.00,-0.001
299.00,0.001
300.00,0.000
301.00,0.002
302.00,0.001
303.00,0.001
304.00,0.002
305.00,-0.000
306.00,0.002
307.00,0.002
308.00,0.007
309.00,0.013
310.00,0.016
311.00,0.027
312.00,0.041
313.00,0.064
314.00,0.095
315.00,0.141
316.00,0.196
317.00,0.280
318.00,0.375
319.00,0.509
320.00,0.676
321.00,0.875
322.00,1.131
323.00,1.439
324.00,1.758
325.00,2.127
326.00,2.505
327.00,2.993
328.00,3.488
329.00,4.016
330.00,4.605
331.00,5.197
332.00,5.868
333.00,6.579
334.00,7.235
335.00,7.960
336.00,8.658
337.00,9.435
338.00,10.134
339.00,10.783
340.00,11.539
341.00,12.261
342.00,12.916
343.00,13.550
344.00,14.172
345.00,14.829
346.00,15.419
347.00,15.923
348.00,16.464
349.00,16.930
350.00,17.418
351.00,17.834
352.00,18.253
353.00,18.615
354.00,18.999
355.00,19.332
356.00,19.636
357.00,19.928
358.00,20.209
359.00,20.509
360.00,20.765
361.00,20.922
362.00,21.133
363.00,21.312
364.00,21.422
365.00,21.531
366.00,21.688
367.00,21.778
368.00,21.858
369.00,21.912
370.00,22.002
371.00,21.985
372.00,21.974
373.00,21.974
374.00,21.934
375.00,21.918
376.00,21.849
377.00,21.745
378.00,21.654
379.00,21.540
380.00,21.526
381.00,21.476
382.00,21.557
383.00,21.598
384.00,21.596
385.00,21.685
386.00,21.704
387.00,21.818
388.00,21.913
389.00,21.912
390.00,21.975
391.00,22.016
392.00,22.048
393.00,22.114
394.00,22.108
395.00,22.169
396.00,22.150
397.00,22.153
398.00,22.172
399.00,22.163
400.00,22.169
401.00,22.158
402.00,22.180
403.00,22.147
404.00,22.152
405.00,22.132
406.00,22.110
407.00,22.060
408.00,22.052
409.00,22.006
410.00,21.877
411.00,21.978
412.00,21.897
413.00,21.918
414.00,21.893
415.00,21.888
416.00,21.973
417.00,21.908
418.00,21.930
419.00,22.008
420.00,22.030
421.00,22.034
422.00,22.080
423.00,22.116
424.00,22.127
425.00,22.179
426.00,22.194
427.00,22.249
428.00,22.236
429.00,22.302
430.00,22.361
431.00,22.399
432.00,22.408
433.00,22.473
434.00,22.510
435.00,22.576
436.00,22.660
437.00,22.675
438.00,22.746
439.00,22.797
440.00,22.863
441.00,22.957
442.00,23.031
443.00,23.132
444.00,23.236
445.00,23.287
446.00,23.402
447.00,23.453
448.00,23.556
449.00,23.663
450.00,23.729
451.00,23.827
452.00,23.963
453.00,24.042
454.00,24.131
455.00,24.237
456.00,24.362
457.00,24.505
458.00,24.576
459.00,24.730
460.00,24.871
461.00,24.969
462.00,25.119
463.00,25.201
464.00,25.341
465.00,25.443
466.00,25.614
467.00,25.760
468.00,25.833
469.00,25.942
470.00,26.027
471.00,26.116
472.00,26.239
473.00,26.318
474.00,26.444
475.00,26.552
476.00,26.617
477.00,26.772
478.00,26.886
479.00,27.064
480.00,27.207
481.00,27.339
482.00,27.488
483.00,27.596
484.00,27.748
485.00,27.955
486.00,28.065
487.00,28.194
488.00,28.328
489.00,28.480
490.00,28.654
491.00,28.740
492.00,28.937
493.00,29.144
494.00,29.232
495.00,29.265
496.00,29.578
497.00,29.455
498.00,29.678
499.00,29.832
500.00,29.945
501.00,30.065
502.00,30.219
503.00,30.330
504.00,30.411
505.00,30.526
506.00,30.627
507.00,30.742
508.00,30.907
509.00,31.040
510.00,31.163
511.00,31.234
512.00,31.375
513.00,31.588
514.00,31.683
515.00,31.812
516.00,31.944
517.00,31.997
518.00,32.138
519.00,32.205
520.00,32.234
521.00,32.369
522.00,32.496
523.00,32.492
524.00,32.637
525.00,32.750
526.00,32.868
527.00,32.921
528.00,32.968
529.00,33.206
530.00,33.327
531.00,33.420
532.00,33.518
533.00,33.645
534.00,33.728
535.00,33.830
536.00,33.891
537.00,33.954
538.00,34.045
539.00,34.076
540.00,34.191
541.00,34.236
542.00,34.306
543.00,34.404
544.00,34.426
545.00,34.522
546.00,34.571
547.00,34.733
548.00,34.789
549.00,34.833
550.00,34.964
551.00,35.078
552.00,35.116
553.00,35.129
554.00,35.222
555.00,35.261
556.00,35.322
557.00,35.433
558.00,35.491
559.00,35.554
560.00,35.623
561.00,35.696
562.00,35.737
563.00,35.772
564.00,35.848
565.00,35.837
566.00,35.903
567.00,35.975
568.00,35.981
569.00,36.004
570.00,36.098
571.00,36.011
572.00,36.154
573.00,36.140
574.00,36.217
575.00,36.238
576.00,36.282
577.00,36.366
578.00,36.389
579.00,36.485
580.00,36.465
581.00,36.645
582.00,36.712
583.00,36.747
584.00,36.843
585.00,36.909
586.00,36.963
587.00,37.034
588.00,37.031
589.00,36.982
590.00,37.072
591.00,37.148
592.00,37.151
593.00,37.075
594.00,37.238
595.00,37.325
596.00,37.262
597.00,37.385
598.00,37.463
599.00,37.413
600.00,37.361
601.00,37.611
602.00,37.722
603.00,37.625
604.00,37.683
605.00,37.783
606.00,37.793
607.00,37.822
608.00,37.975
609.00,38.090
610.00,37.900
611.00,37.880
612.00,38.009
613.00,38.199
614.00,38.141
615.00,38.250
616.00,38.293
617.00,38.298
618.00,38.298
619.00,38.386
620.00,38.399
621.00,38.503
622.00,38.577
623.00,38.659
624.00,38.705
625.00,38.753
626.00,38.815
627.00,38.838
628.00,38.861
629.00,38.941
630.00,39.029
631.00,39.108
632.00,39.177
633.00,39.255
634.00,39.330
635.00,39.382
636.00,39.523
637.00,39.486
638.00,39.567
639.00,39.709
640.00,39.715
641.00,39.824
642.00,39.918
643.00,39.877
644.00,39.987
645.00,40.048
646.00,40.153
647.00,40.226
648.00,40.268
649.00,40.251
650.00,40.345
651.00,40.532
652.00,40.605
653.00,40.579
654.00,40.657
655.00,40.844
656.00,41.103
657.00,40.972
658.00,41.085
659.00,41.163
660.00,41.208
661.00,41.178
662.00,41.262
663.00,41.458
664.00,41.620
665.00,41.844
666.00,41.943
667.00,41.880
668.00,41.946
669.00,42.089
670.00,42.300
671.00,42.173
672.00,42.278
673.00,42.438
674.00,42.506
675.00,42.528
676.00,42.684
677.00,42.882
678.00,42.755
679.00,42.891
680.00,43.036
681.00,43.159
682.00,43.150
683.00,43.165
684.00,43.296
685.00,43.311
686.00,43.299
687.00,43.271
688.00,43.683
689.00,43.724
690.00,43.901
691.00,44.152
692.00,43.932
693.00,43.901
694.00,44.119
695.00,44.313
696.00,44.405
697.00,44.259
698.00,44.339
699.00,44.652
700.00,44.677
701.00,44.686
702.00,44.786
703.00,44.940
704.00,44.985
705.00,44.933
706.00,45.060
707.00,45.061
708.00,44.985
709.00,45.431
710.00,45.794
711.00,45.311
712.00,45.429
713.00,45.608
714.00,45.654
715.00,45.674
716.00,45.680
717.00,45.841
718.00,45.948
719.00,45.948
720.00,45.972
721.00,50.515
722.00,50.490
723.00,50.521
724.00,50.562
725.00,50.610
726.00,50.639
727.00,50.633
728.00,50.617
729.00,50.729
730.00,50.694
731.00,50.716
732.00,50.832
733.00,50.788
734.00,50.789
735.00,50.891
736.00,50.893
737.00,50.924
738.00,50.959
739.00,50.982
740.00,51.047
741.00,51.000
742.00,51.064
743.00,51.066
744.00,51.107
745.00,51.051
746.00,51.113
747.00,51.105
748.00,51.046
749.00,51.050
750.00,51.069
751.00,51.055
752.00,51.200
753.00,51.181
754.00,51.111
755.00,51.122
756.00,51.169
757.00,51.094
758.00,51.155
759.00,51.182
760.00,51.175
761.00,51.175
762.00,51.199
763.00,51.280
764.00,51.226
765.00,51.244
766.00,51.333
767.00,51.293
768.00,51.315
769.00,51.303
770.00,51.333
771.00,51.306
772.00,51.400
773.00,51.308
774.00,51.315
775.00,51.434
776.00,51.408
777.00,51.330
778.00,51.386
779.00,51.394
780.00,51.310
781.00,51.332
782.00,51.334
783.00,51.342
784.00,51.333
785.00,51.248
786.00,51.339
787.00,51.289
788.00,51.268
789.00,51.323
790.00,51.218
791.00,51.268
792.00,51.270
793.00,51.173
794.00,51.251
795.00,51.170
796.00,51.284
797.00,51.210
798.00,51.165
799.00,51.111
800.00,51.082
801.00,51.140
802.00,51.139
803.00,51.198
804.00,51.067
805.00,51.064
806.00,51.019
807.00,51.101
808.00,51.094
809.00,51.008
810.00,51.032
811.00,50.982
812.00,51.005
813.00,50.958
814.00,50.973
815.00,50.992
816.00,50.956
817.00,50.975
818.00,50.970
819.00,50.928
820.00,50.884
821.00,50.888
822.00,50.825
823.00,50.821
824.00,50.856
825.00,50.729
826.00,50.795
827.00,50.787
828.00,50.780
829.00,50.710
830.00,50.791
831.00,53.046
832.00,53.106
833.00,53.009
834.00,53.027
835.00,53.000
836.00,52.973
837.00,52.940
838.00,52.933
839.00,52.925
840.00,52.891
841.00,52.887
842.00,52.883
843.00,52.842
844.00,52.821
845.00,52.810
846.00,52.834
847.00,52.764
848.00,52.743
849.00,52.715
850.00,52.687
851.00,52.641
852.00,52.662
853.00,52.535
854.00,52.577
855.00,52.513
856.00,52.520
857.00,52.468
858.00,52.412
859.00,52.474
860.00,52.450
861.00,52.457
862.00,52.425
863.00,52.399
864.00,52.370
865.00,52.365
866.00,52.335
867.00,52.336
868.00,52.323
869.00,52.303
870.00,52.322
871.00,52.306
872.00,52.274
873.00,52.237
874.00,52.346
875.00,52.206
876.00,52.201
877.00,52.181
878.00,52.182
879.00,52.172
880.00,52.172
881.00,52.158
882.00,52.154
883.00,52.113
884.00,52.091
885.00,52.067
886.00,52.065
887.00,52.072
888.00,52.048
889.00,51.951
890.00,52.074
891.00,52.008
892.00,51.967
893.00,51.899
894.00,51.911
895.00,51.860
896.00,51.867
897.00,51.831
898.00,51.794
899.00,51.811
900.00,51.786
901.00,51.805
902.00,51.795
903.00,51.746
904.00,51.747
905.00,51.722
906.00,51.724
907.00,51.681
908.00,51.655
909.00,51.605
910.00,51.607
911.00,51.582
912.00,51.592
913.00,51.509
914.00,51.659
915.00,51.502
916.00,51.506
917.00,51.450
918.00,51.458
919.00,51.439
920.00,51.424
921.00,51.409
922.00,51.374
923.00,51.373
924.00,51.340
925.00,51.351
926.00,51.337
927.00,51.289
928.00,51.201
929.00,51.355
930.00,51.250
931.00,51.246
932.00,51.194
933.00,51.220
934.00,51.185
935.00,51.154
936.00,51.105
937.00,51.114
938.00,51.088
939.00,51.087
940.00,51.052
941.00,51.048
942.00,51.021
943.00,51.004
944.00,50.961
945.00,50.977
946.00,50.947
947.00,50.920
948.00,50.896
949.00,50.879
950.00,50.862
951.00,50.849
952.00,50.829
953.00,50.796
954.00,50.781
955.00,50.733
956.00,50.734
957.00,50.685
958.00,50.695
959.00,50.654
960.00,50.654
961.00,50.630
962.00,50.635
963.00,50.590
964.00,50.584
965.00,50.572
966.00,50.565
967.00,50.560
968.00,50.541
969.00,50.557
970.00,50.531
971.00,50.514
972.00,50.493
973.00,50.529
974.00,50.500
975.00,50.507
976.00,50.525
977.00,50.530
978.00,50.568
979.00,50.515
980.00,50.533
981.00,50.541
982.00,50.498
983.00,50.515
984.00,50.506
985.00,50.510
986.00,50.460
987.00,50.497
988.00,50.450
989.00,50.436
990.00,50.474
991.00,50.426
992.00,50.445
993.00,50.400
994.00,50.380
995.00,50.368
996.00,50.390
997.00,50.374
998.00,50.336
999.00,50.345
1000.00,50.298
1001.00,50.298
1002.00,50.280
1003.00,50.295
1004.00,50.245
1005.00,50.217
1006.00,50.258
1007.00,50.226
1008.00,50.210
1009.00,50.179
1010.00,50.188
1011.00,50.168
1012.00,50.140
1013.00,50.140
1014.00,50.128
1015.00,50.144
1016.00,50.103
1017.00,50.105
1018.00,50.091
1019.00,50.065
1020.00,50.059
1021.00,50.036
1022.00,50.044
1023.00,49.999
1024.00,50.004
1025.00,49.985
1026.00,49.973
1027.00,49.943
1028.00,49.935
1029.00,49.915
1030.00,49.873
1031.00,49.891
1032.00,49.850
1033.00,49.860
1034.00,49.832
1035.00,49.792
1036.00,49.784
1037.00,49.752
1038.00,49.740
1039.00,49.709
1040.00,49.703
1041.00,49.669
1042.00,49.665
1043.00,49.654
1044.00,49.672
1045.00,49.656
1046.00,49.637
1047.00,49.669
1048.00,49.666
1049.00,49.681
1050.00,49.699
1051.00,49.730
1052.00,49.722
1053.00,49.739
1054.00,49.740
1055.00,49.767
1056.00,49.771
1057.00,49.782
1058.00,49.761
1059.00,49.752
1060.00,49.773
1061.00,49.751
1062.00,49.750
1063.00,49.754
1064.00,49.748
1065.00,49.732
1066.00,49.729
1067.00,49.714
1068.00,49.729
1069.00,49.703
1070.00,49.674
1071.00,49.659
1072.00,49.686
1073.00,49.651
1074.00,49.652
1075.00,49.629
1076.00,49.637
1077.00,49.628
1078.00,49.610
1079.00,49.607
1080.00,49.624
1081.00,49.603
1082.00,49.588
1083.00,49.583
1084.00,49.571
1085.00,49.570
1086.00,49.561
1087.00,49.571
1088.00,49.558
1089.00,49.543
1090.00,49.541
1091.00,49.549
1092.00,49.533
1093.00,49.525
1094.00,49.495
1095.00,49.494
1096.00,49.476
1097.00,49.475
1098.00,49.461
1099.00,49.452
1100.00,49.435
1101.00,49.428
1102.00,49.419
1103.00,49.419
1104.00,49.421
1105.00,49.413
1106.00,49.397
1107.00,49.390
1108.00,49.374
1109.00,49.379
1110.00,49.361
1111.00,49.351
1112.00,49.335
1113.00,49.345
1114.00,49.316
1115.00,49.318
1116.00,49.317
1117.00,49.293
1118.00,49.286
1119.00,49.291
1120.00,49.296
1121.00,49.289
1122.00,49.269
1123.00,49.284
1124.00,49.275
1125.00,49.270
1126.00,49.264
1127.00,49.268
1128.00,49.240
1129.00,49.207
1130.00,49.191
1131.00,49.192
1132.00,49.214
1133.00,49.214
1134.00,49.180
1135.00,49.189
1136.00,49.184
1137.00,49.189
1138.00,49.187
1139.00,49.194
1140.00,49.209
1141.00,49.177
1142.00,49.187
1143.00,49.195
1144.00,49.151
1145.00,49.146
1146.00,49.149
1147.00,49.144
1148.00,49.138
1149.00,49.166
1150.00,49.145
1151.00,49.149
1152.00,49.135
1153.00,49.133
1154.00,49.124
1155.00,49.136
1156.00,49.118
1157.00,49.131
1158.00,49.114
1159.00,49.123
1160.00,49.124
1161.00,49.139
1162.00,49.129
1163.00,49.126
1164.00,49.126
1165.00,49.139
1166.00,49.136
1167.00,49.113
1168.00,49.142
1169.00,49.124
1170.00,49.119
1171.00,49.099
1172.00,49.105
1173.00,49.103
1174.00,49.092
1175.00,49.094
1176.00,49.104
1177.00,49.087
1178.00,49.093
1179.00,49.117
1180.00,49.100
1181.00,49.101
1182.00,49.100
1183.00,49.128
1184.00,49.085
1185.00,49.098
1186.00,49.089
1187.00,49.094
1188.00,49.094
1189.00,49.092
1190.00,49.086
1191.00,49.079
1192.00,49.103
1193.00,49.089
1194.00,49.081
1195.00,49.065
1196.00,49.109
1197.00,49.105
1198.00,49.104
1199.00,49.095
1200.00,49.096
1201.00,49.111
1202.00,49.091
1203.00,49.114
1204.00,49.100
1205.00,49.099
1206.00,49.089
1207.00,49.086
1208.00,49.081
1209.00,49.092
1210.00,49.084
1211.00,49.071
1212.00,49.110
1213.00,49.082
1214.00,49.105
1215.00,49.078
1216.00,49.111
1217.00,49.090
1218.00,49.076
1219.00,49.122
1220.00,49.090
1221.00,49.101
1222.00,49.079
1223.00,49.118
1224.00,49.106
1225.00,49.075
1226.00,49.097
1227.00,49.098
1228.00,49.114
1229.00,49.101
1230.00,49.136
1231.00,49.140
1232.00,49.156
1233.00,49.165
1234.00,49.162
1235.00,49.166
1236.00,49.145
1237.00,49.148
1238.00,49.158
1239.00,49.175
1240.00,49.171
1241.00,49.179
1242.00,49.184
1243.00,49.191
1244.00,49.167
1245.00,49.219
1246.00,49.208
1247.00,49.196
1248.00,49.199
1249.00,49.212
1250.00,49.220
1251.00,49.198
1252.00,49.217
1253.00,49.196
1254.00,49.218
1255.00,49.206
1256.00,49.207
1257.00,49.194
1258.00,49.228
1259.00,49.233
1260.00,49.249
1261.00,49.243
1262.00,49.255
1263.00,49.251
1264.00,49.294
1265.00,49.297
1266.00,49.276
1267.00,49.288
1268.00,49.290
1269.00,49.299
1270.00,49.326
1271.00,49.333
1272.00,49.337
1273.00,49.348
1274.00,49.335
1275.00,49.352
1276.00,49.340
1277.00,49.342
1278.00,49.355
1279.00,49.369
1280.00,49.349
1281.00,49.360
1282.00,49.373
1283.00,49.378
1284.00,49.383
1285.00,49.371
1286.00,49.391
1287.00,49.381
1288.00,49.388
1289.00,49.393
1290.00,49.421
1291.00,49.398
1292.00,49.427
1293.00,49.426
1294.00,49.456
1295.00,49.454
1296.00,49.466
1297.00,49.483
1298.00,49.519
1299.00,49.492
1300.00,49.506
1301.00,49.489
1302.00,49.526
1303.00,49.529
1304.00,49.508
1305.00,49.529
1306.00,49.535
1307.00,49.539
1308.00,49.543
1309.00,49.561
1310.00,49.556
1311.00,49.550
1312.00,49.555
1313.00,49.572
1314.00,49.585
1315.00,49.598
1316.00,49.605
1317.00,49.633
1318.00,49.630
1319.00,49.637
1320.00,49.633
1321.00,49.787
1322.00,49.774
1323.00,49.765
1324.00,49.768
1325.00,49.770
1326.00,49.791
1327.00,49.793
1328.00,49.791
1329.00,49.800
1330.00,49.793
1331.00,49.797
1332.00,49.800
1333.00,49.800
1334.00,49.831
1335.00,49.860
1336.00,49.892
1337.00,49.917
1338.00,49.977
1339.00,50.015
1340.00,50.069
1341.00,50.127
1342.00,50.199
1343.00,50.245
1344.00,50.289
1345.00,50.367
1346.00,50.404
1347.00,50.411
1348.00,50.441
1349.00,50.468
1350.00,50.488
1351.00,50.502
1352.00,50.513
1353.00,50.509
1354.00,50.516
1355.00,50.456
1356.00,50.556
1357.00,50.560
1358.00,50.536
1359.00,50.580
1360.00,50.616
1361.00,50.590
1362.00,50.452
1363.00,50.630
1364.00,50.673
1365.00,50.574
1366.00,50.691
1367.00,50.571
1368.00,50.553
1369.00,50.636
1370.00,50.575
1371.00,50.514
1372.00,50.538
1373.00,50.605
1374.00,50.597
1375.00,50.576
1376.00,50.581
1377.00,50.564
1378.00,50.633
1379.00,50.626
1380.00,50.655
1381.00,50.592
1382.00,50.556
1383.00,50.605
1384.00,50.544
1385.00,50.560
1386.00,50.616
1387.00,50.533
1388.00,50.510
1389.00,50.517
1390.00,50.605
1391.00,50.589
1392.00,50.550
1393.00,50.810
1394.00,50.676
1395.00,50.400
1396.00,50.481
1397.00,50.525
1398.00,50.650
1399.00,50.601
1400.00,50.483
1401.00,50.545
1402.00,50.704
1403.00,50.624
1404.00,50.579
1405.00,50.630
1406.00,50.613
1407.00,50.610
1408.00,50.599
1409.00,50.573
1410.00,50.680
1411.00,50.655
1412.00,50.725
1413.00,50.619
1414.00,50.615
1415.00,50.708
1416.00,50.709
1417.00,50.765
1418.00,50.699
1419.00,50.706
1420.00,50.745
1421.00,50.788
1422.00,50.799
1423.00,50.811
1424.00,50.824
1425.00,50.861
1426.00,50.859
1427.00,50.883
1428.00,50.875
1429.00,50.886
1430.00,50.918
1431.00,50.920
1432.00,50.947
1433.00,50.975
1434.00,50.955
1435.00,51.028
1436.00,51.035
1437.00,51.027
1438.00,51.055
1439.00,51.087
1440.00,51.094
1441.00,51.099
1442.00,51.123
1443.00,51.165
1444.00,51.180
1445.00,51.163
1446.00,51.196
1447.00,51.231
1448.00,51.282
1449.00,51.252
1450.00,51.242
1451.00,51.264
1452.00,51.284
1453.00,51.295
1454.00,51.327
1455.00,51.370
1456.00,51.386
1457.00,51.385
1458.00,51.421
1459.00,51.416
1460.00,51.457
1461.00,51.459
1462.00,51.492
1463.00,51.495
1464.00,51.499
1465.00,51.525
1466.00,51.527
1467.00,51.556
1468.00,51.612
1469.00,51.584
1470.00,51.603
1471.00,51.630
1472.00,51.638
1473.00,51.643
1474.00,51.682
1475.00,51.699
1476.00,51.701
1477.00,51.706
1478.00,51.726
1479.00,51.754
1480.00,51.753
1481.00,51.767
1482.00,51.793
1483.00,51.814
1484.00,51.831
1485.00,51.847
1486.00,51.843
1487.00,51.882
1488.00,51.904
1489.00,51.883
1490.00,51.913
1491.00,51.923
1492.00,51.941
1493.00,51.919
1494.00,51.966
1495.00,51.952
1496.00,51.977
1497.00,51.974
1498.00,51.987
1499.00,51.999
1500.00,52.025
1501.00, 
1502.00, 
1503.00, 
1504.00, 
1505.00, 
1506.00, 
1507.00, 
1508.00, 
1509.00, 
1510.00, 
1511.00, 
1512.00, 
1513.00, 
1514.00, 
1515.00, 
1516.00, 
1517.00, 
1518.00, 
1519.00, 
1520.00, 
1521.00, 
1522.00, 
1523.00, 
1524.00, 
1525.00, 
1526.00, 
1527.00, 
1528.00, 
1529.00, 
1530.00, 
1531.00, 
1532.00, 
1533.00, 
1534.00, 
1535.00, 
1536.00, 
1537.00, 
1538.00, 
1539.00, 
1540.00, 
1541.00, 
1542.00, 
1543.00, 
1544.00, 
1545.00, 
1546.00, 
1547.00, 
1548.00, 
1549.00, 
1550.00, 
1551.00, 
1552.00, 
1553.00, 
1554.00, 
1555.00, 
1556.00, 
1557.00, 
1558.00, 
1559.00, 
1560.00, 
1561.00, 
1562.00, 
1563.00, 
1564.00, 
1565.00, 
1566.00, 
1567.00, 
1568.00, 
1569.00, 
1570.00, 
1571.00, 
1572.00, 
1573.00, 
1574.00, 
1575.00, 
1576.00, 
1577.00, 
1578.00, 
1579.00, 
1580.00, 
1581.00, 
1582.00, 
1583.00, 
1584.00, 
1585.00, 
1586.00, 
1587.00, 
1588.00, 
1589.00, 
1590.00, 
1591.00, 
1592.00, 
1593.00, 
1594.00, 
1595.00, 
1596.00, 
1597.00, 
1598.00, 
1599.00, 
1600.00, 
1601.00, 
1602.00, 
1603.00, 
1604.00, 
1605.00, 
1606.00, 
1607.00, 
1608.00, 
1609.00, 
1610.00, 
1611.00, 
1612.00, 
1613.00, 
1614.00, 
1615.00, 
1616.00, 
1617.00, 
1618.00, 
1619.00, 
1620.00, 
1621.00, 
1622.00, 
1623.00, 
1624.00, 
1625.00, 
1626.00, 
1627.00, 
1628.00, 
1629.00, 
1630.00, 
1631.00, 
1632.00, 
1633.00, 
1634.00, 
1635.00, 
1636.00, 
1637.00, 
1638.00, 
1639.00, 
1640.00, 
1641.00, 
1642.00, 
1643.00, 
1644.00, 
1645.00, 
1646.00, 
1647.00, 
1648.00, 
1649.00, 
1650.00, 
1651.00, 
1652.00, 
1653.00, 
1654.00, 
1655.00, 
1656.00, 
1657.00, 
1658.00, 
1659.00, 
1660.00, 
1661.00, 
1662.00, 
1663.00, 
1664.00, 
1665.00, 
1666.00, 
1667.00, 
1668.00, 
1669.00, 
1670.00, 
1671.00, 
1672.00, 
1673.00, 
1674.00, 
1675.00, 
1676.00, 
1677.00, 
1678.00, 
1679.00, 
1680.00, 
1681.00, 
1682.00, 
1683.00, 
1684.00, 
1685.00, 
1686.00, 
1687.00, 
1688.00, 
1689.00, 
1690.00, 
1691.00, 
1692.00, 
1693.00, 
1694.00, 
1695.00, 
1696.00, 
1697.00, 
1698.00, 
1699.00, 
1700.00, 
1701.00, 
1702.00, 
1703.00, 
1704.00, 
1705.00, 
1706.00, 
1707.00, 
1708.00, 
1709.00, 
1710.00, 
1711.00, 
1712.00, 
1713.00, 
1714.00, 
1715.00, 
1716.00, 
1717.00, 
1718.00, 
1719.00, 
1720.00, 
1721.00, 
1722.00, 
1723.00, 
1724.00, 
1725.00, 
1726.00, 
1727.00, 
1728.00, 
1729.00, 
1730.00, 
1731.00, 
1732.00, 
1733.00, 
1734.00, 
1735.00, 
1736.00, 
1737.00, 
1738.00, 
1739.00, 
1740.00, 
1741.00, 
1742.00, 
1743.00, 
1744.00, 
1745.00, 
1746.00, 
1747.00, 
1748.00, 
1749.00, 
1750.00, 
1751.00, 
1752.00, 
1753.00, 
1754.00, 
1755.00, 
1756.00, 
1757.00, 
1758.00, 
1759.00, 
1760.00, 
1761.00, 
1762.00, 
1763.00, 
1764.00, 
1765.00, 
1766.00, 
1767.00, 
1768.00, 
1769.00, 
1770.00, 
1771.00, 
1772.00, 
1773.00, 
1774.00, 
1775.00, 
1776.00, 
1777.00, 
1778.00, 
1779.00, 
1780.00, 
1781.00, 
1782.00, 
1783.00, 
1784.00, 
1785.00, 
1786.00, 
1787.00, 
1788.00, 
1789.00, 
1790.00, 
1791.00, 
1792.00, 
1793.00, 
1794.00, 
1795.00, 
1796.00, 
1797.00, 
1798.00, 
1799.00, 
1800.00, 
1801.00, 
1802.00, 
1803.00, 
1804.00, 
1805.00, 
1806.00, 
1807.00, 
1808.00, 
1809.00, 
1810.00, 
1811.00, 
1812.00, 
1813.00, 
1814.00, 
1815.00, 
1816.00, 
1817.00, 
1818.00, 
1819.00, 
1820.00, 
1821.00, 
1822.00, 
1823.00, 
1824.00, 
1825.00, 
1826.00, 
1827.00, 
1828.00, 
1829.00, 
1830.00, 
1831.00, 
1832.00, 
1833.00, 
1834.00, 
1835.00, 
1836.00, 
1837.00, 
1838.00, 
1839.00, 
1840.00, 
1841.00, 
1842.00, 
1843.00, 
1844.00, 
1845.00, 
1846.00, 
1847.00, 
1848.00, 
1849.00, 
1850.00, 
1851.00, 
1852.00, 
1853.00, 
1854.00, 
1855.00, 
1856.00, 
1857.00, 
1858.00, 
1859.00, 
1860.00, 
1861.00, 
1862.00, 
1863.00, 
1864.00, 
1865.00, 
1866.00, 
1867.00, 
1868.00, 
1869.00, 
1870.00, 
1871.00, 
1872.00, 
1873.00, 
1874.00, 
1875.00, 
1876.00, 
1877.00, 
1878.00, 
1879.00, 
1880.00, 
1881.00, 
1882.00, 
1883.00, 
1884.00, 
1885.00, 
1886.00, 
1887.00, 
1888.00, 
1889.00, 
1890.00, 
1891.00, 
1892.00, 
1893.00, 
1894.00, 
1895.00, 
1896.00, 
1897.00, 
1898.00, 
1899.00, 
1900.00, 
1901.00, 
1902.00, 
1903.00, 
1904.00, 
1905.00, 
1906.00, 
1907.00, 
1908.00, 
1909.00, 
1910.00, 
1911.00, 
1912.00, 
1913.00, 
1914.00, 
1915.00, 
1916.00, 
1917.00, 
1918.00, 
1919.00, 
1920.00, 
1921.00, 
1922.00, 
1923.00, 
1924.00, 
1925.00, 
1926.00, 
1927.00, 
1928.00, 
1929.00, 
1930.00, 
1931.00, 
1932.00, 
1933.00, 
1934.00, 
1935.00, 
1936.00, 
1937.00, 
1938.00, 
1939.00, 
1940.00, 
1941.00, 
1942.00, 
1943.00, 
1944.00, 
1945.00, 
1946.00, 
1947.00, 
1948.00, 
1949.00, 
1950.00, 
1951.00, 
1952.00, 
1953.00, 
1954.00, 
1955.00, 
1956.00, 
1957.00, 
1958.00, 
1959.00, 
1960.00, 
1961.00, 
1962.00, 
1963.00, 
1964.00, 
1965.00, 
1966.00, 
1967.00, 
1968.00, 
1969.00, 
1970.00, 
1971.00, 
1972.00, 
1973.00, 
1974.00, 
1975.00, 
1976.00, 
1977.00, 
1978.00, 
1979.00, 
1980.00, 
1981.00, 
1982.00, 
1983.00, 
1984.00, 
1985.00, 
1986.00, 
1987.00, 
1988.00, 
1989.00, 
1990.00, 
1991.00, 
1992.00, 
1993.00, 
1994.00, 
1995.00, 
1996.00, 
1997.00, 
1998.00, 
1999.00, 
2000.00, 
2001.00, 
2002.00, 
2003.00, 
2004.00, 
2005.00, 
2006.00, 
2007.00, 
2008.00, 
2009.00, 
2010.00, 
2011.00, 
2012.00, 
2013.00, 
2014.00, 
2015.00, 
2016.00, 
2017.00, 
2018.00, 
2019.00, 
2020.00, 
2021.00, 
2022.00, 
2023.00, 
2024.00, 
2025.00, 
2026.00, 
2027.00, 
2028.00, 
2029.00, 
2030.00, 
2031.00, 
2032.00, 
2033.00, 
2034.00, 
2035.00, 
2036.00, 
2037.00, 
2038.00, 
2039.00, 
2040.00, 
2041.00, 
2042.00, 
2043.00, 
2044.00, 
2045.00, 
2046.00, 
2047.00, 
2048.00, 
2049.00, 
2050.00, 
2051.00, 
2052.00, 
2053.00, 
2054.00, 
2055.00, 
2056.00, 
2057.00, 
2058.00, 
2059.00, 
2060.00, 
2061.00, 
2062.00, 
2063.00, 
2064.00, 
2065.00, 
2066.00, 
2067.00, 
2068.00, 
2069.00, 
2070.00, 
2071.00, 
2072.00, 
2073.00, 
2074.00, 
2075.00, 
2076.00, 
2077.00, 
2078.00, 
2079.00, 
2080.00, 
2081.00, 
2082.00, 
2083.00, 
2084.00, 
2085.00, 
2086.00, 
2087.00, 
2088.00, 
2089.00, 
2090.00, 
2091.00, 
2092.00, 
2093.00, 
2094.00, 
2095.00, 
2096.00, 
2097.00, 
2098.00, 
2099.00, 
2100.00, 
2101.00, 
2102.00, 
2103.00, 
2104.00, 
2105.00, 
2106.00, 
2107.00, 
2108.00, 
2109.00, 
2110.00, 
2111.00, 
2112.00, 
2113.00, 
2114.00, 
2115.00, 
2116.00, 
2117.00, 
2118.00, 
2119.00, 
2120.00, 
2121.00, 
2122.00, 
2123.00, 
2124.00, 
2125.00, 
2126.00, 
2127.00, 
2128.00, 
2129.00, 
2130.00, 
2131.00, 
2132.00, 
2133.00, 
2134.00, 
2135.00, 
2136.00, 
2137.00, 
2138.00, 
2139.00, 
2140.00, 
2141.00, 
2142.00, 
2143.00, 
2144.00, 
2145.00, 
2146.00, 
2147.00, 
2148.00, 
2149.00, 
2150.00, 
2151.00, 
2152.00, 
2153.00, 
2154.00, 
2155.00, 
2156.00, 
2157.00, 
2158.00, 
2159.00, 
2160.00, 
2161.00, 
2162.00, 
2163.00, 
2164.00, 
2165.00, 
2166.00, 
2167.00, 
2168.00, 
2169.00, 
2170.00, 
2171.00, 
2172.00, 
2173.00, 
2174.00, 
2175.00, 
2176.00, 
2177.00, 
2178.00, 
2179.00, 
2180.00, 
2181.00, 
2182.00, 
2183.00, 
2184.00, 
2185.00, 
2186.00, 
2187.00, 
2188.00, 
2189.00, 
2190.00, 
2191.00, 
2192.00, 
2193.00, 
2194.00, 
2195.00, 
2196.00, 
2197.00, 
2198.00, 
2199.00, 
2200.00, 
2201.00, 
2202.00, 
2203.00, 
2204.00, 
2205.00, 
2206.00, 
2207.00, 
2208.00, 
2209.00, 
2210.00, 
2211.00, 
2212.00, 
2213.00, 
2214.00, 
2215.00, 
2216.00, 
2217.00, 
2218.00, 
2219.00, 
2220.00, 
2221.00, 
2222.00, 
2223.00, 
2224.00, 
2225.00, 
2226.00, 
2227.00, 
2228.00, 
2229.00, 
2230.00, 
2231.00, 
2232.00, 
2233.00, 
2234.00, 
2235.00, 
2236.00, 
2237.00, 
2238.00, 
2239.00, 
2240.00, 
2241.00, 
2242.00, 
2243.00, 
2244.00, 
2245.00, 
2246.00, 
2247.00, 
2248.00, 
2249.00, 
2250.00, 
2251.00, 
2252.00, 
2253.00, 
2254.00, 
2255.00, 
2256.00, 
2257.00, 
2258.00, 
2259.00, 
2260.00, 
2261.00, 
2262.00, 
2263.00, 
2264.00, 
2265.00, 
2266.00, 
2267.00, 
2268.00, 
2269.00, 
2270.00, 
2271.00, 
2272.00, 
2273.00, 
2274.00, 
2275.00, 
2276.00, 
2277.00, 
2278.00, 
2279.00, 
2280.00, 
2281.00, 
2282.00, 
2283.00, 
2284.00, 
2285.00, 
2286.00, 
2287.00, 
2288.00, 
2289.00, 
2290.00, 
2291.00, 
2292.00, 
2293.00, 
2294.00, 
2295.00, 
2296.00, 
2297.00, 
2298.00, 
2299.00, 
2300.00, 
2301.00, 
2302.00, 
2303.00, 
2304.00, 
2305.00, 
2306.00, 
2307.00, 
2308.00, 
2309.00, 
2310.00, 
2311.00, 
2312.00, 
2313.00, 
2314.00, 
2315.00, 
2316.00, 
2317.00, 
2318.00, 
2319.00, 
2320.00, 
2321.00, 
2322.00, 
2323.00, 
2324.00, 
2325.00, 
2326.00, 
2327.00, 
2328.00, 
2329.00, 
2330.00, 
2331.00, 
2332.00, 
2333.00, 
2334.00, 
2335.00, 
2336.00, 
2337.00, 
2338.00, 
2339.00, 
2340.00, 
2341.00, 
2342.00, 
2343.00, 
2344.00, 
2345.00, 
2346.00, 
2347.00, 
2348.00, 
2349.00, 
2350.00, 
2351.00, 
2352.00, 
2353.00, 
2354.00, 
2355.00, 
2356.00, 
2357.00, 
2358.00, 
2359.00, 
2360.00, 
2361.00, 
2362.00, 
2363.00, 
2364.00, 
2365.00, 
2366.00, 
2367.00, 
2368.00, 
2369.00, 
2370.00, 
2371.00, 
2372.00, 
2373.00, 
2374.00, 
2375.00, 
2376.00, 
2377.00, 
2378.00, 
2379.00, 
2380.00, 
2381.00, 
2382.00, 
2383.00, 
2384.00, 
2385.00, 
2386.00, 
2387.00, 
2388.00, 
2389.00, 
2390.00, 
2391.00, 
2392.00, 
2393.00, 
2394.00, 
2395.00, 
2396.00, 
2397.00, 
2398.00, 
2399.00, 
2400.00, 
2401.00, 
2402.00, 
2403.00, 
2404.00, 
2405.00, 
2406.00, 
2407.00, 
2408.00, 
2409.00, 
2410.00, 
2411.00, 
2412.00, 
2413.00, 
2414.00, 
2415.00, 
2416.00, 
2417.00, 
2418.00, 
2419.00, 
2420.00, 
2421.00, 
2422.00, 
2423.00, 
2424.00, 
2425.00, 
2426.00, 
2427.00, 
2428.00, 
2429.00, 
2430.00, 
2431.00, 
2432.00, 
2433.00, 
2434.00, 
2435.00, 
2436.00, 
2437.00, 
2438.00, 
2439.00, 
2440.00, 
2441.00, 
2442.00, 
2443.00, 
2444.00, 
2445.00, 
2446.00, 
2447.00, 
2448.00, 
2449.00, 
2450.00, 
2451.00, 
2452.00, 
2453.00, 
2454.00, 
2455.00, 
2456.00, 
2457.00, 
2458.00, 
2459.00, 
2460.00, 
2461.00, 
2462.00, 
2463.00, 
2464.00, 
2465.00, 
2466.00, 
2467.00, 
2468.00, 
2469.00, 
2470.00, 
2471.00, 
2472.00, 
2473.00, 
2474.00, 
2475.00, 
2476.00, 
2477.00, 
2478.00, 
2479.00, 
2480.00, 
2481.00, 
2482.00, 
2483.00, 
2484.00, 
2485.00, 
2486.00, 
2487.00, 
2488.00, 
2489.00, 
2490.00, 
2491.00, 
2492.00, 
2493.00, 
2494.00, 
2495.00, 
2496.00, 
2497.00, 
2498.00, 
2499.00, 
2500.00, 
2501.00, 
2502.00, 
2503.00, 
2504.00, 
2505.00, 
2506.00, 
2507.00, 
2508.00, 
2509.00, 
2510.00, 
2511.00, 
2512.00, 
2513.00, 
2514.00, 
2515.00, 
2516.00, 
2517.00, 
2518.00, 
2519.00, 
2520.00, 
2521.00, 
2522.00, 
2523.00, 
2524.00, 
2525.00, 
2526.00, 
2527.00, 
2528.00, 
2529.00, 
2530.00, 
2531.00, 
2532.00, 
2533.00, 
2534.00, 
2535.00, 
2536.00, 
2537.00, 
2538.00, 
2539.00, 
2540.00, 
2541.00, 
2542.00, 
2543.00, 
2544.00, 
2545.00, 
2546.00, 
2547.00, 
2548.00, 
2549.00, 
2550.00, 
2551.00, 
2552.00, 
2553.00, 
2554.00, 
2555.00, 
2556.00, 
2557.00, 
2558.00, 
2559.00, 
2560.00, 
2561.00, 
2562.00, 
2563.00, 
2564.00, 
2565.00, 
2566.00, 
2567.00, 
2568.00, 
2569.00, 
2570.00, 
2571.00, 
2572.00, 
2573.00, 
2574.00, 
2575.00, 
2576.00, 
2577.00, 
2578.00, 
2579.00, 
2580.00, 
2581.00, 
2582.00, 
2583.00, 
2584.00, 
2585.00, 
2586.00, 
2587.00, 
2588.00, 
2589.00, 
2590.00, 
2591.00, 
2592.00, 
2593.00, 
2594.00, 
2595.00, 
2596.00, 
2597.00, 
2598.00, 
2599.00, 
2600.00, 
