"1cP2 - RawData"
"Wavelength nm.","T%"
200.00,0.001
201.00,0.001
202.00,0.003
203.00,0.000
204.00,0.000
205.00,0.002
206.00,0.004
207.00,-0.001
208.00,0.005
209.00,0.000
210.00,0.000
211.00,0.003
212.00,0.001
213.00,0.002
214.00,0.002
215.00,-0.001
216.00,0.004
217.00,0.005
218.00,-0.001
219.00,-0.000
220.00,-0.001
221.00,0.001
222.00,0.003
223.00,0.001
224.00,0.002
225.00,0.002
226.00,-0.001
227.00,0.001
228.00,-0.001
229.00,0.001
230.00,0.002
231.00,0.001
232.00,-0.001
233.00,0.000
234.00,0.001
235.00,-0.001
236.00,-0.000
237.00,0.001
238.00,0.002
239.00,0.000
240.00,-0.000
241.00,0.001
242.00,-0.001
243.00,0.003
244.00,-0.000
245.00,-0.001
246.00,0.001
247.00,-0.000
248.00,0.003
249.00,-0.000
250.00,0.001
251.00,0.001
252.00,0.001
253.00,0.001
254.00,-0.000
255.00,0.000
256.00,-0.000
257.00,-0.001
258.00,-0.000
259.00,0.000
260.00,0.001
261.00,0.001
262.00,0.000
263.00,0.002
264.00,-0.000
265.00,0.001
266.00,0.000
267.00,0.002
268.00,0.000
269.00,0.001
270.00,-0.000
271.00,0.000
272.00,0.002
273.00,-0.000
274.00,0.000
275.00,0.002
276.00,-0.001
277.00,0.002
278.00,0.001
279.00,0.001
280.00,-0.000
281.00,-0.000
282.00,0.001
283.00,0.000
284.00,-0.001
285.00,0.001
286.00,-0.002
287.00,-0.002
288.00,-0.001
289.00,0.001
290.00,-0.000
291.00,-0.001
292.00,0.000
293.00,0.000
294.00,0.000
295.00,0.001
296.00,0.001
297.00,-0.000
298.00,-0.001
299.00,0.002
300.00,-0.000
301.00,-0.001
302.00,-0.001
303.00,0.000
304.00,0.003
305.00,0.003
306.00,0.003
307.00,0.004
308.00,0.008
309.00,0.017
310.00,0.023
311.00,0.037
312.00,0.058
313.00,0.093
314.00,0.146
315.00,0.215
316.00,0.307
317.00,0.435
318.00,0.589
319.00,0.798
320.00,1.056
321.00,1.366
322.00,1.757
323.00,2.233
324.00,2.763
325.00,3.329
326.00,3.936
327.00,4.708
328.00,5.490
329.00,6.369
330.00,7.306
331.00,8.241
332.00,9.293
333.00,10.418
334.00,11.551
335.00,12.681
336.00,13.828
337.00,15.048
338.00,16.188
339.00,17.323
340.00,18.504
341.00,19.714
342.00,20.781
343.00,21.851
344.00,22.862
345.00,23.961
346.00,24.923
347.00,25.808
348.00,26.693
349.00,27.560
350.00,28.366
351.00,29.088
352.00,29.786
353.00,30.462
354.00,31.149
355.00,31.750
356.00,32.288
357.00,32.776
358.00,33.311
359.00,33.919
360.00,34.309
361.00,34.657
362.00,35.087
363.00,35.429
364.00,35.671
365.00,35.900
366.00,36.195
367.00,36.338
368.00,36.586
369.00,36.662
370.00,36.969
371.00,37.018
372.00,37.056
373.00,37.116
374.00,37.166
375.00,37.154
376.00,37.048
377.00,36.961
378.00,36.832
379.00,36.722
380.00,36.778
381.00,36.807
382.00,36.878
383.00,36.990
384.00,37.059
385.00,37.246
386.00,37.392
387.00,37.631
388.00,37.811
389.00,37.889
390.00,38.050
391.00,38.137
392.00,38.259
393.00,38.300
394.00,38.435
395.00,38.557
396.00,38.575
397.00,38.646
398.00,38.660
399.00,38.688
400.00,38.754
401.00,38.748
402.00,38.797
403.00,38.838
404.00,38.861
405.00,38.836
406.00,38.811
407.00,38.741
408.00,38.729
409.00,38.666
410.00,38.570
411.00,38.583
412.00,38.436
413.00,38.548
414.00,38.525
415.00,38.430
416.00,38.594
417.00,38.437
418.00,38.509
419.00,38.606
420.00,38.646
421.00,38.634
422.00,38.601
423.00,38.574
424.00,38.682
425.00,38.639
426.00,38.696
427.00,38.747
428.00,38.737
429.00,38.732
430.00,38.768
431.00,38.844
432.00,38.782
433.00,38.854
434.00,38.904
435.00,38.992
436.00,39.019
437.00,38.994
438.00,39.045
439.00,39.044
440.00,39.115
441.00,39.196
442.00,39.205
443.00,39.274
444.00,39.371
445.00,39.394
446.00,39.479
447.00,39.504
448.00,39.580
449.00,39.677
450.00,39.737
451.00,39.803
452.00,39.881
453.00,39.957
454.00,40.021
455.00,40.043
456.00,40.167
457.00,40.250
458.00,40.282
459.00,40.408
460.00,40.496
461.00,40.558
462.00,40.641
463.00,40.682
464.00,40.809
465.00,40.902
466.00,41.053
467.00,41.110
468.00,41.097
469.00,41.152
470.00,41.291
471.00,41.154
472.00,41.320
473.00,41.311
474.00,41.353
475.00,41.429
476.00,41.477
477.00,41.557
478.00,41.600
479.00,41.731
480.00,41.869
481.00,41.895
482.00,42.030
483.00,42.142
484.00,42.137
485.00,42.362
486.00,42.413
487.00,42.552
488.00,42.591
489.00,42.704
490.00,42.838
491.00,42.873
492.00,43.000
493.00,43.200
494.00,43.300
495.00,43.250
496.00,43.539
497.00,43.335
498.00,43.398
499.00,43.569
500.00,43.627
501.00,43.677
502.00,43.791
503.00,43.849
504.00,43.832
505.00,43.915
506.00,43.956
507.00,44.011
508.00,44.125
509.00,44.230
510.00,44.339
511.00,44.346
512.00,44.484
513.00,44.579
514.00,44.659
515.00,44.779
516.00,44.850
517.00,44.810
518.00,44.971
519.00,44.942
520.00,44.925
521.00,45.008
522.00,45.101
523.00,45.040
524.00,45.090
525.00,45.254
526.00,45.323
527.00,45.336
528.00,45.349
529.00,45.574
530.00,45.633
531.00,45.720
532.00,45.730
533.00,45.830
534.00,45.872
535.00,45.920
536.00,45.987
537.00,46.063
538.00,46.037
539.00,45.969
540.00,46.091
541.00,46.044
542.00,46.120
543.00,46.154
544.00,46.201
545.00,46.225
546.00,46.259
547.00,46.384
548.00,46.427
549.00,46.491
550.00,46.596
551.00,46.506
552.00,46.496
553.00,46.561
554.00,46.795
555.00,46.840
556.00,46.803
557.00,46.898
558.00,46.938
559.00,46.990
560.00,47.021
561.00,47.083
562.00,47.117
563.00,47.151
564.00,47.154
565.00,47.155
566.00,47.173
567.00,47.161
568.00,47.202
569.00,47.225
570.00,47.251
571.00,47.295
572.00,47.240
573.00,47.210
574.00,47.279
575.00,47.268
576.00,47.324
577.00,47.410
578.00,47.382
579.00,47.487
580.00,47.438
581.00,47.609
582.00,47.670
583.00,47.624
584.00,47.713
585.00,47.786
586.00,47.812
587.00,47.876
588.00,47.836
589.00,47.747
590.00,47.842
591.00,47.903
592.00,47.906
593.00,47.816
594.00,47.963
595.00,48.021
596.00,47.978
597.00,48.083
598.00,48.125
599.00,47.994
600.00,48.043
601.00,48.085
602.00,48.113
603.00,48.118
604.00,48.133
605.00,48.214
606.00,48.163
607.00,48.161
608.00,48.388
609.00,48.403
610.00,48.195
611.00,48.254
612.00,48.257
613.00,48.373
614.00,48.364
615.00,48.414
616.00,48.443
617.00,48.392
618.00,48.303
619.00,48.379
620.00,48.389
621.00,48.405
622.00,48.469
623.00,48.504
624.00,48.507
625.00,48.596
626.00,48.566
627.00,48.570
628.00,48.529
629.00,48.546
630.00,48.562
631.00,48.545
632.00,48.677
633.00,48.680
634.00,48.726
635.00,48.729
636.00,48.885
637.00,48.723
638.00,48.739
639.00,48.885
640.00,48.837
641.00,48.820
642.00,48.827
643.00,48.913
644.00,49.005
645.00,48.926
646.00,49.084
647.00,49.036
648.00,49.007
649.00,48.994
650.00,48.969
651.00,49.075
652.00,49.105
653.00,49.074
654.00,49.128
655.00,49.252
656.00,49.430
657.00,49.239
658.00,49.238
659.00,49.345
660.00,49.306
661.00,49.160
662.00,49.117
663.00,49.318
664.00,49.471
665.00,49.571
666.00,49.485
667.00,49.703
668.00,49.655
669.00,49.705
670.00,49.844
671.00,49.614
672.00,49.619
673.00,49.719
674.00,49.686
675.00,49.676
676.00,49.842
677.00,49.917
678.00,49.604
679.00,49.715
680.00,49.875
681.00,49.962
682.00,49.846
683.00,49.774
684.00,49.916
685.00,49.900
686.00,49.759
687.00,49.841
688.00,49.896
689.00,49.805
690.00,50.091
691.00,50.236
692.00,49.795
693.00,49.816
694.00,49.885
695.00,50.099
696.00,50.069
697.00,49.727
698.00,49.744
699.00,50.356
700.00,50.445
701.00,50.047
702.00,50.080
703.00,50.166
704.00,50.176
705.00,50.032
706.00,50.096
707.00,50.094
708.00,49.896
709.00,50.323
710.00,50.641
711.00,50.076
712.00,50.122
713.00,50.212
714.00,50.238
715.00,50.166
716.00,50.113
717.00,50.253
718.00,50.264
719.00,50.208
720.00,50.111
721.00,55.019
722.00,54.922
723.00,54.850
724.00,54.855
725.00,54.856
726.00,54.759
727.00,54.665
728.00,54.651
729.00,54.700
730.00,54.624
731.00,54.565
732.00,54.606
733.00,54.509
734.00,54.515
735.00,54.560
736.00,54.430
737.00,54.398
738.00,54.447
739.00,54.408
740.00,54.369
741.00,54.346
742.00,54.334
743.00,54.299
744.00,54.224
745.00,54.146
746.00,54.154
747.00,54.014
748.00,54.060
749.00,54.008
750.00,53.948
751.00,53.819
752.00,53.851
753.00,53.868
754.00,53.780
755.00,53.714
756.00,53.740
757.00,53.669
758.00,53.612
759.00,53.579
760.00,53.584
761.00,53.597
762.00,53.595
763.00,53.557
764.00,53.499
765.00,53.439
766.00,53.492
767.00,53.414
768.00,53.333
769.00,53.313
770.00,53.355
771.00,53.311
772.00,53.355
773.00,53.188
774.00,53.188
775.00,53.218
776.00,53.197
777.00,53.168
778.00,53.132
779.00,53.122
780.00,53.038
781.00,53.004
782.00,52.967
783.00,52.962
784.00,52.976
785.00,52.841
786.00,52.905
787.00,52.816
788.00,52.822
789.00,52.736
790.00,52.699
791.00,52.763
792.00,52.576
793.00,52.624
794.00,52.612
795.00,52.578
796.00,52.595
797.00,52.446
798.00,52.554
799.00,52.385
800.00,52.368
801.00,52.411
802.00,52.337
803.00,52.354
804.00,52.256
805.00,52.286
806.00,52.135
807.00,52.208
808.00,52.220
809.00,52.159
810.00,52.079
811.00,52.082
812.00,52.056
813.00,51.994
814.00,52.035
815.00,51.901
816.00,51.972
817.00,51.954
818.00,51.842
819.00,51.888
820.00,51.693
821.00,51.751
822.00,51.656
823.00,51.699
824.00,51.645
825.00,51.519
826.00,51.617
827.00,51.629
828.00,51.606
829.00,51.513
830.00,51.487
831.00,53.925
832.00,53.844
833.00,53.791
834.00,53.771
835.00,53.767
836.00,53.724
837.00,53.685
838.00,53.672
839.00,53.674
840.00,53.574
841.00,53.606
842.00,53.583
843.00,53.525
844.00,53.527
845.00,53.489
846.00,53.446
847.00,53.414
848.00,53.373
849.00,53.316
850.00,53.284
851.00,53.262
852.00,53.262
853.00,53.111
854.00,53.160
855.00,53.093
856.00,53.079
857.00,53.006
858.00,52.951
859.00,52.971
860.00,52.966
861.00,52.953
862.00,52.931
863.00,52.890
864.00,52.856
865.00,52.860
866.00,52.818
867.00,52.792
868.00,52.796
869.00,52.778
870.00,52.764
871.00,52.761
872.00,52.724
873.00,52.710
874.00,52.698
875.00,52.650
876.00,52.630
877.00,52.624
878.00,52.616
879.00,52.586
880.00,52.579
881.00,52.550
882.00,52.567
883.00,52.493
884.00,52.483
885.00,52.458
886.00,52.436
887.00,52.416
888.00,52.371
889.00,52.337
890.00,52.315
891.00,52.361
892.00,52.291
893.00,52.246
894.00,52.251
895.00,52.218
896.00,52.194
897.00,52.173
898.00,52.112
899.00,52.108
900.00,52.089
901.00,52.119
902.00,52.098
903.00,52.046
904.00,52.047
905.00,52.024
906.00,52.002
907.00,51.974
908.00,51.954
909.00,51.912
910.00,51.895
911.00,51.864
912.00,51.873
913.00,51.810
914.00,51.816
915.00,51.752
916.00,51.755
917.00,51.721
918.00,51.719
919.00,51.693
920.00,51.662
921.00,51.692
922.00,51.636
923.00,51.589
924.00,51.562
925.00,51.639
926.00,51.550
927.00,51.498
928.00,51.491
929.00,51.492
930.00,51.464
931.00,51.436
932.00,51.378
933.00,51.404
934.00,51.377
935.00,51.345
936.00,51.319
937.00,51.305
938.00,51.308
939.00,51.274
940.00,51.232
941.00,51.231
942.00,51.201
943.00,51.184
944.00,51.126
945.00,51.152
946.00,51.140
947.00,51.094
948.00,51.073
949.00,51.062
950.00,51.036
951.00,51.008
952.00,50.994
953.00,50.950
954.00,50.939
955.00,50.908
956.00,50.901
957.00,50.861
958.00,50.859
959.00,50.806
960.00,50.794
961.00,50.784
962.00,50.790
963.00,50.758
964.00,50.758
965.00,50.731
966.00,50.717
967.00,50.702
968.00,50.703
969.00,50.688
970.00,50.648
971.00,50.687
972.00,50.622
973.00,50.675
974.00,50.675
975.00,50.638
976.00,50.667
977.00,50.656
978.00,50.690
979.00,50.641
980.00,50.661
981.00,50.673
982.00,50.625
983.00,50.622
984.00,50.666
985.00,50.627
986.00,50.591
987.00,50.624
988.00,50.580
989.00,50.592
990.00,50.571
991.00,50.561
992.00,50.576
993.00,50.534
994.00,50.513
995.00,50.499
996.00,50.500
997.00,50.483
998.00,50.455
999.00,50.467
1000.00,50.419
1001.00,50.430
1002.00,50.420
1003.00,50.415
1004.00,50.390
1005.00,50.356
1006.00,50.382
1007.00,50.354
1008.00,50.328
1009.00,50.304
1010.00,50.308
1011.00,50.298
1012.00,50.274
1013.00,50.263
1014.00,50.227
1015.00,50.249
1016.00,50.211
1017.00,50.198
1018.00,50.194
1019.00,50.173
1020.00,50.163
1021.00,50.128
1022.00,50.141
1023.00,50.098
1024.00,50.091
1025.00,50.064
1026.00,50.059
1027.00,50.029
1028.00,50.014
1029.00,50.018
1030.00,49.977
1031.00,49.996
1032.00,49.987
1033.00,49.953
1034.00,49.939
1035.00,49.894
1036.00,49.888
1037.00,49.866
1038.00,49.837
1039.00,49.801
1040.00,49.805
1041.00,49.773
1042.00,49.757
1043.00,49.746
1044.00,49.782
1045.00,49.759
1046.00,49.738
1047.00,49.765
1048.00,49.778
1049.00,49.781
1050.00,49.781
1051.00,49.831
1052.00,49.822
1053.00,49.824
1054.00,49.829
1055.00,49.856
1056.00,49.842
1057.00,49.836
1058.00,49.823
1059.00,49.824
1060.00,49.832
1061.00,49.818
1062.00,49.823
1063.00,49.818
1064.00,49.809
1065.00,49.797
1066.00,49.796
1067.00,49.789
1068.00,49.802
1069.00,49.759
1070.00,49.738
1071.00,49.724
1072.00,49.757
1073.00,49.723
1074.00,49.712
1075.00,49.715
1076.00,49.722
1077.00,49.711
1078.00,49.707
1079.00,49.703
1080.00,49.701
1081.00,49.676
1082.00,49.669
1083.00,49.674
1084.00,49.657
1085.00,49.646
1086.00,49.635
1087.00,49.640
1088.00,49.632
1089.00,49.623
1090.00,49.623
1091.00,49.635
1092.00,49.620
1093.00,49.596
1094.00,49.566
1095.00,49.571
1096.00,49.561
1097.00,49.562
1098.00,49.542
1099.00,49.532
1100.00,49.513
1101.00,49.507
1102.00,49.498
1103.00,49.490
1104.00,49.473
1105.00,49.463
1106.00,49.463
1107.00,49.454
1108.00,49.435
1109.00,49.436
1110.00,49.443
1111.00,49.431
1112.00,49.408
1113.00,49.415
1114.00,49.391
1115.00,49.376
1116.00,49.370
1117.00,49.358
1118.00,49.340
1119.00,49.344
1120.00,49.355
1121.00,49.357
1122.00,49.318
1123.00,49.338
1124.00,49.333
1125.00,49.320
1126.00,49.298
1127.00,49.305
1128.00,49.295
1129.00,49.281
1130.00,49.277
1131.00,49.279
1132.00,49.289
1133.00,49.282
1134.00,49.267
1135.00,49.253
1136.00,49.256
1137.00,49.258
1138.00,49.254
1139.00,49.266
1140.00,49.255
1141.00,49.238
1142.00,49.232
1143.00,49.247
1144.00,49.228
1145.00,49.226
1146.00,49.219
1147.00,49.216
1148.00,49.207
1149.00,49.225
1150.00,49.232
1151.00,49.240
1152.00,49.227
1153.00,49.221
1154.00,49.215
1155.00,49.222
1156.00,49.189
1157.00,49.201
1158.00,49.182
1159.00,49.197
1160.00,49.199
1161.00,49.217
1162.00,49.205
1163.00,49.209
1164.00,49.213
1165.00,49.211
1166.00,49.214
1167.00,49.196
1168.00,49.210
1169.00,49.193
1170.00,49.190
1171.00,49.168
1172.00,49.172
1173.00,49.173
1174.00,49.180
1175.00,49.169
1176.00,49.178
1177.00,49.177
1178.00,49.181
1179.00,49.191
1180.00,49.170
1181.00,49.182
1182.00,49.164
1183.00,49.158
1184.00,49.154
1185.00,49.169
1186.00,49.150
1187.00,49.161
1188.00,49.161
1189.00,49.156
1190.00,49.139
1191.00,49.145
1192.00,49.167
1193.00,49.150
1194.00,49.164
1195.00,49.151
1196.00,49.188
1197.00,49.178
1198.00,49.170
1199.00,49.163
1200.00,49.174
1201.00,49.193
1202.00,49.167
1203.00,49.158
1204.00,49.160
1205.00,49.186
1206.00,49.173
1207.00,49.176
1208.00,49.170
1209.00,49.179
1210.00,49.169
1211.00,49.163
1212.00,49.180
1213.00,49.141
1214.00,49.169
1215.00,49.153
1216.00,49.166
1217.00,49.173
1218.00,49.168
1219.00,49.197
1220.00,49.175
1221.00,49.201
1222.00,49.191
1223.00,49.218
1224.00,49.212
1225.00,49.196
1226.00,49.200
1227.00,49.184
1228.00,49.199
1229.00,49.198
1230.00,49.215
1231.00,49.216
1232.00,49.243
1233.00,49.240
1234.00,49.234
1235.00,49.239
1236.00,49.233
1237.00,49.230
1238.00,49.244
1239.00,49.250
1240.00,49.245
1241.00,49.245
1242.00,49.269
1243.00,49.270
1244.00,49.245
1245.00,49.292
1246.00,49.279
1247.00,49.272
1248.00,49.267
1249.00,49.290
1250.00,49.305
1251.00,49.279
1252.00,49.295
1253.00,49.288
1254.00,49.320
1255.00,49.304
1256.00,49.300
1257.00,49.291
1258.00,49.327
1259.00,49.318
1260.00,49.340
1261.00,49.336
1262.00,49.333
1263.00,49.326
1264.00,49.346
1265.00,49.349
1266.00,49.351
1267.00,49.358
1268.00,49.372
1269.00,49.392
1270.00,49.399
1271.00,49.392
1272.00,49.385
1273.00,49.406
1274.00,49.411
1275.00,49.430
1276.00,49.413
1277.00,49.414
1278.00,49.427
1279.00,49.431
1280.00,49.412
1281.00,49.437
1282.00,49.449
1283.00,49.448
1284.00,49.453
1285.00,49.454
1286.00,49.476
1287.00,49.470
1288.00,49.468
1289.00,49.473
1290.00,49.511
1291.00,49.491
1292.00,49.507
1293.00,49.491
1294.00,49.509
1295.00,49.524
1296.00,49.521
1297.00,49.549
1298.00,49.594
1299.00,49.556
1300.00,49.580
1301.00,49.567
1302.00,49.583
1303.00,49.576
1304.00,49.570
1305.00,49.596
1306.00,49.598
1307.00,49.605
1308.00,49.614
1309.00,49.625
1310.00,49.626
1311.00,49.620
1312.00,49.624
1313.00,49.646
1314.00,49.664
1315.00,49.675
1316.00,49.671
1317.00,49.694
1318.00,49.700
1319.00,49.706
1320.00,49.700
1321.00,49.868
1322.00,49.853
1323.00,49.844
1324.00,49.844
1325.00,49.830
1326.00,49.863
1327.00,49.851
1328.00,49.854
1329.00,49.859
1330.00,49.872
1331.00,49.882
1332.00,49.873
1333.00,49.876
1334.00,49.892
1335.00,49.916
1336.00,49.938
1337.00,49.970
1338.00,50.043
1339.00,50.074
1340.00,50.141
1341.00,50.204
1342.00,50.280
1343.00,50.321
1344.00,50.371
1345.00,50.435
1346.00,50.474
1347.00,50.485
1348.00,50.508
1349.00,50.535
1350.00,50.557
1351.00,50.565
1352.00,50.581
1353.00,50.569
1354.00,50.592
1355.00,50.554
1356.00,50.617
1357.00,50.614
1358.00,50.657
1359.00,50.664
1360.00,50.623
1361.00,50.643
1362.00,50.611
1363.00,50.709
1364.00,50.673
1365.00,50.666
1366.00,50.925
1367.00,50.659
1368.00,50.638
1369.00,50.680
1370.00,50.660
1371.00,50.597
1372.00,50.624
1373.00,50.673
1374.00,50.676
1375.00,50.655
1376.00,50.637
1377.00,50.621
1378.00,50.717
1379.00,50.664
1380.00,50.656
1381.00,50.673
1382.00,50.625
1383.00,50.652
1384.00,50.598
1385.00,50.618
1386.00,50.709
1387.00,50.659
1388.00,50.613
1389.00,50.592
1390.00,50.641
1391.00,50.626
1392.00,50.625
1393.00,50.675
1394.00,50.661
1395.00,50.506
1396.00,50.537
1397.00,50.618
1398.00,50.724
1399.00,50.645
1400.00,50.502
1401.00,50.601
1402.00,50.708
1403.00,50.670
1404.00,50.651
1405.00,50.682
1406.00,50.702
1407.00,50.679
1408.00,50.697
1409.00,50.688
1410.00,50.731
1411.00,50.722
1412.00,50.786
1413.00,50.705
1414.00,50.697
1415.00,50.763
1416.00,50.764
1417.00,50.821
1418.00,50.769
1419.00,50.766
1420.00,50.808
1421.00,50.862
1422.00,50.850
1423.00,50.870
1424.00,50.878
1425.00,50.908
1426.00,50.902
1427.00,50.928
1428.00,50.929
1429.00,50.942
1430.00,50.958
1431.00,50.964
1432.00,50.992
1433.00,51.000
1434.00,50.996
1435.00,51.061
1436.00,51.078
1437.00,51.053
1438.00,51.070
1439.00,51.115
1440.00,51.121
1441.00,51.129
1442.00,51.149
1443.00,51.190
1444.00,51.255
1445.00,51.196
1446.00,51.222
1447.00,51.259
1448.00,51.306
1449.00,51.275
1450.00,51.287
1451.00,51.311
1452.00,51.329
1453.00,51.328
1454.00,51.366
1455.00,51.390
1456.00,51.406
1457.00,51.416
1458.00,51.452
1459.00,51.431
1460.00,51.479
1461.00,51.468
1462.00,51.501
1463.00,51.501
1464.00,51.517
1465.00,51.529
1466.00,51.533
1467.00,51.578
1468.00,51.638
1469.00,51.616
1470.00,51.620
1471.00,51.641
1472.00,51.660
1473.00,51.677
1474.00,51.720
1475.00,51.723
1476.00,51.728
1477.00,51.727
1478.00,51.750
1479.00,51.781
1480.00,51.782
1481.00,51.790
1482.00,51.817
1483.00,51.843
1484.00,51.845
1485.00,51.845
1486.00,51.872
1487.00,51.900
1488.00,51.901
1489.00,51.906
1490.00,51.922
1491.00,51.953
1492.00,51.972
1493.00,51.956
1494.00,52.014
1495.00,51.963
1496.00,51.992
1497.00,51.981
1498.00,51.997
1499.00,52.025
1500.00,52.051
1501.00, 
1502.00, 
1503.00, 
1504.00, 
1505.00, 
1506.00, 
1507.00, 
1508.00, 
1509.00, 
1510.00, 
1511.00, 
1512.00, 
1513.00, 
1514.00, 
1515.00, 
1516.00, 
1517.00, 
1518.00, 
1519.00, 
1520.00, 
1521.00, 
1522.00, 
1523.00, 
1524.00, 
1525.00, 
1526.00, 
1527.00, 
1528.00, 
1529.00, 
1530.00, 
1531.00, 
1532.00, 
1533.00, 
1534.00, 
1535.00, 
1536.00, 
1537.00, 
1538.00, 
1539.00, 
1540.00, 
1541.00, 
1542.00, 
1543.00, 
1544.00, 
1545.00, 
1546.00, 
1547.00, 
1548.00, 
1549.00, 
1550.00, 
1551.00, 
1552.00, 
1553.00, 
1554.00, 
1555.00, 
1556.00, 
1557.00, 
1558.00, 
1559.00, 
1560.00, 
1561.00, 
1562.00, 
1563.00, 
1564.00, 
1565.00, 
1566.00, 
1567.00, 
1568.00, 
1569.00, 
1570.00, 
1571.00, 
1572.00, 
1573.00, 
1574.00, 
1575.00, 
1576.00, 
1577.00, 
1578.00, 
1579.00, 
1580.00, 
1581.00, 
1582.00, 
1583.00, 
1584.00, 
1585.00, 
1586.00, 
1587.00, 
1588.00, 
1589.00, 
1590.00, 
1591.00, 
1592.00, 
1593.00, 
1594.00, 
1595.00, 
1596.00, 
1597.00, 
1598.00, 
1599.00, 
1600.00, 
1601.00, 
1602.00, 
1603.00, 
1604.00, 
1605.00, 
1606.00, 
1607.00, 
1608.00, 
1609.00, 
1610.00, 
1611.00, 
1612.00, 
1613.00, 
1614.00, 
1615.00, 
1616.00, 
1617.00, 
1618.00, 
1619.00, 
1620.00, 
1621.00, 
1622.00, 
1623.00, 
1624.00, 
1625.00, 
1626.00, 
1627.00, 
1628.00, 
1629.00, 
1630.00, 
1631.00, 
1632.00, 
1633.00, 
1634.00, 
1635.00, 
1636.00, 
1637.00, 
1638.00, 
1639.00, 
1640.00, 
1641.00, 
1642.00, 
1643.00, 
1644.00, 
1645.00, 
1646.00, 
1647.00, 
1648.00, 
1649.00, 
1650.00, 
1651.00, 
1652.00, 
1653.00, 
1654.00, 
1655.00, 
1656.00, 
1657.00, 
1658.00, 
1659.00, 
1660.00, 
1661.00, 
1662.00, 
1663.00, 
1664.00, 
1665.00, 
1666.00, 
1667.00, 
1668.00, 
1669.00, 
1670.00, 
1671.00, 
1672.00, 
1673.00, 
1674.00, 
1675.00, 
1676.00, 
1677.00, 
1678.00, 
1679.00, 
1680.00, 
1681.00, 
1682.00, 
1683.00, 
1684.00, 
1685.00, 
1686.00, 
1687.00, 
1688.00, 
1689.00, 
1690.00, 
1691.00, 
1692.00, 
1693.00, 
1694.00, 
1695.00, 
1696.00, 
1697.00, 
1698.00, 
1699.00, 
1700.00, 
1701.00, 
1702.00, 
1703.00, 
1704.00, 
1705.00, 
1706.00, 
1707.00, 
1708.00, 
1709.00, 
1710.00, 
1711.00, 
1712.00, 
1713.00, 
1714.00, 
1715.00, 
1716.00, 
1717.00, 
1718.00, 
1719.00, 
1720.00, 
1721.00, 
1722.00, 
1723.00, 
1724.00, 
1725.00, 
1726.00, 
1727.00, 
1728.00, 
1729.00, 
1730.00, 
1731.00, 
1732.00, 
1733.00, 
1734.00, 
1735.00, 
1736.00, 
1737.00, 
1738.00, 
1739.00, 
1740.00, 
1741.00, 
1742.00, 
1743.00, 
1744.00, 
1745.00, 
1746.00, 
1747.00, 
1748.00, 
1749.00, 
1750.00, 
1751.00, 
1752.00, 
1753.00, 
1754.00, 
1755.00, 
1756.00, 
1757.00, 
1758.00, 
1759.00, 
1760.00, 
1761.00, 
1762.00, 
1763.00, 
1764.00, 
1765.00, 
1766.00, 
1767.00, 
1768.00, 
1769.00, 
1770.00, 
1771.00, 
1772.00, 
1773.00, 
1774.00, 
1775.00, 
1776.00, 
1777.00, 
1778.00, 
1779.00, 
1780.00, 
1781.00, 
1782.00, 
1783.00, 
1784.00, 
1785.00, 
1786.00, 
1787.00, 
1788.00, 
1789.00, 
1790.00, 
1791.00, 
1792.00, 
1793.00, 
1794.00, 
1795.00, 
1796.00, 
1797.00, 
1798.00, 
1799.00, 
1800.00, 
1801.00, 
1802.00, 
1803.00, 
1804.00, 
1805.00, 
1806.00, 
1807.00, 
1808.00, 
1809.00, 
1810.00, 
1811.00, 
1812.00, 
1813.00, 
1814.00, 
1815.00, 
1816.00, 
1817.00, 
1818.00, 
1819.00, 
1820.00, 
1821.00, 
1822.00, 
1823.00, 
1824.00, 
1825.00, 
1826.00, 
1827.00, 
1828.00, 
1829.00, 
1830.00, 
1831.00, 
1832.00, 
1833.00, 
1834.00, 
1835.00, 
1836.00, 
1837.00, 
1838.00, 
1839.00, 
1840.00, 
1841.00, 
1842.00, 
1843.00, 
1844.00, 
1845.00, 
1846.00, 
1847.00, 
1848.00, 
1849.00, 
1850.00, 
1851.00, 
1852.00, 
1853.00, 
1854.00, 
1855.00, 
1856.00, 
1857.00, 
1858.00, 
1859.00, 
1860.00, 
1861.00, 
1862.00, 
1863.00, 
1864.00, 
1865.00, 
1866.00, 
1867.00, 
1868.00, 
1869.00, 
1870.00, 
1871.00, 
1872.00, 
1873.00, 
1874.00, 
1875.00, 
1876.00, 
1877.00, 
1878.00, 
1879.00, 
1880.00, 
1881.00, 
1882.00, 
1883.00, 
1884.00, 
1885.00, 
1886.00, 
1887.00, 
1888.00, 
1889.00, 
1890.00, 
1891.00, 
1892.00, 
1893.00, 
1894.00, 
1895.00, 
1896.00, 
1897.00, 
1898.00, 
1899.00, 
1900.00, 
1901.00, 
1902.00, 
1903.00, 
1904.00, 
1905.00, 
1906.00, 
1907.00, 
1908.00, 
1909.00, 
1910.00, 
1911.00, 
1912.00, 
1913.00, 
1914.00, 
1915.00, 
1916.00, 
1917.00, 
1918.00, 
1919.00, 
1920.00, 
1921.00, 
1922.00, 
1923.00, 
1924.00, 
1925.00, 
1926.00, 
1927.00, 
1928.00, 
1929.00, 
1930.00, 
1931.00, 
1932.00, 
1933.00, 
1934.00, 
1935.00, 
1936.00, 
1937.00, 
1938.00, 
1939.00, 
1940.00, 
1941.00, 
1942.00, 
1943.00, 
1944.00, 
1945.00, 
1946.00, 
1947.00, 
1948.00, 
1949.00, 
1950.00, 
1951.00, 
1952.00, 
1953.00, 
1954.00, 
1955.00, 
1956.00, 
1957.00, 
1958.00, 
1959.00, 
1960.00, 
1961.00, 
1962.00, 
1963.00, 
1964.00, 
1965.00, 
1966.00, 
1967.00, 
1968.00, 
1969.00, 
1970.00, 
1971.00, 
1972.00, 
1973.00, 
1974.00, 
1975.00, 
1976.00, 
1977.00, 
1978.00, 
1979.00, 
1980.00, 
1981.00, 
1982.00, 
1983.00, 
1984.00, 
1985.00, 
1986.00, 
1987.00, 
1988.00, 
1989.00, 
1990.00, 
1991.00, 
1992.00, 
1993.00, 
1994.00, 
1995.00, 
1996.00, 
1997.00, 
1998.00, 
1999.00, 
2000.00, 
2001.00, 
2002.00, 
2003.00, 
2004.00, 
2005.00, 
2006.00, 
2007.00, 
2008.00, 
2009.00, 
2010.00, 
2011.00, 
2012.00, 
2013.00, 
2014.00, 
2015.00, 
2016.00, 
2017.00, 
2018.00, 
2019.00, 
2020.00, 
2021.00, 
2022.00, 
2023.00, 
2024.00, 
2025.00, 
2026.00, 
2027.00, 
2028.00, 
2029.00, 
2030.00, 
2031.00, 
2032.00, 
2033.00, 
2034.00, 
2035.00, 
2036.00, 
2037.00, 
2038.00, 
2039.00, 
2040.00, 
2041.00, 
2042.00, 
2043.00, 
2044.00, 
2045.00, 
2046.00, 
2047.00, 
2048.00, 
2049.00, 
2050.00, 
2051.00, 
2052.00, 
2053.00, 
2054.00, 
2055.00, 
2056.00, 
2057.00, 
2058.00, 
2059.00, 
2060.00, 
2061.00, 
2062.00, 
2063.00, 
2064.00, 
2065.00, 
2066.00, 
2067.00, 
2068.00, 
2069.00, 
2070.00, 
2071.00, 
2072.00, 
2073.00, 
2074.00, 
2075.00, 
2076.00, 
2077.00, 
2078.00, 
2079.00, 
2080.00, 
2081.00, 
2082.00, 
2083.00, 
2084.00, 
2085.00, 
2086.00, 
2087.00, 
2088.00, 
2089.00, 
2090.00, 
2091.00, 
2092.00, 
2093.00, 
2094.00, 
2095.00, 
2096.00, 
2097.00, 
2098.00, 
2099.00, 
2100.00, 
2101.00, 
2102.00, 
2103.00, 
2104.00, 
2105.00, 
2106.00, 
2107.00, 
2108.00, 
2109.00, 
2110.00, 
2111.00, 
2112.00, 
2113.00, 
2114.00, 
2115.00, 
2116.00, 
2117.00, 
2118.00, 
2119.00, 
2120.00, 
2121.00, 
2122.00, 
2123.00, 
2124.00, 
2125.00, 
2126.00, 
2127.00, 
2128.00, 
2129.00, 
2130.00, 
2131.00, 
2132.00, 
2133.00, 
2134.00, 
2135.00, 
2136.00, 
2137.00, 
2138.00, 
2139.00, 
2140.00, 
2141.00, 
2142.00, 
2143.00, 
2144.00, 
2145.00, 
2146.00, 
2147.00, 
2148.00, 
2149.00, 
2150.00, 
2151.00, 
2152.00, 
2153.00, 
2154.00, 
2155.00, 
2156.00, 
2157.00, 
2158.00, 
2159.00, 
2160.00, 
2161.00, 
2162.00, 
2163.00, 
2164.00, 
2165.00, 
2166.00, 
2167.00, 
2168.00, 
2169.00, 
2170.00, 
2171.00, 
2172.00, 
2173.00, 
2174.00, 
2175.00, 
2176.00, 
2177.00, 
2178.00, 
2179.00, 
2180.00, 
2181.00, 
2182.00, 
2183.00, 
2184.00, 
2185.00, 
2186.00, 
2187.00, 
2188.00, 
2189.00, 
2190.00, 
2191.00, 
2192.00, 
2193.00, 
2194.00, 
2195.00, 
2196.00, 
2197.00, 
2198.00, 
2199.00, 
2200.00, 
2201.00, 
2202.00, 
2203.00, 
2204.00, 
2205.00, 
2206.00, 
2207.00, 
2208.00, 
2209.00, 
2210.00, 
2211.00, 
2212.00, 
2213.00, 
2214.00, 
2215.00, 
2216.00, 
2217.00, 
2218.00, 
2219.00, 
2220.00, 
2221.00, 
2222.00, 
2223.00, 
2224.00, 
2225.00, 
2226.00, 
2227.00, 
2228.00, 
2229.00, 
2230.00, 
2231.00, 
2232.00, 
2233.00, 
2234.00, 
2235.00, 
2236.00, 
2237.00, 
2238.00, 
2239.00, 
2240.00, 
2241.00, 
2242.00, 
2243.00, 
2244.00, 
2245.00, 
2246.00, 
2247.00, 
2248.00, 
2249.00, 
2250.00, 
2251.00, 
2252.00, 
2253.00, 
2254.00, 
2255.00, 
2256.00, 
2257.00, 
2258.00, 
2259.00, 
2260.00, 
2261.00, 
2262.00, 
2263.00, 
2264.00, 
2265.00, 
2266.00, 
2267.00, 
2268.00, 
2269.00, 
2270.00, 
2271.00, 
2272.00, 
2273.00, 
2274.00, 
2275.00, 
2276.00, 
2277.00, 
2278.00, 
2279.00, 
2280.00, 
2281.00, 
2282.00, 
2283.00, 
2284.00, 
2285.00, 
2286.00, 
2287.00, 
2288.00, 
2289.00, 
2290.00, 
2291.00, 
2292.00, 
2293.00, 
2294.00, 
2295.00, 
2296.00, 
2297.00, 
2298.00, 
2299.00, 
2300.00, 
2301.00, 
2302.00, 
2303.00, 
2304.00, 
2305.00, 
2306.00, 
2307.00, 
2308.00, 
2309.00, 
2310.00, 
2311.00, 
2312.00, 
2313.00, 
2314.00, 
2315.00, 
2316.00, 
2317.00, 
2318.00, 
2319.00, 
2320.00, 
2321.00, 
2322.00, 
2323.00, 
2324.00, 
2325.00, 
2326.00, 
2327.00, 
2328.00, 
2329.00, 
2330.00, 
2331.00, 
2332.00, 
2333.00, 
2334.00, 
2335.00, 
2336.00, 
2337.00, 
2338.00, 
2339.00, 
2340.00, 
2341.00, 
2342.00, 
2343.00, 
2344.00, 
2345.00, 
2346.00, 
2347.00, 
2348.00, 
2349.00, 
2350.00, 
2351.00, 
2352.00, 
2353.00, 
2354.00, 
2355.00, 
2356.00, 
2357.00, 
2358.00, 
2359.00, 
2360.00, 
2361.00, 
2362.00, 
2363.00, 
2364.00, 
2365.00, 
2366.00, 
2367.00, 
2368.00, 
2369.00, 
2370.00, 
2371.00, 
2372.00, 
2373.00, 
2374.00, 
2375.00, 
2376.00, 
2377.00, 
2378.00, 
2379.00, 
2380.00, 
2381.00, 
2382.00, 
2383.00, 
2384.00, 
2385.00, 
2386.00, 
2387.00, 
2388.00, 
2389.00, 
2390.00, 
2391.00, 
2392.00, 
2393.00, 
2394.00, 
2395.00, 
2396.00, 
2397.00, 
2398.00, 
2399.00, 
2400.00, 
2401.00, 
2402.00, 
2403.00, 
2404.00, 
2405.00, 
2406.00, 
2407.00, 
2408.00, 
2409.00, 
2410.00, 
2411.00, 
2412.00, 
2413.00, 
2414.00, 
2415.00, 
2416.00, 
2417.00, 
2418.00, 
2419.00, 
2420.00, 
2421.00, 
2422.00, 
2423.00, 
2424.00, 
2425.00, 
2426.00, 
2427.00, 
2428.00, 
2429.00, 
2430.00, 
2431.00, 
2432.00, 
2433.00, 
2434.00, 
2435.00, 
2436.00, 
2437.00, 
2438.00, 
2439.00, 
2440.00, 
2441.00, 
2442.00, 
2443.00, 
2444.00, 
2445.00, 
2446.00, 
2447.00, 
2448.00, 
2449.00, 
2450.00, 
2451.00, 
2452.00, 
2453.00, 
2454.00, 
2455.00, 
2456.00, 
2457.00, 
2458.00, 
2459.00, 
2460.00, 
2461.00, 
2462.00, 
2463.00, 
2464.00, 
2465.00, 
2466.00, 
2467.00, 
2468.00, 
2469.00, 
2470.00, 
2471.00, 
2472.00, 
2473.00, 
2474.00, 
2475.00, 
2476.00, 
2477.00, 
2478.00, 
2479.00, 
2480.00, 
2481.00, 
2482.00, 
2483.00, 
2484.00, 
2485.00, 
2486.00, 
2487.00, 
2488.00, 
2489.00, 
2490.00, 
2491.00, 
2492.00, 
2493.00, 
2494.00, 
2495.00, 
2496.00, 
2497.00, 
2498.00, 
2499.00, 
2500.00, 
2501.00, 
2502.00, 
2503.00, 
2504.00, 
2505.00, 
2506.00, 
2507.00, 
2508.00, 
2509.00, 
2510.00, 
2511.00, 
2512.00, 
2513.00, 
2514.00, 
2515.00, 
2516.00, 
2517.00, 
2518.00, 
2519.00, 
2520.00, 
2521.00, 
2522.00, 
2523.00, 
2524.00, 
2525.00, 
2526.00, 
2527.00, 
2528.00, 
2529.00, 
2530.00, 
2531.00, 
2532.00, 
2533.00, 
2534.00, 
2535.00, 
2536.00, 
2537.00, 
2538.00, 
2539.00, 
2540.00, 
2541.00, 
2542.00, 
2543.00, 
2544.00, 
2545.00, 
2546.00, 
2547.00, 
2548.00, 
2549.00, 
2550.00, 
2551.00, 
2552.00, 
2553.00, 
2554.00, 
2555.00, 
2556.00, 
2557.00, 
2558.00, 
2559.00, 
2560.00, 
2561.00, 
2562.00, 
2563.00, 
2564.00, 
2565.00, 
2566.00, 
2567.00, 
2568.00, 
2569.00, 
2570.00, 
2571.00, 
2572.00, 
2573.00, 
2574.00, 
2575.00, 
2576.00, 
2577.00, 
2578.00, 
2579.00, 
2580.00, 
2581.00, 
2582.00, 
2583.00, 
2584.00, 
2585.00, 
2586.00, 
2587.00, 
2588.00, 
2589.00, 
2590.00, 
2591.00, 
2592.00, 
2593.00, 
2594.00, 
2595.00, 
2596.00, 
2597.00, 
2598.00, 
2599.00, 
2600.00, 
