"1cP5 - RawData"
"Wavelength nm.","T%"
200.00,0.000
201.00,-0.002
202.00,-0.002
203.00,0.002
204.00,-0.000
205.00,-0.001
206.00,0.000
207.00,0.001
208.00,-0.003
209.00,-0.000
210.00,-0.001
211.00,0.002
212.00,0.003
213.00,0.001
214.00,-0.001
215.00,0.002
216.00,-0.001
217.00,-0.000
218.00,-0.001
219.00,0.006
220.00,0.004
221.00,0.002
222.00,0.000
223.00,0.001
224.00,0.001
225.00,-0.001
226.00,0.000
227.00,0.002
228.00,-0.003
229.00,-0.002
230.00,-0.001
231.00,0.001
232.00,0.002
233.00,0.002
234.00,0.001
235.00,0.001
236.00,0.001
237.00,-0.001
238.00,0.001
239.00,0.002
240.00,-0.001
241.00,-0.000
242.00,-0.000
243.00,-0.001
244.00,0.002
245.00,0.001
246.00,-0.001
247.00,0.001
248.00,0.000
249.00,0.001
250.00,-0.001
251.00,-0.001
252.00,0.000
253.00,0.001
254.00,0.000
255.00,-0.001
256.00,0.000
257.00,0.001
258.00,0.000
259.00,0.002
260.00,0.001
261.00,-0.000
262.00,0.001
263.00,-0.001
264.00,0.001
265.00,0.000
266.00,-0.001
267.00,-0.000
268.00,0.001
269.00,0.002
270.00,-0.000
271.00,0.000
272.00,0.001
273.00,0.001
274.00,-0.001
275.00,0.001
276.00,0.000
277.00,0.001
278.00,0.001
279.00,-0.001
280.00,-0.000
281.00,-0.000
282.00,0.001
283.00,-0.001
284.00,0.001
285.00,0.000
286.00,0.001
287.00,-0.000
288.00,-0.000
289.00,0.001
290.00,0.001
291.00,-0.001
292.00,0.001
293.00,-0.000
294.00,-0.001
295.00,0.001
296.00,0.000
297.00,0.000
298.00,0.000
299.00,-0.001
300.00,0.000
301.00,0.001
302.00,-0.001
303.00,0.001
304.00,0.002
305.00,-0.000
306.00,0.003
307.00,0.003
308.00,0.006
309.00,0.012
310.00,0.016
311.00,0.023
312.00,0.039
313.00,0.057
314.00,0.090
315.00,0.128
316.00,0.182
317.00,0.256
318.00,0.350
319.00,0.470
320.00,0.625
321.00,0.820
322.00,0.988
323.00,1.303
324.00,1.617
325.00,1.947
326.00,2.285
327.00,2.736
328.00,3.185
329.00,3.670
330.00,4.182
331.00,4.743
332.00,5.353
333.00,5.971
334.00,6.593
335.00,7.229
336.00,7.870
337.00,8.543
338.00,9.167
339.00,9.776
340.00,10.460
341.00,11.105
342.00,11.672
343.00,12.253
344.00,12.800
345.00,13.407
346.00,13.901
347.00,14.362
348.00,14.815
349.00,15.253
350.00,15.698
351.00,16.064
352.00,16.402
353.00,16.722
354.00,17.081
355.00,17.380
356.00,17.615
357.00,17.875
358.00,18.136
359.00,18.364
360.00,18.591
361.00,18.723
362.00,18.915
363.00,19.073
364.00,19.133
365.00,19.217
366.00,19.357
367.00,19.418
368.00,19.463
369.00,19.509
370.00,19.564
371.00,19.565
372.00,19.537
373.00,19.523
374.00,19.497
375.00,19.426
376.00,19.374
377.00,19.272
378.00,19.189
379.00,19.088
380.00,19.073
381.00,19.074
382.00,19.031
383.00,19.056
384.00,19.061
385.00,19.148
386.00,19.145
387.00,19.232
388.00,19.327
389.00,19.288
390.00,19.330
391.00,19.378
392.00,19.366
393.00,19.414
394.00,19.357
395.00,19.469
396.00,19.455
397.00,19.454
398.00,19.451
399.00,19.443
400.00,19.437
401.00,19.411
402.00,19.435
403.00,19.414
404.00,19.413
405.00,19.384
406.00,19.365
407.00,19.322
408.00,19.304
409.00,19.261
410.00,19.200
411.00,19.227
412.00,19.151
413.00,19.201
414.00,19.201
415.00,19.172
416.00,19.211
417.00,19.171
418.00,19.212
419.00,19.308
420.00,19.312
421.00,19.295
422.00,19.340
423.00,19.377
424.00,19.425
425.00,19.452
426.00,19.473
427.00,19.514
428.00,19.572
429.00,19.596
430.00,19.632
431.00,19.700
432.00,19.708
433.00,19.782
434.00,19.834
435.00,19.902
436.00,19.950
437.00,20.019
438.00,20.098
439.00,20.143
440.00,20.239
441.00,20.290
442.00,20.383
443.00,20.472
444.00,20.599
445.00,20.627
446.00,20.736
447.00,20.802
448.00,20.923
449.00,21.046
450.00,21.104
451.00,21.196
452.00,21.327
453.00,21.410
454.00,21.583
455.00,21.661
456.00,21.783
457.00,21.924
458.00,22.013
459.00,22.139
460.00,22.274
461.00,22.373
462.00,22.520
463.00,22.654
464.00,22.783
465.00,22.909
466.00,23.072
467.00,23.256
468.00,23.253
469.00,23.444
470.00,23.518
471.00,23.646
472.00,23.761
473.00,23.874
474.00,23.979
475.00,24.109
476.00,24.202
477.00,24.359
478.00,24.475
479.00,24.659
480.00,24.813
481.00,24.930
482.00,25.089
483.00,25.245
484.00,25.390
485.00,25.570
486.00,25.708
487.00,25.869
488.00,25.988
489.00,26.165
490.00,26.338
491.00,26.439
492.00,26.629
493.00,26.821
494.00,26.994
495.00,27.036
496.00,27.296
497.00,27.268
498.00,27.393
499.00,27.553
500.00,27.684
501.00,27.805
502.00,27.943
503.00,28.057
504.00,28.154
505.00,28.314
506.00,28.366
507.00,28.521
508.00,28.686
509.00,28.824
510.00,28.922
511.00,29.037
512.00,29.148
513.00,29.359
514.00,29.472
515.00,29.617
516.00,29.765
517.00,29.813
518.00,29.995
519.00,30.042
520.00,30.073
521.00,30.212
522.00,30.341
523.00,30.385
524.00,30.481
525.00,30.641
526.00,30.755
527.00,30.805
528.00,30.837
529.00,31.099
530.00,31.206
531.00,31.328
532.00,31.419
533.00,31.534
534.00,31.589
535.00,31.691
536.00,31.782
537.00,31.871
538.00,31.938
539.00,31.965
540.00,32.077
541.00,32.131
542.00,32.162
543.00,32.246
544.00,32.308
545.00,32.395
546.00,32.460
547.00,32.589
548.00,32.654
549.00,32.697
550.00,32.845
551.00,32.948
552.00,32.943
553.00,32.957
554.00,33.053
555.00,33.110
556.00,33.158
557.00,33.272
558.00,33.349
559.00,33.409
560.00,33.483
561.00,33.568
562.00,33.608
563.00,33.643
564.00,33.684
565.00,33.713
566.00,33.755
567.00,33.836
568.00,33.866
569.00,33.884
570.00,33.970
571.00,33.985
572.00,34.001
573.00,33.970
574.00,34.051
575.00,34.081
576.00,34.122
577.00,34.210
578.00,34.232
579.00,34.320
580.00,34.332
581.00,34.481
582.00,34.546
583.00,34.548
584.00,34.681
585.00,34.722
586.00,34.762
587.00,34.846
588.00,34.809
589.00,34.787
590.00,34.894
591.00,34.938
592.00,34.958
593.00,34.935
594.00,35.082
595.00,35.122
596.00,35.190
597.00,35.256
598.00,35.308
599.00,35.286
600.00,35.301
601.00,35.379
602.00,35.425
603.00,35.481
604.00,35.486
605.00,35.575
606.00,35.581
607.00,35.591
608.00,35.787
609.00,35.862
610.00,35.662
611.00,35.763
612.00,35.920
613.00,35.969
614.00,35.961
615.00,36.054
616.00,36.147
617.00,36.127
618.00,36.073
619.00,36.225
620.00,36.279
621.00,36.320
622.00,36.410
623.00,36.451
624.00,36.506
625.00,36.595
626.00,36.623
627.00,36.718
628.00,36.746
629.00,36.812
630.00,36.876
631.00,36.895
632.00,37.086
633.00,37.115
634.00,37.163
635.00,37.241
636.00,37.391
637.00,37.375
638.00,37.492
639.00,37.649
640.00,37.651
641.00,37.777
642.00,37.860
643.00,37.917
644.00,38.011
645.00,38.001
646.00,38.156
647.00,38.209
648.00,38.308
649.00,38.310
650.00,38.388
651.00,38.523
652.00,38.654
653.00,38.656
654.00,38.766
655.00,38.927
656.00,39.170
657.00,39.183
658.00,39.263
659.00,39.436
660.00,39.435
661.00,39.519
662.00,39.465
663.00,39.669
664.00,39.897
665.00,40.108
666.00,40.017
667.00,40.142
668.00,40.225
669.00,40.411
670.00,40.615
671.00,40.560
672.00,40.595
673.00,40.727
674.00,40.859
675.00,40.876
676.00,41.107
677.00,41.279
678.00,41.130
679.00,41.288
680.00,41.471
681.00,41.642
682.00,41.698
683.00,41.659
684.00,41.928
685.00,42.019
686.00,41.867
687.00,42.012
688.00,42.126
689.00,42.239
690.00,42.545
691.00,42.766
692.00,42.556
693.00,42.450
694.00,42.610
695.00,42.922
696.00,42.895
697.00,42.793
698.00,43.227
699.00,43.663
700.00,43.514
701.00,43.426
702.00,43.512
703.00,43.756
704.00,43.849
705.00,43.788
706.00,43.866
707.00,43.943
708.00,43.855
709.00,44.281
710.00,44.740
711.00,44.246
712.00,44.405
713.00,44.619
714.00,44.604
715.00,44.735
716.00,44.659
717.00,44.753
718.00,44.953
719.00,45.005
720.00,45.047
721.00,49.419
722.00,49.475
723.00,49.525
724.00,49.570
725.00,49.612
726.00,49.604
727.00,49.687
728.00,49.692
729.00,49.773
730.00,49.776
731.00,49.876
732.00,49.866
733.00,49.958
734.00,50.013
735.00,50.031
736.00,50.092
737.00,50.076
738.00,50.193
739.00,50.237
740.00,50.317
741.00,50.315
742.00,50.356
743.00,50.379
744.00,50.329
745.00,50.341
746.00,50.407
747.00,50.428
748.00,50.432
749.00,50.479
750.00,50.462
751.00,50.424
752.00,50.539
753.00,50.608
754.00,50.505
755.00,50.537
756.00,50.582
757.00,50.572
758.00,50.574
759.00,50.610
760.00,50.680
761.00,50.679
762.00,50.716
763.00,50.787
764.00,50.755
765.00,50.840
766.00,50.873
767.00,50.815
768.00,50.813
769.00,50.854
770.00,50.905
771.00,50.924
772.00,50.984
773.00,50.878
774.00,50.912
775.00,50.945
776.00,50.956
777.00,50.944
778.00,50.929
779.00,51.045
780.00,50.977
781.00,50.972
782.00,51.018
783.00,51.044
784.00,51.020
785.00,50.966
786.00,51.062
787.00,51.052
788.00,50.992
789.00,51.013
790.00,50.973
791.00,51.071
792.00,50.986
793.00,50.958
794.00,50.950
795.00,50.937
796.00,50.975
797.00,50.935
798.00,51.024
799.00,50.900
800.00,50.911
801.00,50.890
802.00,50.899
803.00,50.968
804.00,50.828
805.00,50.919
806.00,50.799
807.00,50.859
808.00,50.896
809.00,50.871
810.00,50.802
811.00,50.881
812.00,50.898
813.00,50.833
814.00,50.829
815.00,50.787
816.00,50.802
817.00,50.773
818.00,50.727
819.00,50.746
820.00,50.783
821.00,50.667
822.00,50.644
823.00,50.809
824.00,50.661
825.00,50.452
826.00,50.687
827.00,50.691
828.00,50.723
829.00,50.589
830.00,50.668
831.00,53.023
832.00,52.977
833.00,52.946
834.00,52.948
835.00,52.953
836.00,52.904
837.00,52.827
838.00,52.935
839.00,52.905
840.00,52.833
841.00,52.878
842.00,52.823
843.00,52.817
844.00,52.805
845.00,52.801
846.00,52.766
847.00,52.744
848.00,52.872
849.00,52.682
850.00,52.683
851.00,52.615
852.00,52.656
853.00,52.539
854.00,52.610
855.00,52.495
856.00,52.530
857.00,52.499
858.00,52.448
859.00,52.427
860.00,52.435
861.00,52.437
862.00,52.428
863.00,52.404
864.00,52.362
865.00,52.388
866.00,52.366
867.00,52.356
868.00,52.374
869.00,52.340
870.00,52.337
871.00,52.350
872.00,52.310
873.00,52.293
874.00,52.285
875.00,52.255
876.00,52.260
877.00,52.233
878.00,52.237
879.00,52.251
880.00,52.328
881.00,52.200
882.00,52.215
883.00,52.163
884.00,52.172
885.00,52.149
886.00,52.146
887.00,52.120
888.00,52.084
889.00,52.068
890.00,52.028
891.00,52.090
892.00,52.038
893.00,51.966
894.00,51.997
895.00,51.954
896.00,51.947
897.00,51.936
898.00,51.909
899.00,51.907
900.00,51.887
901.00,51.901
902.00,51.886
903.00,51.854
904.00,51.846
905.00,51.817
906.00,51.822
907.00,51.782
908.00,51.764
909.00,51.731
910.00,51.701
911.00,51.679
912.00,51.707
913.00,51.676
914.00,51.632
915.00,51.608
916.00,51.612
917.00,51.558
918.00,51.536
919.00,51.595
920.00,51.524
921.00,51.536
922.00,51.528
923.00,51.487
924.00,51.464
925.00,51.461
926.00,51.436
927.00,51.381
928.00,51.378
929.00,51.404
930.00,51.351
931.00,51.338
932.00,51.329
933.00,51.337
934.00,51.259
935.00,51.239
936.00,51.225
937.00,51.226
938.00,51.218
939.00,51.189
940.00,51.164
941.00,51.163
942.00,51.123
943.00,51.124
944.00,51.084
945.00,51.109
946.00,51.102
947.00,51.049
948.00,51.021
949.00,51.031
950.00,50.997
951.00,50.984
952.00,50.967
953.00,50.913
954.00,50.903
955.00,50.864
956.00,50.843
957.00,50.812
958.00,50.831
959.00,50.785
960.00,50.777
961.00,50.776
962.00,50.777
963.00,50.726
964.00,50.726
965.00,50.728
966.00,50.702
967.00,50.690
968.00,50.687
969.00,50.691
970.00,50.678
971.00,50.684
972.00,50.655
973.00,50.717
974.00,50.708
975.00,50.669
976.00,50.688
977.00,50.696
978.00,50.709
979.00,50.645
980.00,50.667
981.00,50.686
982.00,50.651
983.00,50.664
984.00,50.650
985.00,50.654
986.00,50.613
987.00,50.645
988.00,50.616
989.00,50.607
990.00,50.603
991.00,50.581
992.00,50.601
993.00,50.598
994.00,50.548
995.00,50.524
996.00,50.542
997.00,50.524
998.00,50.506
999.00,50.510
1000.00,50.460
1001.00,50.467
1002.00,50.449
1003.00,50.440
1004.00,50.403
1005.00,50.385
1006.00,50.431
1007.00,50.399
1008.00,50.376
1009.00,50.380
1010.00,50.370
1011.00,50.346
1012.00,50.329
1013.00,50.325
1014.00,50.293
1015.00,50.303
1016.00,50.267
1017.00,50.264
1018.00,50.252
1019.00,50.217
1020.00,50.222
1021.00,50.188
1022.00,50.201
1023.00,50.172
1024.00,50.160
1025.00,50.136
1026.00,50.124
1027.00,50.091
1028.00,50.095
1029.00,50.088
1030.00,50.046
1031.00,50.066
1032.00,50.022
1033.00,50.014
1034.00,50.005
1035.00,49.970
1036.00,49.949
1037.00,49.917
1038.00,49.894
1039.00,49.878
1040.00,49.887
1041.00,49.844
1042.00,49.847
1043.00,49.829
1044.00,49.855
1045.00,49.848
1046.00,49.837
1047.00,49.862
1048.00,49.852
1049.00,49.873
1050.00,49.890
1051.00,49.935
1052.00,49.908
1053.00,49.917
1054.00,49.917
1055.00,49.922
1056.00,49.941
1057.00,49.956
1058.00,49.919
1059.00,49.925
1060.00,49.935
1061.00,49.921
1062.00,49.912
1063.00,49.909
1064.00,49.921
1065.00,49.900
1066.00,49.881
1067.00,49.895
1068.00,49.907
1069.00,49.876
1070.00,49.848
1071.00,49.824
1072.00,49.862
1073.00,49.827
1074.00,49.833
1075.00,49.819
1076.00,49.829
1077.00,49.807
1078.00,49.802
1079.00,49.800
1080.00,49.804
1081.00,49.781
1082.00,49.781
1083.00,49.779
1084.00,49.768
1085.00,49.759
1086.00,49.745
1087.00,49.755
1088.00,49.736
1089.00,49.732
1090.00,49.721
1091.00,49.733
1092.00,49.710
1093.00,49.698
1094.00,49.688
1095.00,49.683
1096.00,49.665
1097.00,49.692
1098.00,49.638
1099.00,49.618
1100.00,49.621
1101.00,49.613
1102.00,49.603
1103.00,49.594
1104.00,49.584
1105.00,49.583
1106.00,49.585
1107.00,49.570
1108.00,49.559
1109.00,49.556
1110.00,49.544
1111.00,49.531
1112.00,49.516
1113.00,49.516
1114.00,49.503
1115.00,49.501
1116.00,49.506
1117.00,49.506
1118.00,49.497
1119.00,49.487
1120.00,49.487
1121.00,49.478
1122.00,49.458
1123.00,49.450
1124.00,49.458
1125.00,49.445
1126.00,49.425
1127.00,49.431
1128.00,49.415
1129.00,49.391
1130.00,49.388
1131.00,49.384
1132.00,49.380
1133.00,49.393
1134.00,49.378
1135.00,49.364
1136.00,49.360
1137.00,49.366
1138.00,49.376
1139.00,49.384
1140.00,49.362
1141.00,49.353
1142.00,49.344
1143.00,49.356
1144.00,49.327
1145.00,49.338
1146.00,49.339
1147.00,49.317
1148.00,49.318
1149.00,49.348
1150.00,49.341
1151.00,49.336
1152.00,49.334
1153.00,49.323
1154.00,49.305
1155.00,49.326
1156.00,49.312
1157.00,49.318
1158.00,49.307
1159.00,49.318
1160.00,49.316
1161.00,49.330
1162.00,49.303
1163.00,49.317
1164.00,49.310
1165.00,49.311
1166.00,49.324
1167.00,49.310
1168.00,49.328
1169.00,49.304
1170.00,49.297
1171.00,49.292
1172.00,49.301
1173.00,49.290
1174.00,49.298
1175.00,49.283
1176.00,49.301
1177.00,49.276
1178.00,49.291
1179.00,49.329
1180.00,49.281
1181.00,49.305
1182.00,49.301
1183.00,49.301
1184.00,49.283
1185.00,49.300
1186.00,49.276
1187.00,49.274
1188.00,49.281
1189.00,49.279
1190.00,49.261
1191.00,49.262
1192.00,49.285
1193.00,49.281
1194.00,49.294
1195.00,49.258
1196.00,49.309
1197.00,49.298
1198.00,49.278
1199.00,49.275
1200.00,49.271
1201.00,49.292
1202.00,49.273
1203.00,49.288
1204.00,49.288
1205.00,49.307
1206.00,49.289
1207.00,49.305
1208.00,49.287
1209.00,49.298
1210.00,49.301
1211.00,49.285
1212.00,49.311
1213.00,49.262
1214.00,49.301
1215.00,49.271
1216.00,49.292
1217.00,49.293
1218.00,49.272
1219.00,49.292
1220.00,49.271
1221.00,49.302
1222.00,49.282
1223.00,49.319
1224.00,49.312
1225.00,49.303
1226.00,49.332
1227.00,49.312
1228.00,49.319
1229.00,49.330
1230.00,49.357
1231.00,49.350
1232.00,49.382
1233.00,49.375
1234.00,49.367
1235.00,49.364
1236.00,49.363
1237.00,49.362
1238.00,49.365
1239.00,49.358
1240.00,49.344
1241.00,49.350
1242.00,49.342
1243.00,49.363
1244.00,49.346
1245.00,49.389
1246.00,49.386
1247.00,49.392
1248.00,49.393
1249.00,49.422
1250.00,49.419
1251.00,49.404
1252.00,49.418
1253.00,49.392
1254.00,49.428
1255.00,49.421
1256.00,49.407
1257.00,49.418
1258.00,49.449
1259.00,49.454
1260.00,49.502
1261.00,49.470
1262.00,49.484
1263.00,49.477
1264.00,49.476
1265.00,49.489
1266.00,49.487
1267.00,49.487
1268.00,49.497
1269.00,49.496
1270.00,49.524
1271.00,49.512
1272.00,49.490
1273.00,49.529
1274.00,49.523
1275.00,49.515
1276.00,49.525
1277.00,49.538
1278.00,49.553
1279.00,49.545
1280.00,49.522
1281.00,49.540
1282.00,49.558
1283.00,49.544
1284.00,49.547
1285.00,49.569
1286.00,49.603
1287.00,49.600
1288.00,49.602
1289.00,49.594
1290.00,49.631
1291.00,49.600
1292.00,49.632
1293.00,49.622
1294.00,49.622
1295.00,49.643
1296.00,49.644
1297.00,49.645
1298.00,49.689
1299.00,49.658
1300.00,49.677
1301.00,49.680
1302.00,49.710
1303.00,49.704
1304.00,49.686
1305.00,49.703
1306.00,49.713
1307.00,49.716
1308.00,49.723
1309.00,49.750
1310.00,49.728
1311.00,49.716
1312.00,49.728
1313.00,49.752
1314.00,49.778
1315.00,49.793
1316.00,49.789
1317.00,49.818
1318.00,49.815
1319.00,49.815
1320.00,49.824
1321.00,49.988
1322.00,49.964
1323.00,49.961
1324.00,49.983
1325.00,49.954
1326.00,49.983
1327.00,49.964
1328.00,49.974
1329.00,49.981
1330.00,49.967
1331.00,49.975
1332.00,49.974
1333.00,49.973
1334.00,50.003
1335.00,50.027
1336.00,50.061
1337.00,50.078
1338.00,50.154
1339.00,50.197
1340.00,50.260
1341.00,50.296
1342.00,50.382
1343.00,50.440
1344.00,50.462
1345.00,50.547
1346.00,50.580
1347.00,50.587
1348.00,50.615
1349.00,50.640
1350.00,50.649
1351.00,50.666
1352.00,50.674
1353.00,50.669
1354.00,50.696
1355.00,50.657
1356.00,50.739
1357.00,50.728
1358.00,50.762
1359.00,50.775
1360.00,50.827
1361.00,50.808
1362.00,50.729
1363.00,50.774
1364.00,50.815
1365.00,50.753
1366.00,50.821
1367.00,50.801
1368.00,50.725
1369.00,50.807
1370.00,50.770
1371.00,50.685
1372.00,50.730
1373.00,50.771
1374.00,50.748
1375.00,50.738
1376.00,50.723
1377.00,50.721
1378.00,50.846
1379.00,50.752
1380.00,50.766
1381.00,50.762
1382.00,50.563
1383.00,50.805
1384.00,50.736
1385.00,50.722
1386.00,50.807
1387.00,50.742
1388.00,50.695
1389.00,50.714
1390.00,50.756
1391.00,50.755
1392.00,50.735
1393.00,50.868
1394.00,50.800
1395.00,50.816
1396.00,50.674
1397.00,50.843
1398.00,50.147
1399.00,50.737
1400.00,50.697
1401.00,50.736
1402.00,50.803
1403.00,50.776
1404.00,50.767
1405.00,50.796
1406.00,50.827
1407.00,50.777
1408.00,50.788
1409.00,50.784
1410.00,50.826
1411.00,50.800
1412.00,50.901
1413.00,50.818
1414.00,50.791
1415.00,50.869
1416.00,50.891
1417.00,50.933
1418.00,50.882
1419.00,50.882
1420.00,50.927
1421.00,50.968
1422.00,50.961
1423.00,50.978
1424.00,50.971
1425.00,51.002
1426.00,51.000
1427.00,51.030
1428.00,51.034
1429.00,51.056
1430.00,51.072
1431.00,51.085
1432.00,51.105
1433.00,51.135
1434.00,51.139
1435.00,51.190
1436.00,51.196
1437.00,51.179
1438.00,51.203
1439.00,51.240
1440.00,51.243
1441.00,51.264
1442.00,51.277
1443.00,51.301
1444.00,51.369
1445.00,51.316
1446.00,51.338
1447.00,51.379
1448.00,51.407
1449.00,51.388
1450.00,51.399
1451.00,51.400
1452.00,51.441
1453.00,51.466
1454.00,51.472
1455.00,51.498
1456.00,51.508
1457.00,51.548
1458.00,51.563
1459.00,51.581
1460.00,51.636
1461.00,51.606
1462.00,51.639
1463.00,51.654
1464.00,51.660
1465.00,51.667
1466.00,51.679
1467.00,51.723
1468.00,51.756
1469.00,51.731
1470.00,51.756
1471.00,51.783
1472.00,51.791
1473.00,51.792
1474.00,51.832
1475.00,51.844
1476.00,51.831
1477.00,51.842
1478.00,51.872
1479.00,51.907
1480.00,51.924
1481.00,51.923
1482.00,51.958
1483.00,51.992
1484.00,51.976
1485.00,51.984
1486.00,52.005
1487.00,52.018
1488.00,52.050
1489.00,52.039
1490.00,52.061
1491.00,52.080
1492.00,52.091
1493.00,52.075
1494.00,52.124
1495.00,52.081
1496.00,52.127
1497.00,52.107
1498.00,52.111
1499.00,52.153
1500.00,52.169
1501.00, 
1502.00, 
1503.00, 
1504.00, 
1505.00, 
1506.00, 
1507.00, 
1508.00, 
1509.00, 
1510.00, 
1511.00, 
1512.00, 
1513.00, 
1514.00, 
1515.00, 
1516.00, 
1517.00, 
1518.00, 
1519.00, 
1520.00, 
1521.00, 
1522.00, 
1523.00, 
1524.00, 
1525.00, 
1526.00, 
1527.00, 
1528.00, 
1529.00, 
1530.00, 
1531.00, 
1532.00, 
1533.00, 
1534.00, 
1535.00, 
1536.00, 
1537.00, 
1538.00, 
1539.00, 
1540.00, 
1541.00, 
1542.00, 
1543.00, 
1544.00, 
1545.00, 
1546.00, 
1547.00, 
1548.00, 
1549.00, 
1550.00, 
1551.00, 
1552.00, 
1553.00, 
1554.00, 
1555.00, 
1556.00, 
1557.00, 
1558.00, 
1559.00, 
1560.00, 
1561.00, 
1562.00, 
1563.00, 
1564.00, 
1565.00, 
1566.00, 
1567.00, 
1568.00, 
1569.00, 
1570.00, 
1571.00, 
1572.00, 
1573.00, 
1574.00, 
1575.00, 
1576.00, 
1577.00, 
1578.00, 
1579.00, 
1580.00, 
1581.00, 
1582.00, 
1583.00, 
1584.00, 
1585.00, 
1586.00, 
1587.00, 
1588.00, 
1589.00, 
1590.00, 
1591.00, 
1592.00, 
1593.00, 
1594.00, 
1595.00, 
1596.00, 
1597.00, 
1598.00, 
1599.00, 
1600.00, 
1601.00, 
1602.00, 
1603.00, 
1604.00, 
1605.00, 
1606.00, 
1607.00, 
1608.00, 
1609.00, 
1610.00, 
1611.00, 
1612.00, 
1613.00, 
1614.00, 
1615.00, 
1616.00, 
1617.00, 
1618.00, 
1619.00, 
1620.00, 
1621.00, 
1622.00, 
1623.00, 
1624.00, 
1625.00, 
1626.00, 
1627.00, 
1628.00, 
1629.00, 
1630.00, 
1631.00, 
1632.00, 
1633.00, 
1634.00, 
1635.00, 
1636.00, 
1637.00, 
1638.00, 
1639.00, 
1640.00, 
1641.00, 
1642.00, 
1643.00, 
1644.00, 
1645.00, 
1646.00, 
1647.00, 
1648.00, 
1649.00, 
1650.00, 
1651.00, 
1652.00, 
1653.00, 
1654.00, 
1655.00, 
1656.00, 
1657.00, 
1658.00, 
1659.00, 
1660.00, 
1661.00, 
1662.00, 
1663.00, 
1664.00, 
1665.00, 
1666.00, 
1667.00, 
1668.00, 
1669.00, 
1670.00, 
1671.00, 
1672.00, 
1673.00, 
1674.00, 
1675.00, 
1676.00, 
1677.00, 
1678.00, 
1679.00, 
1680.00, 
1681.00, 
1682.00, 
1683.00, 
1684.00, 
1685.00, 
1686.00, 
1687.00, 
1688.00, 
1689.00, 
1690.00, 
1691.00, 
1692.00, 
1693.00, 
1694.00, 
1695.00, 
1696.00, 
1697.00, 
1698.00, 
1699.00, 
1700.00, 
1701.00, 
1702.00, 
1703.00, 
1704.00, 
1705.00, 
1706.00, 
1707.00, 
1708.00, 
1709.00, 
1710.00, 
1711.00, 
1712.00, 
1713.00, 
1714.00, 
1715.00, 
1716.00, 
1717.00, 
1718.00, 
1719.00, 
1720.00, 
1721.00, 
1722.00, 
1723.00, 
1724.00, 
1725.00, 
1726.00, 
1727.00, 
1728.00, 
1729.00, 
1730.00, 
1731.00, 
1732.00, 
1733.00, 
1734.00, 
1735.00, 
1736.00, 
1737.00, 
1738.00, 
1739.00, 
1740.00, 
1741.00, 
1742.00, 
1743.00, 
1744.00, 
1745.00, 
1746.00, 
1747.00, 
1748.00, 
1749.00, 
1750.00, 
1751.00, 
1752.00, 
1753.00, 
1754.00, 
1755.00, 
1756.00, 
1757.00, 
1758.00, 
1759.00, 
1760.00, 
1761.00, 
1762.00, 
1763.00, 
1764.00, 
1765.00, 
1766.00, 
1767.00, 
1768.00, 
1769.00, 
1770.00, 
1771.00, 
1772.00, 
1773.00, 
1774.00, 
1775.00, 
1776.00, 
1777.00, 
1778.00, 
1779.00, 
1780.00, 
1781.00, 
1782.00, 
1783.00, 
1784.00, 
1785.00, 
1786.00, 
1787.00, 
1788.00, 
1789.00, 
1790.00, 
1791.00, 
1792.00, 
1793.00, 
1794.00, 
1795.00, 
1796.00, 
1797.00, 
1798.00, 
1799.00, 
1800.00, 
1801.00, 
1802.00, 
1803.00, 
1804.00, 
1805.00, 
1806.00, 
1807.00, 
1808.00, 
1809.00, 
1810.00, 
1811.00, 
1812.00, 
1813.00, 
1814.00, 
1815.00, 
1816.00, 
1817.00, 
1818.00, 
1819.00, 
1820.00, 
1821.00, 
1822.00, 
1823.00, 
1824.00, 
1825.00, 
1826.00, 
1827.00, 
1828.00, 
1829.00, 
1830.00, 
1831.00, 
1832.00, 
1833.00, 
1834.00, 
1835.00, 
1836.00, 
1837.00, 
1838.00, 
1839.00, 
1840.00, 
1841.00, 
1842.00, 
1843.00, 
1844.00, 
1845.00, 
1846.00, 
1847.00, 
1848.00, 
1849.00, 
1850.00, 
1851.00, 
1852.00, 
1853.00, 
1854.00, 
1855.00, 
1856.00, 
1857.00, 
1858.00, 
1859.00, 
1860.00, 
1861.00, 
1862.00, 
1863.00, 
1864.00, 
1865.00, 
1866.00, 
1867.00, 
1868.00, 
1869.00, 
1870.00, 
1871.00, 
1872.00, 
1873.00, 
1874.00, 
1875.00, 
1876.00, 
1877.00, 
1878.00, 
1879.00, 
1880.00, 
1881.00, 
1882.00, 
1883.00, 
1884.00, 
1885.00, 
1886.00, 
1887.00, 
1888.00, 
1889.00, 
1890.00, 
1891.00, 
1892.00, 
1893.00, 
1894.00, 
1895.00, 
1896.00, 
1897.00, 
1898.00, 
1899.00, 
1900.00, 
1901.00, 
1902.00, 
1903.00, 
1904.00, 
1905.00, 
1906.00, 
1907.00, 
1908.00, 
1909.00, 
1910.00, 
1911.00, 
1912.00, 
1913.00, 
1914.00, 
1915.00, 
1916.00, 
1917.00, 
1918.00, 
1919.00, 
1920.00, 
1921.00, 
1922.00, 
1923.00, 
1924.00, 
1925.00, 
1926.00, 
1927.00, 
1928.00, 
1929.00, 
1930.00, 
1931.00, 
1932.00, 
1933.00, 
1934.00, 
1935.00, 
1936.00, 
1937.00, 
1938.00, 
1939.00, 
1940.00, 
1941.00, 
1942.00, 
1943.00, 
1944.00, 
1945.00, 
1946.00, 
1947.00, 
1948.00, 
1949.00, 
1950.00, 
1951.00, 
1952.00, 
1953.00, 
1954.00, 
1955.00, 
1956.00, 
1957.00, 
1958.00, 
1959.00, 
1960.00, 
1961.00, 
1962.00, 
1963.00, 
1964.00, 
1965.00, 
1966.00, 
1967.00, 
1968.00, 
1969.00, 
1970.00, 
1971.00, 
1972.00, 
1973.00, 
1974.00, 
1975.00, 
1976.00, 
1977.00, 
1978.00, 
1979.00, 
1980.00, 
1981.00, 
1982.00, 
1983.00, 
1984.00, 
1985.00, 
1986.00, 
1987.00, 
1988.00, 
1989.00, 
1990.00, 
1991.00, 
1992.00, 
1993.00, 
1994.00, 
1995.00, 
1996.00, 
1997.00, 
1998.00, 
1999.00, 
2000.00, 
2001.00, 
2002.00, 
2003.00, 
2004.00, 
2005.00, 
2006.00, 
2007.00, 
2008.00, 
2009.00, 
2010.00, 
2011.00, 
2012.00, 
2013.00, 
2014.00, 
2015.00, 
2016.00, 
2017.00, 
2018.00, 
2019.00, 
2020.00, 
2021.00, 
2022.00, 
2023.00, 
2024.00, 
2025.00, 
2026.00, 
2027.00, 
2028.00, 
2029.00, 
2030.00, 
2031.00, 
2032.00, 
2033.00, 
2034.00, 
2035.00, 
2036.00, 
2037.00, 
2038.00, 
2039.00, 
2040.00, 
2041.00, 
2042.00, 
2043.00, 
2044.00, 
2045.00, 
2046.00, 
2047.00, 
2048.00, 
2049.00, 
2050.00, 
2051.00, 
2052.00, 
2053.00, 
2054.00, 
2055.00, 
2056.00, 
2057.00, 
2058.00, 
2059.00, 
2060.00, 
2061.00, 
2062.00, 
2063.00, 
2064.00, 
2065.00, 
2066.00, 
2067.00, 
2068.00, 
2069.00, 
2070.00, 
2071.00, 
2072.00, 
2073.00, 
2074.00, 
2075.00, 
2076.00, 
2077.00, 
2078.00, 
2079.00, 
2080.00, 
2081.00, 
2082.00, 
2083.00, 
2084.00, 
2085.00, 
2086.00, 
2087.00, 
2088.00, 
2089.00, 
2090.00, 
2091.00, 
2092.00, 
2093.00, 
2094.00, 
2095.00, 
2096.00, 
2097.00, 
2098.00, 
2099.00, 
2100.00, 
2101.00, 
2102.00, 
2103.00, 
2104.00, 
2105.00, 
2106.00, 
2107.00, 
2108.00, 
2109.00, 
2110.00, 
2111.00, 
2112.00, 
2113.00, 
2114.00, 
2115.00, 
2116.00, 
2117.00, 
2118.00, 
2119.00, 
2120.00, 
2121.00, 
2122.00, 
2123.00, 
2124.00, 
2125.00, 
2126.00, 
2127.00, 
2128.00, 
2129.00, 
2130.00, 
2131.00, 
2132.00, 
2133.00, 
2134.00, 
2135.00, 
2136.00, 
2137.00, 
2138.00, 
2139.00, 
2140.00, 
2141.00, 
2142.00, 
2143.00, 
2144.00, 
2145.00, 
2146.00, 
2147.00, 
2148.00, 
2149.00, 
2150.00, 
2151.00, 
2152.00, 
2153.00, 
2154.00, 
2155.00, 
2156.00, 
2157.00, 
2158.00, 
2159.00, 
2160.00, 
2161.00, 
2162.00, 
2163.00, 
2164.00, 
2165.00, 
2166.00, 
2167.00, 
2168.00, 
2169.00, 
2170.00, 
2171.00, 
2172.00, 
2173.00, 
2174.00, 
2175.00, 
2176.00, 
2177.00, 
2178.00, 
2179.00, 
2180.00, 
2181.00, 
2182.00, 
2183.00, 
2184.00, 
2185.00, 
2186.00, 
2187.00, 
2188.00, 
2189.00, 
2190.00, 
2191.00, 
2192.00, 
2193.00, 
2194.00, 
2195.00, 
2196.00, 
2197.00, 
2198.00, 
2199.00, 
2200.00, 
2201.00, 
2202.00, 
2203.00, 
2204.00, 
2205.00, 
2206.00, 
2207.00, 
2208.00, 
2209.00, 
2210.00, 
2211.00, 
2212.00, 
2213.00, 
2214.00, 
2215.00, 
2216.00, 
2217.00, 
2218.00, 
2219.00, 
2220.00, 
2221.00, 
2222.00, 
2223.00, 
2224.00, 
2225.00, 
2226.00, 
2227.00, 
2228.00, 
2229.00, 
2230.00, 
2231.00, 
2232.00, 
2233.00, 
2234.00, 
2235.00, 
2236.00, 
2237.00, 
2238.00, 
2239.00, 
2240.00, 
2241.00, 
2242.00, 
2243.00, 
2244.00, 
2245.00, 
2246.00, 
2247.00, 
2248.00, 
2249.00, 
2250.00, 
2251.00, 
2252.00, 
2253.00, 
2254.00, 
2255.00, 
2256.00, 
2257.00, 
2258.00, 
2259.00, 
2260.00, 
2261.00, 
2262.00, 
2263.00, 
2264.00, 
2265.00, 
2266.00, 
2267.00, 
2268.00, 
2269.00, 
2270.00, 
2271.00, 
2272.00, 
2273.00, 
2274.00, 
2275.00, 
2276.00, 
2277.00, 
2278.00, 
2279.00, 
2280.00, 
2281.00, 
2282.00, 
2283.00, 
2284.00, 
2285.00, 
2286.00, 
2287.00, 
2288.00, 
2289.00, 
2290.00, 
2291.00, 
2292.00, 
2293.00, 
2294.00, 
2295.00, 
2296.00, 
2297.00, 
2298.00, 
2299.00, 
2300.00, 
2301.00, 
2302.00, 
2303.00, 
2304.00, 
2305.00, 
2306.00, 
2307.00, 
2308.00, 
2309.00, 
2310.00, 
2311.00, 
2312.00, 
2313.00, 
2314.00, 
2315.00, 
2316.00, 
2317.00, 
2318.00, 
2319.00, 
2320.00, 
2321.00, 
2322.00, 
2323.00, 
2324.00, 
2325.00, 
2326.00, 
2327.00, 
2328.00, 
2329.00, 
2330.00, 
2331.00, 
2332.00, 
2333.00, 
2334.00, 
2335.00, 
2336.00, 
2337.00, 
2338.00, 
2339.00, 
2340.00, 
2341.00, 
2342.00, 
2343.00, 
2344.00, 
2345.00, 
2346.00, 
2347.00, 
2348.00, 
2349.00, 
2350.00, 
2351.00, 
2352.00, 
2353.00, 
2354.00, 
2355.00, 
2356.00, 
2357.00, 
2358.00, 
2359.00, 
2360.00, 
2361.00, 
2362.00, 
2363.00, 
2364.00, 
2365.00, 
2366.00, 
2367.00, 
2368.00, 
2369.00, 
2370.00, 
2371.00, 
2372.00, 
2373.00, 
2374.00, 
2375.00, 
2376.00, 
2377.00, 
2378.00, 
2379.00, 
2380.00, 
2381.00, 
2382.00, 
2383.00, 
2384.00, 
2385.00, 
2386.00, 
2387.00, 
2388.00, 
2389.00, 
2390.00, 
2391.00, 
2392.00, 
2393.00, 
2394.00, 
2395.00, 
2396.00, 
2397.00, 
2398.00, 
2399.00, 
2400.00, 
2401.00, 
2402.00, 
2403.00, 
2404.00, 
2405.00, 
2406.00, 
2407.00, 
2408.00, 
2409.00, 
2410.00, 
2411.00, 
2412.00, 
2413.00, 
2414.00, 
2415.00, 
2416.00, 
2417.00, 
2418.00, 
2419.00, 
2420.00, 
2421.00, 
2422.00, 
2423.00, 
2424.00, 
2425.00, 
2426.00, 
2427.00, 
2428.00, 
2429.00, 
2430.00, 
2431.00, 
2432.00, 
2433.00, 
2434.00, 
2435.00, 
2436.00, 
2437.00, 
2438.00, 
2439.00, 
2440.00, 
2441.00, 
2442.00, 
2443.00, 
2444.00, 
2445.00, 
2446.00, 
2447.00, 
2448.00, 
2449.00, 
2450.00, 
2451.00, 
2452.00, 
2453.00, 
2454.00, 
2455.00, 
2456.00, 
2457.00, 
2458.00, 
2459.00, 
2460.00, 
2461.00, 
2462.00, 
2463.00, 
2464.00, 
2465.00, 
2466.00, 
2467.00, 
2468.00, 
2469.00, 
2470.00, 
2471.00, 
2472.00, 
2473.00, 
2474.00, 
2475.00, 
2476.00, 
2477.00, 
2478.00, 
2479.00, 
2480.00, 
2481.00, 
2482.00, 
2483.00, 
2484.00, 
2485.00, 
2486.00, 
2487.00, 
2488.00, 
2489.00, 
2490.00, 
2491.00, 
2492.00, 
2493.00, 
2494.00, 
2495.00, 
2496.00, 
2497.00, 
2498.00, 
2499.00, 
2500.00, 
2501.00, 
2502.00, 
2503.00, 
2504.00, 
2505.00, 
2506.00, 
2507.00, 
2508.00, 
2509.00, 
2510.00, 
2511.00, 
2512.00, 
2513.00, 
2514.00, 
2515.00, 
2516.00, 
2517.00, 
2518.00, 
2519.00, 
2520.00, 
2521.00, 
2522.00, 
2523.00, 
2524.00, 
2525.00, 
2526.00, 
2527.00, 
2528.00, 
2529.00, 
2530.00, 
2531.00, 
2532.00, 
2533.00, 
2534.00, 
2535.00, 
2536.00, 
2537.00, 
2538.00, 
2539.00, 
2540.00, 
2541.00, 
2542.00, 
2543.00, 
2544.00, 
2545.00, 
2546.00, 
2547.00, 
2548.00, 
2549.00, 
2550.00, 
2551.00, 
2552.00, 
2553.00, 
2554.00, 
2555.00, 
2556.00, 
2557.00, 
2558.00, 
2559.00, 
2560.00, 
2561.00, 
2562.00, 
2563.00, 
2564.00, 
2565.00, 
2566.00, 
2567.00, 
2568.00, 
2569.00, 
2570.00, 
2571.00, 
2572.00, 
2573.00, 
2574.00, 
2575.00, 
2576.00, 
2577.00, 
2578.00, 
2579.00, 
2580.00, 
2581.00, 
2582.00, 
2583.00, 
2584.00, 
2585.00, 
2586.00, 
2587.00, 
2588.00, 
2589.00, 
2590.00, 
2591.00, 
2592.00, 
2593.00, 
2594.00, 
2595.00, 
2596.00, 
2597.00, 
2598.00, 
2599.00, 
2600.00, 
