"2bP2 - RawData"
"Wavelength nm.","T%"
200.00,0.001
201.00,-0.003
202.00,-0.000
203.00,0.003
204.00,0.003
205.00,0.002
206.00,-0.002
207.00,0.003
208.00,0.001
209.00,0.000
210.00,-0.001
211.00,-0.000
212.00,0.001
213.00,0.001
214.00,0.001
215.00,0.000
216.00,-0.000
217.00,0.002
218.00,-0.001
219.00,-0.000
220.00,0.000
221.00,0.001
222.00,0.002
223.00,0.001
224.00,0.001
225.00,0.003
226.00,0.001
227.00,0.001
228.00,-0.000
229.00,0.001
230.00,0.002
231.00,-0.000
232.00,-0.001
233.00,0.000
234.00,0.001
235.00,0.002
236.00,0.001
237.00,0.002
238.00,0.000
239.00,0.002
240.00,0.001
241.00,0.001
242.00,0.003
243.00,0.002
244.00,0.000
245.00,-0.002
246.00,-0.000
247.00,0.001
248.00,0.001
249.00,0.001
250.00,0.000
251.00,-0.000
252.00,-0.001
253.00,0.001
254.00,-0.001
255.00,-0.001
256.00,0.001
257.00,0.001
258.00,-0.002
259.00,-0.001
260.00,0.001
261.00,0.002
262.00,0.001
263.00,-0.001
264.00,-0.001
265.00,0.001
266.00,-0.000
267.00,-0.002
268.00,0.000
269.00,0.001
270.00,0.001
271.00,0.002
272.00,0.000
273.00,0.000
274.00,0.000
275.00,0.000
276.00,-0.001
277.00,0.001
278.00,0.000
279.00,-0.000
280.00,0.002
281.00,0.001
282.00,-0.001
283.00,0.001
284.00,0.001
285.00,0.001
286.00,-0.001
287.00,-0.000
288.00,0.000
289.00,0.001
290.00,-0.001
291.00,0.001
292.00,-0.001
293.00,-0.000
294.00,0.000
295.00,0.000
296.00,-0.001
297.00,0.002
298.00,0.001
299.00,0.002
300.00,0.004
301.00,0.002
302.00,0.006
303.00,0.009
304.00,0.015
305.00,0.018
306.00,0.032
307.00,0.049
308.00,0.071
309.00,0.110
310.00,0.149
311.00,0.204
312.00,0.276
313.00,0.366
314.00,0.483
315.00,0.618
316.00,0.775
317.00,0.989
318.00,1.208
319.00,1.484
320.00,1.782
321.00,2.129
322.00,2.525
323.00,2.929
324.00,3.383
325.00,3.841
326.00,4.327
327.00,4.809
328.00,5.398
329.00,5.946
330.00,6.509
331.00,7.078
332.00,7.690
333.00,8.294
334.00,8.907
335.00,9.509
336.00,10.099
337.00,10.697
338.00,11.280
339.00,11.800
340.00,12.368
341.00,12.907
342.00,13.405
343.00,13.866
344.00,14.306
345.00,14.828
346.00,15.250
347.00,15.590
348.00,15.997
349.00,16.309
350.00,16.622
351.00,16.900
352.00,17.187
353.00,17.482
354.00,17.720
355.00,17.967
356.00,18.165
357.00,18.327
358.00,18.520
359.00,18.738
360.00,18.885
361.00,19.022
362.00,19.130
363.00,19.294
364.00,19.306
365.00,19.380
366.00,19.474
367.00,19.540
368.00,19.578
369.00,19.573
370.00,19.645
371.00,19.639
372.00,19.621
373.00,19.613
374.00,19.616
375.00,19.587
376.00,19.514
377.00,19.475
378.00,19.400
379.00,19.353
380.00,19.353
381.00,19.312
382.00,19.268
383.00,19.292
384.00,19.291
385.00,19.321
386.00,19.282
387.00,19.317
388.00,19.367
389.00,19.361
390.00,19.373
391.00,19.380
392.00,19.329
393.00,19.349
394.00,19.338
395.00,19.409
396.00,19.364
397.00,19.355
398.00,19.355
399.00,19.344
400.00,19.337
401.00,19.346
402.00,19.304
403.00,19.313
404.00,19.321
405.00,19.298
406.00,19.265
407.00,19.233
408.00,19.220
409.00,19.167
410.00,19.152
411.00,19.142
412.00,19.088
413.00,19.127
414.00,19.123
415.00,19.105
416.00,19.187
417.00,19.130
418.00,19.172
419.00,19.210
420.00,19.261
421.00,19.287
422.00,19.301
423.00,19.356
424.00,19.385
425.00,19.397
426.00,19.429
427.00,19.500
428.00,19.509
429.00,19.547
430.00,19.592
431.00,19.651
432.00,19.699
433.00,19.751
434.00,19.829
435.00,19.865
436.00,19.948
437.00,20.013
438.00,20.077
439.00,20.140
440.00,20.238
441.00,20.286
442.00,20.374
443.00,20.447
444.00,20.588
445.00,20.626
446.00,20.738
447.00,20.808
448.00,20.901
449.00,21.022
450.00,21.097
451.00,21.204
452.00,21.315
453.00,21.435
454.00,21.534
455.00,21.617
456.00,21.761
457.00,21.882
458.00,21.973
459.00,22.130
460.00,22.238
461.00,22.348
462.00,22.499
463.00,22.603
464.00,22.774
465.00,22.886
466.00,23.038
467.00,23.179
468.00,23.258
469.00,23.380
470.00,23.486
471.00,23.585
472.00,23.698
473.00,23.797
474.00,23.924
475.00,24.048
476.00,24.146
477.00,24.271
478.00,24.418
479.00,24.598
480.00,24.736
481.00,24.839
482.00,25.028
483.00,25.116
484.00,25.318
485.00,25.501
486.00,25.634
487.00,25.804
488.00,25.930
489.00,26.081
490.00,26.287
491.00,26.397
492.00,26.559
493.00,26.765
494.00,26.899
495.00,26.982
496.00,27.267
497.00,27.196
498.00,27.321
499.00,27.489
500.00,27.653
501.00,27.770
502.00,27.944
503.00,28.051
504.00,28.115
505.00,28.257
506.00,28.396
507.00,28.471
508.00,28.664
509.00,28.760
510.00,28.934
511.00,29.037
512.00,29.204
513.00,29.356
514.00,29.430
515.00,29.642
516.00,29.742
517.00,29.772
518.00,29.949
519.00,30.006
520.00,30.050
521.00,30.199
522.00,30.292
523.00,30.262
524.00,30.477
525.00,30.630
526.00,30.719
527.00,30.780
528.00,30.823
529.00,31.019
530.00,31.197
531.00,31.301
532.00,31.404
533.00,31.515
534.00,31.573
535.00,31.658
536.00,31.748
537.00,31.853
538.00,31.920
539.00,31.941
540.00,32.044
541.00,32.096
542.00,32.163
543.00,32.298
544.00,32.330
545.00,32.409
546.00,32.490
547.00,32.591
548.00,32.671
549.00,32.729
550.00,32.855
551.00,32.927
552.00,33.019
553.00,33.023
554.00,33.118
555.00,33.180
556.00,33.239
557.00,33.312
558.00,33.319
559.00,33.439
560.00,33.502
561.00,33.580
562.00,33.652
563.00,33.692
564.00,33.745
565.00,33.765
566.00,33.813
567.00,33.834
568.00,33.896
569.00,33.938
570.00,34.021
571.00,34.073
572.00,34.064
573.00,34.062
574.00,34.154
575.00,34.147
576.00,34.211
577.00,34.310
578.00,34.323
579.00,34.394
580.00,34.430
581.00,34.584
582.00,34.633
583.00,34.681
584.00,34.734
585.00,34.795
586.00,34.902
587.00,34.969
588.00,34.949
589.00,34.949
590.00,35.110
591.00,35.136
592.00,35.145
593.00,35.162
594.00,35.230
595.00,35.318
596.00,35.398
597.00,35.405
598.00,35.542
599.00,35.524
600.00,35.564
601.00,35.609
602.00,35.559
603.00,35.665
604.00,35.699
605.00,35.803
606.00,35.837
607.00,35.851
608.00,36.044
609.00,36.126
610.00,35.991
611.00,36.042
612.00,36.123
613.00,36.228
614.00,36.204
615.00,36.332
616.00,36.408
617.00,36.411
618.00,36.403
619.00,36.485
620.00,36.569
621.00,36.669
622.00,36.689
623.00,36.723
624.00,36.819
625.00,36.927
626.00,36.974
627.00,37.029
628.00,37.085
629.00,37.162
630.00,37.237
631.00,37.270
632.00,37.459
633.00,37.508
634.00,37.556
635.00,37.661
636.00,37.807
637.00,37.782
638.00,37.885
639.00,38.009
640.00,38.064
641.00,38.197
642.00,38.288
643.00,38.281
644.00,38.417
645.00,38.509
646.00,38.633
647.00,38.654
648.00,38.753
649.00,38.800
650.00,38.844
651.00,39.015
652.00,39.131
653.00,39.148
654.00,39.256
655.00,39.484
656.00,39.701
657.00,39.700
658.00,39.781
659.00,39.935
660.00,39.976
661.00,39.938
662.00,40.012
663.00,40.211
664.00,40.403
665.00,40.580
666.00,40.611
667.00,40.689
668.00,40.745
669.00,40.889
670.00,41.151
671.00,41.014
672.00,41.142
673.00,41.344
674.00,41.386
675.00,41.420
676.00,41.730
677.00,41.806
678.00,41.673
679.00,41.878
680.00,41.912
681.00,42.211
682.00,42.233
683.00,42.061
684.00,42.274
685.00,42.693
686.00,42.802
687.00,42.683
688.00,42.768
689.00,42.821
690.00,43.179
691.00,43.386
692.00,43.152
693.00,43.249
694.00,43.497
695.00,43.724
696.00,43.772
697.00,43.710
698.00,43.866
699.00,44.035
700.00,44.111
701.00,44.178
702.00,44.288
703.00,44.376
704.00,44.551
705.00,44.509
706.00,44.593
707.00,44.659
708.00,44.645
709.00,45.130
710.00,45.501
711.00,45.044
712.00,45.191
713.00,45.410
714.00,45.356
715.00,45.471
716.00,45.508
717.00,45.684
718.00,45.856
719.00,45.833
720.00,45.866
721.00,50.332
722.00,50.357
723.00,50.411
724.00,50.501
725.00,50.527
726.00,50.563
727.00,50.579
728.00,50.582
729.00,50.711
730.00,50.699
731.00,50.755
732.00,50.883
733.00,50.902
734.00,50.916
735.00,50.978
736.00,51.039
737.00,51.097
738.00,51.129
739.00,51.206
740.00,51.291
741.00,51.321
742.00,51.362
743.00,51.378
744.00,51.381
745.00,51.396
746.00,51.439
747.00,51.416
748.00,51.412
749.00,51.420
750.00,51.484
751.00,51.476
752.00,51.564
753.00,51.609
754.00,51.562
755.00,51.559
756.00,51.602
757.00,51.649
758.00,51.701
759.00,51.722
760.00,51.734
761.00,51.760
762.00,51.789
763.00,51.896
764.00,51.802
765.00,51.858
766.00,51.926
767.00,51.934
768.00,51.980
769.00,51.945
770.00,52.070
771.00,52.081
772.00,52.129
773.00,52.033
774.00,52.050
775.00,52.095
776.00,52.160
777.00,52.126
778.00,52.105
779.00,52.208
780.00,52.172
781.00,52.163
782.00,52.135
783.00,52.231
784.00,52.234
785.00,52.148
786.00,52.224
787.00,52.263
788.00,52.191
789.00,52.272
790.00,52.258
791.00,52.284
792.00,52.222
793.00,52.156
794.00,52.230
795.00,52.217
796.00,52.194
797.00,52.184
798.00,52.282
799.00,52.192
800.00,52.201
801.00,52.224
802.00,52.205
803.00,52.335
804.00,52.188
805.00,52.188
806.00,52.110
807.00,52.144
808.00,52.209
809.00,52.124
810.00,52.151
811.00,52.155
812.00,52.162
813.00,52.180
814.00,52.167
815.00,52.126
816.00,52.225
817.00,52.146
818.00,52.111
819.00,52.108
820.00,52.126
821.00,52.099
822.00,52.073
823.00,52.122
824.00,52.056
825.00,52.036
826.00,52.061
827.00,52.150
828.00,52.084
829.00,51.978
830.00,52.047
831.00,54.413
832.00,54.380
833.00,54.379
834.00,54.370
835.00,54.372
836.00,54.353
837.00,54.335
838.00,54.333
839.00,54.349
840.00,54.273
841.00,54.313
842.00,54.267
843.00,54.264
844.00,54.296
845.00,54.251
846.00,54.257
847.00,54.211
848.00,54.161
849.00,54.132
850.00,54.097
851.00,54.124
852.00,54.130
853.00,54.009
854.00,54.036
855.00,53.966
856.00,54.056
857.00,53.989
858.00,53.932
859.00,53.931
860.00,53.935
861.00,53.937
862.00,53.920
863.00,53.878
864.00,53.841
865.00,53.860
866.00,53.842
867.00,53.857
868.00,53.836
869.00,53.845
870.00,53.832
871.00,53.852
872.00,53.832
873.00,53.828
874.00,53.804
875.00,53.773
876.00,53.758
877.00,53.735
878.00,53.741
879.00,53.730
880.00,53.740
881.00,53.702
882.00,53.714
883.00,53.682
884.00,53.699
885.00,53.628
886.00,53.681
887.00,53.650
888.00,53.616
889.00,53.588
890.00,53.549
891.00,53.598
892.00,53.560
893.00,53.508
894.00,53.511
895.00,53.487
896.00,53.474
897.00,53.472
898.00,53.411
899.00,53.425
900.00,53.431
901.00,53.393
902.00,53.415
903.00,53.372
904.00,53.386
905.00,53.339
906.00,53.348
907.00,53.318
908.00,53.297
909.00,53.279
910.00,53.265
911.00,53.241
912.00,53.256
913.00,53.209
914.00,53.174
915.00,53.149
916.00,53.175
917.00,53.113
918.00,53.126
919.00,53.100
920.00,53.092
921.00,53.085
922.00,53.063
923.00,53.026
924.00,53.007
925.00,53.024
926.00,53.002
927.00,52.954
928.00,52.923
929.00,52.953
930.00,52.906
931.00,52.894
932.00,52.848
933.00,52.884
934.00,52.853
935.00,52.834
936.00,52.793
937.00,52.788
938.00,52.788
939.00,52.753
940.00,52.724
941.00,52.723
942.00,52.701
943.00,52.715
944.00,52.665
945.00,52.686
946.00,52.666
947.00,52.623
948.00,52.596
949.00,52.606
950.00,52.581
951.00,52.553
952.00,52.533
953.00,52.496
954.00,52.498
955.00,52.431
956.00,52.425
957.00,52.463
958.00,52.392
959.00,52.349
960.00,52.345
961.00,52.331
962.00,52.328
963.00,52.295
964.00,52.300
965.00,52.291
966.00,52.286
967.00,52.274
968.00,52.270
969.00,52.289
970.00,52.258
971.00,52.271
972.00,52.221
973.00,52.273
974.00,52.278
975.00,52.257
976.00,52.269
977.00,52.262
978.00,52.297
979.00,52.255
980.00,52.270
981.00,52.274
982.00,52.241
983.00,52.239
984.00,52.221
985.00,52.239
986.00,52.195
987.00,52.225
988.00,52.183
989.00,52.184
990.00,52.183
991.00,52.166
992.00,52.181
993.00,52.145
994.00,52.132
995.00,52.118
996.00,52.115
997.00,52.099
998.00,52.078
999.00,52.094
1000.00,52.037
1001.00,52.045
1002.00,52.028
1003.00,52.032
1004.00,52.006
1005.00,51.966
1006.00,52.015
1007.00,51.986
1008.00,51.976
1009.00,51.939
1010.00,51.950
1011.00,51.949
1012.00,51.915
1013.00,51.900
1014.00,51.872
1015.00,51.882
1016.00,51.831
1017.00,51.834
1018.00,51.831
1019.00,51.799
1020.00,51.793
1021.00,51.778
1022.00,51.798
1023.00,51.759
1024.00,51.750
1025.00,51.729
1026.00,51.712
1027.00,51.688
1028.00,51.681
1029.00,51.664
1030.00,51.646
1031.00,51.646
1032.00,51.597
1033.00,51.611
1034.00,51.584
1035.00,51.553
1036.00,51.538
1037.00,51.514
1038.00,51.499
1039.00,51.461
1040.00,51.457
1041.00,51.419
1042.00,51.405
1043.00,51.397
1044.00,51.406
1045.00,51.411
1046.00,51.401
1047.00,51.427
1048.00,51.440
1049.00,51.445
1050.00,51.454
1051.00,51.494
1052.00,51.483
1053.00,51.477
1054.00,51.470
1055.00,51.501
1056.00,51.497
1057.00,51.487
1058.00,51.477
1059.00,51.476
1060.00,51.468
1061.00,51.469
1062.00,51.470
1063.00,51.494
1064.00,51.512
1065.00,51.453
1066.00,51.456
1067.00,51.445
1068.00,51.457
1069.00,51.416
1070.00,51.392
1071.00,51.381
1072.00,51.409
1073.00,51.388
1074.00,51.366
1075.00,51.355
1076.00,51.384
1077.00,51.334
1078.00,51.320
1079.00,51.330
1080.00,51.341
1081.00,51.330
1082.00,51.308
1083.00,51.309
1084.00,51.293
1085.00,51.294
1086.00,51.278
1087.00,51.276
1088.00,51.251
1089.00,51.243
1090.00,51.235
1091.00,51.236
1092.00,51.230
1093.00,51.208
1094.00,51.189
1095.00,51.193
1096.00,51.179
1097.00,51.187
1098.00,51.172
1099.00,51.172
1100.00,51.163
1101.00,51.148
1102.00,51.141
1103.00,51.137
1104.00,51.122
1105.00,51.112
1106.00,51.113
1107.00,51.106
1108.00,51.094
1109.00,51.100
1110.00,51.065
1111.00,51.055
1112.00,51.044
1113.00,51.042
1114.00,51.029
1115.00,51.015
1116.00,51.006
1117.00,50.986
1118.00,50.970
1119.00,50.980
1120.00,50.977
1121.00,50.968
1122.00,50.941
1123.00,50.949
1124.00,50.959
1125.00,50.942
1126.00,50.923
1127.00,50.940
1128.00,50.917
1129.00,50.898
1130.00,50.896
1131.00,50.901
1132.00,50.896
1133.00,50.896
1134.00,50.877
1135.00,50.875
1136.00,50.872
1137.00,50.878
1138.00,50.884
1139.00,50.895
1140.00,50.881
1141.00,50.875
1142.00,50.863
1143.00,50.861
1144.00,50.828
1145.00,50.819
1146.00,50.805
1147.00,50.802
1148.00,50.797
1149.00,50.826
1150.00,50.811
1151.00,50.809
1152.00,50.817
1153.00,50.801
1154.00,50.793
1155.00,50.820
1156.00,50.783
1157.00,50.801
1158.00,50.787
1159.00,50.774
1160.00,50.778
1161.00,50.788
1162.00,50.775
1163.00,50.781
1164.00,50.775
1165.00,50.765
1166.00,50.766
1167.00,50.767
1168.00,50.779
1169.00,50.757
1170.00,50.758
1171.00,50.724
1172.00,50.732
1173.00,50.734
1174.00,50.747
1175.00,50.746
1176.00,50.742
1177.00,50.729
1178.00,50.729
1179.00,50.747
1180.00,50.729
1181.00,50.741
1182.00,50.731
1183.00,50.718
1184.00,50.707
1185.00,50.746
1186.00,50.744
1187.00,50.716
1188.00,50.716
1189.00,50.699
1190.00,50.688
1191.00,50.697
1192.00,50.708
1193.00,50.706
1194.00,50.712
1195.00,50.693
1196.00,50.736
1197.00,50.730
1198.00,50.731
1199.00,50.725
1200.00,50.722
1201.00,50.738
1202.00,50.716
1203.00,50.713
1204.00,50.702
1205.00,50.728
1206.00,50.714
1207.00,50.722
1208.00,50.709
1209.00,50.712
1210.00,50.717
1211.00,50.697
1212.00,50.719
1213.00,50.688
1214.00,50.701
1215.00,50.670
1216.00,50.682
1217.00,50.697
1218.00,50.673
1219.00,50.694
1220.00,50.673
1221.00,50.693
1222.00,50.679
1223.00,50.700
1224.00,50.706
1225.00,50.683
1226.00,50.695
1227.00,50.689
1228.00,50.696
1229.00,50.681
1230.00,50.698
1231.00,50.706
1232.00,50.725
1233.00,50.711
1234.00,50.707
1235.00,50.714
1236.00,50.702
1237.00,50.706
1238.00,50.712
1239.00,50.719
1240.00,50.707
1241.00,50.703
1242.00,50.705
1243.00,50.714
1244.00,50.693
1245.00,50.729
1246.00,50.735
1247.00,50.735
1248.00,50.722
1249.00,50.740
1250.00,50.754
1251.00,50.732
1252.00,50.747
1253.00,50.721
1254.00,50.755
1255.00,50.745
1256.00,50.728
1257.00,50.729
1258.00,50.747
1259.00,50.760
1260.00,50.777
1261.00,50.771
1262.00,50.792
1263.00,50.762
1264.00,50.782
1265.00,50.784
1266.00,50.788
1267.00,50.792
1268.00,50.800
1269.00,50.806
1270.00,50.827
1271.00,50.822
1272.00,50.811
1273.00,50.838
1274.00,50.829
1275.00,50.855
1276.00,50.849
1277.00,50.841
1278.00,50.854
1279.00,50.867
1280.00,50.842
1281.00,50.859
1282.00,50.867
1283.00,50.855
1284.00,50.855
1285.00,50.859
1286.00,50.874
1287.00,50.867
1288.00,50.849
1289.00,50.883
1290.00,50.923
1291.00,50.875
1292.00,50.898
1293.00,50.883
1294.00,50.908
1295.00,50.909
1296.00,50.910
1297.00,50.924
1298.00,50.950
1299.00,50.927
1300.00,50.941
1301.00,50.933
1302.00,50.942
1303.00,50.951
1304.00,50.927
1305.00,50.947
1306.00,50.957
1307.00,50.954
1308.00,50.955
1309.00,50.974
1310.00,50.967
1311.00,50.946
1312.00,50.956
1313.00,50.964
1314.00,50.986
1315.00,51.004
1316.00,51.009
1317.00,51.042
1318.00,51.022
1319.00,51.024
1320.00,51.033
1321.00,51.202
1322.00,51.175
1323.00,51.168
1324.00,51.160
1325.00,51.151
1326.00,51.191
1327.00,51.172
1328.00,51.158
1329.00,51.166
1330.00,51.158
1331.00,51.166
1332.00,51.168
1333.00,51.170
1334.00,51.197
1335.00,51.209
1336.00,51.230
1337.00,51.273
1338.00,51.314
1339.00,51.352
1340.00,51.418
1341.00,51.469
1342.00,51.545
1343.00,51.602
1344.00,51.647
1345.00,51.714
1346.00,51.743
1347.00,51.749
1348.00,51.783
1349.00,51.800
1350.00,51.802
1351.00,51.841
1352.00,51.879
1353.00,51.550
1354.00,51.848
1355.00,51.799
1356.00,51.877
1357.00,51.868
1358.00,51.875
1359.00,51.898
1360.00,51.932
1361.00,51.955
1362.00,51.796
1363.00,51.917
1364.00,51.959
1365.00,51.867
1366.00,51.973
1367.00,51.935
1368.00,51.805
1369.00,51.925
1370.00,51.875
1371.00,51.759
1372.00,51.842
1373.00,51.880
1374.00,51.878
1375.00,51.865
1376.00,51.846
1377.00,51.839
1378.00,51.915
1379.00,51.884
1380.00,51.842
1381.00,51.872
1382.00,51.833
1383.00,51.856
1384.00,51.806
1385.00,51.817
1386.00,51.879
1387.00,51.811
1388.00,51.789
1389.00,51.790
1390.00,51.841
1391.00,51.796
1392.00,51.794
1393.00,51.883
1394.00,51.849
1395.00,51.711
1396.00,51.775
1397.00,51.840
1398.00,51.931
1399.00,51.843
1400.00,51.726
1401.00,51.773
1402.00,51.902
1403.00,51.851
1404.00,51.815
1405.00,51.870
1406.00,51.862
1407.00,51.872
1408.00,51.839
1409.00,51.837
1410.00,51.875
1411.00,51.909
1412.00,52.053
1413.00,52.096
1414.00,51.852
1415.00,51.922
1416.00,51.932
1417.00,51.979
1418.00,51.919
1419.00,51.913
1420.00,51.965
1421.00,52.001
1422.00,51.979
1423.00,52.000
1424.00,51.996
1425.00,52.040
1426.00,52.024
1427.00,52.066
1428.00,52.060
1429.00,52.108
1430.00,52.078
1431.00,52.096
1432.00,52.119
1433.00,52.134
1434.00,52.128
1435.00,52.178
1436.00,52.195
1437.00,52.166
1438.00,52.192
1439.00,52.234
1440.00,52.234
1441.00,52.229
1442.00,52.227
1443.00,52.262
1444.00,52.316
1445.00,52.280
1446.00,52.295
1447.00,52.332
1448.00,52.376
1449.00,52.361
1450.00,52.376
1451.00,52.376
1452.00,52.420
1453.00,52.429
1454.00,52.440
1455.00,52.452
1456.00,52.458
1457.00,52.460
1458.00,52.504
1459.00,52.504
1460.00,52.525
1461.00,52.516
1462.00,52.549
1463.00,52.565
1464.00,52.568
1465.00,52.566
1466.00,52.575
1467.00,52.602
1468.00,52.662
1469.00,52.641
1470.00,52.638
1471.00,52.656
1472.00,52.667
1473.00,52.664
1474.00,52.702
1475.00,52.728
1476.00,52.723
1477.00,52.720
1478.00,52.742
1479.00,52.774
1480.00,52.776
1481.00,52.771
1482.00,52.807
1483.00,52.819
1484.00,52.819
1485.00,52.819
1486.00,52.830
1487.00,52.843
1488.00,52.859
1489.00,52.866
1490.00,52.897
1491.00,52.885
1492.00,52.900
1493.00,52.899
1494.00,52.947
1495.00,52.907
1496.00,52.958
1497.00,52.931
1498.00,52.928
1499.00,52.954
1500.00,52.976
1501.00, 
1502.00, 
1503.00, 
1504.00, 
1505.00, 
1506.00, 
1507.00, 
1508.00, 
1509.00, 
1510.00, 
1511.00, 
1512.00, 
1513.00, 
1514.00, 
1515.00, 
1516.00, 
1517.00, 
1518.00, 
1519.00, 
1520.00, 
1521.00, 
1522.00, 
1523.00, 
1524.00, 
1525.00, 
1526.00, 
1527.00, 
1528.00, 
1529.00, 
1530.00, 
1531.00, 
1532.00, 
1533.00, 
1534.00, 
1535.00, 
1536.00, 
1537.00, 
1538.00, 
1539.00, 
1540.00, 
1541.00, 
1542.00, 
1543.00, 
1544.00, 
1545.00, 
1546.00, 
1547.00, 
1548.00, 
1549.00, 
1550.00, 
1551.00, 
1552.00, 
1553.00, 
1554.00, 
1555.00, 
1556.00, 
1557.00, 
1558.00, 
1559.00, 
1560.00, 
1561.00, 
1562.00, 
1563.00, 
1564.00, 
1565.00, 
1566.00, 
1567.00, 
1568.00, 
1569.00, 
1570.00, 
1571.00, 
1572.00, 
1573.00, 
1574.00, 
1575.00, 
1576.00, 
1577.00, 
1578.00, 
1579.00, 
1580.00, 
1581.00, 
1582.00, 
1583.00, 
1584.00, 
1585.00, 
1586.00, 
1587.00, 
1588.00, 
1589.00, 
1590.00, 
1591.00, 
1592.00, 
1593.00, 
1594.00, 
1595.00, 
1596.00, 
1597.00, 
1598.00, 
1599.00, 
1600.00, 
1601.00, 
1602.00, 
1603.00, 
1604.00, 
1605.00, 
1606.00, 
1607.00, 
1608.00, 
1609.00, 
1610.00, 
1611.00, 
1612.00, 
1613.00, 
1614.00, 
1615.00, 
1616.00, 
1617.00, 
1618.00, 
1619.00, 
1620.00, 
1621.00, 
1622.00, 
1623.00, 
1624.00, 
1625.00, 
1626.00, 
1627.00, 
1628.00, 
1629.00, 
1630.00, 
1631.00, 
1632.00, 
1633.00, 
1634.00, 
1635.00, 
1636.00, 
1637.00, 
1638.00, 
1639.00, 
1640.00, 
1641.00, 
1642.00, 
1643.00, 
1644.00, 
1645.00, 
1646.00, 
1647.00, 
1648.00, 
1649.00, 
1650.00, 
1651.00, 
1652.00, 
1653.00, 
1654.00, 
1655.00, 
1656.00, 
1657.00, 
1658.00, 
1659.00, 
1660.00, 
1661.00, 
1662.00, 
1663.00, 
1664.00, 
1665.00, 
1666.00, 
1667.00, 
1668.00, 
1669.00, 
1670.00, 
1671.00, 
1672.00, 
1673.00, 
1674.00, 
1675.00, 
1676.00, 
1677.00, 
1678.00, 
1679.00, 
1680.00, 
1681.00, 
1682.00, 
1683.00, 
1684.00, 
1685.00, 
1686.00, 
1687.00, 
1688.00, 
1689.00, 
1690.00, 
1691.00, 
1692.00, 
1693.00, 
1694.00, 
1695.00, 
1696.00, 
1697.00, 
1698.00, 
1699.00, 
1700.00, 
1701.00, 
1702.00, 
1703.00, 
1704.00, 
1705.00, 
1706.00, 
1707.00, 
1708.00, 
1709.00, 
1710.00, 
1711.00, 
1712.00, 
1713.00, 
1714.00, 
1715.00, 
1716.00, 
1717.00, 
1718.00, 
1719.00, 
1720.00, 
1721.00, 
1722.00, 
1723.00, 
1724.00, 
1725.00, 
1726.00, 
1727.00, 
1728.00, 
1729.00, 
1730.00, 
1731.00, 
1732.00, 
1733.00, 
1734.00, 
1735.00, 
1736.00, 
1737.00, 
1738.00, 
1739.00, 
1740.00, 
1741.00, 
1742.00, 
1743.00, 
1744.00, 
1745.00, 
1746.00, 
1747.00, 
1748.00, 
1749.00, 
1750.00, 
1751.00, 
1752.00, 
1753.00, 
1754.00, 
1755.00, 
1756.00, 
1757.00, 
1758.00, 
1759.00, 
1760.00, 
1761.00, 
1762.00, 
1763.00, 
1764.00, 
1765.00, 
1766.00, 
1767.00, 
1768.00, 
1769.00, 
1770.00, 
1771.00, 
1772.00, 
1773.00, 
1774.00, 
1775.00, 
1776.00, 
1777.00, 
1778.00, 
1779.00, 
1780.00, 
1781.00, 
1782.00, 
1783.00, 
1784.00, 
1785.00, 
1786.00, 
1787.00, 
1788.00, 
1789.00, 
1790.00, 
1791.00, 
1792.00, 
1793.00, 
1794.00, 
1795.00, 
1796.00, 
1797.00, 
1798.00, 
1799.00, 
1800.00, 
1801.00, 
1802.00, 
1803.00, 
1804.00, 
1805.00, 
1806.00, 
1807.00, 
1808.00, 
1809.00, 
1810.00, 
1811.00, 
1812.00, 
1813.00, 
1814.00, 
1815.00, 
1816.00, 
1817.00, 
1818.00, 
1819.00, 
1820.00, 
1821.00, 
1822.00, 
1823.00, 
1824.00, 
1825.00, 
1826.00, 
1827.00, 
1828.00, 
1829.00, 
1830.00, 
1831.00, 
1832.00, 
1833.00, 
1834.00, 
1835.00, 
1836.00, 
1837.00, 
1838.00, 
1839.00, 
1840.00, 
1841.00, 
1842.00, 
1843.00, 
1844.00, 
1845.00, 
1846.00, 
1847.00, 
1848.00, 
1849.00, 
1850.00, 
1851.00, 
1852.00, 
1853.00, 
1854.00, 
1855.00, 
1856.00, 
1857.00, 
1858.00, 
1859.00, 
1860.00, 
1861.00, 
1862.00, 
1863.00, 
1864.00, 
1865.00, 
1866.00, 
1867.00, 
1868.00, 
1869.00, 
1870.00, 
1871.00, 
1872.00, 
1873.00, 
1874.00, 
1875.00, 
1876.00, 
1877.00, 
1878.00, 
1879.00, 
1880.00, 
1881.00, 
1882.00, 
1883.00, 
1884.00, 
1885.00, 
1886.00, 
1887.00, 
1888.00, 
1889.00, 
1890.00, 
1891.00, 
1892.00, 
1893.00, 
1894.00, 
1895.00, 
1896.00, 
1897.00, 
1898.00, 
1899.00, 
1900.00, 
1901.00, 
1902.00, 
1903.00, 
1904.00, 
1905.00, 
1906.00, 
1907.00, 
1908.00, 
1909.00, 
1910.00, 
1911.00, 
1912.00, 
1913.00, 
1914.00, 
1915.00, 
1916.00, 
1917.00, 
1918.00, 
1919.00, 
1920.00, 
1921.00, 
1922.00, 
1923.00, 
1924.00, 
1925.00, 
1926.00, 
1927.00, 
1928.00, 
1929.00, 
1930.00, 
1931.00, 
1932.00, 
1933.00, 
1934.00, 
1935.00, 
1936.00, 
1937.00, 
1938.00, 
1939.00, 
1940.00, 
1941.00, 
1942.00, 
1943.00, 
1944.00, 
1945.00, 
1946.00, 
1947.00, 
1948.00, 
1949.00, 
1950.00, 
1951.00, 
1952.00, 
1953.00, 
1954.00, 
1955.00, 
1956.00, 
1957.00, 
1958.00, 
1959.00, 
1960.00, 
1961.00, 
1962.00, 
1963.00, 
1964.00, 
1965.00, 
1966.00, 
1967.00, 
1968.00, 
1969.00, 
1970.00, 
1971.00, 
1972.00, 
1973.00, 
1974.00, 
1975.00, 
1976.00, 
1977.00, 
1978.00, 
1979.00, 
1980.00, 
1981.00, 
1982.00, 
1983.00, 
1984.00, 
1985.00, 
1986.00, 
1987.00, 
1988.00, 
1989.00, 
1990.00, 
1991.00, 
1992.00, 
1993.00, 
1994.00, 
1995.00, 
1996.00, 
1997.00, 
1998.00, 
1999.00, 
2000.00, 
2001.00, 
2002.00, 
2003.00, 
2004.00, 
2005.00, 
2006.00, 
2007.00, 
2008.00, 
2009.00, 
2010.00, 
2011.00, 
2012.00, 
2013.00, 
2014.00, 
2015.00, 
2016.00, 
2017.00, 
2018.00, 
2019.00, 
2020.00, 
2021.00, 
2022.00, 
2023.00, 
2024.00, 
2025.00, 
2026.00, 
2027.00, 
2028.00, 
2029.00, 
2030.00, 
2031.00, 
2032.00, 
2033.00, 
2034.00, 
2035.00, 
2036.00, 
2037.00, 
2038.00, 
2039.00, 
2040.00, 
2041.00, 
2042.00, 
2043.00, 
2044.00, 
2045.00, 
2046.00, 
2047.00, 
2048.00, 
2049.00, 
2050.00, 
2051.00, 
2052.00, 
2053.00, 
2054.00, 
2055.00, 
2056.00, 
2057.00, 
2058.00, 
2059.00, 
2060.00, 
2061.00, 
2062.00, 
2063.00, 
2064.00, 
2065.00, 
2066.00, 
2067.00, 
2068.00, 
2069.00, 
2070.00, 
2071.00, 
2072.00, 
2073.00, 
2074.00, 
2075.00, 
2076.00, 
2077.00, 
2078.00, 
2079.00, 
2080.00, 
2081.00, 
2082.00, 
2083.00, 
2084.00, 
2085.00, 
2086.00, 
2087.00, 
2088.00, 
2089.00, 
2090.00, 
2091.00, 
2092.00, 
2093.00, 
2094.00, 
2095.00, 
2096.00, 
2097.00, 
2098.00, 
2099.00, 
2100.00, 
2101.00, 
2102.00, 
2103.00, 
2104.00, 
2105.00, 
2106.00, 
2107.00, 
2108.00, 
2109.00, 
2110.00, 
2111.00, 
2112.00, 
2113.00, 
2114.00, 
2115.00, 
2116.00, 
2117.00, 
2118.00, 
2119.00, 
2120.00, 
2121.00, 
2122.00, 
2123.00, 
2124.00, 
2125.00, 
2126.00, 
2127.00, 
2128.00, 
2129.00, 
2130.00, 
2131.00, 
2132.00, 
2133.00, 
2134.00, 
2135.00, 
2136.00, 
2137.00, 
2138.00, 
2139.00, 
2140.00, 
2141.00, 
2142.00, 
2143.00, 
2144.00, 
2145.00, 
2146.00, 
2147.00, 
2148.00, 
2149.00, 
2150.00, 
2151.00, 
2152.00, 
2153.00, 
2154.00, 
2155.00, 
2156.00, 
2157.00, 
2158.00, 
2159.00, 
2160.00, 
2161.00, 
2162.00, 
2163.00, 
2164.00, 
2165.00, 
2166.00, 
2167.00, 
2168.00, 
2169.00, 
2170.00, 
2171.00, 
2172.00, 
2173.00, 
2174.00, 
2175.00, 
2176.00, 
2177.00, 
2178.00, 
2179.00, 
2180.00, 
2181.00, 
2182.00, 
2183.00, 
2184.00, 
2185.00, 
2186.00, 
2187.00, 
2188.00, 
2189.00, 
2190.00, 
2191.00, 
2192.00, 
2193.00, 
2194.00, 
2195.00, 
2196.00, 
2197.00, 
2198.00, 
2199.00, 
2200.00, 
2201.00, 
2202.00, 
2203.00, 
2204.00, 
2205.00, 
2206.00, 
2207.00, 
2208.00, 
2209.00, 
2210.00, 
2211.00, 
2212.00, 
2213.00, 
2214.00, 
2215.00, 
2216.00, 
2217.00, 
2218.00, 
2219.00, 
2220.00, 
2221.00, 
2222.00, 
2223.00, 
2224.00, 
2225.00, 
2226.00, 
2227.00, 
2228.00, 
2229.00, 
2230.00, 
2231.00, 
2232.00, 
2233.00, 
2234.00, 
2235.00, 
2236.00, 
2237.00, 
2238.00, 
2239.00, 
2240.00, 
2241.00, 
2242.00, 
2243.00, 
2244.00, 
2245.00, 
2246.00, 
2247.00, 
2248.00, 
2249.00, 
2250.00, 
2251.00, 
2252.00, 
2253.00, 
2254.00, 
2255.00, 
2256.00, 
2257.00, 
2258.00, 
2259.00, 
2260.00, 
2261.00, 
2262.00, 
2263.00, 
2264.00, 
2265.00, 
2266.00, 
2267.00, 
2268.00, 
2269.00, 
2270.00, 
2271.00, 
2272.00, 
2273.00, 
2274.00, 
2275.00, 
2276.00, 
2277.00, 
2278.00, 
2279.00, 
2280.00, 
2281.00, 
2282.00, 
2283.00, 
2284.00, 
2285.00, 
2286.00, 
2287.00, 
2288.00, 
2289.00, 
2290.00, 
2291.00, 
2292.00, 
2293.00, 
2294.00, 
2295.00, 
2296.00, 
2297.00, 
2298.00, 
2299.00, 
2300.00, 
2301.00, 
2302.00, 
2303.00, 
2304.00, 
2305.00, 
2306.00, 
2307.00, 
2308.00, 
2309.00, 
2310.00, 
2311.00, 
2312.00, 
2313.00, 
2314.00, 
2315.00, 
2316.00, 
2317.00, 
2318.00, 
2319.00, 
2320.00, 
2321.00, 
2322.00, 
2323.00, 
2324.00, 
2325.00, 
2326.00, 
2327.00, 
2328.00, 
2329.00, 
2330.00, 
2331.00, 
2332.00, 
2333.00, 
2334.00, 
2335.00, 
2336.00, 
2337.00, 
2338.00, 
2339.00, 
2340.00, 
2341.00, 
2342.00, 
2343.00, 
2344.00, 
2345.00, 
2346.00, 
2347.00, 
2348.00, 
2349.00, 
2350.00, 
2351.00, 
2352.00, 
2353.00, 
2354.00, 
2355.00, 
2356.00, 
2357.00, 
2358.00, 
2359.00, 
2360.00, 
2361.00, 
2362.00, 
2363.00, 
2364.00, 
2365.00, 
2366.00, 
2367.00, 
2368.00, 
2369.00, 
2370.00, 
2371.00, 
2372.00, 
2373.00, 
2374.00, 
2375.00, 
2376.00, 
2377.00, 
2378.00, 
2379.00, 
2380.00, 
2381.00, 
2382.00, 
2383.00, 
2384.00, 
2385.00, 
2386.00, 
2387.00, 
2388.00, 
2389.00, 
2390.00, 
2391.00, 
2392.00, 
2393.00, 
2394.00, 
2395.00, 
2396.00, 
2397.00, 
2398.00, 
2399.00, 
2400.00, 
2401.00, 
2402.00, 
2403.00, 
2404.00, 
2405.00, 
2406.00, 
2407.00, 
2408.00, 
2409.00, 
2410.00, 
2411.00, 
2412.00, 
2413.00, 
2414.00, 
2415.00, 
2416.00, 
2417.00, 
2418.00, 
2419.00, 
2420.00, 
2421.00, 
2422.00, 
2423.00, 
2424.00, 
2425.00, 
2426.00, 
2427.00, 
2428.00, 
2429.00, 
2430.00, 
2431.00, 
2432.00, 
2433.00, 
2434.00, 
2435.00, 
2436.00, 
2437.00, 
2438.00, 
2439.00, 
2440.00, 
2441.00, 
2442.00, 
2443.00, 
2444.00, 
2445.00, 
2446.00, 
2447.00, 
2448.00, 
2449.00, 
2450.00, 
2451.00, 
2452.00, 
2453.00, 
2454.00, 
2455.00, 
2456.00, 
2457.00, 
2458.00, 
2459.00, 
2460.00, 
2461.00, 
2462.00, 
2463.00, 
2464.00, 
2465.00, 
2466.00, 
2467.00, 
2468.00, 
2469.00, 
2470.00, 
2471.00, 
2472.00, 
2473.00, 
2474.00, 
2475.00, 
2476.00, 
2477.00, 
2478.00, 
2479.00, 
2480.00, 
2481.00, 
2482.00, 
2483.00, 
2484.00, 
2485.00, 
2486.00, 
2487.00, 
2488.00, 
2489.00, 
2490.00, 
2491.00, 
2492.00, 
2493.00, 
2494.00, 
2495.00, 
2496.00, 
2497.00, 
2498.00, 
2499.00, 
2500.00, 
2501.00, 
2502.00, 
2503.00, 
2504.00, 
2505.00, 
2506.00, 
2507.00, 
2508.00, 
2509.00, 
2510.00, 
2511.00, 
2512.00, 
2513.00, 
2514.00, 
2515.00, 
2516.00, 
2517.00, 
2518.00, 
2519.00, 
2520.00, 
2521.00, 
2522.00, 
2523.00, 
2524.00, 
2525.00, 
2526.00, 
2527.00, 
2528.00, 
2529.00, 
2530.00, 
2531.00, 
2532.00, 
2533.00, 
2534.00, 
2535.00, 
2536.00, 
2537.00, 
2538.00, 
2539.00, 
2540.00, 
2541.00, 
2542.00, 
2543.00, 
2544.00, 
2545.00, 
2546.00, 
2547.00, 
2548.00, 
2549.00, 
2550.00, 
2551.00, 
2552.00, 
2553.00, 
2554.00, 
2555.00, 
2556.00, 
2557.00, 
2558.00, 
2559.00, 
2560.00, 
2561.00, 
2562.00, 
2563.00, 
2564.00, 
2565.00, 
2566.00, 
2567.00, 
2568.00, 
2569.00, 
2570.00, 
2571.00, 
2572.00, 
2573.00, 
2574.00, 
2575.00, 
2576.00, 
2577.00, 
2578.00, 
2579.00, 
2580.00, 
2581.00, 
2582.00, 
2583.00, 
2584.00, 
2585.00, 
2586.00, 
2587.00, 
2588.00, 
2589.00, 
2590.00, 
2591.00, 
2592.00, 
2593.00, 
2594.00, 
2595.00, 
2596.00, 
2597.00, 
2598.00, 
2599.00, 
2600.00, 
