"2cP2 - RawData"
"Wavelength nm.","T%"
200.00,0.002
201.00,0.001
202.00,0.001
203.00,0.004
204.00,0.002
205.00,0.000
206.00,0.002
207.00,0.001
208.00,0.001
209.00,-0.000
210.00,0.001
211.00,-0.001
212.00,0.001
213.00,0.004
214.00,-0.000
215.00,-0.001
216.00,0.002
217.00,0.001
218.00,0.002
219.00,-0.000
220.00,0.000
221.00,0.000
222.00,0.001
223.00,-0.001
224.00,0.000
225.00,0.001
226.00,0.001
227.00,0.000
228.00,0.002
229.00,0.003
230.00,0.001
231.00,0.001
232.00,0.001
233.00,0.002
234.00,-0.001
235.00,-0.001
236.00,0.001
237.00,-0.001
238.00,-0.001
239.00,0.000
240.00,-0.001
241.00,0.001
242.00,0.000
243.00,0.001
244.00,0.001
245.00,0.002
246.00,-0.001
247.00,0.001
248.00,-0.000
249.00,0.001
250.00,-0.001
251.00,0.000
252.00,0.002
253.00,0.001
254.00,0.000
255.00,0.001
256.00,0.001
257.00,0.001
258.00,0.001
259.00,-0.001
260.00,-0.001
261.00,-0.001
262.00,-0.001
263.00,0.001
264.00,-0.001
265.00,0.002
266.00,-0.001
267.00,-0.001
268.00,-0.001
269.00,0.001
270.00,-0.000
271.00,0.001
272.00,-0.001
273.00,0.000
274.00,0.001
275.00,0.000
276.00,-0.001
277.00,0.002
278.00,-0.000
279.00,-0.001
280.00,-0.001
281.00,0.001
282.00,-0.001
283.00,0.002
284.00,0.001
285.00,0.001
286.00,0.002
287.00,-0.001
288.00,0.001
289.00,-0.000
290.00,0.000
291.00,-0.000
292.00,-0.001
293.00,-0.000
294.00,0.000
295.00,0.001
296.00,-0.001
297.00,-0.000
298.00,0.002
299.00,0.003
300.00,0.004
301.00,0.005
302.00,0.007
303.00,0.011
304.00,0.019
305.00,0.027
306.00,0.043
307.00,0.064
308.00,0.100
309.00,0.161
310.00,0.226
311.00,0.300
312.00,0.413
313.00,0.564
314.00,0.746
315.00,0.965
316.00,1.229
317.00,1.559
318.00,1.923
319.00,2.392
320.00,2.891
321.00,3.399
322.00,4.098
323.00,4.856
324.00,5.622
325.00,6.393
326.00,7.233
327.00,8.194
328.00,9.154
329.00,10.146
330.00,11.172
331.00,12.231
332.00,13.308
333.00,14.428
334.00,15.478
335.00,16.650
336.00,17.710
337.00,18.882
338.00,19.919
339.00,20.921
340.00,22.052
341.00,23.017
342.00,23.924
343.00,24.925
344.00,25.809
345.00,26.662
346.00,27.442
347.00,28.229
348.00,29.052
349.00,29.694
350.00,30.425
351.00,30.994
352.00,31.608
353.00,32.153
354.00,32.734
355.00,33.193
356.00,33.660
357.00,34.170
358.00,34.558
359.00,34.933
360.00,35.281
361.00,35.635
362.00,35.984
363.00,36.323
364.00,36.618
365.00,36.803
366.00,37.100
367.00,37.269
368.00,37.420
369.00,37.576
370.00,37.722
371.00,37.819
372.00,37.916
373.00,37.942
374.00,37.979
375.00,37.957
376.00,37.999
377.00,37.956
378.00,37.900
379.00,37.927
380.00,37.955
381.00,37.995
382.00,38.013
383.00,38.092
384.00,38.204
385.00,38.303
386.00,38.384
387.00,38.499
388.00,38.664
389.00,38.710
390.00,38.834
391.00,38.931
392.00,38.996
393.00,39.064
394.00,39.133
395.00,39.201
396.00,39.241
397.00,39.268
398.00,39.348
399.00,39.320
400.00,39.412
401.00,39.403
402.00,39.477
403.00,39.482
404.00,39.500
405.00,39.465
406.00,39.441
407.00,39.431
408.00,39.379
409.00,39.351
410.00,39.292
411.00,39.300
412.00,39.147
413.00,39.138
414.00,39.158
415.00,39.236
416.00,39.338
417.00,39.278
418.00,39.330
419.00,39.266
420.00,39.320
421.00,39.423
422.00,39.473
423.00,39.453
424.00,39.486
425.00,39.513
426.00,39.529
427.00,39.555
428.00,39.571
429.00,39.584
430.00,39.605
431.00,39.549
432.00,39.645
433.00,39.751
434.00,39.774
435.00,39.794
436.00,39.820
437.00,39.874
438.00,39.929
439.00,39.948
440.00,40.010
441.00,40.045
442.00,40.103
443.00,40.165
444.00,40.292
445.00,40.276
446.00,40.248
447.00,40.383
448.00,40.460
449.00,40.556
450.00,40.620
451.00,40.672
452.00,40.738
453.00,40.811
454.00,40.896
455.00,40.926
456.00,41.018
457.00,41.108
458.00,41.188
459.00,41.260
460.00,41.317
461.00,41.337
462.00,41.448
463.00,41.469
464.00,41.607
465.00,41.670
466.00,41.744
467.00,41.839
468.00,41.808
469.00,41.910
470.00,41.849
471.00,41.789
472.00,42.024
473.00,42.067
474.00,42.061
475.00,42.133
476.00,42.135
477.00,42.223
478.00,42.373
479.00,42.473
480.00,42.574
481.00,42.669
482.00,42.767
483.00,42.883
484.00,42.923
485.00,43.072
486.00,43.131
487.00,43.254
488.00,43.311
489.00,43.432
490.00,43.523
491.00,43.600
492.00,43.726
493.00,43.813
494.00,43.827
495.00,43.912
496.00,44.168
497.00,43.933
498.00,44.048
499.00,44.162
500.00,44.159
501.00,44.265
502.00,44.335
503.00,44.296
504.00,44.520
505.00,44.560
506.00,44.665
507.00,44.693
508.00,44.793
509.00,44.855
510.00,44.935
511.00,44.986
512.00,44.995
513.00,45.137
514.00,45.218
515.00,45.217
516.00,45.323
517.00,45.345
518.00,45.391
519.00,45.517
520.00,45.532
521.00,45.564
522.00,45.654
523.00,45.688
524.00,45.694
525.00,45.778
526.00,45.935
527.00,45.874
528.00,45.890
529.00,45.960
530.00,46.025
531.00,46.164
532.00,46.215
533.00,46.298
534.00,46.325
535.00,46.403
536.00,46.455
537.00,46.460
538.00,46.556
539.00,46.586
540.00,46.640
541.00,46.650
542.00,46.682
543.00,46.757
544.00,46.741
545.00,46.764
546.00,46.857
547.00,46.926
548.00,46.926
549.00,46.940
550.00,47.113
551.00,47.081
552.00,47.159
553.00,47.182
554.00,47.219
555.00,47.227
556.00,47.179
557.00,47.313
558.00,47.402
559.00,47.376
560.00,47.491
561.00,47.464
562.00,47.486
563.00,47.568
564.00,47.642
565.00,47.608
566.00,47.611
567.00,47.647
568.00,47.595
569.00,47.648
570.00,47.669
571.00,47.717
572.00,47.718
573.00,47.692
574.00,47.765
575.00,47.801
576.00,47.848
577.00,47.935
578.00,47.879
579.00,47.942
580.00,47.978
581.00,48.083
582.00,48.118
583.00,48.197
584.00,48.361
585.00,48.294
586.00,48.354
587.00,48.465
588.00,48.400
589.00,48.418
590.00,48.514
591.00,48.509
592.00,48.520
593.00,48.454
594.00,48.536
595.00,48.540
596.00,48.571
597.00,48.660
598.00,48.758
599.00,48.689
600.00,48.703
601.00,48.770
602.00,48.644
603.00,48.749
604.00,48.784
605.00,48.784
606.00,48.811
607.00,48.713
608.00,48.829
609.00,48.840
610.00,48.885
611.00,48.894
612.00,48.980
613.00,48.959
614.00,48.896
615.00,48.969
616.00,49.053
617.00,49.021
618.00,49.041
619.00,49.074
620.00,49.086
621.00,49.058
622.00,49.109
623.00,49.146
624.00,49.136
625.00,49.173
626.00,49.135
627.00,49.157
628.00,49.210
629.00,49.267
630.00,49.227
631.00,49.222
632.00,49.292
633.00,49.274
634.00,49.307
635.00,49.361
636.00,49.483
637.00,49.465
638.00,49.493
639.00,49.584
640.00,49.552
641.00,49.630
642.00,49.664
643.00,49.583
644.00,49.648
645.00,49.594
646.00,49.663
647.00,49.619
648.00,49.676
649.00,49.735
650.00,49.750
651.00,49.791
652.00,49.814
653.00,49.803
654.00,49.875
655.00,49.881
656.00,49.864
657.00,49.983
658.00,49.908
659.00,50.030
660.00,50.127
661.00,50.061
662.00,50.049
663.00,50.117
664.00,50.086
665.00,50.080
666.00,50.241
667.00,50.207
668.00,50.278
669.00,50.187
670.00,50.231
671.00,50.198
672.00,50.206
673.00,50.334
674.00,50.320
675.00,50.261
676.00,50.379
677.00,50.347
678.00,50.314
679.00,50.325
680.00,50.474
681.00,50.461
682.00,50.501
683.00,50.476
684.00,50.615
685.00,50.599
686.00,50.538
687.00,50.573
688.00,50.488
689.00,50.441
690.00,50.543
691.00,50.631
692.00,50.676
693.00,50.643
694.00,50.593
695.00,50.637
696.00,50.691
697.00,50.615
698.00,50.726
699.00,50.797
700.00,50.895
701.00,50.726
702.00,50.755
703.00,50.773
704.00,50.763
705.00,50.762
706.00,50.766
707.00,50.754
708.00,50.754
709.00,50.891
710.00,51.020
711.00,50.703
712.00,50.798
713.00,50.812
714.00,50.815
715.00,50.893
716.00,50.868
717.00,50.784
718.00,50.795
719.00,50.757
720.00,50.770
721.00,55.177
722.00,55.084
723.00,55.053
724.00,54.969
725.00,54.931
726.00,54.921
727.00,54.824
728.00,54.813
729.00,54.769
730.00,54.753
731.00,54.702
732.00,54.744
733.00,54.626
734.00,54.687
735.00,54.675
736.00,54.597
737.00,54.519
738.00,54.542
739.00,54.546
740.00,54.528
741.00,54.482
742.00,54.441
743.00,54.433
744.00,54.291
745.00,54.272
746.00,54.251
747.00,54.171
748.00,54.091
749.00,54.062
750.00,54.066
751.00,53.992
752.00,54.090
753.00,53.973
754.00,53.907
755.00,53.898
756.00,53.825
757.00,53.790
758.00,53.704
759.00,53.729
760.00,53.704
761.00,53.690
762.00,53.697
763.00,53.693
764.00,53.577
765.00,53.623
766.00,53.683
767.00,53.570
768.00,53.534
769.00,53.498
770.00,53.517
771.00,53.479
772.00,53.503
773.00,53.357
774.00,53.345
775.00,53.419
776.00,53.354
777.00,53.284
778.00,53.363
779.00,53.295
780.00,53.209
781.00,53.169
782.00,53.150
783.00,53.120
784.00,53.098
785.00,53.006
786.00,53.041
787.00,53.014
788.00,52.972
789.00,52.996
790.00,52.923
791.00,52.867
792.00,52.831
793.00,52.792
794.00,52.765
795.00,52.692
796.00,52.747
797.00,52.711
798.00,52.668
799.00,52.537
800.00,52.554
801.00,52.570
802.00,52.524
803.00,52.562
804.00,52.449
805.00,52.456
806.00,52.348
807.00,52.465
808.00,52.364
809.00,52.344
810.00,52.330
811.00,52.263
812.00,52.251
813.00,52.267
814.00,52.207
815.00,52.158
816.00,52.168
817.00,52.059
818.00,52.093
819.00,52.009
820.00,51.995
821.00,52.010
822.00,51.869
823.00,51.904
824.00,51.880
825.00,51.830
826.00,51.992
827.00,51.855
828.00,51.842
829.00,51.783
830.00,51.804
831.00,54.329
832.00,54.273
833.00,54.253
834.00,54.239
835.00,54.235
836.00,54.169
837.00,54.159
838.00,54.111
839.00,54.117
840.00,54.060
841.00,54.051
842.00,53.994
843.00,53.940
844.00,53.955
845.00,53.917
846.00,53.938
847.00,53.875
848.00,53.811
849.00,53.789
850.00,53.725
851.00,53.698
852.00,53.691
853.00,53.578
854.00,53.587
855.00,53.524
856.00,53.531
857.00,53.463
858.00,53.446
859.00,53.410
860.00,53.404
861.00,53.374
862.00,53.380
863.00,53.354
864.00,53.219
865.00,53.277
866.00,53.245
867.00,53.249
868.00,53.221
869.00,53.221
870.00,53.198
871.00,53.197
872.00,53.169
873.00,53.155
874.00,53.128
875.00,53.105
876.00,53.078
877.00,53.048
878.00,53.059
879.00,53.039
880.00,53.052
881.00,52.966
882.00,52.958
883.00,52.957
884.00,52.916
885.00,52.863
886.00,52.859
887.00,52.853
888.00,52.845
889.00,52.797
890.00,52.756
891.00,52.820
892.00,52.771
893.00,52.674
894.00,52.658
895.00,52.722
896.00,52.615
897.00,52.619
898.00,52.566
899.00,52.556
900.00,52.555
901.00,52.583
902.00,52.542
903.00,52.517
904.00,52.490
905.00,52.453
906.00,52.441
907.00,52.400
908.00,52.401
909.00,52.360
910.00,52.337
911.00,52.311
912.00,52.341
913.00,52.267
914.00,52.298
915.00,52.214
916.00,52.220
917.00,52.163
918.00,52.178
919.00,52.086
920.00,52.163
921.00,52.124
922.00,52.084
923.00,52.067
924.00,52.057
925.00,52.025
926.00,52.014
927.00,51.983
928.00,51.977
929.00,51.973
930.00,51.926
931.00,51.893
932.00,51.877
933.00,51.887
934.00,51.815
935.00,51.796
936.00,51.783
937.00,51.803
938.00,51.776
939.00,51.750
940.00,51.715
941.00,51.701
942.00,51.650
943.00,51.664
944.00,51.618
945.00,51.606
946.00,51.591
947.00,51.571
948.00,51.536
949.00,51.527
950.00,51.525
951.00,51.491
952.00,51.445
953.00,51.413
954.00,51.404
955.00,51.358
956.00,51.362
957.00,51.310
958.00,51.308
959.00,51.270
960.00,51.263
961.00,51.236
962.00,51.251
963.00,51.198
964.00,51.186
965.00,51.171
966.00,51.162
967.00,51.170
968.00,51.148
969.00,51.155
970.00,51.149
971.00,51.132
972.00,51.103
973.00,51.143
974.00,51.137
975.00,51.111
976.00,51.144
977.00,51.140
978.00,51.164
979.00,51.122
980.00,51.134
981.00,51.261
982.00,51.123
983.00,51.108
984.00,51.108
985.00,51.105
986.00,51.067
987.00,51.082
988.00,51.064
989.00,51.054
990.00,51.052
991.00,51.022
992.00,51.033
993.00,51.012
994.00,50.981
995.00,50.969
996.00,50.945
997.00,50.963
998.00,50.931
999.00,50.940
1000.00,50.889
1001.00,50.894
1002.00,50.878
1003.00,50.877
1004.00,50.859
1005.00,50.826
1006.00,50.855
1007.00,50.803
1008.00,50.804
1009.00,50.829
1010.00,50.780
1011.00,50.766
1012.00,50.735
1013.00,50.727
1014.00,50.697
1015.00,50.708
1016.00,50.671
1017.00,50.684
1018.00,50.655
1019.00,50.636
1020.00,50.618
1021.00,50.598
1022.00,50.612
1023.00,50.559
1024.00,50.560
1025.00,50.547
1026.00,50.535
1027.00,50.528
1028.00,50.495
1029.00,50.482
1030.00,50.445
1031.00,50.451
1032.00,50.416
1033.00,50.424
1034.00,50.397
1035.00,50.356
1036.00,50.364
1037.00,50.324
1038.00,50.290
1039.00,50.281
1040.00,50.266
1041.00,50.227
1042.00,50.219
1043.00,50.201
1044.00,50.222
1045.00,50.216
1046.00,50.201
1047.00,50.210
1048.00,50.209
1049.00,50.230
1050.00,50.251
1051.00,50.260
1052.00,50.280
1053.00,50.283
1054.00,50.272
1055.00,50.289
1056.00,50.284
1057.00,50.311
1058.00,50.290
1059.00,50.290
1060.00,50.279
1061.00,50.279
1062.00,50.265
1063.00,50.264
1064.00,50.257
1065.00,50.242
1066.00,50.249
1067.00,50.231
1068.00,50.222
1069.00,50.212
1070.00,50.189
1071.00,50.158
1072.00,50.183
1073.00,50.146
1074.00,50.145
1075.00,50.134
1076.00,50.126
1077.00,50.129
1078.00,50.120
1079.00,50.101
1080.00,50.118
1081.00,50.088
1082.00,50.078
1083.00,50.082
1084.00,50.072
1085.00,50.053
1086.00,50.047
1087.00,50.036
1088.00,50.028
1089.00,50.018
1090.00,50.010
1091.00,50.010
1092.00,50.003
1093.00,49.979
1094.00,49.987
1095.00,49.970
1096.00,49.949
1097.00,49.960
1098.00,49.932
1099.00,49.928
1100.00,49.919
1101.00,49.889
1102.00,49.897
1103.00,49.889
1104.00,49.863
1105.00,49.867
1106.00,49.858
1107.00,49.843
1108.00,49.841
1109.00,49.819
1110.00,49.831
1111.00,49.822
1112.00,49.792
1113.00,49.794
1114.00,49.788
1115.00,49.768
1116.00,49.782
1117.00,49.757
1118.00,49.758
1119.00,49.746
1120.00,49.746
1121.00,49.745
1122.00,49.723
1123.00,49.717
1124.00,49.722
1125.00,49.702
1126.00,49.691
1127.00,49.692
1128.00,49.665
1129.00,49.643
1130.00,49.651
1131.00,49.639
1132.00,49.652
1133.00,49.663
1134.00,49.642
1135.00,49.633
1136.00,49.630
1137.00,49.617
1138.00,49.632
1139.00,49.626
1140.00,49.606
1141.00,49.598
1142.00,49.593
1143.00,49.601
1144.00,49.577
1145.00,49.574
1146.00,49.587
1147.00,49.566
1148.00,49.556
1149.00,49.577
1150.00,49.562
1151.00,49.563
1152.00,49.557
1153.00,49.554
1154.00,49.552
1155.00,49.556
1156.00,49.527
1157.00,49.549
1158.00,49.540
1159.00,49.520
1160.00,49.531
1161.00,49.537
1162.00,49.520
1163.00,49.530
1164.00,49.528
1165.00,49.522
1166.00,49.520
1167.00,49.502
1168.00,49.507
1169.00,49.490
1170.00,49.491
1171.00,49.480
1172.00,49.479
1173.00,49.475
1174.00,49.493
1175.00,49.479
1176.00,49.504
1177.00,49.495
1178.00,49.485
1179.00,49.516
1180.00,49.473
1181.00,49.489
1182.00,49.491
1183.00,49.468
1184.00,49.454
1185.00,49.473
1186.00,49.456
1187.00,49.463
1188.00,49.451
1189.00,49.451
1190.00,49.448
1191.00,49.451
1192.00,49.443
1193.00,49.451
1194.00,49.448
1195.00,49.424
1196.00,49.452
1197.00,49.444
1198.00,49.449
1199.00,49.446
1200.00,49.424
1201.00,49.444
1202.00,49.435
1203.00,49.434
1204.00,49.433
1205.00,49.445
1206.00,49.427
1207.00,49.447
1208.00,49.426
1209.00,49.429
1210.00,49.442
1211.00,49.420
1212.00,49.444
1213.00,49.402
1214.00,49.417
1215.00,49.426
1216.00,49.418
1217.00,49.424
1218.00,49.418
1219.00,49.423
1220.00,49.418
1221.00,49.421
1222.00,49.410
1223.00,49.434
1224.00,49.425
1225.00,49.414
1226.00,49.425
1227.00,49.395
1228.00,49.410
1229.00,49.410
1230.00,49.437
1231.00,49.445
1232.00,49.466
1233.00,49.453
1234.00,49.457
1235.00,49.460
1236.00,49.456
1237.00,49.475
1238.00,49.470
1239.00,49.461
1240.00,49.463
1241.00,49.446
1242.00,49.465
1243.00,49.481
1244.00,49.449
1245.00,49.482
1246.00,49.485
1247.00,49.483
1248.00,49.485
1249.00,49.483
1250.00,49.489
1251.00,49.493
1252.00,49.502
1253.00,49.491
1254.00,49.513
1255.00,49.496
1256.00,49.499
1257.00,49.474
1258.00,49.503
1259.00,49.516
1260.00,49.536
1261.00,49.528
1262.00,49.531
1263.00,49.517
1264.00,49.536
1265.00,49.547
1266.00,49.536
1267.00,49.541
1268.00,49.543
1269.00,49.533
1270.00,49.573
1271.00,49.565
1272.00,49.544
1273.00,49.564
1274.00,49.559
1275.00,49.576
1276.00,49.585
1277.00,49.568
1278.00,49.591
1279.00,49.591
1280.00,49.585
1281.00,49.609
1282.00,49.600
1283.00,49.586
1284.00,49.592
1285.00,49.584
1286.00,49.609
1287.00,49.586
1288.00,49.585
1289.00,49.604
1290.00,49.615
1291.00,49.602
1292.00,49.658
1293.00,49.616
1294.00,49.645
1295.00,49.651
1296.00,49.644
1297.00,49.658
1298.00,49.681
1299.00,49.666
1300.00,49.680
1301.00,49.675
1302.00,49.660
1303.00,49.696
1304.00,49.668
1305.00,49.684
1306.00,49.703
1307.00,49.694
1308.00,49.718
1309.00,49.730
1310.00,49.713
1311.00,49.713
1312.00,49.702
1313.00,49.700
1314.00,49.727
1315.00,49.722
1316.00,49.726
1317.00,49.737
1318.00,49.733
1319.00,49.751
1320.00,49.777
1321.00,49.910
1322.00,49.939
1323.00,49.913
1324.00,49.907
1325.00,49.887
1326.00,49.921
1327.00,49.909
1328.00,49.919
1329.00,49.920
1330.00,49.902
1331.00,49.924
1332.00,49.904
1333.00,49.915
1334.00,49.953
1335.00,49.949
1336.00,49.987
1337.00,50.016
1338.00,50.080
1339.00,50.127
1340.00,50.181
1341.00,50.229
1342.00,50.321
1343.00,50.361
1344.00,50.407
1345.00,50.483
1346.00,50.509
1347.00,50.533
1348.00,50.559
1349.00,50.572
1350.00,50.591
1351.00,50.589
1352.00,50.595
1353.00,50.627
1354.00,50.601
1355.00,50.570
1356.00,50.636
1357.00,50.635
1358.00,50.648
1359.00,50.669
1360.00,50.681
1361.00,50.647
1362.00,50.546
1363.00,50.713
1364.00,50.722
1365.00,50.621
1366.00,50.687
1367.00,50.613
1368.00,50.500
1369.00,50.647
1370.00,50.636
1371.00,50.543
1372.00,50.599
1373.00,50.606
1374.00,50.618
1375.00,50.613
1376.00,50.594
1377.00,50.585
1378.00,50.661
1379.00,50.612
1380.00,50.600
1381.00,50.637
1382.00,50.516
1383.00,50.624
1384.00,50.587
1385.00,50.562
1386.00,50.643
1387.00,50.548
1388.00,50.551
1389.00,50.550
1390.00,50.661
1391.00,50.564
1392.00,50.584
1393.00,50.623
1394.00,50.611
1395.00,50.550
1396.00,50.510
1397.00,50.572
1398.00,50.620
1399.00,50.555
1400.00,50.446
1401.00,50.558
1402.00,50.665
1403.00,50.609
1404.00,50.585
1405.00,50.641
1406.00,50.613
1407.00,50.626
1408.00,50.634
1409.00,50.614
1410.00,50.652
1411.00,50.668
1412.00,50.680
1413.00,50.627
1414.00,50.647
1415.00,50.692
1416.00,50.718
1417.00,50.721
1418.00,50.706
1419.00,50.693
1420.00,50.745
1421.00,50.759
1422.00,50.767
1423.00,50.787
1424.00,50.773
1425.00,50.786
1426.00,50.788
1427.00,50.820
1428.00,50.821
1429.00,50.828
1430.00,50.854
1431.00,50.840
1432.00,50.873
1433.00,50.908
1434.00,50.888
1435.00,50.934
1436.00,50.957
1437.00,50.939
1438.00,50.979
1439.00,50.991
1440.00,50.997
1441.00,51.001
1442.00,51.000
1443.00,51.048
1444.00,51.064
1445.00,51.041
1446.00,51.061
1447.00,51.106
1448.00,51.121
1449.00,51.138
1450.00,51.116
1451.00,51.151
1452.00,51.164
1453.00,51.183
1454.00,51.183
1455.00,51.204
1456.00,51.211
1457.00,51.222
1458.00,51.246
1459.00,51.243
1460.00,51.283
1461.00,51.275
1462.00,51.293
1463.00,51.321
1464.00,51.309
1465.00,51.332
1466.00,51.334
1467.00,51.359
1468.00,51.392
1469.00,51.387
1470.00,51.378
1471.00,51.417
1472.00,51.424
1473.00,51.419
1474.00,51.466
1475.00,51.463
1476.00,51.470
1477.00,51.486
1478.00,51.484
1479.00,51.526
1480.00,51.537
1481.00,51.533
1482.00,51.557
1483.00,51.556
1484.00,51.587
1485.00,51.579
1486.00,51.573
1487.00,51.605
1488.00,51.613
1489.00,51.616
1490.00,51.632
1491.00,51.648
1492.00,51.661
1493.00,51.671
1494.00,51.688
1495.00,51.673
1496.00,51.689
1497.00,51.684
1498.00,51.687
1499.00,51.732
1500.00,51.748
1501.00, 
1502.00, 
1503.00, 
1504.00, 
1505.00, 
1506.00, 
1507.00, 
1508.00, 
1509.00, 
1510.00, 
1511.00, 
1512.00, 
1513.00, 
1514.00, 
1515.00, 
1516.00, 
1517.00, 
1518.00, 
1519.00, 
1520.00, 
1521.00, 
1522.00, 
1523.00, 
1524.00, 
1525.00, 
1526.00, 
1527.00, 
1528.00, 
1529.00, 
1530.00, 
1531.00, 
1532.00, 
1533.00, 
1534.00, 
1535.00, 
1536.00, 
1537.00, 
1538.00, 
1539.00, 
1540.00, 
1541.00, 
1542.00, 
1543.00, 
1544.00, 
1545.00, 
1546.00, 
1547.00, 
1548.00, 
1549.00, 
1550.00, 
1551.00, 
1552.00, 
1553.00, 
1554.00, 
1555.00, 
1556.00, 
1557.00, 
1558.00, 
1559.00, 
1560.00, 
1561.00, 
1562.00, 
1563.00, 
1564.00, 
1565.00, 
1566.00, 
1567.00, 
1568.00, 
1569.00, 
1570.00, 
1571.00, 
1572.00, 
1573.00, 
1574.00, 
1575.00, 
1576.00, 
1577.00, 
1578.00, 
1579.00, 
1580.00, 
1581.00, 
1582.00, 
1583.00, 
1584.00, 
1585.00, 
1586.00, 
1587.00, 
1588.00, 
1589.00, 
1590.00, 
1591.00, 
1592.00, 
1593.00, 
1594.00, 
1595.00, 
1596.00, 
1597.00, 
1598.00, 
1599.00, 
1600.00, 
1601.00, 
1602.00, 
1603.00, 
1604.00, 
1605.00, 
1606.00, 
1607.00, 
1608.00, 
1609.00, 
1610.00, 
1611.00, 
1612.00, 
1613.00, 
1614.00, 
1615.00, 
1616.00, 
1617.00, 
1618.00, 
1619.00, 
1620.00, 
1621.00, 
1622.00, 
1623.00, 
1624.00, 
1625.00, 
1626.00, 
1627.00, 
1628.00, 
1629.00, 
1630.00, 
1631.00, 
1632.00, 
1633.00, 
1634.00, 
1635.00, 
1636.00, 
1637.00, 
1638.00, 
1639.00, 
1640.00, 
1641.00, 
1642.00, 
1643.00, 
1644.00, 
1645.00, 
1646.00, 
1647.00, 
1648.00, 
1649.00, 
1650.00, 
1651.00, 
1652.00, 
1653.00, 
1654.00, 
1655.00, 
1656.00, 
1657.00, 
1658.00, 
1659.00, 
1660.00, 
1661.00, 
1662.00, 
1663.00, 
1664.00, 
1665.00, 
1666.00, 
1667.00, 
1668.00, 
1669.00, 
1670.00, 
1671.00, 
1672.00, 
1673.00, 
1674.00, 
1675.00, 
1676.00, 
1677.00, 
1678.00, 
1679.00, 
1680.00, 
1681.00, 
1682.00, 
1683.00, 
1684.00, 
1685.00, 
1686.00, 
1687.00, 
1688.00, 
1689.00, 
1690.00, 
1691.00, 
1692.00, 
1693.00, 
1694.00, 
1695.00, 
1696.00, 
1697.00, 
1698.00, 
1699.00, 
1700.00, 
1701.00, 
1702.00, 
1703.00, 
1704.00, 
1705.00, 
1706.00, 
1707.00, 
1708.00, 
1709.00, 
1710.00, 
1711.00, 
1712.00, 
1713.00, 
1714.00, 
1715.00, 
1716.00, 
1717.00, 
1718.00, 
1719.00, 
1720.00, 
1721.00, 
1722.00, 
1723.00, 
1724.00, 
1725.00, 
1726.00, 
1727.00, 
1728.00, 
1729.00, 
1730.00, 
1731.00, 
1732.00, 
1733.00, 
1734.00, 
1735.00, 
1736.00, 
1737.00, 
1738.00, 
1739.00, 
1740.00, 
1741.00, 
1742.00, 
1743.00, 
1744.00, 
1745.00, 
1746.00, 
1747.00, 
1748.00, 
1749.00, 
1750.00, 
1751.00, 
1752.00, 
1753.00, 
1754.00, 
1755.00, 
1756.00, 
1757.00, 
1758.00, 
1759.00, 
1760.00, 
1761.00, 
1762.00, 
1763.00, 
1764.00, 
1765.00, 
1766.00, 
1767.00, 
1768.00, 
1769.00, 
1770.00, 
1771.00, 
1772.00, 
1773.00, 
1774.00, 
1775.00, 
1776.00, 
1777.00, 
1778.00, 
1779.00, 
1780.00, 
1781.00, 
1782.00, 
1783.00, 
1784.00, 
1785.00, 
1786.00, 
1787.00, 
1788.00, 
1789.00, 
1790.00, 
1791.00, 
1792.00, 
1793.00, 
1794.00, 
1795.00, 
1796.00, 
1797.00, 
1798.00, 
1799.00, 
1800.00, 
1801.00, 
1802.00, 
1803.00, 
1804.00, 
1805.00, 
1806.00, 
1807.00, 
1808.00, 
1809.00, 
1810.00, 
1811.00, 
1812.00, 
1813.00, 
1814.00, 
1815.00, 
1816.00, 
1817.00, 
1818.00, 
1819.00, 
1820.00, 
1821.00, 
1822.00, 
1823.00, 
1824.00, 
1825.00, 
1826.00, 
1827.00, 
1828.00, 
1829.00, 
1830.00, 
1831.00, 
1832.00, 
1833.00, 
1834.00, 
1835.00, 
1836.00, 
1837.00, 
1838.00, 
1839.00, 
1840.00, 
1841.00, 
1842.00, 
1843.00, 
1844.00, 
1845.00, 
1846.00, 
1847.00, 
1848.00, 
1849.00, 
1850.00, 
1851.00, 
1852.00, 
1853.00, 
1854.00, 
1855.00, 
1856.00, 
1857.00, 
1858.00, 
1859.00, 
1860.00, 
1861.00, 
1862.00, 
1863.00, 
1864.00, 
1865.00, 
1866.00, 
1867.00, 
1868.00, 
1869.00, 
1870.00, 
1871.00, 
1872.00, 
1873.00, 
1874.00, 
1875.00, 
1876.00, 
1877.00, 
1878.00, 
1879.00, 
1880.00, 
1881.00, 
1882.00, 
1883.00, 
1884.00, 
1885.00, 
1886.00, 
1887.00, 
1888.00, 
1889.00, 
1890.00, 
1891.00, 
1892.00, 
1893.00, 
1894.00, 
1895.00, 
1896.00, 
1897.00, 
1898.00, 
1899.00, 
1900.00, 
1901.00, 
1902.00, 
1903.00, 
1904.00, 
1905.00, 
1906.00, 
1907.00, 
1908.00, 
1909.00, 
1910.00, 
1911.00, 
1912.00, 
1913.00, 
1914.00, 
1915.00, 
1916.00, 
1917.00, 
1918.00, 
1919.00, 
1920.00, 
1921.00, 
1922.00, 
1923.00, 
1924.00, 
1925.00, 
1926.00, 
1927.00, 
1928.00, 
1929.00, 
1930.00, 
1931.00, 
1932.00, 
1933.00, 
1934.00, 
1935.00, 
1936.00, 
1937.00, 
1938.00, 
1939.00, 
1940.00, 
1941.00, 
1942.00, 
1943.00, 
1944.00, 
1945.00, 
1946.00, 
1947.00, 
1948.00, 
1949.00, 
1950.00, 
1951.00, 
1952.00, 
1953.00, 
1954.00, 
1955.00, 
1956.00, 
1957.00, 
1958.00, 
1959.00, 
1960.00, 
1961.00, 
1962.00, 
1963.00, 
1964.00, 
1965.00, 
1966.00, 
1967.00, 
1968.00, 
1969.00, 
1970.00, 
1971.00, 
1972.00, 
1973.00, 
1974.00, 
1975.00, 
1976.00, 
1977.00, 
1978.00, 
1979.00, 
1980.00, 
1981.00, 
1982.00, 
1983.00, 
1984.00, 
1985.00, 
1986.00, 
1987.00, 
1988.00, 
1989.00, 
1990.00, 
1991.00, 
1992.00, 
1993.00, 
1994.00, 
1995.00, 
1996.00, 
1997.00, 
1998.00, 
1999.00, 
2000.00, 
2001.00, 
2002.00, 
2003.00, 
2004.00, 
2005.00, 
2006.00, 
2007.00, 
2008.00, 
2009.00, 
2010.00, 
2011.00, 
2012.00, 
2013.00, 
2014.00, 
2015.00, 
2016.00, 
2017.00, 
2018.00, 
2019.00, 
2020.00, 
2021.00, 
2022.00, 
2023.00, 
2024.00, 
2025.00, 
2026.00, 
2027.00, 
2028.00, 
2029.00, 
2030.00, 
2031.00, 
2032.00, 
2033.00, 
2034.00, 
2035.00, 
2036.00, 
2037.00, 
2038.00, 
2039.00, 
2040.00, 
2041.00, 
2042.00, 
2043.00, 
2044.00, 
2045.00, 
2046.00, 
2047.00, 
2048.00, 
2049.00, 
2050.00, 
2051.00, 
2052.00, 
2053.00, 
2054.00, 
2055.00, 
2056.00, 
2057.00, 
2058.00, 
2059.00, 
2060.00, 
2061.00, 
2062.00, 
2063.00, 
2064.00, 
2065.00, 
2066.00, 
2067.00, 
2068.00, 
2069.00, 
2070.00, 
2071.00, 
2072.00, 
2073.00, 
2074.00, 
2075.00, 
2076.00, 
2077.00, 
2078.00, 
2079.00, 
2080.00, 
2081.00, 
2082.00, 
2083.00, 
2084.00, 
2085.00, 
2086.00, 
2087.00, 
2088.00, 
2089.00, 
2090.00, 
2091.00, 
2092.00, 
2093.00, 
2094.00, 
2095.00, 
2096.00, 
2097.00, 
2098.00, 
2099.00, 
2100.00, 
2101.00, 
2102.00, 
2103.00, 
2104.00, 
2105.00, 
2106.00, 
2107.00, 
2108.00, 
2109.00, 
2110.00, 
2111.00, 
2112.00, 
2113.00, 
2114.00, 
2115.00, 
2116.00, 
2117.00, 
2118.00, 
2119.00, 
2120.00, 
2121.00, 
2122.00, 
2123.00, 
2124.00, 
2125.00, 
2126.00, 
2127.00, 
2128.00, 
2129.00, 
2130.00, 
2131.00, 
2132.00, 
2133.00, 
2134.00, 
2135.00, 
2136.00, 
2137.00, 
2138.00, 
2139.00, 
2140.00, 
2141.00, 
2142.00, 
2143.00, 
2144.00, 
2145.00, 
2146.00, 
2147.00, 
2148.00, 
2149.00, 
2150.00, 
2151.00, 
2152.00, 
2153.00, 
2154.00, 
2155.00, 
2156.00, 
2157.00, 
2158.00, 
2159.00, 
2160.00, 
2161.00, 
2162.00, 
2163.00, 
2164.00, 
2165.00, 
2166.00, 
2167.00, 
2168.00, 
2169.00, 
2170.00, 
2171.00, 
2172.00, 
2173.00, 
2174.00, 
2175.00, 
2176.00, 
2177.00, 
2178.00, 
2179.00, 
2180.00, 
2181.00, 
2182.00, 
2183.00, 
2184.00, 
2185.00, 
2186.00, 
2187.00, 
2188.00, 
2189.00, 
2190.00, 
2191.00, 
2192.00, 
2193.00, 
2194.00, 
2195.00, 
2196.00, 
2197.00, 
2198.00, 
2199.00, 
2200.00, 
2201.00, 
2202.00, 
2203.00, 
2204.00, 
2205.00, 
2206.00, 
2207.00, 
2208.00, 
2209.00, 
2210.00, 
2211.00, 
2212.00, 
2213.00, 
2214.00, 
2215.00, 
2216.00, 
2217.00, 
2218.00, 
2219.00, 
2220.00, 
2221.00, 
2222.00, 
2223.00, 
2224.00, 
2225.00, 
2226.00, 
2227.00, 
2228.00, 
2229.00, 
2230.00, 
2231.00, 
2232.00, 
2233.00, 
2234.00, 
2235.00, 
2236.00, 
2237.00, 
2238.00, 
2239.00, 
2240.00, 
2241.00, 
2242.00, 
2243.00, 
2244.00, 
2245.00, 
2246.00, 
2247.00, 
2248.00, 
2249.00, 
2250.00, 
2251.00, 
2252.00, 
2253.00, 
2254.00, 
2255.00, 
2256.00, 
2257.00, 
2258.00, 
2259.00, 
2260.00, 
2261.00, 
2262.00, 
2263.00, 
2264.00, 
2265.00, 
2266.00, 
2267.00, 
2268.00, 
2269.00, 
2270.00, 
2271.00, 
2272.00, 
2273.00, 
2274.00, 
2275.00, 
2276.00, 
2277.00, 
2278.00, 
2279.00, 
2280.00, 
2281.00, 
2282.00, 
2283.00, 
2284.00, 
2285.00, 
2286.00, 
2287.00, 
2288.00, 
2289.00, 
2290.00, 
2291.00, 
2292.00, 
2293.00, 
2294.00, 
2295.00, 
2296.00, 
2297.00, 
2298.00, 
2299.00, 
2300.00, 
2301.00, 
2302.00, 
2303.00, 
2304.00, 
2305.00, 
2306.00, 
2307.00, 
2308.00, 
2309.00, 
2310.00, 
2311.00, 
2312.00, 
2313.00, 
2314.00, 
2315.00, 
2316.00, 
2317.00, 
2318.00, 
2319.00, 
2320.00, 
2321.00, 
2322.00, 
2323.00, 
2324.00, 
2325.00, 
2326.00, 
2327.00, 
2328.00, 
2329.00, 
2330.00, 
2331.00, 
2332.00, 
2333.00, 
2334.00, 
2335.00, 
2336.00, 
2337.00, 
2338.00, 
2339.00, 
2340.00, 
2341.00, 
2342.00, 
2343.00, 
2344.00, 
2345.00, 
2346.00, 
2347.00, 
2348.00, 
2349.00, 
2350.00, 
2351.00, 
2352.00, 
2353.00, 
2354.00, 
2355.00, 
2356.00, 
2357.00, 
2358.00, 
2359.00, 
2360.00, 
2361.00, 
2362.00, 
2363.00, 
2364.00, 
2365.00, 
2366.00, 
2367.00, 
2368.00, 
2369.00, 
2370.00, 
2371.00, 
2372.00, 
2373.00, 
2374.00, 
2375.00, 
2376.00, 
2377.00, 
2378.00, 
2379.00, 
2380.00, 
2381.00, 
2382.00, 
2383.00, 
2384.00, 
2385.00, 
2386.00, 
2387.00, 
2388.00, 
2389.00, 
2390.00, 
2391.00, 
2392.00, 
2393.00, 
2394.00, 
2395.00, 
2396.00, 
2397.00, 
2398.00, 
2399.00, 
2400.00, 
2401.00, 
2402.00, 
2403.00, 
2404.00, 
2405.00, 
2406.00, 
2407.00, 
2408.00, 
2409.00, 
2410.00, 
2411.00, 
2412.00, 
2413.00, 
2414.00, 
2415.00, 
2416.00, 
2417.00, 
2418.00, 
2419.00, 
2420.00, 
2421.00, 
2422.00, 
2423.00, 
2424.00, 
2425.00, 
2426.00, 
2427.00, 
2428.00, 
2429.00, 
2430.00, 
2431.00, 
2432.00, 
2433.00, 
2434.00, 
2435.00, 
2436.00, 
2437.00, 
2438.00, 
2439.00, 
2440.00, 
2441.00, 
2442.00, 
2443.00, 
2444.00, 
2445.00, 
2446.00, 
2447.00, 
2448.00, 
2449.00, 
2450.00, 
2451.00, 
2452.00, 
2453.00, 
2454.00, 
2455.00, 
2456.00, 
2457.00, 
2458.00, 
2459.00, 
2460.00, 
2461.00, 
2462.00, 
2463.00, 
2464.00, 
2465.00, 
2466.00, 
2467.00, 
2468.00, 
2469.00, 
2470.00, 
2471.00, 
2472.00, 
2473.00, 
2474.00, 
2475.00, 
2476.00, 
2477.00, 
2478.00, 
2479.00, 
2480.00, 
2481.00, 
2482.00, 
2483.00, 
2484.00, 
2485.00, 
2486.00, 
2487.00, 
2488.00, 
2489.00, 
2490.00, 
2491.00, 
2492.00, 
2493.00, 
2494.00, 
2495.00, 
2496.00, 
2497.00, 
2498.00, 
2499.00, 
2500.00, 
2501.00, 
2502.00, 
2503.00, 
2504.00, 
2505.00, 
2506.00, 
2507.00, 
2508.00, 
2509.00, 
2510.00, 
2511.00, 
2512.00, 
2513.00, 
2514.00, 
2515.00, 
2516.00, 
2517.00, 
2518.00, 
2519.00, 
2520.00, 
2521.00, 
2522.00, 
2523.00, 
2524.00, 
2525.00, 
2526.00, 
2527.00, 
2528.00, 
2529.00, 
2530.00, 
2531.00, 
2532.00, 
2533.00, 
2534.00, 
2535.00, 
2536.00, 
2537.00, 
2538.00, 
2539.00, 
2540.00, 
2541.00, 
2542.00, 
2543.00, 
2544.00, 
2545.00, 
2546.00, 
2547.00, 
2548.00, 
2549.00, 
2550.00, 
2551.00, 
2552.00, 
2553.00, 
2554.00, 
2555.00, 
2556.00, 
2557.00, 
2558.00, 
2559.00, 
2560.00, 
2561.00, 
2562.00, 
2563.00, 
2564.00, 
2565.00, 
2566.00, 
2567.00, 
2568.00, 
2569.00, 
2570.00, 
2571.00, 
2572.00, 
2573.00, 
2574.00, 
2575.00, 
2576.00, 
2577.00, 
2578.00, 
2579.00, 
2580.00, 
2581.00, 
2582.00, 
2583.00, 
2584.00, 
2585.00, 
2586.00, 
2587.00, 
2588.00, 
2589.00, 
2590.00, 
2591.00, 
2592.00, 
2593.00, 
2594.00, 
2595.00, 
2596.00, 
2597.00, 
2598.00, 
2599.00, 
2600.00, 
