"2cP4 - RawData"
"Wavelength nm.","T%"
200.00,0.002
201.00,0.000
202.00,0.003
203.00,-0.003
204.00,0.004
205.00,0.001
206.00,0.003
207.00,0.004
208.00,0.001
209.00,0.002
210.00,0.000
211.00,0.002
212.00,-0.000
213.00,-0.000
214.00,0.001
215.00,0.000
216.00,0.001
217.00,0.002
218.00,-0.001
219.00,0.003
220.00,0.003
221.00,0.000
222.00,0.004
223.00,0.000
224.00,-0.000
225.00,-0.000
226.00,0.000
227.00,0.002
228.00,0.002
229.00,0.001
230.00,0.001
231.00,0.002
232.00,-0.000
233.00,0.001
234.00,0.002
235.00,0.000
236.00,0.001
237.00,0.000
238.00,0.000
239.00,0.000
240.00,0.000
241.00,0.000
242.00,0.001
243.00,0.001
244.00,0.000
245.00,0.000
246.00,0.000
247.00,0.001
248.00,0.002
249.00,0.000
250.00,0.003
251.00,0.002
252.00,-0.000
253.00,-0.001
254.00,-0.001
255.00,0.002
256.00,0.002
257.00,-0.000
258.00,-0.000
259.00,0.001
260.00,-0.001
261.00,0.002
262.00,-0.000
263.00,0.000
264.00,-0.001
265.00,-0.001
266.00,0.002
267.00,0.002
268.00,0.002
269.00,-0.001
270.00,0.001
271.00,-0.001
272.00,-0.002
273.00,-0.001
274.00,0.000
275.00,0.000
276.00,0.001
277.00,0.001
278.00,-0.000
279.00,0.001
280.00,0.001
281.00,0.001
282.00,-0.001
283.00,0.000
284.00,-0.001
285.00,0.001
286.00,0.000
287.00,0.001
288.00,-0.000
289.00,-0.001
290.00,0.002
291.00,0.001
292.00,0.001
293.00,0.001
294.00,-0.000
295.00,-0.002
296.00,0.001
297.00,0.001
298.00,0.001
299.00,0.002
300.00,0.001
301.00,0.003
302.00,0.005
303.00,0.007
304.00,0.008
305.00,0.017
306.00,0.024
307.00,0.036
308.00,0.058
309.00,0.089
310.00,0.125
311.00,0.166
312.00,0.230
313.00,0.307
314.00,0.402
315.00,0.519
316.00,0.666
317.00,0.844
318.00,1.038
319.00,1.274
320.00,1.551
321.00,1.866
322.00,2.191
323.00,2.584
324.00,2.998
325.00,3.422
326.00,3.844
327.00,4.349
328.00,4.842
329.00,5.352
330.00,5.888
331.00,6.409
332.00,6.972
333.00,7.574
334.00,8.134
335.00,8.678
336.00,9.264
337.00,9.843
338.00,10.356
339.00,10.892
340.00,11.418
341.00,11.909
342.00,12.442
343.00,12.869
344.00,13.323
345.00,13.746
346.00,14.168
347.00,14.531
348.00,14.895
349.00,15.242
350.00,15.546
351.00,15.849
352.00,16.080
353.00,16.332
354.00,16.584
355.00,16.816
356.00,17.048
357.00,17.214
358.00,17.371
359.00,17.576
360.00,17.738
361.00,17.860
362.00,18.003
363.00,18.129
364.00,18.201
365.00,18.231
366.00,18.350
367.00,18.392
368.00,18.428
369.00,18.466
370.00,18.532
371.00,18.527
372.00,18.523
373.00,18.520
374.00,18.509
375.00,18.513
376.00,18.457
377.00,18.402
378.00,18.375
379.00,18.306
380.00,18.300
381.00,18.278
382.00,18.240
383.00,18.250
384.00,18.247
385.00,18.289
386.00,18.296
387.00,18.311
388.00,18.353
389.00,18.347
390.00,18.363
391.00,18.368
392.00,18.390
393.00,18.373
394.00,18.396
395.00,18.415
396.00,18.414
397.00,18.399
398.00,18.404
399.00,18.375
400.00,18.391
401.00,18.381
402.00,18.384
403.00,18.375
404.00,18.361
405.00,18.367
406.00,18.348
407.00,18.345
408.00,18.296
409.00,18.283
410.00,18.249
411.00,18.259
412.00,18.235
413.00,18.236
414.00,18.258
415.00,18.267
416.00,18.291
417.00,18.274
418.00,18.312
419.00,18.360
420.00,18.412
421.00,18.444
422.00,18.469
423.00,18.524
424.00,18.568
425.00,18.584
426.00,18.625
427.00,18.687
428.00,18.709
429.00,18.754
430.00,18.786
431.00,18.865
432.00,18.883
433.00,18.937
434.00,19.026
435.00,19.085
436.00,19.134
437.00,19.196
438.00,19.282
439.00,19.334
440.00,19.447
441.00,19.501
442.00,19.591
443.00,19.698
444.00,19.786
445.00,19.885
446.00,19.960
447.00,20.032
448.00,20.151
449.00,20.278
450.00,20.339
451.00,20.421
452.00,20.552
453.00,20.640
454.00,20.792
455.00,20.887
456.00,20.993
457.00,21.098
458.00,21.243
459.00,21.370
460.00,21.519
461.00,21.620
462.00,21.750
463.00,21.858
464.00,22.018
465.00,22.166
466.00,22.307
467.00,22.465
468.00,22.550
469.00,22.642
470.00,22.753
471.00,22.868
472.00,22.980
473.00,23.088
474.00,23.219
475.00,23.342
476.00,23.455
477.00,23.583
478.00,23.711
479.00,23.881
480.00,24.039
481.00,24.175
482.00,24.329
483.00,24.488
484.00,24.621
485.00,24.769
486.00,24.942
487.00,25.083
488.00,25.251
489.00,25.386
490.00,25.574
491.00,25.714
492.00,25.865
493.00,26.053
494.00,26.198
495.00,26.254
496.00,26.511
497.00,26.508
498.00,26.630
499.00,26.747
500.00,26.954
501.00,26.981
502.00,27.228
503.00,27.330
504.00,27.392
505.00,27.536
506.00,27.690
507.00,27.771
508.00,27.938
509.00,28.086
510.00,28.225
511.00,28.336
512.00,28.488
513.00,28.608
514.00,28.700
515.00,28.908
516.00,28.967
517.00,29.090
518.00,29.245
519.00,29.276
520.00,29.336
521.00,29.488
522.00,29.622
523.00,29.628
524.00,29.758
525.00,29.904
526.00,30.005
527.00,30.044
528.00,30.104
529.00,30.324
530.00,30.444
531.00,30.565
532.00,30.684
533.00,30.778
534.00,30.866
535.00,30.950
536.00,31.027
537.00,31.108
538.00,31.187
539.00,31.222
540.00,31.315
541.00,31.397
542.00,31.438
543.00,31.550
544.00,31.606
545.00,31.669
546.00,31.723
547.00,31.865
548.00,31.916
549.00,31.985
550.00,32.119
551.00,32.154
552.00,32.264
553.00,32.278
554.00,32.319
555.00,32.442
556.00,32.490
557.00,32.525
558.00,32.536
559.00,32.677
560.00,32.777
561.00,32.831
562.00,32.908
563.00,32.933
564.00,32.966
565.00,33.012
566.00,33.048
567.00,33.117
568.00,33.174
569.00,33.214
570.00,33.260
571.00,33.340
572.00,33.335
573.00,33.317
574.00,33.408
575.00,33.400
576.00,33.478
577.00,33.581
578.00,33.596
579.00,33.628
580.00,33.705
581.00,33.896
582.00,33.878
583.00,33.853
584.00,34.063
585.00,34.098
586.00,34.134
587.00,34.250
588.00,34.278
589.00,34.242
590.00,34.387
591.00,34.434
592.00,34.432
593.00,34.429
594.00,34.525
595.00,34.635
596.00,34.676
597.00,34.755
598.00,34.869
599.00,34.847
600.00,34.854
601.00,34.940
602.00,34.882
603.00,34.977
604.00,35.061
605.00,35.148
606.00,35.152
607.00,35.153
608.00,35.359
609.00,35.450
610.00,35.295
611.00,35.342
612.00,35.476
613.00,35.512
614.00,35.556
615.00,35.645
616.00,35.746
617.00,35.772
618.00,35.768
619.00,35.825
620.00,35.927
621.00,35.997
622.00,36.043
623.00,36.123
624.00,36.219
625.00,36.280
626.00,36.319
627.00,36.420
628.00,36.453
629.00,36.546
630.00,36.625
631.00,36.687
632.00,36.779
633.00,36.896
634.00,36.998
635.00,37.048
636.00,37.189
637.00,37.228
638.00,37.282
639.00,37.418
640.00,37.447
641.00,37.582
642.00,37.676
643.00,37.720
644.00,37.814
645.00,37.870
646.00,38.046
647.00,38.069
648.00,38.148
649.00,38.209
650.00,38.312
651.00,38.494
652.00,38.606
653.00,38.596
654.00,38.658
655.00,38.888
656.00,39.103
657.00,39.181
658.00,39.456
659.00,38.523
660.00,39.471
661.00,39.518
662.00,39.524
663.00,39.683
664.00,39.880
665.00,40.059
666.00,40.041
667.00,40.124
668.00,40.206
669.00,40.416
670.00,40.670
671.00,40.538
672.00,40.637
673.00,40.828
674.00,40.895
675.00,40.848
676.00,41.218
677.00,41.341
678.00,41.301
679.00,41.358
680.00,41.580
681.00,41.751
682.00,41.764
683.00,41.786
684.00,42.050
685.00,42.190
686.00,42.058
687.00,42.232
688.00,42.272
689.00,42.329
690.00,42.723
691.00,42.923
692.00,42.763
693.00,42.840
694.00,43.016
695.00,43.239
696.00,43.249
697.00,43.253
698.00,43.353
699.00,43.623
700.00,43.675
701.00,43.705
702.00,43.790
703.00,44.075
704.00,44.128
705.00,44.126
706.00,44.160
707.00,44.282
708.00,44.243
709.00,44.686
710.00,45.026
711.00,44.631
712.00,44.703
713.00,44.923
714.00,45.020
715.00,45.081
716.00,45.098
717.00,45.223
718.00,45.407
719.00,45.412
720.00,45.513
721.00,50.056
722.00,49.948
723.00,50.066
724.00,50.104
725.00,50.179
726.00,50.195
727.00,50.223
728.00,50.255
729.00,50.325
730.00,50.389
731.00,50.412
732.00,50.495
733.00,50.557
734.00,50.478
735.00,50.705
736.00,50.687
737.00,50.663
738.00,50.834
739.00,50.805
740.00,50.945
741.00,50.930
742.00,50.998
743.00,51.067
744.00,51.018
745.00,50.994
746.00,51.075
747.00,51.125
748.00,51.068
749.00,51.114
750.00,51.173
751.00,51.115
752.00,51.252
753.00,51.239
754.00,51.276
755.00,51.253
756.00,51.309
757.00,51.254
758.00,51.343
759.00,51.403
760.00,51.397
761.00,51.474
762.00,51.494
763.00,51.491
764.00,51.571
765.00,51.549
766.00,51.644
767.00,51.566
768.00,51.548
769.00,51.620
770.00,51.678
771.00,51.750
772.00,51.787
773.00,51.715
774.00,51.777
775.00,51.876
776.00,51.843
777.00,51.813
778.00,51.792
779.00,51.936
780.00,51.806
781.00,51.821
782.00,51.857
783.00,51.898
784.00,51.918
785.00,51.872
786.00,51.915
787.00,51.859
788.00,51.938
789.00,51.906
790.00,51.880
791.00,51.935
792.00,51.890
793.00,51.826
794.00,51.875
795.00,51.862
796.00,51.939
797.00,51.864
798.00,51.938
799.00,51.770
800.00,51.838
801.00,51.883
802.00,51.933
803.00,51.937
804.00,51.784
805.00,51.841
806.00,51.793
807.00,51.884
808.00,51.828
809.00,51.804
810.00,51.801
811.00,51.832
812.00,51.795
813.00,51.783
814.00,51.805
815.00,51.807
816.00,51.816
817.00,51.801
818.00,51.776
819.00,51.772
820.00,51.799
821.00,51.782
822.00,51.715
823.00,51.679
824.00,51.692
825.00,51.599
826.00,51.760
827.00,51.782
828.00,51.734
829.00,51.663
830.00,51.673
831.00,53.832
832.00,53.801
833.00,53.773
834.00,53.793
835.00,53.745
836.00,53.786
837.00,53.728
838.00,53.720
839.00,53.727
840.00,53.647
841.00,53.667
842.00,53.639
843.00,53.602
844.00,53.637
845.00,53.617
846.00,53.641
847.00,53.614
848.00,53.555
849.00,53.555
850.00,53.490
851.00,53.493
852.00,53.490
853.00,53.400
854.00,53.412
855.00,53.327
856.00,53.409
857.00,53.309
858.00,53.277
859.00,53.278
860.00,53.310
861.00,53.307
862.00,53.257
863.00,53.251
864.00,53.220
865.00,53.204
866.00,53.177
867.00,53.189
868.00,53.199
869.00,53.177
870.00,53.173
871.00,53.177
872.00,53.150
873.00,53.152
874.00,53.135
875.00,53.136
876.00,53.110
877.00,53.036
878.00,53.186
879.00,53.059
880.00,53.086
881.00,53.055
882.00,53.054
883.00,53.049
884.00,53.026
885.00,52.992
886.00,52.999
887.00,53.003
888.00,52.962
889.00,52.918
890.00,52.912
891.00,52.970
892.00,52.895
893.00,52.856
894.00,52.857
895.00,52.814
896.00,52.800
897.00,52.784
898.00,52.759
899.00,52.737
900.00,52.741
901.00,52.772
902.00,52.730
903.00,52.608
904.00,52.690
905.00,52.684
906.00,52.682
907.00,52.657
908.00,52.644
909.00,52.603
910.00,52.597
911.00,52.553
912.00,52.595
913.00,52.530
914.00,52.504
915.00,52.463
916.00,52.472
917.00,52.406
918.00,52.441
919.00,52.405
920.00,52.396
921.00,52.391
922.00,52.371
923.00,52.350
924.00,52.333
925.00,52.323
926.00,52.302
927.00,52.278
928.00,52.237
929.00,52.279
930.00,52.247
931.00,52.209
932.00,52.136
933.00,52.274
934.00,52.183
935.00,52.146
936.00,52.113
937.00,52.116
938.00,52.116
939.00,52.084
940.00,52.043
941.00,52.053
942.00,52.002
943.00,51.998
944.00,51.969
945.00,51.995
946.00,51.954
947.00,51.911
948.00,51.920
949.00,51.897
950.00,51.866
951.00,51.856
952.00,51.827
953.00,51.790
954.00,51.785
955.00,51.757
956.00,51.748
957.00,51.684
958.00,51.692
959.00,51.646
960.00,51.638
961.00,51.616
962.00,51.619
963.00,51.574
964.00,51.578
965.00,51.563
966.00,51.566
967.00,51.556
968.00,51.547
969.00,51.567
970.00,51.546
971.00,51.545
972.00,51.526
973.00,51.574
974.00,51.571
975.00,51.544
976.00,51.566
977.00,51.562
978.00,51.593
979.00,51.540
980.00,51.550
981.00,51.551
982.00,51.525
983.00,51.528
984.00,51.525
985.00,51.525
986.00,51.497
987.00,51.515
988.00,51.483
989.00,51.488
990.00,51.474
991.00,51.459
992.00,51.475
993.00,51.444
994.00,51.418
995.00,51.410
996.00,51.410
997.00,51.391
998.00,51.373
999.00,51.389
1000.00,51.339
1001.00,51.338
1002.00,51.326
1003.00,51.336
1004.00,51.300
1005.00,51.276
1006.00,51.329
1007.00,51.298
1008.00,51.270
1009.00,51.251
1010.00,51.245
1011.00,51.219
1012.00,51.190
1013.00,51.191
1014.00,51.167
1015.00,51.175
1016.00,51.138
1017.00,51.148
1018.00,51.127
1019.00,51.094
1020.00,51.098
1021.00,51.085
1022.00,51.092
1023.00,51.043
1024.00,51.044
1025.00,51.020
1026.00,51.005
1027.00,50.966
1028.00,50.960
1029.00,50.950
1030.00,50.919
1031.00,50.937
1032.00,50.905
1033.00,50.912
1034.00,50.876
1035.00,50.830
1036.00,50.812
1037.00,50.794
1038.00,50.760
1039.00,50.735
1040.00,50.735
1041.00,50.689
1042.00,50.689
1043.00,50.677
1044.00,50.705
1045.00,50.701
1046.00,50.686
1047.00,50.720
1048.00,50.710
1049.00,50.716
1050.00,50.718
1051.00,50.752
1052.00,50.745
1053.00,50.746
1054.00,50.746
1055.00,50.778
1056.00,50.784
1057.00,50.790
1058.00,50.760
1059.00,50.765
1060.00,50.755
1061.00,50.745
1062.00,50.731
1063.00,50.739
1064.00,50.736
1065.00,50.718
1066.00,50.723
1067.00,50.725
1068.00,50.732
1069.00,50.694
1070.00,50.674
1071.00,50.654
1072.00,50.668
1073.00,50.642
1074.00,50.633
1075.00,50.627
1076.00,50.637
1077.00,50.629
1078.00,50.615
1079.00,50.598
1080.00,50.618
1081.00,50.600
1082.00,50.582
1083.00,50.580
1084.00,50.568
1085.00,50.564
1086.00,50.545
1087.00,50.555
1088.00,50.543
1089.00,50.515
1090.00,50.513
1091.00,50.517
1092.00,50.508
1093.00,50.492
1094.00,50.475
1095.00,50.479
1096.00,50.453
1097.00,50.450
1098.00,50.438
1099.00,50.437
1100.00,50.429
1101.00,50.436
1102.00,50.394
1103.00,50.386
1104.00,50.375
1105.00,50.370
1106.00,50.366
1107.00,50.356
1108.00,50.348
1109.00,50.340
1110.00,50.343
1111.00,50.328
1112.00,50.302
1113.00,50.317
1114.00,50.302
1115.00,50.292
1116.00,50.285
1117.00,50.276
1118.00,50.260
1119.00,50.263
1120.00,50.278
1121.00,50.269
1122.00,50.239
1123.00,50.249
1124.00,50.242
1125.00,50.223
1126.00,50.201
1127.00,50.209
1128.00,50.183
1129.00,50.150
1130.00,50.150
1131.00,50.161
1132.00,50.165
1133.00,50.168
1134.00,50.146
1135.00,50.125
1136.00,50.124
1137.00,50.143
1138.00,50.144
1139.00,50.158
1140.00,50.138
1141.00,50.125
1142.00,50.121
1143.00,50.111
1144.00,50.097
1145.00,50.080
1146.00,50.089
1147.00,50.083
1148.00,50.052
1149.00,50.080
1150.00,50.072
1151.00,50.072
1152.00,50.064
1153.00,50.056
1154.00,50.040
1155.00,50.050
1156.00,50.027
1157.00,50.041
1158.00,50.023
1159.00,50.030
1160.00,50.033
1161.00,50.049
1162.00,50.051
1163.00,50.031
1164.00,50.040
1165.00,50.036
1166.00,50.042
1167.00,50.030
1168.00,50.038
1169.00,50.020
1170.00,50.012
1171.00,50.002
1172.00,50.004
1173.00,49.991
1174.00,49.999
1175.00,50.002
1176.00,50.002
1177.00,49.988
1178.00,49.997
1179.00,50.019
1180.00,49.987
1181.00,50.001
1182.00,49.994
1183.00,49.984
1184.00,49.971
1185.00,49.986
1186.00,49.975
1187.00,49.964
1188.00,49.957
1189.00,49.950
1190.00,49.949
1191.00,49.938
1192.00,49.946
1193.00,49.943
1194.00,49.944
1195.00,49.924
1196.00,49.957
1197.00,49.964
1198.00,49.947
1199.00,49.935
1200.00,49.947
1201.00,49.963
1202.00,49.934
1203.00,49.923
1204.00,49.915
1205.00,49.914
1206.00,49.900
1207.00,49.921
1208.00,49.918
1209.00,49.928
1210.00,49.942
1211.00,49.936
1212.00,49.955
1213.00,49.906
1214.00,49.924
1215.00,49.915
1216.00,49.918
1217.00,49.917
1218.00,49.901
1219.00,49.927
1220.00,49.902
1221.00,49.927
1222.00,49.913
1223.00,49.934
1224.00,49.930
1225.00,49.915
1226.00,49.922
1227.00,49.906
1228.00,49.927
1229.00,49.931
1230.00,49.948
1231.00,49.954
1232.00,49.974
1233.00,49.968
1234.00,49.953
1235.00,49.949
1236.00,49.946
1237.00,49.953
1238.00,49.968
1239.00,49.974
1240.00,49.959
1241.00,49.962
1242.00,49.977
1243.00,49.975
1244.00,49.942
1245.00,49.966
1246.00,49.942
1247.00,49.930
1248.00,49.946
1249.00,49.983
1250.00,49.999
1251.00,49.992
1252.00,50.006
1253.00,49.980
1254.00,50.014
1255.00,50.000
1256.00,49.990
1257.00,49.959
1258.00,49.999
1259.00,50.003
1260.00,50.013
1261.00,50.017
1262.00,50.008
1263.00,50.010
1264.00,50.022
1265.00,50.018
1266.00,50.023
1267.00,50.039
1268.00,50.048
1269.00,50.035
1270.00,50.059
1271.00,50.047
1272.00,50.049
1273.00,50.070
1274.00,50.068
1275.00,50.080
1276.00,50.075
1277.00,50.063
1278.00,50.058
1279.00,50.060
1280.00,50.041
1281.00,50.065
1282.00,50.086
1283.00,50.119
1284.00,50.083
1285.00,50.076
1286.00,50.099
1287.00,50.092
1288.00,50.089
1289.00,50.090
1290.00,50.116
1291.00,50.100
1292.00,50.132
1293.00,50.122
1294.00,50.132
1295.00,50.150
1296.00,50.177
1297.00,50.168
1298.00,50.202
1299.00,50.175
1300.00,50.181
1301.00,50.168
1302.00,50.176
1303.00,50.180
1304.00,50.152
1305.00,50.184
1306.00,50.207
1307.00,50.200
1308.00,50.202
1309.00,50.224
1310.00,50.223
1311.00,50.194
1312.00,50.212
1313.00,50.231
1314.00,50.234
1315.00,50.238
1316.00,50.220
1317.00,50.256
1318.00,50.261
1319.00,50.271
1320.00,50.266
1321.00,50.435
1322.00,50.429
1323.00,50.405
1324.00,50.398
1325.00,50.397
1326.00,50.420
1327.00,50.406
1328.00,50.406
1329.00,50.415
1330.00,50.408
1331.00,50.417
1332.00,50.416
1333.00,50.405
1334.00,50.432
1335.00,50.451
1336.00,50.483
1337.00,50.504
1338.00,50.557
1339.00,50.597
1340.00,50.655
1341.00,50.715
1342.00,50.788
1343.00,50.844
1344.00,50.876
1345.00,50.947
1346.00,50.979
1347.00,50.993
1348.00,51.021
1349.00,51.047
1350.00,51.069
1351.00,51.071
1352.00,51.083
1353.00,51.049
1354.00,51.093
1355.00,51.033
1356.00,51.114
1357.00,51.108
1358.00,51.108
1359.00,51.135
1360.00,51.165
1361.00,51.141
1362.00,51.017
1363.00,51.163
1364.00,51.163
1365.00,51.100
1366.00,51.147
1367.00,51.116
1368.00,51.065
1369.00,51.124
1370.00,51.114
1371.00,51.069
1372.00,51.076
1373.00,51.090
1374.00,51.116
1375.00,51.095
1376.00,51.089
1377.00,51.085
1378.00,51.120
1379.00,51.071
1380.00,51.076
1381.00,51.085
1382.00,51.044
1383.00,51.057
1384.00,51.021
1385.00,51.011
1386.00,51.117
1387.00,51.006
1388.00,51.060
1389.00,51.016
1390.00,51.126
1391.00,51.038
1392.00,51.028
1393.00,51.141
1394.00,51.078
1395.00,50.992
1396.00,50.979
1397.00,51.046
1398.00,51.173
1399.00,51.115
1400.00,50.922
1401.00,51.034
1402.00,51.201
1403.00,51.092
1404.00,51.071
1405.00,51.140
1406.00,51.137
1407.00,51.145
1408.00,51.103
1409.00,51.107
1410.00,51.150
1411.00,51.156
1412.00,51.201
1413.00,51.108
1414.00,51.113
1415.00,51.182
1416.00,51.178
1417.00,51.221
1418.00,51.169
1419.00,51.163
1420.00,51.214
1421.00,51.276
1422.00,51.258
1423.00,51.268
1424.00,51.267
1425.00,51.281
1426.00,51.295
1427.00,51.294
1428.00,51.290
1429.00,51.325
1430.00,51.337
1431.00,51.345
1432.00,51.366
1433.00,51.378
1434.00,51.357
1435.00,51.426
1436.00,51.435
1437.00,51.413
1438.00,51.431
1439.00,51.467
1440.00,51.463
1441.00,51.457
1442.00,51.475
1443.00,51.503
1444.00,51.560
1445.00,51.495
1446.00,51.517
1447.00,51.561
1448.00,51.624
1449.00,51.581
1450.00,51.571
1451.00,51.589
1452.00,51.625
1453.00,51.645
1454.00,51.664
1455.00,51.679
1456.00,51.690
1457.00,51.686
1458.00,51.718
1459.00,51.732
1460.00,51.759
1461.00,51.777
1462.00,51.804
1463.00,51.797
1464.00,51.832
1465.00,51.830
1466.00,51.828
1467.00,51.853
1468.00,51.908
1469.00,51.881
1470.00,51.879
1471.00,51.896
1472.00,51.916
1473.00,51.907
1474.00,51.951
1475.00,51.974
1476.00,51.970
1477.00,51.966
1478.00,51.990
1479.00,52.029
1480.00,52.011
1481.00,52.008
1482.00,52.053
1483.00,52.062
1484.00,52.065
1485.00,52.069
1486.00,52.090
1487.00,52.106
1488.00,52.124
1489.00,52.116
1490.00,52.137
1491.00,52.143
1492.00,52.157
1493.00,52.145
1494.00,52.177
1495.00,52.154
1496.00,52.188
1497.00,52.180
1498.00,52.195
1499.00,52.221
1500.00,52.251
1501.00, 
1502.00, 
1503.00, 
1504.00, 
1505.00, 
1506.00, 
1507.00, 
1508.00, 
1509.00, 
1510.00, 
1511.00, 
1512.00, 
1513.00, 
1514.00, 
1515.00, 
1516.00, 
1517.00, 
1518.00, 
1519.00, 
1520.00, 
1521.00, 
1522.00, 
1523.00, 
1524.00, 
1525.00, 
1526.00, 
1527.00, 
1528.00, 
1529.00, 
1530.00, 
1531.00, 
1532.00, 
1533.00, 
1534.00, 
1535.00, 
1536.00, 
1537.00, 
1538.00, 
1539.00, 
1540.00, 
1541.00, 
1542.00, 
1543.00, 
1544.00, 
1545.00, 
1546.00, 
1547.00, 
1548.00, 
1549.00, 
1550.00, 
1551.00, 
1552.00, 
1553.00, 
1554.00, 
1555.00, 
1556.00, 
1557.00, 
1558.00, 
1559.00, 
1560.00, 
1561.00, 
1562.00, 
1563.00, 
1564.00, 
1565.00, 
1566.00, 
1567.00, 
1568.00, 
1569.00, 
1570.00, 
1571.00, 
1572.00, 
1573.00, 
1574.00, 
1575.00, 
1576.00, 
1577.00, 
1578.00, 
1579.00, 
1580.00, 
1581.00, 
1582.00, 
1583.00, 
1584.00, 
1585.00, 
1586.00, 
1587.00, 
1588.00, 
1589.00, 
1590.00, 
1591.00, 
1592.00, 
1593.00, 
1594.00, 
1595.00, 
1596.00, 
1597.00, 
1598.00, 
1599.00, 
1600.00, 
1601.00, 
1602.00, 
1603.00, 
1604.00, 
1605.00, 
1606.00, 
1607.00, 
1608.00, 
1609.00, 
1610.00, 
1611.00, 
1612.00, 
1613.00, 
1614.00, 
1615.00, 
1616.00, 
1617.00, 
1618.00, 
1619.00, 
1620.00, 
1621.00, 
1622.00, 
1623.00, 
1624.00, 
1625.00, 
1626.00, 
1627.00, 
1628.00, 
1629.00, 
1630.00, 
1631.00, 
1632.00, 
1633.00, 
1634.00, 
1635.00, 
1636.00, 
1637.00, 
1638.00, 
1639.00, 
1640.00, 
1641.00, 
1642.00, 
1643.00, 
1644.00, 
1645.00, 
1646.00, 
1647.00, 
1648.00, 
1649.00, 
1650.00, 
1651.00, 
1652.00, 
1653.00, 
1654.00, 
1655.00, 
1656.00, 
1657.00, 
1658.00, 
1659.00, 
1660.00, 
1661.00, 
1662.00, 
1663.00, 
1664.00, 
1665.00, 
1666.00, 
1667.00, 
1668.00, 
1669.00, 
1670.00, 
1671.00, 
1672.00, 
1673.00, 
1674.00, 
1675.00, 
1676.00, 
1677.00, 
1678.00, 
1679.00, 
1680.00, 
1681.00, 
1682.00, 
1683.00, 
1684.00, 
1685.00, 
1686.00, 
1687.00, 
1688.00, 
1689.00, 
1690.00, 
1691.00, 
1692.00, 
1693.00, 
1694.00, 
1695.00, 
1696.00, 
1697.00, 
1698.00, 
1699.00, 
1700.00, 
1701.00, 
1702.00, 
1703.00, 
1704.00, 
1705.00, 
1706.00, 
1707.00, 
1708.00, 
1709.00, 
1710.00, 
1711.00, 
1712.00, 
1713.00, 
1714.00, 
1715.00, 
1716.00, 
1717.00, 
1718.00, 
1719.00, 
1720.00, 
1721.00, 
1722.00, 
1723.00, 
1724.00, 
1725.00, 
1726.00, 
1727.00, 
1728.00, 
1729.00, 
1730.00, 
1731.00, 
1732.00, 
1733.00, 
1734.00, 
1735.00, 
1736.00, 
1737.00, 
1738.00, 
1739.00, 
1740.00, 
1741.00, 
1742.00, 
1743.00, 
1744.00, 
1745.00, 
1746.00, 
1747.00, 
1748.00, 
1749.00, 
1750.00, 
1751.00, 
1752.00, 
1753.00, 
1754.00, 
1755.00, 
1756.00, 
1757.00, 
1758.00, 
1759.00, 
1760.00, 
1761.00, 
1762.00, 
1763.00, 
1764.00, 
1765.00, 
1766.00, 
1767.00, 
1768.00, 
1769.00, 
1770.00, 
1771.00, 
1772.00, 
1773.00, 
1774.00, 
1775.00, 
1776.00, 
1777.00, 
1778.00, 
1779.00, 
1780.00, 
1781.00, 
1782.00, 
1783.00, 
1784.00, 
1785.00, 
1786.00, 
1787.00, 
1788.00, 
1789.00, 
1790.00, 
1791.00, 
1792.00, 
1793.00, 
1794.00, 
1795.00, 
1796.00, 
1797.00, 
1798.00, 
1799.00, 
1800.00, 
1801.00, 
1802.00, 
1803.00, 
1804.00, 
1805.00, 
1806.00, 
1807.00, 
1808.00, 
1809.00, 
1810.00, 
1811.00, 
1812.00, 
1813.00, 
1814.00, 
1815.00, 
1816.00, 
1817.00, 
1818.00, 
1819.00, 
1820.00, 
1821.00, 
1822.00, 
1823.00, 
1824.00, 
1825.00, 
1826.00, 
1827.00, 
1828.00, 
1829.00, 
1830.00, 
1831.00, 
1832.00, 
1833.00, 
1834.00, 
1835.00, 
1836.00, 
1837.00, 
1838.00, 
1839.00, 
1840.00, 
1841.00, 
1842.00, 
1843.00, 
1844.00, 
1845.00, 
1846.00, 
1847.00, 
1848.00, 
1849.00, 
1850.00, 
1851.00, 
1852.00, 
1853.00, 
1854.00, 
1855.00, 
1856.00, 
1857.00, 
1858.00, 
1859.00, 
1860.00, 
1861.00, 
1862.00, 
1863.00, 
1864.00, 
1865.00, 
1866.00, 
1867.00, 
1868.00, 
1869.00, 
1870.00, 
1871.00, 
1872.00, 
1873.00, 
1874.00, 
1875.00, 
1876.00, 
1877.00, 
1878.00, 
1879.00, 
1880.00, 
1881.00, 
1882.00, 
1883.00, 
1884.00, 
1885.00, 
1886.00, 
1887.00, 
1888.00, 
1889.00, 
1890.00, 
1891.00, 
1892.00, 
1893.00, 
1894.00, 
1895.00, 
1896.00, 
1897.00, 
1898.00, 
1899.00, 
1900.00, 
1901.00, 
1902.00, 
1903.00, 
1904.00, 
1905.00, 
1906.00, 
1907.00, 
1908.00, 
1909.00, 
1910.00, 
1911.00, 
1912.00, 
1913.00, 
1914.00, 
1915.00, 
1916.00, 
1917.00, 
1918.00, 
1919.00, 
1920.00, 
1921.00, 
1922.00, 
1923.00, 
1924.00, 
1925.00, 
1926.00, 
1927.00, 
1928.00, 
1929.00, 
1930.00, 
1931.00, 
1932.00, 
1933.00, 
1934.00, 
1935.00, 
1936.00, 
1937.00, 
1938.00, 
1939.00, 
1940.00, 
1941.00, 
1942.00, 
1943.00, 
1944.00, 
1945.00, 
1946.00, 
1947.00, 
1948.00, 
1949.00, 
1950.00, 
1951.00, 
1952.00, 
1953.00, 
1954.00, 
1955.00, 
1956.00, 
1957.00, 
1958.00, 
1959.00, 
1960.00, 
1961.00, 
1962.00, 
1963.00, 
1964.00, 
1965.00, 
1966.00, 
1967.00, 
1968.00, 
1969.00, 
1970.00, 
1971.00, 
1972.00, 
1973.00, 
1974.00, 
1975.00, 
1976.00, 
1977.00, 
1978.00, 
1979.00, 
1980.00, 
1981.00, 
1982.00, 
1983.00, 
1984.00, 
1985.00, 
1986.00, 
1987.00, 
1988.00, 
1989.00, 
1990.00, 
1991.00, 
1992.00, 
1993.00, 
1994.00, 
1995.00, 
1996.00, 
1997.00, 
1998.00, 
1999.00, 
2000.00, 
2001.00, 
2002.00, 
2003.00, 
2004.00, 
2005.00, 
2006.00, 
2007.00, 
2008.00, 
2009.00, 
2010.00, 
2011.00, 
2012.00, 
2013.00, 
2014.00, 
2015.00, 
2016.00, 
2017.00, 
2018.00, 
2019.00, 
2020.00, 
2021.00, 
2022.00, 
2023.00, 
2024.00, 
2025.00, 
2026.00, 
2027.00, 
2028.00, 
2029.00, 
2030.00, 
2031.00, 
2032.00, 
2033.00, 
2034.00, 
2035.00, 
2036.00, 
2037.00, 
2038.00, 
2039.00, 
2040.00, 
2041.00, 
2042.00, 
2043.00, 
2044.00, 
2045.00, 
2046.00, 
2047.00, 
2048.00, 
2049.00, 
2050.00, 
2051.00, 
2052.00, 
2053.00, 
2054.00, 
2055.00, 
2056.00, 
2057.00, 
2058.00, 
2059.00, 
2060.00, 
2061.00, 
2062.00, 
2063.00, 
2064.00, 
2065.00, 
2066.00, 
2067.00, 
2068.00, 
2069.00, 
2070.00, 
2071.00, 
2072.00, 
2073.00, 
2074.00, 
2075.00, 
2076.00, 
2077.00, 
2078.00, 
2079.00, 
2080.00, 
2081.00, 
2082.00, 
2083.00, 
2084.00, 
2085.00, 
2086.00, 
2087.00, 
2088.00, 
2089.00, 
2090.00, 
2091.00, 
2092.00, 
2093.00, 
2094.00, 
2095.00, 
2096.00, 
2097.00, 
2098.00, 
2099.00, 
2100.00, 
2101.00, 
2102.00, 
2103.00, 
2104.00, 
2105.00, 
2106.00, 
2107.00, 
2108.00, 
2109.00, 
2110.00, 
2111.00, 
2112.00, 
2113.00, 
2114.00, 
2115.00, 
2116.00, 
2117.00, 
2118.00, 
2119.00, 
2120.00, 
2121.00, 
2122.00, 
2123.00, 
2124.00, 
2125.00, 
2126.00, 
2127.00, 
2128.00, 
2129.00, 
2130.00, 
2131.00, 
2132.00, 
2133.00, 
2134.00, 
2135.00, 
2136.00, 
2137.00, 
2138.00, 
2139.00, 
2140.00, 
2141.00, 
2142.00, 
2143.00, 
2144.00, 
2145.00, 
2146.00, 
2147.00, 
2148.00, 
2149.00, 
2150.00, 
2151.00, 
2152.00, 
2153.00, 
2154.00, 
2155.00, 
2156.00, 
2157.00, 
2158.00, 
2159.00, 
2160.00, 
2161.00, 
2162.00, 
2163.00, 
2164.00, 
2165.00, 
2166.00, 
2167.00, 
2168.00, 
2169.00, 
2170.00, 
2171.00, 
2172.00, 
2173.00, 
2174.00, 
2175.00, 
2176.00, 
2177.00, 
2178.00, 
2179.00, 
2180.00, 
2181.00, 
2182.00, 
2183.00, 
2184.00, 
2185.00, 
2186.00, 
2187.00, 
2188.00, 
2189.00, 
2190.00, 
2191.00, 
2192.00, 
2193.00, 
2194.00, 
2195.00, 
2196.00, 
2197.00, 
2198.00, 
2199.00, 
2200.00, 
2201.00, 
2202.00, 
2203.00, 
2204.00, 
2205.00, 
2206.00, 
2207.00, 
2208.00, 
2209.00, 
2210.00, 
2211.00, 
2212.00, 
2213.00, 
2214.00, 
2215.00, 
2216.00, 
2217.00, 
2218.00, 
2219.00, 
2220.00, 
2221.00, 
2222.00, 
2223.00, 
2224.00, 
2225.00, 
2226.00, 
2227.00, 
2228.00, 
2229.00, 
2230.00, 
2231.00, 
2232.00, 
2233.00, 
2234.00, 
2235.00, 
2236.00, 
2237.00, 
2238.00, 
2239.00, 
2240.00, 
2241.00, 
2242.00, 
2243.00, 
2244.00, 
2245.00, 
2246.00, 
2247.00, 
2248.00, 
2249.00, 
2250.00, 
2251.00, 
2252.00, 
2253.00, 
2254.00, 
2255.00, 
2256.00, 
2257.00, 
2258.00, 
2259.00, 
2260.00, 
2261.00, 
2262.00, 
2263.00, 
2264.00, 
2265.00, 
2266.00, 
2267.00, 
2268.00, 
2269.00, 
2270.00, 
2271.00, 
2272.00, 
2273.00, 
2274.00, 
2275.00, 
2276.00, 
2277.00, 
2278.00, 
2279.00, 
2280.00, 
2281.00, 
2282.00, 
2283.00, 
2284.00, 
2285.00, 
2286.00, 
2287.00, 
2288.00, 
2289.00, 
2290.00, 
2291.00, 
2292.00, 
2293.00, 
2294.00, 
2295.00, 
2296.00, 
2297.00, 
2298.00, 
2299.00, 
2300.00, 
2301.00, 
2302.00, 
2303.00, 
2304.00, 
2305.00, 
2306.00, 
2307.00, 
2308.00, 
2309.00, 
2310.00, 
2311.00, 
2312.00, 
2313.00, 
2314.00, 
2315.00, 
2316.00, 
2317.00, 
2318.00, 
2319.00, 
2320.00, 
2321.00, 
2322.00, 
2323.00, 
2324.00, 
2325.00, 
2326.00, 
2327.00, 
2328.00, 
2329.00, 
2330.00, 
2331.00, 
2332.00, 
2333.00, 
2334.00, 
2335.00, 
2336.00, 
2337.00, 
2338.00, 
2339.00, 
2340.00, 
2341.00, 
2342.00, 
2343.00, 
2344.00, 
2345.00, 
2346.00, 
2347.00, 
2348.00, 
2349.00, 
2350.00, 
2351.00, 
2352.00, 
2353.00, 
2354.00, 
2355.00, 
2356.00, 
2357.00, 
2358.00, 
2359.00, 
2360.00, 
2361.00, 
2362.00, 
2363.00, 
2364.00, 
2365.00, 
2366.00, 
2367.00, 
2368.00, 
2369.00, 
2370.00, 
2371.00, 
2372.00, 
2373.00, 
2374.00, 
2375.00, 
2376.00, 
2377.00, 
2378.00, 
2379.00, 
2380.00, 
2381.00, 
2382.00, 
2383.00, 
2384.00, 
2385.00, 
2386.00, 
2387.00, 
2388.00, 
2389.00, 
2390.00, 
2391.00, 
2392.00, 
2393.00, 
2394.00, 
2395.00, 
2396.00, 
2397.00, 
2398.00, 
2399.00, 
2400.00, 
2401.00, 
2402.00, 
2403.00, 
2404.00, 
2405.00, 
2406.00, 
2407.00, 
2408.00, 
2409.00, 
2410.00, 
2411.00, 
2412.00, 
2413.00, 
2414.00, 
2415.00, 
2416.00, 
2417.00, 
2418.00, 
2419.00, 
2420.00, 
2421.00, 
2422.00, 
2423.00, 
2424.00, 
2425.00, 
2426.00, 
2427.00, 
2428.00, 
2429.00, 
2430.00, 
2431.00, 
2432.00, 
2433.00, 
2434.00, 
2435.00, 
2436.00, 
2437.00, 
2438.00, 
2439.00, 
2440.00, 
2441.00, 
2442.00, 
2443.00, 
2444.00, 
2445.00, 
2446.00, 
2447.00, 
2448.00, 
2449.00, 
2450.00, 
2451.00, 
2452.00, 
2453.00, 
2454.00, 
2455.00, 
2456.00, 
2457.00, 
2458.00, 
2459.00, 
2460.00, 
2461.00, 
2462.00, 
2463.00, 
2464.00, 
2465.00, 
2466.00, 
2467.00, 
2468.00, 
2469.00, 
2470.00, 
2471.00, 
2472.00, 
2473.00, 
2474.00, 
2475.00, 
2476.00, 
2477.00, 
2478.00, 
2479.00, 
2480.00, 
2481.00, 
2482.00, 
2483.00, 
2484.00, 
2485.00, 
2486.00, 
2487.00, 
2488.00, 
2489.00, 
2490.00, 
2491.00, 
2492.00, 
2493.00, 
2494.00, 
2495.00, 
2496.00, 
2497.00, 
2498.00, 
2499.00, 
2500.00, 
2501.00, 
2502.00, 
2503.00, 
2504.00, 
2505.00, 
2506.00, 
2507.00, 
2508.00, 
2509.00, 
2510.00, 
2511.00, 
2512.00, 
2513.00, 
2514.00, 
2515.00, 
2516.00, 
2517.00, 
2518.00, 
2519.00, 
2520.00, 
2521.00, 
2522.00, 
2523.00, 
2524.00, 
2525.00, 
2526.00, 
2527.00, 
2528.00, 
2529.00, 
2530.00, 
2531.00, 
2532.00, 
2533.00, 
2534.00, 
2535.00, 
2536.00, 
2537.00, 
2538.00, 
2539.00, 
2540.00, 
2541.00, 
2542.00, 
2543.00, 
2544.00, 
2545.00, 
2546.00, 
2547.00, 
2548.00, 
2549.00, 
2550.00, 
2551.00, 
2552.00, 
2553.00, 
2554.00, 
2555.00, 
2556.00, 
2557.00, 
2558.00, 
2559.00, 
2560.00, 
2561.00, 
2562.00, 
2563.00, 
2564.00, 
2565.00, 
2566.00, 
2567.00, 
2568.00, 
2569.00, 
2570.00, 
2571.00, 
2572.00, 
2573.00, 
2574.00, 
2575.00, 
2576.00, 
2577.00, 
2578.00, 
2579.00, 
2580.00, 
2581.00, 
2582.00, 
2583.00, 
2584.00, 
2585.00, 
2586.00, 
2587.00, 
2588.00, 
2589.00, 
2590.00, 
2591.00, 
2592.00, 
2593.00, 
2594.00, 
2595.00, 
2596.00, 
2597.00, 
2598.00, 
2599.00, 
2600.00, 
