"2cP5 - RawData"
"Wavelength nm.","T%"
200.00,0.002
201.00,0.002
202.00,0.004
203.00,0.001
204.00,0.002
205.00,0.000
206.00,0.002
207.00,0.002
208.00,-0.000
209.00,-0.001
210.00,-0.002
211.00,0.001
212.00,0.003
213.00,-0.001
214.00,0.001
215.00,0.001
216.00,0.003
217.00,-0.001
218.00,-0.002
219.00,0.002
220.00,-0.002
221.00,0.001
222.00,0.002
223.00,0.001
224.00,-0.001
225.00,0.000
226.00,0.001
227.00,-0.002
228.00,0.001
229.00,0.000
230.00,0.001
231.00,0.001
232.00,0.001
233.00,0.002
234.00,-0.000
235.00,0.001
236.00,-0.001
237.00,0.001
238.00,0.001
239.00,-0.001
240.00,0.002
241.00,0.001
242.00,0.001
243.00,0.002
244.00,0.001
245.00,-0.000
246.00,0.000
247.00,0.001
248.00,0.001
249.00,0.001
250.00,-0.001
251.00,-0.001
252.00,0.001
253.00,-0.000
254.00,0.000
255.00,0.001
256.00,-0.000
257.00,-0.001
258.00,0.001
259.00,0.001
260.00,0.000
261.00,-0.000
262.00,-0.000
263.00,0.001
264.00,-0.001
265.00,-0.002
266.00,-0.002
267.00,0.002
268.00,0.000
269.00,-0.000
270.00,0.001
271.00,-0.002
272.00,0.001
273.00,-0.001
274.00,-0.001
275.00,0.000
276.00,0.002
277.00,-0.000
278.00,0.000
279.00,0.001
280.00,-0.001
281.00,-0.000
282.00,0.000
283.00,0.001
284.00,0.001
285.00,-0.001
286.00,-0.000
287.00,0.001
288.00,0.001
289.00,0.001
290.00,0.000
291.00,-0.001
292.00,-0.000
293.00,-0.001
294.00,0.002
295.00,-0.000
296.00,-0.000
297.00,0.001
298.00,0.002
299.00,0.002
300.00,0.001
301.00,0.001
302.00,0.002
303.00,0.006
304.00,0.006
305.00,0.015
306.00,0.023
307.00,0.034
308.00,0.054
309.00,0.085
310.00,0.112
311.00,0.155
312.00,0.212
313.00,0.280
314.00,0.376
315.00,0.486
316.00,0.627
317.00,0.797
318.00,0.976
319.00,1.208
320.00,1.455
321.00,1.743
322.00,2.061
323.00,2.431
324.00,2.826
325.00,3.215
326.00,3.623
327.00,4.112
328.00,4.557
329.00,5.061
330.00,5.541
331.00,6.044
332.00,6.565
333.00,7.148
334.00,7.676
335.00,8.202
336.00,8.744
337.00,9.274
338.00,9.816
339.00,10.182
340.00,10.756
341.00,11.258
342.00,11.678
343.00,12.130
344.00,12.553
345.00,12.998
346.00,13.335
347.00,13.696
348.00,14.034
349.00,14.317
350.00,14.615
351.00,14.878
352.00,15.156
353.00,15.367
354.00,15.599
355.00,15.804
356.00,16.018
357.00,16.191
358.00,16.368
359.00,16.541
360.00,16.688
361.00,16.768
362.00,16.929
363.00,17.056
364.00,17.076
365.00,17.116
366.00,17.214
367.00,17.284
368.00,17.297
369.00,17.333
370.00,17.382
371.00,17.372
372.00,17.363
373.00,17.335
374.00,17.332
375.00,17.320
376.00,17.293
377.00,17.251
378.00,17.152
379.00,17.114
380.00,17.118
381.00,17.108
382.00,17.061
383.00,17.035
384.00,17.054
385.00,17.065
386.00,17.077
387.00,17.120
388.00,17.147
389.00,17.139
390.00,17.146
391.00,17.174
392.00,17.159
393.00,17.140
394.00,17.177
395.00,17.186
396.00,17.165
397.00,17.128
398.00,17.143
399.00,17.131
400.00,17.120
401.00,17.120
402.00,17.141
403.00,17.135
404.00,17.079
405.00,17.097
406.00,17.068
407.00,17.067
408.00,17.074
409.00,17.019
410.00,16.992
411.00,17.011
412.00,16.955
413.00,16.935
414.00,16.973
415.00,16.951
416.00,17.026
417.00,17.013
418.00,17.014
419.00,17.086
420.00,17.131
421.00,17.142
422.00,17.176
423.00,17.226
424.00,17.261
425.00,17.291
426.00,17.298
427.00,17.367
428.00,17.394
429.00,17.451
430.00,17.506
431.00,17.502
432.00,17.523
433.00,17.628
434.00,17.676
435.00,17.779
436.00,17.842
437.00,17.894
438.00,17.990
439.00,18.043
440.00,18.114
441.00,18.213
442.00,18.285
443.00,18.368
444.00,18.486
445.00,18.555
446.00,18.654
447.00,18.717
448.00,18.796
449.00,18.921
450.00,18.986
451.00,19.116
452.00,19.219
453.00,19.352
454.00,19.435
455.00,19.554
456.00,19.678
457.00,19.811
458.00,19.897
459.00,20.033
460.00,20.187
461.00,20.303
462.00,20.415
463.00,20.535
464.00,20.685
465.00,20.812
466.00,20.973
467.00,21.112
468.00,21.183
469.00,21.326
470.00,21.410
471.00,21.548
472.00,21.655
473.00,21.754
474.00,21.896
475.00,21.984
476.00,22.106
477.00,22.253
478.00,22.339
479.00,22.553
480.00,22.661
481.00,22.846
482.00,23.004
483.00,23.168
484.00,23.310
485.00,23.479
486.00,23.638
487.00,23.783
488.00,23.935
489.00,24.104
490.00,24.263
491.00,24.392
492.00,24.539
493.00,24.731
494.00,24.905
495.00,24.985
496.00,25.249
497.00,25.215
498.00,25.349
499.00,25.502
500.00,25.647
501.00,25.777
502.00,25.921
503.00,26.067
504.00,26.147
505.00,26.289
506.00,26.404
507.00,26.514
508.00,26.656
509.00,26.833
510.00,26.932
511.00,27.048
512.00,27.249
513.00,27.433
514.00,27.465
515.00,27.584
516.00,27.722
517.00,27.753
518.00,28.044
519.00,28.019
520.00,28.044
521.00,28.228
522.00,28.363
523.00,28.438
524.00,28.550
525.00,28.677
526.00,28.800
527.00,28.844
528.00,28.911
529.00,29.143
530.00,29.268
531.00,29.386
532.00,29.495
533.00,29.594
534.00,29.667
535.00,29.775
536.00,29.850
537.00,29.962
538.00,30.035
539.00,30.025
540.00,30.174
541.00,30.255
542.00,30.275
543.00,30.327
544.00,30.431
545.00,30.507
546.00,30.601
547.00,30.750
548.00,30.848
549.00,30.858
550.00,30.984
551.00,31.093
552.00,31.153
553.00,31.177
554.00,31.244
555.00,31.316
556.00,31.358
557.00,31.415
558.00,31.499
559.00,31.575
560.00,31.596
561.00,31.744
562.00,31.842
563.00,31.754
564.00,31.822
565.00,31.978
566.00,31.905
567.00,32.033
568.00,32.098
569.00,32.140
570.00,32.174
571.00,32.253
572.00,32.244
573.00,32.233
574.00,32.302
575.00,32.325
576.00,32.401
577.00,32.515
578.00,32.540
579.00,32.564
580.00,32.623
581.00,32.772
582.00,32.856
583.00,32.868
584.00,32.963
585.00,33.020
586.00,33.104
587.00,33.178
588.00,33.192
589.00,33.174
590.00,33.252
591.00,33.303
592.00,33.339
593.00,33.349
594.00,33.455
595.00,33.523
596.00,33.598
597.00,33.643
598.00,33.741
599.00,33.751
600.00,33.769
601.00,33.844
602.00,33.839
603.00,33.895
604.00,33.950
605.00,34.042
606.00,34.039
607.00,34.051
608.00,34.248
609.00,34.361
610.00,34.231
611.00,34.260
612.00,34.400
613.00,34.456
614.00,34.426
615.00,34.584
616.00,34.651
617.00,34.658
618.00,34.646
619.00,34.771
620.00,34.797
621.00,34.874
622.00,34.946
623.00,35.019
624.00,35.124
625.00,35.220
626.00,35.244
627.00,35.337
628.00,35.338
629.00,35.437
630.00,35.488
631.00,35.572
632.00,35.702
633.00,35.778
634.00,35.874
635.00,35.962
636.00,36.081
637.00,36.099
638.00,36.197
639.00,36.313
640.00,36.361
641.00,36.488
642.00,36.602
643.00,36.587
644.00,36.704
645.00,36.794
646.00,36.922
647.00,36.985
648.00,37.121
649.00,37.126
650.00,37.178
651.00,37.359
652.00,37.468
653.00,37.482
654.00,37.649
655.00,37.767
656.00,38.077
657.00,38.039
658.00,38.125
659.00,38.324
660.00,38.380
661.00,38.411
662.00,38.414
663.00,38.590
664.00,38.795
665.00,39.011
666.00,38.984
667.00,39.121
668.00,39.237
669.00,39.337
670.00,39.602
671.00,39.481
672.00,39.598
673.00,39.787
674.00,39.852
675.00,39.917
676.00,40.115
677.00,40.340
678.00,40.242
679.00,40.457
680.00,40.505
681.00,40.593
682.00,40.771
683.00,40.778
684.00,41.129
685.00,41.203
686.00,41.018
687.00,41.156
688.00,41.400
689.00,41.461
690.00,41.806
691.00,42.002
692.00,41.847
693.00,41.833
694.00,42.010
695.00,42.255
696.00,42.401
697.00,42.364
698.00,42.504
699.00,42.768
700.00,42.761
701.00,42.868
702.00,43.020
703.00,43.220
704.00,43.239
705.00,43.239
706.00,43.347
707.00,43.359
708.00,43.460
709.00,43.868
710.00,44.198
711.00,43.840
712.00,43.935
713.00,44.047
714.00,44.150
715.00,44.258
716.00,44.262
717.00,44.398
718.00,44.550
719.00,44.454
720.00,44.813
721.00,49.284
722.00,49.195
723.00,49.385
724.00,49.419
725.00,49.374
726.00,49.505
727.00,49.537
728.00,49.570
729.00,49.665
730.00,49.704
731.00,49.783
732.00,49.838
733.00,49.873
734.00,49.978
735.00,50.039
736.00,50.091
737.00,50.058
738.00,50.200
739.00,50.302
740.00,50.337
741.00,50.345
742.00,50.434
743.00,50.414
744.00,50.423
745.00,50.465
746.00,50.553
747.00,50.575
748.00,50.531
749.00,50.616
750.00,50.618
751.00,50.636
752.00,50.723
753.00,50.766
754.00,50.777
755.00,50.738
756.00,50.800
757.00,50.813
758.00,50.809
759.00,50.951
760.00,50.908
761.00,50.998
762.00,51.017
763.00,51.098
764.00,51.097
765.00,51.119
766.00,51.195
767.00,51.200
768.00,51.214
769.00,51.192
770.00,51.252
771.00,51.404
772.00,51.369
773.00,51.378
774.00,51.393
775.00,51.459
776.00,51.414
777.00,51.405
778.00,51.431
779.00,51.520
780.00,51.462
781.00,51.398
782.00,51.491
783.00,51.479
784.00,51.549
785.00,51.492
786.00,51.571
787.00,51.614
788.00,51.564
789.00,51.611
790.00,51.540
791.00,51.587
792.00,51.605
793.00,51.558
794.00,51.547
795.00,51.527
796.00,51.620
797.00,51.600
798.00,51.622
799.00,51.470
800.00,51.567
801.00,51.552
802.00,51.564
803.00,51.616
804.00,51.543
805.00,51.563
806.00,51.494
807.00,51.581
808.00,51.560
809.00,51.534
810.00,51.489
811.00,51.525
812.00,51.577
813.00,51.508
814.00,51.516
815.00,51.505
816.00,51.580
817.00,51.528
818.00,51.527
819.00,51.525
820.00,51.521
821.00,51.484
822.00,51.507
823.00,51.484
824.00,51.436
825.00,51.362
826.00,51.498
827.00,51.475
828.00,51.505
829.00,51.437
830.00,51.435
831.00,53.564
832.00,53.559
833.00,53.520
834.00,53.518
835.00,53.514
836.00,53.530
837.00,53.510
838.00,53.477
839.00,53.506
840.00,53.414
841.00,53.412
842.00,53.487
843.00,53.415
844.00,53.413
845.00,53.389
846.00,53.406
847.00,53.351
848.00,53.364
849.00,53.336
850.00,53.317
851.00,53.255
852.00,53.242
853.00,53.272
854.00,53.208
855.00,53.127
856.00,53.146
857.00,53.139
858.00,53.096
859.00,53.081
860.00,53.113
861.00,53.109
862.00,53.077
863.00,53.042
864.00,53.022
865.00,53.035
866.00,53.005
867.00,53.018
868.00,53.001
869.00,53.006
870.00,53.012
871.00,53.002
872.00,52.982
873.00,52.988
874.00,52.987
875.00,52.968
876.00,52.937
877.00,52.945
878.00,52.953
879.00,52.927
880.00,52.919
881.00,52.907
882.00,52.933
883.00,52.819
884.00,52.850
885.00,52.841
886.00,52.852
887.00,52.833
888.00,52.797
889.00,52.779
890.00,52.742
891.00,52.808
892.00,52.761
893.00,52.693
894.00,52.701
895.00,52.644
896.00,52.635
897.00,52.623
898.00,52.584
899.00,52.591
900.00,52.586
901.00,52.617
902.00,52.604
903.00,52.572
904.00,52.567
905.00,52.530
906.00,52.548
907.00,52.512
908.00,52.515
909.00,52.441
910.00,52.479
911.00,52.435
912.00,52.443
913.00,52.394
914.00,52.373
915.00,52.353
916.00,52.355
917.00,52.294
918.00,52.312
919.00,52.270
920.00,52.268
921.00,52.294
922.00,52.240
923.00,52.169
924.00,52.286
925.00,52.200
926.00,52.194
927.00,52.149
928.00,52.130
929.00,52.141
930.00,52.090
931.00,52.076
932.00,52.034
933.00,52.077
934.00,52.054
935.00,52.027
936.00,51.995
937.00,52.020
938.00,51.909
939.00,51.969
940.00,51.927
941.00,51.926
942.00,51.891
943.00,51.904
944.00,51.859
945.00,51.864
946.00,51.836
947.00,51.804
948.00,51.783
949.00,51.764
950.00,51.740
951.00,51.742
952.00,51.699
953.00,51.644
954.00,51.710
955.00,51.619
956.00,51.617
957.00,51.564
958.00,51.584
959.00,51.528
960.00,51.517
961.00,51.505
962.00,51.508
963.00,51.466
964.00,51.487
965.00,51.465
966.00,51.439
967.00,51.492
968.00,51.432
969.00,51.449
970.00,51.424
971.00,51.418
972.00,51.383
973.00,51.432
974.00,51.437
975.00,51.408
976.00,51.421
977.00,51.417
978.00,51.460
979.00,51.409
980.00,51.419
981.00,51.437
982.00,51.399
983.00,51.395
984.00,51.388
985.00,51.401
986.00,51.360
987.00,51.388
988.00,51.363
989.00,51.377
990.00,51.353
991.00,51.326
992.00,51.351
993.00,51.308
994.00,51.295
995.00,51.300
996.00,51.297
997.00,51.284
998.00,51.264
999.00,51.275
1000.00,51.264
1001.00,51.234
1002.00,51.215
1003.00,51.223
1004.00,51.178
1005.00,51.151
1006.00,51.193
1007.00,51.155
1008.00,51.150
1009.00,51.126
1010.00,51.128
1011.00,51.114
1012.00,51.097
1013.00,51.081
1014.00,51.051
1015.00,51.072
1016.00,51.026
1017.00,51.031
1018.00,51.007
1019.00,50.977
1020.00,50.981
1021.00,50.957
1022.00,50.969
1023.00,50.925
1024.00,50.921
1025.00,50.906
1026.00,50.899
1027.00,50.859
1028.00,50.859
1029.00,50.844
1030.00,50.808
1031.00,50.823
1032.00,50.774
1033.00,50.784
1034.00,50.751
1035.00,50.705
1036.00,50.705
1037.00,50.675
1038.00,50.652
1039.00,50.626
1040.00,50.619
1041.00,50.596
1042.00,50.590
1043.00,50.568
1044.00,50.592
1045.00,50.573
1046.00,50.535
1047.00,50.583
1048.00,50.587
1049.00,50.596
1050.00,50.604
1051.00,50.629
1052.00,50.633
1053.00,50.636
1054.00,50.633
1055.00,50.673
1056.00,50.671
1057.00,50.671
1058.00,50.664
1059.00,50.661
1060.00,50.662
1061.00,50.673
1062.00,50.641
1063.00,50.646
1064.00,50.647
1065.00,50.615
1066.00,50.636
1067.00,50.616
1068.00,50.628
1069.00,50.591
1070.00,50.555
1071.00,50.531
1072.00,50.555
1073.00,50.524
1074.00,50.520
1075.00,50.519
1076.00,50.537
1077.00,50.522
1078.00,50.486
1079.00,50.482
1080.00,50.496
1081.00,50.479
1082.00,50.464
1083.00,50.465
1084.00,50.435
1085.00,50.438
1086.00,50.426
1087.00,50.430
1088.00,50.425
1089.00,50.411
1090.00,50.390
1091.00,50.396
1092.00,50.394
1093.00,50.373
1094.00,50.360
1095.00,50.352
1096.00,50.347
1097.00,50.355
1098.00,50.327
1099.00,50.330
1100.00,50.318
1101.00,50.299
1102.00,50.293
1103.00,50.276
1104.00,50.265
1105.00,50.269
1106.00,50.252
1107.00,50.253
1108.00,50.249
1109.00,50.231
1110.00,50.231
1111.00,50.229
1112.00,50.205
1113.00,50.217
1114.00,50.193
1115.00,50.189
1116.00,50.164
1117.00,50.131
1118.00,50.118
1119.00,50.123
1120.00,50.119
1121.00,50.134
1122.00,50.126
1123.00,50.106
1124.00,50.118
1125.00,50.117
1126.00,50.089
1127.00,50.102
1128.00,50.068
1129.00,50.057
1130.00,50.048
1131.00,50.037
1132.00,50.048
1133.00,50.043
1134.00,50.029
1135.00,50.029
1136.00,50.027
1137.00,50.042
1138.00,50.036
1139.00,50.022
1140.00,50.003
1141.00,49.994
1142.00,49.986
1143.00,50.002
1144.00,49.969
1145.00,49.961
1146.00,49.968
1147.00,49.951
1148.00,49.941
1149.00,49.962
1150.00,49.957
1151.00,49.959
1152.00,49.954
1153.00,49.951
1154.00,49.921
1155.00,49.941
1156.00,49.914
1157.00,49.938
1158.00,49.917
1159.00,49.912
1160.00,49.920
1161.00,49.920
1162.00,49.915
1163.00,49.915
1164.00,49.907
1165.00,49.929
1166.00,49.930
1167.00,49.906
1168.00,49.936
1169.00,49.907
1170.00,49.899
1171.00,49.891
1172.00,49.897
1173.00,49.888
1174.00,49.894
1175.00,49.882
1176.00,49.899
1177.00,49.892
1178.00,49.878
1179.00,49.901
1180.00,49.874
1181.00,49.881
1182.00,49.885
1183.00,49.896
1184.00,49.887
1185.00,49.874
1186.00,49.860
1187.00,49.855
1188.00,49.853
1189.00,49.834
1190.00,49.840
1191.00,49.833
1192.00,49.834
1193.00,49.861
1194.00,49.843
1195.00,49.824
1196.00,49.883
1197.00,49.849
1198.00,49.847
1199.00,49.838
1200.00,49.828
1201.00,49.851
1202.00,49.826
1203.00,49.810
1204.00,49.802
1205.00,49.814
1206.00,49.808
1207.00,49.818
1208.00,49.821
1209.00,49.843
1210.00,49.841
1211.00,49.826
1212.00,49.860
1213.00,49.815
1214.00,49.846
1215.00,49.841
1216.00,49.816
1217.00,49.816
1218.00,49.806
1219.00,49.819
1220.00,49.810
1221.00,49.829
1222.00,49.801
1223.00,49.828
1224.00,49.824
1225.00,49.809
1226.00,49.813
1227.00,49.804
1228.00,49.813
1229.00,49.794
1230.00,49.846
1231.00,49.844
1232.00,49.861
1233.00,49.846
1234.00,49.846
1235.00,49.844
1236.00,49.836
1237.00,49.850
1238.00,49.850
1239.00,49.851
1240.00,49.840
1241.00,49.829
1242.00,49.849
1243.00,49.858
1244.00,49.834
1245.00,49.877
1246.00,49.860
1247.00,49.850
1248.00,49.857
1249.00,49.878
1250.00,49.888
1251.00,49.879
1252.00,49.888
1253.00,49.878
1254.00,49.914
1255.00,49.892
1256.00,49.874
1257.00,49.844
1258.00,49.881
1259.00,49.891
1260.00,49.905
1261.00,49.911
1262.00,49.905
1263.00,49.903
1264.00,49.923
1265.00,49.916
1266.00,49.897
1267.00,49.915
1268.00,49.930
1269.00,49.931
1270.00,49.957
1271.00,49.951
1272.00,49.954
1273.00,49.968
1274.00,49.948
1275.00,49.968
1276.00,49.959
1277.00,49.963
1278.00,49.967
1279.00,49.977
1280.00,49.958
1281.00,49.979
1282.00,49.994
1283.00,49.987
1284.00,49.991
1285.00,49.960
1286.00,49.982
1287.00,49.995
1288.00,49.968
1289.00,50.008
1290.00,50.050
1291.00,50.007
1292.00,50.033
1293.00,49.997
1294.00,50.026
1295.00,50.031
1296.00,50.027
1297.00,50.054
1298.00,50.078
1299.00,50.040
1300.00,50.061
1301.00,50.060
1302.00,50.072
1303.00,50.070
1304.00,50.044
1305.00,50.069
1306.00,50.090
1307.00,50.081
1308.00,50.099
1309.00,50.114
1310.00,50.102
1311.00,50.102
1312.00,50.102
1313.00,50.103
1314.00,50.123
1315.00,50.127
1316.00,50.128
1317.00,50.153
1318.00,50.136
1319.00,50.150
1320.00,50.166
1321.00,50.312
1322.00,50.315
1323.00,50.304
1324.00,50.292
1325.00,50.287
1326.00,50.310
1327.00,50.305
1328.00,50.305
1329.00,50.310
1330.00,50.309
1331.00,50.323
1332.00,50.292
1333.00,50.314
1334.00,50.338
1335.00,50.340
1336.00,50.373
1337.00,50.397
1338.00,50.447
1339.00,50.492
1340.00,50.545
1341.00,50.619
1342.00,50.691
1343.00,50.737
1344.00,50.772
1345.00,50.845
1346.00,50.879
1347.00,50.889
1348.00,50.925
1349.00,50.937
1350.00,50.967
1351.00,50.950
1352.00,50.947
1353.00,51.001
1354.00,51.008
1355.00,51.139
1356.00,51.025
1357.00,51.012
1358.00,51.033
1359.00,51.061
1360.00,51.048
1361.00,51.026
1362.00,50.956
1363.00,51.041
1364.00,51.072
1365.00,51.001
1366.00,51.069
1367.00,50.992
1368.00,50.943
1369.00,51.034
1370.00,50.992
1371.00,50.899
1372.00,50.966
1373.00,50.990
1374.00,51.003
1375.00,50.991
1376.00,50.964
1377.00,50.972
1378.00,51.049
1379.00,51.005
1380.00,50.968
1381.00,50.978
1382.00,50.967
1383.00,50.964
1384.00,50.913
1385.00,50.931
1386.00,51.021
1387.00,50.926
1388.00,50.919
1389.00,50.921
1390.00,50.985
1391.00,50.932
1392.00,50.936
1393.00,50.992
1394.00,50.974
1395.00,50.873
1396.00,50.875
1397.00,50.975
1398.00,51.030
1399.00,50.950
1400.00,50.836
1401.00,50.928
1402.00,51.036
1403.00,50.983
1404.00,50.986
1405.00,51.007
1406.00,51.000
1407.00,51.018
1408.00,51.017
1409.00,50.998
1410.00,51.044
1411.00,51.040
1412.00,51.085
1413.00,51.001
1414.00,51.004
1415.00,51.069
1416.00,51.077
1417.00,51.120
1418.00,51.072
1419.00,51.067
1420.00,51.097
1421.00,51.154
1422.00,51.140
1423.00,51.149
1424.00,51.155
1425.00,51.172
1426.00,51.169
1427.00,51.199
1428.00,51.189
1429.00,51.196
1430.00,51.235
1431.00,51.221
1432.00,51.253
1433.00,51.273
1434.00,51.253
1435.00,51.319
1436.00,51.332
1437.00,51.311
1438.00,51.345
1439.00,51.363
1440.00,51.375
1441.00,51.380
1442.00,51.386
1443.00,51.420
1444.00,51.464
1445.00,51.399
1446.00,51.435
1447.00,51.476
1448.00,51.500
1449.00,51.502
1450.00,51.499
1451.00,51.519
1452.00,51.548
1453.00,51.540
1454.00,51.565
1455.00,51.595
1456.00,51.606
1457.00,51.612
1458.00,51.637
1459.00,51.638
1460.00,51.682
1461.00,51.649
1462.00,51.688
1463.00,51.698
1464.00,51.698
1465.00,51.719
1466.00,51.723
1467.00,51.744
1468.00,51.796
1469.00,51.765
1470.00,51.776
1471.00,51.800
1472.00,51.789
1473.00,51.783
1474.00,51.830
1475.00,51.864
1476.00,51.900
1477.00,51.883
1478.00,51.872
1479.00,51.902
1480.00,51.904
1481.00,51.900
1482.00,51.939
1483.00,51.939
1484.00,51.962
1485.00,51.965
1486.00,51.969
1487.00,52.000
1488.00,52.009
1489.00,52.011
1490.00,52.037
1491.00,52.040
1492.00,52.051
1493.00,52.024
1494.00,52.067
1495.00,52.042
1496.00,52.080
1497.00,52.062
1498.00,52.086
1499.00,52.115
1500.00,52.134
1501.00, 
1502.00, 
1503.00, 
1504.00, 
1505.00, 
1506.00, 
1507.00, 
1508.00, 
1509.00, 
1510.00, 
1511.00, 
1512.00, 
1513.00, 
1514.00, 
1515.00, 
1516.00, 
1517.00, 
1518.00, 
1519.00, 
1520.00, 
1521.00, 
1522.00, 
1523.00, 
1524.00, 
1525.00, 
1526.00, 
1527.00, 
1528.00, 
1529.00, 
1530.00, 
1531.00, 
1532.00, 
1533.00, 
1534.00, 
1535.00, 
1536.00, 
1537.00, 
1538.00, 
1539.00, 
1540.00, 
1541.00, 
1542.00, 
1543.00, 
1544.00, 
1545.00, 
1546.00, 
1547.00, 
1548.00, 
1549.00, 
1550.00, 
1551.00, 
1552.00, 
1553.00, 
1554.00, 
1555.00, 
1556.00, 
1557.00, 
1558.00, 
1559.00, 
1560.00, 
1561.00, 
1562.00, 
1563.00, 
1564.00, 
1565.00, 
1566.00, 
1567.00, 
1568.00, 
1569.00, 
1570.00, 
1571.00, 
1572.00, 
1573.00, 
1574.00, 
1575.00, 
1576.00, 
1577.00, 
1578.00, 
1579.00, 
1580.00, 
1581.00, 
1582.00, 
1583.00, 
1584.00, 
1585.00, 
1586.00, 
1587.00, 
1588.00, 
1589.00, 
1590.00, 
1591.00, 
1592.00, 
1593.00, 
1594.00, 
1595.00, 
1596.00, 
1597.00, 
1598.00, 
1599.00, 
1600.00, 
1601.00, 
1602.00, 
1603.00, 
1604.00, 
1605.00, 
1606.00, 
1607.00, 
1608.00, 
1609.00, 
1610.00, 
1611.00, 
1612.00, 
1613.00, 
1614.00, 
1615.00, 
1616.00, 
1617.00, 
1618.00, 
1619.00, 
1620.00, 
1621.00, 
1622.00, 
1623.00, 
1624.00, 
1625.00, 
1626.00, 
1627.00, 
1628.00, 
1629.00, 
1630.00, 
1631.00, 
1632.00, 
1633.00, 
1634.00, 
1635.00, 
1636.00, 
1637.00, 
1638.00, 
1639.00, 
1640.00, 
1641.00, 
1642.00, 
1643.00, 
1644.00, 
1645.00, 
1646.00, 
1647.00, 
1648.00, 
1649.00, 
1650.00, 
1651.00, 
1652.00, 
1653.00, 
1654.00, 
1655.00, 
1656.00, 
1657.00, 
1658.00, 
1659.00, 
1660.00, 
1661.00, 
1662.00, 
1663.00, 
1664.00, 
1665.00, 
1666.00, 
1667.00, 
1668.00, 
1669.00, 
1670.00, 
1671.00, 
1672.00, 
1673.00, 
1674.00, 
1675.00, 
1676.00, 
1677.00, 
1678.00, 
1679.00, 
1680.00, 
1681.00, 
1682.00, 
1683.00, 
1684.00, 
1685.00, 
1686.00, 
1687.00, 
1688.00, 
1689.00, 
1690.00, 
1691.00, 
1692.00, 
1693.00, 
1694.00, 
1695.00, 
1696.00, 
1697.00, 
1698.00, 
1699.00, 
1700.00, 
1701.00, 
1702.00, 
1703.00, 
1704.00, 
1705.00, 
1706.00, 
1707.00, 
1708.00, 
1709.00, 
1710.00, 
1711.00, 
1712.00, 
1713.00, 
1714.00, 
1715.00, 
1716.00, 
1717.00, 
1718.00, 
1719.00, 
1720.00, 
1721.00, 
1722.00, 
1723.00, 
1724.00, 
1725.00, 
1726.00, 
1727.00, 
1728.00, 
1729.00, 
1730.00, 
1731.00, 
1732.00, 
1733.00, 
1734.00, 
1735.00, 
1736.00, 
1737.00, 
1738.00, 
1739.00, 
1740.00, 
1741.00, 
1742.00, 
1743.00, 
1744.00, 
1745.00, 
1746.00, 
1747.00, 
1748.00, 
1749.00, 
1750.00, 
1751.00, 
1752.00, 
1753.00, 
1754.00, 
1755.00, 
1756.00, 
1757.00, 
1758.00, 
1759.00, 
1760.00, 
1761.00, 
1762.00, 
1763.00, 
1764.00, 
1765.00, 
1766.00, 
1767.00, 
1768.00, 
1769.00, 
1770.00, 
1771.00, 
1772.00, 
1773.00, 
1774.00, 
1775.00, 
1776.00, 
1777.00, 
1778.00, 
1779.00, 
1780.00, 
1781.00, 
1782.00, 
1783.00, 
1784.00, 
1785.00, 
1786.00, 
1787.00, 
1788.00, 
1789.00, 
1790.00, 
1791.00, 
1792.00, 
1793.00, 
1794.00, 
1795.00, 
1796.00, 
1797.00, 
1798.00, 
1799.00, 
1800.00, 
1801.00, 
1802.00, 
1803.00, 
1804.00, 
1805.00, 
1806.00, 
1807.00, 
1808.00, 
1809.00, 
1810.00, 
1811.00, 
1812.00, 
1813.00, 
1814.00, 
1815.00, 
1816.00, 
1817.00, 
1818.00, 
1819.00, 
1820.00, 
1821.00, 
1822.00, 
1823.00, 
1824.00, 
1825.00, 
1826.00, 
1827.00, 
1828.00, 
1829.00, 
1830.00, 
1831.00, 
1832.00, 
1833.00, 
1834.00, 
1835.00, 
1836.00, 
1837.00, 
1838.00, 
1839.00, 
1840.00, 
1841.00, 
1842.00, 
1843.00, 
1844.00, 
1845.00, 
1846.00, 
1847.00, 
1848.00, 
1849.00, 
1850.00, 
1851.00, 
1852.00, 
1853.00, 
1854.00, 
1855.00, 
1856.00, 
1857.00, 
1858.00, 
1859.00, 
1860.00, 
1861.00, 
1862.00, 
1863.00, 
1864.00, 
1865.00, 
1866.00, 
1867.00, 
1868.00, 
1869.00, 
1870.00, 
1871.00, 
1872.00, 
1873.00, 
1874.00, 
1875.00, 
1876.00, 
1877.00, 
1878.00, 
1879.00, 
1880.00, 
1881.00, 
1882.00, 
1883.00, 
1884.00, 
1885.00, 
1886.00, 
1887.00, 
1888.00, 
1889.00, 
1890.00, 
1891.00, 
1892.00, 
1893.00, 
1894.00, 
1895.00, 
1896.00, 
1897.00, 
1898.00, 
1899.00, 
1900.00, 
1901.00, 
1902.00, 
1903.00, 
1904.00, 
1905.00, 
1906.00, 
1907.00, 
1908.00, 
1909.00, 
1910.00, 
1911.00, 
1912.00, 
1913.00, 
1914.00, 
1915.00, 
1916.00, 
1917.00, 
1918.00, 
1919.00, 
1920.00, 
1921.00, 
1922.00, 
1923.00, 
1924.00, 
1925.00, 
1926.00, 
1927.00, 
1928.00, 
1929.00, 
1930.00, 
1931.00, 
1932.00, 
1933.00, 
1934.00, 
1935.00, 
1936.00, 
1937.00, 
1938.00, 
1939.00, 
1940.00, 
1941.00, 
1942.00, 
1943.00, 
1944.00, 
1945.00, 
1946.00, 
1947.00, 
1948.00, 
1949.00, 
1950.00, 
1951.00, 
1952.00, 
1953.00, 
1954.00, 
1955.00, 
1956.00, 
1957.00, 
1958.00, 
1959.00, 
1960.00, 
1961.00, 
1962.00, 
1963.00, 
1964.00, 
1965.00, 
1966.00, 
1967.00, 
1968.00, 
1969.00, 
1970.00, 
1971.00, 
1972.00, 
1973.00, 
1974.00, 
1975.00, 
1976.00, 
1977.00, 
1978.00, 
1979.00, 
1980.00, 
1981.00, 
1982.00, 
1983.00, 
1984.00, 
1985.00, 
1986.00, 
1987.00, 
1988.00, 
1989.00, 
1990.00, 
1991.00, 
1992.00, 
1993.00, 
1994.00, 
1995.00, 
1996.00, 
1997.00, 
1998.00, 
1999.00, 
2000.00, 
2001.00, 
2002.00, 
2003.00, 
2004.00, 
2005.00, 
2006.00, 
2007.00, 
2008.00, 
2009.00, 
2010.00, 
2011.00, 
2012.00, 
2013.00, 
2014.00, 
2015.00, 
2016.00, 
2017.00, 
2018.00, 
2019.00, 
2020.00, 
2021.00, 
2022.00, 
2023.00, 
2024.00, 
2025.00, 
2026.00, 
2027.00, 
2028.00, 
2029.00, 
2030.00, 
2031.00, 
2032.00, 
2033.00, 
2034.00, 
2035.00, 
2036.00, 
2037.00, 
2038.00, 
2039.00, 
2040.00, 
2041.00, 
2042.00, 
2043.00, 
2044.00, 
2045.00, 
2046.00, 
2047.00, 
2048.00, 
2049.00, 
2050.00, 
2051.00, 
2052.00, 
2053.00, 
2054.00, 
2055.00, 
2056.00, 
2057.00, 
2058.00, 
2059.00, 
2060.00, 
2061.00, 
2062.00, 
2063.00, 
2064.00, 
2065.00, 
2066.00, 
2067.00, 
2068.00, 
2069.00, 
2070.00, 
2071.00, 
2072.00, 
2073.00, 
2074.00, 
2075.00, 
2076.00, 
2077.00, 
2078.00, 
2079.00, 
2080.00, 
2081.00, 
2082.00, 
2083.00, 
2084.00, 
2085.00, 
2086.00, 
2087.00, 
2088.00, 
2089.00, 
2090.00, 
2091.00, 
2092.00, 
2093.00, 
2094.00, 
2095.00, 
2096.00, 
2097.00, 
2098.00, 
2099.00, 
2100.00, 
2101.00, 
2102.00, 
2103.00, 
2104.00, 
2105.00, 
2106.00, 
2107.00, 
2108.00, 
2109.00, 
2110.00, 
2111.00, 
2112.00, 
2113.00, 
2114.00, 
2115.00, 
2116.00, 
2117.00, 
2118.00, 
2119.00, 
2120.00, 
2121.00, 
2122.00, 
2123.00, 
2124.00, 
2125.00, 
2126.00, 
2127.00, 
2128.00, 
2129.00, 
2130.00, 
2131.00, 
2132.00, 
2133.00, 
2134.00, 
2135.00, 
2136.00, 
2137.00, 
2138.00, 
2139.00, 
2140.00, 
2141.00, 
2142.00, 
2143.00, 
2144.00, 
2145.00, 
2146.00, 
2147.00, 
2148.00, 
2149.00, 
2150.00, 
2151.00, 
2152.00, 
2153.00, 
2154.00, 
2155.00, 
2156.00, 
2157.00, 
2158.00, 
2159.00, 
2160.00, 
2161.00, 
2162.00, 
2163.00, 
2164.00, 
2165.00, 
2166.00, 
2167.00, 
2168.00, 
2169.00, 
2170.00, 
2171.00, 
2172.00, 
2173.00, 
2174.00, 
2175.00, 
2176.00, 
2177.00, 
2178.00, 
2179.00, 
2180.00, 
2181.00, 
2182.00, 
2183.00, 
2184.00, 
2185.00, 
2186.00, 
2187.00, 
2188.00, 
2189.00, 
2190.00, 
2191.00, 
2192.00, 
2193.00, 
2194.00, 
2195.00, 
2196.00, 
2197.00, 
2198.00, 
2199.00, 
2200.00, 
2201.00, 
2202.00, 
2203.00, 
2204.00, 
2205.00, 
2206.00, 
2207.00, 
2208.00, 
2209.00, 
2210.00, 
2211.00, 
2212.00, 
2213.00, 
2214.00, 
2215.00, 
2216.00, 
2217.00, 
2218.00, 
2219.00, 
2220.00, 
2221.00, 
2222.00, 
2223.00, 
2224.00, 
2225.00, 
2226.00, 
2227.00, 
2228.00, 
2229.00, 
2230.00, 
2231.00, 
2232.00, 
2233.00, 
2234.00, 
2235.00, 
2236.00, 
2237.00, 
2238.00, 
2239.00, 
2240.00, 
2241.00, 
2242.00, 
2243.00, 
2244.00, 
2245.00, 
2246.00, 
2247.00, 
2248.00, 
2249.00, 
2250.00, 
2251.00, 
2252.00, 
2253.00, 
2254.00, 
2255.00, 
2256.00, 
2257.00, 
2258.00, 
2259.00, 
2260.00, 
2261.00, 
2262.00, 
2263.00, 
2264.00, 
2265.00, 
2266.00, 
2267.00, 
2268.00, 
2269.00, 
2270.00, 
2271.00, 
2272.00, 
2273.00, 
2274.00, 
2275.00, 
2276.00, 
2277.00, 
2278.00, 
2279.00, 
2280.00, 
2281.00, 
2282.00, 
2283.00, 
2284.00, 
2285.00, 
2286.00, 
2287.00, 
2288.00, 
2289.00, 
2290.00, 
2291.00, 
2292.00, 
2293.00, 
2294.00, 
2295.00, 
2296.00, 
2297.00, 
2298.00, 
2299.00, 
2300.00, 
2301.00, 
2302.00, 
2303.00, 
2304.00, 
2305.00, 
2306.00, 
2307.00, 
2308.00, 
2309.00, 
2310.00, 
2311.00, 
2312.00, 
2313.00, 
2314.00, 
2315.00, 
2316.00, 
2317.00, 
2318.00, 
2319.00, 
2320.00, 
2321.00, 
2322.00, 
2323.00, 
2324.00, 
2325.00, 
2326.00, 
2327.00, 
2328.00, 
2329.00, 
2330.00, 
2331.00, 
2332.00, 
2333.00, 
2334.00, 
2335.00, 
2336.00, 
2337.00, 
2338.00, 
2339.00, 
2340.00, 
2341.00, 
2342.00, 
2343.00, 
2344.00, 
2345.00, 
2346.00, 
2347.00, 
2348.00, 
2349.00, 
2350.00, 
2351.00, 
2352.00, 
2353.00, 
2354.00, 
2355.00, 
2356.00, 
2357.00, 
2358.00, 
2359.00, 
2360.00, 
2361.00, 
2362.00, 
2363.00, 
2364.00, 
2365.00, 
2366.00, 
2367.00, 
2368.00, 
2369.00, 
2370.00, 
2371.00, 
2372.00, 
2373.00, 
2374.00, 
2375.00, 
2376.00, 
2377.00, 
2378.00, 
2379.00, 
2380.00, 
2381.00, 
2382.00, 
2383.00, 
2384.00, 
2385.00, 
2386.00, 
2387.00, 
2388.00, 
2389.00, 
2390.00, 
2391.00, 
2392.00, 
2393.00, 
2394.00, 
2395.00, 
2396.00, 
2397.00, 
2398.00, 
2399.00, 
2400.00, 
2401.00, 
2402.00, 
2403.00, 
2404.00, 
2405.00, 
2406.00, 
2407.00, 
2408.00, 
2409.00, 
2410.00, 
2411.00, 
2412.00, 
2413.00, 
2414.00, 
2415.00, 
2416.00, 
2417.00, 
2418.00, 
2419.00, 
2420.00, 
2421.00, 
2422.00, 
2423.00, 
2424.00, 
2425.00, 
2426.00, 
2427.00, 
2428.00, 
2429.00, 
2430.00, 
2431.00, 
2432.00, 
2433.00, 
2434.00, 
2435.00, 
2436.00, 
2437.00, 
2438.00, 
2439.00, 
2440.00, 
2441.00, 
2442.00, 
2443.00, 
2444.00, 
2445.00, 
2446.00, 
2447.00, 
2448.00, 
2449.00, 
2450.00, 
2451.00, 
2452.00, 
2453.00, 
2454.00, 
2455.00, 
2456.00, 
2457.00, 
2458.00, 
2459.00, 
2460.00, 
2461.00, 
2462.00, 
2463.00, 
2464.00, 
2465.00, 
2466.00, 
2467.00, 
2468.00, 
2469.00, 
2470.00, 
2471.00, 
2472.00, 
2473.00, 
2474.00, 
2475.00, 
2476.00, 
2477.00, 
2478.00, 
2479.00, 
2480.00, 
2481.00, 
2482.00, 
2483.00, 
2484.00, 
2485.00, 
2486.00, 
2487.00, 
2488.00, 
2489.00, 
2490.00, 
2491.00, 
2492.00, 
2493.00, 
2494.00, 
2495.00, 
2496.00, 
2497.00, 
2498.00, 
2499.00, 
2500.00, 
2501.00, 
2502.00, 
2503.00, 
2504.00, 
2505.00, 
2506.00, 
2507.00, 
2508.00, 
2509.00, 
2510.00, 
2511.00, 
2512.00, 
2513.00, 
2514.00, 
2515.00, 
2516.00, 
2517.00, 
2518.00, 
2519.00, 
2520.00, 
2521.00, 
2522.00, 
2523.00, 
2524.00, 
2525.00, 
2526.00, 
2527.00, 
2528.00, 
2529.00, 
2530.00, 
2531.00, 
2532.00, 
2533.00, 
2534.00, 
2535.00, 
2536.00, 
2537.00, 
2538.00, 
2539.00, 
2540.00, 
2541.00, 
2542.00, 
2543.00, 
2544.00, 
2545.00, 
2546.00, 
2547.00, 
2548.00, 
2549.00, 
2550.00, 
2551.00, 
2552.00, 
2553.00, 
2554.00, 
2555.00, 
2556.00, 
2557.00, 
2558.00, 
2559.00, 
2560.00, 
2561.00, 
2562.00, 
2563.00, 
2564.00, 
2565.00, 
2566.00, 
2567.00, 
2568.00, 
2569.00, 
2570.00, 
2571.00, 
2572.00, 
2573.00, 
2574.00, 
2575.00, 
2576.00, 
2577.00, 
2578.00, 
2579.00, 
2580.00, 
2581.00, 
2582.00, 
2583.00, 
2584.00, 
2585.00, 
2586.00, 
2587.00, 
2588.00, 
2589.00, 
2590.00, 
2591.00, 
2592.00, 
2593.00, 
2594.00, 
2595.00, 
2596.00, 
2597.00, 
2598.00, 
2599.00, 
2600.00, 
