"1aP2 - RawData"
"Wavelength nm.","T%"
200.00,0.002
201.00,0.001
202.00,0.002
203.00,0.000
204.00,-0.001
205.00,0.004
206.00,0.002
207.00,-0.003
208.00,0.001
209.00,0.001
210.00,0.003
211.00,0.001
212.00,0.002
213.00,0.001
214.00,0.001
215.00,0.001
216.00,0.002
217.00,0.001
218.00,0.002
219.00,-0.004
220.00,-0.002
221.00,0.002
222.00,0.002
223.00,0.000
224.00,0.002
225.00,-0.001
226.00,0.001
227.00,-0.002
228.00,0.001
229.00,0.000
230.00,0.002
231.00,0.001
232.00,0.002
233.00,0.000
234.00,-0.001
235.00,0.001
236.00,0.001
237.00,-0.000
238.00,0.000
239.00,-0.002
240.00,0.001
241.00,0.001
242.00,0.001
243.00,-0.001
244.00,0.001
245.00,0.001
246.00,0.000
247.00,0.000
248.00,-0.000
249.00,0.002
250.00,0.000
251.00,-0.001
252.00,0.000
253.00,0.001
254.00,0.001
255.00,0.001
256.00,-0.001
257.00,0.002
258.00,-0.001
259.00,0.000
260.00,-0.000
261.00,0.000
262.00,0.000
263.00,-0.001
264.00,0.001
265.00,-0.001
266.00,-0.001
267.00,-0.001
268.00,-0.001
269.00,0.001
270.00,0.001
271.00,-0.000
272.00,0.001
273.00,0.000
274.00,-0.000
275.00,0.001
276.00,0.000
277.00,-0.001
278.00,0.001
279.00,0.000
280.00,-0.000
281.00,0.001
282.00,0.000
283.00,-0.000
284.00,0.001
285.00,-0.000
286.00,-0.001
287.00,-0.001
288.00,0.001
289.00,0.001
290.00,0.001
291.00,0.000
292.00,0.000
293.00,0.000
294.00,-0.000
295.00,-0.001
296.00,-0.000
297.00,-0.001
298.00,0.001
299.00,0.003
300.00,0.005
301.00,0.003
302.00,0.008
303.00,0.015
304.00,0.019
305.00,0.028
306.00,0.046
307.00,0.072
308.00,0.109
309.00,0.169
310.00,0.233
311.00,0.309
312.00,0.422
313.00,0.569
314.00,0.712
315.00,0.951
316.00,1.207
317.00,1.513
318.00,1.863
319.00,2.279
320.00,2.729
321.00,3.250
322.00,3.827
323.00,4.491
324.00,5.139
325.00,5.797
326.00,6.519
327.00,7.301
328.00,8.121
329.00,8.868
330.00,9.721
331.00,10.527
332.00,11.366
333.00,12.279
334.00,13.083
335.00,13.950
336.00,14.778
337.00,15.635
338.00,16.413
339.00,17.162
340.00,17.884
341.00,18.612
342.00,19.346
343.00,20.008
344.00,20.637
345.00,21.268
346.00,21.818
347.00,22.307
348.00,22.804
349.00,23.235
350.00,23.691
351.00,24.107
352.00,24.479
353.00,24.802
354.00,25.126
355.00,25.481
356.00,25.721
357.00,25.978
358.00,26.218
359.00,26.525
360.00,26.767
361.00,26.982
362.00,27.075
363.00,27.248
364.00,27.361
365.00,27.449
366.00,27.493
367.00,27.663
368.00,27.660
369.00,27.733
370.00,27.828
371.00,27.859
372.00,27.783
373.00,27.758
374.00,27.783
375.00,27.789
376.00,27.665
377.00,27.662
378.00,27.595
379.00,27.490
380.00,27.471
381.00,27.517
382.00,27.470
383.00,27.512
384.00,27.512
385.00,27.551
386.00,27.558
387.00,27.633
388.00,27.695
389.00,27.740
390.00,27.689
391.00,27.777
392.00,27.738
393.00,27.809
394.00,27.908
395.00,27.913
396.00,27.899
397.00,27.895
398.00,28.007
399.00,27.901
400.00,27.913
401.00,27.890
402.00,27.918
403.00,27.883
404.00,27.860
405.00,27.862
406.00,27.842
407.00,27.762
408.00,27.799
409.00,27.754
410.00,27.685
411.00,27.698
412.00,27.697
413.00,27.704
414.00,27.669
415.00,27.637
416.00,27.766
417.00,27.740
418.00,27.737
419.00,27.870
420.00,27.912
421.00,27.914
422.00,27.906
423.00,28.004
424.00,28.122
425.00,28.015
426.00,28.034
427.00,28.137
428.00,28.192
429.00,28.178
430.00,28.230
431.00,28.280
432.00,28.352
433.00,28.402
434.00,28.472
435.00,28.533
436.00,28.611
437.00,28.686
438.00,28.768
439.00,28.784
440.00,28.867
441.00,28.956
442.00,29.038
443.00,29.106
444.00,29.180
445.00,29.272
446.00,29.367
447.00,29.453
448.00,29.584
449.00,29.682
450.00,29.784
451.00,29.880
452.00,29.960
453.00,30.082
454.00,30.159
455.00,30.287
456.00,30.405
457.00,30.502
458.00,30.570
459.00,30.729
460.00,30.790
461.00,30.991
462.00,30.998
463.00,31.230
464.00,31.353
465.00,31.519
466.00,31.638
467.00,31.786
468.00,31.869
469.00,31.949
470.00,32.027
471.00,32.133
472.00,32.270
473.00,32.323
474.00,32.436
475.00,32.557
476.00,32.633
477.00,32.760
478.00,32.878
479.00,33.090
480.00,33.165
481.00,33.284
482.00,33.437
483.00,33.550
484.00,33.766
485.00,33.852
486.00,34.000
487.00,34.139
488.00,34.260
489.00,34.494
490.00,34.531
491.00,34.685
492.00,34.952
493.00,35.133
494.00,35.034
495.00,35.224
496.00,35.346
497.00,35.430
498.00,35.579
499.00,35.719
500.00,35.848
501.00,35.912
502.00,36.072
503.00,36.211
504.00,36.216
505.00,36.339
506.00,36.448
507.00,36.523
508.00,36.689
509.00,36.840
510.00,36.916
511.00,36.990
512.00,37.167
513.00,37.292
514.00,37.354
515.00,37.545
516.00,37.665
517.00,37.662
518.00,37.790
519.00,37.833
520.00,37.874
521.00,38.026
522.00,38.092
523.00,38.080
524.00,38.196
525.00,38.309
526.00,38.409
527.00,38.469
528.00,38.547
529.00,38.711
530.00,38.875
531.00,38.949
532.00,39.021
533.00,39.115
534.00,39.224
535.00,39.254
536.00,39.307
537.00,39.422
538.00,39.436
539.00,39.551
540.00,39.633
541.00,39.553
542.00,39.629
543.00,39.661
544.00,39.732
545.00,39.855
546.00,39.821
547.00,39.921
548.00,39.988
549.00,40.084
550.00,40.138
551.00,40.193
552.00,40.282
553.00,40.288
554.00,40.426
555.00,40.516
556.00,40.499
557.00,40.524
558.00,40.562
559.00,40.632
560.00,40.769
561.00,40.791
562.00,40.838
563.00,40.822
564.00,40.895
565.00,40.916
566.00,40.882
567.00,40.876
568.00,40.983
569.00,41.000
570.00,41.018
571.00,41.083
572.00,41.090
573.00,41.062
574.00,41.097
575.00,41.118
576.00,41.084
577.00,41.113
578.00,41.239
579.00,41.298
580.00,41.334
581.00,41.493
582.00,41.546
583.00,41.551
584.00,41.674
585.00,41.700
586.00,41.714
587.00,41.771
588.00,41.799
589.00,41.753
590.00,41.776
591.00,41.845
592.00,41.601
593.00,41.778
594.00,41.946
595.00,41.982
596.00,42.093
597.00,42.162
598.00,42.184
599.00,42.181
600.00,42.227
601.00,42.254
602.00,42.180
603.00,42.298
604.00,42.375
605.00,42.404
606.00,42.362
607.00,42.408
608.00,42.604
609.00,42.655
610.00,42.561
611.00,42.516
612.00,42.586
613.00,42.655
614.00,42.636
615.00,42.691
616.00,42.861
617.00,42.684
618.00,42.632
619.00,42.929
620.00,43.103
621.00,43.001
622.00,43.085
623.00,43.132
624.00,43.250
625.00,43.237
626.00,43.244
627.00,43.302
628.00,43.279
629.00,43.337
630.00,43.377
631.00,43.455
632.00,43.541
633.00,43.607
634.00,43.617
635.00,43.700
636.00,43.822
637.00,43.832
638.00,43.919
639.00,44.037
640.00,44.039
641.00,43.988
642.00,44.131
643.00,44.156
644.00,44.264
645.00,44.292
646.00,44.422
647.00,44.445
648.00,44.498
649.00,44.549
650.00,44.555
651.00,44.680
652.00,44.789
653.00,44.783
654.00,44.851
655.00,44.990
656.00,45.153
657.00,45.106
658.00,45.219
659.00,45.337
660.00,45.337
661.00,45.318
662.00,45.372
663.00,45.450
664.00,45.701
665.00,45.882
666.00,45.691
667.00,45.874
668.00,45.912
669.00,46.134
670.00,46.340
671.00,46.173
672.00,46.256
673.00,46.346
674.00,46.378
675.00,46.442
676.00,46.718
677.00,46.762
678.00,46.563
679.00,46.763
680.00,46.766
681.00,46.931
682.00,47.017
683.00,46.993
684.00,47.144
685.00,47.189
686.00,47.074
687.00,46.995
688.00,47.242
689.00,47.333
690.00,47.394
691.00,47.762
692.00,47.687
693.00,47.497
694.00,47.615
695.00,47.779
696.00,47.839
697.00,47.873
698.00,47.879
699.00,48.217
700.00,48.214
701.00,48.193
702.00,48.195
703.00,48.313
704.00,48.477
705.00,48.470
706.00,48.583
707.00,48.578
708.00,48.376
709.00,48.744
710.00,49.040
711.00,48.676
712.00,48.727
713.00,48.900
714.00,48.949
715.00,49.061
716.00,48.968
717.00,49.079
718.00,49.166
719.00,49.115
720.00,49.287
721.00,53.764
722.00,53.720
723.00,53.682
724.00,53.756
725.00,53.736
726.00,53.735
727.00,53.762
728.00,53.711
729.00,53.785
730.00,53.708
731.00,53.816
732.00,53.840
733.00,53.858
734.00,53.855
735.00,53.849
736.00,53.956
737.00,53.932
738.00,53.851
739.00,53.931
740.00,53.923
741.00,53.990
742.00,54.023
743.00,53.885
744.00,53.956
745.00,53.980
746.00,54.008
747.00,53.987
748.00,53.906
749.00,54.011
750.00,53.963
751.00,53.969
752.00,53.907
753.00,53.908
754.00,53.954
755.00,53.946
756.00,53.934
757.00,53.869
758.00,53.992
759.00,53.917
760.00,54.017
761.00,53.951
762.00,53.926
763.00,54.024
764.00,53.947
765.00,54.005
766.00,54.032
767.00,54.054
768.00,53.992
769.00,53.992
770.00,54.080
771.00,53.985
772.00,54.042
773.00,53.930
774.00,53.980
775.00,54.017
776.00,53.944
777.00,54.004
778.00,53.989
779.00,54.057
780.00,54.065
781.00,53.945
782.00,54.035
783.00,54.073
784.00,53.935
785.00,53.998
786.00,54.053
787.00,53.903
788.00,53.926
789.00,53.915
790.00,53.933
791.00,53.967
792.00,53.889
793.00,53.819
794.00,53.807
795.00,53.831
796.00,53.800
797.00,53.750
798.00,53.820
799.00,53.697
800.00,53.732
801.00,53.769
802.00,53.732
803.00,53.807
804.00,53.677
805.00,53.669
806.00,53.605
807.00,53.629
808.00,53.679
809.00,53.590
810.00,53.576
811.00,53.613
812.00,53.668
813.00,53.523
814.00,53.561
815.00,53.523
816.00,53.585
817.00,53.541
818.00,53.455
819.00,53.466
820.00,53.480
821.00,53.437
822.00,53.392
823.00,53.475
824.00,53.424
825.00,53.320
826.00,53.373
827.00,53.330
828.00,53.476
829.00,53.422
830.00,53.303
831.00,55.818
832.00,55.850
833.00,55.786
834.00,55.816
835.00,55.771
836.00,55.782
837.00,55.731
838.00,55.759
839.00,55.765
840.00,55.700
841.00,55.719
842.00,55.661
843.00,55.664
844.00,55.624
845.00,55.586
846.00,55.592
847.00,55.574
848.00,55.588
849.00,55.503
850.00,55.541
851.00,55.435
852.00,55.474
853.00,55.543
854.00,55.377
855.00,55.365
856.00,55.370
857.00,55.324
858.00,55.296
859.00,55.267
860.00,55.261
861.00,55.269
862.00,55.213
863.00,55.217
864.00,55.220
865.00,55.206
866.00,55.204
867.00,55.174
868.00,55.312
869.00,55.167
870.00,55.170
871.00,55.158
872.00,55.163
873.00,55.108
874.00,55.097
875.00,55.091
876.00,55.106
877.00,54.986
878.00,55.096
879.00,55.064
880.00,55.041
881.00,55.021
882.00,55.075
883.00,55.010
884.00,54.951
885.00,54.953
886.00,54.941
887.00,54.924
888.00,54.881
889.00,54.937
890.00,54.890
891.00,54.869
892.00,54.834
893.00,54.811
894.00,54.827
895.00,54.795
896.00,54.808
897.00,54.782
898.00,54.722
899.00,54.772
900.00,54.706
901.00,54.729
902.00,54.730
903.00,54.694
904.00,54.647
905.00,54.667
906.00,54.646
907.00,54.615
908.00,54.594
909.00,54.566
910.00,54.544
911.00,54.540
912.00,54.520
913.00,54.471
914.00,54.438
915.00,54.519
916.00,54.437
917.00,54.432
918.00,54.409
919.00,54.363
920.00,54.342
921.00,54.376
922.00,54.362
923.00,54.316
924.00,54.267
925.00,54.307
926.00,54.293
927.00,54.259
928.00,54.223
929.00,54.226
930.00,54.291
931.00,54.177
932.00,54.173
933.00,54.188
934.00,54.171
935.00,54.122
936.00,54.115
937.00,54.087
938.00,54.081
939.00,54.087
940.00,54.029
941.00,54.046
942.00,54.029
943.00,54.027
944.00,53.951
945.00,53.948
946.00,54.078
947.00,53.930
948.00,53.901
949.00,53.890
950.00,53.883
951.00,53.860
952.00,53.843
953.00,53.787
954.00,53.783
955.00,53.734
956.00,53.723
957.00,53.704
958.00,53.715
959.00,53.654
960.00,53.653
961.00,53.706
962.00,53.648
963.00,53.602
964.00,53.602
965.00,53.604
966.00,53.577
967.00,53.591
968.00,53.572
969.00,53.579
970.00,53.552
971.00,53.580
972.00,53.505
973.00,53.588
974.00,53.611
975.00,53.551
976.00,53.583
977.00,53.571
978.00,53.619
979.00,53.568
980.00,53.595
981.00,53.604
982.00,53.553
983.00,53.571
984.00,53.541
985.00,53.561
986.00,53.526
987.00,53.541
988.00,53.504
989.00,53.503
990.00,53.479
991.00,53.505
992.00,53.544
993.00,53.468
994.00,53.461
995.00,53.435
996.00,53.437
997.00,53.424
998.00,53.388
999.00,53.401
1000.00,53.379
1001.00,53.361
1002.00,53.349
1003.00,53.355
1004.00,53.318
1005.00,53.288
1006.00,53.323
1007.00,53.332
1008.00,53.296
1009.00,53.280
1010.00,53.269
1011.00,53.267
1012.00,53.233
1013.00,53.234
1014.00,53.209
1015.00,53.230
1016.00,53.202
1017.00,53.186
1018.00,53.180
1019.00,53.174
1020.00,53.140
1021.00,53.109
1022.00,53.147
1023.00,53.069
1024.00,53.068
1025.00,53.047
1026.00,53.044
1027.00,53.025
1028.00,53.003
1029.00,53.023
1030.00,52.980
1031.00,52.995
1032.00,52.959
1033.00,52.960
1034.00,52.935
1035.00,52.884
1036.00,52.873
1037.00,52.870
1038.00,52.843
1039.00,52.799
1040.00,52.805
1041.00,52.770
1042.00,52.760
1043.00,52.756
1044.00,52.811
1045.00,52.793
1046.00,52.767
1047.00,52.801
1048.00,52.807
1049.00,52.819
1050.00,52.806
1051.00,52.841
1052.00,52.849
1053.00,52.838
1054.00,52.840
1055.00,52.852
1056.00,52.866
1057.00,52.879
1058.00,52.865
1059.00,52.868
1060.00,52.885
1061.00,52.870
1062.00,52.861
1063.00,52.854
1064.00,52.854
1065.00,52.829
1066.00,52.833
1067.00,52.821
1068.00,52.844
1069.00,52.809
1070.00,52.790
1071.00,52.776
1072.00,52.788
1073.00,52.775
1074.00,52.749
1075.00,52.740
1076.00,52.767
1077.00,52.765
1078.00,52.716
1079.00,52.723
1080.00,52.747
1081.00,52.727
1082.00,52.737
1083.00,52.720
1084.00,52.708
1085.00,52.712
1086.00,52.705
1087.00,52.705
1088.00,52.673
1089.00,52.659
1090.00,52.676
1091.00,52.683
1092.00,52.671
1093.00,52.657
1094.00,52.644
1095.00,52.641
1096.00,52.615
1097.00,52.622
1098.00,52.595
1099.00,52.609
1100.00,52.601
1101.00,52.589
1102.00,52.578
1103.00,52.604
1104.00,52.549
1105.00,52.524
1106.00,52.528
1107.00,52.518
1108.00,52.494
1109.00,52.497
1110.00,52.499
1111.00,52.478
1112.00,52.463
1113.00,52.481
1114.00,52.464
1115.00,52.476
1116.00,52.467
1117.00,52.473
1118.00,52.473
1119.00,52.446
1120.00,52.446
1121.00,52.451
1122.00,52.419
1123.00,52.420
1124.00,52.408
1125.00,52.419
1126.00,52.413
1127.00,52.423
1128.00,52.404
1129.00,52.390
1130.00,52.381
1131.00,52.367
1132.00,52.348
1133.00,52.394
1134.00,52.351
1135.00,52.349
1136.00,52.339
1137.00,52.351
1138.00,52.344
1139.00,52.347
1140.00,52.336
1141.00,52.346
1142.00,52.315
1143.00,52.352
1144.00,52.318
1145.00,52.319
1146.00,52.322
1147.00,52.317
1148.00,52.319
1149.00,52.320
1150.00,52.327
1151.00,52.326
1152.00,52.302
1153.00,52.326
1154.00,52.320
1155.00,52.322
1156.00,52.311
1157.00,52.316
1158.00,52.302
1159.00,52.305
1160.00,52.288
1161.00,52.302
1162.00,52.304
1163.00,52.287
1164.00,52.296
1165.00,52.299
1166.00,52.291
1167.00,52.277
1168.00,52.316
1169.00,52.296
1170.00,52.297
1171.00,52.282
1172.00,52.278
1173.00,52.270
1174.00,52.279
1175.00,52.279
1176.00,52.289
1177.00,52.259
1178.00,52.262
1179.00,52.285
1180.00,52.259
1181.00,52.294
1182.00,52.277
1183.00,52.278
1184.00,52.255
1185.00,52.279
1186.00,52.278
1187.00,52.269
1188.00,52.278
1189.00,52.278
1190.00,52.279
1191.00,52.274
1192.00,52.295
1193.00,52.283
1194.00,52.289
1195.00,52.263
1196.00,52.295
1197.00,52.292
1198.00,52.276
1199.00,52.276
1200.00,52.292
1201.00,52.299
1202.00,52.273
1203.00,52.283
1204.00,52.265
1205.00,52.290
1206.00,52.273
1207.00,52.275
1208.00,52.266
1209.00,52.285
1210.00,52.278
1211.00,52.274
1212.00,52.310
1213.00,52.249
1214.00,52.291
1215.00,52.269
1216.00,52.267
1217.00,52.275
1218.00,52.258
1219.00,52.291
1220.00,52.277
1221.00,52.283
1222.00,52.278
1223.00,52.295
1224.00,52.296
1225.00,52.298
1226.00,52.284
1227.00,52.277
1228.00,52.302
1229.00,52.309
1230.00,52.332
1231.00,52.316
1232.00,52.324
1233.00,52.348
1234.00,52.346
1235.00,52.338
1236.00,52.336
1237.00,52.333
1238.00,52.329
1239.00,52.357
1240.00,52.331
1241.00,52.340
1242.00,52.348
1243.00,52.364
1244.00,52.350
1245.00,52.381
1246.00,52.382
1247.00,52.366
1248.00,52.361
1249.00,52.367
1250.00,52.379
1251.00,52.344
1252.00,52.345
1253.00,52.369
1254.00,52.399
1255.00,52.331
1256.00,52.355
1257.00,52.351
1258.00,52.385
1259.00,52.366
1260.00,52.403
1261.00,52.408
1262.00,52.396
1263.00,52.402
1264.00,52.411
1265.00,52.407
1266.00,52.399
1267.00,52.421
1268.00,52.424
1269.00,52.437
1270.00,52.460
1271.00,52.466
1272.00,52.460
1273.00,52.463
1274.00,52.475
1275.00,52.468
1276.00,52.462
1277.00,52.494
1278.00,52.482
1279.00,52.483
1280.00,52.482
1281.00,52.490
1282.00,52.504
1283.00,52.487
1284.00,52.503
1285.00,52.506
1286.00,52.526
1287.00,52.504
1288.00,52.517
1289.00,52.519
1290.00,52.555
1291.00,52.550
1292.00,52.555
1293.00,52.557
1294.00,52.562
1295.00,52.567
1296.00,52.583
1297.00,52.588
1298.00,52.608
1299.00,52.580
1300.00,52.613
1301.00,52.593
1302.00,52.625
1303.00,52.628
1304.00,52.612
1305.00,52.639
1306.00,52.642
1307.00,52.661
1308.00,52.647
1309.00,52.620
1310.00,52.685
1311.00,52.633
1312.00,52.641
1313.00,52.663
1314.00,52.675
1315.00,52.696
1316.00,52.681
1317.00,52.717
1318.00,52.711
1319.00,52.723
1320.00,52.720
1321.00,52.869
1322.00,52.858
1323.00,52.847
1324.00,52.842
1325.00,52.861
1326.00,52.869
1327.00,52.846
1328.00,52.850
1329.00,52.837
1330.00,52.853
1331.00,52.854
1332.00,52.847
1333.00,52.849
1334.00,52.876
1335.00,52.893
1336.00,52.926
1337.00,52.941
1338.00,53.019
1339.00,53.055
1340.00,53.104
1341.00,53.182
1342.00,53.246
1343.00,53.282
1344.00,53.333
1345.00,53.394
1346.00,53.417
1347.00,53.450
1348.00,53.475
1349.00,53.489
1350.00,53.514
1351.00,53.521
1352.00,53.535
1353.00,53.504
1354.00,53.541
1355.00,53.538
1356.00,53.550
1357.00,53.546
1358.00,53.610
1359.00,53.536
1360.00,53.567
1361.00,53.619
1362.00,53.567
1363.00,53.576
1364.00,53.667
1365.00,53.581
1366.00,53.657
1367.00,53.572
1368.00,53.582
1369.00,53.603
1370.00,53.539
1371.00,53.555
1372.00,53.562
1373.00,53.549
1374.00,53.626
1375.00,53.545
1376.00,53.551
1377.00,53.518
1378.00,53.574
1379.00,53.554
1380.00,53.581
1381.00,53.571
1382.00,53.538
1383.00,53.598
1384.00,53.526
1385.00,53.576
1386.00,53.578
1387.00,53.519
1388.00,53.514
1389.00,53.511
1390.00,53.489
1391.00,53.596
1392.00,53.513
1393.00,53.535
1394.00,53.588
1395.00,53.552
1396.00,53.502
1397.00,53.548
1398.00,53.522
1399.00,53.560
1400.00,53.553
1401.00,53.525
1402.00,53.609
1403.00,53.587
1404.00,53.607
1405.00,53.583
1406.00,53.640
1407.00,53.583
1408.00,53.629
1409.00,53.607
1410.00,53.624
1411.00,53.592
1412.00,53.686
1413.00,53.624
1414.00,53.650
1415.00,53.664
1416.00,53.678
1417.00,53.689
1418.00,53.697
1419.00,53.713
1420.00,53.691
1421.00,53.742
1422.00,53.712
1423.00,53.737
1424.00,53.746
1425.00,53.761
1426.00,53.748
1427.00,53.801
1428.00,53.787
1429.00,53.795
1430.00,53.814
1431.00,53.815
1432.00,53.851
1433.00,53.848
1434.00,53.835
1435.00,53.930
1436.00,53.908
1437.00,53.898
1438.00,53.914
1439.00,53.925
1440.00,53.928
1441.00,53.948
1442.00,53.952
1443.00,53.992
1444.00,54.045
1445.00,53.995
1446.00,54.050
1447.00,54.052
1448.00,54.083
1449.00,54.095
1450.00,54.117
1451.00,54.152
1452.00,54.148
1453.00,54.127
1454.00,54.142
1455.00,54.148
1456.00,54.181
1457.00,54.177
1458.00,54.210
1459.00,54.218
1460.00,54.257
1461.00,54.240
1462.00,54.283
1463.00,54.279
1464.00,54.276
1465.00,54.310
1466.00,54.301
1467.00,54.315
1468.00,54.407
1469.00,54.341
1470.00,54.384
1471.00,54.406
1472.00,54.400
1473.00,54.413
1474.00,54.455
1475.00,54.461
1476.00,54.475
1477.00,54.431
1478.00,54.466
1479.00,54.508
1480.00,54.509
1481.00,54.534
1482.00,54.534
1483.00,54.529
1484.00,54.539
1485.00,54.547
1486.00,54.563
1487.00,54.577
1488.00,54.611
1489.00,54.599
1490.00,54.629
1491.00,54.619
1492.00,54.641
1493.00,54.627
1494.00,54.656
1495.00,54.644
1496.00,54.686
1497.00,54.645
1498.00,54.695
1499.00,54.694
1500.00,54.709
1501.00, 
1502.00, 
1503.00, 
1504.00, 
1505.00, 
1506.00, 
1507.00, 
1508.00, 
1509.00, 
1510.00, 
1511.00, 
1512.00, 
1513.00, 
1514.00, 
1515.00, 
1516.00, 
1517.00, 
1518.00, 
1519.00, 
1520.00, 
1521.00, 
1522.00, 
1523.00, 
1524.00, 
1525.00, 
1526.00, 
1527.00, 
1528.00, 
1529.00, 
1530.00, 
1531.00, 
1532.00, 
1533.00, 
1534.00, 
1535.00, 
1536.00, 
1537.00, 
1538.00, 
1539.00, 
1540.00, 
1541.00, 
1542.00, 
1543.00, 
1544.00, 
1545.00, 
1546.00, 
1547.00, 
1548.00, 
1549.00, 
1550.00, 
1551.00, 
1552.00, 
1553.00, 
1554.00, 
1555.00, 
1556.00, 
1557.00, 
1558.00, 
1559.00, 
1560.00, 
1561.00, 
1562.00, 
1563.00, 
1564.00, 
1565.00, 
1566.00, 
1567.00, 
1568.00, 
1569.00, 
1570.00, 
1571.00, 
1572.00, 
1573.00, 
1574.00, 
1575.00, 
1576.00, 
1577.00, 
1578.00, 
1579.00, 
1580.00, 
1581.00, 
1582.00, 
1583.00, 
1584.00, 
1585.00, 
1586.00, 
1587.00, 
1588.00, 
1589.00, 
1590.00, 
1591.00, 
1592.00, 
1593.00, 
1594.00, 
1595.00, 
1596.00, 
1597.00, 
1598.00, 
1599.00, 
1600.00, 
1601.00, 
1602.00, 
1603.00, 
1604.00, 
1605.00, 
1606.00, 
1607.00, 
1608.00, 
1609.00, 
1610.00, 
1611.00, 
1612.00, 
1613.00, 
1614.00, 
1615.00, 
1616.00, 
1617.00, 
1618.00, 
1619.00, 
1620.00, 
1621.00, 
1622.00, 
1623.00, 
1624.00, 
1625.00, 
1626.00, 
1627.00, 
1628.00, 
1629.00, 
1630.00, 
1631.00, 
1632.00, 
1633.00, 
1634.00, 
1635.00, 
1636.00, 
1637.00, 
1638.00, 
1639.00, 
1640.00, 
1641.00, 
1642.00, 
1643.00, 
1644.00, 
1645.00, 
1646.00, 
1647.00, 
1648.00, 
1649.00, 
1650.00, 
1651.00, 
1652.00, 
1653.00, 
1654.00, 
1655.00, 
1656.00, 
1657.00, 
1658.00, 
1659.00, 
1660.00, 
1661.00, 
1662.00, 
1663.00, 
1664.00, 
1665.00, 
1666.00, 
1667.00, 
1668.00, 
1669.00, 
1670.00, 
1671.00, 
1672.00, 
1673.00, 
1674.00, 
1675.00, 
1676.00, 
1677.00, 
1678.00, 
1679.00, 
1680.00, 
1681.00, 
1682.00, 
1683.00, 
1684.00, 
1685.00, 
1686.00, 
1687.00, 
1688.00, 
1689.00, 
1690.00, 
1691.00, 
1692.00, 
1693.00, 
1694.00, 
1695.00, 
1696.00, 
1697.00, 
1698.00, 
1699.00, 
1700.00, 
1701.00, 
1702.00, 
1703.00, 
1704.00, 
1705.00, 
1706.00, 
1707.00, 
1708.00, 
1709.00, 
1710.00, 
1711.00, 
1712.00, 
1713.00, 
1714.00, 
1715.00, 
1716.00, 
1717.00, 
1718.00, 
1719.00, 
1720.00, 
1721.00, 
1722.00, 
1723.00, 
1724.00, 
1725.00, 
1726.00, 
1727.00, 
1728.00, 
1729.00, 
1730.00, 
1731.00, 
1732.00, 
1733.00, 
1734.00, 
1735.00, 
1736.00, 
1737.00, 
1738.00, 
1739.00, 
1740.00, 
1741.00, 
1742.00, 
1743.00, 
1744.00, 
1745.00, 
1746.00, 
1747.00, 
1748.00, 
1749.00, 
1750.00, 
1751.00, 
1752.00, 
1753.00, 
1754.00, 
1755.00, 
1756.00, 
1757.00, 
1758.00, 
1759.00, 
1760.00, 
1761.00, 
1762.00, 
1763.00, 
1764.00, 
1765.00, 
1766.00, 
1767.00, 
1768.00, 
1769.00, 
1770.00, 
1771.00, 
1772.00, 
1773.00, 
1774.00, 
1775.00, 
1776.00, 
1777.00, 
1778.00, 
1779.00, 
1780.00, 
1781.00, 
1782.00, 
1783.00, 
1784.00, 
1785.00, 
1786.00, 
1787.00, 
1788.00, 
1789.00, 
1790.00, 
1791.00, 
1792.00, 
1793.00, 
1794.00, 
1795.00, 
1796.00, 
1797.00, 
1798.00, 
1799.00, 
1800.00, 
1801.00, 
1802.00, 
1803.00, 
1804.00, 
1805.00, 
1806.00, 
1807.00, 
1808.00, 
1809.00, 
1810.00, 
1811.00, 
1812.00, 
1813.00, 
1814.00, 
1815.00, 
1816.00, 
1817.00, 
1818.00, 
1819.00, 
1820.00, 
1821.00, 
1822.00, 
1823.00, 
1824.00, 
1825.00, 
1826.00, 
1827.00, 
1828.00, 
1829.00, 
1830.00, 
1831.00, 
1832.00, 
1833.00, 
1834.00, 
1835.00, 
1836.00, 
1837.00, 
1838.00, 
1839.00, 
1840.00, 
1841.00, 
1842.00, 
1843.00, 
1844.00, 
1845.00, 
1846.00, 
1847.00, 
1848.00, 
1849.00, 
1850.00, 
1851.00, 
1852.00, 
1853.00, 
1854.00, 
1855.00, 
1856.00, 
1857.00, 
1858.00, 
1859.00, 
1860.00, 
1861.00, 
1862.00, 
1863.00, 
1864.00, 
1865.00, 
1866.00, 
1867.00, 
1868.00, 
1869.00, 
1870.00, 
1871.00, 
1872.00, 
1873.00, 
1874.00, 
1875.00, 
1876.00, 
1877.00, 
1878.00, 
1879.00, 
1880.00, 
1881.00, 
1882.00, 
1883.00, 
1884.00, 
1885.00, 
1886.00, 
1887.00, 
1888.00, 
1889.00, 
1890.00, 
1891.00, 
1892.00, 
1893.00, 
1894.00, 
1895.00, 
1896.00, 
1897.00, 
1898.00, 
1899.00, 
1900.00, 
1901.00, 
1902.00, 
1903.00, 
1904.00, 
1905.00, 
1906.00, 
1907.00, 
1908.00, 
1909.00, 
1910.00, 
1911.00, 
1912.00, 
1913.00, 
1914.00, 
1915.00, 
1916.00, 
1917.00, 
1918.00, 
1919.00, 
1920.00, 
1921.00, 
1922.00, 
1923.00, 
1924.00, 
1925.00, 
1926.00, 
1927.00, 
1928.00, 
1929.00, 
1930.00, 
1931.00, 
1932.00, 
1933.00, 
1934.00, 
1935.00, 
1936.00, 
1937.00, 
1938.00, 
1939.00, 
1940.00, 
1941.00, 
1942.00, 
1943.00, 
1944.00, 
1945.00, 
1946.00, 
1947.00, 
1948.00, 
1949.00, 
1950.00, 
1951.00, 
1952.00, 
1953.00, 
1954.00, 
1955.00, 
1956.00, 
1957.00, 
1958.00, 
1959.00, 
1960.00, 
1961.00, 
1962.00, 
1963.00, 
1964.00, 
1965.00, 
1966.00, 
1967.00, 
1968.00, 
1969.00, 
1970.00, 
1971.00, 
1972.00, 
1973.00, 
1974.00, 
1975.00, 
1976.00, 
1977.00, 
1978.00, 
1979.00, 
1980.00, 
1981.00, 
1982.00, 
1983.00, 
1984.00, 
1985.00, 
1986.00, 
1987.00, 
1988.00, 
1989.00, 
1990.00, 
1991.00, 
1992.00, 
1993.00, 
1994.00, 
1995.00, 
1996.00, 
1997.00, 
1998.00, 
1999.00, 
2000.00, 
2001.00, 
2002.00, 
2003.00, 
2004.00, 
2005.00, 
2006.00, 
2007.00, 
2008.00, 
2009.00, 
2010.00, 
2011.00, 
2012.00, 
2013.00, 
2014.00, 
2015.00, 
2016.00, 
2017.00, 
2018.00, 
2019.00, 
2020.00, 
2021.00, 
2022.00, 
2023.00, 
2024.00, 
2025.00, 
2026.00, 
2027.00, 
2028.00, 
2029.00, 
2030.00, 
2031.00, 
2032.00, 
2033.00, 
2034.00, 
2035.00, 
2036.00, 
2037.00, 
2038.00, 
2039.00, 
2040.00, 
2041.00, 
2042.00, 
2043.00, 
2044.00, 
2045.00, 
2046.00, 
2047.00, 
2048.00, 
2049.00, 
2050.00, 
2051.00, 
2052.00, 
2053.00, 
2054.00, 
2055.00, 
2056.00, 
2057.00, 
2058.00, 
2059.00, 
2060.00, 
2061.00, 
2062.00, 
2063.00, 
2064.00, 
2065.00, 
2066.00, 
2067.00, 
2068.00, 
2069.00, 
2070.00, 
2071.00, 
2072.00, 
2073.00, 
2074.00, 
2075.00, 
2076.00, 
2077.00, 
2078.00, 
2079.00, 
2080.00, 
2081.00, 
2082.00, 
2083.00, 
2084.00, 
2085.00, 
2086.00, 
2087.00, 
2088.00, 
2089.00, 
2090.00, 
2091.00, 
2092.00, 
2093.00, 
2094.00, 
2095.00, 
2096.00, 
2097.00, 
2098.00, 
2099.00, 
2100.00, 
2101.00, 
2102.00, 
2103.00, 
2104.00, 
2105.00, 
2106.00, 
2107.00, 
2108.00, 
2109.00, 
2110.00, 
2111.00, 
2112.00, 
2113.00, 
2114.00, 
2115.00, 
2116.00, 
2117.00, 
2118.00, 
2119.00, 
2120.00, 
2121.00, 
2122.00, 
2123.00, 
2124.00, 
2125.00, 
2126.00, 
2127.00, 
2128.00, 
2129.00, 
2130.00, 
2131.00, 
2132.00, 
2133.00, 
2134.00, 
2135.00, 
2136.00, 
2137.00, 
2138.00, 
2139.00, 
2140.00, 
2141.00, 
2142.00, 
2143.00, 
2144.00, 
2145.00, 
2146.00, 
2147.00, 
2148.00, 
2149.00, 
2150.00, 
2151.00, 
2152.00, 
2153.00, 
2154.00, 
2155.00, 
2156.00, 
2157.00, 
2158.00, 
2159.00, 
2160.00, 
2161.00, 
2162.00, 
2163.00, 
2164.00, 
2165.00, 
2166.00, 
2167.00, 
2168.00, 
2169.00, 
2170.00, 
2171.00, 
2172.00, 
2173.00, 
2174.00, 
2175.00, 
2176.00, 
2177.00, 
2178.00, 
2179.00, 
2180.00, 
2181.00, 
2182.00, 
2183.00, 
2184.00, 
2185.00, 
2186.00, 
2187.00, 
2188.00, 
2189.00, 
2190.00, 
2191.00, 
2192.00, 
2193.00, 
2194.00, 
2195.00, 
2196.00, 
2197.00, 
2198.00, 
2199.00, 
2200.00, 
2201.00, 
2202.00, 
2203.00, 
2204.00, 
2205.00, 
2206.00, 
2207.00, 
2208.00, 
2209.00, 
2210.00, 
2211.00, 
2212.00, 
2213.00, 
2214.00, 
2215.00, 
2216.00, 
2217.00, 
2218.00, 
2219.00, 
2220.00, 
2221.00, 
2222.00, 
2223.00, 
2224.00, 
2225.00, 
2226.00, 
2227.00, 
2228.00, 
2229.00, 
2230.00, 
2231.00, 
2232.00, 
2233.00, 
2234.00, 
2235.00, 
2236.00, 
2237.00, 
2238.00, 
2239.00, 
2240.00, 
2241.00, 
2242.00, 
2243.00, 
2244.00, 
2245.00, 
2246.00, 
2247.00, 
2248.00, 
2249.00, 
2250.00, 
2251.00, 
2252.00, 
2253.00, 
2254.00, 
2255.00, 
2256.00, 
2257.00, 
2258.00, 
2259.00, 
2260.00, 
2261.00, 
2262.00, 
2263.00, 
2264.00, 
2265.00, 
2266.00, 
2267.00, 
2268.00, 
2269.00, 
2270.00, 
2271.00, 
2272.00, 
2273.00, 
2274.00, 
2275.00, 
2276.00, 
2277.00, 
2278.00, 
2279.00, 
2280.00, 
2281.00, 
2282.00, 
2283.00, 
2284.00, 
2285.00, 
2286.00, 
2287.00, 
2288.00, 
2289.00, 
2290.00, 
2291.00, 
2292.00, 
2293.00, 
2294.00, 
2295.00, 
2296.00, 
2297.00, 
2298.00, 
2299.00, 
2300.00, 
2301.00, 
2302.00, 
2303.00, 
2304.00, 
2305.00, 
2306.00, 
2307.00, 
2308.00, 
2309.00, 
2310.00, 
2311.00, 
2312.00, 
2313.00, 
2314.00, 
2315.00, 
2316.00, 
2317.00, 
2318.00, 
2319.00, 
2320.00, 
2321.00, 
2322.00, 
2323.00, 
2324.00, 
2325.00, 
2326.00, 
2327.00, 
2328.00, 
2329.00, 
2330.00, 
2331.00, 
2332.00, 
2333.00, 
2334.00, 
2335.00, 
2336.00, 
2337.00, 
2338.00, 
2339.00, 
2340.00, 
2341.00, 
2342.00, 
2343.00, 
2344.00, 
2345.00, 
2346.00, 
2347.00, 
2348.00, 
2349.00, 
2350.00, 
2351.00, 
2352.00, 
2353.00, 
2354.00, 
2355.00, 
2356.00, 
2357.00, 
2358.00, 
2359.00, 
2360.00, 
2361.00, 
2362.00, 
2363.00, 
2364.00, 
2365.00, 
2366.00, 
2367.00, 
2368.00, 
2369.00, 
2370.00, 
2371.00, 
2372.00, 
2373.00, 
2374.00, 
2375.00, 
2376.00, 
2377.00, 
2378.00, 
2379.00, 
2380.00, 
2381.00, 
2382.00, 
2383.00, 
2384.00, 
2385.00, 
2386.00, 
2387.00, 
2388.00, 
2389.00, 
2390.00, 
2391.00, 
2392.00, 
2393.00, 
2394.00, 
2395.00, 
2396.00, 
2397.00, 
2398.00, 
2399.00, 
2400.00, 
2401.00, 
2402.00, 
2403.00, 
2404.00, 
2405.00, 
2406.00, 
2407.00, 
2408.00, 
2409.00, 
2410.00, 
2411.00, 
2412.00, 
2413.00, 
2414.00, 
2415.00, 
2416.00, 
2417.00, 
2418.00, 
2419.00, 
2420.00, 
2421.00, 
2422.00, 
2423.00, 
2424.00, 
2425.00, 
2426.00, 
2427.00, 
2428.00, 
2429.00, 
2430.00, 
2431.00, 
2432.00, 
2433.00, 
2434.00, 
2435.00, 
2436.00, 
2437.00, 
2438.00, 
2439.00, 
2440.00, 
2441.00, 
2442.00, 
2443.00, 
2444.00, 
2445.00, 
2446.00, 
2447.00, 
2448.00, 
2449.00, 
2450.00, 
2451.00, 
2452.00, 
2453.00, 
2454.00, 
2455.00, 
2456.00, 
2457.00, 
2458.00, 
2459.00, 
2460.00, 
2461.00, 
2462.00, 
2463.00, 
2464.00, 
2465.00, 
2466.00, 
2467.00, 
2468.00, 
2469.00, 
2470.00, 
2471.00, 
2472.00, 
2473.00, 
2474.00, 
2475.00, 
2476.00, 
2477.00, 
2478.00, 
2479.00, 
2480.00, 
2481.00, 
2482.00, 
2483.00, 
2484.00, 
2485.00, 
2486.00, 
2487.00, 
2488.00, 
2489.00, 
2490.00, 
2491.00, 
2492.00, 
2493.00, 
2494.00, 
2495.00, 
2496.00, 
2497.00, 
2498.00, 
2499.00, 
2500.00, 
2501.00, 
2502.00, 
2503.00, 
2504.00, 
2505.00, 
2506.00, 
2507.00, 
2508.00, 
2509.00, 
2510.00, 
2511.00, 
2512.00, 
2513.00, 
2514.00, 
2515.00, 
2516.00, 
2517.00, 
2518.00, 
2519.00, 
2520.00, 
2521.00, 
2522.00, 
2523.00, 
2524.00, 
2525.00, 
2526.00, 
2527.00, 
2528.00, 
2529.00, 
2530.00, 
2531.00, 
2532.00, 
2533.00, 
2534.00, 
2535.00, 
2536.00, 
2537.00, 
2538.00, 
2539.00, 
2540.00, 
2541.00, 
2542.00, 
2543.00, 
2544.00, 
2545.00, 
2546.00, 
2547.00, 
2548.00, 
2549.00, 
2550.00, 
2551.00, 
2552.00, 
2553.00, 
2554.00, 
2555.00, 
2556.00, 
2557.00, 
2558.00, 
2559.00, 
2560.00, 
2561.00, 
2562.00, 
2563.00, 
2564.00, 
2565.00, 
2566.00, 
2567.00, 
2568.00, 
2569.00, 
2570.00, 
2571.00, 
2572.00, 
2573.00, 
2574.00, 
2575.00, 
2576.00, 
2577.00, 
2578.00, 
2579.00, 
2580.00, 
2581.00, 
2582.00, 
2583.00, 
2584.00, 
2585.00, 
2586.00, 
2587.00, 
2588.00, 
2589.00, 
2590.00, 
2591.00, 
2592.00, 
2593.00, 
2594.00, 
2595.00, 
2596.00, 
2597.00, 
2598.00, 
2599.00, 
2600.00, 
