"1cP1 - RawData"
"Wavelength nm.","T%"
200.00,-0.001
201.00,0.000
202.00,0.001
203.00,0.001
204.00,0.005
205.00,0.001
206.00,0.000
207.00,0.003
208.00,0.003
209.00,-0.000
210.00,0.002
211.00,-0.002
212.00,-0.000
213.00,0.002
214.00,-0.001
215.00,0.002
216.00,0.000
217.00,-0.000
218.00,0.000
219.00,-0.001
220.00,-0.003
221.00,0.003
222.00,-0.001
223.00,0.000
224.00,0.002
225.00,0.000
226.00,-0.002
227.00,0.002
228.00,0.000
229.00,0.001
230.00,0.001
231.00,-0.000
232.00,-0.001
233.00,-0.001
234.00,-0.001
235.00,0.001
236.00,0.001
237.00,0.000
238.00,-0.000
239.00,-0.002
240.00,0.001
241.00,0.000
242.00,-0.001
243.00,0.000
244.00,0.000
245.00,0.001
246.00,-0.000
247.00,0.000
248.00,0.000
249.00,-0.001
250.00,0.000
251.00,0.001
252.00,-0.000
253.00,-0.000
254.00,0.001
255.00,0.001
256.00,0.001
257.00,0.001
258.00,-0.001
259.00,0.001
260.00,0.001
261.00,0.001
262.00,0.001
263.00,0.001
264.00,-0.001
265.00,0.001
266.00,-0.001
267.00,-0.000
268.00,-0.000
269.00,0.000
270.00,-0.000
271.00,0.001
272.00,-0.000
273.00,-0.000
274.00,0.000
275.00,-0.001
276.00,-0.000
277.00,-0.001
278.00,0.001
279.00,0.000
280.00,-0.001
281.00,-0.001
282.00,0.000
283.00,0.000
284.00,-0.000
285.00,0.001
286.00,0.001
287.00,0.001
288.00,-0.000
289.00,-0.000
290.00,0.001
291.00,-0.000
292.00,-0.002
293.00,-0.000
294.00,0.002
295.00,0.000
296.00,0.001
297.00,0.002
298.00,-0.000
299.00,-0.001
300.00,-0.000
301.00,-0.001
302.00,0.001
303.00,0.002
304.00,0.002
305.00,0.001
306.00,0.001
307.00,0.003
308.00,0.006
309.00,0.013
310.00,0.018
311.00,0.030
312.00,0.043
313.00,0.064
314.00,0.096
315.00,0.145
316.00,0.211
317.00,0.304
318.00,0.407
319.00,0.552
320.00,0.725
321.00,0.942
322.00,1.214
323.00,1.514
324.00,1.886
325.00,2.275
326.00,2.703
327.00,3.220
328.00,3.759
329.00,4.316
330.00,4.962
331.00,5.581
332.00,6.279
333.00,7.024
334.00,7.741
335.00,8.540
336.00,9.319
337.00,10.121
338.00,10.905
339.00,11.643
340.00,12.413
341.00,13.143
342.00,13.843
343.00,14.586
344.00,15.272
345.00,15.988
346.00,16.590
347.00,17.178
348.00,17.733
349.00,18.262
350.00,18.730
351.00,19.230
352.00,19.641
353.00,20.069
354.00,20.480
355.00,20.881
356.00,21.188
357.00,21.509
358.00,21.810
359.00,22.172
360.00,22.428
361.00,22.747
362.00,22.875
363.00,23.098
364.00,23.216
365.00,23.345
366.00,23.479
367.00,23.639
368.00,23.682
369.00,23.776
370.00,23.858
371.00,23.891
372.00,23.836
373.00,23.875
374.00,23.882
375.00,23.831
376.00,23.735
377.00,23.654
378.00,23.550
379.00,23.513
380.00,23.417
381.00,23.506
382.00,23.504
383.00,23.545
384.00,23.592
385.00,23.646
386.00,23.682
387.00,23.834
388.00,23.901
389.00,23.970
390.00,24.006
391.00,24.088
392.00,24.154
393.00,24.165
394.00,24.210
395.00,24.266
396.00,24.269
397.00,24.333
398.00,24.363
399.00,24.296
400.00,24.311
401.00,24.310
402.00,24.314
403.00,24.290
404.00,24.272
405.00,24.271
406.00,24.292
407.00,24.252
408.00,24.162
409.00,24.148
410.00,24.053
411.00,24.109
412.00,24.063
413.00,24.079
414.00,24.028
415.00,24.026
416.00,24.107
417.00,24.061
418.00,24.081
419.00,24.182
420.00,24.221
421.00,24.259
422.00,24.227
423.00,24.322
424.00,24.423
425.00,24.326
426.00,24.373
427.00,24.412
428.00,24.440
429.00,24.502
430.00,24.541
431.00,24.595
432.00,24.600
433.00,24.644
434.00,24.729
435.00,24.760
436.00,24.842
437.00,24.875
438.00,24.968
439.00,25.011
440.00,25.066
441.00,25.123
442.00,25.205
443.00,25.279
444.00,25.351
445.00,25.440
446.00,25.561
447.00,25.593
448.00,25.719
449.00,25.838
450.00,25.929
451.00,25.993
452.00,26.067
453.00,26.216
454.00,26.290
455.00,26.428
456.00,26.537
457.00,26.595
458.00,26.710
459.00,26.857
460.00,26.957
461.00,27.056
462.00,27.139
463.00,27.385
464.00,27.347
465.00,27.602
466.00,27.702
467.00,27.811
468.00,27.910
469.00,28.004
470.00,28.114
471.00,28.180
472.00,28.324
473.00,28.401
474.00,28.501
475.00,28.613
476.00,28.718
477.00,28.758
478.00,28.919
479.00,29.079
480.00,29.202
481.00,29.335
482.00,29.480
483.00,29.590
484.00,29.789
485.00,29.875
486.00,30.041
487.00,30.202
488.00,30.343
489.00,30.496
490.00,30.606
491.00,30.748
492.00,30.982
493.00,31.126
494.00,31.120
495.00,31.268
496.00,31.386
497.00,31.473
498.00,31.606
499.00,31.738
500.00,31.863
501.00,31.987
502.00,32.124
503.00,32.262
504.00,32.268
505.00,32.409
506.00,32.500
507.00,32.587
508.00,32.716
509.00,32.915
510.00,32.999
511.00,33.107
512.00,33.250
513.00,33.382
514.00,33.467
515.00,33.651
516.00,33.785
517.00,33.785
518.00,33.905
519.00,33.940
520.00,33.973
521.00,34.166
522.00,34.213
523.00,34.263
524.00,34.341
525.00,34.451
526.00,34.570
527.00,34.648
528.00,34.690
529.00,34.884
530.00,35.042
531.00,35.119
532.00,35.191
533.00,35.310
534.00,35.395
535.00,35.476
536.00,35.555
537.00,35.713
538.00,35.711
539.00,35.830
540.00,35.933
541.00,35.879
542.00,35.983
543.00,36.001
544.00,36.104
545.00,36.156
546.00,36.206
547.00,36.341
548.00,36.461
549.00,36.502
550.00,36.570
551.00,36.624
552.00,36.740
553.00,36.794
554.00,36.915
555.00,36.938
556.00,36.909
557.00,37.020
558.00,37.060
559.00,37.038
560.00,37.246
561.00,37.275
562.00,37.266
563.00,37.307
564.00,37.402
565.00,37.379
566.00,37.448
567.00,37.454
568.00,37.536
569.00,37.603
570.00,37.648
571.00,37.689
572.00,37.715
573.00,37.714
574.00,37.748
575.00,37.747
576.00,37.774
577.00,37.821
578.00,37.905
579.00,38.005
580.00,38.025
581.00,38.204
582.00,38.249
583.00,38.230
584.00,38.363
585.00,38.428
586.00,38.442
587.00,38.498
588.00,38.536
589.00,38.517
590.00,38.549
591.00,38.633
592.00,38.427
593.00,38.628
594.00,38.735
595.00,38.768
596.00,38.873
597.00,38.903
598.00,38.978
599.00,39.012
600.00,39.026
601.00,39.057
602.00,39.028
603.00,39.164
604.00,39.168
605.00,39.215
606.00,39.239
607.00,39.285
608.00,39.449
609.00,39.535
610.00,39.363
611.00,39.486
612.00,39.442
613.00,39.499
614.00,39.525
615.00,39.580
616.00,39.739
617.00,39.718
618.00,39.647
619.00,39.716
620.00,39.898
621.00,39.973
622.00,39.961
623.00,40.021
624.00,40.083
625.00,40.155
626.00,40.139
627.00,40.161
628.00,40.211
629.00,40.287
630.00,40.296
631.00,40.398
632.00,40.433
633.00,40.552
634.00,40.572
635.00,40.653
636.00,40.745
637.00,40.814
638.00,40.864
639.00,40.960
640.00,40.974
641.00,40.971
642.00,41.087
643.00,41.163
644.00,41.192
645.00,41.228
646.00,41.344
647.00,41.410
648.00,41.482
649.00,41.474
650.00,41.483
651.00,41.636
652.00,41.715
653.00,41.698
654.00,41.724
655.00,41.905
656.00,42.149
657.00,42.007
658.00,42.175
659.00,42.214
660.00,42.275
661.00,42.324
662.00,42.338
663.00,42.470
664.00,42.728
665.00,42.859
666.00,42.690
667.00,42.772
668.00,42.862
669.00,43.094
670.00,43.265
671.00,43.216
672.00,43.267
673.00,43.313
674.00,43.358
675.00,43.436
676.00,43.700
677.00,43.753
678.00,43.521
679.00,43.643
680.00,43.774
681.00,43.919
682.00,43.903
683.00,43.881
684.00,44.221
685.00,44.216
686.00,44.089
687.00,44.133
688.00,44.295
689.00,44.379
690.00,44.597
691.00,44.829
692.00,44.625
693.00,44.579
694.00,44.804
695.00,44.914
696.00,44.966
697.00,44.882
698.00,44.915
699.00,45.322
700.00,45.256
701.00,45.202
702.00,45.260
703.00,45.444
704.00,45.556
705.00,45.502
706.00,45.567
707.00,45.613
708.00,45.448
709.00,45.826
710.00,46.195
711.00,45.820
712.00,45.853
713.00,46.020
714.00,46.072
715.00,46.075
716.00,45.975
717.00,46.147
718.00,46.232
719.00,46.233
720.00,46.386
721.00,50.950
722.00,50.847
723.00,50.836
724.00,50.908
725.00,50.890
726.00,50.967
727.00,50.932
728.00,50.845
729.00,50.939
730.00,50.898
731.00,50.955
732.00,51.039
733.00,51.083
734.00,51.089
735.00,51.107
736.00,51.081
737.00,51.074
738.00,51.113
739.00,51.118
740.00,51.070
741.00,51.191
742.00,51.206
743.00,51.136
744.00,51.146
745.00,51.159
746.00,51.112
747.00,51.179
748.00,51.076
749.00,51.124
750.00,51.176
751.00,51.186
752.00,51.075
753.00,51.102
754.00,51.099
755.00,51.110
756.00,51.132
757.00,51.111
758.00,51.117
759.00,51.164
760.00,51.129
761.00,51.062
762.00,51.057
763.00,51.246
764.00,51.106
765.00,51.123
766.00,51.205
767.00,51.215
768.00,51.187
769.00,51.102
770.00,51.246
771.00,51.177
772.00,51.175
773.00,51.062
774.00,51.183
775.00,51.185
776.00,51.102
777.00,51.176
778.00,51.173
779.00,51.239
780.00,51.204
781.00,51.149
782.00,51.168
783.00,51.117
784.00,51.155
785.00,51.076
786.00,51.178
787.00,51.044
788.00,51.042
789.00,51.056
790.00,50.965
791.00,51.018
792.00,51.018
793.00,50.971
794.00,50.947
795.00,50.879
796.00,50.900
797.00,50.927
798.00,50.910
799.00,50.873
800.00,50.796
801.00,50.820
802.00,50.836
803.00,50.791
804.00,50.808
805.00,50.743
806.00,50.752
807.00,50.772
808.00,50.738
809.00,50.702
810.00,50.683
811.00,50.689
812.00,50.695
813.00,50.692
814.00,50.656
815.00,50.595
816.00,50.640
817.00,50.593
818.00,50.562
819.00,50.463
820.00,50.562
821.00,50.535
822.00,50.585
823.00,50.423
824.00,50.488
825.00,50.363
826.00,50.343
827.00,50.436
828.00,50.536
829.00,50.427
830.00,50.330
831.00,52.683
832.00,52.675
833.00,52.635
834.00,52.645
835.00,52.647
836.00,52.612
837.00,52.606
838.00,52.545
839.00,52.567
840.00,52.486
841.00,52.509
842.00,52.469
843.00,52.461
844.00,52.409
845.00,52.402
846.00,52.378
847.00,52.380
848.00,52.343
849.00,52.260
850.00,52.316
851.00,52.217
852.00,52.243
853.00,52.202
854.00,52.140
855.00,52.058
856.00,52.121
857.00,52.076
858.00,52.022
859.00,52.013
860.00,52.028
861.00,52.032
862.00,51.954
863.00,51.987
864.00,51.942
865.00,51.936
866.00,51.920
867.00,51.886
868.00,51.923
869.00,51.866
870.00,51.849
871.00,51.809
872.00,51.980
873.00,51.826
874.00,51.820
875.00,51.791
876.00,51.805
877.00,51.670
878.00,51.785
879.00,51.772
880.00,51.735
881.00,51.704
882.00,51.742
883.00,51.675
884.00,51.642
885.00,51.639
886.00,51.623
887.00,51.590
888.00,51.552
889.00,51.555
890.00,51.547
891.00,51.502
892.00,51.482
893.00,51.445
894.00,51.454
895.00,51.435
896.00,51.443
897.00,51.402
898.00,51.357
899.00,51.371
900.00,51.336
901.00,51.324
902.00,51.316
903.00,51.289
904.00,51.285
905.00,51.255
906.00,51.245
907.00,51.219
908.00,51.211
909.00,51.176
910.00,51.153
911.00,51.161
912.00,51.154
913.00,51.084
914.00,51.106
915.00,51.048
916.00,50.986
917.00,51.072
918.00,51.000
919.00,50.964
920.00,50.917
921.00,50.940
922.00,50.942
923.00,50.904
924.00,50.852
925.00,50.854
926.00,50.851
927.00,50.795
928.00,50.774
929.00,50.814
930.00,50.771
931.00,50.732
932.00,50.788
933.00,50.726
934.00,50.712
935.00,50.674
936.00,50.663
937.00,50.658
938.00,50.639
939.00,50.629
940.00,50.579
941.00,50.597
942.00,50.555
943.00,50.553
944.00,50.515
945.00,50.505
946.00,50.475
947.00,50.453
948.00,50.445
949.00,50.431
950.00,50.409
951.00,50.401
952.00,50.374
953.00,50.313
954.00,50.299
955.00,50.269
956.00,50.260
957.00,50.220
958.00,50.238
959.00,50.189
960.00,50.187
961.00,50.187
962.00,50.183
963.00,50.124
964.00,50.112
965.00,50.112
966.00,50.105
967.00,50.090
968.00,50.064
969.00,50.090
970.00,50.058
971.00,50.080
972.00,50.013
973.00,50.090
974.00,50.111
975.00,50.065
976.00,50.076
977.00,50.069
978.00,50.100
979.00,50.052
980.00,50.093
981.00,50.082
982.00,50.031
983.00,50.047
984.00,50.043
985.00,50.068
986.00,50.021
987.00,50.046
988.00,50.074
989.00,49.986
990.00,49.975
991.00,49.992
992.00,49.969
993.00,49.913
994.00,49.952
995.00,49.921
996.00,49.920
997.00,49.899
998.00,49.869
999.00,49.898
1000.00,49.854
1001.00,49.847
1002.00,49.840
1003.00,49.844
1004.00,49.824
1005.00,49.801
1006.00,49.834
1007.00,49.788
1008.00,49.771
1009.00,49.732
1010.00,49.749
1011.00,49.731
1012.00,49.692
1013.00,49.707
1014.00,49.675
1015.00,49.686
1016.00,49.647
1017.00,49.642
1018.00,49.639
1019.00,49.608
1020.00,49.600
1021.00,49.597
1022.00,49.578
1023.00,49.531
1024.00,49.572
1025.00,49.517
1026.00,49.492
1027.00,49.479
1028.00,49.472
1029.00,49.472
1030.00,49.430
1031.00,49.460
1032.00,49.424
1033.00,49.412
1034.00,49.383
1035.00,49.337
1036.00,49.316
1037.00,49.311
1038.00,49.327
1039.00,49.262
1040.00,49.251
1041.00,49.215
1042.00,49.196
1043.00,49.198
1044.00,49.232
1045.00,49.217
1046.00,49.202
1047.00,49.229
1048.00,49.247
1049.00,49.257
1050.00,49.261
1051.00,49.292
1052.00,49.300
1053.00,49.282
1054.00,49.290
1055.00,49.345
1056.00,49.313
1057.00,49.316
1058.00,49.294
1059.00,49.288
1060.00,49.295
1061.00,49.269
1062.00,49.280
1063.00,49.280
1064.00,49.282
1065.00,49.283
1066.00,49.280
1067.00,49.260
1068.00,49.278
1069.00,49.246
1070.00,49.221
1071.00,49.227
1072.00,49.247
1073.00,49.203
1074.00,49.203
1075.00,49.184
1076.00,49.197
1077.00,49.152
1078.00,49.140
1079.00,49.163
1080.00,49.171
1081.00,49.148
1082.00,49.139
1083.00,49.128
1084.00,49.121
1085.00,49.125
1086.00,49.103
1087.00,49.103
1088.00,49.081
1089.00,49.066
1090.00,49.077
1091.00,49.081
1092.00,49.074
1093.00,49.066
1094.00,49.039
1095.00,49.046
1096.00,49.019
1097.00,49.015
1098.00,49.011
1099.00,48.993
1100.00,48.979
1101.00,48.984
1102.00,48.961
1103.00,48.969
1104.00,48.961
1105.00,48.950
1106.00,48.948
1107.00,48.939
1108.00,48.906
1109.00,48.919
1110.00,48.904
1111.00,48.889
1112.00,48.887
1113.00,48.877
1114.00,48.861
1115.00,48.871
1116.00,48.847
1117.00,48.833
1118.00,48.814
1119.00,48.817
1120.00,48.824
1121.00,48.819
1122.00,48.796
1123.00,48.808
1124.00,48.808
1125.00,48.798
1126.00,48.793
1127.00,48.814
1128.00,48.779
1129.00,48.754
1130.00,48.745
1131.00,48.736
1132.00,48.713
1133.00,48.781
1134.00,48.736
1135.00,48.738
1136.00,48.730
1137.00,48.749
1138.00,48.733
1139.00,48.741
1140.00,48.727
1141.00,48.721
1142.00,48.710
1143.00,48.720
1144.00,48.684
1145.00,48.703
1146.00,48.696
1147.00,48.688
1148.00,48.685
1149.00,48.689
1150.00,48.692
1151.00,48.696
1152.00,48.677
1153.00,48.694
1154.00,48.669
1155.00,48.677
1156.00,48.680
1157.00,48.669
1158.00,48.649
1159.00,48.655
1160.00,48.659
1161.00,48.684
1162.00,48.699
1163.00,48.685
1164.00,48.677
1165.00,48.664
1166.00,48.660
1167.00,48.652
1168.00,48.670
1169.00,48.651
1170.00,48.659
1171.00,48.641
1172.00,48.658
1173.00,48.649
1174.00,48.645
1175.00,48.663
1176.00,48.664
1177.00,48.651
1178.00,48.678
1179.00,48.672
1180.00,48.637
1181.00,48.669
1182.00,48.645
1183.00,48.643
1184.00,48.640
1185.00,48.646
1186.00,48.645
1187.00,48.634
1188.00,48.638
1189.00,48.648
1190.00,48.634
1191.00,48.633
1192.00,48.642
1193.00,48.635
1194.00,48.670
1195.00,48.630
1196.00,48.657
1197.00,48.646
1198.00,48.629
1199.00,48.623
1200.00,48.653
1201.00,48.641
1202.00,48.617
1203.00,48.647
1204.00,48.614
1205.00,48.640
1206.00,48.635
1207.00,48.629
1208.00,48.633
1209.00,48.648
1210.00,48.640
1211.00,48.633
1212.00,48.655
1213.00,48.615
1214.00,48.652
1215.00,48.615
1216.00,48.627
1217.00,48.632
1218.00,48.599
1219.00,48.640
1220.00,48.610
1221.00,48.642
1222.00,48.638
1223.00,48.673
1224.00,48.676
1225.00,48.635
1226.00,48.639
1227.00,48.635
1228.00,48.658
1229.00,48.657
1230.00,48.680
1231.00,48.676
1232.00,48.687
1233.00,48.704
1234.00,48.696
1235.00,48.688
1236.00,48.702
1237.00,48.705
1238.00,48.717
1239.00,48.732
1240.00,48.695
1241.00,48.723
1242.00,48.715
1243.00,48.726
1244.00,48.713
1245.00,48.737
1246.00,48.737
1247.00,48.731
1248.00,48.724
1249.00,48.743
1250.00,48.756
1251.00,48.733
1252.00,48.762
1253.00,48.751
1254.00,48.778
1255.00,48.767
1256.00,48.751
1257.00,48.747
1258.00,48.801
1259.00,48.778
1260.00,48.808
1261.00,48.796
1262.00,48.775
1263.00,48.783
1264.00,48.797
1265.00,48.789
1266.00,48.808
1267.00,48.812
1268.00,48.821
1269.00,48.830
1270.00,48.839
1271.00,48.862
1272.00,48.855
1273.00,48.860
1274.00,48.875
1275.00,48.884
1276.00,48.859
1277.00,48.876
1278.00,48.884
1279.00,48.879
1280.00,48.883
1281.00,48.888
1282.00,48.905
1283.00,48.889
1284.00,48.936
1285.00,48.918
1286.00,48.916
1287.00,48.909
1288.00,48.922
1289.00,48.921
1290.00,48.945
1291.00,48.947
1292.00,48.942
1293.00,48.955
1294.00,48.989
1295.00,48.993
1296.00,49.001
1297.00,48.999
1298.00,49.018
1299.00,48.989
1300.00,49.005
1301.00,48.998
1302.00,49.029
1303.00,49.022
1304.00,49.015
1305.00,49.041
1306.00,49.040
1307.00,49.056
1308.00,49.048
1309.00,49.040
1310.00,49.119
1311.00,49.065
1312.00,49.057
1313.00,49.083
1314.00,49.087
1315.00,49.105
1316.00,49.091
1317.00,49.115
1318.00,49.125
1319.00,49.123
1320.00,49.131
1321.00,49.301
1322.00,49.277
1323.00,49.273
1324.00,49.280
1325.00,49.273
1326.00,49.278
1327.00,49.294
1328.00,49.325
1329.00,49.237
1330.00,49.301
1331.00,49.294
1332.00,49.293
1333.00,49.279
1334.00,49.326
1335.00,49.349
1336.00,49.382
1337.00,49.400
1338.00,49.466
1339.00,49.499
1340.00,49.560
1341.00,49.634
1342.00,49.706
1343.00,49.763
1344.00,49.811
1345.00,49.864
1346.00,49.908
1347.00,49.923
1348.00,49.938
1349.00,49.968
1350.00,49.999
1351.00,49.984
1352.00,50.017
1353.00,50.014
1354.00,50.019
1355.00,49.980
1356.00,50.030
1357.00,50.045
1358.00,50.083
1359.00,50.090
1360.00,50.115
1361.00,50.132
1362.00,50.085
1363.00,50.092
1364.00,50.100
1365.00,50.058
1366.00,50.117
1367.00,50.064
1368.00,50.073
1369.00,50.083
1370.00,50.035
1371.00,50.028
1372.00,50.056
1373.00,50.063
1374.00,50.095
1375.00,50.064
1376.00,50.056
1377.00,50.044
1378.00,50.080
1379.00,50.061
1380.00,50.064
1381.00,50.010
1382.00,49.982
1383.00,50.068
1384.00,50.032
1385.00,50.076
1386.00,50.074
1387.00,50.043
1388.00,50.011
1389.00,50.068
1390.00,50.049
1391.00,50.068
1392.00,50.026
1393.00,50.014
1394.00,50.031
1395.00,50.009
1396.00,49.987
1397.00,50.081
1398.00,50.055
1399.00,50.016
1400.00,49.989
1401.00,50.057
1402.00,50.101
1403.00,50.048
1404.00,50.095
1405.00,50.109
1406.00,50.151
1407.00,50.119
1408.00,50.102
1409.00,50.109
1410.00,50.153
1411.00,50.141
1412.00,50.195
1413.00,50.133
1414.00,50.150
1415.00,50.186
1416.00,50.196
1417.00,50.228
1418.00,50.208
1419.00,50.223
1420.00,50.231
1421.00,50.277
1422.00,50.271
1423.00,50.301
1424.00,50.312
1425.00,50.325
1426.00,50.322
1427.00,50.347
1428.00,50.327
1429.00,50.345
1430.00,50.362
1431.00,50.416
1432.00,50.416
1433.00,50.422
1434.00,50.437
1435.00,50.484
1436.00,50.491
1437.00,50.507
1438.00,50.524
1439.00,50.554
1440.00,50.559
1441.00,50.559
1442.00,50.581
1443.00,50.607
1444.00,50.656
1445.00,50.623
1446.00,50.657
1447.00,50.679
1448.00,50.729
1449.00,50.730
1450.00,50.734
1451.00,50.752
1452.00,50.773
1453.00,50.766
1454.00,50.794
1455.00,50.807
1456.00,50.830
1457.00,50.833
1458.00,50.855
1459.00,50.881
1460.00,50.893
1461.00,50.908
1462.00,50.958
1463.00,50.946
1464.00,50.964
1465.00,50.970
1466.00,50.979
1467.00,50.994
1468.00,51.061
1469.00,51.033
1470.00,51.062
1471.00,51.066
1472.00,51.076
1473.00,51.105
1474.00,51.125
1475.00,51.152
1476.00,51.180
1477.00,51.134
1478.00,51.167
1479.00,51.179
1480.00,51.174
1481.00,51.207
1482.00,51.235
1483.00,51.252
1484.00,51.260
1485.00,51.251
1486.00,51.285
1487.00,51.301
1488.00,51.327
1489.00,51.320
1490.00,51.351
1491.00,51.338
1492.00,51.366
1493.00,51.351
1494.00,51.377
1495.00,51.380
1496.00,51.406
1497.00,51.381
1498.00,51.416
1499.00,51.422
1500.00,51.455
1501.00, 
1502.00, 
1503.00, 
1504.00, 
1505.00, 
1506.00, 
1507.00, 
1508.00, 
1509.00, 
1510.00, 
1511.00, 
1512.00, 
1513.00, 
1514.00, 
1515.00, 
1516.00, 
1517.00, 
1518.00, 
1519.00, 
1520.00, 
1521.00, 
1522.00, 
1523.00, 
1524.00, 
1525.00, 
1526.00, 
1527.00, 
1528.00, 
1529.00, 
1530.00, 
1531.00, 
1532.00, 
1533.00, 
1534.00, 
1535.00, 
1536.00, 
1537.00, 
1538.00, 
1539.00, 
1540.00, 
1541.00, 
1542.00, 
1543.00, 
1544.00, 
1545.00, 
1546.00, 
1547.00, 
1548.00, 
1549.00, 
1550.00, 
1551.00, 
1552.00, 
1553.00, 
1554.00, 
1555.00, 
1556.00, 
1557.00, 
1558.00, 
1559.00, 
1560.00, 
1561.00, 
1562.00, 
1563.00, 
1564.00, 
1565.00, 
1566.00, 
1567.00, 
1568.00, 
1569.00, 
1570.00, 
1571.00, 
1572.00, 
1573.00, 
1574.00, 
1575.00, 
1576.00, 
1577.00, 
1578.00, 
1579.00, 
1580.00, 
1581.00, 
1582.00, 
1583.00, 
1584.00, 
1585.00, 
1586.00, 
1587.00, 
1588.00, 
1589.00, 
1590.00, 
1591.00, 
1592.00, 
1593.00, 
1594.00, 
1595.00, 
1596.00, 
1597.00, 
1598.00, 
1599.00, 
1600.00, 
1601.00, 
1602.00, 
1603.00, 
1604.00, 
1605.00, 
1606.00, 
1607.00, 
1608.00, 
1609.00, 
1610.00, 
1611.00, 
1612.00, 
1613.00, 
1614.00, 
1615.00, 
1616.00, 
1617.00, 
1618.00, 
1619.00, 
1620.00, 
1621.00, 
1622.00, 
1623.00, 
1624.00, 
1625.00, 
1626.00, 
1627.00, 
1628.00, 
1629.00, 
1630.00, 
1631.00, 
1632.00, 
1633.00, 
1634.00, 
1635.00, 
1636.00, 
1637.00, 
1638.00, 
1639.00, 
1640.00, 
1641.00, 
1642.00, 
1643.00, 
1644.00, 
1645.00, 
1646.00, 
1647.00, 
1648.00, 
1649.00, 
1650.00, 
1651.00, 
1652.00, 
1653.00, 
1654.00, 
1655.00, 
1656.00, 
1657.00, 
1658.00, 
1659.00, 
1660.00, 
1661.00, 
1662.00, 
1663.00, 
1664.00, 
1665.00, 
1666.00, 
1667.00, 
1668.00, 
1669.00, 
1670.00, 
1671.00, 
1672.00, 
1673.00, 
1674.00, 
1675.00, 
1676.00, 
1677.00, 
1678.00, 
1679.00, 
1680.00, 
1681.00, 
1682.00, 
1683.00, 
1684.00, 
1685.00, 
1686.00, 
1687.00, 
1688.00, 
1689.00, 
1690.00, 
1691.00, 
1692.00, 
1693.00, 
1694.00, 
1695.00, 
1696.00, 
1697.00, 
1698.00, 
1699.00, 
1700.00, 
1701.00, 
1702.00, 
1703.00, 
1704.00, 
1705.00, 
1706.00, 
1707.00, 
1708.00, 
1709.00, 
1710.00, 
1711.00, 
1712.00, 
1713.00, 
1714.00, 
1715.00, 
1716.00, 
1717.00, 
1718.00, 
1719.00, 
1720.00, 
1721.00, 
1722.00, 
1723.00, 
1724.00, 
1725.00, 
1726.00, 
1727.00, 
1728.00, 
1729.00, 
1730.00, 
1731.00, 
1732.00, 
1733.00, 
1734.00, 
1735.00, 
1736.00, 
1737.00, 
1738.00, 
1739.00, 
1740.00, 
1741.00, 
1742.00, 
1743.00, 
1744.00, 
1745.00, 
1746.00, 
1747.00, 
1748.00, 
1749.00, 
1750.00, 
1751.00, 
1752.00, 
1753.00, 
1754.00, 
1755.00, 
1756.00, 
1757.00, 
1758.00, 
1759.00, 
1760.00, 
1761.00, 
1762.00, 
1763.00, 
1764.00, 
1765.00, 
1766.00, 
1767.00, 
1768.00, 
1769.00, 
1770.00, 
1771.00, 
1772.00, 
1773.00, 
1774.00, 
1775.00, 
1776.00, 
1777.00, 
1778.00, 
1779.00, 
1780.00, 
1781.00, 
1782.00, 
1783.00, 
1784.00, 
1785.00, 
1786.00, 
1787.00, 
1788.00, 
1789.00, 
1790.00, 
1791.00, 
1792.00, 
1793.00, 
1794.00, 
1795.00, 
1796.00, 
1797.00, 
1798.00, 
1799.00, 
1800.00, 
1801.00, 
1802.00, 
1803.00, 
1804.00, 
1805.00, 
1806.00, 
1807.00, 
1808.00, 
1809.00, 
1810.00, 
1811.00, 
1812.00, 
1813.00, 
1814.00, 
1815.00, 
1816.00, 
1817.00, 
1818.00, 
1819.00, 
1820.00, 
1821.00, 
1822.00, 
1823.00, 
1824.00, 
1825.00, 
1826.00, 
1827.00, 
1828.00, 
1829.00, 
1830.00, 
1831.00, 
1832.00, 
1833.00, 
1834.00, 
1835.00, 
1836.00, 
1837.00, 
1838.00, 
1839.00, 
1840.00, 
1841.00, 
1842.00, 
1843.00, 
1844.00, 
1845.00, 
1846.00, 
1847.00, 
1848.00, 
1849.00, 
1850.00, 
1851.00, 
1852.00, 
1853.00, 
1854.00, 
1855.00, 
1856.00, 
1857.00, 
1858.00, 
1859.00, 
1860.00, 
1861.00, 
1862.00, 
1863.00, 
1864.00, 
1865.00, 
1866.00, 
1867.00, 
1868.00, 
1869.00, 
1870.00, 
1871.00, 
1872.00, 
1873.00, 
1874.00, 
1875.00, 
1876.00, 
1877.00, 
1878.00, 
1879.00, 
1880.00, 
1881.00, 
1882.00, 
1883.00, 
1884.00, 
1885.00, 
1886.00, 
1887.00, 
1888.00, 
1889.00, 
1890.00, 
1891.00, 
1892.00, 
1893.00, 
1894.00, 
1895.00, 
1896.00, 
1897.00, 
1898.00, 
1899.00, 
1900.00, 
1901.00, 
1902.00, 
1903.00, 
1904.00, 
1905.00, 
1906.00, 
1907.00, 
1908.00, 
1909.00, 
1910.00, 
1911.00, 
1912.00, 
1913.00, 
1914.00, 
1915.00, 
1916.00, 
1917.00, 
1918.00, 
1919.00, 
1920.00, 
1921.00, 
1922.00, 
1923.00, 
1924.00, 
1925.00, 
1926.00, 
1927.00, 
1928.00, 
1929.00, 
1930.00, 
1931.00, 
1932.00, 
1933.00, 
1934.00, 
1935.00, 
1936.00, 
1937.00, 
1938.00, 
1939.00, 
1940.00, 
1941.00, 
1942.00, 
1943.00, 
1944.00, 
1945.00, 
1946.00, 
1947.00, 
1948.00, 
1949.00, 
1950.00, 
1951.00, 
1952.00, 
1953.00, 
1954.00, 
1955.00, 
1956.00, 
1957.00, 
1958.00, 
1959.00, 
1960.00, 
1961.00, 
1962.00, 
1963.00, 
1964.00, 
1965.00, 
1966.00, 
1967.00, 
1968.00, 
1969.00, 
1970.00, 
1971.00, 
1972.00, 
1973.00, 
1974.00, 
1975.00, 
1976.00, 
1977.00, 
1978.00, 
1979.00, 
1980.00, 
1981.00, 
1982.00, 
1983.00, 
1984.00, 
1985.00, 
1986.00, 
1987.00, 
1988.00, 
1989.00, 
1990.00, 
1991.00, 
1992.00, 
1993.00, 
1994.00, 
1995.00, 
1996.00, 
1997.00, 
1998.00, 
1999.00, 
2000.00, 
2001.00, 
2002.00, 
2003.00, 
2004.00, 
2005.00, 
2006.00, 
2007.00, 
2008.00, 
2009.00, 
2010.00, 
2011.00, 
2012.00, 
2013.00, 
2014.00, 
2015.00, 
2016.00, 
2017.00, 
2018.00, 
2019.00, 
2020.00, 
2021.00, 
2022.00, 
2023.00, 
2024.00, 
2025.00, 
2026.00, 
2027.00, 
2028.00, 
2029.00, 
2030.00, 
2031.00, 
2032.00, 
2033.00, 
2034.00, 
2035.00, 
2036.00, 
2037.00, 
2038.00, 
2039.00, 
2040.00, 
2041.00, 
2042.00, 
2043.00, 
2044.00, 
2045.00, 
2046.00, 
2047.00, 
2048.00, 
2049.00, 
2050.00, 
2051.00, 
2052.00, 
2053.00, 
2054.00, 
2055.00, 
2056.00, 
2057.00, 
2058.00, 
2059.00, 
2060.00, 
2061.00, 
2062.00, 
2063.00, 
2064.00, 
2065.00, 
2066.00, 
2067.00, 
2068.00, 
2069.00, 
2070.00, 
2071.00, 
2072.00, 
2073.00, 
2074.00, 
2075.00, 
2076.00, 
2077.00, 
2078.00, 
2079.00, 
2080.00, 
2081.00, 
2082.00, 
2083.00, 
2084.00, 
2085.00, 
2086.00, 
2087.00, 
2088.00, 
2089.00, 
2090.00, 
2091.00, 
2092.00, 
2093.00, 
2094.00, 
2095.00, 
2096.00, 
2097.00, 
2098.00, 
2099.00, 
2100.00, 
2101.00, 
2102.00, 
2103.00, 
2104.00, 
2105.00, 
2106.00, 
2107.00, 
2108.00, 
2109.00, 
2110.00, 
2111.00, 
2112.00, 
2113.00, 
2114.00, 
2115.00, 
2116.00, 
2117.00, 
2118.00, 
2119.00, 
2120.00, 
2121.00, 
2122.00, 
2123.00, 
2124.00, 
2125.00, 
2126.00, 
2127.00, 
2128.00, 
2129.00, 
2130.00, 
2131.00, 
2132.00, 
2133.00, 
2134.00, 
2135.00, 
2136.00, 
2137.00, 
2138.00, 
2139.00, 
2140.00, 
2141.00, 
2142.00, 
2143.00, 
2144.00, 
2145.00, 
2146.00, 
2147.00, 
2148.00, 
2149.00, 
2150.00, 
2151.00, 
2152.00, 
2153.00, 
2154.00, 
2155.00, 
2156.00, 
2157.00, 
2158.00, 
2159.00, 
2160.00, 
2161.00, 
2162.00, 
2163.00, 
2164.00, 
2165.00, 
2166.00, 
2167.00, 
2168.00, 
2169.00, 
2170.00, 
2171.00, 
2172.00, 
2173.00, 
2174.00, 
2175.00, 
2176.00, 
2177.00, 
2178.00, 
2179.00, 
2180.00, 
2181.00, 
2182.00, 
2183.00, 
2184.00, 
2185.00, 
2186.00, 
2187.00, 
2188.00, 
2189.00, 
2190.00, 
2191.00, 
2192.00, 
2193.00, 
2194.00, 
2195.00, 
2196.00, 
2197.00, 
2198.00, 
2199.00, 
2200.00, 
2201.00, 
2202.00, 
2203.00, 
2204.00, 
2205.00, 
2206.00, 
2207.00, 
2208.00, 
2209.00, 
2210.00, 
2211.00, 
2212.00, 
2213.00, 
2214.00, 
2215.00, 
2216.00, 
2217.00, 
2218.00, 
2219.00, 
2220.00, 
2221.00, 
2222.00, 
2223.00, 
2224.00, 
2225.00, 
2226.00, 
2227.00, 
2228.00, 
2229.00, 
2230.00, 
2231.00, 
2232.00, 
2233.00, 
2234.00, 
2235.00, 
2236.00, 
2237.00, 
2238.00, 
2239.00, 
2240.00, 
2241.00, 
2242.00, 
2243.00, 
2244.00, 
2245.00, 
2246.00, 
2247.00, 
2248.00, 
2249.00, 
2250.00, 
2251.00, 
2252.00, 
2253.00, 
2254.00, 
2255.00, 
2256.00, 
2257.00, 
2258.00, 
2259.00, 
2260.00, 
2261.00, 
2262.00, 
2263.00, 
2264.00, 
2265.00, 
2266.00, 
2267.00, 
2268.00, 
2269.00, 
2270.00, 
2271.00, 
2272.00, 
2273.00, 
2274.00, 
2275.00, 
2276.00, 
2277.00, 
2278.00, 
2279.00, 
2280.00, 
2281.00, 
2282.00, 
2283.00, 
2284.00, 
2285.00, 
2286.00, 
2287.00, 
2288.00, 
2289.00, 
2290.00, 
2291.00, 
2292.00, 
2293.00, 
2294.00, 
2295.00, 
2296.00, 
2297.00, 
2298.00, 
2299.00, 
2300.00, 
2301.00, 
2302.00, 
2303.00, 
2304.00, 
2305.00, 
2306.00, 
2307.00, 
2308.00, 
2309.00, 
2310.00, 
2311.00, 
2312.00, 
2313.00, 
2314.00, 
2315.00, 
2316.00, 
2317.00, 
2318.00, 
2319.00, 
2320.00, 
2321.00, 
2322.00, 
2323.00, 
2324.00, 
2325.00, 
2326.00, 
2327.00, 
2328.00, 
2329.00, 
2330.00, 
2331.00, 
2332.00, 
2333.00, 
2334.00, 
2335.00, 
2336.00, 
2337.00, 
2338.00, 
2339.00, 
2340.00, 
2341.00, 
2342.00, 
2343.00, 
2344.00, 
2345.00, 
2346.00, 
2347.00, 
2348.00, 
2349.00, 
2350.00, 
2351.00, 
2352.00, 
2353.00, 
2354.00, 
2355.00, 
2356.00, 
2357.00, 
2358.00, 
2359.00, 
2360.00, 
2361.00, 
2362.00, 
2363.00, 
2364.00, 
2365.00, 
2366.00, 
2367.00, 
2368.00, 
2369.00, 
2370.00, 
2371.00, 
2372.00, 
2373.00, 
2374.00, 
2375.00, 
2376.00, 
2377.00, 
2378.00, 
2379.00, 
2380.00, 
2381.00, 
2382.00, 
2383.00, 
2384.00, 
2385.00, 
2386.00, 
2387.00, 
2388.00, 
2389.00, 
2390.00, 
2391.00, 
2392.00, 
2393.00, 
2394.00, 
2395.00, 
2396.00, 
2397.00, 
2398.00, 
2399.00, 
2400.00, 
2401.00, 
2402.00, 
2403.00, 
2404.00, 
2405.00, 
2406.00, 
2407.00, 
2408.00, 
2409.00, 
2410.00, 
2411.00, 
2412.00, 
2413.00, 
2414.00, 
2415.00, 
2416.00, 
2417.00, 
2418.00, 
2419.00, 
2420.00, 
2421.00, 
2422.00, 
2423.00, 
2424.00, 
2425.00, 
2426.00, 
2427.00, 
2428.00, 
2429.00, 
2430.00, 
2431.00, 
2432.00, 
2433.00, 
2434.00, 
2435.00, 
2436.00, 
2437.00, 
2438.00, 
2439.00, 
2440.00, 
2441.00, 
2442.00, 
2443.00, 
2444.00, 
2445.00, 
2446.00, 
2447.00, 
2448.00, 
2449.00, 
2450.00, 
2451.00, 
2452.00, 
2453.00, 
2454.00, 
2455.00, 
2456.00, 
2457.00, 
2458.00, 
2459.00, 
2460.00, 
2461.00, 
2462.00, 
2463.00, 
2464.00, 
2465.00, 
2466.00, 
2467.00, 
2468.00, 
2469.00, 
2470.00, 
2471.00, 
2472.00, 
2473.00, 
2474.00, 
2475.00, 
2476.00, 
2477.00, 
2478.00, 
2479.00, 
2480.00, 
2481.00, 
2482.00, 
2483.00, 
2484.00, 
2485.00, 
2486.00, 
2487.00, 
2488.00, 
2489.00, 
2490.00, 
2491.00, 
2492.00, 
2493.00, 
2494.00, 
2495.00, 
2496.00, 
2497.00, 
2498.00, 
2499.00, 
2500.00, 
2501.00, 
2502.00, 
2503.00, 
2504.00, 
2505.00, 
2506.00, 
2507.00, 
2508.00, 
2509.00, 
2510.00, 
2511.00, 
2512.00, 
2513.00, 
2514.00, 
2515.00, 
2516.00, 
2517.00, 
2518.00, 
2519.00, 
2520.00, 
2521.00, 
2522.00, 
2523.00, 
2524.00, 
2525.00, 
2526.00, 
2527.00, 
2528.00, 
2529.00, 
2530.00, 
2531.00, 
2532.00, 
2533.00, 
2534.00, 
2535.00, 
2536.00, 
2537.00, 
2538.00, 
2539.00, 
2540.00, 
2541.00, 
2542.00, 
2543.00, 
2544.00, 
2545.00, 
2546.00, 
2547.00, 
2548.00, 
2549.00, 
2550.00, 
2551.00, 
2552.00, 
2553.00, 
2554.00, 
2555.00, 
2556.00, 
2557.00, 
2558.00, 
2559.00, 
2560.00, 
2561.00, 
2562.00, 
2563.00, 
2564.00, 
2565.00, 
2566.00, 
2567.00, 
2568.00, 
2569.00, 
2570.00, 
2571.00, 
2572.00, 
2573.00, 
2574.00, 
2575.00, 
2576.00, 
2577.00, 
2578.00, 
2579.00, 
2580.00, 
2581.00, 
2582.00, 
2583.00, 
2584.00, 
2585.00, 
2586.00, 
2587.00, 
2588.00, 
2589.00, 
2590.00, 
2591.00, 
2592.00, 
2593.00, 
2594.00, 
2595.00, 
2596.00, 
2597.00, 
2598.00, 
2599.00, 
2600.00, 
