"1cP2 - RawData"
"Wavelength nm.","T%"
200.00,0.002
201.00,0.000
202.00,-0.000
203.00,0.001
204.00,0.002
205.00,0.002
206.00,-0.000
207.00,-0.001
208.00,-0.001
209.00,0.000
210.00,0.002
211.00,0.002
212.00,0.001
213.00,0.001
214.00,-0.000
215.00,0.002
216.00,0.001
217.00,-0.002
218.00,-0.001
219.00,0.005
220.00,0.001
221.00,0.001
222.00,-0.002
223.00,0.001
224.00,0.001
225.00,0.001
226.00,-0.000
227.00,0.002
228.00,0.000
229.00,-0.001
230.00,0.000
231.00,0.001
232.00,0.000
233.00,0.002
234.00,0.001
235.00,-0.000
236.00,0.002
237.00,0.002
238.00,0.002
239.00,0.002
240.00,0.003
241.00,0.001
242.00,0.001
243.00,0.000
244.00,0.000
245.00,0.001
246.00,0.002
247.00,0.001
248.00,-0.001
249.00,-0.000
250.00,0.001
251.00,-0.000
252.00,0.001
253.00,0.000
254.00,0.002
255.00,-0.001
256.00,-0.000
257.00,0.001
258.00,-0.001
259.00,0.002
260.00,-0.003
261.00,0.001
262.00,-0.000
263.00,0.001
264.00,0.000
265.00,0.001
266.00,0.000
267.00,-0.001
268.00,0.000
269.00,-0.000
270.00,0.001
271.00,0.000
272.00,-0.000
273.00,0.001
274.00,0.001
275.00,0.002
276.00,-0.001
277.00,-0.001
278.00,0.000
279.00,0.000
280.00,-0.001
281.00,0.001
282.00,-0.000
283.00,-0.001
284.00,-0.001
285.00,0.001
286.00,-0.002
287.00,0.002
288.00,-0.001
289.00,-0.002
290.00,-0.001
291.00,0.002
292.00,-0.000
293.00,0.000
294.00,0.000
295.00,0.001
296.00,-0.000
297.00,0.000
298.00,-0.001
299.00,-0.000
300.00,0.001
301.00,0.002
302.00,0.000
303.00,0.001
304.00,-0.000
305.00,0.000
306.00,0.004
307.00,0.006
308.00,0.009
309.00,0.019
310.00,0.026
311.00,0.043
312.00,0.066
313.00,0.105
314.00,0.155
315.00,0.226
316.00,0.324
317.00,0.468
318.00,0.631
319.00,0.849
320.00,1.134
321.00,1.480
322.00,1.914
323.00,2.435
324.00,2.905
325.00,3.597
326.00,4.296
327.00,5.082
328.00,5.938
329.00,6.869
330.00,7.919
331.00,8.947
332.00,10.042
333.00,11.267
334.00,12.417
335.00,13.715
336.00,14.930
337.00,16.244
338.00,17.470
339.00,18.710
340.00,20.009
341.00,21.277
342.00,22.415
343.00,23.627
344.00,24.748
345.00,25.877
346.00,26.900
347.00,27.856
348.00,28.823
349.00,29.762
350.00,30.590
351.00,31.387
352.00,32.155
353.00,32.866
354.00,33.547
355.00,34.242
356.00,34.870
357.00,35.385
358.00,35.961
359.00,36.580
360.00,37.112
361.00,37.641
362.00,37.876
363.00,38.257
364.00,38.568
365.00,38.867
366.00,39.178
367.00,39.437
368.00,39.587
369.00,39.867
370.00,40.032
371.00,40.112
372.00,40.156
373.00,40.214
374.00,40.337
375.00,40.361
376.00,40.190
377.00,40.109
378.00,40.028
379.00,39.911
380.00,40.006
381.00,40.030
382.00,40.136
383.00,40.262
384.00,40.374
385.00,40.557
386.00,40.687
387.00,41.014
388.00,41.185
389.00,41.311
390.00,41.482
391.00,41.623
392.00,41.777
393.00,41.879
394.00,42.046
395.00,42.127
396.00,42.149
397.00,42.309
398.00,42.422
399.00,42.370
400.00,42.372
401.00,42.405
402.00,42.488
403.00,42.425
404.00,42.468
405.00,42.457
406.00,42.466
407.00,42.382
408.00,42.416
409.00,42.320
410.00,42.234
411.00,42.265
412.00,42.205
413.00,42.169
414.00,42.138
415.00,42.132
416.00,42.263
417.00,42.127
418.00,42.143
419.00,42.330
420.00,42.359
421.00,42.419
422.00,42.348
423.00,42.462
424.00,42.597
425.00,42.416
426.00,42.416
427.00,42.488
428.00,42.528
429.00,42.501
430.00,42.581
431.00,42.530
432.00,42.507
433.00,42.561
434.00,42.528
435.00,42.665
436.00,42.677
437.00,42.733
438.00,42.823
439.00,42.781
440.00,42.814
441.00,42.879
442.00,42.891
443.00,42.923
444.00,43.020
445.00,43.091
446.00,43.144
447.00,43.166
448.00,43.257
449.00,43.321
450.00,43.390
451.00,43.447
452.00,43.470
453.00,43.583
454.00,43.575
455.00,43.682
456.00,43.807
457.00,43.833
458.00,43.820
459.00,43.928
460.00,44.021
461.00,44.147
462.00,44.098
463.00,44.324
464.00,44.289
465.00,44.412
466.00,44.487
467.00,44.565
468.00,44.588
469.00,44.548
470.00,44.625
471.00,44.585
472.00,44.671
473.00,44.656
474.00,44.713
475.00,44.770
476.00,44.750
477.00,44.838
478.00,44.785
479.00,45.028
480.00,45.068
481.00,45.098
482.00,45.212
483.00,45.242
484.00,45.418
485.00,45.470
486.00,45.569
487.00,45.673
488.00,45.721
489.00,45.842
490.00,45.890
491.00,45.970
492.00,46.196
493.00,46.285
494.00,46.174
495.00,46.297
496.00,46.330
497.00,46.334
498.00,46.407
499.00,46.503
500.00,46.545
501.00,46.579
502.00,46.771
503.00,46.752
504.00,46.675
505.00,46.769
506.00,46.910
507.00,46.911
508.00,46.984
509.00,47.087
510.00,47.092
511.00,47.131
512.00,47.257
513.00,47.372
514.00,47.380
515.00,47.454
516.00,47.605
517.00,47.571
518.00,47.489
519.00,47.464
520.00,47.542
521.00,47.622
522.00,47.664
523.00,47.618
524.00,47.658
525.00,47.799
526.00,47.825
527.00,47.781
528.00,47.854
529.00,48.051
530.00,48.184
531.00,48.206
532.00,48.298
533.00,48.384
534.00,48.458
535.00,48.445
536.00,48.423
537.00,48.585
538.00,48.545
539.00,48.653
540.00,48.683
541.00,48.584
542.00,48.631
543.00,48.634
544.00,48.681
545.00,48.760
546.00,48.736
547.00,48.859
548.00,48.917
549.00,49.017
550.00,48.999
551.00,49.064
552.00,49.136
553.00,49.089
554.00,49.250
555.00,49.270
556.00,49.255
557.00,49.249
558.00,49.248
559.00,49.312
560.00,49.363
561.00,49.314
562.00,49.405
563.00,49.460
564.00,49.479
565.00,49.378
566.00,49.355
567.00,49.362
568.00,49.359
569.00,49.470
570.00,49.506
571.00,49.504
572.00,49.519
573.00,49.472
574.00,49.511
575.00,49.455
576.00,49.434
577.00,49.442
578.00,49.548
579.00,49.624
580.00,49.588
581.00,49.788
582.00,49.808
583.00,49.750
584.00,49.921
585.00,49.942
586.00,49.928
587.00,49.954
588.00,49.953
589.00,49.860
590.00,49.890
591.00,49.934
592.00,49.806
593.00,49.854
594.00,49.960
595.00,49.970
596.00,49.947
597.00,49.910
598.00,50.179
599.00,50.201
600.00,50.217
601.00,50.168
602.00,50.059
603.00,50.184
604.00,50.151
605.00,50.219
606.00,50.211
607.00,50.204
608.00,50.393
609.00,50.410
610.00,50.235
611.00,50.211
612.00,50.233
613.00,50.328
614.00,50.244
615.00,50.345
616.00,50.486
617.00,50.316
618.00,50.189
619.00,50.334
620.00,50.302
621.00,50.302
622.00,50.422
623.00,50.326
624.00,50.300
625.00,50.481
626.00,50.391
627.00,50.413
628.00,50.317
629.00,50.362
630.00,50.416
631.00,50.427
632.00,50.457
633.00,50.521
634.00,50.552
635.00,50.568
636.00,50.531
637.00,50.553
638.00,50.515
639.00,50.599
640.00,50.564
641.00,50.472
642.00,50.572
643.00,50.588
644.00,50.541
645.00,50.552
646.00,50.658
647.00,50.564
648.00,50.621
649.00,50.561
650.00,50.456
651.00,50.510
652.00,50.640
653.00,50.663
654.00,50.628
655.00,50.785
656.00,51.004
657.00,50.718
658.00,50.706
659.00,50.767
660.00,50.764
661.00,50.684
662.00,50.696
663.00,50.763
664.00,50.956
665.00,51.075
666.00,50.865
667.00,50.845
668.00,50.790
669.00,50.966
670.00,51.244
671.00,50.988
672.00,50.992
673.00,51.012
674.00,50.928
675.00,50.987
676.00,51.231
677.00,51.171
678.00,50.736
679.00,50.986
680.00,50.901
681.00,51.137
682.00,50.984
683.00,50.648
684.00,50.676
685.00,51.053
686.00,51.221
687.00,50.903
688.00,50.973
689.00,50.876
690.00,51.178
691.00,51.352
692.00,50.998
693.00,50.911
694.00,51.105
695.00,51.137
696.00,51.113
697.00,51.008
698.00,50.934
699.00,51.205
700.00,51.181
701.00,50.990
702.00,51.039
703.00,51.132
704.00,51.124
705.00,51.012
706.00,50.988
707.00,51.007
708.00,50.777
709.00,51.166
710.00,51.470
711.00,50.891
712.00,50.994
713.00,50.997
714.00,50.982
715.00,50.902
716.00,50.819
717.00,51.036
718.00,51.063
719.00,50.925
720.00,50.980
721.00,55.725
722.00,55.617
723.00,55.582
724.00,55.584
725.00,55.482
726.00,55.436
727.00,55.438
728.00,55.348
729.00,55.308
730.00,55.184
731.00,55.188
732.00,55.191
733.00,55.187
734.00,55.056
735.00,55.060
736.00,55.029
737.00,54.944
738.00,54.931
739.00,54.917
740.00,54.869
741.00,54.938
742.00,54.867
743.00,54.742
744.00,54.678
745.00,54.695
746.00,54.653
747.00,54.598
748.00,54.423
749.00,54.493
750.00,54.427
751.00,54.368
752.00,54.271
753.00,54.257
754.00,54.152
755.00,54.163
756.00,54.103
757.00,54.073
758.00,54.064
759.00,54.032
760.00,53.982
761.00,53.964
762.00,53.859
763.00,53.933
764.00,53.776
765.00,53.809
766.00,53.798
767.00,53.788
768.00,53.657
769.00,53.646
770.00,53.709
771.00,53.566
772.00,53.616
773.00,53.501
774.00,53.544
775.00,53.522
776.00,53.462
777.00,53.415
778.00,53.439
779.00,53.467
780.00,53.335
781.00,53.263
782.00,53.276
783.00,53.246
784.00,53.237
785.00,53.149
786.00,53.185
787.00,53.090
788.00,53.017
789.00,53.002
790.00,52.952
791.00,52.993
792.00,52.867
793.00,52.903
794.00,52.791
795.00,52.764
796.00,52.682
797.00,52.686
798.00,52.667
799.00,52.628
800.00,52.570
801.00,52.558
802.00,52.508
803.00,52.438
804.00,52.476
805.00,52.316
806.00,52.311
807.00,52.316
808.00,52.368
809.00,52.264
810.00,52.227
811.00,52.234
812.00,52.168
813.00,52.142
814.00,52.130
815.00,52.078
816.00,52.104
817.00,52.028
818.00,51.966
819.00,51.930
820.00,51.957
821.00,51.885
822.00,51.943
823.00,51.818
824.00,51.802
825.00,51.691
826.00,51.716
827.00,51.676
828.00,51.836
829.00,51.717
830.00,51.596
831.00,53.973
832.00,54.005
833.00,53.908
834.00,53.911
835.00,53.878
836.00,53.848
837.00,53.809
838.00,53.782
839.00,53.762
840.00,53.690
841.00,53.690
842.00,53.640
843.00,53.649
844.00,53.598
845.00,53.537
846.00,53.544
847.00,53.510
848.00,53.466
849.00,53.393
850.00,53.397
851.00,53.321
852.00,53.371
853.00,53.292
854.00,53.213
855.00,53.168
856.00,53.185
857.00,53.116
858.00,53.032
859.00,53.056
860.00,53.069
861.00,53.051
862.00,53.002
863.00,52.985
864.00,52.868
865.00,52.905
866.00,52.895
867.00,52.884
868.00,52.874
869.00,52.833
870.00,52.790
871.00,52.808
872.00,52.816
873.00,52.763
874.00,52.723
875.00,52.721
876.00,52.710
877.00,52.590
878.00,52.660
879.00,52.667
880.00,52.637
881.00,52.597
882.00,52.628
883.00,52.574
884.00,52.508
885.00,52.483
886.00,52.494
887.00,52.459
888.00,52.418
889.00,52.368
890.00,52.504
891.00,52.381
892.00,52.351
893.00,52.332
894.00,52.287
895.00,52.329
896.00,52.252
897.00,52.219
898.00,52.178
899.00,52.200
900.00,52.152
901.00,52.140
902.00,52.130
903.00,52.206
904.00,52.082
905.00,52.089
906.00,52.061
907.00,52.021
908.00,52.000
909.00,51.969
910.00,51.934
911.00,51.923
912.00,51.913
913.00,51.829
914.00,51.837
915.00,51.798
916.00,51.771
917.00,51.779
918.00,51.755
919.00,51.708
920.00,51.662
921.00,51.676
922.00,51.675
923.00,51.635
924.00,51.604
925.00,51.619
926.00,51.590
927.00,51.538
928.00,51.541
929.00,51.542
930.00,51.470
931.00,51.448
932.00,51.422
933.00,51.453
934.00,51.410
935.00,51.374
936.00,51.402
937.00,51.379
938.00,51.340
939.00,51.329
940.00,51.304
941.00,51.282
942.00,51.259
943.00,51.248
944.00,51.212
945.00,51.204
946.00,51.180
947.00,51.145
948.00,51.129
949.00,51.088
950.00,51.041
951.00,51.121
952.00,51.025
953.00,50.995
954.00,50.963
955.00,50.925
956.00,50.924
957.00,50.873
958.00,50.888
959.00,50.831
960.00,50.821
961.00,50.807
962.00,50.819
963.00,50.785
964.00,50.764
965.00,50.743
966.00,50.782
967.00,50.744
968.00,50.713
969.00,50.736
970.00,50.703
971.00,50.710
972.00,50.642
973.00,50.719
974.00,50.731
975.00,50.686
976.00,50.703
977.00,50.694
978.00,50.748
979.00,50.672
980.00,50.717
981.00,50.719
982.00,50.664
983.00,50.691
984.00,50.669
985.00,50.681
986.00,50.648
987.00,50.662
988.00,50.632
989.00,50.625
990.00,50.623
991.00,50.601
992.00,50.603
993.00,50.573
994.00,50.540
995.00,50.506
996.00,50.518
997.00,50.505
998.00,50.480
999.00,50.505
1000.00,50.476
1001.00,50.469
1002.00,50.452
1003.00,50.453
1004.00,50.425
1005.00,50.401
1006.00,50.415
1007.00,50.367
1008.00,50.370
1009.00,50.344
1010.00,50.351
1011.00,50.347
1012.00,50.299
1013.00,50.305
1014.00,50.280
1015.00,50.303
1016.00,50.267
1017.00,50.255
1018.00,50.232
1019.00,50.211
1020.00,50.207
1021.00,50.181
1022.00,50.173
1023.00,50.114
1024.00,50.124
1025.00,50.102
1026.00,50.069
1027.00,50.049
1028.00,50.041
1029.00,50.036
1030.00,50.008
1031.00,50.025
1032.00,50.009
1033.00,50.009
1034.00,49.976
1035.00,49.945
1036.00,49.916
1037.00,49.888
1038.00,49.874
1039.00,49.855
1040.00,49.825
1041.00,49.808
1042.00,49.818
1043.00,49.790
1044.00,49.835
1045.00,49.796
1046.00,49.786
1047.00,49.828
1048.00,49.824
1049.00,49.839
1050.00,49.847
1051.00,49.871
1052.00,49.861
1053.00,49.868
1054.00,49.883
1055.00,49.897
1056.00,49.905
1057.00,49.933
1058.00,49.899
1059.00,49.889
1060.00,49.909
1061.00,49.889
1062.00,49.882
1063.00,49.888
1064.00,49.881
1065.00,49.862
1066.00,49.854
1067.00,49.843
1068.00,49.859
1069.00,49.819
1070.00,49.799
1071.00,49.791
1072.00,49.815
1073.00,49.785
1074.00,49.791
1075.00,49.764
1076.00,49.768
1077.00,49.749
1078.00,49.718
1079.00,49.740
1080.00,49.740
1081.00,49.720
1082.00,49.713
1083.00,49.703
1084.00,49.686
1085.00,49.695
1086.00,49.678
1087.00,49.687
1088.00,49.675
1089.00,49.658
1090.00,49.665
1091.00,49.667
1092.00,49.641
1093.00,49.632
1094.00,49.614
1095.00,49.612
1096.00,49.597
1097.00,49.604
1098.00,49.613
1099.00,49.576
1100.00,49.569
1101.00,49.582
1102.00,49.546
1103.00,49.545
1104.00,49.545
1105.00,49.521
1106.00,49.502
1107.00,49.509
1108.00,49.485
1109.00,49.483
1110.00,49.491
1111.00,49.472
1112.00,49.455
1113.00,49.457
1114.00,49.439
1115.00,49.445
1116.00,49.435
1117.00,49.439
1118.00,49.446
1119.00,49.414
1120.00,49.402
1121.00,49.401
1122.00,49.362
1123.00,49.381
1124.00,49.378
1125.00,49.386
1126.00,49.387
1127.00,49.390
1128.00,49.354
1129.00,49.341
1130.00,49.334
1131.00,49.338
1132.00,49.329
1133.00,49.370
1134.00,49.321
1135.00,49.312
1136.00,49.308
1137.00,49.334
1138.00,49.321
1139.00,49.329
1140.00,49.326
1141.00,49.315
1142.00,49.295
1143.00,49.322
1144.00,49.269
1145.00,49.275
1146.00,49.277
1147.00,49.261
1148.00,49.258
1149.00,49.270
1150.00,49.267
1151.00,49.290
1152.00,49.273
1153.00,49.275
1154.00,49.273
1155.00,49.270
1156.00,49.277
1157.00,49.292
1158.00,49.278
1159.00,49.282
1160.00,49.261
1161.00,49.281
1162.00,49.272
1163.00,49.265
1164.00,49.293
1165.00,49.264
1166.00,49.266
1167.00,49.251
1168.00,49.273
1169.00,49.245
1170.00,49.247
1171.00,49.224
1172.00,49.227
1173.00,49.236
1174.00,49.233
1175.00,49.229
1176.00,49.260
1177.00,49.220
1178.00,49.233
1179.00,49.272
1180.00,49.222
1181.00,49.257
1182.00,49.233
1183.00,49.219
1184.00,49.222
1185.00,49.232
1186.00,49.227
1187.00,49.222
1188.00,49.212
1189.00,49.226
1190.00,49.213
1191.00,49.206
1192.00,49.246
1193.00,49.217
1194.00,49.203
1195.00,49.174
1196.00,49.199
1197.00,49.215
1198.00,49.213
1199.00,49.214
1200.00,49.232
1201.00,49.242
1202.00,49.202
1203.00,49.221
1204.00,49.212
1205.00,49.232
1206.00,49.229
1207.00,49.219
1208.00,49.217
1209.00,49.243
1210.00,49.230
1211.00,49.221
1212.00,49.256
1213.00,49.203
1214.00,49.234
1215.00,49.219
1216.00,49.234
1217.00,49.232
1218.00,49.212
1219.00,49.257
1220.00,49.225
1221.00,49.222
1222.00,49.239
1223.00,49.253
1224.00,49.242
1225.00,49.249
1226.00,49.248
1227.00,49.240
1228.00,49.285
1229.00,49.285
1230.00,49.305
1231.00,49.290
1232.00,49.297
1233.00,49.316
1234.00,49.314
1235.00,49.303
1236.00,49.300
1237.00,49.309
1238.00,49.304
1239.00,49.312
1240.00,49.298
1241.00,49.332
1242.00,49.344
1243.00,49.333
1244.00,49.314
1245.00,49.346
1246.00,49.340
1247.00,49.332
1248.00,49.336
1249.00,49.339
1250.00,49.363
1251.00,49.332
1252.00,49.354
1253.00,49.370
1254.00,49.383
1255.00,49.371
1256.00,49.364
1257.00,49.353
1258.00,49.404
1259.00,49.395
1260.00,49.422
1261.00,49.419
1262.00,49.405
1263.00,49.412
1264.00,49.431
1265.00,49.417
1266.00,49.434
1267.00,49.452
1268.00,49.435
1269.00,49.447
1270.00,49.465
1271.00,49.463
1272.00,49.468
1273.00,49.476
1274.00,49.477
1275.00,49.498
1276.00,49.477
1277.00,49.494
1278.00,49.502
1279.00,49.485
1280.00,49.488
1281.00,49.499
1282.00,49.501
1283.00,49.500
1284.00,49.517
1285.00,49.512
1286.00,49.570
1287.00,49.536
1288.00,49.544
1289.00,49.541
1290.00,49.568
1291.00,49.556
1292.00,49.549
1293.00,49.564
1294.00,49.599
1295.00,49.589
1296.00,49.598
1297.00,49.609
1298.00,49.626
1299.00,49.617
1300.00,49.645
1301.00,49.614
1302.00,49.646
1303.00,49.646
1304.00,49.637
1305.00,49.669
1306.00,49.663
1307.00,49.668
1308.00,49.668
1309.00,49.647
1310.00,49.724
1311.00,49.670
1312.00,49.669
1313.00,49.697
1314.00,49.698
1315.00,49.706
1316.00,49.718
1317.00,49.748
1318.00,49.748
1319.00,49.773
1320.00,49.755
1321.00,49.913
1322.00,49.914
1323.00,49.891
1324.00,49.907
1325.00,49.923
1326.00,49.936
1327.00,49.918
1328.00,49.926
1329.00,49.928
1330.00,49.967
1331.00,49.932
1332.00,49.930
1333.00,49.953
1334.00,49.965
1335.00,49.986
1336.00,50.039
1337.00,50.044
1338.00,50.108
1339.00,50.151
1340.00,50.203
1341.00,50.280
1342.00,50.330
1343.00,50.386
1344.00,50.440
1345.00,50.494
1346.00,50.565
1347.00,50.666
1348.00,50.590
1349.00,50.620
1350.00,50.635
1351.00,50.636
1352.00,50.666
1353.00,50.675
1354.00,50.669
1355.00,50.666
1356.00,50.705
1357.00,50.699
1358.00,50.733
1359.00,50.701
1360.00,50.742
1361.00,50.741
1362.00,50.702
1363.00,50.738
1364.00,50.686
1365.00,50.696
1366.00,50.758
1367.00,50.660
1368.00,50.721
1369.00,50.722
1370.00,50.669
1371.00,50.661
1372.00,50.697
1373.00,50.680
1374.00,50.721
1375.00,50.698
1376.00,50.691
1377.00,50.684
1378.00,50.763
1379.00,50.717
1380.00,50.745
1381.00,50.693
1382.00,50.637
1383.00,50.718
1384.00,50.669
1385.00,50.725
1386.00,50.730
1387.00,50.656
1388.00,50.664
1389.00,50.652
1390.00,50.736
1391.00,50.712
1392.00,50.632
1393.00,50.713
1394.00,50.706
1395.00,50.686
1396.00,50.633
1397.00,50.792
1398.00,50.358
1399.00,50.680
1400.00,50.636
1401.00,50.694
1402.00,50.774
1403.00,50.687
1404.00,50.756
1405.00,50.724
1406.00,50.783
1407.00,50.746
1408.00,50.724
1409.00,50.740
1410.00,50.767
1411.00,50.764
1412.00,50.860
1413.00,51.024
1414.00,50.821
1415.00,50.840
1416.00,50.841
1417.00,50.839
1418.00,50.851
1419.00,50.862
1420.00,50.871
1421.00,50.925
1422.00,50.913
1423.00,50.949
1424.00,50.956
1425.00,50.965
1426.00,50.977
1427.00,51.019
1428.00,50.994
1429.00,51.020
1430.00,51.021
1431.00,51.033
1432.00,51.085
1433.00,51.076
1434.00,51.074
1435.00,51.133
1436.00,51.128
1437.00,51.125
1438.00,51.162
1439.00,51.188
1440.00,51.196
1441.00,51.211
1442.00,51.223
1443.00,51.265
1444.00,51.303
1445.00,51.282
1446.00,51.321
1447.00,51.317
1448.00,51.380
1449.00,51.384
1450.00,51.384
1451.00,51.405
1452.00,51.426
1453.00,51.423
1454.00,51.455
1455.00,51.474
1456.00,51.497
1457.00,51.511
1458.00,51.520
1459.00,51.535
1460.00,51.564
1461.00,51.535
1462.00,51.595
1463.00,51.606
1464.00,51.631
1465.00,51.636
1466.00,51.622
1467.00,51.649
1468.00,51.722
1469.00,51.676
1470.00,51.710
1471.00,51.734
1472.00,51.723
1473.00,51.765
1474.00,51.802
1475.00,51.812
1476.00,51.838
1477.00,51.802
1478.00,51.837
1479.00,51.858
1480.00,51.825
1481.00,51.858
1482.00,51.884
1483.00,51.894
1484.00,51.922
1485.00,51.917
1486.00,51.933
1487.00,51.970
1488.00,51.989
1489.00,51.966
1490.00,52.008
1491.00,51.996
1492.00,52.034
1493.00,52.028
1494.00,52.038
1495.00,52.052
1496.00,52.069
1497.00,52.046
1498.00,52.093
1499.00,52.082
1500.00,52.107
1501.00, 
1502.00, 
1503.00, 
1504.00, 
1505.00, 
1506.00, 
1507.00, 
1508.00, 
1509.00, 
1510.00, 
1511.00, 
1512.00, 
1513.00, 
1514.00, 
1515.00, 
1516.00, 
1517.00, 
1518.00, 
1519.00, 
1520.00, 
1521.00, 
1522.00, 
1523.00, 
1524.00, 
1525.00, 
1526.00, 
1527.00, 
1528.00, 
1529.00, 
1530.00, 
1531.00, 
1532.00, 
1533.00, 
1534.00, 
1535.00, 
1536.00, 
1537.00, 
1538.00, 
1539.00, 
1540.00, 
1541.00, 
1542.00, 
1543.00, 
1544.00, 
1545.00, 
1546.00, 
1547.00, 
1548.00, 
1549.00, 
1550.00, 
1551.00, 
1552.00, 
1553.00, 
1554.00, 
1555.00, 
1556.00, 
1557.00, 
1558.00, 
1559.00, 
1560.00, 
1561.00, 
1562.00, 
1563.00, 
1564.00, 
1565.00, 
1566.00, 
1567.00, 
1568.00, 
1569.00, 
1570.00, 
1571.00, 
1572.00, 
1573.00, 
1574.00, 
1575.00, 
1576.00, 
1577.00, 
1578.00, 
1579.00, 
1580.00, 
1581.00, 
1582.00, 
1583.00, 
1584.00, 
1585.00, 
1586.00, 
1587.00, 
1588.00, 
1589.00, 
1590.00, 
1591.00, 
1592.00, 
1593.00, 
1594.00, 
1595.00, 
1596.00, 
1597.00, 
1598.00, 
1599.00, 
1600.00, 
1601.00, 
1602.00, 
1603.00, 
1604.00, 
1605.00, 
1606.00, 
1607.00, 
1608.00, 
1609.00, 
1610.00, 
1611.00, 
1612.00, 
1613.00, 
1614.00, 
1615.00, 
1616.00, 
1617.00, 
1618.00, 
1619.00, 
1620.00, 
1621.00, 
1622.00, 
1623.00, 
1624.00, 
1625.00, 
1626.00, 
1627.00, 
1628.00, 
1629.00, 
1630.00, 
1631.00, 
1632.00, 
1633.00, 
1634.00, 
1635.00, 
1636.00, 
1637.00, 
1638.00, 
1639.00, 
1640.00, 
1641.00, 
1642.00, 
1643.00, 
1644.00, 
1645.00, 
1646.00, 
1647.00, 
1648.00, 
1649.00, 
1650.00, 
1651.00, 
1652.00, 
1653.00, 
1654.00, 
1655.00, 
1656.00, 
1657.00, 
1658.00, 
1659.00, 
1660.00, 
1661.00, 
1662.00, 
1663.00, 
1664.00, 
1665.00, 
1666.00, 
1667.00, 
1668.00, 
1669.00, 
1670.00, 
1671.00, 
1672.00, 
1673.00, 
1674.00, 
1675.00, 
1676.00, 
1677.00, 
1678.00, 
1679.00, 
1680.00, 
1681.00, 
1682.00, 
1683.00, 
1684.00, 
1685.00, 
1686.00, 
1687.00, 
1688.00, 
1689.00, 
1690.00, 
1691.00, 
1692.00, 
1693.00, 
1694.00, 
1695.00, 
1696.00, 
1697.00, 
1698.00, 
1699.00, 
1700.00, 
1701.00, 
1702.00, 
1703.00, 
1704.00, 
1705.00, 
1706.00, 
1707.00, 
1708.00, 
1709.00, 
1710.00, 
1711.00, 
1712.00, 
1713.00, 
1714.00, 
1715.00, 
1716.00, 
1717.00, 
1718.00, 
1719.00, 
1720.00, 
1721.00, 
1722.00, 
1723.00, 
1724.00, 
1725.00, 
1726.00, 
1727.00, 
1728.00, 
1729.00, 
1730.00, 
1731.00, 
1732.00, 
1733.00, 
1734.00, 
1735.00, 
1736.00, 
1737.00, 
1738.00, 
1739.00, 
1740.00, 
1741.00, 
1742.00, 
1743.00, 
1744.00, 
1745.00, 
1746.00, 
1747.00, 
1748.00, 
1749.00, 
1750.00, 
1751.00, 
1752.00, 
1753.00, 
1754.00, 
1755.00, 
1756.00, 
1757.00, 
1758.00, 
1759.00, 
1760.00, 
1761.00, 
1762.00, 
1763.00, 
1764.00, 
1765.00, 
1766.00, 
1767.00, 
1768.00, 
1769.00, 
1770.00, 
1771.00, 
1772.00, 
1773.00, 
1774.00, 
1775.00, 
1776.00, 
1777.00, 
1778.00, 
1779.00, 
1780.00, 
1781.00, 
1782.00, 
1783.00, 
1784.00, 
1785.00, 
1786.00, 
1787.00, 
1788.00, 
1789.00, 
1790.00, 
1791.00, 
1792.00, 
1793.00, 
1794.00, 
1795.00, 
1796.00, 
1797.00, 
1798.00, 
1799.00, 
1800.00, 
1801.00, 
1802.00, 
1803.00, 
1804.00, 
1805.00, 
1806.00, 
1807.00, 
1808.00, 
1809.00, 
1810.00, 
1811.00, 
1812.00, 
1813.00, 
1814.00, 
1815.00, 
1816.00, 
1817.00, 
1818.00, 
1819.00, 
1820.00, 
1821.00, 
1822.00, 
1823.00, 
1824.00, 
1825.00, 
1826.00, 
1827.00, 
1828.00, 
1829.00, 
1830.00, 
1831.00, 
1832.00, 
1833.00, 
1834.00, 
1835.00, 
1836.00, 
1837.00, 
1838.00, 
1839.00, 
1840.00, 
1841.00, 
1842.00, 
1843.00, 
1844.00, 
1845.00, 
1846.00, 
1847.00, 
1848.00, 
1849.00, 
1850.00, 
1851.00, 
1852.00, 
1853.00, 
1854.00, 
1855.00, 
1856.00, 
1857.00, 
1858.00, 
1859.00, 
1860.00, 
1861.00, 
1862.00, 
1863.00, 
1864.00, 
1865.00, 
1866.00, 
1867.00, 
1868.00, 
1869.00, 
1870.00, 
1871.00, 
1872.00, 
1873.00, 
1874.00, 
1875.00, 
1876.00, 
1877.00, 
1878.00, 
1879.00, 
1880.00, 
1881.00, 
1882.00, 
1883.00, 
1884.00, 
1885.00, 
1886.00, 
1887.00, 
1888.00, 
1889.00, 
1890.00, 
1891.00, 
1892.00, 
1893.00, 
1894.00, 
1895.00, 
1896.00, 
1897.00, 
1898.00, 
1899.00, 
1900.00, 
1901.00, 
1902.00, 
1903.00, 
1904.00, 
1905.00, 
1906.00, 
1907.00, 
1908.00, 
1909.00, 
1910.00, 
1911.00, 
1912.00, 
1913.00, 
1914.00, 
1915.00, 
1916.00, 
1917.00, 
1918.00, 
1919.00, 
1920.00, 
1921.00, 
1922.00, 
1923.00, 
1924.00, 
1925.00, 
1926.00, 
1927.00, 
1928.00, 
1929.00, 
1930.00, 
1931.00, 
1932.00, 
1933.00, 
1934.00, 
1935.00, 
1936.00, 
1937.00, 
1938.00, 
1939.00, 
1940.00, 
1941.00, 
1942.00, 
1943.00, 
1944.00, 
1945.00, 
1946.00, 
1947.00, 
1948.00, 
1949.00, 
1950.00, 
1951.00, 
1952.00, 
1953.00, 
1954.00, 
1955.00, 
1956.00, 
1957.00, 
1958.00, 
1959.00, 
1960.00, 
1961.00, 
1962.00, 
1963.00, 
1964.00, 
1965.00, 
1966.00, 
1967.00, 
1968.00, 
1969.00, 
1970.00, 
1971.00, 
1972.00, 
1973.00, 
1974.00, 
1975.00, 
1976.00, 
1977.00, 
1978.00, 
1979.00, 
1980.00, 
1981.00, 
1982.00, 
1983.00, 
1984.00, 
1985.00, 
1986.00, 
1987.00, 
1988.00, 
1989.00, 
1990.00, 
1991.00, 
1992.00, 
1993.00, 
1994.00, 
1995.00, 
1996.00, 
1997.00, 
1998.00, 
1999.00, 
2000.00, 
2001.00, 
2002.00, 
2003.00, 
2004.00, 
2005.00, 
2006.00, 
2007.00, 
2008.00, 
2009.00, 
2010.00, 
2011.00, 
2012.00, 
2013.00, 
2014.00, 
2015.00, 
2016.00, 
2017.00, 
2018.00, 
2019.00, 
2020.00, 
2021.00, 
2022.00, 
2023.00, 
2024.00, 
2025.00, 
2026.00, 
2027.00, 
2028.00, 
2029.00, 
2030.00, 
2031.00, 
2032.00, 
2033.00, 
2034.00, 
2035.00, 
2036.00, 
2037.00, 
2038.00, 
2039.00, 
2040.00, 
2041.00, 
2042.00, 
2043.00, 
2044.00, 
2045.00, 
2046.00, 
2047.00, 
2048.00, 
2049.00, 
2050.00, 
2051.00, 
2052.00, 
2053.00, 
2054.00, 
2055.00, 
2056.00, 
2057.00, 
2058.00, 
2059.00, 
2060.00, 
2061.00, 
2062.00, 
2063.00, 
2064.00, 
2065.00, 
2066.00, 
2067.00, 
2068.00, 
2069.00, 
2070.00, 
2071.00, 
2072.00, 
2073.00, 
2074.00, 
2075.00, 
2076.00, 
2077.00, 
2078.00, 
2079.00, 
2080.00, 
2081.00, 
2082.00, 
2083.00, 
2084.00, 
2085.00, 
2086.00, 
2087.00, 
2088.00, 
2089.00, 
2090.00, 
2091.00, 
2092.00, 
2093.00, 
2094.00, 
2095.00, 
2096.00, 
2097.00, 
2098.00, 
2099.00, 
2100.00, 
2101.00, 
2102.00, 
2103.00, 
2104.00, 
2105.00, 
2106.00, 
2107.00, 
2108.00, 
2109.00, 
2110.00, 
2111.00, 
2112.00, 
2113.00, 
2114.00, 
2115.00, 
2116.00, 
2117.00, 
2118.00, 
2119.00, 
2120.00, 
2121.00, 
2122.00, 
2123.00, 
2124.00, 
2125.00, 
2126.00, 
2127.00, 
2128.00, 
2129.00, 
2130.00, 
2131.00, 
2132.00, 
2133.00, 
2134.00, 
2135.00, 
2136.00, 
2137.00, 
2138.00, 
2139.00, 
2140.00, 
2141.00, 
2142.00, 
2143.00, 
2144.00, 
2145.00, 
2146.00, 
2147.00, 
2148.00, 
2149.00, 
2150.00, 
2151.00, 
2152.00, 
2153.00, 
2154.00, 
2155.00, 
2156.00, 
2157.00, 
2158.00, 
2159.00, 
2160.00, 
2161.00, 
2162.00, 
2163.00, 
2164.00, 
2165.00, 
2166.00, 
2167.00, 
2168.00, 
2169.00, 
2170.00, 
2171.00, 
2172.00, 
2173.00, 
2174.00, 
2175.00, 
2176.00, 
2177.00, 
2178.00, 
2179.00, 
2180.00, 
2181.00, 
2182.00, 
2183.00, 
2184.00, 
2185.00, 
2186.00, 
2187.00, 
2188.00, 
2189.00, 
2190.00, 
2191.00, 
2192.00, 
2193.00, 
2194.00, 
2195.00, 
2196.00, 
2197.00, 
2198.00, 
2199.00, 
2200.00, 
2201.00, 
2202.00, 
2203.00, 
2204.00, 
2205.00, 
2206.00, 
2207.00, 
2208.00, 
2209.00, 
2210.00, 
2211.00, 
2212.00, 
2213.00, 
2214.00, 
2215.00, 
2216.00, 
2217.00, 
2218.00, 
2219.00, 
2220.00, 
2221.00, 
2222.00, 
2223.00, 
2224.00, 
2225.00, 
2226.00, 
2227.00, 
2228.00, 
2229.00, 
2230.00, 
2231.00, 
2232.00, 
2233.00, 
2234.00, 
2235.00, 
2236.00, 
2237.00, 
2238.00, 
2239.00, 
2240.00, 
2241.00, 
2242.00, 
2243.00, 
2244.00, 
2245.00, 
2246.00, 
2247.00, 
2248.00, 
2249.00, 
2250.00, 
2251.00, 
2252.00, 
2253.00, 
2254.00, 
2255.00, 
2256.00, 
2257.00, 
2258.00, 
2259.00, 
2260.00, 
2261.00, 
2262.00, 
2263.00, 
2264.00, 
2265.00, 
2266.00, 
2267.00, 
2268.00, 
2269.00, 
2270.00, 
2271.00, 
2272.00, 
2273.00, 
2274.00, 
2275.00, 
2276.00, 
2277.00, 
2278.00, 
2279.00, 
2280.00, 
2281.00, 
2282.00, 
2283.00, 
2284.00, 
2285.00, 
2286.00, 
2287.00, 
2288.00, 
2289.00, 
2290.00, 
2291.00, 
2292.00, 
2293.00, 
2294.00, 
2295.00, 
2296.00, 
2297.00, 
2298.00, 
2299.00, 
2300.00, 
2301.00, 
2302.00, 
2303.00, 
2304.00, 
2305.00, 
2306.00, 
2307.00, 
2308.00, 
2309.00, 
2310.00, 
2311.00, 
2312.00, 
2313.00, 
2314.00, 
2315.00, 
2316.00, 
2317.00, 
2318.00, 
2319.00, 
2320.00, 
2321.00, 
2322.00, 
2323.00, 
2324.00, 
2325.00, 
2326.00, 
2327.00, 
2328.00, 
2329.00, 
2330.00, 
2331.00, 
2332.00, 
2333.00, 
2334.00, 
2335.00, 
2336.00, 
2337.00, 
2338.00, 
2339.00, 
2340.00, 
2341.00, 
2342.00, 
2343.00, 
2344.00, 
2345.00, 
2346.00, 
2347.00, 
2348.00, 
2349.00, 
2350.00, 
2351.00, 
2352.00, 
2353.00, 
2354.00, 
2355.00, 
2356.00, 
2357.00, 
2358.00, 
2359.00, 
2360.00, 
2361.00, 
2362.00, 
2363.00, 
2364.00, 
2365.00, 
2366.00, 
2367.00, 
2368.00, 
2369.00, 
2370.00, 
2371.00, 
2372.00, 
2373.00, 
2374.00, 
2375.00, 
2376.00, 
2377.00, 
2378.00, 
2379.00, 
2380.00, 
2381.00, 
2382.00, 
2383.00, 
2384.00, 
2385.00, 
2386.00, 
2387.00, 
2388.00, 
2389.00, 
2390.00, 
2391.00, 
2392.00, 
2393.00, 
2394.00, 
2395.00, 
2396.00, 
2397.00, 
2398.00, 
2399.00, 
2400.00, 
2401.00, 
2402.00, 
2403.00, 
2404.00, 
2405.00, 
2406.00, 
2407.00, 
2408.00, 
2409.00, 
2410.00, 
2411.00, 
2412.00, 
2413.00, 
2414.00, 
2415.00, 
2416.00, 
2417.00, 
2418.00, 
2419.00, 
2420.00, 
2421.00, 
2422.00, 
2423.00, 
2424.00, 
2425.00, 
2426.00, 
2427.00, 
2428.00, 
2429.00, 
2430.00, 
2431.00, 
2432.00, 
2433.00, 
2434.00, 
2435.00, 
2436.00, 
2437.00, 
2438.00, 
2439.00, 
2440.00, 
2441.00, 
2442.00, 
2443.00, 
2444.00, 
2445.00, 
2446.00, 
2447.00, 
2448.00, 
2449.00, 
2450.00, 
2451.00, 
2452.00, 
2453.00, 
2454.00, 
2455.00, 
2456.00, 
2457.00, 
2458.00, 
2459.00, 
2460.00, 
2461.00, 
2462.00, 
2463.00, 
2464.00, 
2465.00, 
2466.00, 
2467.00, 
2468.00, 
2469.00, 
2470.00, 
2471.00, 
2472.00, 
2473.00, 
2474.00, 
2475.00, 
2476.00, 
2477.00, 
2478.00, 
2479.00, 
2480.00, 
2481.00, 
2482.00, 
2483.00, 
2484.00, 
2485.00, 
2486.00, 
2487.00, 
2488.00, 
2489.00, 
2490.00, 
2491.00, 
2492.00, 
2493.00, 
2494.00, 
2495.00, 
2496.00, 
2497.00, 
2498.00, 
2499.00, 
2500.00, 
2501.00, 
2502.00, 
2503.00, 
2504.00, 
2505.00, 
2506.00, 
2507.00, 
2508.00, 
2509.00, 
2510.00, 
2511.00, 
2512.00, 
2513.00, 
2514.00, 
2515.00, 
2516.00, 
2517.00, 
2518.00, 
2519.00, 
2520.00, 
2521.00, 
2522.00, 
2523.00, 
2524.00, 
2525.00, 
2526.00, 
2527.00, 
2528.00, 
2529.00, 
2530.00, 
2531.00, 
2532.00, 
2533.00, 
2534.00, 
2535.00, 
2536.00, 
2537.00, 
2538.00, 
2539.00, 
2540.00, 
2541.00, 
2542.00, 
2543.00, 
2544.00, 
2545.00, 
2546.00, 
2547.00, 
2548.00, 
2549.00, 
2550.00, 
2551.00, 
2552.00, 
2553.00, 
2554.00, 
2555.00, 
2556.00, 
2557.00, 
2558.00, 
2559.00, 
2560.00, 
2561.00, 
2562.00, 
2563.00, 
2564.00, 
2565.00, 
2566.00, 
2567.00, 
2568.00, 
2569.00, 
2570.00, 
2571.00, 
2572.00, 
2573.00, 
2574.00, 
2575.00, 
2576.00, 
2577.00, 
2578.00, 
2579.00, 
2580.00, 
2581.00, 
2582.00, 
2583.00, 
2584.00, 
2585.00, 
2586.00, 
2587.00, 
2588.00, 
2589.00, 
2590.00, 
2591.00, 
2592.00, 
2593.00, 
2594.00, 
2595.00, 
2596.00, 
2597.00, 
2598.00, 
2599.00, 
2600.00, 
