"1cP3 - RawData"
"Wavelength nm.","T%"
200.00,0.002
201.00,0.004
202.00,0.002
203.00,0.000
204.00,0.002
205.00,0.003
206.00,-0.001
207.00,0.002
208.00,0.005
209.00,-0.002
210.00,0.005
211.00,-0.002
212.00,0.001
213.00,-0.001
214.00,-0.000
215.00,-0.000
216.00,0.003
217.00,0.003
218.00,0.001
219.00,0.000
220.00,0.003
221.00,0.000
222.00,0.000
223.00,0.000
224.00,0.002
225.00,0.001
226.00,-0.003
227.00,0.001
228.00,-0.000
229.00,-0.002
230.00,0.002
231.00,-0.000
232.00,0.001
233.00,0.002
234.00,-0.001
235.00,-0.003
236.00,0.001
237.00,-0.000
238.00,0.003
239.00,0.000
240.00,-0.000
241.00,0.001
242.00,0.001
243.00,0.001
244.00,-0.000
245.00,0.001
246.00,0.001
247.00,0.000
248.00,-0.000
249.00,0.001
250.00,0.002
251.00,0.000
252.00,0.000
253.00,0.000
254.00,0.002
255.00,0.001
256.00,0.001
257.00,0.001
258.00,0.001
259.00,0.000
260.00,-0.002
261.00,-0.000
262.00,-0.001
263.00,-0.000
264.00,-0.003
265.00,0.002
266.00,0.001
267.00,0.001
268.00,0.000
269.00,0.000
270.00,-0.000
271.00,0.001
272.00,-0.002
273.00,0.003
274.00,0.001
275.00,-0.001
276.00,-0.000
277.00,0.000
278.00,0.001
279.00,0.000
280.00,0.002
281.00,0.000
282.00,-0.001
283.00,-0.000
284.00,-0.000
285.00,0.000
286.00,0.000
287.00,-0.000
288.00,0.001
289.00,0.000
290.00,0.001
291.00,-0.000
292.00,-0.002
293.00,-0.001
294.00,0.000
295.00,-0.001
296.00,-0.001
297.00,-0.001
298.00,0.000
299.00,-0.001
300.00,-0.001
301.00,0.003
302.00,0.002
303.00,0.001
304.00,0.000
305.00,0.004
306.00,0.002
307.00,0.002
308.00,0.006
309.00,0.012
310.00,0.021
311.00,0.032
312.00,0.049
313.00,0.071
314.00,0.108
315.00,0.165
316.00,0.231
317.00,0.329
318.00,0.448
319.00,0.602
320.00,0.799
321.00,1.042
322.00,1.332
323.00,1.686
324.00,2.081
325.00,2.522
326.00,2.991
327.00,3.562
328.00,4.164
329.00,4.815
330.00,5.512
331.00,6.216
332.00,6.989
333.00,7.816
334.00,8.620
335.00,9.529
336.00,10.396
337.00,11.287
338.00,12.158
339.00,12.860
340.00,13.857
341.00,14.708
342.00,15.508
343.00,16.318
344.00,17.075
345.00,17.868
346.00,18.529
347.00,19.205
348.00,19.874
349.00,20.480
350.00,21.086
351.00,21.585
352.00,22.115
353.00,22.581
354.00,23.060
355.00,23.511
356.00,23.903
357.00,24.282
358.00,24.616
359.00,25.031
360.00,25.412
361.00,25.735
362.00,25.855
363.00,26.135
364.00,26.309
365.00,26.451
366.00,26.630
367.00,26.829
368.00,26.873
369.00,27.037
370.00,27.151
371.00,27.223
372.00,27.174
373.00,27.218
374.00,27.248
375.00,27.244
376.00,27.094
377.00,27.072
378.00,26.960
379.00,26.884
380.00,26.904
381.00,26.916
382.00,26.943
383.00,26.984
384.00,27.085
385.00,27.197
386.00,27.157
387.00,27.369
388.00,27.391
389.00,27.562
390.00,27.664
391.00,27.736
392.00,27.798
393.00,27.862
394.00,27.935
395.00,27.978
396.00,27.997
397.00,28.035
398.00,28.167
399.00,28.055
400.00,28.091
401.00,28.044
402.00,28.097
403.00,28.085
404.00,28.068
405.00,28.082
406.00,28.058
407.00,28.025
408.00,28.007
409.00,27.953
410.00,27.901
411.00,27.884
412.00,27.859
413.00,27.833
414.00,27.818
415.00,27.823
416.00,27.913
417.00,27.865
418.00,27.844
419.00,28.008
420.00,28.013
421.00,28.059
422.00,28.025
423.00,28.102
424.00,28.217
425.00,28.101
426.00,28.122
427.00,28.201
428.00,28.215
429.00,28.292
430.00,28.283
431.00,28.345
432.00,28.336
433.00,28.405
434.00,28.435
435.00,28.491
436.00,28.529
437.00,28.575
438.00,28.694
439.00,28.712
440.00,28.787
441.00,28.820
442.00,28.875
443.00,28.949
444.00,29.007
445.00,29.095
446.00,29.195
447.00,29.239
448.00,29.336
449.00,29.452
450.00,29.556
451.00,29.611
452.00,29.671
453.00,29.798
454.00,29.866
455.00,30.027
456.00,30.110
457.00,30.216
458.00,30.253
459.00,30.371
460.00,30.502
461.00,30.622
462.00,30.707
463.00,30.833
464.00,30.964
465.00,31.106
466.00,31.167
467.00,31.295
468.00,31.349
469.00,31.419
470.00,31.505
471.00,31.572
472.00,31.679
473.00,31.716
474.00,31.822
475.00,31.926
476.00,32.001
477.00,32.113
478.00,32.213
479.00,32.379
480.00,32.484
481.00,32.538
482.00,32.695
483.00,32.778
484.00,32.965
485.00,33.090
486.00,33.181
487.00,33.354
488.00,33.497
489.00,33.572
490.00,33.756
491.00,33.808
492.00,34.105
493.00,34.227
494.00,34.160
495.00,34.296
496.00,34.404
497.00,34.481
498.00,34.628
499.00,34.722
500.00,34.863
501.00,34.917
502.00,35.094
503.00,35.202
504.00,35.196
505.00,35.301
506.00,35.413
507.00,35.495
508.00,35.610
509.00,35.778
510.00,35.847
511.00,35.921
512.00,36.081
513.00,36.192
514.00,36.268
515.00,36.402
516.00,36.559
517.00,36.562
518.00,36.681
519.00,36.741
520.00,36.766
521.00,36.915
522.00,36.941
523.00,36.974
524.00,37.097
525.00,37.204
526.00,37.304
527.00,37.387
528.00,37.430
529.00,37.591
530.00,37.748
531.00,37.780
532.00,37.886
533.00,37.969
534.00,38.079
535.00,38.171
536.00,38.215
537.00,38.304
538.00,38.365
539.00,38.475
540.00,38.558
541.00,38.497
542.00,38.582
543.00,38.605
544.00,38.677
545.00,38.791
546.00,38.798
547.00,38.877
548.00,38.968
549.00,39.083
550.00,39.107
551.00,39.207
552.00,39.276
553.00,39.306
554.00,39.483
555.00,39.537
556.00,39.527
557.00,39.562
558.00,39.593
559.00,39.656
560.00,39.804
561.00,39.794
562.00,39.885
563.00,39.882
564.00,39.987
565.00,39.951
566.00,39.962
567.00,39.970
568.00,40.061
569.00,40.124
570.00,40.112
571.00,40.199
572.00,40.229
573.00,40.129
574.00,40.238
575.00,40.254
576.00,40.204
577.00,40.295
578.00,40.410
579.00,40.474
580.00,40.462
581.00,40.675
582.00,40.771
583.00,40.647
584.00,40.838
585.00,40.900
586.00,40.848
587.00,41.009
588.00,41.068
589.00,40.901
590.00,40.927
591.00,41.052
592.00,41.014
593.00,41.087
594.00,41.187
595.00,41.224
596.00,41.294
597.00,41.297
598.00,41.401
599.00,41.437
600.00,41.447
601.00,41.520
602.00,41.518
603.00,41.592
604.00,41.675
605.00,41.708
606.00,41.650
607.00,41.692
608.00,41.870
609.00,41.929
610.00,41.668
611.00,41.828
612.00,41.804
613.00,41.926
614.00,41.958
615.00,41.931
616.00,42.022
617.00,42.045
618.00,42.060
619.00,42.172
620.00,42.228
621.00,42.224
622.00,42.300
623.00,42.332
624.00,42.399
625.00,42.434
626.00,42.448
627.00,42.515
628.00,42.484
629.00,42.558
630.00,42.606
631.00,42.630
632.00,42.564
633.00,42.791
634.00,42.833
635.00,42.883
636.00,42.903
637.00,42.981
638.00,43.060
639.00,43.154
640.00,43.128
641.00,43.122
642.00,43.168
643.00,43.241
644.00,43.347
645.00,43.387
646.00,43.481
647.00,43.475
648.00,43.519
649.00,43.519
650.00,43.549
651.00,43.677
652.00,43.718
653.00,43.702
654.00,43.760
655.00,43.923
656.00,44.093
657.00,44.003
658.00,44.081
659.00,44.191
660.00,44.245
661.00,44.184
662.00,44.192
663.00,44.254
664.00,44.554
665.00,44.699
666.00,44.462
667.00,44.534
668.00,44.572
669.00,44.734
670.00,45.043
671.00,44.868
672.00,44.852
673.00,44.894
674.00,45.013
675.00,45.119
676.00,45.298
677.00,45.388
678.00,45.065
679.00,45.223
680.00,45.326
681.00,45.397
682.00,45.347
683.00,45.343
684.00,45.523
685.00,45.595
686.00,45.509
687.00,45.459
688.00,45.538
689.00,45.658
690.00,45.907
691.00,46.102
692.00,45.754
693.00,45.740
694.00,45.865
695.00,46.019
696.00,46.011
697.00,45.961
698.00,45.979
699.00,46.298
700.00,46.321
701.00,46.201
702.00,46.261
703.00,46.397
704.00,46.501
705.00,46.384
706.00,46.438
707.00,46.478
708.00,46.388
709.00,46.769
710.00,47.064
711.00,46.581
712.00,46.622
713.00,46.751
714.00,46.736
715.00,46.758
716.00,46.720
717.00,46.902
718.00,46.891
719.00,46.863
720.00,46.976
721.00,51.815
722.00,51.837
723.00,51.767
724.00,51.834
725.00,51.807
726.00,51.798
727.00,51.718
728.00,51.672
729.00,51.713
730.00,51.662
731.00,51.676
732.00,51.746
733.00,51.724
734.00,51.695
735.00,51.754
736.00,51.723
737.00,51.718
738.00,51.717
739.00,51.744
740.00,51.715
741.00,51.682
742.00,51.747
743.00,51.647
744.00,51.678
745.00,51.680
746.00,51.672
747.00,51.620
748.00,51.504
749.00,51.596
750.00,51.585
751.00,51.488
752.00,51.453
753.00,51.535
754.00,51.468
755.00,51.513
756.00,51.428
757.00,51.423
758.00,51.453
759.00,51.457
760.00,51.500
761.00,51.398
762.00,51.394
763.00,51.495
764.00,51.315
765.00,51.378
766.00,51.471
767.00,51.383
768.00,51.290
769.00,51.349
770.00,51.387
771.00,51.296
772.00,51.295
773.00,51.305
774.00,51.273
775.00,51.356
776.00,51.237
777.00,51.265
778.00,51.262
779.00,51.360
780.00,51.237
781.00,51.209
782.00,51.237
783.00,51.211
784.00,51.164
785.00,51.120
786.00,51.215
787.00,51.134
788.00,51.097
789.00,51.085
790.00,51.006
791.00,51.058
792.00,50.946
793.00,50.961
794.00,50.918
795.00,50.856
796.00,50.875
797.00,50.831
798.00,50.894
799.00,50.799
800.00,50.798
801.00,50.814
802.00,50.787
803.00,50.793
804.00,50.748
805.00,50.717
806.00,50.663
807.00,50.653
808.00,50.672
809.00,50.568
810.00,50.609
811.00,50.558
812.00,50.612
813.00,50.562
814.00,50.497
815.00,50.523
816.00,50.481
817.00,50.441
818.00,50.421
819.00,50.366
820.00,50.428
821.00,50.275
822.00,50.383
823.00,50.309
824.00,50.327
825.00,50.230
826.00,50.214
827.00,50.297
828.00,50.302
829.00,50.341
830.00,50.151
831.00,52.616
832.00,52.566
833.00,52.506
834.00,52.542
835.00,52.518
836.00,52.477
837.00,52.455
838.00,52.415
839.00,52.365
840.00,52.328
841.00,52.362
842.00,52.329
843.00,52.316
844.00,52.268
845.00,52.232
846.00,52.246
847.00,52.199
848.00,52.194
849.00,52.127
850.00,52.122
851.00,52.076
852.00,52.053
853.00,52.022
854.00,51.964
855.00,51.902
856.00,51.917
857.00,51.874
858.00,51.833
859.00,51.800
860.00,51.828
861.00,51.807
862.00,51.763
863.00,51.761
864.00,51.747
865.00,51.728
866.00,51.743
867.00,51.725
868.00,51.736
869.00,51.680
870.00,51.650
871.00,51.672
872.00,51.636
873.00,51.618
874.00,51.586
875.00,51.598
876.00,51.569
877.00,51.483
878.00,51.568
879.00,51.546
880.00,51.516
881.00,51.492
882.00,51.523
883.00,51.441
884.00,51.418
885.00,51.405
886.00,51.379
887.00,51.369
888.00,51.315
889.00,51.320
890.00,51.301
891.00,51.295
892.00,51.254
893.00,51.233
894.00,51.208
895.00,51.198
896.00,51.189
897.00,51.153
898.00,51.120
899.00,51.138
900.00,51.110
901.00,51.111
902.00,51.087
903.00,51.071
904.00,51.046
905.00,51.029
906.00,51.016
907.00,50.981
908.00,50.937
909.00,50.931
910.00,50.902
911.00,50.898
912.00,50.887
913.00,50.842
914.00,50.859
915.00,50.791
916.00,50.785
917.00,50.772
918.00,50.756
919.00,50.699
920.00,50.665
921.00,50.659
922.00,50.670
923.00,50.642
924.00,50.611
925.00,50.594
926.00,50.519
927.00,50.594
928.00,50.534
929.00,50.527
930.00,50.503
931.00,50.474
932.00,50.468
933.00,50.467
934.00,50.438
935.00,50.380
936.00,50.389
937.00,50.349
938.00,50.354
939.00,50.332
940.00,50.304
941.00,50.312
942.00,50.373
943.00,50.262
944.00,50.244
945.00,50.237
946.00,50.210
947.00,50.194
948.00,50.157
949.00,50.137
950.00,50.108
951.00,50.112
952.00,50.083
953.00,50.039
954.00,50.012
955.00,49.992
956.00,49.962
957.00,49.921
958.00,49.932
959.00,49.872
960.00,49.867
961.00,49.875
962.00,49.889
963.00,49.837
964.00,49.829
965.00,49.818
966.00,49.810
967.00,49.802
968.00,49.774
969.00,49.804
970.00,49.769
971.00,49.783
972.00,49.714
973.00,49.783
974.00,49.807
975.00,49.774
976.00,49.783
977.00,49.779
978.00,49.817
979.00,49.754
980.00,49.781
981.00,49.777
982.00,49.735
983.00,49.746
984.00,49.738
985.00,49.762
986.00,49.724
987.00,49.737
988.00,49.785
989.00,49.693
990.00,49.665
991.00,49.660
992.00,49.659
993.00,49.638
994.00,49.620
995.00,49.602
996.00,49.591
997.00,49.569
998.00,49.555
999.00,49.578
1000.00,49.557
1001.00,49.528
1002.00,49.514
1003.00,49.519
1004.00,49.505
1005.00,49.489
1006.00,49.499
1007.00,49.449
1008.00,49.457
1009.00,49.427
1010.00,49.446
1011.00,49.422
1012.00,49.377
1013.00,49.394
1014.00,49.355
1015.00,49.370
1016.00,49.323
1017.00,49.319
1018.00,49.328
1019.00,49.286
1020.00,49.270
1021.00,49.263
1022.00,49.249
1023.00,49.201
1024.00,49.218
1025.00,49.181
1026.00,49.179
1027.00,49.161
1028.00,49.142
1029.00,49.149
1030.00,49.114
1031.00,49.115
1032.00,49.083
1033.00,49.083
1034.00,49.041
1035.00,49.021
1036.00,48.993
1037.00,48.976
1038.00,48.970
1039.00,48.912
1040.00,48.927
1041.00,48.889
1042.00,48.889
1043.00,48.881
1044.00,48.905
1045.00,48.886
1046.00,48.880
1047.00,48.906
1048.00,48.910
1049.00,48.928
1050.00,48.934
1051.00,48.962
1052.00,48.954
1053.00,48.941
1054.00,48.957
1055.00,48.977
1056.00,48.998
1057.00,49.000
1058.00,48.973
1059.00,48.984
1060.00,48.994
1061.00,48.978
1062.00,48.959
1063.00,48.972
1064.00,48.978
1065.00,48.939
1066.00,48.943
1067.00,48.921
1068.00,48.946
1069.00,48.898
1070.00,48.888
1071.00,48.885
1072.00,48.895
1073.00,48.885
1074.00,48.868
1075.00,48.863
1076.00,48.892
1077.00,48.865
1078.00,48.847
1079.00,48.854
1080.00,48.841
1081.00,48.818
1082.00,48.806
1083.00,48.794
1084.00,48.794
1085.00,48.789
1086.00,48.753
1087.00,48.769
1088.00,48.745
1089.00,48.727
1090.00,48.743
1091.00,48.744
1092.00,48.754
1093.00,48.730
1094.00,48.737
1095.00,48.755
1096.00,48.688
1097.00,48.685
1098.00,48.686
1099.00,48.675
1100.00,48.650
1101.00,48.656
1102.00,48.627
1103.00,48.630
1104.00,48.625
1105.00,48.604
1106.00,48.606
1107.00,48.595
1108.00,48.579
1109.00,48.586
1110.00,48.579
1111.00,48.553
1112.00,48.550
1113.00,48.546
1114.00,48.528
1115.00,48.547
1116.00,48.530
1117.00,48.509
1118.00,48.500
1119.00,48.491
1120.00,48.505
1121.00,48.498
1122.00,48.474
1123.00,48.478
1124.00,48.471
1125.00,48.484
1126.00,48.474
1127.00,48.475
1128.00,48.457
1129.00,48.446
1130.00,48.422
1131.00,48.424
1132.00,48.420
1133.00,48.449
1134.00,48.400
1135.00,48.458
1136.00,48.405
1137.00,48.411
1138.00,48.402
1139.00,48.426
1140.00,48.402
1141.00,48.389
1142.00,48.390
1143.00,48.413
1144.00,48.360
1145.00,48.377
1146.00,48.373
1147.00,48.371
1148.00,48.364
1149.00,48.365
1150.00,48.369
1151.00,48.373
1152.00,48.355
1153.00,48.381
1154.00,48.357
1155.00,48.360
1156.00,48.370
1157.00,48.351
1158.00,48.329
1159.00,48.338
1160.00,48.329
1161.00,48.341
1162.00,48.330
1163.00,48.314
1164.00,48.331
1165.00,48.318
1166.00,48.319
1167.00,48.306
1168.00,48.317
1169.00,48.321
1170.00,48.347
1171.00,48.325
1172.00,48.308
1173.00,48.304
1174.00,48.304
1175.00,48.310
1176.00,48.311
1177.00,48.283
1178.00,48.289
1179.00,48.305
1180.00,48.292
1181.00,48.328
1182.00,48.296
1183.00,48.300
1184.00,48.284
1185.00,48.301
1186.00,48.308
1187.00,48.304
1188.00,48.297
1189.00,48.316
1190.00,48.301
1191.00,48.287
1192.00,48.327
1193.00,48.292
1194.00,48.314
1195.00,48.287
1196.00,48.312
1197.00,48.307
1198.00,48.292
1199.00,48.294
1200.00,48.316
1201.00,48.321
1202.00,48.295
1203.00,48.309
1204.00,48.289
1205.00,48.312
1206.00,48.307
1207.00,48.289
1208.00,48.301
1209.00,48.315
1210.00,48.294
1211.00,48.289
1212.00,48.312
1213.00,48.268
1214.00,48.312
1215.00,48.284
1216.00,48.292
1217.00,48.301
1218.00,48.273
1219.00,48.311
1220.00,48.276
1221.00,48.294
1222.00,48.287
1223.00,48.320
1224.00,48.332
1225.00,48.298
1226.00,48.315
1227.00,48.297
1228.00,48.322
1229.00,48.311
1230.00,48.345
1231.00,48.347
1232.00,48.369
1233.00,48.371
1234.00,48.369
1235.00,48.372
1236.00,48.384
1237.00,48.373
1238.00,48.366
1239.00,48.382
1240.00,48.337
1241.00,48.356
1242.00,48.358
1243.00,48.362
1244.00,48.342
1245.00,48.355
1246.00,48.358
1247.00,48.359
1248.00,48.361
1249.00,48.386
1250.00,48.418
1251.00,48.388
1252.00,48.412
1253.00,48.403
1254.00,48.426
1255.00,48.404
1256.00,48.417
1257.00,48.405
1258.00,48.443
1259.00,48.434
1260.00,48.464
1261.00,48.465
1262.00,48.440
1263.00,48.447
1264.00,48.456
1265.00,48.451
1266.00,48.468
1267.00,48.470
1268.00,48.479
1269.00,48.483
1270.00,48.501
1271.00,48.508
1272.00,48.513
1273.00,48.521
1274.00,48.530
1275.00,48.543
1276.00,48.521
1277.00,48.536
1278.00,48.538
1279.00,48.537
1280.00,48.538
1281.00,48.539
1282.00,48.561
1283.00,48.551
1284.00,48.558
1285.00,48.562
1286.00,48.596
1287.00,48.570
1288.00,48.582
1289.00,48.573
1290.00,48.609
1291.00,48.606
1292.00,48.584
1293.00,48.591
1294.00,48.622
1295.00,48.619
1296.00,48.632
1297.00,48.638
1298.00,48.672
1299.00,48.651
1300.00,48.665
1301.00,48.661
1302.00,48.682
1303.00,48.680
1304.00,48.672
1305.00,48.693
1306.00,48.677
1307.00,48.709
1308.00,48.700
1309.00,48.685
1310.00,48.753
1311.00,48.704
1312.00,48.707
1313.00,48.738
1314.00,48.742
1315.00,48.760
1316.00,48.749
1317.00,48.774
1318.00,48.789
1319.00,48.803
1320.00,48.783
1321.00,48.942
1322.00,48.938
1323.00,48.916
1324.00,48.923
1325.00,48.919
1326.00,48.933
1327.00,48.921
1328.00,48.926
1329.00,48.904
1330.00,48.919
1331.00,48.931
1332.00,48.977
1333.00,48.867
1334.00,48.995
1335.00,49.003
1336.00,49.048
1337.00,49.062
1338.00,49.132
1339.00,49.148
1340.00,49.221
1341.00,49.295
1342.00,49.335
1343.00,49.402
1344.00,49.436
1345.00,49.508
1346.00,49.534
1347.00,49.552
1348.00,49.597
1349.00,49.606
1350.00,49.648
1351.00,49.650
1352.00,49.684
1353.00,49.634
1354.00,49.680
1355.00,49.681
1356.00,49.662
1357.00,49.688
1358.00,49.740
1359.00,49.691
1360.00,49.770
1361.00,49.786
1362.00,49.725
1363.00,49.712
1364.00,49.695
1365.00,49.702
1366.00,49.798
1367.00,49.692
1368.00,49.738
1369.00,49.703
1370.00,49.664
1371.00,49.668
1372.00,49.686
1373.00,49.693
1374.00,49.752
1375.00,49.704
1376.00,49.718
1377.00,49.693
1378.00,49.797
1379.00,49.716
1380.00,49.740
1381.00,49.711
1382.00,49.632
1383.00,49.715
1384.00,49.690
1385.00,49.736
1386.00,49.713
1387.00,49.646
1388.00,49.682
1389.00,49.711
1390.00,49.671
1391.00,49.656
1392.00,49.663
1393.00,49.747
1394.00,49.707
1395.00,49.617
1396.00,49.667
1397.00,49.786
1398.00,49.710
1399.00,49.672
1400.00,49.646
1401.00,49.693
1402.00,49.793
1403.00,49.697
1404.00,49.713
1405.00,49.732
1406.00,49.778
1407.00,49.738
1408.00,49.702
1409.00,49.762
1410.00,49.793
1411.00,49.738
1412.00,49.832
1413.00,49.752
1414.00,49.770
1415.00,49.786
1416.00,49.815
1417.00,49.836
1418.00,49.830
1419.00,49.907
1420.00,49.864
1421.00,49.919
1422.00,49.892
1423.00,49.931
1424.00,49.930
1425.00,49.963
1426.00,49.951
1427.00,49.972
1428.00,49.966
1429.00,49.991
1430.00,49.986
1431.00,50.028
1432.00,50.051
1433.00,50.056
1434.00,50.066
1435.00,50.124
1436.00,50.132
1437.00,50.119
1438.00,50.141
1439.00,50.178
1440.00,50.179
1441.00,50.190
1442.00,50.214
1443.00,50.228
1444.00,50.287
1445.00,50.246
1446.00,50.269
1447.00,50.295
1448.00,50.367
1449.00,50.338
1450.00,50.338
1451.00,50.359
1452.00,50.389
1453.00,50.398
1454.00,50.438
1455.00,50.437
1456.00,50.462
1457.00,50.455
1458.00,50.485
1459.00,50.500
1460.00,50.535
1461.00,50.527
1462.00,50.572
1463.00,50.568
1464.00,50.577
1465.00,50.587
1466.00,50.579
1467.00,50.621
1468.00,50.688
1469.00,50.657
1470.00,50.690
1471.00,50.700
1472.00,50.701
1473.00,50.711
1474.00,50.746
1475.00,50.766
1476.00,50.780
1477.00,50.744
1478.00,50.796
1479.00,50.812
1480.00,50.798
1481.00,50.818
1482.00,50.842
1483.00,50.863
1484.00,50.884
1485.00,50.879
1486.00,50.906
1487.00,50.923
1488.00,50.938
1489.00,50.938
1490.00,50.965
1491.00,50.959
1492.00,50.986
1493.00,50.965
1494.00,51.017
1495.00,51.010
1496.00,51.027
1497.00,51.007
1498.00,51.036
1499.00,51.016
1500.00,51.056
1501.00, 
1502.00, 
1503.00, 
1504.00, 
1505.00, 
1506.00, 
1507.00, 
1508.00, 
1509.00, 
1510.00, 
1511.00, 
1512.00, 
1513.00, 
1514.00, 
1515.00, 
1516.00, 
1517.00, 
1518.00, 
1519.00, 
1520.00, 
1521.00, 
1522.00, 
1523.00, 
1524.00, 
1525.00, 
1526.00, 
1527.00, 
1528.00, 
1529.00, 
1530.00, 
1531.00, 
1532.00, 
1533.00, 
1534.00, 
1535.00, 
1536.00, 
1537.00, 
1538.00, 
1539.00, 
1540.00, 
1541.00, 
1542.00, 
1543.00, 
1544.00, 
1545.00, 
1546.00, 
1547.00, 
1548.00, 
1549.00, 
1550.00, 
1551.00, 
1552.00, 
1553.00, 
1554.00, 
1555.00, 
1556.00, 
1557.00, 
1558.00, 
1559.00, 
1560.00, 
1561.00, 
1562.00, 
1563.00, 
1564.00, 
1565.00, 
1566.00, 
1567.00, 
1568.00, 
1569.00, 
1570.00, 
1571.00, 
1572.00, 
1573.00, 
1574.00, 
1575.00, 
1576.00, 
1577.00, 
1578.00, 
1579.00, 
1580.00, 
1581.00, 
1582.00, 
1583.00, 
1584.00, 
1585.00, 
1586.00, 
1587.00, 
1588.00, 
1589.00, 
1590.00, 
1591.00, 
1592.00, 
1593.00, 
1594.00, 
1595.00, 
1596.00, 
1597.00, 
1598.00, 
1599.00, 
1600.00, 
1601.00, 
1602.00, 
1603.00, 
1604.00, 
1605.00, 
1606.00, 
1607.00, 
1608.00, 
1609.00, 
1610.00, 
1611.00, 
1612.00, 
1613.00, 
1614.00, 
1615.00, 
1616.00, 
1617.00, 
1618.00, 
1619.00, 
1620.00, 
1621.00, 
1622.00, 
1623.00, 
1624.00, 
1625.00, 
1626.00, 
1627.00, 
1628.00, 
1629.00, 
1630.00, 
1631.00, 
1632.00, 
1633.00, 
1634.00, 
1635.00, 
1636.00, 
1637.00, 
1638.00, 
1639.00, 
1640.00, 
1641.00, 
1642.00, 
1643.00, 
1644.00, 
1645.00, 
1646.00, 
1647.00, 
1648.00, 
1649.00, 
1650.00, 
1651.00, 
1652.00, 
1653.00, 
1654.00, 
1655.00, 
1656.00, 
1657.00, 
1658.00, 
1659.00, 
1660.00, 
1661.00, 
1662.00, 
1663.00, 
1664.00, 
1665.00, 
1666.00, 
1667.00, 
1668.00, 
1669.00, 
1670.00, 
1671.00, 
1672.00, 
1673.00, 
1674.00, 
1675.00, 
1676.00, 
1677.00, 
1678.00, 
1679.00, 
1680.00, 
1681.00, 
1682.00, 
1683.00, 
1684.00, 
1685.00, 
1686.00, 
1687.00, 
1688.00, 
1689.00, 
1690.00, 
1691.00, 
1692.00, 
1693.00, 
1694.00, 
1695.00, 
1696.00, 
1697.00, 
1698.00, 
1699.00, 
1700.00, 
1701.00, 
1702.00, 
1703.00, 
1704.00, 
1705.00, 
1706.00, 
1707.00, 
1708.00, 
1709.00, 
1710.00, 
1711.00, 
1712.00, 
1713.00, 
1714.00, 
1715.00, 
1716.00, 
1717.00, 
1718.00, 
1719.00, 
1720.00, 
1721.00, 
1722.00, 
1723.00, 
1724.00, 
1725.00, 
1726.00, 
1727.00, 
1728.00, 
1729.00, 
1730.00, 
1731.00, 
1732.00, 
1733.00, 
1734.00, 
1735.00, 
1736.00, 
1737.00, 
1738.00, 
1739.00, 
1740.00, 
1741.00, 
1742.00, 
1743.00, 
1744.00, 
1745.00, 
1746.00, 
1747.00, 
1748.00, 
1749.00, 
1750.00, 
1751.00, 
1752.00, 
1753.00, 
1754.00, 
1755.00, 
1756.00, 
1757.00, 
1758.00, 
1759.00, 
1760.00, 
1761.00, 
1762.00, 
1763.00, 
1764.00, 
1765.00, 
1766.00, 
1767.00, 
1768.00, 
1769.00, 
1770.00, 
1771.00, 
1772.00, 
1773.00, 
1774.00, 
1775.00, 
1776.00, 
1777.00, 
1778.00, 
1779.00, 
1780.00, 
1781.00, 
1782.00, 
1783.00, 
1784.00, 
1785.00, 
1786.00, 
1787.00, 
1788.00, 
1789.00, 
1790.00, 
1791.00, 
1792.00, 
1793.00, 
1794.00, 
1795.00, 
1796.00, 
1797.00, 
1798.00, 
1799.00, 
1800.00, 
1801.00, 
1802.00, 
1803.00, 
1804.00, 
1805.00, 
1806.00, 
1807.00, 
1808.00, 
1809.00, 
1810.00, 
1811.00, 
1812.00, 
1813.00, 
1814.00, 
1815.00, 
1816.00, 
1817.00, 
1818.00, 
1819.00, 
1820.00, 
1821.00, 
1822.00, 
1823.00, 
1824.00, 
1825.00, 
1826.00, 
1827.00, 
1828.00, 
1829.00, 
1830.00, 
1831.00, 
1832.00, 
1833.00, 
1834.00, 
1835.00, 
1836.00, 
1837.00, 
1838.00, 
1839.00, 
1840.00, 
1841.00, 
1842.00, 
1843.00, 
1844.00, 
1845.00, 
1846.00, 
1847.00, 
1848.00, 
1849.00, 
1850.00, 
1851.00, 
1852.00, 
1853.00, 
1854.00, 
1855.00, 
1856.00, 
1857.00, 
1858.00, 
1859.00, 
1860.00, 
1861.00, 
1862.00, 
1863.00, 
1864.00, 
1865.00, 
1866.00, 
1867.00, 
1868.00, 
1869.00, 
1870.00, 
1871.00, 
1872.00, 
1873.00, 
1874.00, 
1875.00, 
1876.00, 
1877.00, 
1878.00, 
1879.00, 
1880.00, 
1881.00, 
1882.00, 
1883.00, 
1884.00, 
1885.00, 
1886.00, 
1887.00, 
1888.00, 
1889.00, 
1890.00, 
1891.00, 
1892.00, 
1893.00, 
1894.00, 
1895.00, 
1896.00, 
1897.00, 
1898.00, 
1899.00, 
1900.00, 
1901.00, 
1902.00, 
1903.00, 
1904.00, 
1905.00, 
1906.00, 
1907.00, 
1908.00, 
1909.00, 
1910.00, 
1911.00, 
1912.00, 
1913.00, 
1914.00, 
1915.00, 
1916.00, 
1917.00, 
1918.00, 
1919.00, 
1920.00, 
1921.00, 
1922.00, 
1923.00, 
1924.00, 
1925.00, 
1926.00, 
1927.00, 
1928.00, 
1929.00, 
1930.00, 
1931.00, 
1932.00, 
1933.00, 
1934.00, 
1935.00, 
1936.00, 
1937.00, 
1938.00, 
1939.00, 
1940.00, 
1941.00, 
1942.00, 
1943.00, 
1944.00, 
1945.00, 
1946.00, 
1947.00, 
1948.00, 
1949.00, 
1950.00, 
1951.00, 
1952.00, 
1953.00, 
1954.00, 
1955.00, 
1956.00, 
1957.00, 
1958.00, 
1959.00, 
1960.00, 
1961.00, 
1962.00, 
1963.00, 
1964.00, 
1965.00, 
1966.00, 
1967.00, 
1968.00, 
1969.00, 
1970.00, 
1971.00, 
1972.00, 
1973.00, 
1974.00, 
1975.00, 
1976.00, 
1977.00, 
1978.00, 
1979.00, 
1980.00, 
1981.00, 
1982.00, 
1983.00, 
1984.00, 
1985.00, 
1986.00, 
1987.00, 
1988.00, 
1989.00, 
1990.00, 
1991.00, 
1992.00, 
1993.00, 
1994.00, 
1995.00, 
1996.00, 
1997.00, 
1998.00, 
1999.00, 
2000.00, 
2001.00, 
2002.00, 
2003.00, 
2004.00, 
2005.00, 
2006.00, 
2007.00, 
2008.00, 
2009.00, 
2010.00, 
2011.00, 
2012.00, 
2013.00, 
2014.00, 
2015.00, 
2016.00, 
2017.00, 
2018.00, 
2019.00, 
2020.00, 
2021.00, 
2022.00, 
2023.00, 
2024.00, 
2025.00, 
2026.00, 
2027.00, 
2028.00, 
2029.00, 
2030.00, 
2031.00, 
2032.00, 
2033.00, 
2034.00, 
2035.00, 
2036.00, 
2037.00, 
2038.00, 
2039.00, 
2040.00, 
2041.00, 
2042.00, 
2043.00, 
2044.00, 
2045.00, 
2046.00, 
2047.00, 
2048.00, 
2049.00, 
2050.00, 
2051.00, 
2052.00, 
2053.00, 
2054.00, 
2055.00, 
2056.00, 
2057.00, 
2058.00, 
2059.00, 
2060.00, 
2061.00, 
2062.00, 
2063.00, 
2064.00, 
2065.00, 
2066.00, 
2067.00, 
2068.00, 
2069.00, 
2070.00, 
2071.00, 
2072.00, 
2073.00, 
2074.00, 
2075.00, 
2076.00, 
2077.00, 
2078.00, 
2079.00, 
2080.00, 
2081.00, 
2082.00, 
2083.00, 
2084.00, 
2085.00, 
2086.00, 
2087.00, 
2088.00, 
2089.00, 
2090.00, 
2091.00, 
2092.00, 
2093.00, 
2094.00, 
2095.00, 
2096.00, 
2097.00, 
2098.00, 
2099.00, 
2100.00, 
2101.00, 
2102.00, 
2103.00, 
2104.00, 
2105.00, 
2106.00, 
2107.00, 
2108.00, 
2109.00, 
2110.00, 
2111.00, 
2112.00, 
2113.00, 
2114.00, 
2115.00, 
2116.00, 
2117.00, 
2118.00, 
2119.00, 
2120.00, 
2121.00, 
2122.00, 
2123.00, 
2124.00, 
2125.00, 
2126.00, 
2127.00, 
2128.00, 
2129.00, 
2130.00, 
2131.00, 
2132.00, 
2133.00, 
2134.00, 
2135.00, 
2136.00, 
2137.00, 
2138.00, 
2139.00, 
2140.00, 
2141.00, 
2142.00, 
2143.00, 
2144.00, 
2145.00, 
2146.00, 
2147.00, 
2148.00, 
2149.00, 
2150.00, 
2151.00, 
2152.00, 
2153.00, 
2154.00, 
2155.00, 
2156.00, 
2157.00, 
2158.00, 
2159.00, 
2160.00, 
2161.00, 
2162.00, 
2163.00, 
2164.00, 
2165.00, 
2166.00, 
2167.00, 
2168.00, 
2169.00, 
2170.00, 
2171.00, 
2172.00, 
2173.00, 
2174.00, 
2175.00, 
2176.00, 
2177.00, 
2178.00, 
2179.00, 
2180.00, 
2181.00, 
2182.00, 
2183.00, 
2184.00, 
2185.00, 
2186.00, 
2187.00, 
2188.00, 
2189.00, 
2190.00, 
2191.00, 
2192.00, 
2193.00, 
2194.00, 
2195.00, 
2196.00, 
2197.00, 
2198.00, 
2199.00, 
2200.00, 
2201.00, 
2202.00, 
2203.00, 
2204.00, 
2205.00, 
2206.00, 
2207.00, 
2208.00, 
2209.00, 
2210.00, 
2211.00, 
2212.00, 
2213.00, 
2214.00, 
2215.00, 
2216.00, 
2217.00, 
2218.00, 
2219.00, 
2220.00, 
2221.00, 
2222.00, 
2223.00, 
2224.00, 
2225.00, 
2226.00, 
2227.00, 
2228.00, 
2229.00, 
2230.00, 
2231.00, 
2232.00, 
2233.00, 
2234.00, 
2235.00, 
2236.00, 
2237.00, 
2238.00, 
2239.00, 
2240.00, 
2241.00, 
2242.00, 
2243.00, 
2244.00, 
2245.00, 
2246.00, 
2247.00, 
2248.00, 
2249.00, 
2250.00, 
2251.00, 
2252.00, 
2253.00, 
2254.00, 
2255.00, 
2256.00, 
2257.00, 
2258.00, 
2259.00, 
2260.00, 
2261.00, 
2262.00, 
2263.00, 
2264.00, 
2265.00, 
2266.00, 
2267.00, 
2268.00, 
2269.00, 
2270.00, 
2271.00, 
2272.00, 
2273.00, 
2274.00, 
2275.00, 
2276.00, 
2277.00, 
2278.00, 
2279.00, 
2280.00, 
2281.00, 
2282.00, 
2283.00, 
2284.00, 
2285.00, 
2286.00, 
2287.00, 
2288.00, 
2289.00, 
2290.00, 
2291.00, 
2292.00, 
2293.00, 
2294.00, 
2295.00, 
2296.00, 
2297.00, 
2298.00, 
2299.00, 
2300.00, 
2301.00, 
2302.00, 
2303.00, 
2304.00, 
2305.00, 
2306.00, 
2307.00, 
2308.00, 
2309.00, 
2310.00, 
2311.00, 
2312.00, 
2313.00, 
2314.00, 
2315.00, 
2316.00, 
2317.00, 
2318.00, 
2319.00, 
2320.00, 
2321.00, 
2322.00, 
2323.00, 
2324.00, 
2325.00, 
2326.00, 
2327.00, 
2328.00, 
2329.00, 
2330.00, 
2331.00, 
2332.00, 
2333.00, 
2334.00, 
2335.00, 
2336.00, 
2337.00, 
2338.00, 
2339.00, 
2340.00, 
2341.00, 
2342.00, 
2343.00, 
2344.00, 
2345.00, 
2346.00, 
2347.00, 
2348.00, 
2349.00, 
2350.00, 
2351.00, 
2352.00, 
2353.00, 
2354.00, 
2355.00, 
2356.00, 
2357.00, 
2358.00, 
2359.00, 
2360.00, 
2361.00, 
2362.00, 
2363.00, 
2364.00, 
2365.00, 
2366.00, 
2367.00, 
2368.00, 
2369.00, 
2370.00, 
2371.00, 
2372.00, 
2373.00, 
2374.00, 
2375.00, 
2376.00, 
2377.00, 
2378.00, 
2379.00, 
2380.00, 
2381.00, 
2382.00, 
2383.00, 
2384.00, 
2385.00, 
2386.00, 
2387.00, 
2388.00, 
2389.00, 
2390.00, 
2391.00, 
2392.00, 
2393.00, 
2394.00, 
2395.00, 
2396.00, 
2397.00, 
2398.00, 
2399.00, 
2400.00, 
2401.00, 
2402.00, 
2403.00, 
2404.00, 
2405.00, 
2406.00, 
2407.00, 
2408.00, 
2409.00, 
2410.00, 
2411.00, 
2412.00, 
2413.00, 
2414.00, 
2415.00, 
2416.00, 
2417.00, 
2418.00, 
2419.00, 
2420.00, 
2421.00, 
2422.00, 
2423.00, 
2424.00, 
2425.00, 
2426.00, 
2427.00, 
2428.00, 
2429.00, 
2430.00, 
2431.00, 
2432.00, 
2433.00, 
2434.00, 
2435.00, 
2436.00, 
2437.00, 
2438.00, 
2439.00, 
2440.00, 
2441.00, 
2442.00, 
2443.00, 
2444.00, 
2445.00, 
2446.00, 
2447.00, 
2448.00, 
2449.00, 
2450.00, 
2451.00, 
2452.00, 
2453.00, 
2454.00, 
2455.00, 
2456.00, 
2457.00, 
2458.00, 
2459.00, 
2460.00, 
2461.00, 
2462.00, 
2463.00, 
2464.00, 
2465.00, 
2466.00, 
2467.00, 
2468.00, 
2469.00, 
2470.00, 
2471.00, 
2472.00, 
2473.00, 
2474.00, 
2475.00, 
2476.00, 
2477.00, 
2478.00, 
2479.00, 
2480.00, 
2481.00, 
2482.00, 
2483.00, 
2484.00, 
2485.00, 
2486.00, 
2487.00, 
2488.00, 
2489.00, 
2490.00, 
2491.00, 
2492.00, 
2493.00, 
2494.00, 
2495.00, 
2496.00, 
2497.00, 
2498.00, 
2499.00, 
2500.00, 
2501.00, 
2502.00, 
2503.00, 
2504.00, 
2505.00, 
2506.00, 
2507.00, 
2508.00, 
2509.00, 
2510.00, 
2511.00, 
2512.00, 
2513.00, 
2514.00, 
2515.00, 
2516.00, 
2517.00, 
2518.00, 
2519.00, 
2520.00, 
2521.00, 
2522.00, 
2523.00, 
2524.00, 
2525.00, 
2526.00, 
2527.00, 
2528.00, 
2529.00, 
2530.00, 
2531.00, 
2532.00, 
2533.00, 
2534.00, 
2535.00, 
2536.00, 
2537.00, 
2538.00, 
2539.00, 
2540.00, 
2541.00, 
2542.00, 
2543.00, 
2544.00, 
2545.00, 
2546.00, 
2547.00, 
2548.00, 
2549.00, 
2550.00, 
2551.00, 
2552.00, 
2553.00, 
2554.00, 
2555.00, 
2556.00, 
2557.00, 
2558.00, 
2559.00, 
2560.00, 
2561.00, 
2562.00, 
2563.00, 
2564.00, 
2565.00, 
2566.00, 
2567.00, 
2568.00, 
2569.00, 
2570.00, 
2571.00, 
2572.00, 
2573.00, 
2574.00, 
2575.00, 
2576.00, 
2577.00, 
2578.00, 
2579.00, 
2580.00, 
2581.00, 
2582.00, 
2583.00, 
2584.00, 
2585.00, 
2586.00, 
2587.00, 
2588.00, 
2589.00, 
2590.00, 
2591.00, 
2592.00, 
2593.00, 
2594.00, 
2595.00, 
2596.00, 
2597.00, 
2598.00, 
2599.00, 
2600.00, 
