"2bP2 - RawData"
"Wavelength nm.","T%"
200.00,0.002
201.00,0.002
202.00,0.003
203.00,0.000
204.00,-0.001
205.00,0.000
206.00,0.000
207.00,0.003
208.00,-0.001
209.00,0.002
210.00,0.001
211.00,0.001
212.00,0.002
213.00,0.001
214.00,0.002
215.00,0.000
216.00,0.002
217.00,0.003
218.00,0.002
219.00,0.000
220.00,0.002
221.00,0.001
222.00,0.002
223.00,-0.000
224.00,0.000
225.00,0.001
226.00,0.004
227.00,-0.003
228.00,0.001
229.00,0.002
230.00,-0.000
231.00,0.001
232.00,-0.002
233.00,0.001
234.00,0.000
235.00,0.001
236.00,0.000
237.00,-0.000
238.00,0.000
239.00,-0.000
240.00,0.000
241.00,-0.000
242.00,0.001
243.00,0.002
244.00,-0.001
245.00,0.001
246.00,0.001
247.00,-0.001
248.00,0.001
249.00,0.001
250.00,0.003
251.00,0.001
252.00,-0.001
253.00,0.001
254.00,0.001
255.00,0.001
256.00,-0.001
257.00,0.002
258.00,-0.001
259.00,0.001
260.00,0.000
261.00,0.001
262.00,-0.000
263.00,0.000
264.00,0.001
265.00,-0.000
266.00,-0.001
267.00,-0.001
268.00,-0.002
269.00,-0.000
270.00,0.001
271.00,-0.000
272.00,0.002
273.00,0.002
274.00,0.001
275.00,-0.001
276.00,0.001
277.00,0.001
278.00,0.001
279.00,-0.001
280.00,-0.002
281.00,-0.000
282.00,0.002
283.00,-0.001
284.00,0.000
285.00,-0.000
286.00,-0.001
287.00,0.000
288.00,0.000
289.00,0.001
290.00,0.001
291.00,0.001
292.00,0.000
293.00,0.001
294.00,0.001
295.00,-0.001
296.00,0.000
297.00,0.001
298.00,0.000
299.00,0.002
300.00,0.004
301.00,0.004
302.00,0.004
303.00,0.010
304.00,0.015
305.00,0.023
306.00,0.032
307.00,0.049
308.00,0.075
309.00,0.115
310.00,0.163
311.00,0.217
312.00,0.298
313.00,0.401
314.00,0.530
315.00,0.678
316.00,0.852
317.00,1.071
318.00,1.315
319.00,1.601
320.00,1.941
321.00,2.302
322.00,2.734
323.00,3.207
324.00,3.677
325.00,4.168
326.00,4.681
327.00,5.278
328.00,5.853
329.00,6.461
330.00,7.125
331.00,7.719
332.00,8.393
333.00,9.046
334.00,9.730
335.00,10.388
336.00,11.015
337.00,11.680
338.00,12.304
339.00,12.898
340.00,13.504
341.00,14.088
342.00,14.655
343.00,15.138
344.00,15.707
345.00,16.150
346.00,16.640
347.00,17.043
348.00,17.454
349.00,17.835
350.00,18.183
351.00,18.512
352.00,18.815
353.00,19.086
354.00,19.389
355.00,19.656
356.00,19.877
357.00,20.089
358.00,20.322
359.00,20.534
360.00,20.730
361.00,20.945
362.00,20.988
363.00,21.155
364.00,21.200
365.00,21.310
366.00,21.413
367.00,21.473
368.00,21.513
369.00,21.531
370.00,21.588
371.00,21.613
372.00,21.591
373.00,21.607
374.00,21.610
375.00,21.643
376.00,21.529
377.00,21.506
378.00,21.445
379.00,21.353
380.00,21.356
381.00,21.336
382.00,21.309
383.00,21.341
384.00,21.325
385.00,21.320
386.00,21.339
387.00,21.423
388.00,21.387
389.00,21.406
390.00,21.452
391.00,21.464
392.00,21.479
393.00,21.477
394.00,21.498
395.00,21.515
396.00,21.490
397.00,21.538
398.00,21.562
399.00,21.482
400.00,21.459
401.00,21.448
402.00,21.474
403.00,21.457
404.00,21.444
405.00,21.432
406.00,21.423
407.00,21.387
408.00,21.360
409.00,21.308
410.00,21.300
411.00,21.269
412.00,21.253
413.00,21.250
414.00,21.245
415.00,21.253
416.00,21.328
417.00,21.300
418.00,21.312
419.00,21.398
420.00,21.434
421.00,21.498
422.00,21.459
423.00,21.540
424.00,21.630
425.00,21.547
426.00,21.576
427.00,21.652
428.00,21.706
429.00,21.717
430.00,21.778
431.00,21.833
432.00,21.895
433.00,21.926
434.00,22.003
435.00,22.069
436.00,22.114
437.00,22.176
438.00,22.264
439.00,22.278
440.00,22.392
441.00,22.464
442.00,22.563
443.00,22.626
444.00,22.715
445.00,22.804
446.00,22.944
447.00,23.003
448.00,23.102
449.00,23.215
450.00,23.308
451.00,23.414
452.00,23.495
453.00,23.631
454.00,23.725
455.00,23.821
456.00,23.986
457.00,24.045
458.00,24.178
459.00,24.313
460.00,24.411
461.00,24.579
462.00,24.674
463.00,24.839
464.00,24.926
465.00,25.069
466.00,25.176
467.00,25.318
468.00,25.440
469.00,25.526
470.00,25.654
471.00,25.737
472.00,25.846
473.00,25.967
474.00,26.111
475.00,26.212
476.00,26.261
477.00,26.430
478.00,26.541
479.00,26.774
480.00,26.880
481.00,27.006
482.00,27.159
483.00,27.274
484.00,27.521
485.00,27.604
486.00,27.779
487.00,27.927
488.00,28.047
489.00,28.240
490.00,28.366
491.00,28.517
492.00,28.754
493.00,28.910
494.00,28.923
495.00,29.066
496.00,29.174
497.00,29.323
498.00,29.432
499.00,29.597
500.00,29.711
501.00,29.827
502.00,30.027
503.00,30.105
504.00,30.183
505.00,30.341
506.00,30.413
507.00,30.542
508.00,30.710
509.00,30.856
510.00,30.964
511.00,31.032
512.00,31.210
513.00,31.367
514.00,31.477
515.00,31.609
516.00,31.749
517.00,31.813
518.00,31.955
519.00,32.028
520.00,32.049
521.00,32.199
522.00,32.263
523.00,32.273
524.00,32.423
525.00,32.563
526.00,32.641
527.00,32.738
528.00,32.801
529.00,32.974
530.00,33.151
531.00,33.209
532.00,33.304
533.00,33.405
534.00,33.516
535.00,33.601
536.00,33.661
537.00,33.762
538.00,33.837
539.00,33.921
540.00,33.997
541.00,33.971
542.00,34.028
543.00,34.130
544.00,34.232
545.00,34.308
546.00,34.355
547.00,34.451
548.00,34.492
549.00,34.626
550.00,34.682
551.00,34.754
552.00,34.875
553.00,34.885
554.00,35.026
555.00,35.085
556.00,35.084
557.00,35.155
558.00,35.217
559.00,35.283
560.00,35.400
561.00,35.374
562.00,35.471
563.00,35.491
564.00,35.546
565.00,35.579
566.00,35.596
567.00,35.608
568.00,35.696
569.00,35.775
570.00,35.798
571.00,35.842
572.00,35.878
573.00,35.864
574.00,35.924
575.00,35.948
576.00,35.971
577.00,36.015
578.00,36.123
579.00,36.223
580.00,36.193
581.00,36.355
582.00,36.462
583.00,36.411
584.00,36.576
585.00,36.640
586.00,36.639
587.00,36.691
588.00,36.715
589.00,36.699
590.00,36.812
591.00,36.842
592.00,36.763
593.00,36.854
594.00,36.892
595.00,36.992
596.00,37.061
597.00,36.975
598.00,37.143
599.00,37.283
600.00,37.334
601.00,37.371
602.00,37.333
603.00,37.412
604.00,37.476
605.00,37.534
606.00,37.540
607.00,37.569
608.00,37.740
609.00,37.861
610.00,37.690
611.00,37.766
612.00,37.828
613.00,37.870
614.00,37.925
615.00,37.999
616.00,38.146
617.00,38.119
618.00,38.069
619.00,38.180
620.00,38.266
621.00,38.264
622.00,38.419
623.00,38.457
624.00,38.475
625.00,38.577
626.00,38.609
627.00,38.590
628.00,38.674
629.00,38.756
630.00,38.791
631.00,38.757
632.00,38.995
633.00,39.141
634.00,39.196
635.00,39.251
636.00,39.339
637.00,39.404
638.00,39.466
639.00,39.574
640.00,39.599
641.00,39.628
642.00,39.702
643.00,39.728
644.00,39.891
645.00,39.933
646.00,40.066
647.00,40.136
648.00,40.206
649.00,40.200
650.00,40.284
651.00,40.469
652.00,40.487
653.00,40.452
654.00,40.710
655.00,40.758
656.00,41.141
657.00,40.973
658.00,41.080
659.00,41.208
660.00,41.176
661.00,41.254
662.00,41.398
663.00,41.531
664.00,41.729
665.00,41.929
666.00,41.872
667.00,41.909
668.00,41.965
669.00,42.259
670.00,42.502
671.00,42.412
672.00,42.481
673.00,42.591
674.00,42.634
675.00,42.755
676.00,43.028
677.00,43.035
678.00,42.867
679.00,43.052
680.00,43.209
681.00,43.392
682.00,43.422
683.00,43.405
684.00,43.593
685.00,43.671
686.00,43.666
687.00,43.779
688.00,43.925
689.00,43.832
690.00,44.179
691.00,44.464
692.00,44.266
693.00,44.309
694.00,44.533
695.00,44.677
696.00,44.700
697.00,44.651
698.00,44.725
699.00,45.102
700.00,45.146
701.00,45.078
702.00,45.210
703.00,45.357
704.00,45.476
705.00,45.441
706.00,45.558
707.00,45.672
708.00,45.555
709.00,45.943
710.00,46.301
711.00,45.906
712.00,45.976
713.00,46.100
714.00,46.234
715.00,46.253
716.00,46.246
717.00,46.511
718.00,46.600
719.00,46.577
720.00,46.679
721.00,51.019
722.00,51.081
723.00,51.106
724.00,51.151
725.00,51.168
726.00,51.184
727.00,51.258
728.00,51.259
729.00,51.292
730.00,51.278
731.00,51.409
732.00,51.444
733.00,51.474
734.00,51.521
735.00,51.591
736.00,51.581
737.00,51.582
738.00,51.598
739.00,51.735
740.00,51.662
741.00,51.807
742.00,51.852
743.00,51.846
744.00,51.791
745.00,51.798
746.00,51.870
747.00,51.872
748.00,51.861
749.00,51.821
750.00,51.928
751.00,51.917
752.00,51.876
753.00,51.915
754.00,51.979
755.00,51.969
756.00,51.963
757.00,52.040
758.00,51.989
759.00,51.975
760.00,52.142
761.00,52.018
762.00,52.088
763.00,52.161
764.00,52.104
765.00,52.135
766.00,52.187
767.00,52.253
768.00,52.154
769.00,52.227
770.00,52.256
771.00,52.239
772.00,52.279
773.00,52.237
774.00,52.288
775.00,52.320
776.00,52.292
777.00,52.384
778.00,52.336
779.00,52.462
780.00,52.340
781.00,52.312
782.00,52.387
783.00,52.389
784.00,52.331
785.00,52.403
786.00,52.474
787.00,52.396
788.00,52.332
789.00,52.325
790.00,52.380
791.00,52.413
792.00,52.324
793.00,52.293
794.00,52.257
795.00,52.316
796.00,52.250
797.00,52.348
798.00,52.267
799.00,52.328
800.00,52.306
801.00,52.251
802.00,52.262
803.00,52.175
804.00,52.258
805.00,52.271
806.00,52.195
807.00,52.259
808.00,52.277
809.00,52.163
810.00,52.164
811.00,52.184
812.00,52.255
813.00,52.161
814.00,52.179
815.00,52.220
816.00,52.188
817.00,52.179
818.00,52.121
819.00,52.111
820.00,52.172
821.00,52.017
822.00,52.130
823.00,52.047
824.00,52.109
825.00,51.961
826.00,51.967
827.00,52.121
828.00,52.122
829.00,52.033
830.00,52.057
831.00,54.432
832.00,54.438
833.00,54.423
834.00,54.423
835.00,54.406
836.00,54.385
837.00,54.365
838.00,54.351
839.00,54.378
840.00,54.298
841.00,54.331
842.00,54.289
843.00,54.310
844.00,54.278
845.00,54.232
846.00,54.218
847.00,54.232
848.00,54.176
849.00,54.137
850.00,54.154
851.00,54.082
852.00,54.127
853.00,54.057
854.00,54.019
855.00,53.963
856.00,53.979
857.00,53.951
858.00,53.907
859.00,53.888
860.00,53.921
861.00,53.922
862.00,53.835
863.00,53.906
864.00,53.840
865.00,53.872
866.00,53.821
867.00,53.813
868.00,53.855
869.00,53.806
870.00,53.779
871.00,53.789
872.00,53.783
873.00,53.759
874.00,53.728
875.00,53.739
876.00,53.752
877.00,53.607
878.00,53.731
879.00,53.727
880.00,53.695
881.00,53.671
882.00,53.717
883.00,53.664
884.00,53.620
885.00,53.582
886.00,53.607
887.00,53.580
888.00,53.546
889.00,53.550
890.00,53.546
891.00,53.515
892.00,53.482
893.00,53.463
894.00,53.456
895.00,53.423
896.00,53.418
897.00,53.396
898.00,53.360
899.00,53.379
900.00,53.371
901.00,53.283
902.00,53.402
903.00,53.314
904.00,53.306
905.00,53.301
906.00,53.269
907.00,53.254
908.00,53.220
909.00,53.197
910.00,53.185
911.00,53.177
912.00,53.172
913.00,53.095
914.00,53.113
915.00,53.075
916.00,53.045
917.00,53.058
918.00,53.028
919.00,52.996
920.00,52.975
921.00,52.977
922.00,52.987
923.00,52.964
924.00,52.924
925.00,52.938
926.00,52.922
927.00,52.875
928.00,52.844
929.00,52.857
930.00,52.833
931.00,52.808
932.00,52.773
933.00,52.789
934.00,52.773
935.00,52.724
936.00,52.706
937.00,52.698
938.00,52.682
939.00,52.675
940.00,52.638
941.00,52.651
942.00,52.628
943.00,52.632
944.00,52.584
945.00,52.595
946.00,52.680
947.00,52.536
948.00,52.519
949.00,52.502
950.00,52.482
951.00,52.494
952.00,52.470
953.00,52.399
954.00,52.385
955.00,52.347
956.00,52.339
957.00,52.304
958.00,52.314
959.00,52.256
960.00,52.245
961.00,52.237
962.00,52.239
963.00,52.202
964.00,52.198
965.00,52.192
966.00,52.177
967.00,52.178
968.00,52.164
969.00,52.212
970.00,52.134
971.00,52.137
972.00,52.083
973.00,52.167
974.00,52.183
975.00,52.118
976.00,52.133
977.00,52.124
978.00,52.177
979.00,52.128
980.00,52.183
981.00,52.184
982.00,52.132
983.00,52.165
984.00,52.128
985.00,52.147
986.00,52.108
987.00,52.133
988.00,52.107
989.00,52.099
990.00,52.087
991.00,52.070
992.00,52.076
993.00,52.042
994.00,52.035
995.00,52.020
996.00,52.016
997.00,52.001
998.00,51.961
999.00,51.982
1000.00,51.946
1001.00,51.926
1002.00,51.932
1003.00,51.930
1004.00,51.908
1005.00,51.884
1006.00,51.904
1007.00,51.865
1008.00,51.859
1009.00,51.837
1010.00,51.860
1011.00,51.850
1012.00,51.796
1013.00,51.813
1014.00,51.782
1015.00,51.789
1016.00,51.756
1017.00,51.748
1018.00,51.739
1019.00,51.697
1020.00,51.701
1021.00,51.700
1022.00,51.676
1023.00,51.629
1024.00,51.649
1025.00,51.625
1026.00,51.595
1027.00,51.587
1028.00,51.571
1029.00,51.560
1030.00,51.524
1031.00,51.535
1032.00,51.503
1033.00,51.499
1034.00,51.464
1035.00,51.436
1036.00,51.407
1037.00,51.396
1038.00,51.413
1039.00,51.365
1040.00,51.354
1041.00,51.318
1042.00,51.304
1043.00,51.293
1044.00,51.329
1045.00,51.311
1046.00,51.283
1047.00,51.314
1048.00,51.327
1049.00,51.349
1050.00,51.344
1051.00,51.387
1052.00,51.391
1053.00,51.369
1054.00,51.370
1055.00,51.432
1056.00,51.412
1057.00,51.412
1058.00,51.388
1059.00,51.387
1060.00,51.399
1061.00,51.379
1062.00,51.372
1063.00,51.377
1064.00,51.363
1065.00,51.354
1066.00,51.342
1067.00,51.329
1068.00,51.359
1069.00,51.307
1070.00,51.286
1071.00,51.274
1072.00,51.291
1073.00,51.264
1074.00,51.264
1075.00,51.239
1076.00,51.259
1077.00,51.228
1078.00,51.196
1079.00,51.216
1080.00,51.218
1081.00,51.211
1082.00,51.211
1083.00,51.199
1084.00,51.191
1085.00,51.198
1086.00,51.176
1087.00,51.178
1088.00,51.148
1089.00,51.147
1090.00,51.147
1091.00,51.139
1092.00,51.127
1093.00,51.113
1094.00,51.088
1095.00,51.095
1096.00,51.077
1097.00,51.071
1098.00,51.067
1099.00,51.056
1100.00,51.034
1101.00,51.040
1102.00,51.014
1103.00,51.019
1104.00,51.007
1105.00,51.010
1106.00,51.019
1107.00,50.979
1108.00,50.951
1109.00,50.954
1110.00,50.951
1111.00,50.938
1112.00,50.930
1113.00,50.921
1114.00,50.923
1115.00,50.934
1116.00,50.910
1117.00,50.903
1118.00,50.883
1119.00,50.867
1120.00,50.885
1121.00,50.887
1122.00,50.846
1123.00,50.855
1124.00,50.844
1125.00,50.841
1126.00,50.836
1127.00,50.841
1128.00,50.833
1129.00,50.819
1130.00,50.797
1131.00,50.786
1132.00,50.753
1133.00,50.809
1134.00,50.773
1135.00,50.763
1136.00,50.746
1137.00,50.753
1138.00,50.750
1139.00,50.762
1140.00,50.751
1141.00,50.736
1142.00,50.735
1143.00,50.751
1144.00,50.700
1145.00,50.711
1146.00,50.705
1147.00,50.694
1148.00,50.692
1149.00,50.697
1150.00,50.690
1151.00,50.692
1152.00,50.663
1153.00,50.693
1154.00,50.679
1155.00,50.672
1156.00,50.670
1157.00,50.667
1158.00,50.655
1159.00,50.667
1160.00,50.649
1161.00,50.667
1162.00,50.655
1163.00,50.634
1164.00,50.667
1165.00,50.654
1166.00,50.669
1167.00,50.674
1168.00,50.660
1169.00,50.646
1170.00,50.641
1171.00,50.626
1172.00,50.646
1173.00,50.623
1174.00,50.621
1175.00,50.631
1176.00,50.645
1177.00,50.634
1178.00,50.625
1179.00,50.637
1180.00,50.628
1181.00,50.651
1182.00,50.634
1183.00,50.622
1184.00,50.619
1185.00,50.621
1186.00,50.617
1187.00,50.617
1188.00,50.599
1189.00,50.609
1190.00,50.603
1191.00,50.591
1192.00,50.624
1193.00,50.600
1194.00,50.623
1195.00,50.592
1196.00,50.622
1197.00,50.632
1198.00,50.601
1199.00,50.595
1200.00,50.617
1201.00,50.626
1202.00,50.596
1203.00,50.598
1204.00,50.584
1205.00,50.600
1206.00,50.594
1207.00,50.585
1208.00,50.586
1209.00,50.588
1210.00,50.584
1211.00,50.586
1212.00,50.605
1213.00,50.572
1214.00,50.591
1215.00,50.572
1216.00,50.583
1217.00,50.590
1218.00,50.563
1219.00,50.596
1220.00,50.570
1221.00,50.561
1222.00,50.551
1223.00,50.568
1224.00,50.569
1225.00,50.575
1226.00,50.555
1227.00,50.561
1228.00,50.603
1229.00,50.569
1230.00,50.610
1231.00,50.602
1232.00,50.603
1233.00,50.619
1234.00,50.602
1235.00,50.601
1236.00,50.599
1237.00,50.603
1238.00,50.609
1239.00,50.621
1240.00,50.593
1241.00,50.606
1242.00,50.612
1243.00,50.621
1244.00,50.612
1245.00,50.633
1246.00,50.637
1247.00,50.621
1248.00,50.615
1249.00,50.623
1250.00,50.638
1251.00,50.605
1252.00,50.634
1253.00,50.625
1254.00,50.633
1255.00,50.627
1256.00,50.616
1257.00,50.605
1258.00,50.658
1259.00,50.635
1260.00,50.662
1261.00,50.652
1262.00,50.649
1263.00,50.669
1264.00,50.668
1265.00,50.661
1266.00,50.678
1267.00,50.679
1268.00,50.676
1269.00,50.683
1270.00,50.693
1271.00,50.696
1272.00,50.698
1273.00,50.714
1274.00,50.728
1275.00,50.739
1276.00,50.727
1277.00,50.738
1278.00,50.731
1279.00,50.738
1280.00,50.732
1281.00,50.742
1282.00,50.752
1283.00,50.734
1284.00,50.735
1285.00,50.741
1286.00,50.768
1287.00,50.745
1288.00,50.759
1289.00,50.758
1290.00,50.782
1291.00,50.772
1292.00,50.767
1293.00,50.777
1294.00,50.792
1295.00,50.790
1296.00,50.805
1297.00,50.806
1298.00,50.820
1299.00,50.808
1300.00,50.817
1301.00,50.809
1302.00,50.831
1303.00,50.836
1304.00,50.832
1305.00,50.838
1306.00,50.841
1307.00,50.868
1308.00,50.851
1309.00,50.813
1310.00,50.899
1311.00,50.831
1312.00,50.830
1313.00,50.868
1314.00,50.880
1315.00,50.896
1316.00,50.879
1317.00,50.895
1318.00,50.901
1319.00,50.903
1320.00,50.897
1321.00,51.062
1322.00,51.054
1323.00,51.033
1324.00,51.042
1325.00,51.041
1326.00,51.074
1327.00,51.059
1328.00,51.048
1329.00,51.048
1330.00,51.054
1331.00,51.033
1332.00,51.031
1333.00,51.048
1334.00,51.053
1335.00,51.096
1336.00,51.131
1337.00,51.155
1338.00,51.218
1339.00,51.250
1340.00,51.302
1341.00,51.374
1342.00,51.428
1343.00,51.490
1344.00,51.510
1345.00,51.564
1346.00,51.608
1347.00,51.648
1348.00,51.641
1349.00,51.673
1350.00,51.686
1351.00,51.697
1352.00,51.720
1353.00,51.729
1354.00,51.723
1355.00,51.691
1356.00,51.714
1357.00,51.723
1358.00,51.728
1359.00,51.755
1360.00,51.885
1361.00,52.349
1362.00,51.771
1363.00,51.757
1364.00,51.809
1365.00,51.748
1366.00,51.797
1367.00,51.731
1368.00,51.768
1369.00,51.757
1370.00,51.714
1371.00,51.690
1372.00,51.730
1373.00,51.751
1374.00,51.773
1375.00,51.737
1376.00,51.739
1377.00,51.711
1378.00,51.762
1379.00,51.748
1380.00,51.739
1381.00,51.748
1382.00,51.651
1383.00,51.737
1384.00,51.684
1385.00,51.733
1386.00,51.762
1387.00,51.690
1388.00,51.675
1389.00,51.672
1390.00,51.728
1391.00,51.723
1392.00,51.666
1393.00,51.705
1394.00,51.707
1395.00,51.682
1396.00,51.663
1397.00,51.718
1398.00,51.737
1399.00,51.696
1400.00,51.667
1401.00,51.702
1402.00,51.744
1403.00,51.689
1404.00,51.743
1405.00,51.718
1406.00,51.759
1407.00,51.749
1408.00,51.738
1409.00,51.741
1410.00,51.786
1411.00,51.766
1412.00,51.826
1413.00,51.764
1414.00,51.781
1415.00,51.816
1416.00,51.813
1417.00,51.836
1418.00,51.819
1419.00,51.828
1420.00,51.832
1421.00,51.869
1422.00,51.854
1423.00,51.890
1424.00,51.889
1425.00,51.904
1426.00,51.910
1427.00,51.945
1428.00,51.933
1429.00,51.958
1430.00,51.963
1431.00,51.984
1432.00,52.006
1433.00,52.014
1434.00,52.015
1435.00,52.051
1436.00,52.045
1437.00,52.075
1438.00,52.078
1439.00,52.130
1440.00,52.132
1441.00,52.104
1442.00,52.125
1443.00,52.148
1444.00,52.180
1445.00,52.158
1446.00,52.191
1447.00,52.212
1448.00,52.247
1449.00,52.244
1450.00,52.247
1451.00,52.263
1452.00,52.276
1453.00,52.300
1454.00,52.340
1455.00,52.338
1456.00,52.354
1457.00,52.349
1458.00,52.379
1459.00,52.389
1460.00,52.419
1461.00,52.406
1462.00,52.453
1463.00,52.445
1464.00,52.452
1465.00,52.468
1466.00,52.452
1467.00,52.487
1468.00,52.541
1469.00,52.528
1470.00,52.562
1471.00,52.563
1472.00,52.562
1473.00,52.569
1474.00,52.585
1475.00,52.602
1476.00,52.619
1477.00,52.582
1478.00,52.613
1479.00,52.638
1480.00,52.622
1481.00,52.650
1482.00,52.668
1483.00,52.684
1484.00,52.695
1485.00,52.684
1486.00,52.705
1487.00,52.721
1488.00,52.745
1489.00,52.739
1490.00,52.771
1491.00,52.758
1492.00,52.780
1493.00,52.758
1494.00,52.789
1495.00,52.793
1496.00,52.801
1497.00,52.786
1498.00,52.827
1499.00,52.816
1500.00,52.857
1501.00, 
1502.00, 
1503.00, 
1504.00, 
1505.00, 
1506.00, 
1507.00, 
1508.00, 
1509.00, 
1510.00, 
1511.00, 
1512.00, 
1513.00, 
1514.00, 
1515.00, 
1516.00, 
1517.00, 
1518.00, 
1519.00, 
1520.00, 
1521.00, 
1522.00, 
1523.00, 
1524.00, 
1525.00, 
1526.00, 
1527.00, 
1528.00, 
1529.00, 
1530.00, 
1531.00, 
1532.00, 
1533.00, 
1534.00, 
1535.00, 
1536.00, 
1537.00, 
1538.00, 
1539.00, 
1540.00, 
1541.00, 
1542.00, 
1543.00, 
1544.00, 
1545.00, 
1546.00, 
1547.00, 
1548.00, 
1549.00, 
1550.00, 
1551.00, 
1552.00, 
1553.00, 
1554.00, 
1555.00, 
1556.00, 
1557.00, 
1558.00, 
1559.00, 
1560.00, 
1561.00, 
1562.00, 
1563.00, 
1564.00, 
1565.00, 
1566.00, 
1567.00, 
1568.00, 
1569.00, 
1570.00, 
1571.00, 
1572.00, 
1573.00, 
1574.00, 
1575.00, 
1576.00, 
1577.00, 
1578.00, 
1579.00, 
1580.00, 
1581.00, 
1582.00, 
1583.00, 
1584.00, 
1585.00, 
1586.00, 
1587.00, 
1588.00, 
1589.00, 
1590.00, 
1591.00, 
1592.00, 
1593.00, 
1594.00, 
1595.00, 
1596.00, 
1597.00, 
1598.00, 
1599.00, 
1600.00, 
1601.00, 
1602.00, 
1603.00, 
1604.00, 
1605.00, 
1606.00, 
1607.00, 
1608.00, 
1609.00, 
1610.00, 
1611.00, 
1612.00, 
1613.00, 
1614.00, 
1615.00, 
1616.00, 
1617.00, 
1618.00, 
1619.00, 
1620.00, 
1621.00, 
1622.00, 
1623.00, 
1624.00, 
1625.00, 
1626.00, 
1627.00, 
1628.00, 
1629.00, 
1630.00, 
1631.00, 
1632.00, 
1633.00, 
1634.00, 
1635.00, 
1636.00, 
1637.00, 
1638.00, 
1639.00, 
1640.00, 
1641.00, 
1642.00, 
1643.00, 
1644.00, 
1645.00, 
1646.00, 
1647.00, 
1648.00, 
1649.00, 
1650.00, 
1651.00, 
1652.00, 
1653.00, 
1654.00, 
1655.00, 
1656.00, 
1657.00, 
1658.00, 
1659.00, 
1660.00, 
1661.00, 
1662.00, 
1663.00, 
1664.00, 
1665.00, 
1666.00, 
1667.00, 
1668.00, 
1669.00, 
1670.00, 
1671.00, 
1672.00, 
1673.00, 
1674.00, 
1675.00, 
1676.00, 
1677.00, 
1678.00, 
1679.00, 
1680.00, 
1681.00, 
1682.00, 
1683.00, 
1684.00, 
1685.00, 
1686.00, 
1687.00, 
1688.00, 
1689.00, 
1690.00, 
1691.00, 
1692.00, 
1693.00, 
1694.00, 
1695.00, 
1696.00, 
1697.00, 
1698.00, 
1699.00, 
1700.00, 
1701.00, 
1702.00, 
1703.00, 
1704.00, 
1705.00, 
1706.00, 
1707.00, 
1708.00, 
1709.00, 
1710.00, 
1711.00, 
1712.00, 
1713.00, 
1714.00, 
1715.00, 
1716.00, 
1717.00, 
1718.00, 
1719.00, 
1720.00, 
1721.00, 
1722.00, 
1723.00, 
1724.00, 
1725.00, 
1726.00, 
1727.00, 
1728.00, 
1729.00, 
1730.00, 
1731.00, 
1732.00, 
1733.00, 
1734.00, 
1735.00, 
1736.00, 
1737.00, 
1738.00, 
1739.00, 
1740.00, 
1741.00, 
1742.00, 
1743.00, 
1744.00, 
1745.00, 
1746.00, 
1747.00, 
1748.00, 
1749.00, 
1750.00, 
1751.00, 
1752.00, 
1753.00, 
1754.00, 
1755.00, 
1756.00, 
1757.00, 
1758.00, 
1759.00, 
1760.00, 
1761.00, 
1762.00, 
1763.00, 
1764.00, 
1765.00, 
1766.00, 
1767.00, 
1768.00, 
1769.00, 
1770.00, 
1771.00, 
1772.00, 
1773.00, 
1774.00, 
1775.00, 
1776.00, 
1777.00, 
1778.00, 
1779.00, 
1780.00, 
1781.00, 
1782.00, 
1783.00, 
1784.00, 
1785.00, 
1786.00, 
1787.00, 
1788.00, 
1789.00, 
1790.00, 
1791.00, 
1792.00, 
1793.00, 
1794.00, 
1795.00, 
1796.00, 
1797.00, 
1798.00, 
1799.00, 
1800.00, 
1801.00, 
1802.00, 
1803.00, 
1804.00, 
1805.00, 
1806.00, 
1807.00, 
1808.00, 
1809.00, 
1810.00, 
1811.00, 
1812.00, 
1813.00, 
1814.00, 
1815.00, 
1816.00, 
1817.00, 
1818.00, 
1819.00, 
1820.00, 
1821.00, 
1822.00, 
1823.00, 
1824.00, 
1825.00, 
1826.00, 
1827.00, 
1828.00, 
1829.00, 
1830.00, 
1831.00, 
1832.00, 
1833.00, 
1834.00, 
1835.00, 
1836.00, 
1837.00, 
1838.00, 
1839.00, 
1840.00, 
1841.00, 
1842.00, 
1843.00, 
1844.00, 
1845.00, 
1846.00, 
1847.00, 
1848.00, 
1849.00, 
1850.00, 
1851.00, 
1852.00, 
1853.00, 
1854.00, 
1855.00, 
1856.00, 
1857.00, 
1858.00, 
1859.00, 
1860.00, 
1861.00, 
1862.00, 
1863.00, 
1864.00, 
1865.00, 
1866.00, 
1867.00, 
1868.00, 
1869.00, 
1870.00, 
1871.00, 
1872.00, 
1873.00, 
1874.00, 
1875.00, 
1876.00, 
1877.00, 
1878.00, 
1879.00, 
1880.00, 
1881.00, 
1882.00, 
1883.00, 
1884.00, 
1885.00, 
1886.00, 
1887.00, 
1888.00, 
1889.00, 
1890.00, 
1891.00, 
1892.00, 
1893.00, 
1894.00, 
1895.00, 
1896.00, 
1897.00, 
1898.00, 
1899.00, 
1900.00, 
1901.00, 
1902.00, 
1903.00, 
1904.00, 
1905.00, 
1906.00, 
1907.00, 
1908.00, 
1909.00, 
1910.00, 
1911.00, 
1912.00, 
1913.00, 
1914.00, 
1915.00, 
1916.00, 
1917.00, 
1918.00, 
1919.00, 
1920.00, 
1921.00, 
1922.00, 
1923.00, 
1924.00, 
1925.00, 
1926.00, 
1927.00, 
1928.00, 
1929.00, 
1930.00, 
1931.00, 
1932.00, 
1933.00, 
1934.00, 
1935.00, 
1936.00, 
1937.00, 
1938.00, 
1939.00, 
1940.00, 
1941.00, 
1942.00, 
1943.00, 
1944.00, 
1945.00, 
1946.00, 
1947.00, 
1948.00, 
1949.00, 
1950.00, 
1951.00, 
1952.00, 
1953.00, 
1954.00, 
1955.00, 
1956.00, 
1957.00, 
1958.00, 
1959.00, 
1960.00, 
1961.00, 
1962.00, 
1963.00, 
1964.00, 
1965.00, 
1966.00, 
1967.00, 
1968.00, 
1969.00, 
1970.00, 
1971.00, 
1972.00, 
1973.00, 
1974.00, 
1975.00, 
1976.00, 
1977.00, 
1978.00, 
1979.00, 
1980.00, 
1981.00, 
1982.00, 
1983.00, 
1984.00, 
1985.00, 
1986.00, 
1987.00, 
1988.00, 
1989.00, 
1990.00, 
1991.00, 
1992.00, 
1993.00, 
1994.00, 
1995.00, 
1996.00, 
1997.00, 
1998.00, 
1999.00, 
2000.00, 
2001.00, 
2002.00, 
2003.00, 
2004.00, 
2005.00, 
2006.00, 
2007.00, 
2008.00, 
2009.00, 
2010.00, 
2011.00, 
2012.00, 
2013.00, 
2014.00, 
2015.00, 
2016.00, 
2017.00, 
2018.00, 
2019.00, 
2020.00, 
2021.00, 
2022.00, 
2023.00, 
2024.00, 
2025.00, 
2026.00, 
2027.00, 
2028.00, 
2029.00, 
2030.00, 
2031.00, 
2032.00, 
2033.00, 
2034.00, 
2035.00, 
2036.00, 
2037.00, 
2038.00, 
2039.00, 
2040.00, 
2041.00, 
2042.00, 
2043.00, 
2044.00, 
2045.00, 
2046.00, 
2047.00, 
2048.00, 
2049.00, 
2050.00, 
2051.00, 
2052.00, 
2053.00, 
2054.00, 
2055.00, 
2056.00, 
2057.00, 
2058.00, 
2059.00, 
2060.00, 
2061.00, 
2062.00, 
2063.00, 
2064.00, 
2065.00, 
2066.00, 
2067.00, 
2068.00, 
2069.00, 
2070.00, 
2071.00, 
2072.00, 
2073.00, 
2074.00, 
2075.00, 
2076.00, 
2077.00, 
2078.00, 
2079.00, 
2080.00, 
2081.00, 
2082.00, 
2083.00, 
2084.00, 
2085.00, 
2086.00, 
2087.00, 
2088.00, 
2089.00, 
2090.00, 
2091.00, 
2092.00, 
2093.00, 
2094.00, 
2095.00, 
2096.00, 
2097.00, 
2098.00, 
2099.00, 
2100.00, 
2101.00, 
2102.00, 
2103.00, 
2104.00, 
2105.00, 
2106.00, 
2107.00, 
2108.00, 
2109.00, 
2110.00, 
2111.00, 
2112.00, 
2113.00, 
2114.00, 
2115.00, 
2116.00, 
2117.00, 
2118.00, 
2119.00, 
2120.00, 
2121.00, 
2122.00, 
2123.00, 
2124.00, 
2125.00, 
2126.00, 
2127.00, 
2128.00, 
2129.00, 
2130.00, 
2131.00, 
2132.00, 
2133.00, 
2134.00, 
2135.00, 
2136.00, 
2137.00, 
2138.00, 
2139.00, 
2140.00, 
2141.00, 
2142.00, 
2143.00, 
2144.00, 
2145.00, 
2146.00, 
2147.00, 
2148.00, 
2149.00, 
2150.00, 
2151.00, 
2152.00, 
2153.00, 
2154.00, 
2155.00, 
2156.00, 
2157.00, 
2158.00, 
2159.00, 
2160.00, 
2161.00, 
2162.00, 
2163.00, 
2164.00, 
2165.00, 
2166.00, 
2167.00, 
2168.00, 
2169.00, 
2170.00, 
2171.00, 
2172.00, 
2173.00, 
2174.00, 
2175.00, 
2176.00, 
2177.00, 
2178.00, 
2179.00, 
2180.00, 
2181.00, 
2182.00, 
2183.00, 
2184.00, 
2185.00, 
2186.00, 
2187.00, 
2188.00, 
2189.00, 
2190.00, 
2191.00, 
2192.00, 
2193.00, 
2194.00, 
2195.00, 
2196.00, 
2197.00, 
2198.00, 
2199.00, 
2200.00, 
2201.00, 
2202.00, 
2203.00, 
2204.00, 
2205.00, 
2206.00, 
2207.00, 
2208.00, 
2209.00, 
2210.00, 
2211.00, 
2212.00, 
2213.00, 
2214.00, 
2215.00, 
2216.00, 
2217.00, 
2218.00, 
2219.00, 
2220.00, 
2221.00, 
2222.00, 
2223.00, 
2224.00, 
2225.00, 
2226.00, 
2227.00, 
2228.00, 
2229.00, 
2230.00, 
2231.00, 
2232.00, 
2233.00, 
2234.00, 
2235.00, 
2236.00, 
2237.00, 
2238.00, 
2239.00, 
2240.00, 
2241.00, 
2242.00, 
2243.00, 
2244.00, 
2245.00, 
2246.00, 
2247.00, 
2248.00, 
2249.00, 
2250.00, 
2251.00, 
2252.00, 
2253.00, 
2254.00, 
2255.00, 
2256.00, 
2257.00, 
2258.00, 
2259.00, 
2260.00, 
2261.00, 
2262.00, 
2263.00, 
2264.00, 
2265.00, 
2266.00, 
2267.00, 
2268.00, 
2269.00, 
2270.00, 
2271.00, 
2272.00, 
2273.00, 
2274.00, 
2275.00, 
2276.00, 
2277.00, 
2278.00, 
2279.00, 
2280.00, 
2281.00, 
2282.00, 
2283.00, 
2284.00, 
2285.00, 
2286.00, 
2287.00, 
2288.00, 
2289.00, 
2290.00, 
2291.00, 
2292.00, 
2293.00, 
2294.00, 
2295.00, 
2296.00, 
2297.00, 
2298.00, 
2299.00, 
2300.00, 
2301.00, 
2302.00, 
2303.00, 
2304.00, 
2305.00, 
2306.00, 
2307.00, 
2308.00, 
2309.00, 
2310.00, 
2311.00, 
2312.00, 
2313.00, 
2314.00, 
2315.00, 
2316.00, 
2317.00, 
2318.00, 
2319.00, 
2320.00, 
2321.00, 
2322.00, 
2323.00, 
2324.00, 
2325.00, 
2326.00, 
2327.00, 
2328.00, 
2329.00, 
2330.00, 
2331.00, 
2332.00, 
2333.00, 
2334.00, 
2335.00, 
2336.00, 
2337.00, 
2338.00, 
2339.00, 
2340.00, 
2341.00, 
2342.00, 
2343.00, 
2344.00, 
2345.00, 
2346.00, 
2347.00, 
2348.00, 
2349.00, 
2350.00, 
2351.00, 
2352.00, 
2353.00, 
2354.00, 
2355.00, 
2356.00, 
2357.00, 
2358.00, 
2359.00, 
2360.00, 
2361.00, 
2362.00, 
2363.00, 
2364.00, 
2365.00, 
2366.00, 
2367.00, 
2368.00, 
2369.00, 
2370.00, 
2371.00, 
2372.00, 
2373.00, 
2374.00, 
2375.00, 
2376.00, 
2377.00, 
2378.00, 
2379.00, 
2380.00, 
2381.00, 
2382.00, 
2383.00, 
2384.00, 
2385.00, 
2386.00, 
2387.00, 
2388.00, 
2389.00, 
2390.00, 
2391.00, 
2392.00, 
2393.00, 
2394.00, 
2395.00, 
2396.00, 
2397.00, 
2398.00, 
2399.00, 
2400.00, 
2401.00, 
2402.00, 
2403.00, 
2404.00, 
2405.00, 
2406.00, 
2407.00, 
2408.00, 
2409.00, 
2410.00, 
2411.00, 
2412.00, 
2413.00, 
2414.00, 
2415.00, 
2416.00, 
2417.00, 
2418.00, 
2419.00, 
2420.00, 
2421.00, 
2422.00, 
2423.00, 
2424.00, 
2425.00, 
2426.00, 
2427.00, 
2428.00, 
2429.00, 
2430.00, 
2431.00, 
2432.00, 
2433.00, 
2434.00, 
2435.00, 
2436.00, 
2437.00, 
2438.00, 
2439.00, 
2440.00, 
2441.00, 
2442.00, 
2443.00, 
2444.00, 
2445.00, 
2446.00, 
2447.00, 
2448.00, 
2449.00, 
2450.00, 
2451.00, 
2452.00, 
2453.00, 
2454.00, 
2455.00, 
2456.00, 
2457.00, 
2458.00, 
2459.00, 
2460.00, 
2461.00, 
2462.00, 
2463.00, 
2464.00, 
2465.00, 
2466.00, 
2467.00, 
2468.00, 
2469.00, 
2470.00, 
2471.00, 
2472.00, 
2473.00, 
2474.00, 
2475.00, 
2476.00, 
2477.00, 
2478.00, 
2479.00, 
2480.00, 
2481.00, 
2482.00, 
2483.00, 
2484.00, 
2485.00, 
2486.00, 
2487.00, 
2488.00, 
2489.00, 
2490.00, 
2491.00, 
2492.00, 
2493.00, 
2494.00, 
2495.00, 
2496.00, 
2497.00, 
2498.00, 
2499.00, 
2500.00, 
2501.00, 
2502.00, 
2503.00, 
2504.00, 
2505.00, 
2506.00, 
2507.00, 
2508.00, 
2509.00, 
2510.00, 
2511.00, 
2512.00, 
2513.00, 
2514.00, 
2515.00, 
2516.00, 
2517.00, 
2518.00, 
2519.00, 
2520.00, 
2521.00, 
2522.00, 
2523.00, 
2524.00, 
2525.00, 
2526.00, 
2527.00, 
2528.00, 
2529.00, 
2530.00, 
2531.00, 
2532.00, 
2533.00, 
2534.00, 
2535.00, 
2536.00, 
2537.00, 
2538.00, 
2539.00, 
2540.00, 
2541.00, 
2542.00, 
2543.00, 
2544.00, 
2545.00, 
2546.00, 
2547.00, 
2548.00, 
2549.00, 
2550.00, 
2551.00, 
2552.00, 
2553.00, 
2554.00, 
2555.00, 
2556.00, 
2557.00, 
2558.00, 
2559.00, 
2560.00, 
2561.00, 
2562.00, 
2563.00, 
2564.00, 
2565.00, 
2566.00, 
2567.00, 
2568.00, 
2569.00, 
2570.00, 
2571.00, 
2572.00, 
2573.00, 
2574.00, 
2575.00, 
2576.00, 
2577.00, 
2578.00, 
2579.00, 
2580.00, 
2581.00, 
2582.00, 
2583.00, 
2584.00, 
2585.00, 
2586.00, 
2587.00, 
2588.00, 
2589.00, 
2590.00, 
2591.00, 
2592.00, 
2593.00, 
2594.00, 
2595.00, 
2596.00, 
2597.00, 
2598.00, 
2599.00, 
2600.00, 
