"2cP1 - RawData"
"Wavelength nm.","T%"
200.00,0.001
201.00,0.002
202.00,-0.000
203.00,0.001
204.00,-0.000
205.00,0.001
206.00,-0.001
207.00,0.002
208.00,0.001
209.00,0.002
210.00,0.004
211.00,-0.000
212.00,0.001
213.00,0.002
214.00,0.000
215.00,0.001
216.00,0.002
217.00,-0.001
218.00,-0.002
219.00,0.002
220.00,0.001
221.00,0.001
222.00,0.002
223.00,0.001
224.00,0.002
225.00,-0.000
226.00,0.001
227.00,0.001
228.00,0.001
229.00,0.002
230.00,0.002
231.00,-0.000
232.00,0.001
233.00,0.002
234.00,-0.001
235.00,0.001
236.00,0.001
237.00,0.000
238.00,0.000
239.00,-0.001
240.00,-0.000
241.00,0.002
242.00,-0.000
243.00,0.000
244.00,-0.000
245.00,-0.000
246.00,0.001
247.00,0.001
248.00,0.000
249.00,0.000
250.00,-0.000
251.00,0.001
252.00,0.000
253.00,0.001
254.00,-0.000
255.00,0.001
256.00,-0.001
257.00,-0.000
258.00,0.001
259.00,0.000
260.00,-0.000
261.00,0.002
262.00,0.001
263.00,-0.001
264.00,0.001
265.00,0.003
266.00,0.001
267.00,-0.001
268.00,0.000
269.00,-0.001
270.00,-0.000
271.00,0.000
272.00,0.001
273.00,0.002
274.00,0.000
275.00,-0.000
276.00,-0.001
277.00,-0.000
278.00,0.001
279.00,0.001
280.00,0.002
281.00,-0.001
282.00,-0.000
283.00,-0.001
284.00,0.001
285.00,-0.000
286.00,0.000
287.00,0.001
288.00,-0.000
289.00,0.000
290.00,0.002
291.00,-0.001
292.00,0.002
293.00,-0.000
294.00,0.002
295.00,-0.000
296.00,0.000
297.00,-0.001
298.00,0.001
299.00,0.001
300.00,0.002
301.00,0.004
302.00,0.005
303.00,0.005
304.00,0.010
305.00,0.017
306.00,0.027
307.00,0.040
308.00,0.066
309.00,0.103
310.00,0.144
311.00,0.194
312.00,0.271
313.00,0.365
314.00,0.479
315.00,0.628
316.00,0.805
317.00,1.021
318.00,1.243
319.00,1.532
320.00,1.859
321.00,2.236
322.00,2.651
323.00,3.122
324.00,3.621
325.00,4.122
326.00,4.636
327.00,5.246
328.00,5.873
329.00,6.489
330.00,7.156
331.00,7.816
332.00,8.523
333.00,9.229
334.00,9.920
335.00,10.636
336.00,11.333
337.00,12.048
338.00,12.714
339.00,13.322
340.00,14.005
341.00,14.621
342.00,15.230
343.00,15.828
344.00,16.388
345.00,16.902
346.00,17.367
347.00,17.875
348.00,18.317
349.00,18.748
350.00,19.131
351.00,19.528
352.00,19.865
353.00,20.186
354.00,20.502
355.00,20.835
356.00,21.081
357.00,21.340
358.00,21.515
359.00,21.816
360.00,22.013
361.00,22.290
362.00,22.365
363.00,22.560
364.00,22.678
365.00,22.821
366.00,22.907
367.00,23.020
368.00,23.098
369.00,23.209
370.00,23.243
371.00,23.261
372.00,23.261
373.00,23.308
374.00,23.323
375.00,23.290
376.00,23.259
377.00,23.279
378.00,23.196
379.00,23.162
380.00,23.155
381.00,23.124
382.00,23.122
383.00,23.105
384.00,23.186
385.00,23.239
386.00,23.252
387.00,23.309
388.00,23.333
389.00,23.403
390.00,23.456
391.00,23.458
392.00,23.471
393.00,23.496
394.00,23.538
395.00,23.538
396.00,23.525
397.00,23.573
398.00,23.593
399.00,23.588
400.00,23.568
401.00,23.590
402.00,23.591
403.00,23.601
404.00,23.595
405.00,23.586
406.00,23.577
407.00,23.544
408.00,23.556
409.00,23.496
410.00,23.466
411.00,23.434
412.00,23.428
413.00,23.431
414.00,23.424
415.00,23.434
416.00,23.464
417.00,23.462
418.00,23.486
419.00,23.515
420.00,23.507
421.00,23.639
422.00,23.647
423.00,23.684
424.00,23.735
425.00,23.683
426.00,23.706
427.00,23.749
428.00,23.846
429.00,23.863
430.00,23.913
431.00,23.975
432.00,24.000
433.00,24.054
434.00,24.115
435.00,24.163
436.00,24.240
437.00,24.302
438.00,24.348
439.00,24.404
440.00,24.487
441.00,24.507
442.00,24.550
443.00,24.707
444.00,24.807
445.00,24.873
446.00,24.965
447.00,25.039
448.00,25.152
449.00,25.244
450.00,25.361
451.00,25.433
452.00,25.509
453.00,25.630
454.00,25.700
455.00,25.857
456.00,25.955
457.00,26.001
458.00,26.162
459.00,26.263
460.00,26.383
461.00,26.518
462.00,26.610
463.00,26.765
464.00,26.866
465.00,27.003
466.00,27.028
467.00,27.201
468.00,27.287
469.00,27.399
470.00,27.544
471.00,27.626
472.00,27.679
473.00,27.816
474.00,27.927
475.00,28.050
476.00,28.141
477.00,28.302
478.00,28.420
479.00,28.543
480.00,28.687
481.00,28.812
482.00,28.929
483.00,29.050
484.00,29.205
485.00,29.371
486.00,29.427
487.00,29.578
488.00,29.661
489.00,29.970
490.00,30.058
491.00,30.200
492.00,30.392
493.00,30.505
494.00,30.552
495.00,30.685
496.00,30.815
497.00,30.920
498.00,31.064
499.00,31.227
500.00,31.290
501.00,31.401
502.00,31.589
503.00,31.700
504.00,31.803
505.00,31.941
506.00,32.051
507.00,32.154
508.00,32.267
509.00,32.410
510.00,32.493
511.00,32.621
512.00,32.741
513.00,32.851
514.00,32.981
515.00,33.046
516.00,33.251
517.00,33.291
518.00,33.400
519.00,33.489
520.00,33.575
521.00,33.689
522.00,33.756
523.00,33.834
524.00,33.882
525.00,33.983
526.00,34.095
527.00,34.220
528.00,34.239
529.00,34.360
530.00,34.441
531.00,34.610
532.00,34.721
533.00,34.802
534.00,34.910
535.00,34.981
536.00,35.108
537.00,35.190
538.00,35.259
539.00,35.406
540.00,35.442
541.00,35.450
542.00,35.511
543.00,35.616
544.00,35.681
545.00,35.730
546.00,35.804
547.00,35.885
548.00,35.967
549.00,36.034
550.00,36.131
551.00,36.170
552.00,36.286
553.00,36.368
554.00,36.486
555.00,36.560
556.00,36.523
557.00,36.594
558.00,36.663
559.00,36.680
560.00,36.820
561.00,36.842
562.00,36.898
563.00,36.928
564.00,36.969
565.00,37.041
566.00,37.037
567.00,37.065
568.00,37.111
569.00,37.190
570.00,37.201
571.00,37.250
572.00,37.336
573.00,37.354
574.00,37.440
575.00,37.452
576.00,37.492
577.00,37.515
578.00,37.603
579.00,37.727
580.00,37.762
581.00,37.856
582.00,37.911
583.00,37.974
584.00,38.056
585.00,38.122
586.00,38.188
587.00,38.230
588.00,38.251
589.00,38.342
590.00,38.394
591.00,38.465
592.00,38.403
593.00,38.497
594.00,38.510
595.00,38.493
596.00,38.587
597.00,38.657
598.00,38.703
599.00,38.770
600.00,38.860
601.00,38.869
602.00,38.790
603.00,38.837
604.00,39.041
605.00,39.096
606.00,39.164
607.00,39.166
608.00,39.224
609.00,39.256
610.00,39.287
611.00,39.350
612.00,39.312
613.00,39.398
614.00,39.403
615.00,39.456
616.00,39.665
617.00,39.608
618.00,39.698
619.00,39.767
620.00,39.778
621.00,39.792
622.00,39.929
623.00,39.979
624.00,40.005
625.00,40.092
626.00,40.120
627.00,40.129
628.00,40.199
629.00,40.335
630.00,40.337
631.00,40.388
632.00,40.478
633.00,40.559
634.00,40.507
635.00,40.598
636.00,40.722
637.00,40.730
638.00,40.779
639.00,40.879
640.00,40.887
641.00,41.024
642.00,41.109
643.00,41.117
644.00,41.200
645.00,41.249
646.00,41.370
647.00,41.480
648.00,41.519
649.00,41.661
650.00,41.617
651.00,41.736
652.00,41.855
653.00,41.897
654.00,42.011
655.00,42.048
656.00,42.131
657.00,42.241
658.00,42.270
659.00,42.361
660.00,42.410
661.00,42.368
662.00,42.663
663.00,42.673
664.00,42.797
665.00,42.851
666.00,42.858
667.00,42.819
668.00,43.383
669.00,43.314
670.00,43.315
671.00,43.388
672.00,43.428
673.00,43.580
674.00,43.601
675.00,43.765
676.00,43.890
677.00,43.806
678.00,43.880
679.00,43.931
680.00,44.086
681.00,44.153
682.00,44.227
683.00,44.340
684.00,44.396
685.00,44.463
686.00,44.538
687.00,44.595
688.00,44.709
689.00,44.736
690.00,44.804
691.00,44.980
692.00,45.004
693.00,45.083
694.00,45.121
695.00,45.263
696.00,45.293
697.00,45.360
698.00,45.417
699.00,45.645
700.00,45.714
701.00,45.648
702.00,45.828
703.00,45.806
704.00,45.982
705.00,46.011
706.00,46.119
707.00,46.175
708.00,46.003
709.00,46.305
710.00,46.459
711.00,46.375
712.00,46.420
713.00,46.510
714.00,46.435
715.00,46.613
716.00,46.631
717.00,46.654
718.00,46.783
719.00,46.853
720.00,46.892
721.00,50.985
722.00,51.017
723.00,50.957
724.00,50.977
725.00,50.959
726.00,50.944
727.00,50.977
728.00,50.951
729.00,51.045
730.00,51.045
731.00,51.083
732.00,51.140
733.00,51.124
734.00,51.153
735.00,51.196
736.00,51.231
737.00,51.215
738.00,51.195
739.00,51.262
740.00,51.278
741.00,51.382
742.00,51.350
743.00,51.263
744.00,51.350
745.00,51.298
746.00,51.376
747.00,51.334
748.00,51.262
749.00,51.340
750.00,51.325
751.00,51.295
752.00,51.251
753.00,51.290
754.00,51.335
755.00,51.336
756.00,51.336
757.00,51.381
758.00,51.368
759.00,51.334
760.00,51.407
761.00,51.386
762.00,51.301
763.00,51.414
764.00,51.372
765.00,51.389
766.00,51.422
767.00,51.508
768.00,51.429
769.00,51.518
770.00,51.432
771.00,51.460
772.00,51.491
773.00,51.472
774.00,51.442
775.00,51.462
776.00,51.432
777.00,51.521
778.00,51.575
779.00,51.566
780.00,51.495
781.00,51.541
782.00,51.442
783.00,51.472
784.00,51.453
785.00,51.444
786.00,51.475
787.00,51.425
788.00,51.403
789.00,51.403
790.00,51.434
791.00,51.383
792.00,51.334
793.00,51.336
794.00,51.341
795.00,51.259
796.00,51.295
797.00,51.341
798.00,51.318
799.00,51.285
800.00,51.319
801.00,51.281
802.00,51.306
803.00,51.226
804.00,51.178
805.00,51.173
806.00,51.229
807.00,51.226
808.00,51.171
809.00,51.121
810.00,51.204
811.00,51.106
812.00,51.192
813.00,51.115
814.00,51.091
815.00,51.170
816.00,51.140
817.00,51.026
818.00,51.034
819.00,50.953
820.00,51.017
821.00,50.962
822.00,50.988
823.00,50.984
824.00,50.976
825.00,50.902
826.00,50.900
827.00,50.940
828.00,50.958
829.00,50.984
830.00,50.916
831.00,53.369
832.00,53.372
833.00,53.314
834.00,53.353
835.00,53.323
836.00,53.325
837.00,53.291
838.00,53.254
839.00,53.273
840.00,53.205
841.00,53.197
842.00,53.193
843.00,53.167
844.00,53.157
845.00,53.066
846.00,53.078
847.00,53.120
848.00,53.034
849.00,53.012
850.00,52.990
851.00,52.930
852.00,52.943
853.00,53.065
854.00,52.849
855.00,52.806
856.00,52.831
857.00,52.793
858.00,52.681
859.00,52.768
860.00,52.729
861.00,52.726
862.00,52.669
863.00,52.701
864.00,52.677
865.00,52.670
866.00,52.618
867.00,52.615
868.00,52.656
869.00,52.584
870.00,52.550
871.00,52.569
872.00,52.583
873.00,52.508
874.00,52.576
875.00,52.546
876.00,52.523
877.00,52.407
878.00,52.487
879.00,52.484
880.00,52.464
881.00,52.440
882.00,52.450
883.00,52.415
884.00,52.382
885.00,52.351
886.00,52.344
887.00,52.312
888.00,52.288
889.00,52.264
890.00,52.276
891.00,52.255
892.00,52.222
893.00,52.183
894.00,52.198
895.00,52.161
896.00,52.172
897.00,52.141
898.00,52.106
899.00,52.112
900.00,52.094
901.00,52.103
902.00,52.060
903.00,52.260
904.00,52.044
905.00,52.026
906.00,51.995
907.00,51.976
908.00,51.953
909.00,51.927
910.00,51.914
911.00,51.890
912.00,51.915
913.00,51.790
914.00,51.887
915.00,51.802
916.00,51.796
917.00,51.756
918.00,51.734
919.00,51.735
920.00,51.698
921.00,51.667
922.00,51.681
923.00,51.658
924.00,51.624
925.00,51.611
926.00,51.619
927.00,51.573
928.00,51.520
929.00,51.558
930.00,51.524
931.00,51.496
932.00,51.464
933.00,51.482
934.00,51.472
935.00,51.429
936.00,51.409
937.00,51.398
938.00,51.373
939.00,51.381
940.00,51.351
941.00,51.361
942.00,51.292
943.00,51.297
944.00,51.355
945.00,51.252
946.00,51.252
947.00,51.232
948.00,51.197
949.00,51.170
950.00,51.160
951.00,51.139
952.00,51.118
953.00,51.074
954.00,51.061
955.00,51.026
956.00,51.014
957.00,50.981
958.00,51.001
959.00,50.981
960.00,50.934
961.00,50.908
962.00,50.928
963.00,50.879
964.00,50.858
965.00,50.845
966.00,50.847
967.00,50.850
968.00,50.818
969.00,50.840
970.00,50.815
971.00,50.826
972.00,50.786
973.00,50.815
974.00,50.843
975.00,50.811
976.00,50.832
977.00,50.818
978.00,50.842
979.00,50.800
980.00,50.825
981.00,50.829
982.00,50.791
983.00,50.805
984.00,50.805
985.00,50.796
986.00,50.765
987.00,50.780
988.00,50.789
989.00,50.715
990.00,50.741
991.00,50.724
992.00,50.723
993.00,50.691
994.00,50.671
995.00,50.673
996.00,50.667
997.00,50.648
998.00,50.610
999.00,50.644
1000.00,50.602
1001.00,50.599
1002.00,50.586
1003.00,50.579
1004.00,50.576
1005.00,50.558
1006.00,50.561
1007.00,50.532
1008.00,50.515
1009.00,50.503
1010.00,50.494
1011.00,50.485
1012.00,50.433
1013.00,50.454
1014.00,50.416
1015.00,50.428
1016.00,50.396
1017.00,50.385
1018.00,50.370
1019.00,50.337
1020.00,50.329
1021.00,50.325
1022.00,50.308
1023.00,50.268
1024.00,50.285
1025.00,50.263
1026.00,50.253
1027.00,50.229
1028.00,50.211
1029.00,50.215
1030.00,50.165
1031.00,50.172
1032.00,50.145
1033.00,50.137
1034.00,50.102
1035.00,50.079
1036.00,50.063
1037.00,50.036
1038.00,50.029
1039.00,49.981
1040.00,49.988
1041.00,49.953
1042.00,49.944
1043.00,49.940
1044.00,49.964
1045.00,49.948
1046.00,49.948
1047.00,49.961
1048.00,49.969
1049.00,49.974
1050.00,49.979
1051.00,50.000
1052.00,50.015
1053.00,50.024
1054.00,50.016
1055.00,50.028
1056.00,50.043
1057.00,50.053
1058.00,50.030
1059.00,50.019
1060.00,50.026
1061.00,50.021
1062.00,50.006
1063.00,50.002
1064.00,49.974
1065.00,49.977
1066.00,49.968
1067.00,49.954
1068.00,49.968
1069.00,49.936
1070.00,49.914
1071.00,49.911
1072.00,49.918
1073.00,49.897
1074.00,49.895
1075.00,49.874
1076.00,49.876
1077.00,49.857
1078.00,49.842
1079.00,49.838
1080.00,49.840
1081.00,49.818
1082.00,49.821
1083.00,49.804
1084.00,49.795
1085.00,49.787
1086.00,49.791
1087.00,49.795
1088.00,49.767
1089.00,49.751
1090.00,49.755
1091.00,49.747
1092.00,49.740
1093.00,49.716
1094.00,49.699
1095.00,49.697
1096.00,49.700
1097.00,49.666
1098.00,49.666
1099.00,49.650
1100.00,49.641
1101.00,49.643
1102.00,49.620
1103.00,49.612
1104.00,49.606
1105.00,49.579
1106.00,49.585
1107.00,49.574
1108.00,49.563
1109.00,49.567
1110.00,49.569
1111.00,49.554
1112.00,49.548
1113.00,49.531
1114.00,49.530
1115.00,49.535
1116.00,49.510
1117.00,49.495
1118.00,49.496
1119.00,49.481
1120.00,49.489
1121.00,49.475
1122.00,49.459
1123.00,49.459
1124.00,49.452
1125.00,49.441
1126.00,49.442
1127.00,49.430
1128.00,49.424
1129.00,49.403
1130.00,49.394
1131.00,49.386
1132.00,49.361
1133.00,49.414
1134.00,49.381
1135.00,49.362
1136.00,49.352
1137.00,49.341
1138.00,49.339
1139.00,49.350
1140.00,49.335
1141.00,49.314
1142.00,49.327
1143.00,49.345
1144.00,49.304
1145.00,49.306
1146.00,49.306
1147.00,49.299
1148.00,49.296
1149.00,49.300
1150.00,49.304
1151.00,49.299
1152.00,49.278
1153.00,49.290
1154.00,49.275
1155.00,49.276
1156.00,49.272
1157.00,49.268
1158.00,49.262
1159.00,49.266
1160.00,49.253
1161.00,49.260
1162.00,49.245
1163.00,49.236
1164.00,49.246
1165.00,49.227
1166.00,49.231
1167.00,49.240
1168.00,49.241
1169.00,49.226
1170.00,49.228
1171.00,49.205
1172.00,49.233
1173.00,49.222
1174.00,49.197
1175.00,49.206
1176.00,49.213
1177.00,49.202
1178.00,49.207
1179.00,49.214
1180.00,49.201
1181.00,49.218
1182.00,49.212
1183.00,49.201
1184.00,49.186
1185.00,49.203
1186.00,49.199
1187.00,49.195
1188.00,49.190
1189.00,49.183
1190.00,49.180
1191.00,49.176
1192.00,49.182
1193.00,49.171
1194.00,49.190
1195.00,49.156
1196.00,49.169
1197.00,49.174
1198.00,49.165
1199.00,49.155
1200.00,49.173
1201.00,49.173
1202.00,49.146
1203.00,49.157
1204.00,49.136
1205.00,49.151
1206.00,49.146
1207.00,49.137
1208.00,49.134
1209.00,49.134
1210.00,49.146
1211.00,49.149
1212.00,49.156
1213.00,49.130
1214.00,49.146
1215.00,49.137
1216.00,49.146
1217.00,49.160
1218.00,49.127
1219.00,49.148
1220.00,49.132
1221.00,49.126
1222.00,49.125
1223.00,49.147
1224.00,49.142
1225.00,49.137
1226.00,49.135
1227.00,49.125
1228.00,49.145
1229.00,49.147
1230.00,49.189
1231.00,49.171
1232.00,49.178
1233.00,49.186
1234.00,49.181
1235.00,49.176
1236.00,49.167
1237.00,49.159
1238.00,49.162
1239.00,49.171
1240.00,49.158
1241.00,49.174
1242.00,49.177
1243.00,49.203
1244.00,49.193
1245.00,49.199
1246.00,49.206
1247.00,49.213
1248.00,49.196
1249.00,49.201
1250.00,49.200
1251.00,49.182
1252.00,49.207
1253.00,49.203
1254.00,49.217
1255.00,49.220
1256.00,49.200
1257.00,49.187
1258.00,49.236
1259.00,49.207
1260.00,49.233
1261.00,49.231
1262.00,49.224
1263.00,49.231
1264.00,49.231
1265.00,49.229
1266.00,49.234
1267.00,49.234
1268.00,49.259
1269.00,49.247
1270.00,49.252
1271.00,49.257
1272.00,49.262
1273.00,49.261
1274.00,49.272
1275.00,49.270
1276.00,49.271
1277.00,49.282
1278.00,49.298
1279.00,49.307
1280.00,49.289
1281.00,49.286
1282.00,49.305
1283.00,49.284
1284.00,49.285
1285.00,49.274
1286.00,49.299
1287.00,49.271
1288.00,49.308
1289.00,49.299
1290.00,49.313
1291.00,49.313
1292.00,49.307
1293.00,49.319
1294.00,49.357
1295.00,49.350
1296.00,49.347
1297.00,49.351
1298.00,49.362
1299.00,49.361
1300.00,49.362
1301.00,49.366
1302.00,49.366
1303.00,49.398
1304.00,49.379
1305.00,49.388
1306.00,49.382
1307.00,49.404
1308.00,49.386
1309.00,49.362
1310.00,49.454
1311.00,49.399
1312.00,49.400
1313.00,49.409
1314.00,49.415
1315.00,49.425
1316.00,49.419
1317.00,49.419
1318.00,49.429
1319.00,49.436
1320.00,49.452
1321.00,49.624
1322.00,49.636
1323.00,49.631
1324.00,49.637
1325.00,49.616
1326.00,49.660
1327.00,49.638
1328.00,49.632
1329.00,49.630
1330.00,49.627
1331.00,49.620
1332.00,49.614
1333.00,49.623
1334.00,49.665
1335.00,49.682
1336.00,49.698
1337.00,49.736
1338.00,49.821
1339.00,49.840
1340.00,49.896
1341.00,49.956
1342.00,50.032
1343.00,50.080
1344.00,50.112
1345.00,50.171
1346.00,50.219
1347.00,50.234
1348.00,50.256
1349.00,50.289
1350.00,50.289
1351.00,50.317
1352.00,50.326
1353.00,50.336
1354.00,50.333
1355.00,50.288
1356.00,50.322
1357.00,50.335
1358.00,50.331
1359.00,50.351
1360.00,50.370
1361.00,50.376
1362.00,50.332
1363.00,50.415
1364.00,50.328
1365.00,50.328
1366.00,50.335
1367.00,50.286
1368.00,50.329
1369.00,50.185
1370.00,50.307
1371.00,50.301
1372.00,50.321
1373.00,50.306
1374.00,50.324
1375.00,50.292
1376.00,50.303
1377.00,50.298
1378.00,50.351
1379.00,50.320
1380.00,50.331
1381.00,50.309
1382.00,50.213
1383.00,50.289
1384.00,50.252
1385.00,50.252
1386.00,50.307
1387.00,50.272
1388.00,50.228
1389.00,50.216
1390.00,50.326
1391.00,50.274
1392.00,50.260
1393.00,50.281
1394.00,50.260
1395.00,50.215
1396.00,50.217
1397.00,50.226
1398.00,50.312
1399.00,50.245
1400.00,50.471
1401.00,50.281
1402.00,50.322
1403.00,50.271
1404.00,50.283
1405.00,50.312
1406.00,50.309
1407.00,50.332
1408.00,50.294
1409.00,50.283
1410.00,50.338
1411.00,50.337
1412.00,50.343
1413.00,50.305
1414.00,50.354
1415.00,50.344
1416.00,50.391
1417.00,50.393
1418.00,50.396
1419.00,50.390
1420.00,50.409
1421.00,50.434
1422.00,50.437
1423.00,50.448
1424.00,50.467
1425.00,50.471
1426.00,50.480
1427.00,50.506
1428.00,50.516
1429.00,50.553
1430.00,50.544
1431.00,50.541
1432.00,50.555
1433.00,50.588
1434.00,50.586
1435.00,50.615
1436.00,50.617
1437.00,50.624
1438.00,50.641
1439.00,50.678
1440.00,50.673
1441.00,50.683
1442.00,50.694
1443.00,50.731
1444.00,50.730
1445.00,50.723
1446.00,50.749
1447.00,50.771
1448.00,50.797
1449.00,50.810
1450.00,50.787
1451.00,50.816
1452.00,50.823
1453.00,50.859
1454.00,50.847
1455.00,50.863
1456.00,50.899
1457.00,50.904
1458.00,50.920
1459.00,50.932
1460.00,50.934
1461.00,50.955
1462.00,50.972
1463.00,50.996
1464.00,50.998
1465.00,51.004
1466.00,51.020
1467.00,51.048
1468.00,51.082
1469.00,51.069
1470.00,51.082
1471.00,51.101
1472.00,51.118
1473.00,51.122
1474.00,51.142
1475.00,51.145
1476.00,51.160
1477.00,51.153
1478.00,51.184
1479.00,51.200
1480.00,51.197
1481.00,51.218
1482.00,51.248
1483.00,51.246
1484.00,51.248
1485.00,51.263
1486.00,51.277
1487.00,51.287
1488.00,51.306
1489.00,51.311
1490.00,51.343
1491.00,51.341
1492.00,51.342
1493.00,51.344
1494.00,51.347
1495.00,51.374
1496.00,51.361
1497.00,51.365
1498.00,51.381
1499.00,51.386
1500.00,51.430
1501.00, 
1502.00, 
1503.00, 
1504.00, 
1505.00, 
1506.00, 
1507.00, 
1508.00, 
1509.00, 
1510.00, 
1511.00, 
1512.00, 
1513.00, 
1514.00, 
1515.00, 
1516.00, 
1517.00, 
1518.00, 
1519.00, 
1520.00, 
1521.00, 
1522.00, 
1523.00, 
1524.00, 
1525.00, 
1526.00, 
1527.00, 
1528.00, 
1529.00, 
1530.00, 
1531.00, 
1532.00, 
1533.00, 
1534.00, 
1535.00, 
1536.00, 
1537.00, 
1538.00, 
1539.00, 
1540.00, 
1541.00, 
1542.00, 
1543.00, 
1544.00, 
1545.00, 
1546.00, 
1547.00, 
1548.00, 
1549.00, 
1550.00, 
1551.00, 
1552.00, 
1553.00, 
1554.00, 
1555.00, 
1556.00, 
1557.00, 
1558.00, 
1559.00, 
1560.00, 
1561.00, 
1562.00, 
1563.00, 
1564.00, 
1565.00, 
1566.00, 
1567.00, 
1568.00, 
1569.00, 
1570.00, 
1571.00, 
1572.00, 
1573.00, 
1574.00, 
1575.00, 
1576.00, 
1577.00, 
1578.00, 
1579.00, 
1580.00, 
1581.00, 
1582.00, 
1583.00, 
1584.00, 
1585.00, 
1586.00, 
1587.00, 
1588.00, 
1589.00, 
1590.00, 
1591.00, 
1592.00, 
1593.00, 
1594.00, 
1595.00, 
1596.00, 
1597.00, 
1598.00, 
1599.00, 
1600.00, 
1601.00, 
1602.00, 
1603.00, 
1604.00, 
1605.00, 
1606.00, 
1607.00, 
1608.00, 
1609.00, 
1610.00, 
1611.00, 
1612.00, 
1613.00, 
1614.00, 
1615.00, 
1616.00, 
1617.00, 
1618.00, 
1619.00, 
1620.00, 
1621.00, 
1622.00, 
1623.00, 
1624.00, 
1625.00, 
1626.00, 
1627.00, 
1628.00, 
1629.00, 
1630.00, 
1631.00, 
1632.00, 
1633.00, 
1634.00, 
1635.00, 
1636.00, 
1637.00, 
1638.00, 
1639.00, 
1640.00, 
1641.00, 
1642.00, 
1643.00, 
1644.00, 
1645.00, 
1646.00, 
1647.00, 
1648.00, 
1649.00, 
1650.00, 
1651.00, 
1652.00, 
1653.00, 
1654.00, 
1655.00, 
1656.00, 
1657.00, 
1658.00, 
1659.00, 
1660.00, 
1661.00, 
1662.00, 
1663.00, 
1664.00, 
1665.00, 
1666.00, 
1667.00, 
1668.00, 
1669.00, 
1670.00, 
1671.00, 
1672.00, 
1673.00, 
1674.00, 
1675.00, 
1676.00, 
1677.00, 
1678.00, 
1679.00, 
1680.00, 
1681.00, 
1682.00, 
1683.00, 
1684.00, 
1685.00, 
1686.00, 
1687.00, 
1688.00, 
1689.00, 
1690.00, 
1691.00, 
1692.00, 
1693.00, 
1694.00, 
1695.00, 
1696.00, 
1697.00, 
1698.00, 
1699.00, 
1700.00, 
1701.00, 
1702.00, 
1703.00, 
1704.00, 
1705.00, 
1706.00, 
1707.00, 
1708.00, 
1709.00, 
1710.00, 
1711.00, 
1712.00, 
1713.00, 
1714.00, 
1715.00, 
1716.00, 
1717.00, 
1718.00, 
1719.00, 
1720.00, 
1721.00, 
1722.00, 
1723.00, 
1724.00, 
1725.00, 
1726.00, 
1727.00, 
1728.00, 
1729.00, 
1730.00, 
1731.00, 
1732.00, 
1733.00, 
1734.00, 
1735.00, 
1736.00, 
1737.00, 
1738.00, 
1739.00, 
1740.00, 
1741.00, 
1742.00, 
1743.00, 
1744.00, 
1745.00, 
1746.00, 
1747.00, 
1748.00, 
1749.00, 
1750.00, 
1751.00, 
1752.00, 
1753.00, 
1754.00, 
1755.00, 
1756.00, 
1757.00, 
1758.00, 
1759.00, 
1760.00, 
1761.00, 
1762.00, 
1763.00, 
1764.00, 
1765.00, 
1766.00, 
1767.00, 
1768.00, 
1769.00, 
1770.00, 
1771.00, 
1772.00, 
1773.00, 
1774.00, 
1775.00, 
1776.00, 
1777.00, 
1778.00, 
1779.00, 
1780.00, 
1781.00, 
1782.00, 
1783.00, 
1784.00, 
1785.00, 
1786.00, 
1787.00, 
1788.00, 
1789.00, 
1790.00, 
1791.00, 
1792.00, 
1793.00, 
1794.00, 
1795.00, 
1796.00, 
1797.00, 
1798.00, 
1799.00, 
1800.00, 
1801.00, 
1802.00, 
1803.00, 
1804.00, 
1805.00, 
1806.00, 
1807.00, 
1808.00, 
1809.00, 
1810.00, 
1811.00, 
1812.00, 
1813.00, 
1814.00, 
1815.00, 
1816.00, 
1817.00, 
1818.00, 
1819.00, 
1820.00, 
1821.00, 
1822.00, 
1823.00, 
1824.00, 
1825.00, 
1826.00, 
1827.00, 
1828.00, 
1829.00, 
1830.00, 
1831.00, 
1832.00, 
1833.00, 
1834.00, 
1835.00, 
1836.00, 
1837.00, 
1838.00, 
1839.00, 
1840.00, 
1841.00, 
1842.00, 
1843.00, 
1844.00, 
1845.00, 
1846.00, 
1847.00, 
1848.00, 
1849.00, 
1850.00, 
1851.00, 
1852.00, 
1853.00, 
1854.00, 
1855.00, 
1856.00, 
1857.00, 
1858.00, 
1859.00, 
1860.00, 
1861.00, 
1862.00, 
1863.00, 
1864.00, 
1865.00, 
1866.00, 
1867.00, 
1868.00, 
1869.00, 
1870.00, 
1871.00, 
1872.00, 
1873.00, 
1874.00, 
1875.00, 
1876.00, 
1877.00, 
1878.00, 
1879.00, 
1880.00, 
1881.00, 
1882.00, 
1883.00, 
1884.00, 
1885.00, 
1886.00, 
1887.00, 
1888.00, 
1889.00, 
1890.00, 
1891.00, 
1892.00, 
1893.00, 
1894.00, 
1895.00, 
1896.00, 
1897.00, 
1898.00, 
1899.00, 
1900.00, 
1901.00, 
1902.00, 
1903.00, 
1904.00, 
1905.00, 
1906.00, 
1907.00, 
1908.00, 
1909.00, 
1910.00, 
1911.00, 
1912.00, 
1913.00, 
1914.00, 
1915.00, 
1916.00, 
1917.00, 
1918.00, 
1919.00, 
1920.00, 
1921.00, 
1922.00, 
1923.00, 
1924.00, 
1925.00, 
1926.00, 
1927.00, 
1928.00, 
1929.00, 
1930.00, 
1931.00, 
1932.00, 
1933.00, 
1934.00, 
1935.00, 
1936.00, 
1937.00, 
1938.00, 
1939.00, 
1940.00, 
1941.00, 
1942.00, 
1943.00, 
1944.00, 
1945.00, 
1946.00, 
1947.00, 
1948.00, 
1949.00, 
1950.00, 
1951.00, 
1952.00, 
1953.00, 
1954.00, 
1955.00, 
1956.00, 
1957.00, 
1958.00, 
1959.00, 
1960.00, 
1961.00, 
1962.00, 
1963.00, 
1964.00, 
1965.00, 
1966.00, 
1967.00, 
1968.00, 
1969.00, 
1970.00, 
1971.00, 
1972.00, 
1973.00, 
1974.00, 
1975.00, 
1976.00, 
1977.00, 
1978.00, 
1979.00, 
1980.00, 
1981.00, 
1982.00, 
1983.00, 
1984.00, 
1985.00, 
1986.00, 
1987.00, 
1988.00, 
1989.00, 
1990.00, 
1991.00, 
1992.00, 
1993.00, 
1994.00, 
1995.00, 
1996.00, 
1997.00, 
1998.00, 
1999.00, 
2000.00, 
2001.00, 
2002.00, 
2003.00, 
2004.00, 
2005.00, 
2006.00, 
2007.00, 
2008.00, 
2009.00, 
2010.00, 
2011.00, 
2012.00, 
2013.00, 
2014.00, 
2015.00, 
2016.00, 
2017.00, 
2018.00, 
2019.00, 
2020.00, 
2021.00, 
2022.00, 
2023.00, 
2024.00, 
2025.00, 
2026.00, 
2027.00, 
2028.00, 
2029.00, 
2030.00, 
2031.00, 
2032.00, 
2033.00, 
2034.00, 
2035.00, 
2036.00, 
2037.00, 
2038.00, 
2039.00, 
2040.00, 
2041.00, 
2042.00, 
2043.00, 
2044.00, 
2045.00, 
2046.00, 
2047.00, 
2048.00, 
2049.00, 
2050.00, 
2051.00, 
2052.00, 
2053.00, 
2054.00, 
2055.00, 
2056.00, 
2057.00, 
2058.00, 
2059.00, 
2060.00, 
2061.00, 
2062.00, 
2063.00, 
2064.00, 
2065.00, 
2066.00, 
2067.00, 
2068.00, 
2069.00, 
2070.00, 
2071.00, 
2072.00, 
2073.00, 
2074.00, 
2075.00, 
2076.00, 
2077.00, 
2078.00, 
2079.00, 
2080.00, 
2081.00, 
2082.00, 
2083.00, 
2084.00, 
2085.00, 
2086.00, 
2087.00, 
2088.00, 
2089.00, 
2090.00, 
2091.00, 
2092.00, 
2093.00, 
2094.00, 
2095.00, 
2096.00, 
2097.00, 
2098.00, 
2099.00, 
2100.00, 
2101.00, 
2102.00, 
2103.00, 
2104.00, 
2105.00, 
2106.00, 
2107.00, 
2108.00, 
2109.00, 
2110.00, 
2111.00, 
2112.00, 
2113.00, 
2114.00, 
2115.00, 
2116.00, 
2117.00, 
2118.00, 
2119.00, 
2120.00, 
2121.00, 
2122.00, 
2123.00, 
2124.00, 
2125.00, 
2126.00, 
2127.00, 
2128.00, 
2129.00, 
2130.00, 
2131.00, 
2132.00, 
2133.00, 
2134.00, 
2135.00, 
2136.00, 
2137.00, 
2138.00, 
2139.00, 
2140.00, 
2141.00, 
2142.00, 
2143.00, 
2144.00, 
2145.00, 
2146.00, 
2147.00, 
2148.00, 
2149.00, 
2150.00, 
2151.00, 
2152.00, 
2153.00, 
2154.00, 
2155.00, 
2156.00, 
2157.00, 
2158.00, 
2159.00, 
2160.00, 
2161.00, 
2162.00, 
2163.00, 
2164.00, 
2165.00, 
2166.00, 
2167.00, 
2168.00, 
2169.00, 
2170.00, 
2171.00, 
2172.00, 
2173.00, 
2174.00, 
2175.00, 
2176.00, 
2177.00, 
2178.00, 
2179.00, 
2180.00, 
2181.00, 
2182.00, 
2183.00, 
2184.00, 
2185.00, 
2186.00, 
2187.00, 
2188.00, 
2189.00, 
2190.00, 
2191.00, 
2192.00, 
2193.00, 
2194.00, 
2195.00, 
2196.00, 
2197.00, 
2198.00, 
2199.00, 
2200.00, 
2201.00, 
2202.00, 
2203.00, 
2204.00, 
2205.00, 
2206.00, 
2207.00, 
2208.00, 
2209.00, 
2210.00, 
2211.00, 
2212.00, 
2213.00, 
2214.00, 
2215.00, 
2216.00, 
2217.00, 
2218.00, 
2219.00, 
2220.00, 
2221.00, 
2222.00, 
2223.00, 
2224.00, 
2225.00, 
2226.00, 
2227.00, 
2228.00, 
2229.00, 
2230.00, 
2231.00, 
2232.00, 
2233.00, 
2234.00, 
2235.00, 
2236.00, 
2237.00, 
2238.00, 
2239.00, 
2240.00, 
2241.00, 
2242.00, 
2243.00, 
2244.00, 
2245.00, 
2246.00, 
2247.00, 
2248.00, 
2249.00, 
2250.00, 
2251.00, 
2252.00, 
2253.00, 
2254.00, 
2255.00, 
2256.00, 
2257.00, 
2258.00, 
2259.00, 
2260.00, 
2261.00, 
2262.00, 
2263.00, 
2264.00, 
2265.00, 
2266.00, 
2267.00, 
2268.00, 
2269.00, 
2270.00, 
2271.00, 
2272.00, 
2273.00, 
2274.00, 
2275.00, 
2276.00, 
2277.00, 
2278.00, 
2279.00, 
2280.00, 
2281.00, 
2282.00, 
2283.00, 
2284.00, 
2285.00, 
2286.00, 
2287.00, 
2288.00, 
2289.00, 
2290.00, 
2291.00, 
2292.00, 
2293.00, 
2294.00, 
2295.00, 
2296.00, 
2297.00, 
2298.00, 
2299.00, 
2300.00, 
2301.00, 
2302.00, 
2303.00, 
2304.00, 
2305.00, 
2306.00, 
2307.00, 
2308.00, 
2309.00, 
2310.00, 
2311.00, 
2312.00, 
2313.00, 
2314.00, 
2315.00, 
2316.00, 
2317.00, 
2318.00, 
2319.00, 
2320.00, 
2321.00, 
2322.00, 
2323.00, 
2324.00, 
2325.00, 
2326.00, 
2327.00, 
2328.00, 
2329.00, 
2330.00, 
2331.00, 
2332.00, 
2333.00, 
2334.00, 
2335.00, 
2336.00, 
2337.00, 
2338.00, 
2339.00, 
2340.00, 
2341.00, 
2342.00, 
2343.00, 
2344.00, 
2345.00, 
2346.00, 
2347.00, 
2348.00, 
2349.00, 
2350.00, 
2351.00, 
2352.00, 
2353.00, 
2354.00, 
2355.00, 
2356.00, 
2357.00, 
2358.00, 
2359.00, 
2360.00, 
2361.00, 
2362.00, 
2363.00, 
2364.00, 
2365.00, 
2366.00, 
2367.00, 
2368.00, 
2369.00, 
2370.00, 
2371.00, 
2372.00, 
2373.00, 
2374.00, 
2375.00, 
2376.00, 
2377.00, 
2378.00, 
2379.00, 
2380.00, 
2381.00, 
2382.00, 
2383.00, 
2384.00, 
2385.00, 
2386.00, 
2387.00, 
2388.00, 
2389.00, 
2390.00, 
2391.00, 
2392.00, 
2393.00, 
2394.00, 
2395.00, 
2396.00, 
2397.00, 
2398.00, 
2399.00, 
2400.00, 
2401.00, 
2402.00, 
2403.00, 
2404.00, 
2405.00, 
2406.00, 
2407.00, 
2408.00, 
2409.00, 
2410.00, 
2411.00, 
2412.00, 
2413.00, 
2414.00, 
2415.00, 
2416.00, 
2417.00, 
2418.00, 
2419.00, 
2420.00, 
2421.00, 
2422.00, 
2423.00, 
2424.00, 
2425.00, 
2426.00, 
2427.00, 
2428.00, 
2429.00, 
2430.00, 
2431.00, 
2432.00, 
2433.00, 
2434.00, 
2435.00, 
2436.00, 
2437.00, 
2438.00, 
2439.00, 
2440.00, 
2441.00, 
2442.00, 
2443.00, 
2444.00, 
2445.00, 
2446.00, 
2447.00, 
2448.00, 
2449.00, 
2450.00, 
2451.00, 
2452.00, 
2453.00, 
2454.00, 
2455.00, 
2456.00, 
2457.00, 
2458.00, 
2459.00, 
2460.00, 
2461.00, 
2462.00, 
2463.00, 
2464.00, 
2465.00, 
2466.00, 
2467.00, 
2468.00, 
2469.00, 
2470.00, 
2471.00, 
2472.00, 
2473.00, 
2474.00, 
2475.00, 
2476.00, 
2477.00, 
2478.00, 
2479.00, 
2480.00, 
2481.00, 
2482.00, 
2483.00, 
2484.00, 
2485.00, 
2486.00, 
2487.00, 
2488.00, 
2489.00, 
2490.00, 
2491.00, 
2492.00, 
2493.00, 
2494.00, 
2495.00, 
2496.00, 
2497.00, 
2498.00, 
2499.00, 
2500.00, 
2501.00, 
2502.00, 
2503.00, 
2504.00, 
2505.00, 
2506.00, 
2507.00, 
2508.00, 
2509.00, 
2510.00, 
2511.00, 
2512.00, 
2513.00, 
2514.00, 
2515.00, 
2516.00, 
2517.00, 
2518.00, 
2519.00, 
2520.00, 
2521.00, 
2522.00, 
2523.00, 
2524.00, 
2525.00, 
2526.00, 
2527.00, 
2528.00, 
2529.00, 
2530.00, 
2531.00, 
2532.00, 
2533.00, 
2534.00, 
2535.00, 
2536.00, 
2537.00, 
2538.00, 
2539.00, 
2540.00, 
2541.00, 
2542.00, 
2543.00, 
2544.00, 
2545.00, 
2546.00, 
2547.00, 
2548.00, 
2549.00, 
2550.00, 
2551.00, 
2552.00, 
2553.00, 
2554.00, 
2555.00, 
2556.00, 
2557.00, 
2558.00, 
2559.00, 
2560.00, 
2561.00, 
2562.00, 
2563.00, 
2564.00, 
2565.00, 
2566.00, 
2567.00, 
2568.00, 
2569.00, 
2570.00, 
2571.00, 
2572.00, 
2573.00, 
2574.00, 
2575.00, 
2576.00, 
2577.00, 
2578.00, 
2579.00, 
2580.00, 
2581.00, 
2582.00, 
2583.00, 
2584.00, 
2585.00, 
2586.00, 
2587.00, 
2588.00, 
2589.00, 
2590.00, 
2591.00, 
2592.00, 
2593.00, 
2594.00, 
2595.00, 
2596.00, 
2597.00, 
2598.00, 
2599.00, 
2600.00, 
