"2cP3 - RawData"
"Wavelength nm.","T%"
200.00,0.002
201.00,0.003
202.00,0.001
203.00,0.003
204.00,0.001
205.00,0.002
206.00,0.002
207.00,0.001
208.00,0.001
209.00,-0.002
210.00,0.002
211.00,-0.001
212.00,0.002
213.00,0.001
214.00,0.000
215.00,0.002
216.00,-0.000
217.00,0.004
218.00,0.001
219.00,0.002
220.00,0.001
221.00,0.002
222.00,0.001
223.00,0.001
224.00,0.001
225.00,-0.002
226.00,-0.000
227.00,-0.000
228.00,-0.001
229.00,-0.000
230.00,-0.000
231.00,0.001
232.00,0.000
233.00,0.001
234.00,-0.001
235.00,0.001
236.00,0.002
237.00,0.001
238.00,-0.001
239.00,0.001
240.00,-0.000
241.00,0.002
242.00,-0.000
243.00,0.001
244.00,-0.000
245.00,-0.001
246.00,0.001
247.00,0.001
248.00,0.001
249.00,-0.001
250.00,-0.000
251.00,-0.001
252.00,0.000
253.00,0.001
254.00,0.001
255.00,-0.002
256.00,0.001
257.00,0.000
258.00,0.000
259.00,-0.000
260.00,0.002
261.00,-0.001
262.00,0.001
263.00,-0.001
264.00,0.002
265.00,-0.001
266.00,0.002
267.00,0.001
268.00,-0.000
269.00,-0.001
270.00,0.001
271.00,-0.001
272.00,0.001
273.00,-0.001
274.00,0.000
275.00,-0.001
276.00,0.001
277.00,0.002
278.00,0.000
279.00,0.000
280.00,-0.000
281.00,-0.001
282.00,0.000
283.00,0.000
284.00,-0.002
285.00,0.001
286.00,-0.000
287.00,0.000
288.00,-0.000
289.00,0.002
290.00,0.000
291.00,0.001
292.00,0.000
293.00,-0.002
294.00,-0.000
295.00,0.000
296.00,0.002
297.00,-0.000
298.00,0.001
299.00,0.002
300.00,0.002
301.00,0.003
302.00,0.005
303.00,0.009
304.00,0.015
305.00,0.022
306.00,0.033
307.00,0.047
308.00,0.075
309.00,0.114
310.00,0.165
311.00,0.223
312.00,0.308
313.00,0.412
314.00,0.553
315.00,0.713
316.00,0.899
317.00,1.162
318.00,1.417
319.00,1.758
320.00,2.154
321.00,2.570
322.00,3.046
323.00,3.595
324.00,4.137
325.00,4.739
326.00,5.355
327.00,6.047
328.00,6.765
329.00,7.495
330.00,8.281
331.00,9.012
332.00,9.830
333.00,10.673
334.00,11.425
335.00,12.279
336.00,13.049
337.00,13.907
338.00,14.681
339.00,15.424
340.00,16.193
341.00,16.947
342.00,17.604
343.00,18.356
344.00,19.025
345.00,19.608
346.00,20.164
347.00,20.636
348.00,21.309
349.00,21.831
350.00,22.258
351.00,22.704
352.00,23.180
353.00,23.506
354.00,23.958
355.00,24.278
356.00,24.618
357.00,24.973
358.00,25.276
359.00,25.559
360.00,25.792
361.00,26.084
362.00,26.242
363.00,26.413
364.00,26.647
365.00,26.802
366.00,26.966
367.00,27.125
368.00,27.211
369.00,27.328
370.00,27.393
371.00,27.458
372.00,27.522
373.00,27.548
374.00,27.535
375.00,27.556
376.00,27.513
377.00,27.515
378.00,27.450
379.00,27.430
380.00,27.438
381.00,27.481
382.00,27.460
383.00,27.497
384.00,27.544
385.00,27.588
386.00,27.651
387.00,27.758
388.00,27.798
389.00,27.870
390.00,27.875
391.00,27.958
392.00,28.017
393.00,28.041
394.00,28.107
395.00,28.108
396.00,28.128
397.00,28.147
398.00,28.265
399.00,28.198
400.00,28.145
401.00,28.191
402.00,28.145
403.00,28.230
404.00,28.230
405.00,28.201
406.00,28.198
407.00,28.186
408.00,28.154
409.00,28.123
410.00,28.112
411.00,28.079
412.00,28.067
413.00,28.053
414.00,28.060
415.00,28.073
416.00,28.114
417.00,28.138
418.00,28.148
419.00,28.216
420.00,28.198
421.00,28.328
422.00,28.313
423.00,28.373
424.00,28.443
425.00,28.350
426.00,28.407
427.00,28.477
428.00,28.488
429.00,28.524
430.00,28.553
431.00,28.499
432.00,28.603
433.00,28.707
434.00,28.758
435.00,28.805
436.00,28.857
437.00,28.940
438.00,29.027
439.00,29.061
440.00,29.139
441.00,29.193
442.00,29.249
443.00,29.327
444.00,29.398
445.00,29.456
446.00,29.558
447.00,29.637
448.00,29.752
449.00,29.828
450.00,29.912
451.00,30.040
452.00,30.099
453.00,30.202
454.00,30.279
455.00,30.418
456.00,30.497
457.00,30.598
458.00,30.671
459.00,30.787
460.00,30.886
461.00,30.992
462.00,31.102
463.00,31.232
464.00,31.322
465.00,31.454
466.00,31.532
467.00,31.663
468.00,31.743
469.00,31.843
470.00,31.913
471.00,32.015
472.00,32.109
473.00,32.180
474.00,32.274
475.00,32.398
476.00,32.463
477.00,32.603
478.00,32.700
479.00,32.818
480.00,32.946
481.00,33.062
482.00,33.204
483.00,33.272
484.00,33.465
485.00,33.608
486.00,33.705
487.00,33.863
488.00,33.942
489.00,34.134
490.00,34.258
491.00,34.379
492.00,34.589
493.00,34.665
494.00,34.663
495.00,34.836
496.00,34.900
497.00,34.981
498.00,35.121
499.00,35.256
500.00,35.312
501.00,35.424
502.00,35.536
503.00,35.552
504.00,35.803
505.00,35.915
506.00,36.038
507.00,36.110
508.00,36.190
509.00,36.327
510.00,36.410
511.00,36.514
512.00,36.594
513.00,36.749
514.00,36.839
515.00,36.952
516.00,37.106
517.00,37.181
518.00,37.287
519.00,37.367
520.00,37.434
521.00,37.526
522.00,37.581
523.00,37.649
524.00,37.719
525.00,37.857
526.00,37.938
527.00,38.030
528.00,38.098
529.00,38.213
530.00,38.298
531.00,38.408
532.00,38.528
533.00,38.598
534.00,38.665
535.00,38.750
536.00,38.848
537.00,38.947
538.00,39.015
539.00,39.122
540.00,39.192
541.00,39.157
542.00,39.257
543.00,39.291
544.00,39.416
545.00,39.441
546.00,39.455
547.00,39.621
548.00,39.644
549.00,39.756
550.00,39.876
551.00,39.871
552.00,39.993
553.00,40.018
554.00,40.226
555.00,40.276
556.00,40.202
557.00,40.303
558.00,40.376
559.00,40.369
560.00,40.513
561.00,40.499
562.00,40.596
563.00,40.617
564.00,40.731
565.00,40.762
566.00,40.741
567.00,40.723
568.00,40.815
569.00,40.869
570.00,40.877
571.00,40.972
572.00,40.994
573.00,41.040
574.00,41.071
575.00,41.144
576.00,41.150
577.00,41.213
578.00,41.266
579.00,41.367
580.00,41.427
581.00,41.511
582.00,41.610
583.00,41.596
584.00,41.788
585.00,41.834
586.00,41.780
587.00,41.891
588.00,41.940
589.00,41.956
590.00,42.005
591.00,42.028
592.00,41.974
593.00,42.122
594.00,42.119
595.00,42.074
596.00,42.223
597.00,42.257
598.00,42.390
599.00,42.454
600.00,42.495
601.00,42.515
602.00,42.542
603.00,42.632
604.00,42.674
605.00,42.678
606.00,42.749
607.00,42.756
608.00,42.903
609.00,42.854
610.00,42.816
611.00,42.909
612.00,42.903
613.00,42.984
614.00,43.003
615.00,43.034
616.00,43.140
617.00,43.142
618.00,43.198
619.00,43.257
620.00,43.329
621.00,43.294
622.00,43.412
623.00,43.463
624.00,43.498
625.00,43.529
626.00,43.573
627.00,43.590
628.00,43.639
629.00,43.732
630.00,43.734
631.00,43.786
632.00,43.774
633.00,43.904
634.00,43.894
635.00,44.043
636.00,44.091
637.00,44.249
638.00,44.293
639.00,44.362
640.00,44.317
641.00,44.340
642.00,44.436
643.00,44.452
644.00,44.562
645.00,44.614
646.00,44.659
647.00,44.755
648.00,44.747
649.00,44.760
650.00,44.876
651.00,44.944
652.00,44.967
653.00,45.072
654.00,45.133
655.00,45.196
656.00,45.221
657.00,45.285
658.00,45.421
659.00,45.429
660.00,45.560
661.00,45.566
662.00,45.752
663.00,45.697
664.00,45.859
665.00,45.888
666.00,45.803
667.00,45.995
668.00,46.035
669.00,46.209
670.00,46.254
671.00,46.231
672.00,46.248
673.00,46.410
674.00,46.312
675.00,46.506
676.00,46.733
677.00,46.543
678.00,46.427
679.00,46.820
680.00,46.743
681.00,46.780
682.00,46.817
683.00,46.935
684.00,47.062
685.00,47.027
686.00,47.077
687.00,47.175
688.00,47.290
689.00,47.286
690.00,47.344
691.00,47.478
692.00,47.378
693.00,47.456
694.00,47.548
695.00,47.580
696.00,47.585
697.00,47.631
698.00,47.711
699.00,47.958
700.00,47.961
701.00,47.876
702.00,48.027
703.00,48.027
704.00,48.117
705.00,48.126
706.00,48.285
707.00,48.341
708.00,48.177
709.00,48.368
710.00,48.557
711.00,48.343
712.00,48.428
713.00,48.468
714.00,48.517
715.00,48.532
716.00,48.594
717.00,48.684
718.00,48.662
719.00,48.614
720.00,48.773
721.00,52.981
722.00,52.954
723.00,52.930
724.00,52.994
725.00,52.913
726.00,52.897
727.00,52.869
728.00,52.885
729.00,52.940
730.00,52.840
731.00,52.980
732.00,52.953
733.00,52.977
734.00,52.968
735.00,53.001
736.00,52.969
737.00,52.936
738.00,52.911
739.00,52.944
740.00,52.973
741.00,52.967
742.00,52.937
743.00,52.945
744.00,52.973
745.00,52.885
746.00,52.928
747.00,52.974
748.00,52.820
749.00,52.846
750.00,52.901
751.00,52.870
752.00,52.823
753.00,52.821
754.00,52.869
755.00,52.793
756.00,52.769
757.00,52.784
758.00,52.818
759.00,52.823
760.00,52.830
761.00,52.737
762.00,52.713
763.00,52.829
764.00,52.819
765.00,52.780
766.00,52.789
767.00,52.782
768.00,52.744
769.00,52.773
770.00,52.823
771.00,52.769
772.00,52.794
773.00,52.734
774.00,52.767
775.00,52.764
776.00,52.663
777.00,52.782
778.00,52.761
779.00,52.832
780.00,52.703
781.00,52.704
782.00,52.711
783.00,52.766
784.00,52.635
785.00,52.734
786.00,52.674
787.00,52.678
788.00,52.587
789.00,52.567
790.00,52.611
791.00,52.538
792.00,52.546
793.00,52.492
794.00,52.470
795.00,52.477
796.00,52.445
797.00,52.422
798.00,52.454
799.00,52.429
800.00,52.337
801.00,52.396
802.00,52.320
803.00,52.284
804.00,52.379
805.00,52.284
806.00,52.283
807.00,52.280
808.00,52.292
809.00,52.215
810.00,52.179
811.00,52.169
812.00,52.174
813.00,52.106
814.00,52.141
815.00,52.160
816.00,52.152
817.00,52.027
818.00,52.093
819.00,52.015
820.00,52.125
821.00,51.909
822.00,51.991
823.00,51.987
824.00,51.949
825.00,51.866
826.00,51.868
827.00,51.984
828.00,51.945
829.00,51.930
830.00,51.856
831.00,54.467
832.00,54.484
833.00,54.423
834.00,54.447
835.00,54.428
836.00,54.386
837.00,54.366
838.00,54.338
839.00,54.331
840.00,54.264
841.00,54.250
842.00,54.246
843.00,54.222
844.00,54.190
845.00,54.170
846.00,54.167
847.00,54.164
848.00,54.094
849.00,54.057
850.00,54.022
851.00,53.973
852.00,53.959
853.00,53.933
854.00,53.903
855.00,53.861
856.00,53.869
857.00,53.851
858.00,53.795
859.00,53.787
860.00,53.827
861.00,53.757
862.00,53.804
863.00,53.684
864.00,53.697
865.00,53.651
866.00,53.633
867.00,53.608
868.00,53.641
869.00,53.588
870.00,53.551
871.00,53.597
872.00,53.582
873.00,53.552
874.00,53.458
875.00,53.688
876.00,53.508
877.00,53.375
878.00,53.457
879.00,53.481
880.00,53.438
881.00,53.404
882.00,53.435
883.00,53.388
884.00,53.325
885.00,53.331
886.00,53.325
887.00,53.298
888.00,53.248
889.00,53.274
890.00,53.264
891.00,53.233
892.00,53.187
893.00,53.165
894.00,53.157
895.00,53.119
896.00,53.122
897.00,53.088
898.00,53.045
899.00,53.060
900.00,53.049
901.00,53.057
902.00,53.018
903.00,53.016
904.00,53.007
905.00,52.921
906.00,53.036
907.00,52.926
908.00,52.914
909.00,52.859
910.00,52.866
911.00,52.853
912.00,52.857
913.00,52.754
914.00,52.803
915.00,52.750
916.00,52.655
917.00,52.748
918.00,52.687
919.00,52.661
920.00,52.621
921.00,52.607
922.00,52.626
923.00,52.601
924.00,52.561
925.00,52.527
926.00,52.549
927.00,52.488
928.00,52.477
929.00,52.454
930.00,52.459
931.00,52.415
932.00,52.393
933.00,52.408
934.00,52.398
935.00,52.352
936.00,52.371
937.00,52.329
938.00,52.307
939.00,52.306
940.00,52.276
941.00,52.264
942.00,52.228
943.00,52.230
944.00,52.182
945.00,52.190
946.00,52.172
947.00,52.161
948.00,52.111
949.00,52.104
950.00,52.084
951.00,52.081
952.00,52.036
953.00,52.012
954.00,51.988
955.00,51.949
956.00,51.942
957.00,51.905
958.00,51.927
959.00,51.864
960.00,51.856
961.00,51.829
962.00,51.818
963.00,51.818
964.00,51.772
965.00,51.758
966.00,51.765
967.00,51.753
968.00,51.718
969.00,51.745
970.00,51.704
971.00,51.713
972.00,51.664
973.00,51.725
974.00,51.735
975.00,51.694
976.00,51.713
977.00,51.780
978.00,51.820
979.00,51.688
980.00,51.730
981.00,51.720
982.00,51.683
983.00,51.686
984.00,51.667
985.00,51.692
986.00,51.637
987.00,51.646
988.00,51.632
989.00,51.621
990.00,51.617
991.00,51.603
992.00,51.602
993.00,51.613
994.00,51.556
995.00,51.550
996.00,51.543
997.00,51.524
998.00,51.501
999.00,51.517
1000.00,51.468
1001.00,51.478
1002.00,51.472
1003.00,51.456
1004.00,51.432
1005.00,51.430
1006.00,51.417
1007.00,51.373
1008.00,51.388
1009.00,51.360
1010.00,51.352
1011.00,51.338
1012.00,51.305
1013.00,51.321
1014.00,51.277
1015.00,51.286
1016.00,51.250
1017.00,51.234
1018.00,51.218
1019.00,51.197
1020.00,51.193
1021.00,51.183
1022.00,51.171
1023.00,51.150
1024.00,51.147
1025.00,51.118
1026.00,51.106
1027.00,51.085
1028.00,51.062
1029.00,51.064
1030.00,51.020
1031.00,51.029
1032.00,51.007
1033.00,51.007
1034.00,50.978
1035.00,50.955
1036.00,50.932
1037.00,50.901
1038.00,50.894
1039.00,50.841
1040.00,50.843
1041.00,50.802
1042.00,50.791
1043.00,50.787
1044.00,50.810
1045.00,50.782
1046.00,50.788
1047.00,50.802
1048.00,50.806
1049.00,50.823
1050.00,50.834
1051.00,50.857
1052.00,50.860
1053.00,50.856
1054.00,50.875
1055.00,50.876
1056.00,50.877
1057.00,50.899
1058.00,50.873
1059.00,50.874
1060.00,50.867
1061.00,50.859
1062.00,50.846
1063.00,50.852
1064.00,50.834
1065.00,50.836
1066.00,50.830
1067.00,50.812
1068.00,50.834
1069.00,50.803
1070.00,50.766
1071.00,50.768
1072.00,50.774
1073.00,50.754
1074.00,50.753
1075.00,50.722
1076.00,50.739
1077.00,50.710
1078.00,50.694
1079.00,50.696
1080.00,50.702
1081.00,50.673
1082.00,50.676
1083.00,50.664
1084.00,50.655
1085.00,50.650
1086.00,50.643
1087.00,50.649
1088.00,50.627
1089.00,50.590
1090.00,50.603
1091.00,50.593
1092.00,50.580
1093.00,50.551
1094.00,50.540
1095.00,50.544
1096.00,50.535
1097.00,50.519
1098.00,50.520
1099.00,50.507
1100.00,50.509
1101.00,50.487
1102.00,50.482
1103.00,50.475
1104.00,50.470
1105.00,50.440
1106.00,50.447
1107.00,50.438
1108.00,50.427
1109.00,50.425
1110.00,50.434
1111.00,50.408
1112.00,50.407
1113.00,50.384
1114.00,50.386
1115.00,50.397
1116.00,50.365
1117.00,50.342
1118.00,50.343
1119.00,50.333
1120.00,50.352
1121.00,50.338
1122.00,50.310
1123.00,50.331
1124.00,50.322
1125.00,50.305
1126.00,50.320
1127.00,50.294
1128.00,50.296
1129.00,50.261
1130.00,50.264
1131.00,50.253
1132.00,50.217
1133.00,50.266
1134.00,50.235
1135.00,50.209
1136.00,50.194
1137.00,50.202
1138.00,50.201
1139.00,50.215
1140.00,50.206
1141.00,50.190
1142.00,50.193
1143.00,50.190
1144.00,50.164
1145.00,50.187
1146.00,50.196
1147.00,50.145
1148.00,50.143
1149.00,50.154
1150.00,50.161
1151.00,50.163
1152.00,50.124
1153.00,50.153
1154.00,50.134
1155.00,50.131
1156.00,50.129
1157.00,50.127
1158.00,50.116
1159.00,50.122
1160.00,50.104
1161.00,50.118
1162.00,50.095
1163.00,50.091
1164.00,50.113
1165.00,50.108
1166.00,50.096
1167.00,50.104
1168.00,50.108
1169.00,50.098
1170.00,50.114
1171.00,50.087
1172.00,50.083
1173.00,50.078
1174.00,50.068
1175.00,50.078
1176.00,50.077
1177.00,50.054
1178.00,50.063
1179.00,50.070
1180.00,50.049
1181.00,50.086
1182.00,50.067
1183.00,50.056
1184.00,50.048
1185.00,50.068
1186.00,50.071
1187.00,50.060
1188.00,50.032
1189.00,50.049
1190.00,50.044
1191.00,50.032
1192.00,50.049
1193.00,50.029
1194.00,50.048
1195.00,50.017
1196.00,50.039
1197.00,50.046
1198.00,50.035
1199.00,50.027
1200.00,50.039
1201.00,50.048
1202.00,50.018
1203.00,50.028
1204.00,50.001
1205.00,50.027
1206.00,50.013
1207.00,50.016
1208.00,50.006
1209.00,50.007
1210.00,50.008
1211.00,50.009
1212.00,50.026
1213.00,49.977
1214.00,50.012
1215.00,49.987
1216.00,49.984
1217.00,49.994
1218.00,49.971
1219.00,50.013
1220.00,49.990
1221.00,49.986
1222.00,49.997
1223.00,50.006
1224.00,50.005
1225.00,49.989
1226.00,49.999
1227.00,49.987
1228.00,50.002
1229.00,49.999
1230.00,50.035
1231.00,50.033
1232.00,50.021
1233.00,50.055
1234.00,50.042
1235.00,50.027
1236.00,50.036
1237.00,50.026
1238.00,50.040
1239.00,50.044
1240.00,50.023
1241.00,50.047
1242.00,50.043
1243.00,50.054
1244.00,50.050
1245.00,50.060
1246.00,50.057
1247.00,50.067
1248.00,50.060
1249.00,50.068
1250.00,50.098
1251.00,50.043
1252.00,50.078
1253.00,50.067
1254.00,50.068
1255.00,50.068
1256.00,50.047
1257.00,50.038
1258.00,50.076
1259.00,50.072
1260.00,50.103
1261.00,50.095
1262.00,50.106
1263.00,50.103
1264.00,50.121
1265.00,50.096
1266.00,50.121
1267.00,50.120
1268.00,50.126
1269.00,50.122
1270.00,50.128
1271.00,50.140
1272.00,50.148
1273.00,50.140
1274.00,50.154
1275.00,50.159
1276.00,50.146
1277.00,50.170
1278.00,50.182
1279.00,50.166
1280.00,50.187
1281.00,50.175
1282.00,50.202
1283.00,50.191
1284.00,50.189
1285.00,50.179
1286.00,50.200
1287.00,50.178
1288.00,50.215
1289.00,50.204
1290.00,50.215
1291.00,50.208
1292.00,50.217
1293.00,50.212
1294.00,50.229
1295.00,50.219
1296.00,50.221
1297.00,50.243
1298.00,50.230
1299.00,50.254
1300.00,50.269
1301.00,50.254
1302.00,50.273
1303.00,50.287
1304.00,50.275
1305.00,50.284
1306.00,50.274
1307.00,50.303
1308.00,50.285
1309.00,50.258
1310.00,50.348
1311.00,50.302
1312.00,50.282
1313.00,50.318
1314.00,50.315
1315.00,50.337
1316.00,50.340
1317.00,50.345
1318.00,50.355
1319.00,50.373
1320.00,50.367
1321.00,50.530
1322.00,50.550
1323.00,50.517
1324.00,50.534
1325.00,50.523
1326.00,50.543
1327.00,50.534
1328.00,50.541
1329.00,50.544
1330.00,50.547
1331.00,50.522
1332.00,50.535
1333.00,50.528
1334.00,50.559
1335.00,50.578
1336.00,50.609
1337.00,50.627
1338.00,50.708
1339.00,50.739
1340.00,50.796
1341.00,50.857
1342.00,50.913
1343.00,50.999
1344.00,51.007
1345.00,51.068
1346.00,51.129
1347.00,51.141
1348.00,51.146
1349.00,51.189
1350.00,51.191
1351.00,51.209
1352.00,51.209
1353.00,51.215
1354.00,51.234
1355.00,51.242
1356.00,51.239
1357.00,51.255
1358.00,51.325
1359.00,51.141
1360.00,51.340
1361.00,51.327
1362.00,51.271
1363.00,51.296
1364.00,51.223
1365.00,51.266
1366.00,51.319
1367.00,51.237
1368.00,51.278
1369.00,51.267
1370.00,51.224
1371.00,51.219
1372.00,51.246
1373.00,51.233
1374.00,51.276
1375.00,51.231
1376.00,51.237
1377.00,51.208
1378.00,51.256
1379.00,51.245
1380.00,51.257
1381.00,51.240
1382.00,51.168
1383.00,51.219
1384.00,51.198
1385.00,51.192
1386.00,51.257
1387.00,51.170
1388.00,51.184
1389.00,51.168
1390.00,51.254
1391.00,51.233
1392.00,51.208
1393.00,51.283
1394.00,51.237
1395.00,51.177
1396.00,51.203
1397.00,51.263
1398.00,51.251
1399.00,51.230
1400.00,51.166
1401.00,51.262
1402.00,51.311
1403.00,51.219
1404.00,51.262
1405.00,51.281
1406.00,51.299
1407.00,51.316
1408.00,51.252
1409.00,51.294
1410.00,51.337
1411.00,51.315
1412.00,51.386
1413.00,51.354
1414.00,51.313
1415.00,51.366
1416.00,51.363
1417.00,51.360
1418.00,51.366
1419.00,51.364
1420.00,51.409
1421.00,51.448
1422.00,51.435
1423.00,51.446
1424.00,51.469
1425.00,51.458
1426.00,51.485
1427.00,51.508
1428.00,51.517
1429.00,51.537
1430.00,51.540
1431.00,51.554
1432.00,51.555
1433.00,51.572
1434.00,51.584
1435.00,51.622
1436.00,51.610
1437.00,51.628
1438.00,51.652
1439.00,51.686
1440.00,51.684
1441.00,51.689
1442.00,51.700
1443.00,51.736
1444.00,51.747
1445.00,51.742
1446.00,51.757
1447.00,51.786
1448.00,51.819
1449.00,51.838
1450.00,51.835
1451.00,51.850
1452.00,51.863
1453.00,51.892
1454.00,51.894
1455.00,51.899
1456.00,51.931
1457.00,51.946
1458.00,51.958
1459.00,51.982
1460.00,51.990
1461.00,52.000
1462.00,52.018
1463.00,52.034
1464.00,52.042
1465.00,52.048
1466.00,52.062
1467.00,52.091
1468.00,52.135
1469.00,52.104
1470.00,52.125
1471.00,52.144
1472.00,52.145
1473.00,52.162
1474.00,52.186
1475.00,52.204
1476.00,52.220
1477.00,52.212
1478.00,52.234
1479.00,52.259
1480.00,52.264
1481.00,52.286
1482.00,52.290
1483.00,52.304
1484.00,52.316
1485.00,52.323
1486.00,52.336
1487.00,52.350
1488.00,52.353
1489.00,52.358
1490.00,52.390
1491.00,52.394
1492.00,52.424
1493.00,52.418
1494.00,52.431
1495.00,52.448
1496.00,52.444
1497.00,52.454
1498.00,52.465
1499.00,52.478
1500.00,52.519
1501.00, 
1502.00, 
1503.00, 
1504.00, 
1505.00, 
1506.00, 
1507.00, 
1508.00, 
1509.00, 
1510.00, 
1511.00, 
1512.00, 
1513.00, 
1514.00, 
1515.00, 
1516.00, 
1517.00, 
1518.00, 
1519.00, 
1520.00, 
1521.00, 
1522.00, 
1523.00, 
1524.00, 
1525.00, 
1526.00, 
1527.00, 
1528.00, 
1529.00, 
1530.00, 
1531.00, 
1532.00, 
1533.00, 
1534.00, 
1535.00, 
1536.00, 
1537.00, 
1538.00, 
1539.00, 
1540.00, 
1541.00, 
1542.00, 
1543.00, 
1544.00, 
1545.00, 
1546.00, 
1547.00, 
1548.00, 
1549.00, 
1550.00, 
1551.00, 
1552.00, 
1553.00, 
1554.00, 
1555.00, 
1556.00, 
1557.00, 
1558.00, 
1559.00, 
1560.00, 
1561.00, 
1562.00, 
1563.00, 
1564.00, 
1565.00, 
1566.00, 
1567.00, 
1568.00, 
1569.00, 
1570.00, 
1571.00, 
1572.00, 
1573.00, 
1574.00, 
1575.00, 
1576.00, 
1577.00, 
1578.00, 
1579.00, 
1580.00, 
1581.00, 
1582.00, 
1583.00, 
1584.00, 
1585.00, 
1586.00, 
1587.00, 
1588.00, 
1589.00, 
1590.00, 
1591.00, 
1592.00, 
1593.00, 
1594.00, 
1595.00, 
1596.00, 
1597.00, 
1598.00, 
1599.00, 
1600.00, 
1601.00, 
1602.00, 
1603.00, 
1604.00, 
1605.00, 
1606.00, 
1607.00, 
1608.00, 
1609.00, 
1610.00, 
1611.00, 
1612.00, 
1613.00, 
1614.00, 
1615.00, 
1616.00, 
1617.00, 
1618.00, 
1619.00, 
1620.00, 
1621.00, 
1622.00, 
1623.00, 
1624.00, 
1625.00, 
1626.00, 
1627.00, 
1628.00, 
1629.00, 
1630.00, 
1631.00, 
1632.00, 
1633.00, 
1634.00, 
1635.00, 
1636.00, 
1637.00, 
1638.00, 
1639.00, 
1640.00, 
1641.00, 
1642.00, 
1643.00, 
1644.00, 
1645.00, 
1646.00, 
1647.00, 
1648.00, 
1649.00, 
1650.00, 
1651.00, 
1652.00, 
1653.00, 
1654.00, 
1655.00, 
1656.00, 
1657.00, 
1658.00, 
1659.00, 
1660.00, 
1661.00, 
1662.00, 
1663.00, 
1664.00, 
1665.00, 
1666.00, 
1667.00, 
1668.00, 
1669.00, 
1670.00, 
1671.00, 
1672.00, 
1673.00, 
1674.00, 
1675.00, 
1676.00, 
1677.00, 
1678.00, 
1679.00, 
1680.00, 
1681.00, 
1682.00, 
1683.00, 
1684.00, 
1685.00, 
1686.00, 
1687.00, 
1688.00, 
1689.00, 
1690.00, 
1691.00, 
1692.00, 
1693.00, 
1694.00, 
1695.00, 
1696.00, 
1697.00, 
1698.00, 
1699.00, 
1700.00, 
1701.00, 
1702.00, 
1703.00, 
1704.00, 
1705.00, 
1706.00, 
1707.00, 
1708.00, 
1709.00, 
1710.00, 
1711.00, 
1712.00, 
1713.00, 
1714.00, 
1715.00, 
1716.00, 
1717.00, 
1718.00, 
1719.00, 
1720.00, 
1721.00, 
1722.00, 
1723.00, 
1724.00, 
1725.00, 
1726.00, 
1727.00, 
1728.00, 
1729.00, 
1730.00, 
1731.00, 
1732.00, 
1733.00, 
1734.00, 
1735.00, 
1736.00, 
1737.00, 
1738.00, 
1739.00, 
1740.00, 
1741.00, 
1742.00, 
1743.00, 
1744.00, 
1745.00, 
1746.00, 
1747.00, 
1748.00, 
1749.00, 
1750.00, 
1751.00, 
1752.00, 
1753.00, 
1754.00, 
1755.00, 
1756.00, 
1757.00, 
1758.00, 
1759.00, 
1760.00, 
1761.00, 
1762.00, 
1763.00, 
1764.00, 
1765.00, 
1766.00, 
1767.00, 
1768.00, 
1769.00, 
1770.00, 
1771.00, 
1772.00, 
1773.00, 
1774.00, 
1775.00, 
1776.00, 
1777.00, 
1778.00, 
1779.00, 
1780.00, 
1781.00, 
1782.00, 
1783.00, 
1784.00, 
1785.00, 
1786.00, 
1787.00, 
1788.00, 
1789.00, 
1790.00, 
1791.00, 
1792.00, 
1793.00, 
1794.00, 
1795.00, 
1796.00, 
1797.00, 
1798.00, 
1799.00, 
1800.00, 
1801.00, 
1802.00, 
1803.00, 
1804.00, 
1805.00, 
1806.00, 
1807.00, 
1808.00, 
1809.00, 
1810.00, 
1811.00, 
1812.00, 
1813.00, 
1814.00, 
1815.00, 
1816.00, 
1817.00, 
1818.00, 
1819.00, 
1820.00, 
1821.00, 
1822.00, 
1823.00, 
1824.00, 
1825.00, 
1826.00, 
1827.00, 
1828.00, 
1829.00, 
1830.00, 
1831.00, 
1832.00, 
1833.00, 
1834.00, 
1835.00, 
1836.00, 
1837.00, 
1838.00, 
1839.00, 
1840.00, 
1841.00, 
1842.00, 
1843.00, 
1844.00, 
1845.00, 
1846.00, 
1847.00, 
1848.00, 
1849.00, 
1850.00, 
1851.00, 
1852.00, 
1853.00, 
1854.00, 
1855.00, 
1856.00, 
1857.00, 
1858.00, 
1859.00, 
1860.00, 
1861.00, 
1862.00, 
1863.00, 
1864.00, 
1865.00, 
1866.00, 
1867.00, 
1868.00, 
1869.00, 
1870.00, 
1871.00, 
1872.00, 
1873.00, 
1874.00, 
1875.00, 
1876.00, 
1877.00, 
1878.00, 
1879.00, 
1880.00, 
1881.00, 
1882.00, 
1883.00, 
1884.00, 
1885.00, 
1886.00, 
1887.00, 
1888.00, 
1889.00, 
1890.00, 
1891.00, 
1892.00, 
1893.00, 
1894.00, 
1895.00, 
1896.00, 
1897.00, 
1898.00, 
1899.00, 
1900.00, 
1901.00, 
1902.00, 
1903.00, 
1904.00, 
1905.00, 
1906.00, 
1907.00, 
1908.00, 
1909.00, 
1910.00, 
1911.00, 
1912.00, 
1913.00, 
1914.00, 
1915.00, 
1916.00, 
1917.00, 
1918.00, 
1919.00, 
1920.00, 
1921.00, 
1922.00, 
1923.00, 
1924.00, 
1925.00, 
1926.00, 
1927.00, 
1928.00, 
1929.00, 
1930.00, 
1931.00, 
1932.00, 
1933.00, 
1934.00, 
1935.00, 
1936.00, 
1937.00, 
1938.00, 
1939.00, 
1940.00, 
1941.00, 
1942.00, 
1943.00, 
1944.00, 
1945.00, 
1946.00, 
1947.00, 
1948.00, 
1949.00, 
1950.00, 
1951.00, 
1952.00, 
1953.00, 
1954.00, 
1955.00, 
1956.00, 
1957.00, 
1958.00, 
1959.00, 
1960.00, 
1961.00, 
1962.00, 
1963.00, 
1964.00, 
1965.00, 
1966.00, 
1967.00, 
1968.00, 
1969.00, 
1970.00, 
1971.00, 
1972.00, 
1973.00, 
1974.00, 
1975.00, 
1976.00, 
1977.00, 
1978.00, 
1979.00, 
1980.00, 
1981.00, 
1982.00, 
1983.00, 
1984.00, 
1985.00, 
1986.00, 
1987.00, 
1988.00, 
1989.00, 
1990.00, 
1991.00, 
1992.00, 
1993.00, 
1994.00, 
1995.00, 
1996.00, 
1997.00, 
1998.00, 
1999.00, 
2000.00, 
2001.00, 
2002.00, 
2003.00, 
2004.00, 
2005.00, 
2006.00, 
2007.00, 
2008.00, 
2009.00, 
2010.00, 
2011.00, 
2012.00, 
2013.00, 
2014.00, 
2015.00, 
2016.00, 
2017.00, 
2018.00, 
2019.00, 
2020.00, 
2021.00, 
2022.00, 
2023.00, 
2024.00, 
2025.00, 
2026.00, 
2027.00, 
2028.00, 
2029.00, 
2030.00, 
2031.00, 
2032.00, 
2033.00, 
2034.00, 
2035.00, 
2036.00, 
2037.00, 
2038.00, 
2039.00, 
2040.00, 
2041.00, 
2042.00, 
2043.00, 
2044.00, 
2045.00, 
2046.00, 
2047.00, 
2048.00, 
2049.00, 
2050.00, 
2051.00, 
2052.00, 
2053.00, 
2054.00, 
2055.00, 
2056.00, 
2057.00, 
2058.00, 
2059.00, 
2060.00, 
2061.00, 
2062.00, 
2063.00, 
2064.00, 
2065.00, 
2066.00, 
2067.00, 
2068.00, 
2069.00, 
2070.00, 
2071.00, 
2072.00, 
2073.00, 
2074.00, 
2075.00, 
2076.00, 
2077.00, 
2078.00, 
2079.00, 
2080.00, 
2081.00, 
2082.00, 
2083.00, 
2084.00, 
2085.00, 
2086.00, 
2087.00, 
2088.00, 
2089.00, 
2090.00, 
2091.00, 
2092.00, 
2093.00, 
2094.00, 
2095.00, 
2096.00, 
2097.00, 
2098.00, 
2099.00, 
2100.00, 
2101.00, 
2102.00, 
2103.00, 
2104.00, 
2105.00, 
2106.00, 
2107.00, 
2108.00, 
2109.00, 
2110.00, 
2111.00, 
2112.00, 
2113.00, 
2114.00, 
2115.00, 
2116.00, 
2117.00, 
2118.00, 
2119.00, 
2120.00, 
2121.00, 
2122.00, 
2123.00, 
2124.00, 
2125.00, 
2126.00, 
2127.00, 
2128.00, 
2129.00, 
2130.00, 
2131.00, 
2132.00, 
2133.00, 
2134.00, 
2135.00, 
2136.00, 
2137.00, 
2138.00, 
2139.00, 
2140.00, 
2141.00, 
2142.00, 
2143.00, 
2144.00, 
2145.00, 
2146.00, 
2147.00, 
2148.00, 
2149.00, 
2150.00, 
2151.00, 
2152.00, 
2153.00, 
2154.00, 
2155.00, 
2156.00, 
2157.00, 
2158.00, 
2159.00, 
2160.00, 
2161.00, 
2162.00, 
2163.00, 
2164.00, 
2165.00, 
2166.00, 
2167.00, 
2168.00, 
2169.00, 
2170.00, 
2171.00, 
2172.00, 
2173.00, 
2174.00, 
2175.00, 
2176.00, 
2177.00, 
2178.00, 
2179.00, 
2180.00, 
2181.00, 
2182.00, 
2183.00, 
2184.00, 
2185.00, 
2186.00, 
2187.00, 
2188.00, 
2189.00, 
2190.00, 
2191.00, 
2192.00, 
2193.00, 
2194.00, 
2195.00, 
2196.00, 
2197.00, 
2198.00, 
2199.00, 
2200.00, 
2201.00, 
2202.00, 
2203.00, 
2204.00, 
2205.00, 
2206.00, 
2207.00, 
2208.00, 
2209.00, 
2210.00, 
2211.00, 
2212.00, 
2213.00, 
2214.00, 
2215.00, 
2216.00, 
2217.00, 
2218.00, 
2219.00, 
2220.00, 
2221.00, 
2222.00, 
2223.00, 
2224.00, 
2225.00, 
2226.00, 
2227.00, 
2228.00, 
2229.00, 
2230.00, 
2231.00, 
2232.00, 
2233.00, 
2234.00, 
2235.00, 
2236.00, 
2237.00, 
2238.00, 
2239.00, 
2240.00, 
2241.00, 
2242.00, 
2243.00, 
2244.00, 
2245.00, 
2246.00, 
2247.00, 
2248.00, 
2249.00, 
2250.00, 
2251.00, 
2252.00, 
2253.00, 
2254.00, 
2255.00, 
2256.00, 
2257.00, 
2258.00, 
2259.00, 
2260.00, 
2261.00, 
2262.00, 
2263.00, 
2264.00, 
2265.00, 
2266.00, 
2267.00, 
2268.00, 
2269.00, 
2270.00, 
2271.00, 
2272.00, 
2273.00, 
2274.00, 
2275.00, 
2276.00, 
2277.00, 
2278.00, 
2279.00, 
2280.00, 
2281.00, 
2282.00, 
2283.00, 
2284.00, 
2285.00, 
2286.00, 
2287.00, 
2288.00, 
2289.00, 
2290.00, 
2291.00, 
2292.00, 
2293.00, 
2294.00, 
2295.00, 
2296.00, 
2297.00, 
2298.00, 
2299.00, 
2300.00, 
2301.00, 
2302.00, 
2303.00, 
2304.00, 
2305.00, 
2306.00, 
2307.00, 
2308.00, 
2309.00, 
2310.00, 
2311.00, 
2312.00, 
2313.00, 
2314.00, 
2315.00, 
2316.00, 
2317.00, 
2318.00, 
2319.00, 
2320.00, 
2321.00, 
2322.00, 
2323.00, 
2324.00, 
2325.00, 
2326.00, 
2327.00, 
2328.00, 
2329.00, 
2330.00, 
2331.00, 
2332.00, 
2333.00, 
2334.00, 
2335.00, 
2336.00, 
2337.00, 
2338.00, 
2339.00, 
2340.00, 
2341.00, 
2342.00, 
2343.00, 
2344.00, 
2345.00, 
2346.00, 
2347.00, 
2348.00, 
2349.00, 
2350.00, 
2351.00, 
2352.00, 
2353.00, 
2354.00, 
2355.00, 
2356.00, 
2357.00, 
2358.00, 
2359.00, 
2360.00, 
2361.00, 
2362.00, 
2363.00, 
2364.00, 
2365.00, 
2366.00, 
2367.00, 
2368.00, 
2369.00, 
2370.00, 
2371.00, 
2372.00, 
2373.00, 
2374.00, 
2375.00, 
2376.00, 
2377.00, 
2378.00, 
2379.00, 
2380.00, 
2381.00, 
2382.00, 
2383.00, 
2384.00, 
2385.00, 
2386.00, 
2387.00, 
2388.00, 
2389.00, 
2390.00, 
2391.00, 
2392.00, 
2393.00, 
2394.00, 
2395.00, 
2396.00, 
2397.00, 
2398.00, 
2399.00, 
2400.00, 
2401.00, 
2402.00, 
2403.00, 
2404.00, 
2405.00, 
2406.00, 
2407.00, 
2408.00, 
2409.00, 
2410.00, 
2411.00, 
2412.00, 
2413.00, 
2414.00, 
2415.00, 
2416.00, 
2417.00, 
2418.00, 
2419.00, 
2420.00, 
2421.00, 
2422.00, 
2423.00, 
2424.00, 
2425.00, 
2426.00, 
2427.00, 
2428.00, 
2429.00, 
2430.00, 
2431.00, 
2432.00, 
2433.00, 
2434.00, 
2435.00, 
2436.00, 
2437.00, 
2438.00, 
2439.00, 
2440.00, 
2441.00, 
2442.00, 
2443.00, 
2444.00, 
2445.00, 
2446.00, 
2447.00, 
2448.00, 
2449.00, 
2450.00, 
2451.00, 
2452.00, 
2453.00, 
2454.00, 
2455.00, 
2456.00, 
2457.00, 
2458.00, 
2459.00, 
2460.00, 
2461.00, 
2462.00, 
2463.00, 
2464.00, 
2465.00, 
2466.00, 
2467.00, 
2468.00, 
2469.00, 
2470.00, 
2471.00, 
2472.00, 
2473.00, 
2474.00, 
2475.00, 
2476.00, 
2477.00, 
2478.00, 
2479.00, 
2480.00, 
2481.00, 
2482.00, 
2483.00, 
2484.00, 
2485.00, 
2486.00, 
2487.00, 
2488.00, 
2489.00, 
2490.00, 
2491.00, 
2492.00, 
2493.00, 
2494.00, 
2495.00, 
2496.00, 
2497.00, 
2498.00, 
2499.00, 
2500.00, 
2501.00, 
2502.00, 
2503.00, 
2504.00, 
2505.00, 
2506.00, 
2507.00, 
2508.00, 
2509.00, 
2510.00, 
2511.00, 
2512.00, 
2513.00, 
2514.00, 
2515.00, 
2516.00, 
2517.00, 
2518.00, 
2519.00, 
2520.00, 
2521.00, 
2522.00, 
2523.00, 
2524.00, 
2525.00, 
2526.00, 
2527.00, 
2528.00, 
2529.00, 
2530.00, 
2531.00, 
2532.00, 
2533.00, 
2534.00, 
2535.00, 
2536.00, 
2537.00, 
2538.00, 
2539.00, 
2540.00, 
2541.00, 
2542.00, 
2543.00, 
2544.00, 
2545.00, 
2546.00, 
2547.00, 
2548.00, 
2549.00, 
2550.00, 
2551.00, 
2552.00, 
2553.00, 
2554.00, 
2555.00, 
2556.00, 
2557.00, 
2558.00, 
2559.00, 
2560.00, 
2561.00, 
2562.00, 
2563.00, 
2564.00, 
2565.00, 
2566.00, 
2567.00, 
2568.00, 
2569.00, 
2570.00, 
2571.00, 
2572.00, 
2573.00, 
2574.00, 
2575.00, 
2576.00, 
2577.00, 
2578.00, 
2579.00, 
2580.00, 
2581.00, 
2582.00, 
2583.00, 
2584.00, 
2585.00, 
2586.00, 
2587.00, 
2588.00, 
2589.00, 
2590.00, 
2591.00, 
2592.00, 
2593.00, 
2594.00, 
2595.00, 
2596.00, 
2597.00, 
2598.00, 
2599.00, 
2600.00, 
