"2cP4 - RawData"
"Wavelength nm.","T%"
200.00,-0.001
201.00,0.003
202.00,-0.000
203.00,0.002
204.00,0.002
205.00,-0.001
206.00,0.000
207.00,0.004
208.00,0.002
209.00,0.002
210.00,0.001
211.00,-0.001
212.00,-0.000
213.00,0.001
214.00,-0.002
215.00,-0.000
216.00,0.001
217.00,0.002
218.00,0.002
219.00,0.001
220.00,0.004
221.00,0.000
222.00,0.001
223.00,-0.003
224.00,0.001
225.00,0.004
226.00,-0.000
227.00,0.002
228.00,0.002
229.00,0.001
230.00,-0.000
231.00,0.003
232.00,0.002
233.00,0.002
234.00,0.001
235.00,-0.001
236.00,0.000
237.00,0.001
238.00,0.003
239.00,-0.000
240.00,-0.000
241.00,-0.001
242.00,-0.000
243.00,-0.000
244.00,0.002
245.00,0.000
246.00,0.000
247.00,0.001
248.00,0.001
249.00,0.001
250.00,0.002
251.00,0.000
252.00,-0.000
253.00,-0.001
254.00,-0.001
255.00,0.001
256.00,-0.000
257.00,0.001
258.00,0.000
259.00,0.001
260.00,0.000
261.00,-0.001
262.00,-0.000
263.00,0.001
264.00,0.002
265.00,0.002
266.00,0.000
267.00,0.002
268.00,0.001
269.00,-0.000
270.00,-0.000
271.00,0.000
272.00,0.000
273.00,0.000
274.00,0.000
275.00,0.000
276.00,0.001
277.00,0.000
278.00,-0.001
279.00,-0.001
280.00,-0.001
281.00,0.001
282.00,0.000
283.00,-0.000
284.00,0.002
285.00,0.000
286.00,0.001
287.00,-0.000
288.00,-0.001
289.00,0.002
290.00,0.000
291.00,-0.001
292.00,0.001
293.00,-0.001
294.00,-0.002
295.00,0.001
296.00,0.001
297.00,-0.001
298.00,0.001
299.00,0.001
300.00,0.002
301.00,0.001
302.00,0.005
303.00,0.006
304.00,0.011
305.00,0.017
306.00,0.026
307.00,0.040
308.00,0.062
309.00,0.094
310.00,0.134
311.00,0.175
312.00,0.245
313.00,0.334
314.00,0.440
315.00,0.574
316.00,0.733
317.00,0.923
318.00,1.140
319.00,1.393
320.00,1.685
321.00,2.032
322.00,2.412
323.00,2.847
324.00,3.264
325.00,3.718
326.00,4.202
327.00,4.775
328.00,5.306
329.00,5.869
330.00,6.467
331.00,7.054
332.00,7.672
333.00,8.221
334.00,8.902
335.00,9.563
336.00,10.172
337.00,10.800
338.00,11.406
339.00,11.953
340.00,12.570
341.00,13.130
342.00,13.663
343.00,14.180
344.00,14.685
345.00,15.138
346.00,15.573
347.00,15.967
348.00,16.377
349.00,16.733
350.00,17.086
351.00,17.413
352.00,17.731
353.00,17.996
354.00,18.191
355.00,18.541
356.00,18.761
357.00,19.007
358.00,19.200
359.00,19.394
360.00,19.560
361.00,19.786
362.00,19.850
363.00,19.990
364.00,20.095
365.00,20.226
366.00,20.297
367.00,20.383
368.00,20.419
369.00,20.506
370.00,20.565
371.00,20.566
372.00,20.574
373.00,20.538
374.00,20.578
375.00,20.563
376.00,20.526
377.00,20.492
378.00,20.418
379.00,20.409
380.00,20.380
381.00,20.368
382.00,20.359
383.00,20.348
384.00,20.345
385.00,20.393
386.00,20.403
387.00,20.478
388.00,20.470
389.00,20.526
390.00,20.546
391.00,20.577
392.00,20.572
393.00,20.599
394.00,20.624
395.00,20.609
396.00,20.639
397.00,20.652
398.00,20.701
399.00,20.643
400.00,20.629
401.00,20.621
402.00,20.633
403.00,20.613
404.00,20.632
405.00,20.650
406.00,20.602
407.00,20.584
408.00,20.539
409.00,20.524
410.00,20.511
411.00,20.485
412.00,20.494
413.00,20.450
414.00,20.447
415.00,20.429
416.00,20.564
417.00,20.577
418.00,20.589
419.00,20.642
420.00,20.690
421.00,20.782
422.00,20.774
423.00,20.822
424.00,20.917
425.00,20.846
426.00,20.908
427.00,20.957
428.00,21.012
429.00,21.071
430.00,21.070
431.00,21.153
432.00,21.172
433.00,21.259
434.00,21.302
435.00,21.383
436.00,21.461
437.00,21.546
438.00,21.631
439.00,21.664
440.00,21.740
441.00,21.839
442.00,21.901
443.00,22.001
444.00,22.073
445.00,22.178
446.00,22.276
447.00,22.371
448.00,22.482
449.00,22.584
450.00,22.692
451.00,22.793
452.00,22.894
453.00,23.007
454.00,23.131
455.00,23.246
456.00,23.370
457.00,23.478
458.00,23.568
459.00,23.705
460.00,23.814
461.00,23.952
462.00,24.084
463.00,24.234
464.00,24.344
465.00,24.482
466.00,24.594
467.00,24.725
468.00,24.741
469.00,24.973
470.00,25.093
471.00,25.213
472.00,25.320
473.00,25.407
474.00,25.562
475.00,25.675
476.00,25.784
477.00,25.914
478.00,26.037
479.00,26.209
480.00,26.328
481.00,26.480
482.00,26.613
483.00,26.743
484.00,26.949
485.00,27.102
486.00,27.254
487.00,27.392
488.00,27.504
489.00,27.720
490.00,27.854
491.00,27.993
492.00,28.211
493.00,28.324
494.00,28.356
495.00,28.514
496.00,28.629
497.00,28.760
498.00,28.914
499.00,29.096
500.00,29.178
501.00,29.287
502.00,29.469
503.00,29.558
504.00,29.705
505.00,29.816
506.00,29.922
507.00,30.035
508.00,30.180
509.00,30.335
510.00,30.394
511.00,30.538
512.00,30.693
513.00,30.813
514.00,30.947
515.00,31.048
516.00,31.203
517.00,31.277
518.00,31.417
519.00,31.468
520.00,31.568
521.00,31.654
522.00,31.723
523.00,31.798
524.00,31.892
525.00,31.994
526.00,32.127
527.00,32.270
528.00,32.290
529.00,32.422
530.00,32.537
531.00,32.672
532.00,32.761
533.00,32.871
534.00,32.963
535.00,33.035
536.00,33.145
537.00,33.242
538.00,33.294
539.00,33.422
540.00,33.484
541.00,33.477
542.00,33.551
543.00,33.607
544.00,33.676
545.00,33.747
546.00,33.845
547.00,33.905
548.00,33.979
549.00,34.065
550.00,34.147
551.00,34.216
552.00,34.307
553.00,34.302
554.00,34.500
555.00,34.589
556.00,34.551
557.00,34.611
558.00,34.686
559.00,34.761
560.00,34.858
561.00,34.848
562.00,34.941
563.00,34.947
564.00,35.003
565.00,35.040
566.00,35.066
567.00,35.094
568.00,35.070
569.00,35.208
570.00,35.205
571.00,35.190
572.00,35.319
573.00,35.324
574.00,35.283
575.00,35.433
576.00,35.458
577.00,35.538
578.00,35.590
579.00,35.690
580.00,35.751
581.00,35.799
582.00,35.901
583.00,35.921
584.00,36.063
585.00,36.127
586.00,36.169
587.00,36.215
588.00,36.256
589.00,36.277
590.00,36.305
591.00,36.371
592.00,36.365
593.00,36.370
594.00,36.474
595.00,36.486
596.00,36.480
597.00,36.584
598.00,36.708
599.00,36.744
600.00,36.716
601.00,36.801
602.00,36.883
603.00,36.937
604.00,37.010
605.00,37.072
606.00,37.152
607.00,37.159
608.00,37.265
609.00,37.276
610.00,37.268
611.00,37.389
612.00,37.366
613.00,37.438
614.00,37.478
615.00,37.546
616.00,37.639
617.00,37.668
618.00,37.722
619.00,37.782
620.00,37.835
621.00,37.859
622.00,37.953
623.00,38.064
624.00,38.120
625.00,38.140
626.00,38.211
627.00,38.272
628.00,38.253
629.00,38.348
630.00,38.377
631.00,38.480
632.00,38.595
633.00,38.691
634.00,38.747
635.00,38.821
636.00,38.922
637.00,39.053
638.00,39.096
639.00,39.190
640.00,39.178
641.00,39.241
642.00,39.367
643.00,39.425
644.00,39.554
645.00,39.576
646.00,39.747
647.00,39.789
648.00,39.883
649.00,40.005
650.00,40.019
651.00,40.115
652.00,40.254
653.00,40.358
654.00,40.423
655.00,40.483
656.00,40.643
657.00,40.761
658.00,40.843
659.00,40.897
660.00,40.911
661.00,40.997
662.00,41.239
663.00,41.306
664.00,41.412
665.00,41.492
666.00,41.537
667.00,41.739
668.00,41.870
669.00,42.016
670.00,42.069
671.00,42.088
672.00,42.168
673.00,42.330
674.00,42.476
675.00,42.560
676.00,42.707
677.00,42.779
678.00,42.723
679.00,42.839
680.00,42.949
681.00,43.069
682.00,43.203
683.00,43.269
684.00,43.434
685.00,43.507
686.00,43.457
687.00,43.606
688.00,43.809
689.00,43.851
690.00,43.838
691.00,44.144
692.00,44.055
693.00,44.236
694.00,44.348
695.00,44.486
696.00,44.591
697.00,44.603
698.00,44.743
699.00,44.930
700.00,45.040
701.00,45.010
702.00,45.177
703.00,45.256
704.00,45.397
705.00,45.429
706.00,45.513
707.00,45.669
708.00,45.571
709.00,45.775
710.00,45.965
711.00,45.834
712.00,45.989
713.00,46.000
714.00,46.112
715.00,46.155
716.00,46.243
717.00,46.254
718.00,46.295
719.00,46.529
720.00,46.639
721.00,50.790
722.00,50.876
723.00,50.844
724.00,50.877
725.00,50.972
726.00,50.963
727.00,50.995
728.00,50.961
729.00,51.069
730.00,51.058
731.00,51.133
732.00,51.237
733.00,51.227
734.00,51.281
735.00,51.327
736.00,51.392
737.00,51.296
738.00,51.366
739.00,51.382
740.00,51.471
741.00,51.556
742.00,51.546
743.00,51.581
744.00,51.562
745.00,51.568
746.00,51.640
747.00,51.635
748.00,51.617
749.00,51.658
750.00,51.670
751.00,51.710
752.00,51.686
753.00,51.742
754.00,51.700
755.00,51.787
756.00,51.777
757.00,51.783
758.00,51.847
759.00,51.824
760.00,51.857
761.00,51.833
762.00,51.826
763.00,51.967
764.00,51.886
765.00,51.881
766.00,51.975
767.00,52.055
768.00,51.964
769.00,51.987
770.00,52.059
771.00,52.074
772.00,52.053
773.00,51.993
774.00,52.066
775.00,52.070
776.00,52.123
777.00,52.110
778.00,52.143
779.00,52.193
780.00,52.137
781.00,52.138
782.00,52.174
783.00,52.177
784.00,52.104
785.00,52.187
786.00,52.179
787.00,52.148
788.00,52.098
789.00,52.153
790.00,52.114
791.00,52.124
792.00,52.124
793.00,52.097
794.00,52.143
795.00,52.084
796.00,52.107
797.00,52.077
798.00,52.089
799.00,52.063
800.00,52.039
801.00,52.044
802.00,52.107
803.00,52.047
804.00,52.031
805.00,52.028
806.00,52.031
807.00,52.020
808.00,52.030
809.00,51.928
810.00,51.959
811.00,51.939
812.00,52.042
813.00,51.927
814.00,51.932
815.00,51.974
816.00,51.941
817.00,51.920
818.00,51.871
819.00,51.861
820.00,51.961
821.00,51.802
822.00,51.843
823.00,51.826
824.00,51.843
825.00,51.786
826.00,51.742
827.00,51.872
828.00,51.913
829.00,51.841
830.00,51.736
831.00,53.934
832.00,53.938
833.00,53.896
834.00,53.917
835.00,53.909
836.00,53.875
837.00,53.886
838.00,53.861
839.00,53.870
840.00,53.791
841.00,53.791
842.00,53.799
843.00,53.783
844.00,53.786
845.00,53.684
846.00,53.710
847.00,53.715
848.00,53.694
849.00,53.636
850.00,53.611
851.00,53.599
852.00,53.601
853.00,53.543
854.00,53.514
855.00,53.419
856.00,53.475
857.00,53.423
858.00,53.399
859.00,53.368
860.00,53.374
861.00,53.350
862.00,53.323
863.00,53.335
864.00,53.306
865.00,53.313
866.00,53.298
867.00,53.296
868.00,53.322
869.00,53.276
870.00,53.200
871.00,53.285
872.00,53.258
873.00,53.220
874.00,53.199
875.00,53.213
876.00,53.207
877.00,53.092
878.00,53.199
879.00,53.161
880.00,53.142
881.00,53.127
882.00,53.152
883.00,53.105
884.00,53.062
885.00,53.028
886.00,53.013
887.00,53.007
888.00,52.951
889.00,52.966
890.00,52.966
891.00,52.960
892.00,52.910
893.00,52.903
894.00,52.892
895.00,52.854
896.00,52.838
897.00,52.810
898.00,52.791
899.00,52.796
900.00,52.780
901.00,52.791
902.00,52.778
903.00,52.753
904.00,52.730
905.00,52.726
906.00,52.689
907.00,52.673
908.00,52.654
909.00,52.617
910.00,52.620
911.00,52.624
912.00,52.632
913.00,52.528
914.00,52.551
915.00,52.524
916.00,52.517
917.00,52.488
918.00,52.466
919.00,52.458
920.00,52.408
921.00,52.397
922.00,52.412
923.00,52.364
924.00,52.347
925.00,52.344
926.00,52.360
927.00,52.316
928.00,52.300
929.00,52.281
930.00,52.254
931.00,52.210
932.00,52.191
933.00,52.218
934.00,52.218
935.00,52.160
936.00,52.176
937.00,52.141
938.00,52.143
939.00,52.143
940.00,52.093
941.00,52.080
942.00,52.195
943.00,52.060
944.00,52.009
945.00,52.000
946.00,51.998
947.00,51.970
948.00,51.945
949.00,51.919
950.00,51.903
951.00,51.888
952.00,51.860
953.00,51.833
954.00,51.813
955.00,51.783
956.00,51.763
957.00,51.783
958.00,51.745
959.00,51.687
960.00,51.686
961.00,51.652
962.00,51.667
963.00,51.622
964.00,51.607
965.00,51.601
966.00,51.609
967.00,51.601
968.00,51.567
969.00,51.599
970.00,51.562
971.00,51.587
972.00,51.524
973.00,51.572
974.00,51.606
975.00,51.557
976.00,51.575
977.00,51.563
978.00,51.598
979.00,51.539
980.00,51.587
981.00,51.593
982.00,51.555
983.00,51.561
984.00,51.554
985.00,51.578
986.00,51.517
987.00,51.541
988.00,51.516
989.00,51.489
990.00,51.483
991.00,51.475
992.00,51.483
993.00,51.451
994.00,51.434
995.00,51.436
996.00,51.422
997.00,51.421
998.00,51.378
999.00,51.394
1000.00,51.366
1001.00,51.347
1002.00,51.341
1003.00,51.331
1004.00,51.330
1005.00,51.311
1006.00,51.309
1007.00,51.277
1008.00,51.266
1009.00,51.234
1010.00,51.245
1011.00,51.230
1012.00,51.177
1013.00,51.206
1014.00,51.173
1015.00,51.184
1016.00,51.159
1017.00,51.159
1018.00,51.181
1019.00,51.101
1020.00,51.091
1021.00,51.082
1022.00,51.072
1023.00,51.027
1024.00,51.044
1025.00,51.011
1026.00,51.002
1027.00,50.979
1028.00,50.960
1029.00,50.975
1030.00,50.931
1031.00,50.932
1032.00,50.902
1033.00,50.901
1034.00,50.867
1035.00,50.840
1036.00,50.815
1037.00,50.796
1038.00,50.797
1039.00,50.745
1040.00,50.761
1041.00,50.711
1042.00,50.701
1043.00,50.693
1044.00,50.725
1045.00,50.702
1046.00,50.699
1047.00,50.718
1048.00,50.720
1049.00,50.731
1050.00,50.738
1051.00,50.767
1052.00,50.772
1053.00,50.776
1054.00,50.780
1055.00,50.786
1056.00,50.786
1057.00,50.790
1058.00,50.768
1059.00,50.771
1060.00,50.781
1061.00,50.769
1062.00,50.760
1063.00,50.770
1064.00,50.740
1065.00,50.746
1066.00,50.747
1067.00,50.726
1068.00,50.740
1069.00,50.695
1070.00,50.692
1071.00,50.686
1072.00,50.691
1073.00,50.673
1074.00,50.673
1075.00,50.638
1076.00,50.647
1077.00,50.627
1078.00,50.605
1079.00,50.603
1080.00,50.607
1081.00,50.588
1082.00,50.587
1083.00,50.565
1084.00,50.569
1085.00,50.571
1086.00,50.561
1087.00,50.563
1088.00,50.537
1089.00,50.511
1090.00,50.518
1091.00,50.512
1092.00,50.502
1093.00,50.471
1094.00,50.462
1095.00,50.461
1096.00,50.447
1097.00,50.431
1098.00,50.445
1099.00,50.429
1100.00,50.400
1101.00,50.404
1102.00,50.381
1103.00,50.387
1104.00,50.391
1105.00,50.366
1106.00,50.371
1107.00,50.350
1108.00,50.330
1109.00,50.364
1110.00,50.370
1111.00,50.329
1112.00,50.325
1113.00,50.313
1114.00,50.305
1115.00,50.301
1116.00,50.286
1117.00,50.262
1118.00,50.273
1119.00,50.265
1120.00,50.254
1121.00,50.245
1122.00,50.222
1123.00,50.219
1124.00,50.230
1125.00,50.240
1126.00,50.210
1127.00,50.200
1128.00,50.186
1129.00,50.166
1130.00,50.153
1131.00,50.147
1132.00,50.121
1133.00,50.169
1134.00,50.139
1135.00,50.126
1136.00,50.121
1137.00,50.122
1138.00,50.114
1139.00,50.139
1140.00,50.131
1141.00,50.090
1142.00,50.103
1143.00,50.120
1144.00,50.076
1145.00,50.089
1146.00,50.085
1147.00,50.071
1148.00,50.065
1149.00,50.061
1150.00,50.056
1151.00,50.058
1152.00,50.041
1153.00,50.059
1154.00,50.051
1155.00,50.045
1156.00,50.044
1157.00,50.049
1158.00,50.038
1159.00,50.045
1160.00,50.026
1161.00,50.039
1162.00,50.028
1163.00,50.016
1164.00,50.034
1165.00,50.018
1166.00,50.010
1167.00,50.010
1168.00,50.012
1169.00,50.009
1170.00,50.032
1171.00,50.009
1172.00,50.000
1173.00,49.989
1174.00,49.983
1175.00,49.996
1176.00,49.994
1177.00,49.973
1178.00,49.980
1179.00,49.993
1180.00,49.974
1181.00,50.008
1182.00,49.978
1183.00,49.981
1184.00,49.967
1185.00,49.991
1186.00,49.999
1187.00,49.972
1188.00,49.948
1189.00,49.957
1190.00,49.953
1191.00,49.951
1192.00,49.972
1193.00,49.952
1194.00,49.962
1195.00,49.933
1196.00,49.949
1197.00,49.959
1198.00,49.948
1199.00,49.936
1200.00,49.948
1201.00,49.947
1202.00,49.928
1203.00,49.943
1204.00,49.926
1205.00,49.943
1206.00,49.929
1207.00,49.921
1208.00,49.918
1209.00,49.919
1210.00,49.921
1211.00,49.924
1212.00,49.940
1213.00,49.904
1214.00,49.931
1215.00,49.905
1216.00,49.926
1217.00,49.944
1218.00,49.898
1219.00,49.940
1220.00,49.916
1221.00,49.910
1222.00,49.907
1223.00,49.913
1224.00,49.918
1225.00,49.913
1226.00,49.919
1227.00,49.910
1228.00,49.931
1229.00,49.918
1230.00,49.957
1231.00,49.942
1232.00,49.943
1233.00,49.946
1234.00,49.931
1235.00,49.939
1236.00,49.938
1237.00,49.926
1238.00,49.935
1239.00,49.952
1240.00,49.934
1241.00,49.953
1242.00,49.958
1243.00,49.959
1244.00,49.950
1245.00,49.969
1246.00,49.978
1247.00,49.981
1248.00,49.957
1249.00,49.966
1250.00,49.987
1251.00,49.951
1252.00,49.987
1253.00,49.982
1254.00,49.991
1255.00,49.998
1256.00,49.990
1257.00,49.975
1258.00,50.021
1259.00,49.998
1260.00,50.033
1261.00,50.025
1262.00,50.002
1263.00,50.009
1264.00,50.014
1265.00,49.996
1266.00,50.014
1267.00,50.018
1268.00,50.047
1269.00,50.049
1270.00,50.051
1271.00,50.063
1272.00,50.067
1273.00,50.064
1274.00,50.081
1275.00,50.078
1276.00,50.061
1277.00,50.068
1278.00,50.071
1279.00,50.072
1280.00,50.081
1281.00,50.074
1282.00,50.094
1283.00,50.066
1284.00,50.072
1285.00,50.083
1286.00,50.100
1287.00,50.078
1288.00,50.100
1289.00,50.086
1290.00,50.100
1291.00,50.104
1292.00,50.098
1293.00,50.106
1294.00,50.124
1295.00,50.118
1296.00,50.144
1297.00,50.137
1298.00,50.147
1299.00,50.136
1300.00,50.146
1301.00,50.153
1302.00,50.162
1303.00,50.175
1304.00,50.155
1305.00,50.157
1306.00,50.148
1307.00,50.190
1308.00,50.160
1309.00,50.141
1310.00,50.228
1311.00,50.176
1312.00,50.183
1313.00,50.206
1314.00,50.199
1315.00,50.216
1316.00,50.220
1317.00,50.228
1318.00,50.236
1319.00,50.246
1320.00,50.255
1321.00,50.391
1322.00,50.404
1323.00,50.385
1324.00,50.408
1325.00,50.393
1326.00,50.420
1327.00,50.400
1328.00,50.384
1329.00,50.385
1330.00,50.399
1331.00,50.374
1332.00,50.363
1333.00,50.389
1334.00,50.450
1335.00,50.412
1336.00,50.463
1337.00,50.480
1338.00,50.561
1339.00,50.588
1340.00,50.654
1341.00,50.717
1342.00,50.784
1343.00,50.844
1344.00,50.874
1345.00,50.928
1346.00,50.962
1347.00,50.997
1348.00,50.998
1349.00,51.034
1350.00,51.048
1351.00,51.065
1352.00,51.086
1353.00,51.068
1354.00,51.085
1355.00,51.076
1356.00,51.081
1357.00,51.087
1358.00,51.096
1359.00,51.073
1360.00,51.130
1361.00,51.148
1362.00,51.053
1363.00,51.140
1364.00,51.144
1365.00,51.081
1366.00,51.182
1367.00,51.091
1368.00,51.055
1369.00,51.086
1370.00,51.055
1371.00,51.063
1372.00,51.068
1373.00,51.064
1374.00,51.093
1375.00,51.051
1376.00,51.083
1377.00,51.057
1378.00,51.126
1379.00,51.089
1380.00,51.097
1381.00,51.089
1382.00,51.049
1383.00,51.072
1384.00,51.031
1385.00,51.048
1386.00,50.910
1387.00,51.040
1388.00,51.029
1389.00,51.053
1390.00,51.075
1391.00,51.049
1392.00,51.043
1393.00,51.129
1394.00,51.043
1395.00,51.012
1396.00,50.999
1397.00,51.054
1398.00,51.040
1399.00,51.049
1400.00,50.878
1401.00,51.053
1402.00,51.118
1403.00,51.088
1404.00,51.093
1405.00,51.107
1406.00,51.129
1407.00,51.125
1408.00,51.106
1409.00,51.141
1410.00,51.158
1411.00,51.143
1412.00,51.206
1413.00,51.139
1414.00,51.149
1415.00,51.177
1416.00,51.187
1417.00,51.228
1418.00,51.230
1419.00,51.178
1420.00,51.203
1421.00,51.243
1422.00,51.224
1423.00,51.239
1424.00,51.251
1425.00,51.270
1426.00,51.276
1427.00,51.299
1428.00,51.304
1429.00,51.341
1430.00,51.330
1431.00,51.349
1432.00,51.365
1433.00,51.383
1434.00,51.377
1435.00,51.422
1436.00,51.420
1437.00,51.422
1438.00,51.431
1439.00,51.475
1440.00,51.475
1441.00,51.484
1442.00,51.496
1443.00,51.526
1444.00,51.552
1445.00,51.534
1446.00,51.553
1447.00,51.573
1448.00,51.641
1449.00,51.607
1450.00,51.606
1451.00,51.622
1452.00,51.628
1453.00,51.646
1454.00,51.649
1455.00,51.656
1456.00,51.690
1457.00,51.694
1458.00,51.711
1459.00,51.741
1460.00,51.755
1461.00,51.752
1462.00,51.783
1463.00,51.791
1464.00,51.816
1465.00,51.827
1466.00,51.826
1467.00,51.853
1468.00,51.897
1469.00,51.875
1470.00,51.891
1471.00,51.910
1472.00,51.915
1473.00,51.921
1474.00,51.942
1475.00,51.948
1476.00,51.965
1477.00,51.944
1478.00,51.988
1479.00,52.005
1480.00,51.998
1481.00,52.033
1482.00,52.042
1483.00,52.062
1484.00,52.067
1485.00,52.063
1486.00,52.088
1487.00,52.107
1488.00,52.124
1489.00,52.115
1490.00,52.142
1491.00,52.140
1492.00,52.149
1493.00,52.146
1494.00,52.168
1495.00,52.185
1496.00,52.181
1497.00,52.187
1498.00,52.209
1499.00,52.205
1500.00,52.248
1501.00, 
1502.00, 
1503.00, 
1504.00, 
1505.00, 
1506.00, 
1507.00, 
1508.00, 
1509.00, 
1510.00, 
1511.00, 
1512.00, 
1513.00, 
1514.00, 
1515.00, 
1516.00, 
1517.00, 
1518.00, 
1519.00, 
1520.00, 
1521.00, 
1522.00, 
1523.00, 
1524.00, 
1525.00, 
1526.00, 
1527.00, 
1528.00, 
1529.00, 
1530.00, 
1531.00, 
1532.00, 
1533.00, 
1534.00, 
1535.00, 
1536.00, 
1537.00, 
1538.00, 
1539.00, 
1540.00, 
1541.00, 
1542.00, 
1543.00, 
1544.00, 
1545.00, 
1546.00, 
1547.00, 
1548.00, 
1549.00, 
1550.00, 
1551.00, 
1552.00, 
1553.00, 
1554.00, 
1555.00, 
1556.00, 
1557.00, 
1558.00, 
1559.00, 
1560.00, 
1561.00, 
1562.00, 
1563.00, 
1564.00, 
1565.00, 
1566.00, 
1567.00, 
1568.00, 
1569.00, 
1570.00, 
1571.00, 
1572.00, 
1573.00, 
1574.00, 
1575.00, 
1576.00, 
1577.00, 
1578.00, 
1579.00, 
1580.00, 
1581.00, 
1582.00, 
1583.00, 
1584.00, 
1585.00, 
1586.00, 
1587.00, 
1588.00, 
1589.00, 
1590.00, 
1591.00, 
1592.00, 
1593.00, 
1594.00, 
1595.00, 
1596.00, 
1597.00, 
1598.00, 
1599.00, 
1600.00, 
1601.00, 
1602.00, 
1603.00, 
1604.00, 
1605.00, 
1606.00, 
1607.00, 
1608.00, 
1609.00, 
1610.00, 
1611.00, 
1612.00, 
1613.00, 
1614.00, 
1615.00, 
1616.00, 
1617.00, 
1618.00, 
1619.00, 
1620.00, 
1621.00, 
1622.00, 
1623.00, 
1624.00, 
1625.00, 
1626.00, 
1627.00, 
1628.00, 
1629.00, 
1630.00, 
1631.00, 
1632.00, 
1633.00, 
1634.00, 
1635.00, 
1636.00, 
1637.00, 
1638.00, 
1639.00, 
1640.00, 
1641.00, 
1642.00, 
1643.00, 
1644.00, 
1645.00, 
1646.00, 
1647.00, 
1648.00, 
1649.00, 
1650.00, 
1651.00, 
1652.00, 
1653.00, 
1654.00, 
1655.00, 
1656.00, 
1657.00, 
1658.00, 
1659.00, 
1660.00, 
1661.00, 
1662.00, 
1663.00, 
1664.00, 
1665.00, 
1666.00, 
1667.00, 
1668.00, 
1669.00, 
1670.00, 
1671.00, 
1672.00, 
1673.00, 
1674.00, 
1675.00, 
1676.00, 
1677.00, 
1678.00, 
1679.00, 
1680.00, 
1681.00, 
1682.00, 
1683.00, 
1684.00, 
1685.00, 
1686.00, 
1687.00, 
1688.00, 
1689.00, 
1690.00, 
1691.00, 
1692.00, 
1693.00, 
1694.00, 
1695.00, 
1696.00, 
1697.00, 
1698.00, 
1699.00, 
1700.00, 
1701.00, 
1702.00, 
1703.00, 
1704.00, 
1705.00, 
1706.00, 
1707.00, 
1708.00, 
1709.00, 
1710.00, 
1711.00, 
1712.00, 
1713.00, 
1714.00, 
1715.00, 
1716.00, 
1717.00, 
1718.00, 
1719.00, 
1720.00, 
1721.00, 
1722.00, 
1723.00, 
1724.00, 
1725.00, 
1726.00, 
1727.00, 
1728.00, 
1729.00, 
1730.00, 
1731.00, 
1732.00, 
1733.00, 
1734.00, 
1735.00, 
1736.00, 
1737.00, 
1738.00, 
1739.00, 
1740.00, 
1741.00, 
1742.00, 
1743.00, 
1744.00, 
1745.00, 
1746.00, 
1747.00, 
1748.00, 
1749.00, 
1750.00, 
1751.00, 
1752.00, 
1753.00, 
1754.00, 
1755.00, 
1756.00, 
1757.00, 
1758.00, 
1759.00, 
1760.00, 
1761.00, 
1762.00, 
1763.00, 
1764.00, 
1765.00, 
1766.00, 
1767.00, 
1768.00, 
1769.00, 
1770.00, 
1771.00, 
1772.00, 
1773.00, 
1774.00, 
1775.00, 
1776.00, 
1777.00, 
1778.00, 
1779.00, 
1780.00, 
1781.00, 
1782.00, 
1783.00, 
1784.00, 
1785.00, 
1786.00, 
1787.00, 
1788.00, 
1789.00, 
1790.00, 
1791.00, 
1792.00, 
1793.00, 
1794.00, 
1795.00, 
1796.00, 
1797.00, 
1798.00, 
1799.00, 
1800.00, 
1801.00, 
1802.00, 
1803.00, 
1804.00, 
1805.00, 
1806.00, 
1807.00, 
1808.00, 
1809.00, 
1810.00, 
1811.00, 
1812.00, 
1813.00, 
1814.00, 
1815.00, 
1816.00, 
1817.00, 
1818.00, 
1819.00, 
1820.00, 
1821.00, 
1822.00, 
1823.00, 
1824.00, 
1825.00, 
1826.00, 
1827.00, 
1828.00, 
1829.00, 
1830.00, 
1831.00, 
1832.00, 
1833.00, 
1834.00, 
1835.00, 
1836.00, 
1837.00, 
1838.00, 
1839.00, 
1840.00, 
1841.00, 
1842.00, 
1843.00, 
1844.00, 
1845.00, 
1846.00, 
1847.00, 
1848.00, 
1849.00, 
1850.00, 
1851.00, 
1852.00, 
1853.00, 
1854.00, 
1855.00, 
1856.00, 
1857.00, 
1858.00, 
1859.00, 
1860.00, 
1861.00, 
1862.00, 
1863.00, 
1864.00, 
1865.00, 
1866.00, 
1867.00, 
1868.00, 
1869.00, 
1870.00, 
1871.00, 
1872.00, 
1873.00, 
1874.00, 
1875.00, 
1876.00, 
1877.00, 
1878.00, 
1879.00, 
1880.00, 
1881.00, 
1882.00, 
1883.00, 
1884.00, 
1885.00, 
1886.00, 
1887.00, 
1888.00, 
1889.00, 
1890.00, 
1891.00, 
1892.00, 
1893.00, 
1894.00, 
1895.00, 
1896.00, 
1897.00, 
1898.00, 
1899.00, 
1900.00, 
1901.00, 
1902.00, 
1903.00, 
1904.00, 
1905.00, 
1906.00, 
1907.00, 
1908.00, 
1909.00, 
1910.00, 
1911.00, 
1912.00, 
1913.00, 
1914.00, 
1915.00, 
1916.00, 
1917.00, 
1918.00, 
1919.00, 
1920.00, 
1921.00, 
1922.00, 
1923.00, 
1924.00, 
1925.00, 
1926.00, 
1927.00, 
1928.00, 
1929.00, 
1930.00, 
1931.00, 
1932.00, 
1933.00, 
1934.00, 
1935.00, 
1936.00, 
1937.00, 
1938.00, 
1939.00, 
1940.00, 
1941.00, 
1942.00, 
1943.00, 
1944.00, 
1945.00, 
1946.00, 
1947.00, 
1948.00, 
1949.00, 
1950.00, 
1951.00, 
1952.00, 
1953.00, 
1954.00, 
1955.00, 
1956.00, 
1957.00, 
1958.00, 
1959.00, 
1960.00, 
1961.00, 
1962.00, 
1963.00, 
1964.00, 
1965.00, 
1966.00, 
1967.00, 
1968.00, 
1969.00, 
1970.00, 
1971.00, 
1972.00, 
1973.00, 
1974.00, 
1975.00, 
1976.00, 
1977.00, 
1978.00, 
1979.00, 
1980.00, 
1981.00, 
1982.00, 
1983.00, 
1984.00, 
1985.00, 
1986.00, 
1987.00, 
1988.00, 
1989.00, 
1990.00, 
1991.00, 
1992.00, 
1993.00, 
1994.00, 
1995.00, 
1996.00, 
1997.00, 
1998.00, 
1999.00, 
2000.00, 
2001.00, 
2002.00, 
2003.00, 
2004.00, 
2005.00, 
2006.00, 
2007.00, 
2008.00, 
2009.00, 
2010.00, 
2011.00, 
2012.00, 
2013.00, 
2014.00, 
2015.00, 
2016.00, 
2017.00, 
2018.00, 
2019.00, 
2020.00, 
2021.00, 
2022.00, 
2023.00, 
2024.00, 
2025.00, 
2026.00, 
2027.00, 
2028.00, 
2029.00, 
2030.00, 
2031.00, 
2032.00, 
2033.00, 
2034.00, 
2035.00, 
2036.00, 
2037.00, 
2038.00, 
2039.00, 
2040.00, 
2041.00, 
2042.00, 
2043.00, 
2044.00, 
2045.00, 
2046.00, 
2047.00, 
2048.00, 
2049.00, 
2050.00, 
2051.00, 
2052.00, 
2053.00, 
2054.00, 
2055.00, 
2056.00, 
2057.00, 
2058.00, 
2059.00, 
2060.00, 
2061.00, 
2062.00, 
2063.00, 
2064.00, 
2065.00, 
2066.00, 
2067.00, 
2068.00, 
2069.00, 
2070.00, 
2071.00, 
2072.00, 
2073.00, 
2074.00, 
2075.00, 
2076.00, 
2077.00, 
2078.00, 
2079.00, 
2080.00, 
2081.00, 
2082.00, 
2083.00, 
2084.00, 
2085.00, 
2086.00, 
2087.00, 
2088.00, 
2089.00, 
2090.00, 
2091.00, 
2092.00, 
2093.00, 
2094.00, 
2095.00, 
2096.00, 
2097.00, 
2098.00, 
2099.00, 
2100.00, 
2101.00, 
2102.00, 
2103.00, 
2104.00, 
2105.00, 
2106.00, 
2107.00, 
2108.00, 
2109.00, 
2110.00, 
2111.00, 
2112.00, 
2113.00, 
2114.00, 
2115.00, 
2116.00, 
2117.00, 
2118.00, 
2119.00, 
2120.00, 
2121.00, 
2122.00, 
2123.00, 
2124.00, 
2125.00, 
2126.00, 
2127.00, 
2128.00, 
2129.00, 
2130.00, 
2131.00, 
2132.00, 
2133.00, 
2134.00, 
2135.00, 
2136.00, 
2137.00, 
2138.00, 
2139.00, 
2140.00, 
2141.00, 
2142.00, 
2143.00, 
2144.00, 
2145.00, 
2146.00, 
2147.00, 
2148.00, 
2149.00, 
2150.00, 
2151.00, 
2152.00, 
2153.00, 
2154.00, 
2155.00, 
2156.00, 
2157.00, 
2158.00, 
2159.00, 
2160.00, 
2161.00, 
2162.00, 
2163.00, 
2164.00, 
2165.00, 
2166.00, 
2167.00, 
2168.00, 
2169.00, 
2170.00, 
2171.00, 
2172.00, 
2173.00, 
2174.00, 
2175.00, 
2176.00, 
2177.00, 
2178.00, 
2179.00, 
2180.00, 
2181.00, 
2182.00, 
2183.00, 
2184.00, 
2185.00, 
2186.00, 
2187.00, 
2188.00, 
2189.00, 
2190.00, 
2191.00, 
2192.00, 
2193.00, 
2194.00, 
2195.00, 
2196.00, 
2197.00, 
2198.00, 
2199.00, 
2200.00, 
2201.00, 
2202.00, 
2203.00, 
2204.00, 
2205.00, 
2206.00, 
2207.00, 
2208.00, 
2209.00, 
2210.00, 
2211.00, 
2212.00, 
2213.00, 
2214.00, 
2215.00, 
2216.00, 
2217.00, 
2218.00, 
2219.00, 
2220.00, 
2221.00, 
2222.00, 
2223.00, 
2224.00, 
2225.00, 
2226.00, 
2227.00, 
2228.00, 
2229.00, 
2230.00, 
2231.00, 
2232.00, 
2233.00, 
2234.00, 
2235.00, 
2236.00, 
2237.00, 
2238.00, 
2239.00, 
2240.00, 
2241.00, 
2242.00, 
2243.00, 
2244.00, 
2245.00, 
2246.00, 
2247.00, 
2248.00, 
2249.00, 
2250.00, 
2251.00, 
2252.00, 
2253.00, 
2254.00, 
2255.00, 
2256.00, 
2257.00, 
2258.00, 
2259.00, 
2260.00, 
2261.00, 
2262.00, 
2263.00, 
2264.00, 
2265.00, 
2266.00, 
2267.00, 
2268.00, 
2269.00, 
2270.00, 
2271.00, 
2272.00, 
2273.00, 
2274.00, 
2275.00, 
2276.00, 
2277.00, 
2278.00, 
2279.00, 
2280.00, 
2281.00, 
2282.00, 
2283.00, 
2284.00, 
2285.00, 
2286.00, 
2287.00, 
2288.00, 
2289.00, 
2290.00, 
2291.00, 
2292.00, 
2293.00, 
2294.00, 
2295.00, 
2296.00, 
2297.00, 
2298.00, 
2299.00, 
2300.00, 
2301.00, 
2302.00, 
2303.00, 
2304.00, 
2305.00, 
2306.00, 
2307.00, 
2308.00, 
2309.00, 
2310.00, 
2311.00, 
2312.00, 
2313.00, 
2314.00, 
2315.00, 
2316.00, 
2317.00, 
2318.00, 
2319.00, 
2320.00, 
2321.00, 
2322.00, 
2323.00, 
2324.00, 
2325.00, 
2326.00, 
2327.00, 
2328.00, 
2329.00, 
2330.00, 
2331.00, 
2332.00, 
2333.00, 
2334.00, 
2335.00, 
2336.00, 
2337.00, 
2338.00, 
2339.00, 
2340.00, 
2341.00, 
2342.00, 
2343.00, 
2344.00, 
2345.00, 
2346.00, 
2347.00, 
2348.00, 
2349.00, 
2350.00, 
2351.00, 
2352.00, 
2353.00, 
2354.00, 
2355.00, 
2356.00, 
2357.00, 
2358.00, 
2359.00, 
2360.00, 
2361.00, 
2362.00, 
2363.00, 
2364.00, 
2365.00, 
2366.00, 
2367.00, 
2368.00, 
2369.00, 
2370.00, 
2371.00, 
2372.00, 
2373.00, 
2374.00, 
2375.00, 
2376.00, 
2377.00, 
2378.00, 
2379.00, 
2380.00, 
2381.00, 
2382.00, 
2383.00, 
2384.00, 
2385.00, 
2386.00, 
2387.00, 
2388.00, 
2389.00, 
2390.00, 
2391.00, 
2392.00, 
2393.00, 
2394.00, 
2395.00, 
2396.00, 
2397.00, 
2398.00, 
2399.00, 
2400.00, 
2401.00, 
2402.00, 
2403.00, 
2404.00, 
2405.00, 
2406.00, 
2407.00, 
2408.00, 
2409.00, 
2410.00, 
2411.00, 
2412.00, 
2413.00, 
2414.00, 
2415.00, 
2416.00, 
2417.00, 
2418.00, 
2419.00, 
2420.00, 
2421.00, 
2422.00, 
2423.00, 
2424.00, 
2425.00, 
2426.00, 
2427.00, 
2428.00, 
2429.00, 
2430.00, 
2431.00, 
2432.00, 
2433.00, 
2434.00, 
2435.00, 
2436.00, 
2437.00, 
2438.00, 
2439.00, 
2440.00, 
2441.00, 
2442.00, 
2443.00, 
2444.00, 
2445.00, 
2446.00, 
2447.00, 
2448.00, 
2449.00, 
2450.00, 
2451.00, 
2452.00, 
2453.00, 
2454.00, 
2455.00, 
2456.00, 
2457.00, 
2458.00, 
2459.00, 
2460.00, 
2461.00, 
2462.00, 
2463.00, 
2464.00, 
2465.00, 
2466.00, 
2467.00, 
2468.00, 
2469.00, 
2470.00, 
2471.00, 
2472.00, 
2473.00, 
2474.00, 
2475.00, 
2476.00, 
2477.00, 
2478.00, 
2479.00, 
2480.00, 
2481.00, 
2482.00, 
2483.00, 
2484.00, 
2485.00, 
2486.00, 
2487.00, 
2488.00, 
2489.00, 
2490.00, 
2491.00, 
2492.00, 
2493.00, 
2494.00, 
2495.00, 
2496.00, 
2497.00, 
2498.00, 
2499.00, 
2500.00, 
2501.00, 
2502.00, 
2503.00, 
2504.00, 
2505.00, 
2506.00, 
2507.00, 
2508.00, 
2509.00, 
2510.00, 
2511.00, 
2512.00, 
2513.00, 
2514.00, 
2515.00, 
2516.00, 
2517.00, 
2518.00, 
2519.00, 
2520.00, 
2521.00, 
2522.00, 
2523.00, 
2524.00, 
2525.00, 
2526.00, 
2527.00, 
2528.00, 
2529.00, 
2530.00, 
2531.00, 
2532.00, 
2533.00, 
2534.00, 
2535.00, 
2536.00, 
2537.00, 
2538.00, 
2539.00, 
2540.00, 
2541.00, 
2542.00, 
2543.00, 
2544.00, 
2545.00, 
2546.00, 
2547.00, 
2548.00, 
2549.00, 
2550.00, 
2551.00, 
2552.00, 
2553.00, 
2554.00, 
2555.00, 
2556.00, 
2557.00, 
2558.00, 
2559.00, 
2560.00, 
2561.00, 
2562.00, 
2563.00, 
2564.00, 
2565.00, 
2566.00, 
2567.00, 
2568.00, 
2569.00, 
2570.00, 
2571.00, 
2572.00, 
2573.00, 
2574.00, 
2575.00, 
2576.00, 
2577.00, 
2578.00, 
2579.00, 
2580.00, 
2581.00, 
2582.00, 
2583.00, 
2584.00, 
2585.00, 
2586.00, 
2587.00, 
2588.00, 
2589.00, 
2590.00, 
2591.00, 
2592.00, 
2593.00, 
2594.00, 
2595.00, 
2596.00, 
2597.00, 
2598.00, 
2599.00, 
2600.00, 
