"1aP2 - RawData"
"Wavelength nm.","T%"
200.00,0.002
201.00,0.002
202.00,0.001
203.00,0.004
204.00,0.003
205.00,-0.000
206.00,0.002
207.00,-0.003
208.00,-0.001
209.00,0.004
210.00,-0.002
211.00,0.002
212.00,0.002
213.00,0.001
214.00,0.001
215.00,-0.000
216.00,-0.004
217.00,-0.002
218.00,0.000
219.00,0.001
220.00,-0.000
221.00,0.001
222.00,0.000
223.00,0.001
224.00,0.003
225.00,0.000
226.00,0.001
227.00,0.000
228.00,0.001
229.00,-0.001
230.00,0.000
231.00,-0.001
232.00,0.001
233.00,0.000
234.00,0.001
235.00,0.002
236.00,0.000
237.00,0.002
238.00,0.000
239.00,-0.001
240.00,0.000
241.00,0.001
242.00,-0.001
243.00,0.001
244.00,0.000
245.00,0.000
246.00,0.001
247.00,-0.001
248.00,-0.001
249.00,0.001
250.00,-0.000
251.00,0.001
252.00,-0.000
253.00,-0.000
254.00,0.001
255.00,-0.000
256.00,-0.000
257.00,0.002
258.00,-0.000
259.00,-0.001
260.00,-0.001
261.00,-0.000
262.00,0.002
263.00,-0.001
264.00,0.001
265.00,-0.000
266.00,0.001
267.00,-0.000
268.00,0.000
269.00,0.000
270.00,-0.001
271.00,0.000
272.00,0.001
273.00,0.000
274.00,-0.001
275.00,0.000
276.00,0.000
277.00,0.001
278.00,-0.000
279.00,-0.001
280.00,0.001
281.00,0.000
282.00,0.000
283.00,0.001
284.00,-0.001
285.00,-0.001
286.00,0.002
287.00,-0.002
288.00,-0.002
289.00,0.000
290.00,-0.001
291.00,0.000
292.00,-0.001
293.00,0.001
294.00,-0.001
295.00,0.001
296.00,-0.000
297.00,-0.000
298.00,0.002
299.00,0.003
300.00,0.005
301.00,0.004
302.00,0.007
303.00,0.013
304.00,0.020
305.00,0.031
306.00,0.047
307.00,0.070
308.00,0.105
309.00,0.165
310.00,0.227
311.00,0.307
312.00,0.422
313.00,0.563
314.00,0.738
315.00,0.953
316.00,1.193
317.00,1.514
318.00,1.839
319.00,2.257
320.00,2.723
321.00,3.213
322.00,3.784
323.00,4.410
324.00,5.087
325.00,5.760
326.00,6.442
327.00,7.216
328.00,8.005
329.00,8.781
330.00,9.653
331.00,10.461
332.00,11.286
333.00,12.163
334.00,12.956
335.00,13.849
336.00,14.639
337.00,15.485
338.00,16.292
339.00,17.031
340.00,17.806
341.00,18.478
342.00,19.199
343.00,19.886
344.00,20.462
345.00,21.106
346.00,21.638
347.00,22.143
348.00,22.620
349.00,23.094
350.00,23.509
351.00,23.924
352.00,24.309
353.00,24.657
354.00,24.986
355.00,25.263
356.00,25.523
357.00,25.780
358.00,26.033
359.00,26.275
360.00,26.517
361.00,26.631
362.00,26.779
363.00,26.934
364.00,27.101
365.00,27.243
366.00,27.345
367.00,27.370
368.00,27.455
369.00,27.481
370.00,27.563
371.00,27.564
372.00,27.588
373.00,27.547
374.00,27.589
375.00,27.553
376.00,27.459
377.00,27.446
378.00,27.345
379.00,27.243
380.00,27.213
381.00,27.244
382.00,27.238
383.00,27.260
384.00,27.263
385.00,27.339
386.00,27.333
387.00,27.383
388.00,27.439
389.00,27.451
390.00,27.504
391.00,27.516
392.00,27.575
393.00,27.554
394.00,27.572
395.00,27.631
396.00,27.599
397.00,27.668
398.00,27.612
399.00,27.652
400.00,27.615
401.00,27.659
402.00,27.637
403.00,27.587
404.00,27.648
405.00,27.627
406.00,27.608
407.00,27.534
408.00,27.537
409.00,27.499
410.00,27.427
411.00,27.483
412.00,27.401
413.00,27.455
414.00,27.436
415.00,27.389
416.00,27.479
417.00,27.427
418.00,27.486
419.00,27.552
420.00,27.572
421.00,27.646
422.00,27.649
423.00,27.675
424.00,27.762
425.00,27.746
426.00,27.797
427.00,27.862
428.00,27.866
429.00,27.925
430.00,27.942
431.00,28.043
432.00,28.082
433.00,28.130
434.00,28.176
435.00,28.276
436.00,28.343
437.00,28.394
438.00,28.470
439.00,28.505
440.00,28.589
441.00,28.677
442.00,28.736
443.00,28.792
444.00,28.910
445.00,28.995
446.00,29.107
447.00,29.137
448.00,29.223
449.00,29.338
450.00,29.529
451.00,29.632
452.00,29.734
453.00,29.814
454.00,29.926
455.00,30.007
456.00,30.131
457.00,30.263
458.00,30.317
459.00,30.492
460.00,30.583
461.00,30.759
462.00,30.834
463.00,30.958
464.00,31.149
465.00,31.219
466.00,31.354
467.00,31.490
468.00,31.603
469.00,31.701
470.00,31.814
471.00,31.904
472.00,31.993
473.00,32.090
474.00,32.192
475.00,32.295
476.00,32.411
477.00,32.509
478.00,32.588
479.00,32.772
480.00,32.961
481.00,33.024
482.00,33.242
483.00,33.348
484.00,33.524
485.00,33.726
486.00,33.849
487.00,33.922
488.00,34.052
489.00,34.242
490.00,34.368
491.00,34.485
492.00,34.739
493.00,34.833
494.00,34.831
495.00,34.955
496.00,35.103
497.00,35.228
498.00,35.351
499.00,35.451
500.00,35.619
501.00,35.689
502.00,35.796
503.00,35.969
504.00,36.006
505.00,36.117
506.00,36.229
507.00,36.335
508.00,36.452
509.00,36.560
510.00,36.706
511.00,36.776
512.00,36.890
513.00,37.107
514.00,37.196
515.00,37.296
516.00,37.423
517.00,37.518
518.00,37.652
519.00,37.723
520.00,37.734
521.00,37.819
522.00,37.928
523.00,37.942
524.00,38.036
525.00,38.127
526.00,38.218
527.00,38.266
528.00,38.368
529.00,38.479
530.00,38.577
531.00,38.739
532.00,38.794
533.00,38.872
534.00,38.886
535.00,39.077
536.00,39.107
537.00,39.153
538.00,39.204
539.00,39.217
540.00,39.309
541.00,39.359
542.00,39.369
543.00,39.424
544.00,39.512
545.00,39.529
546.00,39.519
547.00,39.633
548.00,39.683
549.00,39.813
550.00,39.948
551.00,40.022
552.00,40.103
553.00,40.121
554.00,40.248
555.00,40.234
556.00,40.368
557.00,40.410
558.00,40.405
559.00,40.447
560.00,40.527
561.00,40.579
562.00,40.621
563.00,40.691
564.00,40.688
565.00,40.714
566.00,40.731
567.00,40.774
568.00,40.768
569.00,40.842
570.00,40.850
571.00,40.930
572.00,40.965
573.00,40.906
574.00,40.983
575.00,40.972
576.00,40.980
577.00,41.023
578.00,41.060
579.00,41.164
580.00,41.162
581.00,41.286
582.00,41.384
583.00,41.405
584.00,41.517
585.00,41.509
586.00,41.559
587.00,41.611
588.00,41.669
589.00,41.595
590.00,41.658
591.00,41.710
592.00,41.629
593.00,41.718
594.00,41.703
595.00,41.858
596.00,41.923
597.00,41.969
598.00,42.072
599.00,42.077
600.00,42.091
601.00,42.109
602.00,42.121
603.00,42.127
604.00,42.167
605.00,42.215
606.00,42.296
607.00,42.287
608.00,42.388
609.00,42.460
610.00,42.365
611.00,42.434
612.00,42.463
613.00,42.494
614.00,42.527
615.00,42.593
616.00,42.710
617.00,42.748
618.00,42.747
619.00,42.794
620.00,42.807
621.00,42.806
622.00,42.853
623.00,43.010
624.00,43.018
625.00,43.057
626.00,43.158
627.00,43.158
628.00,43.168
629.00,43.237
630.00,43.227
631.00,43.249
632.00,43.330
633.00,43.501
634.00,43.506
635.00,43.477
636.00,43.584
637.00,43.792
638.00,43.801
639.00,43.846
640.00,43.867
641.00,43.944
642.00,43.962
643.00,44.066
644.00,44.210
645.00,44.158
646.00,44.319
647.00,44.384
648.00,44.390
649.00,44.486
650.00,44.482
651.00,44.559
652.00,44.683
653.00,44.734
654.00,44.692
655.00,44.801
656.00,45.033
657.00,44.984
658.00,45.051
659.00,45.173
660.00,44.997
661.00,45.390
662.00,45.300
663.00,45.393
664.00,45.574
665.00,45.733
666.00,45.656
667.00,45.815
668.00,45.782
669.00,45.937
670.00,46.140
671.00,46.122
672.00,46.197
673.00,46.291
674.00,46.358
675.00,46.297
676.00,46.549
677.00,46.628
678.00,46.540
679.00,46.644
680.00,46.704
681.00,46.862
682.00,46.881
683.00,47.024
684.00,47.098
685.00,47.158
686.00,47.068
687.00,47.190
688.00,47.243
689.00,47.203
690.00,47.405
691.00,47.679
692.00,47.488
693.00,47.532
694.00,47.588
695.00,47.646
696.00,47.853
697.00,47.854
698.00,47.883
699.00,48.159
700.00,47.873
701.00,48.197
702.00,48.464
703.00,48.394
704.00,48.426
705.00,48.240
706.00,48.546
707.00,48.413
708.00,48.499
709.00,48.944
710.00,48.821
711.00,48.580
712.00,48.675
713.00,48.915
714.00,48.874
715.00,49.031
716.00,49.016
717.00,49.098
718.00,49.195
719.00,49.172
720.00,49.202
721.00,53.610
722.00,53.651
723.00,53.652
724.00,53.646
725.00,53.666
726.00,53.642
727.00,53.648
728.00,53.709
729.00,53.765
730.00,53.747
731.00,53.770
732.00,53.742
733.00,53.809
734.00,53.864
735.00,53.849
736.00,53.808
737.00,53.886
738.00,53.923
739.00,53.887
740.00,53.976
741.00,53.962
742.00,53.948
743.00,53.957
744.00,53.945
745.00,53.977
746.00,53.939
747.00,53.987
748.00,53.888
749.00,53.942
750.00,53.872
751.00,53.937
752.00,53.929
753.00,53.937
754.00,53.891
755.00,53.889
756.00,53.931
757.00,53.932
758.00,53.934
759.00,53.907
760.00,53.910
761.00,53.974
762.00,53.939
763.00,53.971
764.00,53.984
765.00,53.998
766.00,53.875
767.00,54.010
768.00,53.933
769.00,53.963
770.00,53.949
771.00,53.923
772.00,53.963
773.00,54.012
774.00,53.937
775.00,53.991
776.00,53.943
777.00,53.981
778.00,54.011
779.00,54.039
780.00,53.995
781.00,53.977
782.00,53.946
783.00,53.934
784.00,54.049
785.00,53.807
786.00,53.956
787.00,53.920
788.00,53.974
789.00,53.943
790.00,53.872
791.00,53.968
792.00,53.792
793.00,53.857
794.00,53.790
795.00,53.742
796.00,53.778
797.00,53.752
798.00,53.769
799.00,53.644
800.00,53.726
801.00,53.780
802.00,53.766
803.00,53.689
804.00,53.680
805.00,53.666
806.00,53.626
807.00,53.632
808.00,53.691
809.00,53.581
810.00,53.550
811.00,53.615
812.00,53.553
813.00,53.506
814.00,53.639
815.00,53.540
816.00,53.551
817.00,53.558
818.00,53.357
819.00,53.579
820.00,53.383
821.00,53.456
822.00,53.420
823.00,53.348
824.00,53.405
825.00,53.337
826.00,53.359
827.00,53.444
828.00,53.366
829.00,53.425
830.00,53.448
831.00,55.895
832.00,55.842
833.00,55.789
834.00,55.781
835.00,55.771
836.00,55.790
837.00,55.740
838.00,55.712
839.00,55.793
840.00,55.630
841.00,55.669
842.00,55.642
843.00,55.669
844.00,55.642
845.00,55.622
846.00,55.645
847.00,55.579
848.00,55.583
849.00,55.481
850.00,55.518
851.00,55.445
852.00,55.448
853.00,55.386
854.00,55.360
855.00,55.322
856.00,55.344
857.00,55.298
858.00,55.246
859.00,55.267
860.00,55.293
861.00,55.265
862.00,55.216
863.00,55.235
864.00,55.170
865.00,55.223
866.00,55.183
867.00,55.193
868.00,55.199
869.00,55.165
870.00,55.168
871.00,55.140
872.00,55.166
873.00,55.110
874.00,55.155
875.00,55.068
876.00,55.120
877.00,55.038
878.00,55.139
879.00,55.051
880.00,55.031
881.00,55.016
882.00,55.053
883.00,55.023
884.00,54.943
885.00,54.985
886.00,54.978
887.00,54.929
888.00,54.905
889.00,54.904
890.00,54.917
891.00,54.877
892.00,54.841
893.00,54.746
894.00,54.940
895.00,54.785
896.00,54.786
897.00,54.748
898.00,54.769
899.00,54.620
900.00,54.713
901.00,54.696
902.00,54.744
903.00,54.694
904.00,54.687
905.00,54.656
906.00,54.655
907.00,54.625
908.00,54.580
909.00,54.585
910.00,54.528
911.00,54.511
912.00,54.514
913.00,54.581
914.00,54.465
915.00,54.452
916.00,54.412
917.00,54.389
918.00,54.415
919.00,54.384
920.00,54.353
921.00,54.366
922.00,54.340
923.00,54.331
924.00,54.269
925.00,54.281
926.00,54.269
927.00,54.281
928.00,54.236
929.00,54.241
930.00,54.206
931.00,54.190
932.00,54.135
933.00,54.167
934.00,54.125
935.00,54.128
936.00,54.080
937.00,54.083
938.00,54.089
939.00,54.060
940.00,54.032
941.00,54.040
942.00,54.018
943.00,53.987
944.00,53.945
945.00,53.947
946.00,53.972
947.00,53.912
948.00,53.888
949.00,53.879
950.00,53.854
951.00,53.843
952.00,53.814
953.00,53.781
954.00,53.761
955.00,53.720
956.00,53.722
957.00,53.677
958.00,53.687
959.00,53.639
960.00,53.632
961.00,53.627
962.00,53.634
963.00,53.590
964.00,53.593
965.00,53.589
966.00,53.569
967.00,53.557
968.00,53.546
969.00,53.562
970.00,53.534
971.00,53.567
972.00,53.506
973.00,53.566
974.00,53.585
975.00,53.539
976.00,53.568
977.00,53.556
978.00,53.587
979.00,53.545
980.00,53.553
981.00,53.565
982.00,53.524
983.00,53.539
984.00,53.529
985.00,53.558
986.00,53.520
987.00,53.534
988.00,53.512
989.00,53.489
990.00,53.496
991.00,53.461
992.00,53.479
993.00,53.441
994.00,53.428
995.00,53.427
996.00,53.415
997.00,53.411
998.00,53.377
999.00,53.406
1000.00,53.368
1001.00,53.358
1002.00,53.347
1003.00,53.349
1004.00,53.330
1005.00,53.288
1006.00,53.332
1007.00,53.292
1008.00,53.276
1009.00,53.277
1010.00,53.263
1011.00,53.250
1012.00,53.226
1013.00,53.241
1014.00,53.221
1015.00,53.223
1016.00,53.174
1017.00,53.169
1018.00,53.176
1019.00,53.137
1020.00,53.131
1021.00,53.114
1022.00,53.115
1023.00,53.058
1024.00,53.060
1025.00,53.063
1026.00,53.046
1027.00,53.037
1028.00,53.031
1029.00,53.027
1030.00,52.989
1031.00,53.007
1032.00,52.965
1033.00,52.947
1034.00,52.924
1035.00,52.885
1036.00,52.879
1037.00,52.871
1038.00,52.846
1039.00,52.828
1040.00,52.824
1041.00,52.781
1042.00,52.776
1043.00,52.749
1044.00,52.778
1045.00,52.773
1046.00,52.753
1047.00,52.775
1048.00,52.792
1049.00,52.793
1050.00,52.789
1051.00,52.843
1052.00,52.831
1053.00,52.833
1054.00,52.833
1055.00,52.841
1056.00,52.873
1057.00,52.856
1058.00,52.864
1059.00,52.847
1060.00,52.880
1061.00,52.859
1062.00,52.846
1063.00,52.844
1064.00,52.843
1065.00,52.823
1066.00,52.822
1067.00,52.817
1068.00,52.831
1069.00,52.787
1070.00,52.820
1071.00,52.827
1072.00,52.809
1073.00,52.776
1074.00,52.768
1075.00,52.747
1076.00,52.754
1077.00,52.747
1078.00,52.732
1079.00,52.731
1080.00,52.730
1081.00,52.729
1082.00,52.714
1083.00,52.710
1084.00,52.707
1085.00,52.727
1086.00,52.715
1087.00,52.698
1088.00,52.674
1089.00,52.666
1090.00,52.670
1091.00,52.684
1092.00,52.670
1093.00,52.643
1094.00,52.627
1095.00,52.630
1096.00,52.602
1097.00,52.595
1098.00,52.590
1099.00,52.578
1100.00,52.568
1101.00,52.561
1102.00,52.574
1103.00,52.581
1104.00,52.553
1105.00,52.559
1106.00,52.545
1107.00,52.543
1108.00,52.532
1109.00,52.525
1110.00,52.517
1111.00,52.505
1112.00,52.477
1113.00,52.490
1114.00,52.482
1115.00,52.476
1116.00,52.478
1117.00,52.459
1118.00,52.443
1119.00,52.444
1120.00,52.429
1121.00,52.449
1122.00,52.435
1123.00,52.416
1124.00,52.426
1125.00,52.424
1126.00,52.400
1127.00,52.408
1128.00,52.393
1129.00,52.374
1130.00,52.350
1131.00,52.376
1132.00,52.340
1133.00,52.352
1134.00,52.352
1135.00,52.345
1136.00,52.340
1137.00,52.348
1138.00,52.354
1139.00,52.362
1140.00,52.349
1141.00,52.336
1142.00,52.333
1143.00,52.352
1144.00,52.323
1145.00,52.305
1146.00,52.314
1147.00,52.306
1148.00,52.290
1149.00,52.314
1150.00,52.312
1151.00,52.313
1152.00,52.296
1153.00,52.302
1154.00,52.288
1155.00,52.290
1156.00,52.289
1157.00,52.305
1158.00,52.281
1159.00,52.272
1160.00,52.266
1161.00,52.280
1162.00,52.273
1163.00,52.269
1164.00,52.283
1165.00,52.280
1166.00,52.293
1167.00,52.267
1168.00,52.306
1169.00,52.283
1170.00,52.276
1171.00,52.266
1172.00,52.272
1173.00,52.260
1174.00,52.272
1175.00,52.270
1176.00,52.262
1177.00,52.263
1178.00,52.250
1179.00,52.274
1180.00,52.268
1181.00,52.285
1182.00,52.274
1183.00,52.281
1184.00,52.261
1185.00,52.275
1186.00,52.273
1187.00,52.274
1188.00,52.274
1189.00,52.265
1190.00,52.264
1191.00,52.253
1192.00,52.273
1193.00,52.254
1194.00,52.264
1195.00,52.241
1196.00,52.272
1197.00,52.285
1198.00,52.271
1199.00,52.289
1200.00,52.276
1201.00,52.307
1202.00,52.278
1203.00,52.268
1204.00,52.262
1205.00,52.277
1206.00,52.265
1207.00,52.258
1208.00,52.260
1209.00,52.270
1210.00,52.269
1211.00,52.263
1212.00,52.289
1213.00,52.251
1214.00,52.259
1215.00,52.259
1216.00,52.276
1217.00,52.279
1218.00,52.275
1219.00,52.286
1220.00,52.282
1221.00,52.292
1222.00,52.282
1223.00,52.342
1224.00,52.306
1225.00,52.273
1226.00,52.277
1227.00,52.275
1228.00,52.290
1229.00,52.280
1230.00,52.312
1231.00,52.307
1232.00,52.320
1233.00,52.326
1234.00,52.323
1235.00,52.332
1236.00,52.317
1237.00,52.322
1238.00,52.309
1239.00,52.320
1240.00,52.299
1241.00,52.315
1242.00,52.319
1243.00,52.330
1244.00,52.313
1245.00,52.353
1246.00,52.361
1247.00,52.342
1248.00,52.344
1249.00,52.354
1250.00,52.349
1251.00,52.319
1252.00,52.343
1253.00,52.328
1254.00,52.359
1255.00,52.344
1256.00,52.345
1257.00,52.369
1258.00,52.376
1259.00,52.378
1260.00,52.390
1261.00,52.390
1262.00,52.379
1263.00,52.386
1264.00,52.396
1265.00,52.413
1266.00,52.402
1267.00,52.433
1268.00,52.432
1269.00,52.416
1270.00,52.447
1271.00,52.458
1272.00,52.460
1273.00,52.479
1274.00,52.483
1275.00,52.481
1276.00,52.470
1277.00,52.471
1278.00,52.490
1279.00,52.494
1280.00,52.469
1281.00,52.506
1282.00,52.492
1283.00,52.509
1284.00,52.462
1285.00,52.489
1286.00,52.500
1287.00,52.502
1288.00,52.507
1289.00,52.518
1290.00,52.549
1291.00,52.545
1292.00,52.548
1293.00,52.562
1294.00,52.576
1295.00,52.573
1296.00,52.583
1297.00,52.584
1298.00,52.622
1299.00,52.585
1300.00,52.617
1301.00,52.619
1302.00,52.623
1303.00,52.621
1304.00,52.619
1305.00,52.633
1306.00,52.628
1307.00,52.634
1308.00,52.643
1309.00,52.645
1310.00,52.628
1311.00,52.627
1312.00,52.633
1313.00,52.634
1314.00,52.674
1315.00,52.697
1316.00,52.692
1317.00,52.716
1318.00,52.718
1319.00,52.720
1320.00,52.720
1321.00,52.895
1322.00,52.872
1323.00,52.850
1324.00,52.845
1325.00,52.835
1326.00,52.843
1327.00,52.840
1328.00,52.837
1329.00,52.824
1330.00,52.864
1331.00,52.835
1332.00,52.838
1333.00,52.865
1334.00,52.876
1335.00,52.894
1336.00,52.933
1337.00,52.954
1338.00,53.007
1339.00,53.058
1340.00,53.089
1341.00,53.177
1342.00,53.219
1343.00,53.271
1344.00,53.329
1345.00,53.373
1346.00,53.417
1347.00,53.450
1348.00,53.454
1349.00,53.507
1350.00,53.487
1351.00,53.543
1352.00,53.563
1353.00,53.539
1354.00,53.536
1355.00,53.486
1356.00,53.579
1357.00,53.533
1358.00,53.526
1359.00,53.570
1360.00,53.541
1361.00,53.677
1362.00,53.485
1363.00,53.656
1364.00,53.732
1365.00,53.598
1366.00,53.615
1367.00,53.620
1368.00,53.499
1369.00,53.602
1370.00,53.593
1371.00,53.525
1372.00,53.541
1373.00,53.569
1374.00,53.586
1375.00,53.568
1376.00,53.539
1377.00,53.521
1378.00,53.539
1379.00,53.604
1380.00,53.583
1381.00,53.623
1382.00,53.605
1383.00,53.611
1384.00,53.534
1385.00,53.496
1386.00,53.601
1387.00,53.553
1388.00,53.446
1389.00,53.383
1390.00,53.491
1391.00,53.589
1392.00,53.517
1393.00,53.439
1394.00,53.564
1395.00,53.526
1396.00,53.380
1397.00,53.463
1398.00,53.516
1399.00,53.549
1400.00,53.547
1401.00,53.495
1402.00,53.557
1403.00,53.571
1404.00,53.556
1405.00,53.565
1406.00,53.564
1407.00,53.571
1408.00,53.663
1409.00,53.576
1410.00,53.619
1411.00,53.553
1412.00,53.673
1413.00,53.627
1414.00,53.588
1415.00,53.624
1416.00,53.676
1417.00,53.703
1418.00,53.664
1419.00,53.702
1420.00,53.681
1421.00,53.733
1422.00,53.733
1423.00,53.755
1424.00,53.757
1425.00,53.766
1426.00,53.770
1427.00,53.795
1428.00,53.788
1429.00,53.809
1430.00,53.801
1431.00,53.828
1432.00,53.821
1433.00,53.853
1434.00,53.830
1435.00,53.879
1436.00,53.900
1437.00,53.874
1438.00,53.902
1439.00,53.914
1440.00,53.937
1441.00,53.951
1442.00,53.955
1443.00,54.000
1444.00,54.121
1445.00,54.069
1446.00,54.048
1447.00,54.048
1448.00,54.074
1449.00,54.078
1450.00,54.094
1451.00,54.098
1452.00,54.108
1453.00,54.120
1454.00,54.156
1455.00,54.178
1456.00,54.183
1457.00,54.214
1458.00,54.208
1459.00,54.222
1460.00,54.263
1461.00,54.224
1462.00,54.269
1463.00,54.279
1464.00,54.275
1465.00,54.306
1466.00,54.302
1467.00,54.324
1468.00,54.395
1469.00,54.339
1470.00,54.366
1471.00,54.378
1472.00,54.376
1473.00,54.402
1474.00,54.423
1475.00,54.433
1476.00,54.456
1477.00,54.453
1478.00,54.480
1479.00,54.503
1480.00,54.498
1481.00,54.498
1482.00,54.533
1483.00,54.522
1484.00,54.545
1485.00,54.536
1486.00,54.544
1487.00,54.593
1488.00,54.600
1489.00,54.598
1490.00,54.631
1491.00,54.619
1492.00,54.658
1493.00,54.616
1494.00,54.652
1495.00,54.642
1496.00,54.658
1497.00,54.655
1498.00,54.683
1499.00,54.693
1500.00,54.694
1501.00, 
1502.00, 
1503.00, 
1504.00, 
1505.00, 
1506.00, 
1507.00, 
1508.00, 
1509.00, 
1510.00, 
1511.00, 
1512.00, 
1513.00, 
1514.00, 
1515.00, 
1516.00, 
1517.00, 
1518.00, 
1519.00, 
1520.00, 
1521.00, 
1522.00, 
1523.00, 
1524.00, 
1525.00, 
1526.00, 
1527.00, 
1528.00, 
1529.00, 
1530.00, 
1531.00, 
1532.00, 
1533.00, 
1534.00, 
1535.00, 
1536.00, 
1537.00, 
1538.00, 
1539.00, 
1540.00, 
1541.00, 
1542.00, 
1543.00, 
1544.00, 
1545.00, 
1546.00, 
1547.00, 
1548.00, 
1549.00, 
1550.00, 
1551.00, 
1552.00, 
1553.00, 
1554.00, 
1555.00, 
1556.00, 
1557.00, 
1558.00, 
1559.00, 
1560.00, 
1561.00, 
1562.00, 
1563.00, 
1564.00, 
1565.00, 
1566.00, 
1567.00, 
1568.00, 
1569.00, 
1570.00, 
1571.00, 
1572.00, 
1573.00, 
1574.00, 
1575.00, 
1576.00, 
1577.00, 
1578.00, 
1579.00, 
1580.00, 
1581.00, 
1582.00, 
1583.00, 
1584.00, 
1585.00, 
1586.00, 
1587.00, 
1588.00, 
1589.00, 
1590.00, 
1591.00, 
1592.00, 
1593.00, 
1594.00, 
1595.00, 
1596.00, 
1597.00, 
1598.00, 
1599.00, 
1600.00, 
1601.00, 
1602.00, 
1603.00, 
1604.00, 
1605.00, 
1606.00, 
1607.00, 
1608.00, 
1609.00, 
1610.00, 
1611.00, 
1612.00, 
1613.00, 
1614.00, 
1615.00, 
1616.00, 
1617.00, 
1618.00, 
1619.00, 
1620.00, 
1621.00, 
1622.00, 
1623.00, 
1624.00, 
1625.00, 
1626.00, 
1627.00, 
1628.00, 
1629.00, 
1630.00, 
1631.00, 
1632.00, 
1633.00, 
1634.00, 
1635.00, 
1636.00, 
1637.00, 
1638.00, 
1639.00, 
1640.00, 
1641.00, 
1642.00, 
1643.00, 
1644.00, 
1645.00, 
1646.00, 
1647.00, 
1648.00, 
1649.00, 
1650.00, 
1651.00, 
1652.00, 
1653.00, 
1654.00, 
1655.00, 
1656.00, 
1657.00, 
1658.00, 
1659.00, 
1660.00, 
1661.00, 
1662.00, 
1663.00, 
1664.00, 
1665.00, 
1666.00, 
1667.00, 
1668.00, 
1669.00, 
1670.00, 
1671.00, 
1672.00, 
1673.00, 
1674.00, 
1675.00, 
1676.00, 
1677.00, 
1678.00, 
1679.00, 
1680.00, 
1681.00, 
1682.00, 
1683.00, 
1684.00, 
1685.00, 
1686.00, 
1687.00, 
1688.00, 
1689.00, 
1690.00, 
1691.00, 
1692.00, 
1693.00, 
1694.00, 
1695.00, 
1696.00, 
1697.00, 
1698.00, 
1699.00, 
1700.00, 
1701.00, 
1702.00, 
1703.00, 
1704.00, 
1705.00, 
1706.00, 
1707.00, 
1708.00, 
1709.00, 
1710.00, 
1711.00, 
1712.00, 
1713.00, 
1714.00, 
1715.00, 
1716.00, 
1717.00, 
1718.00, 
1719.00, 
1720.00, 
1721.00, 
1722.00, 
1723.00, 
1724.00, 
1725.00, 
1726.00, 
1727.00, 
1728.00, 
1729.00, 
1730.00, 
1731.00, 
1732.00, 
1733.00, 
1734.00, 
1735.00, 
1736.00, 
1737.00, 
1738.00, 
1739.00, 
1740.00, 
1741.00, 
1742.00, 
1743.00, 
1744.00, 
1745.00, 
1746.00, 
1747.00, 
1748.00, 
1749.00, 
1750.00, 
1751.00, 
1752.00, 
1753.00, 
1754.00, 
1755.00, 
1756.00, 
1757.00, 
1758.00, 
1759.00, 
1760.00, 
1761.00, 
1762.00, 
1763.00, 
1764.00, 
1765.00, 
1766.00, 
1767.00, 
1768.00, 
1769.00, 
1770.00, 
1771.00, 
1772.00, 
1773.00, 
1774.00, 
1775.00, 
1776.00, 
1777.00, 
1778.00, 
1779.00, 
1780.00, 
1781.00, 
1782.00, 
1783.00, 
1784.00, 
1785.00, 
1786.00, 
1787.00, 
1788.00, 
1789.00, 
1790.00, 
1791.00, 
1792.00, 
1793.00, 
1794.00, 
1795.00, 
1796.00, 
1797.00, 
1798.00, 
1799.00, 
1800.00, 
1801.00, 
1802.00, 
1803.00, 
1804.00, 
1805.00, 
1806.00, 
1807.00, 
1808.00, 
1809.00, 
1810.00, 
1811.00, 
1812.00, 
1813.00, 
1814.00, 
1815.00, 
1816.00, 
1817.00, 
1818.00, 
1819.00, 
1820.00, 
1821.00, 
1822.00, 
1823.00, 
1824.00, 
1825.00, 
1826.00, 
1827.00, 
1828.00, 
1829.00, 
1830.00, 
1831.00, 
1832.00, 
1833.00, 
1834.00, 
1835.00, 
1836.00, 
1837.00, 
1838.00, 
1839.00, 
1840.00, 
1841.00, 
1842.00, 
1843.00, 
1844.00, 
1845.00, 
1846.00, 
1847.00, 
1848.00, 
1849.00, 
1850.00, 
1851.00, 
1852.00, 
1853.00, 
1854.00, 
1855.00, 
1856.00, 
1857.00, 
1858.00, 
1859.00, 
1860.00, 
1861.00, 
1862.00, 
1863.00, 
1864.00, 
1865.00, 
1866.00, 
1867.00, 
1868.00, 
1869.00, 
1870.00, 
1871.00, 
1872.00, 
1873.00, 
1874.00, 
1875.00, 
1876.00, 
1877.00, 
1878.00, 
1879.00, 
1880.00, 
1881.00, 
1882.00, 
1883.00, 
1884.00, 
1885.00, 
1886.00, 
1887.00, 
1888.00, 
1889.00, 
1890.00, 
1891.00, 
1892.00, 
1893.00, 
1894.00, 
1895.00, 
1896.00, 
1897.00, 
1898.00, 
1899.00, 
1900.00, 
1901.00, 
1902.00, 
1903.00, 
1904.00, 
1905.00, 
1906.00, 
1907.00, 
1908.00, 
1909.00, 
1910.00, 
1911.00, 
1912.00, 
1913.00, 
1914.00, 
1915.00, 
1916.00, 
1917.00, 
1918.00, 
1919.00, 
1920.00, 
1921.00, 
1922.00, 
1923.00, 
1924.00, 
1925.00, 
1926.00, 
1927.00, 
1928.00, 
1929.00, 
1930.00, 
1931.00, 
1932.00, 
1933.00, 
1934.00, 
1935.00, 
1936.00, 
1937.00, 
1938.00, 
1939.00, 
1940.00, 
1941.00, 
1942.00, 
1943.00, 
1944.00, 
1945.00, 
1946.00, 
1947.00, 
1948.00, 
1949.00, 
1950.00, 
1951.00, 
1952.00, 
1953.00, 
1954.00, 
1955.00, 
1956.00, 
1957.00, 
1958.00, 
1959.00, 
1960.00, 
1961.00, 
1962.00, 
1963.00, 
1964.00, 
1965.00, 
1966.00, 
1967.00, 
1968.00, 
1969.00, 
1970.00, 
1971.00, 
1972.00, 
1973.00, 
1974.00, 
1975.00, 
1976.00, 
1977.00, 
1978.00, 
1979.00, 
1980.00, 
1981.00, 
1982.00, 
1983.00, 
1984.00, 
1985.00, 
1986.00, 
1987.00, 
1988.00, 
1989.00, 
1990.00, 
1991.00, 
1992.00, 
1993.00, 
1994.00, 
1995.00, 
1996.00, 
1997.00, 
1998.00, 
1999.00, 
2000.00, 
2001.00, 
2002.00, 
2003.00, 
2004.00, 
2005.00, 
2006.00, 
2007.00, 
2008.00, 
2009.00, 
2010.00, 
2011.00, 
2012.00, 
2013.00, 
2014.00, 
2015.00, 
2016.00, 
2017.00, 
2018.00, 
2019.00, 
2020.00, 
2021.00, 
2022.00, 
2023.00, 
2024.00, 
2025.00, 
2026.00, 
2027.00, 
2028.00, 
2029.00, 
2030.00, 
2031.00, 
2032.00, 
2033.00, 
2034.00, 
2035.00, 
2036.00, 
2037.00, 
2038.00, 
2039.00, 
2040.00, 
2041.00, 
2042.00, 
2043.00, 
2044.00, 
2045.00, 
2046.00, 
2047.00, 
2048.00, 
2049.00, 
2050.00, 
2051.00, 
2052.00, 
2053.00, 
2054.00, 
2055.00, 
2056.00, 
2057.00, 
2058.00, 
2059.00, 
2060.00, 
2061.00, 
2062.00, 
2063.00, 
2064.00, 
2065.00, 
2066.00, 
2067.00, 
2068.00, 
2069.00, 
2070.00, 
2071.00, 
2072.00, 
2073.00, 
2074.00, 
2075.00, 
2076.00, 
2077.00, 
2078.00, 
2079.00, 
2080.00, 
2081.00, 
2082.00, 
2083.00, 
2084.00, 
2085.00, 
2086.00, 
2087.00, 
2088.00, 
2089.00, 
2090.00, 
2091.00, 
2092.00, 
2093.00, 
2094.00, 
2095.00, 
2096.00, 
2097.00, 
2098.00, 
2099.00, 
2100.00, 
2101.00, 
2102.00, 
2103.00, 
2104.00, 
2105.00, 
2106.00, 
2107.00, 
2108.00, 
2109.00, 
2110.00, 
2111.00, 
2112.00, 
2113.00, 
2114.00, 
2115.00, 
2116.00, 
2117.00, 
2118.00, 
2119.00, 
2120.00, 
2121.00, 
2122.00, 
2123.00, 
2124.00, 
2125.00, 
2126.00, 
2127.00, 
2128.00, 
2129.00, 
2130.00, 
2131.00, 
2132.00, 
2133.00, 
2134.00, 
2135.00, 
2136.00, 
2137.00, 
2138.00, 
2139.00, 
2140.00, 
2141.00, 
2142.00, 
2143.00, 
2144.00, 
2145.00, 
2146.00, 
2147.00, 
2148.00, 
2149.00, 
2150.00, 
2151.00, 
2152.00, 
2153.00, 
2154.00, 
2155.00, 
2156.00, 
2157.00, 
2158.00, 
2159.00, 
2160.00, 
2161.00, 
2162.00, 
2163.00, 
2164.00, 
2165.00, 
2166.00, 
2167.00, 
2168.00, 
2169.00, 
2170.00, 
2171.00, 
2172.00, 
2173.00, 
2174.00, 
2175.00, 
2176.00, 
2177.00, 
2178.00, 
2179.00, 
2180.00, 
2181.00, 
2182.00, 
2183.00, 
2184.00, 
2185.00, 
2186.00, 
2187.00, 
2188.00, 
2189.00, 
2190.00, 
2191.00, 
2192.00, 
2193.00, 
2194.00, 
2195.00, 
2196.00, 
2197.00, 
2198.00, 
2199.00, 
2200.00, 
2201.00, 
2202.00, 
2203.00, 
2204.00, 
2205.00, 
2206.00, 
2207.00, 
2208.00, 
2209.00, 
2210.00, 
2211.00, 
2212.00, 
2213.00, 
2214.00, 
2215.00, 
2216.00, 
2217.00, 
2218.00, 
2219.00, 
2220.00, 
2221.00, 
2222.00, 
2223.00, 
2224.00, 
2225.00, 
2226.00, 
2227.00, 
2228.00, 
2229.00, 
2230.00, 
2231.00, 
2232.00, 
2233.00, 
2234.00, 
2235.00, 
2236.00, 
2237.00, 
2238.00, 
2239.00, 
2240.00, 
2241.00, 
2242.00, 
2243.00, 
2244.00, 
2245.00, 
2246.00, 
2247.00, 
2248.00, 
2249.00, 
2250.00, 
2251.00, 
2252.00, 
2253.00, 
2254.00, 
2255.00, 
2256.00, 
2257.00, 
2258.00, 
2259.00, 
2260.00, 
2261.00, 
2262.00, 
2263.00, 
2264.00, 
2265.00, 
2266.00, 
2267.00, 
2268.00, 
2269.00, 
2270.00, 
2271.00, 
2272.00, 
2273.00, 
2274.00, 
2275.00, 
2276.00, 
2277.00, 
2278.00, 
2279.00, 
2280.00, 
2281.00, 
2282.00, 
2283.00, 
2284.00, 
2285.00, 
2286.00, 
2287.00, 
2288.00, 
2289.00, 
2290.00, 
2291.00, 
2292.00, 
2293.00, 
2294.00, 
2295.00, 
2296.00, 
2297.00, 
2298.00, 
2299.00, 
2300.00, 
2301.00, 
2302.00, 
2303.00, 
2304.00, 
2305.00, 
2306.00, 
2307.00, 
2308.00, 
2309.00, 
2310.00, 
2311.00, 
2312.00, 
2313.00, 
2314.00, 
2315.00, 
2316.00, 
2317.00, 
2318.00, 
2319.00, 
2320.00, 
2321.00, 
2322.00, 
2323.00, 
2324.00, 
2325.00, 
2326.00, 
2327.00, 
2328.00, 
2329.00, 
2330.00, 
2331.00, 
2332.00, 
2333.00, 
2334.00, 
2335.00, 
2336.00, 
2337.00, 
2338.00, 
2339.00, 
2340.00, 
2341.00, 
2342.00, 
2343.00, 
2344.00, 
2345.00, 
2346.00, 
2347.00, 
2348.00, 
2349.00, 
2350.00, 
2351.00, 
2352.00, 
2353.00, 
2354.00, 
2355.00, 
2356.00, 
2357.00, 
2358.00, 
2359.00, 
2360.00, 
2361.00, 
2362.00, 
2363.00, 
2364.00, 
2365.00, 
2366.00, 
2367.00, 
2368.00, 
2369.00, 
2370.00, 
2371.00, 
2372.00, 
2373.00, 
2374.00, 
2375.00, 
2376.00, 
2377.00, 
2378.00, 
2379.00, 
2380.00, 
2381.00, 
2382.00, 
2383.00, 
2384.00, 
2385.00, 
2386.00, 
2387.00, 
2388.00, 
2389.00, 
2390.00, 
2391.00, 
2392.00, 
2393.00, 
2394.00, 
2395.00, 
2396.00, 
2397.00, 
2398.00, 
2399.00, 
2400.00, 
2401.00, 
2402.00, 
2403.00, 
2404.00, 
2405.00, 
2406.00, 
2407.00, 
2408.00, 
2409.00, 
2410.00, 
2411.00, 
2412.00, 
2413.00, 
2414.00, 
2415.00, 
2416.00, 
2417.00, 
2418.00, 
2419.00, 
2420.00, 
2421.00, 
2422.00, 
2423.00, 
2424.00, 
2425.00, 
2426.00, 
2427.00, 
2428.00, 
2429.00, 
2430.00, 
2431.00, 
2432.00, 
2433.00, 
2434.00, 
2435.00, 
2436.00, 
2437.00, 
2438.00, 
2439.00, 
2440.00, 
2441.00, 
2442.00, 
2443.00, 
2444.00, 
2445.00, 
2446.00, 
2447.00, 
2448.00, 
2449.00, 
2450.00, 
2451.00, 
2452.00, 
2453.00, 
2454.00, 
2455.00, 
2456.00, 
2457.00, 
2458.00, 
2459.00, 
2460.00, 
2461.00, 
2462.00, 
2463.00, 
2464.00, 
2465.00, 
2466.00, 
2467.00, 
2468.00, 
2469.00, 
2470.00, 
2471.00, 
2472.00, 
2473.00, 
2474.00, 
2475.00, 
2476.00, 
2477.00, 
2478.00, 
2479.00, 
2480.00, 
2481.00, 
2482.00, 
2483.00, 
2484.00, 
2485.00, 
2486.00, 
2487.00, 
2488.00, 
2489.00, 
2490.00, 
2491.00, 
2492.00, 
2493.00, 
2494.00, 
2495.00, 
2496.00, 
2497.00, 
2498.00, 
2499.00, 
2500.00, 
2501.00, 
2502.00, 
2503.00, 
2504.00, 
2505.00, 
2506.00, 
2507.00, 
2508.00, 
2509.00, 
2510.00, 
2511.00, 
2512.00, 
2513.00, 
2514.00, 
2515.00, 
2516.00, 
2517.00, 
2518.00, 
2519.00, 
2520.00, 
2521.00, 
2522.00, 
2523.00, 
2524.00, 
2525.00, 
2526.00, 
2527.00, 
2528.00, 
2529.00, 
2530.00, 
2531.00, 
2532.00, 
2533.00, 
2534.00, 
2535.00, 
2536.00, 
2537.00, 
2538.00, 
2539.00, 
2540.00, 
2541.00, 
2542.00, 
2543.00, 
2544.00, 
2545.00, 
2546.00, 
2547.00, 
2548.00, 
2549.00, 
2550.00, 
2551.00, 
2552.00, 
2553.00, 
2554.00, 
2555.00, 
2556.00, 
2557.00, 
2558.00, 
2559.00, 
2560.00, 
2561.00, 
2562.00, 
2563.00, 
2564.00, 
2565.00, 
2566.00, 
2567.00, 
2568.00, 
2569.00, 
2570.00, 
2571.00, 
2572.00, 
2573.00, 
2574.00, 
2575.00, 
2576.00, 
2577.00, 
2578.00, 
2579.00, 
2580.00, 
2581.00, 
2582.00, 
2583.00, 
2584.00, 
2585.00, 
2586.00, 
2587.00, 
2588.00, 
2589.00, 
2590.00, 
2591.00, 
2592.00, 
2593.00, 
2594.00, 
2595.00, 
2596.00, 
2597.00, 
2598.00, 
2599.00, 
2600.00, 
