"2bP2 - RawData"
"Wavelength nm.","T%"
200.00,0.001
201.00,0.003
202.00,0.002
203.00,0.002
204.00,0.006
205.00,0.000
206.00,-0.001
207.00,-0.001
208.00,0.002
209.00,-0.003
210.00,0.005
211.00,0.000
212.00,0.002
213.00,0.002
214.00,0.000
215.00,-0.002
216.00,-0.001
217.00,0.002
218.00,-0.001
219.00,0.004
220.00,0.001
221.00,0.002
222.00,0.001
223.00,0.001
224.00,-0.002
225.00,0.000
226.00,0.000
227.00,0.003
228.00,-0.001
229.00,-0.002
230.00,0.001
231.00,-0.001
232.00,0.001
233.00,-0.000
234.00,0.001
235.00,0.001
236.00,0.000
237.00,0.001
238.00,0.000
239.00,0.002
240.00,0.001
241.00,-0.001
242.00,0.000
243.00,-0.001
244.00,0.001
245.00,-0.001
246.00,-0.001
247.00,-0.000
248.00,-0.000
249.00,0.001
250.00,0.001
251.00,0.001
252.00,0.001
253.00,0.002
254.00,-0.001
255.00,-0.000
256.00,0.000
257.00,0.001
258.00,-0.000
259.00,0.001
260.00,-0.000
261.00,-0.000
262.00,0.002
263.00,0.002
264.00,0.000
265.00,-0.001
266.00,-0.001
267.00,-0.000
268.00,-0.001
269.00,-0.000
270.00,0.001
271.00,-0.001
272.00,-0.000
273.00,-0.001
274.00,0.001
275.00,-0.000
276.00,0.000
277.00,-0.001
278.00,-0.001
279.00,-0.001
280.00,0.000
281.00,0.001
282.00,0.000
283.00,0.002
284.00,-0.001
285.00,-0.000
286.00,0.001
287.00,0.001
288.00,-0.001
289.00,0.001
290.00,0.002
291.00,0.001
292.00,-0.000
293.00,-0.002
294.00,0.000
295.00,0.000
296.00,0.001
297.00,0.000
298.00,0.002
299.00,0.002
300.00,0.002
301.00,0.005
302.00,0.004
303.00,0.008
304.00,0.016
305.00,0.021
306.00,0.032
307.00,0.050
308.00,0.075
309.00,0.116
310.00,0.167
311.00,0.217
312.00,0.297
313.00,0.391
314.00,0.515
315.00,0.664
316.00,0.848
317.00,1.066
318.00,1.311
319.00,1.592
320.00,1.919
321.00,2.293
322.00,2.707
323.00,3.152
324.00,3.640
325.00,4.127
326.00,4.643
327.00,5.199
328.00,5.807
329.00,6.422
330.00,7.057
331.00,7.649
332.00,8.260
333.00,8.962
334.00,9.593
335.00,10.274
336.00,10.893
337.00,11.544
338.00,12.194
339.00,12.751
340.00,13.373
341.00,13.928
342.00,14.473
343.00,14.993
344.00,15.498
345.00,16.024
346.00,16.441
347.00,16.844
348.00,17.245
349.00,17.656
350.00,17.981
351.00,18.299
352.00,18.609
353.00,18.841
354.00,19.211
355.00,19.469
356.00,19.674
357.00,19.896
358.00,20.093
359.00,20.338
360.00,20.542
361.00,20.606
362.00,20.765
363.00,20.905
364.00,20.963
365.00,21.077
366.00,21.131
367.00,21.221
368.00,21.256
369.00,21.318
370.00,21.368
371.00,21.377
372.00,21.369
373.00,21.377
374.00,21.401
375.00,21.333
376.00,21.311
377.00,21.273
378.00,21.179
379.00,21.119
380.00,21.077
381.00,21.059
382.00,21.078
383.00,21.080
384.00,21.095
385.00,21.083
386.00,21.091
387.00,21.152
388.00,21.189
389.00,21.166
390.00,21.203
391.00,21.209
392.00,21.217
393.00,21.195
394.00,21.209
395.00,21.252
396.00,21.239
397.00,21.217
398.00,21.214
399.00,21.192
400.00,21.219
401.00,21.198
402.00,21.188
403.00,21.170
404.00,21.173
405.00,21.156
406.00,21.165
407.00,21.142
408.00,21.141
409.00,21.046
410.00,21.000
411.00,21.032
412.00,21.006
413.00,21.032
414.00,21.012
415.00,20.998
416.00,21.066
417.00,21.034
418.00,21.058
419.00,21.111
420.00,21.171
421.00,21.206
422.00,21.202
423.00,21.237
424.00,21.293
425.00,21.274
426.00,21.339
427.00,21.403
428.00,21.427
429.00,21.471
430.00,21.511
431.00,21.578
432.00,21.620
433.00,21.683
434.00,21.703
435.00,21.800
436.00,21.842
437.00,21.887
438.00,21.998
439.00,22.051
440.00,22.123
441.00,22.196
442.00,22.267
443.00,22.351
444.00,22.467
445.00,22.557
446.00,22.661
447.00,22.733
448.00,22.851
449.00,22.961
450.00,23.062
451.00,23.146
452.00,23.252
453.00,23.373
454.00,23.460
455.00,23.561
456.00,23.703
457.00,23.800
458.00,23.893
459.00,24.053
460.00,24.176
461.00,24.315
462.00,24.403
463.00,24.541
464.00,24.691
465.00,24.807
466.00,24.964
467.00,25.083
468.00,25.181
469.00,25.311
470.00,25.393
471.00,25.512
472.00,25.631
473.00,25.725
474.00,25.839
475.00,25.964
476.00,26.085
477.00,26.194
478.00,26.318
479.00,26.489
480.00,26.638
481.00,26.767
482.00,26.947
483.00,27.089
484.00,27.233
485.00,27.413
486.00,27.583
487.00,27.693
488.00,27.835
489.00,28.009
490.00,28.150
491.00,28.274
492.00,28.502
493.00,28.641
494.00,28.635
495.00,28.828
496.00,28.959
497.00,29.062
498.00,29.201
499.00,29.359
500.00,29.477
501.00,29.594
502.00,29.754
503.00,29.899
504.00,29.941
505.00,30.108
506.00,30.227
507.00,30.332
508.00,30.459
509.00,30.626
510.00,30.746
511.00,30.839
512.00,31.022
513.00,31.163
514.00,31.238
515.00,31.404
516.00,31.512
517.00,31.580
518.00,31.705
519.00,31.808
520.00,31.874
521.00,31.971
522.00,32.026
523.00,32.127
524.00,32.208
525.00,32.270
526.00,32.430
527.00,32.507
528.00,32.618
529.00,32.816
530.00,32.934
531.00,33.021
532.00,33.102
533.00,33.199
534.00,33.255
535.00,33.373
536.00,33.397
537.00,33.529
538.00,33.599
539.00,33.650
540.00,33.760
541.00,33.805
542.00,33.910
543.00,33.954
544.00,34.047
545.00,34.112
546.00,34.131
547.00,34.291
548.00,34.340
549.00,34.366
550.00,34.461
551.00,34.583
552.00,34.644
553.00,34.693
554.00,34.790
555.00,34.845
556.00,34.939
557.00,34.988
558.00,35.007
559.00,35.074
560.00,35.165
561.00,35.206
562.00,35.260
563.00,35.351
564.00,35.352
565.00,35.374
566.00,35.409
567.00,35.471
568.00,35.523
569.00,35.591
570.00,35.638
571.00,35.677
572.00,35.692
573.00,35.719
574.00,35.756
575.00,35.792
576.00,35.747
577.00,35.819
578.00,35.942
579.00,35.982
580.00,36.006
581.00,36.145
582.00,36.226
583.00,36.220
584.00,36.336
585.00,36.454
586.00,36.467
587.00,36.512
588.00,36.592
589.00,36.571
590.00,36.635
591.00,36.599
592.00,36.567
593.00,36.636
594.00,36.783
595.00,36.918
596.00,36.989
597.00,37.017
598.00,37.040
599.00,37.063
600.00,37.137
601.00,37.158
602.00,37.188
603.00,37.218
604.00,37.282
605.00,37.325
606.00,37.372
607.00,37.373
608.00,37.584
609.00,37.685
610.00,37.534
611.00,37.605
612.00,37.649
613.00,37.726
614.00,37.750
615.00,37.841
616.00,37.953
617.00,37.963
618.00,37.984
619.00,38.021
620.00,38.059
621.00,38.176
622.00,38.183
623.00,38.302
624.00,38.372
625.00,38.414
626.00,38.527
627.00,38.523
628.00,38.597
629.00,38.622
630.00,38.658
631.00,38.760
632.00,38.803
633.00,38.922
634.00,39.041
635.00,39.103
636.00,39.133
637.00,39.220
638.00,39.260
639.00,39.405
640.00,39.413
641.00,39.471
642.00,39.466
643.00,39.659
644.00,39.845
645.00,39.861
646.00,40.005
647.00,40.090
648.00,40.097
649.00,40.157
650.00,40.238
651.00,40.387
652.00,40.421
653.00,40.467
654.00,40.526
655.00,40.713
656.00,41.002
657.00,40.822
658.00,41.081
659.00,41.179
660.00,41.027
661.00,41.402
662.00,41.294
663.00,41.420
664.00,41.759
665.00,41.837
666.00,41.750
667.00,41.837
668.00,41.891
669.00,42.203
670.00,42.348
671.00,42.302
672.00,42.418
673.00,42.455
674.00,42.461
675.00,42.626
676.00,42.874
677.00,42.932
678.00,42.829
679.00,43.044
680.00,42.947
681.00,43.236
682.00,43.229
683.00,43.150
684.00,43.397
685.00,43.673
686.00,43.646
687.00,43.705
688.00,43.797
689.00,43.873
690.00,44.198
691.00,44.415
692.00,44.163
693.00,44.191
694.00,44.417
695.00,44.549
696.00,44.676
697.00,44.704
698.00,44.793
699.00,45.057
700.00,45.111
701.00,45.162
702.00,45.185
703.00,45.409
704.00,45.466
705.00,45.447
706.00,45.506
707.00,45.494
708.00,45.796
709.00,46.217
710.00,45.959
711.00,45.859
712.00,45.980
713.00,46.090
714.00,46.329
715.00,46.279
716.00,46.288
717.00,46.545
718.00,46.637
719.00,46.579
720.00,46.626
721.00,51.046
722.00,51.111
723.00,51.170
724.00,51.118
725.00,51.203
726.00,51.238
727.00,51.290
728.00,51.230
729.00,51.376
730.00,51.373
731.00,51.380
732.00,51.409
733.00,51.510
734.00,51.565
735.00,51.615
736.00,51.626
737.00,51.695
738.00,51.735
739.00,51.815
740.00,51.805
741.00,51.847
742.00,51.883
743.00,51.884
744.00,51.938
745.00,51.921
746.00,52.020
747.00,51.965
748.00,51.901
749.00,51.918
750.00,51.959
751.00,51.982
752.00,52.018
753.00,52.041
754.00,52.009
755.00,52.004
756.00,52.094
757.00,52.060
758.00,52.105
759.00,52.111
760.00,52.218
761.00,52.216
762.00,52.118
763.00,52.176
764.00,52.276
765.00,52.309
766.00,52.257
767.00,52.326
768.00,52.324
769.00,52.336
770.00,52.394
771.00,52.263
772.00,52.331
773.00,52.404
774.00,52.459
775.00,52.364
776.00,52.409
777.00,52.466
778.00,52.485
779.00,52.538
780.00,52.512
781.00,52.485
782.00,52.490
783.00,52.470
784.00,52.546
785.00,52.372
786.00,52.561
787.00,52.556
788.00,52.465
789.00,52.538
790.00,52.505
791.00,52.493
792.00,52.540
793.00,52.399
794.00,52.398
795.00,52.400
796.00,52.432
797.00,52.446
798.00,52.421
799.00,52.379
800.00,52.460
801.00,52.445
802.00,52.457
803.00,52.395
804.00,52.340
805.00,52.448
806.00,52.324
807.00,52.340
808.00,52.401
809.00,52.318
810.00,52.307
811.00,52.328
812.00,52.296
813.00,52.294
814.00,52.374
815.00,52.298
816.00,52.348
817.00,52.258
818.00,52.153
819.00,52.262
820.00,52.230
821.00,52.246
822.00,52.189
823.00,52.120
824.00,52.180
825.00,52.134
826.00,52.211
827.00,52.232
828.00,52.186
829.00,52.242
830.00,52.249
831.00,54.592
832.00,54.580
833.00,54.523
834.00,54.524
835.00,54.492
836.00,54.505
837.00,54.472
838.00,54.440
839.00,54.489
840.00,54.410
841.00,54.416
842.00,54.404
843.00,54.418
844.00,54.370
845.00,54.359
846.00,54.414
847.00,54.340
848.00,54.342
849.00,54.258
850.00,54.276
851.00,54.199
852.00,54.202
853.00,54.308
854.00,54.123
855.00,54.076
856.00,54.109
857.00,54.049
858.00,54.026
859.00,54.032
860.00,54.068
861.00,54.039
862.00,53.967
863.00,54.007
864.00,53.957
865.00,54.022
866.00,53.957
867.00,53.949
868.00,54.103
869.00,53.934
870.00,53.943
871.00,53.913
872.00,53.922
873.00,53.876
874.00,53.906
875.00,53.859
876.00,53.904
877.00,53.853
878.00,53.884
879.00,53.841
880.00,53.830
881.00,53.803
882.00,53.856
883.00,53.785
884.00,53.758
885.00,53.739
886.00,53.734
887.00,53.702
888.00,53.704
889.00,53.670
890.00,53.689
891.00,53.650
892.00,53.635
893.00,53.592
894.00,53.619
895.00,53.563
896.00,53.507
897.00,53.513
898.00,53.560
899.00,53.379
900.00,53.512
901.00,53.465
902.00,53.474
903.00,53.455
904.00,53.440
905.00,53.434
906.00,53.427
907.00,53.416
908.00,53.367
909.00,53.364
910.00,53.292
911.00,53.298
912.00,53.302
913.00,53.266
914.00,53.249
915.00,53.220
916.00,53.173
917.00,53.178
918.00,53.207
919.00,53.167
920.00,53.122
921.00,53.133
922.00,53.105
923.00,53.102
924.00,53.051
925.00,53.052
926.00,53.050
927.00,53.060
928.00,53.024
929.00,53.014
930.00,52.979
931.00,52.979
932.00,52.919
933.00,52.931
934.00,52.894
935.00,52.912
936.00,52.867
937.00,52.840
938.00,52.884
939.00,52.812
940.00,52.775
941.00,52.789
942.00,52.757
943.00,52.780
944.00,52.704
945.00,52.717
946.00,52.736
947.00,52.702
948.00,52.654
949.00,52.628
950.00,52.619
951.00,52.623
952.00,52.602
953.00,52.556
954.00,52.547
955.00,52.496
956.00,52.512
957.00,52.442
958.00,52.461
959.00,52.395
960.00,52.392
961.00,52.364
962.00,52.378
963.00,52.320
964.00,52.324
965.00,52.326
966.00,52.292
967.00,52.311
968.00,52.282
969.00,52.317
970.00,52.307
971.00,52.334
972.00,52.270
973.00,52.321
974.00,52.338
975.00,52.289
976.00,52.321
977.00,52.270
978.00,52.346
979.00,52.266
980.00,52.295
981.00,52.304
982.00,52.252
983.00,52.247
984.00,52.252
985.00,52.264
986.00,52.212
987.00,52.251
988.00,52.239
989.00,52.235
990.00,52.221
991.00,52.203
992.00,52.225
993.00,52.177
994.00,52.167
995.00,52.170
996.00,52.154
997.00,52.136
998.00,52.109
999.00,52.140
1000.00,52.085
1001.00,52.083
1002.00,52.073
1003.00,52.072
1004.00,52.049
1005.00,52.014
1006.00,52.056
1007.00,52.011
1008.00,51.993
1009.00,51.993
1010.00,51.979
1011.00,51.972
1012.00,51.954
1013.00,51.954
1014.00,51.931
1015.00,51.958
1016.00,51.880
1017.00,51.896
1018.00,51.877
1019.00,51.828
1020.00,51.845
1021.00,51.820
1022.00,51.804
1023.00,51.760
1024.00,51.773
1025.00,51.760
1026.00,51.748
1027.00,51.724
1028.00,51.734
1029.00,51.708
1030.00,51.674
1031.00,51.697
1032.00,51.650
1033.00,51.658
1034.00,51.627
1035.00,51.577
1036.00,51.558
1037.00,51.544
1038.00,51.515
1039.00,51.482
1040.00,51.492
1041.00,51.457
1042.00,51.466
1043.00,51.439
1044.00,51.457
1045.00,51.444
1046.00,51.424
1047.00,51.461
1048.00,51.466
1049.00,51.466
1050.00,51.469
1051.00,51.518
1052.00,51.495
1053.00,51.502
1054.00,51.492
1055.00,51.515
1056.00,51.537
1057.00,51.521
1058.00,51.525
1059.00,51.514
1060.00,51.523
1061.00,51.513
1062.00,51.491
1063.00,51.493
1064.00,51.505
1065.00,51.477
1066.00,51.471
1067.00,51.460
1068.00,51.482
1069.00,51.450
1070.00,51.442
1071.00,51.409
1072.00,51.454
1073.00,51.429
1074.00,51.410
1075.00,51.418
1076.00,51.406
1077.00,51.395
1078.00,51.382
1079.00,51.371
1080.00,51.382
1081.00,51.364
1082.00,51.335
1083.00,51.351
1084.00,51.333
1085.00,51.324
1086.00,51.319
1087.00,51.315
1088.00,51.293
1089.00,51.292
1090.00,51.275
1091.00,51.292
1092.00,51.264
1093.00,51.239
1094.00,51.234
1095.00,51.222
1096.00,51.196
1097.00,51.200
1098.00,51.188
1099.00,51.183
1100.00,51.173
1101.00,51.157
1102.00,51.166
1103.00,51.166
1104.00,51.139
1105.00,51.157
1106.00,51.150
1107.00,51.116
1108.00,51.123
1109.00,51.099
1110.00,51.102
1111.00,51.092
1112.00,51.065
1113.00,51.077
1114.00,51.059
1115.00,51.048
1116.00,51.049
1117.00,51.039
1118.00,51.019
1119.00,51.026
1120.00,51.023
1121.00,51.018
1122.00,50.998
1123.00,50.981
1124.00,50.989
1125.00,50.971
1126.00,50.949
1127.00,50.978
1128.00,50.941
1129.00,50.927
1130.00,50.930
1131.00,50.908
1132.00,50.952
1133.00,50.948
1134.00,50.931
1135.00,50.949
1136.00,50.901
1137.00,50.897
1138.00,50.905
1139.00,50.905
1140.00,50.897
1141.00,50.901
1142.00,50.869
1143.00,50.895
1144.00,50.857
1145.00,50.853
1146.00,50.861
1147.00,50.848
1148.00,50.838
1149.00,50.855
1150.00,50.847
1151.00,50.854
1152.00,50.842
1153.00,50.829
1154.00,50.816
1155.00,50.828
1156.00,50.797
1157.00,50.828
1158.00,50.800
1159.00,50.784
1160.00,50.799
1161.00,50.810
1162.00,50.796
1163.00,50.788
1164.00,50.798
1165.00,50.804
1166.00,50.818
1167.00,50.795
1168.00,50.817
1169.00,50.794
1170.00,50.784
1171.00,50.764
1172.00,50.772
1173.00,50.759
1174.00,50.775
1175.00,50.764
1176.00,50.769
1177.00,50.761
1178.00,50.752
1179.00,50.778
1180.00,50.769
1181.00,50.778
1182.00,50.770
1183.00,50.761
1184.00,50.739
1185.00,50.768
1186.00,50.737
1187.00,50.749
1188.00,50.747
1189.00,50.731
1190.00,50.742
1191.00,50.725
1192.00,50.736
1193.00,50.743
1194.00,50.751
1195.00,50.712
1196.00,50.755
1197.00,50.753
1198.00,50.734
1199.00,50.736
1200.00,50.726
1201.00,50.759
1202.00,50.720
1203.00,50.712
1204.00,50.721
1205.00,50.727
1206.00,50.713
1207.00,50.722
1208.00,50.700
1209.00,50.712
1210.00,50.714
1211.00,50.697
1212.00,50.731
1213.00,50.695
1214.00,50.712
1215.00,50.710
1216.00,50.711
1217.00,50.701
1218.00,50.695
1219.00,50.709
1220.00,50.697
1221.00,50.714
1222.00,50.683
1223.00,50.727
1224.00,50.714
1225.00,50.682
1226.00,50.708
1227.00,50.701
1228.00,50.712
1229.00,50.713
1230.00,50.759
1231.00,50.741
1232.00,50.756
1233.00,50.744
1234.00,50.755
1235.00,50.745
1236.00,50.709
1237.00,50.743
1238.00,50.726
1239.00,50.725
1240.00,50.732
1241.00,50.761
1242.00,50.771
1243.00,50.771
1244.00,50.741
1245.00,50.777
1246.00,50.780
1247.00,50.742
1248.00,50.757
1249.00,50.759
1250.00,50.755
1251.00,50.767
1252.00,50.768
1253.00,50.746
1254.00,50.787
1255.00,50.775
1256.00,50.797
1257.00,50.815
1258.00,50.788
1259.00,50.797
1260.00,50.815
1261.00,50.804
1262.00,50.804
1263.00,50.790
1264.00,50.793
1265.00,50.804
1266.00,50.790
1267.00,50.826
1268.00,50.818
1269.00,50.799
1270.00,50.840
1271.00,50.841
1272.00,50.840
1273.00,50.870
1274.00,50.868
1275.00,50.885
1276.00,50.873
1277.00,50.865
1278.00,50.890
1279.00,50.878
1280.00,50.855
1281.00,50.888
1282.00,50.894
1283.00,50.871
1284.00,50.896
1285.00,50.870
1286.00,50.897
1287.00,50.897
1288.00,50.889
1289.00,50.899
1290.00,50.912
1291.00,50.888
1292.00,50.902
1293.00,50.914
1294.00,50.920
1295.00,50.935
1296.00,50.942
1297.00,50.943
1298.00,50.975
1299.00,50.938
1300.00,50.972
1301.00,50.955
1302.00,50.961
1303.00,50.973
1304.00,50.949
1305.00,50.967
1306.00,50.985
1307.00,50.998
1308.00,50.991
1309.00,50.992
1310.00,50.986
1311.00,51.010
1312.00,50.996
1313.00,50.987
1314.00,51.029
1315.00,51.038
1316.00,51.019
1317.00,51.064
1318.00,51.037
1319.00,51.044
1320.00,51.056
1321.00,51.204
1322.00,51.211
1323.00,51.193
1324.00,51.170
1325.00,51.171
1326.00,51.200
1327.00,51.192
1328.00,51.194
1329.00,51.183
1330.00,51.198
1331.00,51.187
1332.00,51.163
1333.00,51.195
1334.00,51.209
1335.00,51.221
1336.00,51.259
1337.00,51.281
1338.00,51.333
1339.00,51.397
1340.00,51.434
1341.00,51.517
1342.00,51.580
1343.00,51.614
1344.00,51.667
1345.00,51.732
1346.00,51.756
1347.00,51.800
1348.00,51.822
1349.00,51.814
1350.00,51.843
1351.00,51.840
1352.00,51.856
1353.00,51.879
1354.00,51.882
1355.00,52.050
1356.00,51.896
1357.00,51.882
1358.00,51.920
1359.00,51.950
1360.00,51.888
1361.00,51.936
1362.00,51.914
1363.00,51.974
1364.00,51.970
1365.00,51.903
1366.00,51.928
1367.00,51.911
1368.00,51.849
1369.00,51.920
1370.00,51.910
1371.00,51.854
1372.00,51.880
1373.00,51.897
1374.00,51.899
1375.00,51.884
1376.00,51.856
1377.00,51.864
1378.00,51.871
1379.00,51.900
1380.00,51.903
1381.00,51.921
1382.00,51.883
1383.00,51.877
1384.00,51.810
1385.00,51.821
1386.00,51.858
1387.00,51.826
1388.00,51.813
1389.00,51.875
1390.00,51.849
1391.00,51.822
1392.00,51.827
1393.00,51.708
1394.00,51.855
1395.00,51.815
1396.00,51.908
1397.00,51.802
1398.00,51.844
1399.00,51.881
1400.00,51.807
1401.00,51.813
1402.00,51.875
1403.00,51.839
1404.00,51.854
1405.00,51.899
1406.00,51.881
1407.00,51.900
1408.00,51.948
1409.00,51.862
1410.00,51.924
1411.00,51.894
1412.00,51.947
1413.00,51.921
1414.00,51.938
1415.00,51.934
1416.00,51.965
1417.00,51.981
1418.00,51.943
1419.00,51.970
1420.00,51.972
1421.00,52.026
1422.00,52.012
1423.00,52.028
1424.00,52.051
1425.00,52.066
1426.00,52.088
1427.00,52.134
1428.00,52.073
1429.00,52.081
1430.00,52.105
1431.00,52.112
1432.00,52.125
1433.00,52.147
1434.00,52.130
1435.00,52.192
1436.00,52.194
1437.00,52.179
1438.00,52.211
1439.00,52.225
1440.00,52.246
1441.00,52.255
1442.00,52.247
1443.00,52.278
1444.00,52.340
1445.00,52.297
1446.00,52.338
1447.00,52.349
1448.00,52.365
1449.00,52.400
1450.00,52.382
1451.00,52.398
1452.00,52.418
1453.00,52.402
1454.00,52.429
1455.00,52.444
1456.00,52.445
1457.00,52.479
1458.00,52.500
1459.00,52.493
1460.00,52.528
1461.00,52.514
1462.00,52.572
1463.00,52.567
1464.00,52.564
1465.00,52.604
1466.00,52.595
1467.00,52.620
1468.00,52.687
1469.00,52.645
1470.00,52.654
1471.00,52.681
1472.00,52.678
1473.00,52.698
1474.00,52.729
1475.00,52.730
1476.00,52.745
1477.00,52.743
1478.00,52.765
1479.00,52.793
1480.00,52.782
1481.00,52.773
1482.00,52.829
1483.00,52.828
1484.00,52.843
1485.00,52.852
1486.00,52.854
1487.00,52.883
1488.00,52.887
1489.00,52.870
1490.00,52.912
1491.00,52.905
1492.00,52.940
1493.00,52.936
1494.00,52.952
1495.00,52.960
1496.00,52.976
1497.00,52.952
1498.00,52.978
1499.00,52.987
1500.00,52.999
1501.00, 
1502.00, 
1503.00, 
1504.00, 
1505.00, 
1506.00, 
1507.00, 
1508.00, 
1509.00, 
1510.00, 
1511.00, 
1512.00, 
1513.00, 
1514.00, 
1515.00, 
1516.00, 
1517.00, 
1518.00, 
1519.00, 
1520.00, 
1521.00, 
1522.00, 
1523.00, 
1524.00, 
1525.00, 
1526.00, 
1527.00, 
1528.00, 
1529.00, 
1530.00, 
1531.00, 
1532.00, 
1533.00, 
1534.00, 
1535.00, 
1536.00, 
1537.00, 
1538.00, 
1539.00, 
1540.00, 
1541.00, 
1542.00, 
1543.00, 
1544.00, 
1545.00, 
1546.00, 
1547.00, 
1548.00, 
1549.00, 
1550.00, 
1551.00, 
1552.00, 
1553.00, 
1554.00, 
1555.00, 
1556.00, 
1557.00, 
1558.00, 
1559.00, 
1560.00, 
1561.00, 
1562.00, 
1563.00, 
1564.00, 
1565.00, 
1566.00, 
1567.00, 
1568.00, 
1569.00, 
1570.00, 
1571.00, 
1572.00, 
1573.00, 
1574.00, 
1575.00, 
1576.00, 
1577.00, 
1578.00, 
1579.00, 
1580.00, 
1581.00, 
1582.00, 
1583.00, 
1584.00, 
1585.00, 
1586.00, 
1587.00, 
1588.00, 
1589.00, 
1590.00, 
1591.00, 
1592.00, 
1593.00, 
1594.00, 
1595.00, 
1596.00, 
1597.00, 
1598.00, 
1599.00, 
1600.00, 
1601.00, 
1602.00, 
1603.00, 
1604.00, 
1605.00, 
1606.00, 
1607.00, 
1608.00, 
1609.00, 
1610.00, 
1611.00, 
1612.00, 
1613.00, 
1614.00, 
1615.00, 
1616.00, 
1617.00, 
1618.00, 
1619.00, 
1620.00, 
1621.00, 
1622.00, 
1623.00, 
1624.00, 
1625.00, 
1626.00, 
1627.00, 
1628.00, 
1629.00, 
1630.00, 
1631.00, 
1632.00, 
1633.00, 
1634.00, 
1635.00, 
1636.00, 
1637.00, 
1638.00, 
1639.00, 
1640.00, 
1641.00, 
1642.00, 
1643.00, 
1644.00, 
1645.00, 
1646.00, 
1647.00, 
1648.00, 
1649.00, 
1650.00, 
1651.00, 
1652.00, 
1653.00, 
1654.00, 
1655.00, 
1656.00, 
1657.00, 
1658.00, 
1659.00, 
1660.00, 
1661.00, 
1662.00, 
1663.00, 
1664.00, 
1665.00, 
1666.00, 
1667.00, 
1668.00, 
1669.00, 
1670.00, 
1671.00, 
1672.00, 
1673.00, 
1674.00, 
1675.00, 
1676.00, 
1677.00, 
1678.00, 
1679.00, 
1680.00, 
1681.00, 
1682.00, 
1683.00, 
1684.00, 
1685.00, 
1686.00, 
1687.00, 
1688.00, 
1689.00, 
1690.00, 
1691.00, 
1692.00, 
1693.00, 
1694.00, 
1695.00, 
1696.00, 
1697.00, 
1698.00, 
1699.00, 
1700.00, 
1701.00, 
1702.00, 
1703.00, 
1704.00, 
1705.00, 
1706.00, 
1707.00, 
1708.00, 
1709.00, 
1710.00, 
1711.00, 
1712.00, 
1713.00, 
1714.00, 
1715.00, 
1716.00, 
1717.00, 
1718.00, 
1719.00, 
1720.00, 
1721.00, 
1722.00, 
1723.00, 
1724.00, 
1725.00, 
1726.00, 
1727.00, 
1728.00, 
1729.00, 
1730.00, 
1731.00, 
1732.00, 
1733.00, 
1734.00, 
1735.00, 
1736.00, 
1737.00, 
1738.00, 
1739.00, 
1740.00, 
1741.00, 
1742.00, 
1743.00, 
1744.00, 
1745.00, 
1746.00, 
1747.00, 
1748.00, 
1749.00, 
1750.00, 
1751.00, 
1752.00, 
1753.00, 
1754.00, 
1755.00, 
1756.00, 
1757.00, 
1758.00, 
1759.00, 
1760.00, 
1761.00, 
1762.00, 
1763.00, 
1764.00, 
1765.00, 
1766.00, 
1767.00, 
1768.00, 
1769.00, 
1770.00, 
1771.00, 
1772.00, 
1773.00, 
1774.00, 
1775.00, 
1776.00, 
1777.00, 
1778.00, 
1779.00, 
1780.00, 
1781.00, 
1782.00, 
1783.00, 
1784.00, 
1785.00, 
1786.00, 
1787.00, 
1788.00, 
1789.00, 
1790.00, 
1791.00, 
1792.00, 
1793.00, 
1794.00, 
1795.00, 
1796.00, 
1797.00, 
1798.00, 
1799.00, 
1800.00, 
1801.00, 
1802.00, 
1803.00, 
1804.00, 
1805.00, 
1806.00, 
1807.00, 
1808.00, 
1809.00, 
1810.00, 
1811.00, 
1812.00, 
1813.00, 
1814.00, 
1815.00, 
1816.00, 
1817.00, 
1818.00, 
1819.00, 
1820.00, 
1821.00, 
1822.00, 
1823.00, 
1824.00, 
1825.00, 
1826.00, 
1827.00, 
1828.00, 
1829.00, 
1830.00, 
1831.00, 
1832.00, 
1833.00, 
1834.00, 
1835.00, 
1836.00, 
1837.00, 
1838.00, 
1839.00, 
1840.00, 
1841.00, 
1842.00, 
1843.00, 
1844.00, 
1845.00, 
1846.00, 
1847.00, 
1848.00, 
1849.00, 
1850.00, 
1851.00, 
1852.00, 
1853.00, 
1854.00, 
1855.00, 
1856.00, 
1857.00, 
1858.00, 
1859.00, 
1860.00, 
1861.00, 
1862.00, 
1863.00, 
1864.00, 
1865.00, 
1866.00, 
1867.00, 
1868.00, 
1869.00, 
1870.00, 
1871.00, 
1872.00, 
1873.00, 
1874.00, 
1875.00, 
1876.00, 
1877.00, 
1878.00, 
1879.00, 
1880.00, 
1881.00, 
1882.00, 
1883.00, 
1884.00, 
1885.00, 
1886.00, 
1887.00, 
1888.00, 
1889.00, 
1890.00, 
1891.00, 
1892.00, 
1893.00, 
1894.00, 
1895.00, 
1896.00, 
1897.00, 
1898.00, 
1899.00, 
1900.00, 
1901.00, 
1902.00, 
1903.00, 
1904.00, 
1905.00, 
1906.00, 
1907.00, 
1908.00, 
1909.00, 
1910.00, 
1911.00, 
1912.00, 
1913.00, 
1914.00, 
1915.00, 
1916.00, 
1917.00, 
1918.00, 
1919.00, 
1920.00, 
1921.00, 
1922.00, 
1923.00, 
1924.00, 
1925.00, 
1926.00, 
1927.00, 
1928.00, 
1929.00, 
1930.00, 
1931.00, 
1932.00, 
1933.00, 
1934.00, 
1935.00, 
1936.00, 
1937.00, 
1938.00, 
1939.00, 
1940.00, 
1941.00, 
1942.00, 
1943.00, 
1944.00, 
1945.00, 
1946.00, 
1947.00, 
1948.00, 
1949.00, 
1950.00, 
1951.00, 
1952.00, 
1953.00, 
1954.00, 
1955.00, 
1956.00, 
1957.00, 
1958.00, 
1959.00, 
1960.00, 
1961.00, 
1962.00, 
1963.00, 
1964.00, 
1965.00, 
1966.00, 
1967.00, 
1968.00, 
1969.00, 
1970.00, 
1971.00, 
1972.00, 
1973.00, 
1974.00, 
1975.00, 
1976.00, 
1977.00, 
1978.00, 
1979.00, 
1980.00, 
1981.00, 
1982.00, 
1983.00, 
1984.00, 
1985.00, 
1986.00, 
1987.00, 
1988.00, 
1989.00, 
1990.00, 
1991.00, 
1992.00, 
1993.00, 
1994.00, 
1995.00, 
1996.00, 
1997.00, 
1998.00, 
1999.00, 
2000.00, 
2001.00, 
2002.00, 
2003.00, 
2004.00, 
2005.00, 
2006.00, 
2007.00, 
2008.00, 
2009.00, 
2010.00, 
2011.00, 
2012.00, 
2013.00, 
2014.00, 
2015.00, 
2016.00, 
2017.00, 
2018.00, 
2019.00, 
2020.00, 
2021.00, 
2022.00, 
2023.00, 
2024.00, 
2025.00, 
2026.00, 
2027.00, 
2028.00, 
2029.00, 
2030.00, 
2031.00, 
2032.00, 
2033.00, 
2034.00, 
2035.00, 
2036.00, 
2037.00, 
2038.00, 
2039.00, 
2040.00, 
2041.00, 
2042.00, 
2043.00, 
2044.00, 
2045.00, 
2046.00, 
2047.00, 
2048.00, 
2049.00, 
2050.00, 
2051.00, 
2052.00, 
2053.00, 
2054.00, 
2055.00, 
2056.00, 
2057.00, 
2058.00, 
2059.00, 
2060.00, 
2061.00, 
2062.00, 
2063.00, 
2064.00, 
2065.00, 
2066.00, 
2067.00, 
2068.00, 
2069.00, 
2070.00, 
2071.00, 
2072.00, 
2073.00, 
2074.00, 
2075.00, 
2076.00, 
2077.00, 
2078.00, 
2079.00, 
2080.00, 
2081.00, 
2082.00, 
2083.00, 
2084.00, 
2085.00, 
2086.00, 
2087.00, 
2088.00, 
2089.00, 
2090.00, 
2091.00, 
2092.00, 
2093.00, 
2094.00, 
2095.00, 
2096.00, 
2097.00, 
2098.00, 
2099.00, 
2100.00, 
2101.00, 
2102.00, 
2103.00, 
2104.00, 
2105.00, 
2106.00, 
2107.00, 
2108.00, 
2109.00, 
2110.00, 
2111.00, 
2112.00, 
2113.00, 
2114.00, 
2115.00, 
2116.00, 
2117.00, 
2118.00, 
2119.00, 
2120.00, 
2121.00, 
2122.00, 
2123.00, 
2124.00, 
2125.00, 
2126.00, 
2127.00, 
2128.00, 
2129.00, 
2130.00, 
2131.00, 
2132.00, 
2133.00, 
2134.00, 
2135.00, 
2136.00, 
2137.00, 
2138.00, 
2139.00, 
2140.00, 
2141.00, 
2142.00, 
2143.00, 
2144.00, 
2145.00, 
2146.00, 
2147.00, 
2148.00, 
2149.00, 
2150.00, 
2151.00, 
2152.00, 
2153.00, 
2154.00, 
2155.00, 
2156.00, 
2157.00, 
2158.00, 
2159.00, 
2160.00, 
2161.00, 
2162.00, 
2163.00, 
2164.00, 
2165.00, 
2166.00, 
2167.00, 
2168.00, 
2169.00, 
2170.00, 
2171.00, 
2172.00, 
2173.00, 
2174.00, 
2175.00, 
2176.00, 
2177.00, 
2178.00, 
2179.00, 
2180.00, 
2181.00, 
2182.00, 
2183.00, 
2184.00, 
2185.00, 
2186.00, 
2187.00, 
2188.00, 
2189.00, 
2190.00, 
2191.00, 
2192.00, 
2193.00, 
2194.00, 
2195.00, 
2196.00, 
2197.00, 
2198.00, 
2199.00, 
2200.00, 
2201.00, 
2202.00, 
2203.00, 
2204.00, 
2205.00, 
2206.00, 
2207.00, 
2208.00, 
2209.00, 
2210.00, 
2211.00, 
2212.00, 
2213.00, 
2214.00, 
2215.00, 
2216.00, 
2217.00, 
2218.00, 
2219.00, 
2220.00, 
2221.00, 
2222.00, 
2223.00, 
2224.00, 
2225.00, 
2226.00, 
2227.00, 
2228.00, 
2229.00, 
2230.00, 
2231.00, 
2232.00, 
2233.00, 
2234.00, 
2235.00, 
2236.00, 
2237.00, 
2238.00, 
2239.00, 
2240.00, 
2241.00, 
2242.00, 
2243.00, 
2244.00, 
2245.00, 
2246.00, 
2247.00, 
2248.00, 
2249.00, 
2250.00, 
2251.00, 
2252.00, 
2253.00, 
2254.00, 
2255.00, 
2256.00, 
2257.00, 
2258.00, 
2259.00, 
2260.00, 
2261.00, 
2262.00, 
2263.00, 
2264.00, 
2265.00, 
2266.00, 
2267.00, 
2268.00, 
2269.00, 
2270.00, 
2271.00, 
2272.00, 
2273.00, 
2274.00, 
2275.00, 
2276.00, 
2277.00, 
2278.00, 
2279.00, 
2280.00, 
2281.00, 
2282.00, 
2283.00, 
2284.00, 
2285.00, 
2286.00, 
2287.00, 
2288.00, 
2289.00, 
2290.00, 
2291.00, 
2292.00, 
2293.00, 
2294.00, 
2295.00, 
2296.00, 
2297.00, 
2298.00, 
2299.00, 
2300.00, 
2301.00, 
2302.00, 
2303.00, 
2304.00, 
2305.00, 
2306.00, 
2307.00, 
2308.00, 
2309.00, 
2310.00, 
2311.00, 
2312.00, 
2313.00, 
2314.00, 
2315.00, 
2316.00, 
2317.00, 
2318.00, 
2319.00, 
2320.00, 
2321.00, 
2322.00, 
2323.00, 
2324.00, 
2325.00, 
2326.00, 
2327.00, 
2328.00, 
2329.00, 
2330.00, 
2331.00, 
2332.00, 
2333.00, 
2334.00, 
2335.00, 
2336.00, 
2337.00, 
2338.00, 
2339.00, 
2340.00, 
2341.00, 
2342.00, 
2343.00, 
2344.00, 
2345.00, 
2346.00, 
2347.00, 
2348.00, 
2349.00, 
2350.00, 
2351.00, 
2352.00, 
2353.00, 
2354.00, 
2355.00, 
2356.00, 
2357.00, 
2358.00, 
2359.00, 
2360.00, 
2361.00, 
2362.00, 
2363.00, 
2364.00, 
2365.00, 
2366.00, 
2367.00, 
2368.00, 
2369.00, 
2370.00, 
2371.00, 
2372.00, 
2373.00, 
2374.00, 
2375.00, 
2376.00, 
2377.00, 
2378.00, 
2379.00, 
2380.00, 
2381.00, 
2382.00, 
2383.00, 
2384.00, 
2385.00, 
2386.00, 
2387.00, 
2388.00, 
2389.00, 
2390.00, 
2391.00, 
2392.00, 
2393.00, 
2394.00, 
2395.00, 
2396.00, 
2397.00, 
2398.00, 
2399.00, 
2400.00, 
2401.00, 
2402.00, 
2403.00, 
2404.00, 
2405.00, 
2406.00, 
2407.00, 
2408.00, 
2409.00, 
2410.00, 
2411.00, 
2412.00, 
2413.00, 
2414.00, 
2415.00, 
2416.00, 
2417.00, 
2418.00, 
2419.00, 
2420.00, 
2421.00, 
2422.00, 
2423.00, 
2424.00, 
2425.00, 
2426.00, 
2427.00, 
2428.00, 
2429.00, 
2430.00, 
2431.00, 
2432.00, 
2433.00, 
2434.00, 
2435.00, 
2436.00, 
2437.00, 
2438.00, 
2439.00, 
2440.00, 
2441.00, 
2442.00, 
2443.00, 
2444.00, 
2445.00, 
2446.00, 
2447.00, 
2448.00, 
2449.00, 
2450.00, 
2451.00, 
2452.00, 
2453.00, 
2454.00, 
2455.00, 
2456.00, 
2457.00, 
2458.00, 
2459.00, 
2460.00, 
2461.00, 
2462.00, 
2463.00, 
2464.00, 
2465.00, 
2466.00, 
2467.00, 
2468.00, 
2469.00, 
2470.00, 
2471.00, 
2472.00, 
2473.00, 
2474.00, 
2475.00, 
2476.00, 
2477.00, 
2478.00, 
2479.00, 
2480.00, 
2481.00, 
2482.00, 
2483.00, 
2484.00, 
2485.00, 
2486.00, 
2487.00, 
2488.00, 
2489.00, 
2490.00, 
2491.00, 
2492.00, 
2493.00, 
2494.00, 
2495.00, 
2496.00, 
2497.00, 
2498.00, 
2499.00, 
2500.00, 
2501.00, 
2502.00, 
2503.00, 
2504.00, 
2505.00, 
2506.00, 
2507.00, 
2508.00, 
2509.00, 
2510.00, 
2511.00, 
2512.00, 
2513.00, 
2514.00, 
2515.00, 
2516.00, 
2517.00, 
2518.00, 
2519.00, 
2520.00, 
2521.00, 
2522.00, 
2523.00, 
2524.00, 
2525.00, 
2526.00, 
2527.00, 
2528.00, 
2529.00, 
2530.00, 
2531.00, 
2532.00, 
2533.00, 
2534.00, 
2535.00, 
2536.00, 
2537.00, 
2538.00, 
2539.00, 
2540.00, 
2541.00, 
2542.00, 
2543.00, 
2544.00, 
2545.00, 
2546.00, 
2547.00, 
2548.00, 
2549.00, 
2550.00, 
2551.00, 
2552.00, 
2553.00, 
2554.00, 
2555.00, 
2556.00, 
2557.00, 
2558.00, 
2559.00, 
2560.00, 
2561.00, 
2562.00, 
2563.00, 
2564.00, 
2565.00, 
2566.00, 
2567.00, 
2568.00, 
2569.00, 
2570.00, 
2571.00, 
2572.00, 
2573.00, 
2574.00, 
2575.00, 
2576.00, 
2577.00, 
2578.00, 
2579.00, 
2580.00, 
2581.00, 
2582.00, 
2583.00, 
2584.00, 
2585.00, 
2586.00, 
2587.00, 
2588.00, 
2589.00, 
2590.00, 
2591.00, 
2592.00, 
2593.00, 
2594.00, 
2595.00, 
2596.00, 
2597.00, 
2598.00, 
2599.00, 
2600.00, 
