"2cP3 - RawData"
"Wavelength nm.","T%"
200.00,0.005
201.00,-0.000
202.00,0.001
203.00,-0.000
204.00,0.001
205.00,0.003
206.00,0.003
207.00,0.002
208.00,0.001
209.00,0.002
210.00,0.001
211.00,-0.001
212.00,0.002
213.00,0.001
214.00,0.004
215.00,0.003
216.00,0.006
217.00,0.002
218.00,0.002
219.00,0.002
220.00,-0.001
221.00,0.000
222.00,0.004
223.00,-0.002
224.00,0.000
225.00,0.000
226.00,0.000
227.00,0.002
228.00,0.002
229.00,0.000
230.00,0.002
231.00,-0.000
232.00,0.003
233.00,-0.000
234.00,0.002
235.00,0.001
236.00,0.001
237.00,0.000
238.00,0.001
239.00,-0.000
240.00,0.002
241.00,0.002
242.00,0.001
243.00,0.001
244.00,-0.000
245.00,-0.000
246.00,0.002
247.00,0.000
248.00,0.001
249.00,-0.001
250.00,-0.001
251.00,-0.001
252.00,-0.000
253.00,-0.000
254.00,-0.002
255.00,0.000
256.00,-0.001
257.00,-0.001
258.00,0.000
259.00,-0.001
260.00,0.001
261.00,0.001
262.00,0.000
263.00,-0.001
264.00,-0.000
265.00,0.001
266.00,-0.000
267.00,0.000
268.00,0.000
269.00,0.001
270.00,-0.001
271.00,0.001
272.00,-0.000
273.00,0.001
274.00,0.000
275.00,-0.000
276.00,-0.001
277.00,-0.001
278.00,-0.001
279.00,0.002
280.00,0.000
281.00,0.001
282.00,0.001
283.00,-0.001
284.00,0.000
285.00,0.001
286.00,0.001
287.00,-0.000
288.00,-0.001
289.00,0.001
290.00,0.001
291.00,0.001
292.00,-0.001
293.00,-0.002
294.00,0.001
295.00,-0.000
296.00,-0.001
297.00,0.000
298.00,-0.000
299.00,-0.000
300.00,0.002
301.00,0.004
302.00,0.005
303.00,0.010
304.00,0.012
305.00,0.022
306.00,0.031
307.00,0.048
308.00,0.076
309.00,0.119
310.00,0.163
311.00,0.220
312.00,0.299
313.00,0.407
314.00,0.547
315.00,0.704
316.00,0.896
317.00,1.134
318.00,1.377
319.00,1.719
320.00,2.085
321.00,2.509
322.00,2.980
323.00,3.519
324.00,4.064
325.00,4.629
326.00,5.238
327.00,5.913
328.00,6.615
329.00,7.301
330.00,8.064
331.00,8.816
332.00,9.586
333.00,10.434
334.00,11.195
335.00,11.974
336.00,12.779
337.00,13.562
338.00,14.344
339.00,15.077
340.00,15.852
341.00,16.515
342.00,17.233
343.00,17.931
344.00,18.563
345.00,19.151
346.00,19.705
347.00,20.254
348.00,20.770
349.00,21.307
350.00,21.794
351.00,22.226
352.00,22.609
353.00,23.002
354.00,23.429
355.00,23.763
356.00,24.076
357.00,24.403
358.00,24.719
359.00,24.992
360.00,25.231
361.00,25.375
362.00,25.581
363.00,25.839
364.00,26.034
365.00,26.223
366.00,26.323
367.00,26.427
368.00,26.560
369.00,26.653
370.00,26.748
371.00,26.827
372.00,26.887
373.00,26.863
374.00,26.911
375.00,26.864
376.00,26.850
377.00,26.878
378.00,26.810
379.00,26.738
380.00,26.735
381.00,26.753
382.00,26.785
383.00,26.804
384.00,26.879
385.00,26.903
386.00,26.979
387.00,27.002
388.00,27.099
389.00,27.165
390.00,27.219
391.00,27.256
392.00,27.308
393.00,27.314
394.00,27.356
395.00,27.391
396.00,27.403
397.00,27.479
398.00,27.463
399.00,27.443
400.00,27.476
401.00,27.424
402.00,27.483
403.00,27.372
404.00,27.518
405.00,27.547
406.00,27.519
407.00,27.453
408.00,27.444
409.00,27.387
410.00,27.353
411.00,27.379
412.00,27.321
413.00,27.367
414.00,27.357
415.00,27.338
416.00,27.409
417.00,27.416
418.00,27.421
419.00,27.488
420.00,27.491
421.00,27.586
422.00,27.595
423.00,27.620
424.00,27.656
425.00,27.656
426.00,27.700
427.00,27.773
428.00,27.771
429.00,27.822
430.00,27.846
431.00,27.886
432.00,27.938
433.00,28.003
434.00,28.013
435.00,28.106
436.00,28.129
437.00,28.174
438.00,28.251
439.00,28.295
440.00,28.367
441.00,28.455
442.00,28.496
443.00,28.579
444.00,28.666
445.00,28.740
446.00,28.749
447.00,28.955
448.00,29.001
449.00,29.118
450.00,29.214
451.00,29.274
452.00,29.420
453.00,29.485
454.00,29.569
455.00,29.676
456.00,29.782
457.00,29.879
458.00,29.948
459.00,30.059
460.00,30.177
461.00,30.285
462.00,30.403
463.00,30.497
464.00,30.632
465.00,30.691
466.00,30.804
467.00,30.946
468.00,31.045
469.00,31.166
470.00,31.231
471.00,31.332
472.00,31.401
473.00,31.499
474.00,31.597
475.00,31.660
476.00,31.736
477.00,31.864
478.00,31.958
479.00,32.103
480.00,32.216
481.00,32.367
482.00,32.533
483.00,32.637
484.00,32.759
485.00,32.969
486.00,33.093
487.00,33.158
488.00,33.278
489.00,33.445
490.00,33.559
491.00,33.700
492.00,33.876
493.00,33.973
494.00,33.940
495.00,34.098
496.00,34.216
497.00,34.332
498.00,34.465
499.00,34.591
500.00,34.685
501.00,34.798
502.00,34.890
503.00,35.052
504.00,35.154
505.00,35.238
506.00,35.325
507.00,35.448
508.00,35.524
509.00,35.656
510.00,35.766
511.00,35.896
512.00,35.937
513.00,36.080
514.00,36.266
515.00,36.234
516.00,36.385
517.00,36.450
518.00,36.562
519.00,36.719
520.00,36.814
521.00,36.868
522.00,36.926
523.00,37.011
524.00,37.088
525.00,37.199
526.00,37.338
527.00,37.353
528.00,37.466
529.00,37.598
530.00,37.663
531.00,37.807
532.00,37.864
533.00,37.972
534.00,38.017
535.00,38.144
536.00,38.225
537.00,38.263
538.00,38.377
539.00,38.428
540.00,38.505
541.00,38.537
542.00,38.590
543.00,38.732
544.00,38.773
545.00,38.829
546.00,38.889
547.00,38.994
548.00,39.036
549.00,39.074
550.00,39.236
551.00,39.246
552.00,39.310
553.00,39.411
554.00,39.512
555.00,39.518
556.00,39.611
557.00,39.727
558.00,39.746
559.00,39.777
560.00,39.908
561.00,39.911
562.00,39.923
563.00,40.047
564.00,40.096
565.00,40.099
566.00,40.153
567.00,40.221
568.00,40.202
569.00,40.274
570.00,40.217
571.00,40.341
572.00,40.415
573.00,40.444
574.00,40.504
575.00,40.538
576.00,40.547
577.00,40.602
578.00,40.686
579.00,40.725
580.00,40.835
581.00,40.894
582.00,41.004
583.00,41.082
584.00,41.155
585.00,41.195
586.00,41.261
587.00,41.271
588.00,41.373
589.00,41.346
590.00,41.414
591.00,41.464
592.00,41.460
593.00,41.519
594.00,41.551
595.00,41.585
596.00,41.646
597.00,41.670
598.00,41.747
599.00,41.802
600.00,41.932
601.00,41.945
602.00,41.917
603.00,41.931
604.00,42.021
605.00,42.014
606.00,42.104
607.00,42.091
608.00,42.223
609.00,42.281
610.00,42.192
611.00,42.244
612.00,42.295
613.00,42.208
614.00,42.367
615.00,42.337
616.00,42.307
617.00,42.337
618.00,42.552
619.00,42.631
620.00,42.696
621.00,42.765
622.00,42.752
623.00,42.858
624.00,42.962
625.00,42.992
626.00,43.046
627.00,43.093
628.00,43.183
629.00,43.119
630.00,43.140
631.00,43.290
632.00,43.234
633.00,43.325
634.00,43.372
635.00,43.370
636.00,43.584
637.00,43.639
638.00,43.712
639.00,43.749
640.00,43.749
641.00,43.856
642.00,43.892
643.00,43.901
644.00,44.038
645.00,44.107
646.00,44.161
647.00,44.226
648.00,44.235
649.00,44.313
650.00,44.315
651.00,44.420
652.00,44.511
653.00,44.596
654.00,44.601
655.00,44.571
656.00,44.703
657.00,44.790
658.00,44.920
659.00,45.042
660.00,44.885
661.00,45.160
662.00,45.174
663.00,45.227
664.00,45.416
665.00,45.421
666.00,45.411
667.00,45.507
668.00,45.727
669.00,45.732
670.00,45.804
671.00,45.691
672.00,45.789
673.00,45.977
674.00,46.046
675.00,46.064
676.00,46.165
677.00,46.190
678.00,46.150
679.00,46.207
680.00,46.302
681.00,46.343
682.00,46.376
683.00,46.491
684.00,46.557
685.00,46.589
686.00,46.521
687.00,46.744
688.00,46.867
689.00,46.743
690.00,46.882
691.00,46.985
692.00,46.847
693.00,46.923
694.00,47.072
695.00,47.161
696.00,47.192
697.00,47.241
698.00,47.371
699.00,47.460
700.00,47.372
701.00,47.613
702.00,47.635
703.00,47.649
704.00,47.638
705.00,47.621
706.00,47.887
707.00,47.837
708.00,47.868
709.00,48.105
710.00,48.055
711.00,47.945
712.00,48.084
713.00,48.114
714.00,48.087
715.00,48.206
716.00,48.194
717.00,48.312
718.00,48.350
719.00,48.355
720.00,48.436
721.00,52.641
722.00,52.599
723.00,52.685
724.00,52.573
725.00,52.642
726.00,52.691
727.00,52.577
728.00,52.632
729.00,52.646
730.00,52.677
731.00,52.594
732.00,52.601
733.00,52.688
734.00,52.670
735.00,52.700
736.00,52.555
737.00,52.711
738.00,52.740
739.00,52.746
740.00,52.751
741.00,52.735
742.00,52.736
743.00,52.758
744.00,52.744
745.00,52.767
746.00,52.726
747.00,52.681
748.00,52.666
749.00,52.596
750.00,52.664
751.00,52.597
752.00,52.629
753.00,52.658
754.00,52.603
755.00,52.609
756.00,52.549
757.00,52.527
758.00,52.590
759.00,52.563
760.00,52.571
761.00,52.592
762.00,52.584
763.00,52.555
764.00,52.630
765.00,52.573
766.00,52.544
767.00,52.527
768.00,52.529
769.00,52.633
770.00,52.584
771.00,52.517
772.00,52.580
773.00,52.574
774.00,52.544
775.00,52.598
776.00,52.513
777.00,52.586
778.00,52.540
779.00,52.520
780.00,52.551
781.00,52.484
782.00,52.522
783.00,52.442
784.00,52.597
785.00,52.399
786.00,52.427
787.00,52.447
788.00,52.502
789.00,52.416
790.00,52.444
791.00,52.362
792.00,52.396
793.00,52.259
794.00,52.274
795.00,52.202
796.00,52.292
797.00,52.270
798.00,52.214
799.00,52.098
800.00,52.205
801.00,52.184
802.00,52.207
803.00,52.168
804.00,52.073
805.00,52.116
806.00,52.108
807.00,52.046
808.00,52.082
809.00,52.070
810.00,52.020
811.00,51.995
812.00,51.928
813.00,51.886
814.00,52.047
815.00,51.930
816.00,51.929
817.00,51.839
818.00,51.833
819.00,51.844
820.00,51.829
821.00,51.828
822.00,51.833
823.00,51.642
824.00,51.792
825.00,51.707
826.00,51.795
827.00,51.794
828.00,51.675
829.00,51.774
830.00,51.739
831.00,54.276
832.00,54.232
833.00,54.218
834.00,54.223
835.00,54.177
836.00,54.138
837.00,54.162
838.00,54.085
839.00,54.054
840.00,53.977
841.00,54.048
842.00,54.016
843.00,53.986
844.00,53.963
845.00,53.932
846.00,53.974
847.00,53.912
848.00,53.875
849.00,53.790
850.00,53.780
851.00,53.756
852.00,53.762
853.00,53.703
854.00,53.649
855.00,53.606
856.00,53.635
857.00,53.550
858.00,53.523
859.00,53.507
860.00,53.549
861.00,53.456
862.00,53.430
863.00,53.464
864.00,53.406
865.00,53.418
866.00,53.393
867.00,53.413
868.00,53.377
869.00,53.347
870.00,53.336
871.00,53.334
872.00,53.325
873.00,53.279
874.00,53.307
875.00,53.293
876.00,53.282
877.00,53.249
878.00,53.255
879.00,53.227
880.00,53.204
881.00,53.237
882.00,53.211
883.00,53.200
884.00,53.157
885.00,53.131
886.00,53.106
887.00,53.070
888.00,53.051
889.00,53.032
890.00,53.014
891.00,53.013
892.00,52.989
893.00,52.925
894.00,52.957
895.00,52.901
896.00,52.879
897.00,52.843
898.00,52.883
899.00,52.706
900.00,52.833
901.00,52.797
902.00,52.794
903.00,52.779
904.00,52.771
905.00,52.720
906.00,52.723
907.00,52.695
908.00,52.672
909.00,52.663
910.00,52.635
911.00,52.604
912.00,52.636
913.00,52.578
914.00,52.554
915.00,52.521
916.00,52.467
917.00,52.463
918.00,52.479
919.00,52.449
920.00,52.397
921.00,52.439
922.00,52.391
923.00,52.394
924.00,52.343
925.00,52.323
926.00,52.330
927.00,52.323
928.00,52.281
929.00,52.276
930.00,52.242
931.00,52.224
932.00,52.210
933.00,52.190
934.00,52.194
935.00,52.157
936.00,52.086
937.00,52.133
938.00,52.095
939.00,52.073
940.00,52.027
941.00,52.033
942.00,52.011
943.00,52.017
944.00,51.948
945.00,51.955
946.00,51.959
947.00,51.955
948.00,51.895
949.00,51.864
950.00,51.838
951.00,51.839
952.00,51.802
953.00,51.780
954.00,51.757
955.00,51.714
956.00,51.719
957.00,51.671
958.00,51.670
959.00,51.631
960.00,51.607
961.00,51.580
962.00,51.632
963.00,51.562
964.00,51.551
965.00,51.537
966.00,51.525
967.00,51.513
968.00,51.482
969.00,51.510
970.00,51.491
971.00,51.512
972.00,51.478
973.00,51.513
974.00,51.544
975.00,51.498
976.00,51.551
977.00,51.574
978.00,51.527
979.00,51.481
980.00,51.519
981.00,51.517
982.00,51.482
983.00,51.482
984.00,51.484
985.00,51.493
986.00,51.447
987.00,51.465
988.00,51.441
989.00,51.417
990.00,51.424
991.00,51.383
992.00,51.401
993.00,51.375
994.00,51.355
995.00,51.360
996.00,51.335
997.00,51.339
998.00,51.303
999.00,51.326
1000.00,51.275
1001.00,51.289
1002.00,51.260
1003.00,51.254
1004.00,51.241
1005.00,51.223
1006.00,51.241
1007.00,51.206
1008.00,51.195
1009.00,51.181
1010.00,51.157
1011.00,51.155
1012.00,51.115
1013.00,51.134
1014.00,51.100
1015.00,51.101
1016.00,51.048
1017.00,51.066
1018.00,51.055
1019.00,51.034
1020.00,51.007
1021.00,50.979
1022.00,50.985
1023.00,50.974
1024.00,50.922
1025.00,50.923
1026.00,50.911
1027.00,50.890
1028.00,50.894
1029.00,50.867
1030.00,50.844
1031.00,50.854
1032.00,50.808
1033.00,50.824
1034.00,50.781
1035.00,50.759
1036.00,50.735
1037.00,50.715
1038.00,50.698
1039.00,50.654
1040.00,50.655
1041.00,50.620
1042.00,50.637
1043.00,50.589
1044.00,50.621
1045.00,50.601
1046.00,50.587
1047.00,50.601
1048.00,50.614
1049.00,50.631
1050.00,50.632
1051.00,50.663
1052.00,50.667
1053.00,50.666
1054.00,50.660
1055.00,50.677
1056.00,50.703
1057.00,50.700
1058.00,50.703
1059.00,50.692
1060.00,50.682
1061.00,50.697
1062.00,50.666
1063.00,50.666
1064.00,50.651
1065.00,50.636
1066.00,50.642
1067.00,50.624
1068.00,50.633
1069.00,50.602
1070.00,50.595
1071.00,50.572
1072.00,50.597
1073.00,50.558
1074.00,50.555
1075.00,50.555
1076.00,50.535
1077.00,50.535
1078.00,50.526
1079.00,50.501
1080.00,50.515
1081.00,50.490
1082.00,50.488
1083.00,50.475
1084.00,50.468
1085.00,50.452
1086.00,50.453
1087.00,50.445
1088.00,50.429
1089.00,50.420
1090.00,50.415
1091.00,50.411
1092.00,50.402
1093.00,50.368
1094.00,50.370
1095.00,50.356
1096.00,50.359
1097.00,50.348
1098.00,50.337
1099.00,50.329
1100.00,50.315
1101.00,50.284
1102.00,50.296
1103.00,50.291
1104.00,50.275
1105.00,50.255
1106.00,50.249
1107.00,50.244
1108.00,50.249
1109.00,50.232
1110.00,50.237
1111.00,50.223
1112.00,50.203
1113.00,50.208
1114.00,50.207
1115.00,50.191
1116.00,50.180
1117.00,50.172
1118.00,50.172
1119.00,50.155
1120.00,50.145
1121.00,50.155
1122.00,50.137
1123.00,50.116
1124.00,50.135
1125.00,50.099
1126.00,50.093
1127.00,50.093
1128.00,50.086
1129.00,50.065
1130.00,50.062
1131.00,50.055
1132.00,50.058
1133.00,50.048
1134.00,50.034
1135.00,50.018
1136.00,50.030
1137.00,50.033
1138.00,50.036
1139.00,50.034
1140.00,50.015
1141.00,50.009
1142.00,49.991
1143.00,50.007
1144.00,49.983
1145.00,49.971
1146.00,49.973
1147.00,49.966
1148.00,49.966
1149.00,49.980
1150.00,49.975
1151.00,49.983
1152.00,49.975
1153.00,49.985
1154.00,49.933
1155.00,49.945
1156.00,49.914
1157.00,49.931
1158.00,49.915
1159.00,49.915
1160.00,49.931
1161.00,49.927
1162.00,49.906
1163.00,49.910
1164.00,49.903
1165.00,49.901
1166.00,49.905
1167.00,49.888
1168.00,49.908
1169.00,49.898
1170.00,49.902
1171.00,49.884
1172.00,49.885
1173.00,49.881
1174.00,49.893
1175.00,49.869
1176.00,49.872
1177.00,49.861
1178.00,49.845
1179.00,49.878
1180.00,49.862
1181.00,49.878
1182.00,49.863
1183.00,49.865
1184.00,49.843
1185.00,49.871
1186.00,49.835
1187.00,49.851
1188.00,49.838
1189.00,49.831
1190.00,49.841
1191.00,49.831
1192.00,49.839
1193.00,49.836
1194.00,49.854
1195.00,49.817
1196.00,49.844
1197.00,49.830
1198.00,49.821
1199.00,49.830
1200.00,49.814
1201.00,49.845
1202.00,49.818
1203.00,49.805
1204.00,49.805
1205.00,49.813
1206.00,49.809
1207.00,49.818
1208.00,49.804
1209.00,49.817
1210.00,49.811
1211.00,49.805
1212.00,49.828
1213.00,49.816
1214.00,49.834
1215.00,49.806
1216.00,49.812
1217.00,49.813
1218.00,49.802
1219.00,49.802
1220.00,49.780
1221.00,49.800
1222.00,49.767
1223.00,49.804
1224.00,49.792
1225.00,49.774
1226.00,49.781
1227.00,49.779
1228.00,49.822
1229.00,49.835
1230.00,49.837
1231.00,49.836
1232.00,49.852
1233.00,49.831
1234.00,49.838
1235.00,49.831
1236.00,49.828
1237.00,49.831
1238.00,49.825
1239.00,49.839
1240.00,49.834
1241.00,49.848
1242.00,49.847
1243.00,49.860
1244.00,49.829
1245.00,49.861
1246.00,49.872
1247.00,49.867
1248.00,49.856
1249.00,49.860
1250.00,49.870
1251.00,49.864
1252.00,49.867
1253.00,49.863
1254.00,49.882
1255.00,49.865
1256.00,49.874
1257.00,49.869
1258.00,49.888
1259.00,49.877
1260.00,49.907
1261.00,49.911
1262.00,49.906
1263.00,49.891
1264.00,49.902
1265.00,49.911
1266.00,49.909
1267.00,49.929
1268.00,49.930
1269.00,49.903
1270.00,49.932
1271.00,49.931
1272.00,49.941
1273.00,49.945
1274.00,49.949
1275.00,49.957
1276.00,49.957
1277.00,49.950
1278.00,49.979
1279.00,49.975
1280.00,49.972
1281.00,49.979
1282.00,49.986
1283.00,49.974
1284.00,49.977
1285.00,49.958
1286.00,49.975
1287.00,49.959
1288.00,49.971
1289.00,49.973
1290.00,50.001
1291.00,49.998
1292.00,50.002
1293.00,50.006
1294.00,50.020
1295.00,50.025
1296.00,50.016
1297.00,50.029
1298.00,50.060
1299.00,50.034
1300.00,50.050
1301.00,50.034
1302.00,50.048
1303.00,50.070
1304.00,50.054
1305.00,50.077
1306.00,50.100
1307.00,50.093
1308.00,50.099
1309.00,50.099
1310.00,50.082
1311.00,50.082
1312.00,50.081
1313.00,50.076
1314.00,50.108
1315.00,50.115
1316.00,50.115
1317.00,50.139
1318.00,50.118
1319.00,50.139
1320.00,50.151
1321.00,50.285
1322.00,50.319
1323.00,50.284
1324.00,50.278
1325.00,50.264
1326.00,50.289
1327.00,50.288
1328.00,50.293
1329.00,50.275
1330.00,50.307
1331.00,50.286
1332.00,50.283
1333.00,50.297
1334.00,50.326
1335.00,50.322
1336.00,50.357
1337.00,50.373
1338.00,50.461
1339.00,50.508
1340.00,50.542
1341.00,50.618
1342.00,50.683
1343.00,50.721
1344.00,50.779
1345.00,50.848
1346.00,50.877
1347.00,50.902
1348.00,50.907
1349.00,50.939
1350.00,50.952
1351.00,50.963
1352.00,50.991
1353.00,51.049
1354.00,50.989
1355.00,50.948
1356.00,50.992
1357.00,50.986
1358.00,51.006
1359.00,51.044
1360.00,51.075
1361.00,50.993
1362.00,50.987
1363.00,51.103
1364.00,51.062
1365.00,51.019
1366.00,51.079
1367.00,51.031
1368.00,50.932
1369.00,51.063
1370.00,50.981
1371.00,50.950
1372.00,50.968
1373.00,50.982
1374.00,51.029
1375.00,50.979
1376.00,50.967
1377.00,50.964
1378.00,50.979
1379.00,50.973
1380.00,51.015
1381.00,50.965
1382.00,50.976
1383.00,50.966
1384.00,50.928
1385.00,50.968
1386.00,50.982
1387.00,50.907
1388.00,50.926
1389.00,50.968
1390.00,50.963
1391.00,50.908
1392.00,50.944
1393.00,50.946
1394.00,50.948
1395.00,50.913
1396.00,50.899
1397.00,50.960
1398.00,50.904
1399.00,50.971
1400.00,50.871
1401.00,50.925
1402.00,51.000
1403.00,50.974
1404.00,50.934
1405.00,50.999
1406.00,50.959
1407.00,51.003
1408.00,51.016
1409.00,50.977
1410.00,51.029
1411.00,51.005
1412.00,51.069
1413.00,51.018
1414.00,51.011
1415.00,51.065
1416.00,51.132
1417.00,51.097
1418.00,51.082
1419.00,51.076
1420.00,51.104
1421.00,51.155
1422.00,51.134
1423.00,51.126
1424.00,51.161
1425.00,51.151
1426.00,51.159
1427.00,51.176
1428.00,51.182
1429.00,51.222
1430.00,51.230
1431.00,51.237
1432.00,51.241
1433.00,51.275
1434.00,51.249
1435.00,51.313
1436.00,51.312
1437.00,51.313
1438.00,51.328
1439.00,51.358
1440.00,51.381
1441.00,51.399
1442.00,51.379
1443.00,51.413
1444.00,51.446
1445.00,51.432
1446.00,51.455
1447.00,51.463
1448.00,51.493
1449.00,51.509
1450.00,51.501
1451.00,51.544
1452.00,51.544
1453.00,51.548
1454.00,51.571
1455.00,51.591
1456.00,51.599
1457.00,51.612
1458.00,51.620
1459.00,51.642
1460.00,51.633
1461.00,51.653
1462.00,51.693
1463.00,51.708
1464.00,51.697
1465.00,51.737
1466.00,51.739
1467.00,51.747
1468.00,51.793
1469.00,51.768
1470.00,51.787
1471.00,51.799
1472.00,51.800
1473.00,51.822
1474.00,51.849
1475.00,51.852
1476.00,51.907
1477.00,51.897
1478.00,51.891
1479.00,51.911
1480.00,51.900
1481.00,51.911
1482.00,51.942
1483.00,51.945
1484.00,51.966
1485.00,51.969
1486.00,51.963
1487.00,52.005
1488.00,52.012
1489.00,52.000
1490.00,52.041
1491.00,52.028
1492.00,52.061
1493.00,52.061
1494.00,52.067
1495.00,52.086
1496.00,52.083
1497.00,52.089
1498.00,52.106
1499.00,52.114
1500.00,52.135
1501.00, 
1502.00, 
1503.00, 
1504.00, 
1505.00, 
1506.00, 
1507.00, 
1508.00, 
1509.00, 
1510.00, 
1511.00, 
1512.00, 
1513.00, 
1514.00, 
1515.00, 
1516.00, 
1517.00, 
1518.00, 
1519.00, 
1520.00, 
1521.00, 
1522.00, 
1523.00, 
1524.00, 
1525.00, 
1526.00, 
1527.00, 
1528.00, 
1529.00, 
1530.00, 
1531.00, 
1532.00, 
1533.00, 
1534.00, 
1535.00, 
1536.00, 
1537.00, 
1538.00, 
1539.00, 
1540.00, 
1541.00, 
1542.00, 
1543.00, 
1544.00, 
1545.00, 
1546.00, 
1547.00, 
1548.00, 
1549.00, 
1550.00, 
1551.00, 
1552.00, 
1553.00, 
1554.00, 
1555.00, 
1556.00, 
1557.00, 
1558.00, 
1559.00, 
1560.00, 
1561.00, 
1562.00, 
1563.00, 
1564.00, 
1565.00, 
1566.00, 
1567.00, 
1568.00, 
1569.00, 
1570.00, 
1571.00, 
1572.00, 
1573.00, 
1574.00, 
1575.00, 
1576.00, 
1577.00, 
1578.00, 
1579.00, 
1580.00, 
1581.00, 
1582.00, 
1583.00, 
1584.00, 
1585.00, 
1586.00, 
1587.00, 
1588.00, 
1589.00, 
1590.00, 
1591.00, 
1592.00, 
1593.00, 
1594.00, 
1595.00, 
1596.00, 
1597.00, 
1598.00, 
1599.00, 
1600.00, 
1601.00, 
1602.00, 
1603.00, 
1604.00, 
1605.00, 
1606.00, 
1607.00, 
1608.00, 
1609.00, 
1610.00, 
1611.00, 
1612.00, 
1613.00, 
1614.00, 
1615.00, 
1616.00, 
1617.00, 
1618.00, 
1619.00, 
1620.00, 
1621.00, 
1622.00, 
1623.00, 
1624.00, 
1625.00, 
1626.00, 
1627.00, 
1628.00, 
1629.00, 
1630.00, 
1631.00, 
1632.00, 
1633.00, 
1634.00, 
1635.00, 
1636.00, 
1637.00, 
1638.00, 
1639.00, 
1640.00, 
1641.00, 
1642.00, 
1643.00, 
1644.00, 
1645.00, 
1646.00, 
1647.00, 
1648.00, 
1649.00, 
1650.00, 
1651.00, 
1652.00, 
1653.00, 
1654.00, 
1655.00, 
1656.00, 
1657.00, 
1658.00, 
1659.00, 
1660.00, 
1661.00, 
1662.00, 
1663.00, 
1664.00, 
1665.00, 
1666.00, 
1667.00, 
1668.00, 
1669.00, 
1670.00, 
1671.00, 
1672.00, 
1673.00, 
1674.00, 
1675.00, 
1676.00, 
1677.00, 
1678.00, 
1679.00, 
1680.00, 
1681.00, 
1682.00, 
1683.00, 
1684.00, 
1685.00, 
1686.00, 
1687.00, 
1688.00, 
1689.00, 
1690.00, 
1691.00, 
1692.00, 
1693.00, 
1694.00, 
1695.00, 
1696.00, 
1697.00, 
1698.00, 
1699.00, 
1700.00, 
1701.00, 
1702.00, 
1703.00, 
1704.00, 
1705.00, 
1706.00, 
1707.00, 
1708.00, 
1709.00, 
1710.00, 
1711.00, 
1712.00, 
1713.00, 
1714.00, 
1715.00, 
1716.00, 
1717.00, 
1718.00, 
1719.00, 
1720.00, 
1721.00, 
1722.00, 
1723.00, 
1724.00, 
1725.00, 
1726.00, 
1727.00, 
1728.00, 
1729.00, 
1730.00, 
1731.00, 
1732.00, 
1733.00, 
1734.00, 
1735.00, 
1736.00, 
1737.00, 
1738.00, 
1739.00, 
1740.00, 
1741.00, 
1742.00, 
1743.00, 
1744.00, 
1745.00, 
1746.00, 
1747.00, 
1748.00, 
1749.00, 
1750.00, 
1751.00, 
1752.00, 
1753.00, 
1754.00, 
1755.00, 
1756.00, 
1757.00, 
1758.00, 
1759.00, 
1760.00, 
1761.00, 
1762.00, 
1763.00, 
1764.00, 
1765.00, 
1766.00, 
1767.00, 
1768.00, 
1769.00, 
1770.00, 
1771.00, 
1772.00, 
1773.00, 
1774.00, 
1775.00, 
1776.00, 
1777.00, 
1778.00, 
1779.00, 
1780.00, 
1781.00, 
1782.00, 
1783.00, 
1784.00, 
1785.00, 
1786.00, 
1787.00, 
1788.00, 
1789.00, 
1790.00, 
1791.00, 
1792.00, 
1793.00, 
1794.00, 
1795.00, 
1796.00, 
1797.00, 
1798.00, 
1799.00, 
1800.00, 
1801.00, 
1802.00, 
1803.00, 
1804.00, 
1805.00, 
1806.00, 
1807.00, 
1808.00, 
1809.00, 
1810.00, 
1811.00, 
1812.00, 
1813.00, 
1814.00, 
1815.00, 
1816.00, 
1817.00, 
1818.00, 
1819.00, 
1820.00, 
1821.00, 
1822.00, 
1823.00, 
1824.00, 
1825.00, 
1826.00, 
1827.00, 
1828.00, 
1829.00, 
1830.00, 
1831.00, 
1832.00, 
1833.00, 
1834.00, 
1835.00, 
1836.00, 
1837.00, 
1838.00, 
1839.00, 
1840.00, 
1841.00, 
1842.00, 
1843.00, 
1844.00, 
1845.00, 
1846.00, 
1847.00, 
1848.00, 
1849.00, 
1850.00, 
1851.00, 
1852.00, 
1853.00, 
1854.00, 
1855.00, 
1856.00, 
1857.00, 
1858.00, 
1859.00, 
1860.00, 
1861.00, 
1862.00, 
1863.00, 
1864.00, 
1865.00, 
1866.00, 
1867.00, 
1868.00, 
1869.00, 
1870.00, 
1871.00, 
1872.00, 
1873.00, 
1874.00, 
1875.00, 
1876.00, 
1877.00, 
1878.00, 
1879.00, 
1880.00, 
1881.00, 
1882.00, 
1883.00, 
1884.00, 
1885.00, 
1886.00, 
1887.00, 
1888.00, 
1889.00, 
1890.00, 
1891.00, 
1892.00, 
1893.00, 
1894.00, 
1895.00, 
1896.00, 
1897.00, 
1898.00, 
1899.00, 
1900.00, 
1901.00, 
1902.00, 
1903.00, 
1904.00, 
1905.00, 
1906.00, 
1907.00, 
1908.00, 
1909.00, 
1910.00, 
1911.00, 
1912.00, 
1913.00, 
1914.00, 
1915.00, 
1916.00, 
1917.00, 
1918.00, 
1919.00, 
1920.00, 
1921.00, 
1922.00, 
1923.00, 
1924.00, 
1925.00, 
1926.00, 
1927.00, 
1928.00, 
1929.00, 
1930.00, 
1931.00, 
1932.00, 
1933.00, 
1934.00, 
1935.00, 
1936.00, 
1937.00, 
1938.00, 
1939.00, 
1940.00, 
1941.00, 
1942.00, 
1943.00, 
1944.00, 
1945.00, 
1946.00, 
1947.00, 
1948.00, 
1949.00, 
1950.00, 
1951.00, 
1952.00, 
1953.00, 
1954.00, 
1955.00, 
1956.00, 
1957.00, 
1958.00, 
1959.00, 
1960.00, 
1961.00, 
1962.00, 
1963.00, 
1964.00, 
1965.00, 
1966.00, 
1967.00, 
1968.00, 
1969.00, 
1970.00, 
1971.00, 
1972.00, 
1973.00, 
1974.00, 
1975.00, 
1976.00, 
1977.00, 
1978.00, 
1979.00, 
1980.00, 
1981.00, 
1982.00, 
1983.00, 
1984.00, 
1985.00, 
1986.00, 
1987.00, 
1988.00, 
1989.00, 
1990.00, 
1991.00, 
1992.00, 
1993.00, 
1994.00, 
1995.00, 
1996.00, 
1997.00, 
1998.00, 
1999.00, 
2000.00, 
2001.00, 
2002.00, 
2003.00, 
2004.00, 
2005.00, 
2006.00, 
2007.00, 
2008.00, 
2009.00, 
2010.00, 
2011.00, 
2012.00, 
2013.00, 
2014.00, 
2015.00, 
2016.00, 
2017.00, 
2018.00, 
2019.00, 
2020.00, 
2021.00, 
2022.00, 
2023.00, 
2024.00, 
2025.00, 
2026.00, 
2027.00, 
2028.00, 
2029.00, 
2030.00, 
2031.00, 
2032.00, 
2033.00, 
2034.00, 
2035.00, 
2036.00, 
2037.00, 
2038.00, 
2039.00, 
2040.00, 
2041.00, 
2042.00, 
2043.00, 
2044.00, 
2045.00, 
2046.00, 
2047.00, 
2048.00, 
2049.00, 
2050.00, 
2051.00, 
2052.00, 
2053.00, 
2054.00, 
2055.00, 
2056.00, 
2057.00, 
2058.00, 
2059.00, 
2060.00, 
2061.00, 
2062.00, 
2063.00, 
2064.00, 
2065.00, 
2066.00, 
2067.00, 
2068.00, 
2069.00, 
2070.00, 
2071.00, 
2072.00, 
2073.00, 
2074.00, 
2075.00, 
2076.00, 
2077.00, 
2078.00, 
2079.00, 
2080.00, 
2081.00, 
2082.00, 
2083.00, 
2084.00, 
2085.00, 
2086.00, 
2087.00, 
2088.00, 
2089.00, 
2090.00, 
2091.00, 
2092.00, 
2093.00, 
2094.00, 
2095.00, 
2096.00, 
2097.00, 
2098.00, 
2099.00, 
2100.00, 
2101.00, 
2102.00, 
2103.00, 
2104.00, 
2105.00, 
2106.00, 
2107.00, 
2108.00, 
2109.00, 
2110.00, 
2111.00, 
2112.00, 
2113.00, 
2114.00, 
2115.00, 
2116.00, 
2117.00, 
2118.00, 
2119.00, 
2120.00, 
2121.00, 
2122.00, 
2123.00, 
2124.00, 
2125.00, 
2126.00, 
2127.00, 
2128.00, 
2129.00, 
2130.00, 
2131.00, 
2132.00, 
2133.00, 
2134.00, 
2135.00, 
2136.00, 
2137.00, 
2138.00, 
2139.00, 
2140.00, 
2141.00, 
2142.00, 
2143.00, 
2144.00, 
2145.00, 
2146.00, 
2147.00, 
2148.00, 
2149.00, 
2150.00, 
2151.00, 
2152.00, 
2153.00, 
2154.00, 
2155.00, 
2156.00, 
2157.00, 
2158.00, 
2159.00, 
2160.00, 
2161.00, 
2162.00, 
2163.00, 
2164.00, 
2165.00, 
2166.00, 
2167.00, 
2168.00, 
2169.00, 
2170.00, 
2171.00, 
2172.00, 
2173.00, 
2174.00, 
2175.00, 
2176.00, 
2177.00, 
2178.00, 
2179.00, 
2180.00, 
2181.00, 
2182.00, 
2183.00, 
2184.00, 
2185.00, 
2186.00, 
2187.00, 
2188.00, 
2189.00, 
2190.00, 
2191.00, 
2192.00, 
2193.00, 
2194.00, 
2195.00, 
2196.00, 
2197.00, 
2198.00, 
2199.00, 
2200.00, 
2201.00, 
2202.00, 
2203.00, 
2204.00, 
2205.00, 
2206.00, 
2207.00, 
2208.00, 
2209.00, 
2210.00, 
2211.00, 
2212.00, 
2213.00, 
2214.00, 
2215.00, 
2216.00, 
2217.00, 
2218.00, 
2219.00, 
2220.00, 
2221.00, 
2222.00, 
2223.00, 
2224.00, 
2225.00, 
2226.00, 
2227.00, 
2228.00, 
2229.00, 
2230.00, 
2231.00, 
2232.00, 
2233.00, 
2234.00, 
2235.00, 
2236.00, 
2237.00, 
2238.00, 
2239.00, 
2240.00, 
2241.00, 
2242.00, 
2243.00, 
2244.00, 
2245.00, 
2246.00, 
2247.00, 
2248.00, 
2249.00, 
2250.00, 
2251.00, 
2252.00, 
2253.00, 
2254.00, 
2255.00, 
2256.00, 
2257.00, 
2258.00, 
2259.00, 
2260.00, 
2261.00, 
2262.00, 
2263.00, 
2264.00, 
2265.00, 
2266.00, 
2267.00, 
2268.00, 
2269.00, 
2270.00, 
2271.00, 
2272.00, 
2273.00, 
2274.00, 
2275.00, 
2276.00, 
2277.00, 
2278.00, 
2279.00, 
2280.00, 
2281.00, 
2282.00, 
2283.00, 
2284.00, 
2285.00, 
2286.00, 
2287.00, 
2288.00, 
2289.00, 
2290.00, 
2291.00, 
2292.00, 
2293.00, 
2294.00, 
2295.00, 
2296.00, 
2297.00, 
2298.00, 
2299.00, 
2300.00, 
2301.00, 
2302.00, 
2303.00, 
2304.00, 
2305.00, 
2306.00, 
2307.00, 
2308.00, 
2309.00, 
2310.00, 
2311.00, 
2312.00, 
2313.00, 
2314.00, 
2315.00, 
2316.00, 
2317.00, 
2318.00, 
2319.00, 
2320.00, 
2321.00, 
2322.00, 
2323.00, 
2324.00, 
2325.00, 
2326.00, 
2327.00, 
2328.00, 
2329.00, 
2330.00, 
2331.00, 
2332.00, 
2333.00, 
2334.00, 
2335.00, 
2336.00, 
2337.00, 
2338.00, 
2339.00, 
2340.00, 
2341.00, 
2342.00, 
2343.00, 
2344.00, 
2345.00, 
2346.00, 
2347.00, 
2348.00, 
2349.00, 
2350.00, 
2351.00, 
2352.00, 
2353.00, 
2354.00, 
2355.00, 
2356.00, 
2357.00, 
2358.00, 
2359.00, 
2360.00, 
2361.00, 
2362.00, 
2363.00, 
2364.00, 
2365.00, 
2366.00, 
2367.00, 
2368.00, 
2369.00, 
2370.00, 
2371.00, 
2372.00, 
2373.00, 
2374.00, 
2375.00, 
2376.00, 
2377.00, 
2378.00, 
2379.00, 
2380.00, 
2381.00, 
2382.00, 
2383.00, 
2384.00, 
2385.00, 
2386.00, 
2387.00, 
2388.00, 
2389.00, 
2390.00, 
2391.00, 
2392.00, 
2393.00, 
2394.00, 
2395.00, 
2396.00, 
2397.00, 
2398.00, 
2399.00, 
2400.00, 
2401.00, 
2402.00, 
2403.00, 
2404.00, 
2405.00, 
2406.00, 
2407.00, 
2408.00, 
2409.00, 
2410.00, 
2411.00, 
2412.00, 
2413.00, 
2414.00, 
2415.00, 
2416.00, 
2417.00, 
2418.00, 
2419.00, 
2420.00, 
2421.00, 
2422.00, 
2423.00, 
2424.00, 
2425.00, 
2426.00, 
2427.00, 
2428.00, 
2429.00, 
2430.00, 
2431.00, 
2432.00, 
2433.00, 
2434.00, 
2435.00, 
2436.00, 
2437.00, 
2438.00, 
2439.00, 
2440.00, 
2441.00, 
2442.00, 
2443.00, 
2444.00, 
2445.00, 
2446.00, 
2447.00, 
2448.00, 
2449.00, 
2450.00, 
2451.00, 
2452.00, 
2453.00, 
2454.00, 
2455.00, 
2456.00, 
2457.00, 
2458.00, 
2459.00, 
2460.00, 
2461.00, 
2462.00, 
2463.00, 
2464.00, 
2465.00, 
2466.00, 
2467.00, 
2468.00, 
2469.00, 
2470.00, 
2471.00, 
2472.00, 
2473.00, 
2474.00, 
2475.00, 
2476.00, 
2477.00, 
2478.00, 
2479.00, 
2480.00, 
2481.00, 
2482.00, 
2483.00, 
2484.00, 
2485.00, 
2486.00, 
2487.00, 
2488.00, 
2489.00, 
2490.00, 
2491.00, 
2492.00, 
2493.00, 
2494.00, 
2495.00, 
2496.00, 
2497.00, 
2498.00, 
2499.00, 
2500.00, 
2501.00, 
2502.00, 
2503.00, 
2504.00, 
2505.00, 
2506.00, 
2507.00, 
2508.00, 
2509.00, 
2510.00, 
2511.00, 
2512.00, 
2513.00, 
2514.00, 
2515.00, 
2516.00, 
2517.00, 
2518.00, 
2519.00, 
2520.00, 
2521.00, 
2522.00, 
2523.00, 
2524.00, 
2525.00, 
2526.00, 
2527.00, 
2528.00, 
2529.00, 
2530.00, 
2531.00, 
2532.00, 
2533.00, 
2534.00, 
2535.00, 
2536.00, 
2537.00, 
2538.00, 
2539.00, 
2540.00, 
2541.00, 
2542.00, 
2543.00, 
2544.00, 
2545.00, 
2546.00, 
2547.00, 
2548.00, 
2549.00, 
2550.00, 
2551.00, 
2552.00, 
2553.00, 
2554.00, 
2555.00, 
2556.00, 
2557.00, 
2558.00, 
2559.00, 
2560.00, 
2561.00, 
2562.00, 
2563.00, 
2564.00, 
2565.00, 
2566.00, 
2567.00, 
2568.00, 
2569.00, 
2570.00, 
2571.00, 
2572.00, 
2573.00, 
2574.00, 
2575.00, 
2576.00, 
2577.00, 
2578.00, 
2579.00, 
2580.00, 
2581.00, 
2582.00, 
2583.00, 
2584.00, 
2585.00, 
2586.00, 
2587.00, 
2588.00, 
2589.00, 
2590.00, 
2591.00, 
2592.00, 
2593.00, 
2594.00, 
2595.00, 
2596.00, 
2597.00, 
2598.00, 
2599.00, 
2600.00, 
