"1cP1 - RawData"
"Wavelength nm.","T%"
200.00,0.001
201.00,0.003
202.00,-0.001
203.00,0.001
204.00,0.000
205.00,0.000
206.00,0.003
207.00,0.000
208.00,-0.000
209.00,0.002
210.00,0.003
211.00,0.003
212.00,-0.002
213.00,-0.001
214.00,0.002
215.00,-0.000
216.00,-0.001
217.00,-0.001
218.00,-0.001
219.00,0.001
220.00,0.002
221.00,0.002
222.00,0.003
223.00,0.002
224.00,0.001
225.00,-0.003
226.00,0.001
227.00,0.003
228.00,0.003
229.00,0.001
230.00,-0.000
231.00,-0.001
232.00,0.001
233.00,0.002
234.00,-0.001
235.00,-0.001
236.00,-0.001
237.00,0.002
238.00,0.001
239.00,0.001
240.00,-0.000
241.00,0.002
242.00,-0.000
243.00,-0.000
244.00,-0.001
245.00,-0.001
246.00,0.002
247.00,0.000
248.00,0.000
249.00,0.000
250.00,0.001
251.00,-0.001
252.00,0.001
253.00,-0.001
254.00,0.001
255.00,0.001
256.00,0.000
257.00,-0.000
258.00,-0.001
259.00,-0.000
260.00,0.002
261.00,-0.001
262.00,0.001
263.00,-0.001
264.00,0.001
265.00,-0.000
266.00,0.000
267.00,-0.000
268.00,0.001
269.00,-0.001
270.00,0.001
271.00,0.001
272.00,-0.000
273.00,0.000
274.00,0.000
275.00,-0.002
276.00,0.001
277.00,0.000
278.00,0.001
279.00,0.000
280.00,-0.001
281.00,-0.001
282.00,0.000
283.00,0.001
284.00,0.000
285.00,-0.001
286.00,-0.001
287.00,0.001
288.00,0.000
289.00,0.001
290.00,0.000
291.00,0.002
292.00,-0.000
293.00,-0.000
294.00,0.001
295.00,-0.000
296.00,-0.000
297.00,-0.000
298.00,0.001
299.00,0.000
300.00,0.000
301.00,0.002
302.00,-0.001
303.00,0.001
304.00,0.001
305.00,0.001
306.00,0.002
307.00,0.004
308.00,0.004
309.00,0.010
310.00,0.011
311.00,0.022
312.00,0.030
313.00,0.050
314.00,0.076
315.00,0.112
316.00,0.160
317.00,0.227
318.00,0.300
319.00,0.413
320.00,0.546
321.00,0.700
322.00,0.854
323.00,1.125
324.00,1.383
325.00,1.667
326.00,1.972
327.00,2.364
328.00,2.750
329.00,3.164
330.00,3.610
331.00,4.097
332.00,4.583
333.00,5.127
334.00,5.626
335.00,6.197
336.00,6.772
337.00,7.340
338.00,7.924
339.00,8.420
340.00,8.977
341.00,9.528
342.00,10.030
343.00,10.552
344.00,11.048
345.00,11.496
346.00,11.954
347.00,12.322
348.00,12.758
349.00,13.115
350.00,13.436
351.00,13.776
352.00,14.042
353.00,14.350
354.00,14.577
355.00,14.874
356.00,15.099
357.00,15.281
358.00,15.501
359.00,15.687
360.00,15.918
361.00,15.991
362.00,16.152
363.00,16.286
364.00,16.380
365.00,16.414
366.00,16.471
367.00,16.545
368.00,16.564
369.00,16.617
370.00,16.633
371.00,16.637
372.00,16.610
373.00,16.629
374.00,16.595
375.00,16.489
376.00,16.444
377.00,16.343
378.00,16.252
379.00,16.171
380.00,16.155
381.00,16.136
382.00,16.103
383.00,16.096
384.00,16.135
385.00,16.180
386.00,16.133
387.00,16.228
388.00,16.233
389.00,16.269
390.00,16.286
391.00,16.289
392.00,16.321
393.00,16.307
394.00,16.323
395.00,16.331
396.00,16.296
397.00,16.346
398.00,16.318
399.00,16.307
400.00,16.294
401.00,16.266
402.00,16.319
403.00,16.289
404.00,16.254
405.00,16.238
406.00,16.231
407.00,16.173
408.00,16.187
409.00,16.115
410.00,16.069
411.00,16.071
412.00,16.043
413.00,16.039
414.00,16.024
415.00,16.002
416.00,16.051
417.00,16.029
418.00,16.045
419.00,16.090
420.00,16.128
421.00,16.069
422.00,16.117
423.00,16.103
424.00,16.186
425.00,16.186
426.00,16.166
427.00,16.253
428.00,16.231
429.00,16.294
430.00,16.350
431.00,16.392
432.00,16.391
433.00,16.470
434.00,16.505
435.00,16.575
436.00,16.631
437.00,16.657
438.00,16.724
439.00,16.796
440.00,16.811
441.00,16.943
442.00,16.993
443.00,17.075
444.00,17.164
445.00,17.260
446.00,17.326
447.00,17.407
448.00,17.493
449.00,17.619
450.00,17.709
451.00,17.774
452.00,17.875
453.00,18.009
454.00,18.081
455.00,18.194
456.00,18.333
457.00,18.422
458.00,18.504
459.00,18.639
460.00,18.769
461.00,18.870
462.00,18.957
463.00,19.111
464.00,19.272
465.00,19.333
466.00,19.480
467.00,19.663
468.00,19.667
469.00,19.846
470.00,19.947
471.00,20.040
472.00,20.192
473.00,20.251
474.00,20.376
475.00,20.523
476.00,20.622
477.00,20.722
478.00,20.875
479.00,21.035
480.00,21.168
481.00,21.290
482.00,21.441
483.00,21.591
484.00,21.787
485.00,21.917
486.00,22.061
487.00,22.165
488.00,22.346
489.00,22.453
490.00,22.690
491.00,22.810
492.00,22.954
493.00,23.146
494.00,23.320
495.00,23.335
496.00,23.497
497.00,23.608
498.00,23.753
499.00,23.910
500.00,24.038
501.00,24.183
502.00,24.299
503.00,24.452
504.00,24.529
505.00,24.689
506.00,24.814
507.00,24.945
508.00,25.074
509.00,25.200
510.00,25.367
511.00,25.467
512.00,25.602
513.00,25.716
514.00,25.827
515.00,25.980
516.00,26.135
517.00,26.234
518.00,26.379
519.00,26.485
520.00,26.542
521.00,26.661
522.00,26.747
523.00,26.798
524.00,26.927
525.00,27.069
526.00,27.156
527.00,27.268
528.00,27.378
529.00,27.554
530.00,27.674
531.00,27.802
532.00,27.844
533.00,28.049
534.00,28.102
535.00,28.179
536.00,28.253
537.00,28.352
538.00,28.427
539.00,28.499
540.00,28.596
541.00,28.596
542.00,28.664
543.00,28.808
544.00,28.855
545.00,29.002
546.00,29.015
547.00,29.188
548.00,29.255
549.00,29.332
550.00,29.404
551.00,29.540
552.00,29.614
553.00,29.652
554.00,29.753
555.00,29.798
556.00,29.851
557.00,29.922
558.00,29.991
559.00,30.077
560.00,30.137
561.00,30.241
562.00,30.285
563.00,30.309
564.00,30.444
565.00,30.436
566.00,30.445
567.00,30.491
568.00,30.540
569.00,30.670
570.00,30.708
571.00,30.654
572.00,30.740
573.00,30.767
574.00,30.778
575.00,30.844
576.00,30.863
577.00,30.977
578.00,31.023
579.00,31.113
580.00,31.147
581.00,31.291
582.00,31.393
583.00,31.370
584.00,31.485
585.00,31.532
586.00,31.599
587.00,31.646
588.00,31.662
589.00,31.694
590.00,31.783
591.00,31.834
592.00,31.755
593.00,31.825
594.00,31.942
595.00,32.029
596.00,32.108
597.00,32.161
598.00,32.270
599.00,32.223
600.00,32.275
601.00,32.354
602.00,32.370
603.00,32.472
604.00,32.527
605.00,32.520
606.00,32.609
607.00,32.642
608.00,32.694
609.00,32.685
610.00,32.847
611.00,33.031
612.00,32.897
613.00,32.887
614.00,32.892
615.00,33.032
616.00,33.184
617.00,33.154
618.00,33.174
619.00,33.257
620.00,33.311
621.00,33.423
622.00,33.503
623.00,33.531
624.00,33.669
625.00,33.708
626.00,33.751
627.00,33.868
628.00,33.848
629.00,33.888
630.00,34.004
631.00,34.070
632.00,34.132
633.00,34.269
634.00,34.389
635.00,34.496
636.00,34.537
637.00,34.609
638.00,34.695
639.00,34.796
640.00,34.875
641.00,34.906
642.00,34.997
643.00,35.084
644.00,35.163
645.00,35.257
646.00,35.414
647.00,35.517
648.00,35.537
649.00,35.595
650.00,35.687
651.00,35.868
652.00,35.960
653.00,35.964
654.00,36.069
655.00,36.314
656.00,36.575
657.00,36.462
658.00,36.666
659.00,36.785
660.00,36.878
661.00,36.976
662.00,36.863
663.00,37.056
664.00,37.375
665.00,37.459
666.00,37.426
667.00,37.519
668.00,37.486
669.00,37.769
670.00,38.064
671.00,37.958
672.00,38.110
673.00,38.195
674.00,38.296
675.00,38.477
676.00,38.605
677.00,38.832
678.00,38.727
679.00,38.923
680.00,39.072
681.00,39.301
682.00,39.321
683.00,39.327
684.00,39.565
685.00,39.651
686.00,39.536
687.00,39.721
688.00,39.841
689.00,39.972
690.00,40.087
691.00,40.373
692.00,40.677
693.00,40.381
694.00,40.497
695.00,40.699
696.00,40.783
697.00,40.821
698.00,40.974
699.00,41.302
700.00,41.307
701.00,41.369
702.00,41.421
703.00,41.691
704.00,41.755
705.00,41.688
706.00,41.893
707.00,41.972
708.00,41.944
709.00,42.348
710.00,42.625
711.00,42.213
712.00,42.328
713.00,42.552
714.00,42.633
715.00,42.698
716.00,42.813
717.00,42.894
718.00,43.094
719.00,43.130
720.00,43.264
721.00,47.618
722.00,47.625
723.00,47.629
724.00,47.729
725.00,47.826
726.00,47.798
727.00,47.935
728.00,47.905
729.00,47.971
730.00,48.061
731.00,48.134
732.00,48.131
733.00,48.206
734.00,48.263
735.00,48.329
736.00,48.384
737.00,48.466
738.00,48.507
739.00,48.541
740.00,48.609
741.00,48.709
742.00,48.755
743.00,48.746
744.00,48.736
745.00,48.811
746.00,48.846
747.00,48.858
748.00,48.895
749.00,48.934
750.00,48.964
751.00,48.833
752.00,48.998
753.00,48.978
754.00,49.034
755.00,49.043
756.00,49.077
757.00,49.076
758.00,49.180
759.00,49.215
760.00,49.250
761.00,49.262
762.00,49.295
763.00,49.335
764.00,49.316
765.00,49.436
766.00,49.469
767.00,49.524
768.00,49.518
769.00,49.552
770.00,49.588
771.00,49.636
772.00,49.610
773.00,49.572
774.00,49.650
775.00,49.665
776.00,49.671
777.00,49.682
778.00,49.751
779.00,49.790
780.00,49.765
781.00,49.762
782.00,49.776
783.00,49.810
784.00,49.801
785.00,49.762
786.00,49.833
787.00,49.869
788.00,49.809
789.00,49.853
790.00,49.809
791.00,49.902
792.00,49.822
793.00,49.840
794.00,49.880
795.00,49.822
796.00,49.856
797.00,49.816
798.00,49.847
799.00,49.793
800.00,49.817
801.00,49.861
802.00,49.806
803.00,49.823
804.00,49.796
805.00,49.844
806.00,49.822
807.00,49.759
808.00,49.806
809.00,49.745
810.00,49.771
811.00,49.828
812.00,49.920
813.00,49.797
814.00,49.813
815.00,49.774
816.00,49.731
817.00,49.757
818.00,49.713
819.00,49.691
820.00,49.739
821.00,49.694
822.00,49.805
823.00,49.648
824.00,49.724
825.00,49.677
826.00,49.672
827.00,49.698
828.00,49.678
829.00,49.724
830.00,49.737
831.00,52.021
832.00,52.033
833.00,52.001
834.00,51.971
835.00,51.941
836.00,51.963
837.00,51.949
838.00,51.924
839.00,51.883
840.00,51.884
841.00,51.897
842.00,51.876
843.00,51.898
844.00,51.892
845.00,51.838
846.00,51.868
847.00,51.788
848.00,51.808
849.00,51.750
850.00,51.751
851.00,51.685
852.00,51.716
853.00,51.667
854.00,51.649
855.00,51.592
856.00,51.586
857.00,51.588
858.00,51.560
859.00,51.552
860.00,51.570
861.00,51.549
862.00,51.436
863.00,51.562
864.00,51.502
865.00,51.507
866.00,51.467
867.00,51.456
868.00,51.445
869.00,51.430
870.00,51.483
871.00,51.474
872.00,51.471
873.00,51.430
874.00,51.474
875.00,51.404
876.00,51.446
877.00,51.397
878.00,51.418
879.00,51.400
880.00,51.365
881.00,51.355
882.00,51.388
883.00,51.341
884.00,51.322
885.00,51.299
886.00,51.273
887.00,51.255
888.00,51.230
889.00,51.232
890.00,51.214
891.00,51.185
892.00,51.123
893.00,51.217
894.00,51.119
895.00,51.113
896.00,51.082
897.00,51.080
898.00,51.056
899.00,51.030
900.00,51.022
901.00,51.042
902.00,51.039
903.00,51.004
904.00,50.999
905.00,50.977
906.00,51.001
907.00,50.968
908.00,50.918
909.00,50.890
910.00,50.918
911.00,50.888
912.00,50.841
913.00,50.841
914.00,50.823
915.00,50.783
916.00,50.791
917.00,50.779
918.00,50.899
919.00,50.706
920.00,50.695
921.00,50.681
922.00,50.693
923.00,50.677
924.00,50.624
925.00,50.615
926.00,50.615
927.00,50.628
928.00,50.596
929.00,50.584
930.00,50.568
931.00,50.529
932.00,50.503
933.00,50.514
934.00,50.486
935.00,50.463
936.00,50.440
937.00,50.429
938.00,50.416
939.00,50.415
940.00,50.376
941.00,50.386
942.00,50.177
943.00,50.355
944.00,50.320
945.00,50.313
946.00,50.296
947.00,50.250
948.00,50.232
949.00,50.209
950.00,50.192
951.00,50.170
952.00,50.159
953.00,50.133
954.00,50.096
955.00,50.070
956.00,50.072
957.00,50.030
958.00,50.031
959.00,49.988
960.00,49.992
961.00,49.970
962.00,49.961
963.00,49.926
964.00,49.903
965.00,49.918
966.00,49.915
967.00,49.876
968.00,49.904
969.00,49.915
970.00,49.858
971.00,49.897
972.00,49.843
973.00,49.950
974.00,49.878
975.00,49.885
976.00,49.901
977.00,49.890
978.00,49.914
979.00,49.871
980.00,49.897
981.00,49.884
982.00,49.874
983.00,49.873
984.00,49.855
985.00,49.879
986.00,49.834
987.00,49.857
988.00,49.790
989.00,49.806
990.00,49.792
991.00,49.790
992.00,49.799
993.00,49.780
994.00,49.755
995.00,49.745
996.00,49.766
997.00,49.735
998.00,49.715
999.00,49.738
1000.00,49.698
1001.00,49.685
1002.00,49.686
1003.00,49.708
1004.00,49.651
1005.00,49.620
1006.00,49.645
1007.00,49.625
1008.00,49.613
1009.00,49.597
1010.00,49.605
1011.00,49.578
1012.00,49.556
1013.00,49.542
1014.00,49.506
1015.00,49.536
1016.00,49.508
1017.00,49.487
1018.00,49.480
1019.00,49.476
1020.00,49.441
1021.00,49.432
1022.00,49.417
1023.00,49.388
1024.00,49.379
1025.00,49.358
1026.00,49.359
1027.00,49.316
1028.00,49.310
1029.00,49.302
1030.00,49.272
1031.00,49.287
1032.00,49.257
1033.00,49.258
1034.00,49.234
1035.00,49.209
1036.00,49.179
1037.00,49.171
1038.00,49.150
1039.00,49.113
1040.00,49.127
1041.00,49.076
1042.00,49.079
1043.00,49.070
1044.00,49.094
1045.00,49.087
1046.00,49.063
1047.00,49.068
1048.00,49.083
1049.00,49.111
1050.00,49.104
1051.00,49.151
1052.00,49.141
1053.00,49.131
1054.00,49.127
1055.00,49.157
1056.00,49.213
1057.00,49.156
1058.00,49.141
1059.00,49.139
1060.00,49.141
1061.00,49.121
1062.00,49.129
1063.00,49.145
1064.00,49.140
1065.00,49.142
1066.00,49.122
1067.00,49.123
1068.00,49.138
1069.00,49.081
1070.00,49.096
1071.00,49.072
1072.00,49.092
1073.00,49.079
1074.00,49.047
1075.00,49.055
1076.00,49.062
1077.00,49.039
1078.00,49.019
1079.00,49.024
1080.00,49.007
1081.00,49.005
1082.00,49.011
1083.00,48.994
1084.00,49.004
1085.00,48.997
1086.00,48.968
1087.00,48.970
1088.00,48.940
1089.00,48.955
1090.00,48.940
1091.00,48.939
1092.00,48.937
1093.00,48.899
1094.00,48.893
1095.00,48.898
1096.00,48.888
1097.00,48.888
1098.00,48.892
1099.00,48.868
1100.00,48.861
1101.00,48.847
1102.00,48.817
1103.00,48.835
1104.00,48.816
1105.00,48.803
1106.00,48.801
1107.00,48.788
1108.00,48.784
1109.00,48.792
1110.00,48.770
1111.00,48.770
1112.00,48.758
1113.00,48.735
1114.00,48.737
1115.00,48.751
1116.00,48.746
1117.00,48.722
1118.00,48.706
1119.00,48.701
1120.00,48.712
1121.00,48.698
1122.00,48.695
1123.00,48.688
1124.00,48.664
1125.00,48.683
1126.00,48.660
1127.00,48.648
1128.00,48.652
1129.00,48.617
1130.00,48.611
1131.00,48.636
1132.00,48.615
1133.00,48.624
1134.00,48.613
1135.00,48.602
1136.00,48.606
1137.00,48.599
1138.00,48.604
1139.00,48.614
1140.00,48.597
1141.00,48.599
1142.00,48.597
1143.00,48.598
1144.00,48.580
1145.00,48.604
1146.00,48.585
1147.00,48.566
1148.00,48.560
1149.00,48.570
1150.00,48.578
1151.00,48.570
1152.00,48.559
1153.00,48.562
1154.00,48.540
1155.00,48.566
1156.00,48.542
1157.00,48.547
1158.00,48.538
1159.00,48.541
1160.00,48.526
1161.00,48.548
1162.00,48.550
1163.00,48.520
1164.00,48.527
1165.00,48.511
1166.00,48.526
1167.00,48.517
1168.00,48.523
1169.00,48.539
1170.00,48.525
1171.00,48.513
1172.00,48.537
1173.00,48.522
1174.00,48.530
1175.00,48.524
1176.00,48.523
1177.00,48.522
1178.00,48.513
1179.00,48.519
1180.00,48.515
1181.00,48.532
1182.00,48.519
1183.00,48.525
1184.00,48.501
1185.00,48.512
1186.00,48.503
1187.00,48.503
1188.00,48.503
1189.00,48.511
1190.00,48.490
1191.00,48.499
1192.00,48.528
1193.00,48.494
1194.00,48.506
1195.00,48.481
1196.00,48.509
1197.00,48.517
1198.00,48.487
1199.00,48.497
1200.00,48.508
1201.00,48.508
1202.00,48.500
1203.00,48.498
1204.00,48.484
1205.00,48.513
1206.00,48.486
1207.00,48.498
1208.00,48.495
1209.00,48.492
1210.00,48.502
1211.00,48.502
1212.00,48.501
1213.00,48.477
1214.00,48.510
1215.00,48.485
1216.00,48.509
1217.00,48.500
1218.00,48.495
1219.00,48.523
1220.00,48.499
1221.00,48.528
1222.00,48.523
1223.00,48.532
1224.00,48.531
1225.00,48.514
1226.00,48.513
1227.00,48.515
1228.00,48.517
1229.00,48.501
1230.00,48.547
1231.00,48.539
1232.00,48.579
1233.00,48.564
1234.00,48.539
1235.00,48.564
1236.00,48.562
1237.00,48.575
1238.00,48.572
1239.00,48.568
1240.00,48.547
1241.00,48.572
1242.00,48.563
1243.00,48.576
1244.00,48.558
1245.00,48.584
1246.00,48.613
1247.00,48.589
1248.00,48.589
1249.00,48.623
1250.00,48.615
1251.00,48.611
1252.00,48.648
1253.00,48.635
1254.00,48.657
1255.00,48.644
1256.00,48.603
1257.00,48.583
1258.00,48.663
1259.00,48.637
1260.00,48.665
1261.00,48.656
1262.00,48.645
1263.00,48.665
1264.00,48.665
1265.00,48.691
1266.00,48.687
1267.00,48.689
1268.00,48.702
1269.00,48.690
1270.00,48.706
1271.00,48.706
1272.00,48.701
1273.00,48.719
1274.00,48.728
1275.00,48.731
1276.00,48.754
1277.00,48.762
1278.00,48.745
1279.00,48.761
1280.00,48.753
1281.00,48.780
1282.00,48.786
1283.00,48.807
1284.00,48.781
1285.00,48.793
1286.00,48.801
1287.00,48.806
1288.00,48.813
1289.00,48.789
1290.00,48.830
1291.00,48.822
1292.00,48.802
1293.00,48.826
1294.00,48.833
1295.00,48.844
1296.00,48.846
1297.00,48.851
1298.00,48.912
1299.00,48.856
1300.00,48.880
1301.00,48.892
1302.00,48.893
1303.00,48.922
1304.00,48.913
1305.00,48.943
1306.00,48.943
1307.00,48.961
1308.00,48.962
1309.00,48.983
1310.00,48.954
1311.00,48.922
1312.00,48.949
1313.00,48.949
1314.00,48.965
1315.00,48.982
1316.00,48.970
1317.00,49.002
1318.00,48.992
1319.00,48.994
1320.00,48.999
1321.00,49.185
1322.00,49.156
1323.00,49.146
1324.00,49.150
1325.00,49.125
1326.00,49.171
1327.00,49.162
1328.00,49.153
1329.00,49.161
1330.00,49.162
1331.00,49.158
1332.00,49.158
1333.00,49.175
1334.00,49.212
1335.00,49.219
1336.00,49.238
1337.00,49.292
1338.00,49.359
1339.00,49.369
1340.00,49.440
1341.00,49.496
1342.00,49.583
1343.00,49.679
1344.00,49.666
1345.00,49.738
1346.00,49.779
1347.00,49.795
1348.00,49.819
1349.00,49.828
1350.00,49.860
1351.00,49.876
1352.00,49.887
1353.00,49.895
1354.00,49.904
1355.00,49.884
1356.00,49.902
1357.00,49.930
1358.00,49.949
1359.00,49.945
1360.00,49.954
1361.00,49.891
1362.00,49.870
1363.00,49.942
1364.00,49.943
1365.00,49.912
1366.00,49.965
1367.00,49.915
1368.00,49.903
1369.00,49.940
1370.00,49.900
1371.00,50.083
1372.00,49.897
1373.00,49.923
1374.00,49.940
1375.00,49.920
1376.00,49.913
1377.00,49.878
1378.00,49.961
1379.00,49.912
1380.00,49.901
1381.00,49.915
1382.00,49.903
1383.00,49.925
1384.00,49.900
1385.00,49.930
1386.00,49.947
1387.00,49.907
1388.00,49.901
1389.00,49.952
1390.00,49.941
1391.00,49.885
1392.00,49.897
1393.00,49.910
1394.00,49.921
1395.00,49.912
1396.00,49.878
1397.00,49.942
1398.00,49.953
1399.00,49.944
1400.00,49.878
1401.00,49.903
1402.00,50.004
1403.00,49.950
1404.00,49.951
1405.00,49.971
1406.00,49.995
1407.00,49.963
1408.00,49.961
1409.00,49.982
1410.00,50.003
1411.00,49.998
1412.00,50.058
1413.00,49.995
1414.00,50.017
1415.00,50.038
1416.00,50.058
1417.00,50.088
1418.00,50.075
1419.00,50.111
1420.00,50.102
1421.00,50.141
1422.00,50.141
1423.00,50.169
1424.00,50.158
1425.00,50.196
1426.00,50.198
1427.00,50.214
1428.00,50.220
1429.00,50.235
1430.00,50.238
1431.00,50.268
1432.00,50.269
1433.00,50.298
1434.00,50.303
1435.00,50.343
1436.00,50.363
1437.00,50.353
1438.00,50.354
1439.00,50.399
1440.00,50.395
1441.00,50.408
1442.00,50.450
1443.00,50.467
1444.00,50.522
1445.00,50.488
1446.00,50.501
1447.00,50.536
1448.00,50.569
1449.00,50.558
1450.00,50.594
1451.00,50.603
1452.00,50.632
1453.00,50.645
1454.00,50.650
1455.00,50.690
1456.00,50.710
1457.00,50.683
1458.00,50.716
1459.00,50.731
1460.00,50.744
1461.00,50.737
1462.00,50.779
1463.00,50.785
1464.00,50.819
1465.00,50.831
1466.00,50.839
1467.00,50.873
1468.00,50.905
1469.00,50.885
1470.00,50.906
1471.00,50.915
1472.00,50.938
1473.00,50.958
1474.00,51.021
1475.00,51.012
1476.00,51.017
1477.00,51.007
1478.00,51.042
1479.00,51.044
1480.00,51.057
1481.00,51.060
1482.00,51.088
1483.00,51.112
1484.00,51.118
1485.00,51.126
1486.00,51.142
1487.00,51.173
1488.00,51.203
1489.00,51.189
1490.00,51.204
1491.00,51.218
1492.00,51.244
1493.00,51.213
1494.00,51.261
1495.00,51.256
1496.00,51.284
1497.00,51.283
1498.00,51.303
1499.00,51.311
1500.00,51.331
1501.00, 
1502.00, 
1503.00, 
1504.00, 
1505.00, 
1506.00, 
1507.00, 
1508.00, 
1509.00, 
1510.00, 
1511.00, 
1512.00, 
1513.00, 
1514.00, 
1515.00, 
1516.00, 
1517.00, 
1518.00, 
1519.00, 
1520.00, 
1521.00, 
1522.00, 
1523.00, 
1524.00, 
1525.00, 
1526.00, 
1527.00, 
1528.00, 
1529.00, 
1530.00, 
1531.00, 
1532.00, 
1533.00, 
1534.00, 
1535.00, 
1536.00, 
1537.00, 
1538.00, 
1539.00, 
1540.00, 
1541.00, 
1542.00, 
1543.00, 
1544.00, 
1545.00, 
1546.00, 
1547.00, 
1548.00, 
1549.00, 
1550.00, 
1551.00, 
1552.00, 
1553.00, 
1554.00, 
1555.00, 
1556.00, 
1557.00, 
1558.00, 
1559.00, 
1560.00, 
1561.00, 
1562.00, 
1563.00, 
1564.00, 
1565.00, 
1566.00, 
1567.00, 
1568.00, 
1569.00, 
1570.00, 
1571.00, 
1572.00, 
1573.00, 
1574.00, 
1575.00, 
1576.00, 
1577.00, 
1578.00, 
1579.00, 
1580.00, 
1581.00, 
1582.00, 
1583.00, 
1584.00, 
1585.00, 
1586.00, 
1587.00, 
1588.00, 
1589.00, 
1590.00, 
1591.00, 
1592.00, 
1593.00, 
1594.00, 
1595.00, 
1596.00, 
1597.00, 
1598.00, 
1599.00, 
1600.00, 
1601.00, 
1602.00, 
1603.00, 
1604.00, 
1605.00, 
1606.00, 
1607.00, 
1608.00, 
1609.00, 
1610.00, 
1611.00, 
1612.00, 
1613.00, 
1614.00, 
1615.00, 
1616.00, 
1617.00, 
1618.00, 
1619.00, 
1620.00, 
1621.00, 
1622.00, 
1623.00, 
1624.00, 
1625.00, 
1626.00, 
1627.00, 
1628.00, 
1629.00, 
1630.00, 
1631.00, 
1632.00, 
1633.00, 
1634.00, 
1635.00, 
1636.00, 
1637.00, 
1638.00, 
1639.00, 
1640.00, 
1641.00, 
1642.00, 
1643.00, 
1644.00, 
1645.00, 
1646.00, 
1647.00, 
1648.00, 
1649.00, 
1650.00, 
1651.00, 
1652.00, 
1653.00, 
1654.00, 
1655.00, 
1656.00, 
1657.00, 
1658.00, 
1659.00, 
1660.00, 
1661.00, 
1662.00, 
1663.00, 
1664.00, 
1665.00, 
1666.00, 
1667.00, 
1668.00, 
1669.00, 
1670.00, 
1671.00, 
1672.00, 
1673.00, 
1674.00, 
1675.00, 
1676.00, 
1677.00, 
1678.00, 
1679.00, 
1680.00, 
1681.00, 
1682.00, 
1683.00, 
1684.00, 
1685.00, 
1686.00, 
1687.00, 
1688.00, 
1689.00, 
1690.00, 
1691.00, 
1692.00, 
1693.00, 
1694.00, 
1695.00, 
1696.00, 
1697.00, 
1698.00, 
1699.00, 
1700.00, 
1701.00, 
1702.00, 
1703.00, 
1704.00, 
1705.00, 
1706.00, 
1707.00, 
1708.00, 
1709.00, 
1710.00, 
1711.00, 
1712.00, 
1713.00, 
1714.00, 
1715.00, 
1716.00, 
1717.00, 
1718.00, 
1719.00, 
1720.00, 
1721.00, 
1722.00, 
1723.00, 
1724.00, 
1725.00, 
1726.00, 
1727.00, 
1728.00, 
1729.00, 
1730.00, 
1731.00, 
1732.00, 
1733.00, 
1734.00, 
1735.00, 
1736.00, 
1737.00, 
1738.00, 
1739.00, 
1740.00, 
1741.00, 
1742.00, 
1743.00, 
1744.00, 
1745.00, 
1746.00, 
1747.00, 
1748.00, 
1749.00, 
1750.00, 
1751.00, 
1752.00, 
1753.00, 
1754.00, 
1755.00, 
1756.00, 
1757.00, 
1758.00, 
1759.00, 
1760.00, 
1761.00, 
1762.00, 
1763.00, 
1764.00, 
1765.00, 
1766.00, 
1767.00, 
1768.00, 
1769.00, 
1770.00, 
1771.00, 
1772.00, 
1773.00, 
1774.00, 
1775.00, 
1776.00, 
1777.00, 
1778.00, 
1779.00, 
1780.00, 
1781.00, 
1782.00, 
1783.00, 
1784.00, 
1785.00, 
1786.00, 
1787.00, 
1788.00, 
1789.00, 
1790.00, 
1791.00, 
1792.00, 
1793.00, 
1794.00, 
1795.00, 
1796.00, 
1797.00, 
1798.00, 
1799.00, 
1800.00, 
1801.00, 
1802.00, 
1803.00, 
1804.00, 
1805.00, 
1806.00, 
1807.00, 
1808.00, 
1809.00, 
1810.00, 
1811.00, 
1812.00, 
1813.00, 
1814.00, 
1815.00, 
1816.00, 
1817.00, 
1818.00, 
1819.00, 
1820.00, 
1821.00, 
1822.00, 
1823.00, 
1824.00, 
1825.00, 
1826.00, 
1827.00, 
1828.00, 
1829.00, 
1830.00, 
1831.00, 
1832.00, 
1833.00, 
1834.00, 
1835.00, 
1836.00, 
1837.00, 
1838.00, 
1839.00, 
1840.00, 
1841.00, 
1842.00, 
1843.00, 
1844.00, 
1845.00, 
1846.00, 
1847.00, 
1848.00, 
1849.00, 
1850.00, 
1851.00, 
1852.00, 
1853.00, 
1854.00, 
1855.00, 
1856.00, 
1857.00, 
1858.00, 
1859.00, 
1860.00, 
1861.00, 
1862.00, 
1863.00, 
1864.00, 
1865.00, 
1866.00, 
1867.00, 
1868.00, 
1869.00, 
1870.00, 
1871.00, 
1872.00, 
1873.00, 
1874.00, 
1875.00, 
1876.00, 
1877.00, 
1878.00, 
1879.00, 
1880.00, 
1881.00, 
1882.00, 
1883.00, 
1884.00, 
1885.00, 
1886.00, 
1887.00, 
1888.00, 
1889.00, 
1890.00, 
1891.00, 
1892.00, 
1893.00, 
1894.00, 
1895.00, 
1896.00, 
1897.00, 
1898.00, 
1899.00, 
1900.00, 
1901.00, 
1902.00, 
1903.00, 
1904.00, 
1905.00, 
1906.00, 
1907.00, 
1908.00, 
1909.00, 
1910.00, 
1911.00, 
1912.00, 
1913.00, 
1914.00, 
1915.00, 
1916.00, 
1917.00, 
1918.00, 
1919.00, 
1920.00, 
1921.00, 
1922.00, 
1923.00, 
1924.00, 
1925.00, 
1926.00, 
1927.00, 
1928.00, 
1929.00, 
1930.00, 
1931.00, 
1932.00, 
1933.00, 
1934.00, 
1935.00, 
1936.00, 
1937.00, 
1938.00, 
1939.00, 
1940.00, 
1941.00, 
1942.00, 
1943.00, 
1944.00, 
1945.00, 
1946.00, 
1947.00, 
1948.00, 
1949.00, 
1950.00, 
1951.00, 
1952.00, 
1953.00, 
1954.00, 
1955.00, 
1956.00, 
1957.00, 
1958.00, 
1959.00, 
1960.00, 
1961.00, 
1962.00, 
1963.00, 
1964.00, 
1965.00, 
1966.00, 
1967.00, 
1968.00, 
1969.00, 
1970.00, 
1971.00, 
1972.00, 
1973.00, 
1974.00, 
1975.00, 
1976.00, 
1977.00, 
1978.00, 
1979.00, 
1980.00, 
1981.00, 
1982.00, 
1983.00, 
1984.00, 
1985.00, 
1986.00, 
1987.00, 
1988.00, 
1989.00, 
1990.00, 
1991.00, 
1992.00, 
1993.00, 
1994.00, 
1995.00, 
1996.00, 
1997.00, 
1998.00, 
1999.00, 
2000.00, 
2001.00, 
2002.00, 
2003.00, 
2004.00, 
2005.00, 
2006.00, 
2007.00, 
2008.00, 
2009.00, 
2010.00, 
2011.00, 
2012.00, 
2013.00, 
2014.00, 
2015.00, 
2016.00, 
2017.00, 
2018.00, 
2019.00, 
2020.00, 
2021.00, 
2022.00, 
2023.00, 
2024.00, 
2025.00, 
2026.00, 
2027.00, 
2028.00, 
2029.00, 
2030.00, 
2031.00, 
2032.00, 
2033.00, 
2034.00, 
2035.00, 
2036.00, 
2037.00, 
2038.00, 
2039.00, 
2040.00, 
2041.00, 
2042.00, 
2043.00, 
2044.00, 
2045.00, 
2046.00, 
2047.00, 
2048.00, 
2049.00, 
2050.00, 
2051.00, 
2052.00, 
2053.00, 
2054.00, 
2055.00, 
2056.00, 
2057.00, 
2058.00, 
2059.00, 
2060.00, 
2061.00, 
2062.00, 
2063.00, 
2064.00, 
2065.00, 
2066.00, 
2067.00, 
2068.00, 
2069.00, 
2070.00, 
2071.00, 
2072.00, 
2073.00, 
2074.00, 
2075.00, 
2076.00, 
2077.00, 
2078.00, 
2079.00, 
2080.00, 
2081.00, 
2082.00, 
2083.00, 
2084.00, 
2085.00, 
2086.00, 
2087.00, 
2088.00, 
2089.00, 
2090.00, 
2091.00, 
2092.00, 
2093.00, 
2094.00, 
2095.00, 
2096.00, 
2097.00, 
2098.00, 
2099.00, 
2100.00, 
2101.00, 
2102.00, 
2103.00, 
2104.00, 
2105.00, 
2106.00, 
2107.00, 
2108.00, 
2109.00, 
2110.00, 
2111.00, 
2112.00, 
2113.00, 
2114.00, 
2115.00, 
2116.00, 
2117.00, 
2118.00, 
2119.00, 
2120.00, 
2121.00, 
2122.00, 
2123.00, 
2124.00, 
2125.00, 
2126.00, 
2127.00, 
2128.00, 
2129.00, 
2130.00, 
2131.00, 
2132.00, 
2133.00, 
2134.00, 
2135.00, 
2136.00, 
2137.00, 
2138.00, 
2139.00, 
2140.00, 
2141.00, 
2142.00, 
2143.00, 
2144.00, 
2145.00, 
2146.00, 
2147.00, 
2148.00, 
2149.00, 
2150.00, 
2151.00, 
2152.00, 
2153.00, 
2154.00, 
2155.00, 
2156.00, 
2157.00, 
2158.00, 
2159.00, 
2160.00, 
2161.00, 
2162.00, 
2163.00, 
2164.00, 
2165.00, 
2166.00, 
2167.00, 
2168.00, 
2169.00, 
2170.00, 
2171.00, 
2172.00, 
2173.00, 
2174.00, 
2175.00, 
2176.00, 
2177.00, 
2178.00, 
2179.00, 
2180.00, 
2181.00, 
2182.00, 
2183.00, 
2184.00, 
2185.00, 
2186.00, 
2187.00, 
2188.00, 
2189.00, 
2190.00, 
2191.00, 
2192.00, 
2193.00, 
2194.00, 
2195.00, 
2196.00, 
2197.00, 
2198.00, 
2199.00, 
2200.00, 
2201.00, 
2202.00, 
2203.00, 
2204.00, 
2205.00, 
2206.00, 
2207.00, 
2208.00, 
2209.00, 
2210.00, 
2211.00, 
2212.00, 
2213.00, 
2214.00, 
2215.00, 
2216.00, 
2217.00, 
2218.00, 
2219.00, 
2220.00, 
2221.00, 
2222.00, 
2223.00, 
2224.00, 
2225.00, 
2226.00, 
2227.00, 
2228.00, 
2229.00, 
2230.00, 
2231.00, 
2232.00, 
2233.00, 
2234.00, 
2235.00, 
2236.00, 
2237.00, 
2238.00, 
2239.00, 
2240.00, 
2241.00, 
2242.00, 
2243.00, 
2244.00, 
2245.00, 
2246.00, 
2247.00, 
2248.00, 
2249.00, 
2250.00, 
2251.00, 
2252.00, 
2253.00, 
2254.00, 
2255.00, 
2256.00, 
2257.00, 
2258.00, 
2259.00, 
2260.00, 
2261.00, 
2262.00, 
2263.00, 
2264.00, 
2265.00, 
2266.00, 
2267.00, 
2268.00, 
2269.00, 
2270.00, 
2271.00, 
2272.00, 
2273.00, 
2274.00, 
2275.00, 
2276.00, 
2277.00, 
2278.00, 
2279.00, 
2280.00, 
2281.00, 
2282.00, 
2283.00, 
2284.00, 
2285.00, 
2286.00, 
2287.00, 
2288.00, 
2289.00, 
2290.00, 
2291.00, 
2292.00, 
2293.00, 
2294.00, 
2295.00, 
2296.00, 
2297.00, 
2298.00, 
2299.00, 
2300.00, 
2301.00, 
2302.00, 
2303.00, 
2304.00, 
2305.00, 
2306.00, 
2307.00, 
2308.00, 
2309.00, 
2310.00, 
2311.00, 
2312.00, 
2313.00, 
2314.00, 
2315.00, 
2316.00, 
2317.00, 
2318.00, 
2319.00, 
2320.00, 
2321.00, 
2322.00, 
2323.00, 
2324.00, 
2325.00, 
2326.00, 
2327.00, 
2328.00, 
2329.00, 
2330.00, 
2331.00, 
2332.00, 
2333.00, 
2334.00, 
2335.00, 
2336.00, 
2337.00, 
2338.00, 
2339.00, 
2340.00, 
2341.00, 
2342.00, 
2343.00, 
2344.00, 
2345.00, 
2346.00, 
2347.00, 
2348.00, 
2349.00, 
2350.00, 
2351.00, 
2352.00, 
2353.00, 
2354.00, 
2355.00, 
2356.00, 
2357.00, 
2358.00, 
2359.00, 
2360.00, 
2361.00, 
2362.00, 
2363.00, 
2364.00, 
2365.00, 
2366.00, 
2367.00, 
2368.00, 
2369.00, 
2370.00, 
2371.00, 
2372.00, 
2373.00, 
2374.00, 
2375.00, 
2376.00, 
2377.00, 
2378.00, 
2379.00, 
2380.00, 
2381.00, 
2382.00, 
2383.00, 
2384.00, 
2385.00, 
2386.00, 
2387.00, 
2388.00, 
2389.00, 
2390.00, 
2391.00, 
2392.00, 
2393.00, 
2394.00, 
2395.00, 
2396.00, 
2397.00, 
2398.00, 
2399.00, 
2400.00, 
2401.00, 
2402.00, 
2403.00, 
2404.00, 
2405.00, 
2406.00, 
2407.00, 
2408.00, 
2409.00, 
2410.00, 
2411.00, 
2412.00, 
2413.00, 
2414.00, 
2415.00, 
2416.00, 
2417.00, 
2418.00, 
2419.00, 
2420.00, 
2421.00, 
2422.00, 
2423.00, 
2424.00, 
2425.00, 
2426.00, 
2427.00, 
2428.00, 
2429.00, 
2430.00, 
2431.00, 
2432.00, 
2433.00, 
2434.00, 
2435.00, 
2436.00, 
2437.00, 
2438.00, 
2439.00, 
2440.00, 
2441.00, 
2442.00, 
2443.00, 
2444.00, 
2445.00, 
2446.00, 
2447.00, 
2448.00, 
2449.00, 
2450.00, 
2451.00, 
2452.00, 
2453.00, 
2454.00, 
2455.00, 
2456.00, 
2457.00, 
2458.00, 
2459.00, 
2460.00, 
2461.00, 
2462.00, 
2463.00, 
2464.00, 
2465.00, 
2466.00, 
2467.00, 
2468.00, 
2469.00, 
2470.00, 
2471.00, 
2472.00, 
2473.00, 
2474.00, 
2475.00, 
2476.00, 
2477.00, 
2478.00, 
2479.00, 
2480.00, 
2481.00, 
2482.00, 
2483.00, 
2484.00, 
2485.00, 
2486.00, 
2487.00, 
2488.00, 
2489.00, 
2490.00, 
2491.00, 
2492.00, 
2493.00, 
2494.00, 
2495.00, 
2496.00, 
2497.00, 
2498.00, 
2499.00, 
2500.00, 
2501.00, 
2502.00, 
2503.00, 
2504.00, 
2505.00, 
2506.00, 
2507.00, 
2508.00, 
2509.00, 
2510.00, 
2511.00, 
2512.00, 
2513.00, 
2514.00, 
2515.00, 
2516.00, 
2517.00, 
2518.00, 
2519.00, 
2520.00, 
2521.00, 
2522.00, 
2523.00, 
2524.00, 
2525.00, 
2526.00, 
2527.00, 
2528.00, 
2529.00, 
2530.00, 
2531.00, 
2532.00, 
2533.00, 
2534.00, 
2535.00, 
2536.00, 
2537.00, 
2538.00, 
2539.00, 
2540.00, 
2541.00, 
2542.00, 
2543.00, 
2544.00, 
2545.00, 
2546.00, 
2547.00, 
2548.00, 
2549.00, 
2550.00, 
2551.00, 
2552.00, 
2553.00, 
2554.00, 
2555.00, 
2556.00, 
2557.00, 
2558.00, 
2559.00, 
2560.00, 
2561.00, 
2562.00, 
2563.00, 
2564.00, 
2565.00, 
2566.00, 
2567.00, 
2568.00, 
2569.00, 
2570.00, 
2571.00, 
2572.00, 
2573.00, 
2574.00, 
2575.00, 
2576.00, 
2577.00, 
2578.00, 
2579.00, 
2580.00, 
2581.00, 
2582.00, 
2583.00, 
2584.00, 
2585.00, 
2586.00, 
2587.00, 
2588.00, 
2589.00, 
2590.00, 
2591.00, 
2592.00, 
2593.00, 
2594.00, 
2595.00, 
2596.00, 
2597.00, 
2598.00, 
2599.00, 
2600.00, 
