"1cP2 - RawData"
"Wavelength nm.","T%"
200.00,0.002
201.00,0.002
202.00,0.001
203.00,0.005
204.00,0.002
205.00,-0.000
206.00,0.002
207.00,0.001
208.00,0.003
209.00,0.004
210.00,-0.000
211.00,-0.000
212.00,0.002
213.00,0.001
214.00,0.002
215.00,0.002
216.00,0.002
217.00,0.004
218.00,0.002
219.00,0.002
220.00,-0.001
221.00,-0.001
222.00,-0.001
223.00,0.000
224.00,-0.001
225.00,0.002
226.00,0.000
227.00,0.001
228.00,-0.002
229.00,-0.001
230.00,0.002
231.00,-0.002
232.00,-0.001
233.00,-0.001
234.00,0.000
235.00,0.001
236.00,0.002
237.00,-0.000
238.00,0.000
239.00,0.000
240.00,0.000
241.00,0.001
242.00,-0.000
243.00,-0.001
244.00,0.002
245.00,0.001
246.00,-0.001
247.00,0.001
248.00,0.000
249.00,0.000
250.00,-0.002
251.00,-0.000
252.00,-0.000
253.00,-0.002
254.00,-0.000
255.00,0.001
256.00,0.001
257.00,-0.001
258.00,0.000
259.00,0.000
260.00,0.001
261.00,0.000
262.00,0.001
263.00,0.001
264.00,-0.000
265.00,0.001
266.00,0.001
267.00,0.001
268.00,0.001
269.00,-0.001
270.00,0.001
271.00,0.001
272.00,-0.001
273.00,0.000
274.00,0.000
275.00,0.001
276.00,0.001
277.00,0.002
278.00,-0.001
279.00,0.001
280.00,0.000
281.00,0.002
282.00,-0.000
283.00,-0.001
284.00,-0.000
285.00,-0.001
286.00,0.000
287.00,0.000
288.00,0.001
289.00,-0.000
290.00,0.001
291.00,0.001
292.00,-0.001
293.00,0.000
294.00,-0.000
295.00,0.001
296.00,-0.000
297.00,-0.001
298.00,-0.000
299.00,0.001
300.00,0.001
301.00,-0.000
302.00,0.001
303.00,0.000
304.00,0.002
305.00,0.003
306.00,0.004
307.00,0.004
308.00,0.008
309.00,0.013
310.00,0.020
311.00,0.033
312.00,0.047
313.00,0.070
314.00,0.110
315.00,0.165
316.00,0.225
317.00,0.327
318.00,0.444
319.00,0.606
320.00,0.806
321.00,1.045
322.00,1.321
323.00,1.678
324.00,2.083
325.00,2.512
326.00,2.975
327.00,3.526
328.00,4.146
329.00,4.790
330.00,5.486
331.00,6.179
332.00,6.950
333.00,7.804
334.00,8.603
335.00,9.516
336.00,10.382
337.00,11.250
338.00,12.109
339.00,12.930
340.00,13.800
341.00,14.636
342.00,15.486
343.00,16.285
344.00,17.116
345.00,17.846
346.00,18.546
347.00,19.172
348.00,19.879
349.00,20.353
350.00,21.043
351.00,21.534
352.00,22.024
353.00,22.551
354.00,22.912
355.00,23.433
356.00,23.789
357.00,24.156
358.00,24.534
359.00,24.878
360.00,25.240
361.00,25.454
362.00,25.618
363.00,25.968
364.00,26.106
365.00,26.221
366.00,26.437
367.00,26.627
368.00,26.525
369.00,26.727
370.00,26.803
371.00,26.865
372.00,26.829
373.00,26.939
374.00,26.925
375.00,26.772
376.00,26.721
377.00,26.619
378.00,26.542
379.00,26.387
380.00,26.365
381.00,26.407
382.00,26.366
383.00,26.396
384.00,26.466
385.00,26.549
386.00,26.584
387.00,26.703
388.00,26.844
389.00,26.847
390.00,26.918
391.00,26.994
392.00,26.987
393.00,27.049
394.00,26.949
395.00,27.122
396.00,27.106
397.00,27.135
398.00,27.097
399.00,27.110
400.00,27.114
401.00,27.087
402.00,27.195
403.00,27.178
404.00,27.104
405.00,27.081
406.00,27.067
407.00,26.999
408.00,26.992
409.00,26.873
410.00,26.840
411.00,26.817
412.00,26.718
413.00,26.765
414.00,26.671
415.00,26.668
416.00,26.727
417.00,26.643
418.00,26.660
419.00,26.767
420.00,26.773
421.00,26.679
422.00,26.711
423.00,26.722
424.00,26.735
425.00,26.754
426.00,26.747
427.00,26.838
428.00,26.851
429.00,26.850
430.00,26.867
431.00,26.906
432.00,26.892
433.00,26.945
434.00,26.971
435.00,27.044
436.00,27.085
437.00,27.127
438.00,27.190
439.00,27.234
440.00,27.275
441.00,27.325
442.00,27.373
443.00,27.462
444.00,27.513
445.00,27.633
446.00,27.666
447.00,27.702
448.00,27.847
449.00,27.893
450.00,28.053
451.00,28.093
452.00,28.181
453.00,28.313
454.00,28.336
455.00,28.479
456.00,28.575
457.00,28.684
458.00,28.717
459.00,28.874
460.00,29.025
461.00,29.100
462.00,29.187
463.00,29.339
464.00,29.376
465.00,29.539
466.00,29.644
467.00,29.789
468.00,29.834
469.00,29.948
470.00,30.034
471.00,30.103
472.00,30.207
473.00,30.261
474.00,30.360
475.00,30.476
476.00,30.548
477.00,30.678
478.00,30.773
479.00,30.922
480.00,31.056
481.00,31.156
482.00,31.273
483.00,31.479
484.00,31.614
485.00,31.741
486.00,31.880
487.00,32.012
488.00,32.096
489.00,32.257
490.00,32.443
491.00,32.538
492.00,32.639
493.00,32.851
494.00,33.014
495.00,32.996
496.00,33.109
497.00,33.190
498.00,33.315
499.00,33.446
500.00,33.568
501.00,33.693
502.00,33.813
503.00,33.957
504.00,33.938
505.00,34.113
506.00,34.235
507.00,34.274
508.00,34.336
509.00,34.543
510.00,34.669
511.00,34.695
512.00,34.892
513.00,34.968
514.00,35.066
515.00,35.262
516.00,35.333
517.00,35.330
518.00,35.387
519.00,35.575
520.00,35.605
521.00,35.707
522.00,35.847
523.00,35.887
524.00,36.005
525.00,36.119
526.00,36.195
527.00,36.280
528.00,36.369
529.00,36.570
530.00,36.650
531.00,36.817
532.00,36.792
533.00,36.925
534.00,37.085
535.00,37.039
536.00,37.191
537.00,37.245
538.00,37.294
539.00,37.346
540.00,37.446
541.00,37.468
542.00,37.510
543.00,37.596
544.00,37.646
545.00,37.740
546.00,37.794
547.00,37.916
548.00,37.955
549.00,38.034
550.00,38.104
551.00,38.259
552.00,38.326
553.00,38.329
554.00,38.441
555.00,38.458
556.00,38.497
557.00,38.533
558.00,38.637
559.00,38.728
560.00,38.760
561.00,38.882
562.00,38.930
563.00,38.901
564.00,39.043
565.00,39.026
566.00,39.027
567.00,39.018
568.00,39.067
569.00,39.103
570.00,39.218
571.00,39.254
572.00,39.184
573.00,39.132
574.00,39.311
575.00,39.218
576.00,39.302
577.00,39.416
578.00,39.507
579.00,39.569
580.00,39.604
581.00,39.756
582.00,39.795
583.00,39.764
584.00,39.894
585.00,39.972
586.00,40.033
587.00,40.069
588.00,40.110
589.00,40.045
590.00,40.099
591.00,40.161
592.00,40.109
593.00,40.164
594.00,40.196
595.00,40.351
596.00,40.424
597.00,40.492
598.00,40.560
599.00,40.557
600.00,40.557
601.00,40.571
602.00,40.631
603.00,40.749
604.00,40.698
605.00,40.690
606.00,40.832
607.00,40.850
608.00,40.911
609.00,40.836
610.00,41.000
611.00,41.186
612.00,41.026
613.00,40.989
614.00,41.030
615.00,41.121
616.00,41.210
617.00,41.200
618.00,41.097
619.00,41.264
620.00,41.322
621.00,41.361
622.00,41.441
623.00,41.467
624.00,41.557
625.00,41.561
626.00,41.609
627.00,41.657
628.00,41.610
629.00,41.688
630.00,41.683
631.00,41.710
632.00,41.856
633.00,41.985
634.00,42.041
635.00,42.101
636.00,42.162
637.00,42.179
638.00,42.249
639.00,42.302
640.00,42.331
641.00,42.320
642.00,42.415
643.00,42.469
644.00,42.561
645.00,42.609
646.00,42.675
647.00,42.795
648.00,42.800
649.00,42.759
650.00,42.773
651.00,42.914
652.00,42.972
653.00,42.982
654.00,43.068
655.00,43.234
656.00,43.478
657.00,43.350
658.00,43.553
659.00,43.561
660.00,43.626
661.00,43.660
662.00,43.564
663.00,43.706
664.00,44.029
665.00,44.124
666.00,43.927
667.00,43.997
668.00,44.001
669.00,44.238
670.00,44.457
671.00,44.321
672.00,44.429
673.00,44.390
674.00,44.534
675.00,44.687
676.00,44.781
677.00,44.938
678.00,44.751
679.00,44.922
680.00,44.874
681.00,45.086
682.00,45.081
683.00,45.033
684.00,45.285
685.00,45.273
686.00,45.080
687.00,45.290
688.00,45.367
689.00,45.354
690.00,45.500
691.00,45.734
692.00,46.021
693.00,45.560
694.00,45.718
695.00,45.928
696.00,45.982
697.00,45.912
698.00,46.093
699.00,46.274
700.00,46.214
701.00,46.172
702.00,46.282
703.00,46.530
704.00,46.466
705.00,46.402
706.00,46.524
707.00,46.576
708.00,46.396
709.00,46.765
710.00,47.179
711.00,46.548
712.00,46.642
713.00,46.872
714.00,46.879
715.00,46.991
716.00,46.906
717.00,47.017
718.00,47.023
719.00,47.157
720.00,47.299
721.00,51.799
722.00,51.760
723.00,51.736
724.00,51.732
725.00,51.695
726.00,51.736
727.00,51.734
728.00,51.824
729.00,51.771
730.00,51.707
731.00,51.735
732.00,51.827
733.00,51.865
734.00,51.870
735.00,51.850
736.00,51.876
737.00,51.796
738.00,51.897
739.00,51.887
740.00,51.917
741.00,51.969
742.00,51.895
743.00,51.910
744.00,51.855
745.00,51.911
746.00,51.898
747.00,51.827
748.00,51.831
749.00,51.762
750.00,51.820
751.00,51.704
752.00,51.796
753.00,51.763
754.00,51.786
755.00,51.763
756.00,51.788
757.00,51.778
758.00,51.737
759.00,51.788
760.00,51.814
761.00,51.727
762.00,51.701
763.00,51.780
764.00,51.700
765.00,51.771
766.00,51.760
767.00,51.830
768.00,51.726
769.00,51.705
770.00,51.760
771.00,51.787
772.00,51.791
773.00,51.747
774.00,51.739
775.00,51.768
776.00,51.736
777.00,51.700
778.00,51.726
779.00,51.718
780.00,51.680
781.00,51.685
782.00,51.717
783.00,51.637
784.00,51.680
785.00,51.549
786.00,51.676
787.00,51.595
788.00,51.554
789.00,51.509
790.00,51.500
791.00,51.594
792.00,51.435
793.00,51.464
794.00,51.516
795.00,51.469
796.00,51.425
797.00,51.316
798.00,51.401
799.00,51.296
800.00,51.275
801.00,51.325
802.00,51.221
803.00,51.251
804.00,51.234
805.00,51.291
806.00,51.225
807.00,51.084
808.00,51.215
809.00,51.156
810.00,51.190
811.00,51.175
812.00,51.207
813.00,51.044
814.00,51.070
815.00,51.054
816.00,51.019
817.00,51.018
818.00,50.905
819.00,50.929
820.00,50.888
821.00,50.866
822.00,50.930
823.00,50.747
824.00,50.892
825.00,50.824
826.00,50.765
827.00,50.798
828.00,50.811
829.00,50.844
830.00,50.860
831.00,53.190
832.00,53.188
833.00,53.133
834.00,53.131
835.00,53.090
836.00,53.100
837.00,53.065
838.00,53.049
839.00,53.030
840.00,52.955
841.00,52.997
842.00,52.944
843.00,52.961
844.00,52.926
845.00,52.907
846.00,52.899
847.00,52.829
848.00,52.831
849.00,52.718
850.00,52.724
851.00,52.649
852.00,52.681
853.00,52.615
854.00,52.594
855.00,52.529
856.00,52.556
857.00,52.528
858.00,52.487
859.00,52.461
860.00,52.457
861.00,52.430
862.00,52.371
863.00,52.366
864.00,52.371
865.00,52.369
866.00,52.345
867.00,52.293
868.00,52.489
869.00,52.283
870.00,52.284
871.00,52.307
872.00,52.283
873.00,52.230
874.00,52.250
875.00,52.178
876.00,52.193
877.00,52.195
878.00,52.153
879.00,52.173
880.00,52.155
881.00,52.104
882.00,52.094
883.00,52.207
884.00,52.059
885.00,52.061
886.00,52.018
887.00,51.988
888.00,51.964
889.00,51.948
890.00,51.931
891.00,51.874
892.00,51.848
893.00,51.842
894.00,51.824
895.00,51.813
896.00,51.792
897.00,51.769
898.00,51.748
899.00,51.760
900.00,51.758
901.00,51.736
902.00,51.738
903.00,51.687
904.00,51.656
905.00,51.693
906.00,51.644
907.00,51.630
908.00,51.575
909.00,51.529
910.00,51.549
911.00,51.534
912.00,51.519
913.00,51.481
914.00,51.469
915.00,51.450
916.00,51.429
917.00,51.397
918.00,51.409
919.00,51.346
920.00,51.332
921.00,51.326
922.00,51.259
923.00,51.338
924.00,51.235
925.00,51.231
926.00,51.206
927.00,51.204
928.00,51.181
929.00,51.160
930.00,51.132
931.00,51.122
932.00,51.071
933.00,51.092
934.00,51.067
935.00,51.047
936.00,51.041
937.00,50.973
938.00,51.071
939.00,50.983
940.00,50.932
941.00,50.952
942.00,50.802
943.00,50.904
944.00,50.863
945.00,50.867
946.00,50.850
947.00,50.806
948.00,50.790
949.00,50.768
950.00,50.753
951.00,50.740
952.00,50.706
953.00,50.680
954.00,50.652
955.00,50.610
956.00,50.616
957.00,50.578
958.00,50.570
959.00,50.535
960.00,50.522
961.00,50.503
962.00,50.510
963.00,50.443
964.00,50.438
965.00,50.448
966.00,50.439
967.00,50.393
968.00,50.408
969.00,50.428
970.00,50.386
971.00,50.409
972.00,50.347
973.00,50.464
974.00,50.393
975.00,50.398
976.00,50.417
977.00,50.401
978.00,50.439
979.00,50.399
980.00,50.429
981.00,50.425
982.00,50.388
983.00,50.383
984.00,50.423
985.00,50.383
986.00,50.345
987.00,50.365
988.00,50.288
989.00,50.327
990.00,50.312
991.00,50.298
992.00,50.309
993.00,50.278
994.00,50.261
995.00,50.234
996.00,50.262
997.00,50.218
998.00,50.188
999.00,50.229
1000.00,50.177
1001.00,50.160
1002.00,50.160
1003.00,50.182
1004.00,50.137
1005.00,50.110
1006.00,50.128
1007.00,50.099
1008.00,50.085
1009.00,50.063
1010.00,50.064
1011.00,50.043
1012.00,50.023
1013.00,50.019
1014.00,49.984
1015.00,49.988
1016.00,49.947
1017.00,49.936
1018.00,49.939
1019.00,49.936
1020.00,49.910
1021.00,49.886
1022.00,49.876
1023.00,49.841
1024.00,49.846
1025.00,49.823
1026.00,49.810
1027.00,49.782
1028.00,49.771
1029.00,49.768
1030.00,49.767
1031.00,49.753
1032.00,49.714
1033.00,49.704
1034.00,49.675
1035.00,49.649
1036.00,49.623
1037.00,49.608
1038.00,49.597
1039.00,49.564
1040.00,49.564
1041.00,49.514
1042.00,49.522
1043.00,49.503
1044.00,49.540
1045.00,49.515
1046.00,49.501
1047.00,49.525
1048.00,49.526
1049.00,49.543
1050.00,49.537
1051.00,49.569
1052.00,49.557
1053.00,49.555
1054.00,49.555
1055.00,49.583
1056.00,49.606
1057.00,49.596
1058.00,49.596
1059.00,49.607
1060.00,49.589
1061.00,49.577
1062.00,49.568
1063.00,49.576
1064.00,49.574
1065.00,49.567
1066.00,49.559
1067.00,49.556
1068.00,49.565
1069.00,49.521
1070.00,49.511
1071.00,49.491
1072.00,49.513
1073.00,49.502
1074.00,49.487
1075.00,49.477
1076.00,49.472
1077.00,49.452
1078.00,49.437
1079.00,49.442
1080.00,49.438
1081.00,49.415
1082.00,49.422
1083.00,49.414
1084.00,49.404
1085.00,49.405
1086.00,49.388
1087.00,49.389
1088.00,49.380
1089.00,49.380
1090.00,49.377
1091.00,49.396
1092.00,49.344
1093.00,49.315
1094.00,49.312
1095.00,49.297
1096.00,49.293
1097.00,49.291
1098.00,49.283
1099.00,49.259
1100.00,49.259
1101.00,49.246
1102.00,49.231
1103.00,49.240
1104.00,49.223
1105.00,49.225
1106.00,49.229
1107.00,49.182
1108.00,49.171
1109.00,49.174
1110.00,49.174
1111.00,49.171
1112.00,49.168
1113.00,49.161
1114.00,49.153
1115.00,49.162
1116.00,49.152
1117.00,49.148
1118.00,49.130
1119.00,49.124
1120.00,49.122
1121.00,49.109
1122.00,49.102
1123.00,49.090
1124.00,49.078
1125.00,49.081
1126.00,49.068
1127.00,49.073
1128.00,49.054
1129.00,49.044
1130.00,49.038
1131.00,49.045
1132.00,49.027
1133.00,49.034
1134.00,49.018
1135.00,49.008
1136.00,49.008
1137.00,49.005
1138.00,49.005
1139.00,49.020
1140.00,49.001
1141.00,49.000
1142.00,48.974
1143.00,48.993
1144.00,48.956
1145.00,48.968
1146.00,48.964
1147.00,48.956
1148.00,48.955
1149.00,48.958
1150.00,48.972
1151.00,48.992
1152.00,48.992
1153.00,48.978
1154.00,48.960
1155.00,48.976
1156.00,48.959
1157.00,48.962
1158.00,48.946
1159.00,48.944
1160.00,48.941
1161.00,48.947
1162.00,48.933
1163.00,48.927
1164.00,48.939
1165.00,48.925
1166.00,48.945
1167.00,48.938
1168.00,48.943
1169.00,48.937
1170.00,48.919
1171.00,48.905
1172.00,48.920
1173.00,48.927
1174.00,48.939
1175.00,48.935
1176.00,48.933
1177.00,48.912
1178.00,48.910
1179.00,48.917
1180.00,48.894
1181.00,48.913
1182.00,48.902
1183.00,48.914
1184.00,48.908
1185.00,48.924
1186.00,48.929
1187.00,48.933
1188.00,48.924
1189.00,48.924
1190.00,48.880
1191.00,48.888
1192.00,48.930
1193.00,48.888
1194.00,48.898
1195.00,48.887
1196.00,48.908
1197.00,48.909
1198.00,48.905
1199.00,48.916
1200.00,48.916
1201.00,48.923
1202.00,48.900
1203.00,48.891
1204.00,48.885
1205.00,48.903
1206.00,48.882
1207.00,48.895
1208.00,48.887
1209.00,48.908
1210.00,48.904
1211.00,48.894
1212.00,48.918
1213.00,48.888
1214.00,48.901
1215.00,48.883
1216.00,48.904
1217.00,48.900
1218.00,48.889
1219.00,48.911
1220.00,48.887
1221.00,48.898
1222.00,48.898
1223.00,48.923
1224.00,48.897
1225.00,48.902
1226.00,48.891
1227.00,48.900
1228.00,48.929
1229.00,48.896
1230.00,48.941
1231.00,48.935
1232.00,48.975
1233.00,48.978
1234.00,48.969
1235.00,48.964
1236.00,48.956
1237.00,48.969
1238.00,48.964
1239.00,48.973
1240.00,48.967
1241.00,48.985
1242.00,48.980
1243.00,48.988
1244.00,48.961
1245.00,48.985
1246.00,48.996
1247.00,48.987
1248.00,48.988
1249.00,49.011
1250.00,49.010
1251.00,49.013
1252.00,49.030
1253.00,49.029
1254.00,49.050
1255.00,49.041
1256.00,48.996
1257.00,48.965
1258.00,49.062
1259.00,49.051
1260.00,49.075
1261.00,49.064
1262.00,49.046
1263.00,49.032
1264.00,49.045
1265.00,49.070
1266.00,49.081
1267.00,49.096
1268.00,49.102
1269.00,49.098
1270.00,49.120
1271.00,49.112
1272.00,49.119
1273.00,49.149
1274.00,49.153
1275.00,49.142
1276.00,49.141
1277.00,49.141
1278.00,49.148
1279.00,49.155
1280.00,49.145
1281.00,49.166
1282.00,49.177
1283.00,49.164
1284.00,49.167
1285.00,49.186
1286.00,49.194
1287.00,49.177
1288.00,49.189
1289.00,49.186
1290.00,49.213
1291.00,49.220
1292.00,49.214
1293.00,49.231
1294.00,49.247
1295.00,49.265
1296.00,49.264
1297.00,49.263
1298.00,49.306
1299.00,49.259
1300.00,49.286
1301.00,49.272
1302.00,49.277
1303.00,49.302
1304.00,49.287
1305.00,49.314
1306.00,49.310
1307.00,49.328
1308.00,49.329
1309.00,49.343
1310.00,49.322
1311.00,49.314
1312.00,49.346
1313.00,49.350
1314.00,49.364
1315.00,49.379
1316.00,49.370
1317.00,49.410
1318.00,49.394
1319.00,49.402
1320.00,49.408
1321.00,49.568
1322.00,49.553
1323.00,49.535
1324.00,49.543
1325.00,49.530
1326.00,49.560
1327.00,49.553
1328.00,49.535
1329.00,49.536
1330.00,49.540
1331.00,49.557
1332.00,49.602
1333.00,49.490
1334.00,49.601
1335.00,49.615
1336.00,49.641
1337.00,49.679
1338.00,49.745
1339.00,49.775
1340.00,49.849
1341.00,49.913
1342.00,49.974
1343.00,50.017
1344.00,50.057
1345.00,50.121
1346.00,50.153
1347.00,50.180
1348.00,50.198
1349.00,50.226
1350.00,50.244
1351.00,50.250
1352.00,50.273
1353.00,50.275
1354.00,50.294
1355.00,50.254
1356.00,50.282
1357.00,50.298
1358.00,50.345
1359.00,50.332
1360.00,50.355
1361.00,50.278
1362.00,50.263
1363.00,50.352
1364.00,50.349
1365.00,50.312
1366.00,50.361
1367.00,50.297
1368.00,50.288
1369.00,50.327
1370.00,50.293
1371.00,50.284
1372.00,50.290
1373.00,50.306
1374.00,50.340
1375.00,50.301
1376.00,50.318
1377.00,50.294
1378.00,50.472
1379.00,50.279
1380.00,50.292
1381.00,50.305
1382.00,50.292
1383.00,50.306
1384.00,50.287
1385.00,50.289
1386.00,50.315
1387.00,50.292
1388.00,50.265
1389.00,50.308
1390.00,50.315
1391.00,50.293
1392.00,50.295
1393.00,50.300
1394.00,50.327
1395.00,50.325
1396.00,50.275
1397.00,50.324
1398.00,50.295
1399.00,50.334
1400.00,50.288
1401.00,50.289
1402.00,50.374
1403.00,50.330
1404.00,50.335
1405.00,50.343
1406.00,50.377
1407.00,50.347
1408.00,50.361
1409.00,50.368
1410.00,50.399
1411.00,50.372
1412.00,50.438
1413.00,50.396
1414.00,50.410
1415.00,50.428
1416.00,50.436
1417.00,50.461
1418.00,50.443
1419.00,50.465
1420.00,50.479
1421.00,50.518
1422.00,50.527
1423.00,50.564
1424.00,50.565
1425.00,50.576
1426.00,50.581
1427.00,50.608
1428.00,50.611
1429.00,50.635
1430.00,50.640
1431.00,50.673
1432.00,50.684
1433.00,50.698
1434.00,50.691
1435.00,50.750
1436.00,50.754
1437.00,50.745
1438.00,50.772
1439.00,50.806
1440.00,50.817
1441.00,50.821
1442.00,50.840
1443.00,50.866
1444.00,50.901
1445.00,50.880
1446.00,50.912
1447.00,50.934
1448.00,50.962
1449.00,50.956
1450.00,50.979
1451.00,50.991
1452.00,51.018
1453.00,51.010
1454.00,51.042
1455.00,51.078
1456.00,51.092
1457.00,51.077
1458.00,51.109
1459.00,51.132
1460.00,51.167
1461.00,51.159
1462.00,51.205
1463.00,51.199
1464.00,51.209
1465.00,51.223
1466.00,51.223
1467.00,51.253
1468.00,51.308
1469.00,51.290
1470.00,51.314
1471.00,51.327
1472.00,51.343
1473.00,51.362
1474.00,51.381
1475.00,51.385
1476.00,51.421
1477.00,51.409
1478.00,51.433
1479.00,51.434
1480.00,51.440
1481.00,51.453
1482.00,51.501
1483.00,51.523
1484.00,51.532
1485.00,51.533
1486.00,51.549
1487.00,51.576
1488.00,51.598
1489.00,51.592
1490.00,51.625
1491.00,51.623
1492.00,51.648
1493.00,51.645
1494.00,51.694
1495.00,51.690
1496.00,51.711
1497.00,51.700
1498.00,51.711
1499.00,51.706
1500.00,51.736
1501.00, 
1502.00, 
1503.00, 
1504.00, 
1505.00, 
1506.00, 
1507.00, 
1508.00, 
1509.00, 
1510.00, 
1511.00, 
1512.00, 
1513.00, 
1514.00, 
1515.00, 
1516.00, 
1517.00, 
1518.00, 
1519.00, 
1520.00, 
1521.00, 
1522.00, 
1523.00, 
1524.00, 
1525.00, 
1526.00, 
1527.00, 
1528.00, 
1529.00, 
1530.00, 
1531.00, 
1532.00, 
1533.00, 
1534.00, 
1535.00, 
1536.00, 
1537.00, 
1538.00, 
1539.00, 
1540.00, 
1541.00, 
1542.00, 
1543.00, 
1544.00, 
1545.00, 
1546.00, 
1547.00, 
1548.00, 
1549.00, 
1550.00, 
1551.00, 
1552.00, 
1553.00, 
1554.00, 
1555.00, 
1556.00, 
1557.00, 
1558.00, 
1559.00, 
1560.00, 
1561.00, 
1562.00, 
1563.00, 
1564.00, 
1565.00, 
1566.00, 
1567.00, 
1568.00, 
1569.00, 
1570.00, 
1571.00, 
1572.00, 
1573.00, 
1574.00, 
1575.00, 
1576.00, 
1577.00, 
1578.00, 
1579.00, 
1580.00, 
1581.00, 
1582.00, 
1583.00, 
1584.00, 
1585.00, 
1586.00, 
1587.00, 
1588.00, 
1589.00, 
1590.00, 
1591.00, 
1592.00, 
1593.00, 
1594.00, 
1595.00, 
1596.00, 
1597.00, 
1598.00, 
1599.00, 
1600.00, 
1601.00, 
1602.00, 
1603.00, 
1604.00, 
1605.00, 
1606.00, 
1607.00, 
1608.00, 
1609.00, 
1610.00, 
1611.00, 
1612.00, 
1613.00, 
1614.00, 
1615.00, 
1616.00, 
1617.00, 
1618.00, 
1619.00, 
1620.00, 
1621.00, 
1622.00, 
1623.00, 
1624.00, 
1625.00, 
1626.00, 
1627.00, 
1628.00, 
1629.00, 
1630.00, 
1631.00, 
1632.00, 
1633.00, 
1634.00, 
1635.00, 
1636.00, 
1637.00, 
1638.00, 
1639.00, 
1640.00, 
1641.00, 
1642.00, 
1643.00, 
1644.00, 
1645.00, 
1646.00, 
1647.00, 
1648.00, 
1649.00, 
1650.00, 
1651.00, 
1652.00, 
1653.00, 
1654.00, 
1655.00, 
1656.00, 
1657.00, 
1658.00, 
1659.00, 
1660.00, 
1661.00, 
1662.00, 
1663.00, 
1664.00, 
1665.00, 
1666.00, 
1667.00, 
1668.00, 
1669.00, 
1670.00, 
1671.00, 
1672.00, 
1673.00, 
1674.00, 
1675.00, 
1676.00, 
1677.00, 
1678.00, 
1679.00, 
1680.00, 
1681.00, 
1682.00, 
1683.00, 
1684.00, 
1685.00, 
1686.00, 
1687.00, 
1688.00, 
1689.00, 
1690.00, 
1691.00, 
1692.00, 
1693.00, 
1694.00, 
1695.00, 
1696.00, 
1697.00, 
1698.00, 
1699.00, 
1700.00, 
1701.00, 
1702.00, 
1703.00, 
1704.00, 
1705.00, 
1706.00, 
1707.00, 
1708.00, 
1709.00, 
1710.00, 
1711.00, 
1712.00, 
1713.00, 
1714.00, 
1715.00, 
1716.00, 
1717.00, 
1718.00, 
1719.00, 
1720.00, 
1721.00, 
1722.00, 
1723.00, 
1724.00, 
1725.00, 
1726.00, 
1727.00, 
1728.00, 
1729.00, 
1730.00, 
1731.00, 
1732.00, 
1733.00, 
1734.00, 
1735.00, 
1736.00, 
1737.00, 
1738.00, 
1739.00, 
1740.00, 
1741.00, 
1742.00, 
1743.00, 
1744.00, 
1745.00, 
1746.00, 
1747.00, 
1748.00, 
1749.00, 
1750.00, 
1751.00, 
1752.00, 
1753.00, 
1754.00, 
1755.00, 
1756.00, 
1757.00, 
1758.00, 
1759.00, 
1760.00, 
1761.00, 
1762.00, 
1763.00, 
1764.00, 
1765.00, 
1766.00, 
1767.00, 
1768.00, 
1769.00, 
1770.00, 
1771.00, 
1772.00, 
1773.00, 
1774.00, 
1775.00, 
1776.00, 
1777.00, 
1778.00, 
1779.00, 
1780.00, 
1781.00, 
1782.00, 
1783.00, 
1784.00, 
1785.00, 
1786.00, 
1787.00, 
1788.00, 
1789.00, 
1790.00, 
1791.00, 
1792.00, 
1793.00, 
1794.00, 
1795.00, 
1796.00, 
1797.00, 
1798.00, 
1799.00, 
1800.00, 
1801.00, 
1802.00, 
1803.00, 
1804.00, 
1805.00, 
1806.00, 
1807.00, 
1808.00, 
1809.00, 
1810.00, 
1811.00, 
1812.00, 
1813.00, 
1814.00, 
1815.00, 
1816.00, 
1817.00, 
1818.00, 
1819.00, 
1820.00, 
1821.00, 
1822.00, 
1823.00, 
1824.00, 
1825.00, 
1826.00, 
1827.00, 
1828.00, 
1829.00, 
1830.00, 
1831.00, 
1832.00, 
1833.00, 
1834.00, 
1835.00, 
1836.00, 
1837.00, 
1838.00, 
1839.00, 
1840.00, 
1841.00, 
1842.00, 
1843.00, 
1844.00, 
1845.00, 
1846.00, 
1847.00, 
1848.00, 
1849.00, 
1850.00, 
1851.00, 
1852.00, 
1853.00, 
1854.00, 
1855.00, 
1856.00, 
1857.00, 
1858.00, 
1859.00, 
1860.00, 
1861.00, 
1862.00, 
1863.00, 
1864.00, 
1865.00, 
1866.00, 
1867.00, 
1868.00, 
1869.00, 
1870.00, 
1871.00, 
1872.00, 
1873.00, 
1874.00, 
1875.00, 
1876.00, 
1877.00, 
1878.00, 
1879.00, 
1880.00, 
1881.00, 
1882.00, 
1883.00, 
1884.00, 
1885.00, 
1886.00, 
1887.00, 
1888.00, 
1889.00, 
1890.00, 
1891.00, 
1892.00, 
1893.00, 
1894.00, 
1895.00, 
1896.00, 
1897.00, 
1898.00, 
1899.00, 
1900.00, 
1901.00, 
1902.00, 
1903.00, 
1904.00, 
1905.00, 
1906.00, 
1907.00, 
1908.00, 
1909.00, 
1910.00, 
1911.00, 
1912.00, 
1913.00, 
1914.00, 
1915.00, 
1916.00, 
1917.00, 
1918.00, 
1919.00, 
1920.00, 
1921.00, 
1922.00, 
1923.00, 
1924.00, 
1925.00, 
1926.00, 
1927.00, 
1928.00, 
1929.00, 
1930.00, 
1931.00, 
1932.00, 
1933.00, 
1934.00, 
1935.00, 
1936.00, 
1937.00, 
1938.00, 
1939.00, 
1940.00, 
1941.00, 
1942.00, 
1943.00, 
1944.00, 
1945.00, 
1946.00, 
1947.00, 
1948.00, 
1949.00, 
1950.00, 
1951.00, 
1952.00, 
1953.00, 
1954.00, 
1955.00, 
1956.00, 
1957.00, 
1958.00, 
1959.00, 
1960.00, 
1961.00, 
1962.00, 
1963.00, 
1964.00, 
1965.00, 
1966.00, 
1967.00, 
1968.00, 
1969.00, 
1970.00, 
1971.00, 
1972.00, 
1973.00, 
1974.00, 
1975.00, 
1976.00, 
1977.00, 
1978.00, 
1979.00, 
1980.00, 
1981.00, 
1982.00, 
1983.00, 
1984.00, 
1985.00, 
1986.00, 
1987.00, 
1988.00, 
1989.00, 
1990.00, 
1991.00, 
1992.00, 
1993.00, 
1994.00, 
1995.00, 
1996.00, 
1997.00, 
1998.00, 
1999.00, 
2000.00, 
2001.00, 
2002.00, 
2003.00, 
2004.00, 
2005.00, 
2006.00, 
2007.00, 
2008.00, 
2009.00, 
2010.00, 
2011.00, 
2012.00, 
2013.00, 
2014.00, 
2015.00, 
2016.00, 
2017.00, 
2018.00, 
2019.00, 
2020.00, 
2021.00, 
2022.00, 
2023.00, 
2024.00, 
2025.00, 
2026.00, 
2027.00, 
2028.00, 
2029.00, 
2030.00, 
2031.00, 
2032.00, 
2033.00, 
2034.00, 
2035.00, 
2036.00, 
2037.00, 
2038.00, 
2039.00, 
2040.00, 
2041.00, 
2042.00, 
2043.00, 
2044.00, 
2045.00, 
2046.00, 
2047.00, 
2048.00, 
2049.00, 
2050.00, 
2051.00, 
2052.00, 
2053.00, 
2054.00, 
2055.00, 
2056.00, 
2057.00, 
2058.00, 
2059.00, 
2060.00, 
2061.00, 
2062.00, 
2063.00, 
2064.00, 
2065.00, 
2066.00, 
2067.00, 
2068.00, 
2069.00, 
2070.00, 
2071.00, 
2072.00, 
2073.00, 
2074.00, 
2075.00, 
2076.00, 
2077.00, 
2078.00, 
2079.00, 
2080.00, 
2081.00, 
2082.00, 
2083.00, 
2084.00, 
2085.00, 
2086.00, 
2087.00, 
2088.00, 
2089.00, 
2090.00, 
2091.00, 
2092.00, 
2093.00, 
2094.00, 
2095.00, 
2096.00, 
2097.00, 
2098.00, 
2099.00, 
2100.00, 
2101.00, 
2102.00, 
2103.00, 
2104.00, 
2105.00, 
2106.00, 
2107.00, 
2108.00, 
2109.00, 
2110.00, 
2111.00, 
2112.00, 
2113.00, 
2114.00, 
2115.00, 
2116.00, 
2117.00, 
2118.00, 
2119.00, 
2120.00, 
2121.00, 
2122.00, 
2123.00, 
2124.00, 
2125.00, 
2126.00, 
2127.00, 
2128.00, 
2129.00, 
2130.00, 
2131.00, 
2132.00, 
2133.00, 
2134.00, 
2135.00, 
2136.00, 
2137.00, 
2138.00, 
2139.00, 
2140.00, 
2141.00, 
2142.00, 
2143.00, 
2144.00, 
2145.00, 
2146.00, 
2147.00, 
2148.00, 
2149.00, 
2150.00, 
2151.00, 
2152.00, 
2153.00, 
2154.00, 
2155.00, 
2156.00, 
2157.00, 
2158.00, 
2159.00, 
2160.00, 
2161.00, 
2162.00, 
2163.00, 
2164.00, 
2165.00, 
2166.00, 
2167.00, 
2168.00, 
2169.00, 
2170.00, 
2171.00, 
2172.00, 
2173.00, 
2174.00, 
2175.00, 
2176.00, 
2177.00, 
2178.00, 
2179.00, 
2180.00, 
2181.00, 
2182.00, 
2183.00, 
2184.00, 
2185.00, 
2186.00, 
2187.00, 
2188.00, 
2189.00, 
2190.00, 
2191.00, 
2192.00, 
2193.00, 
2194.00, 
2195.00, 
2196.00, 
2197.00, 
2198.00, 
2199.00, 
2200.00, 
2201.00, 
2202.00, 
2203.00, 
2204.00, 
2205.00, 
2206.00, 
2207.00, 
2208.00, 
2209.00, 
2210.00, 
2211.00, 
2212.00, 
2213.00, 
2214.00, 
2215.00, 
2216.00, 
2217.00, 
2218.00, 
2219.00, 
2220.00, 
2221.00, 
2222.00, 
2223.00, 
2224.00, 
2225.00, 
2226.00, 
2227.00, 
2228.00, 
2229.00, 
2230.00, 
2231.00, 
2232.00, 
2233.00, 
2234.00, 
2235.00, 
2236.00, 
2237.00, 
2238.00, 
2239.00, 
2240.00, 
2241.00, 
2242.00, 
2243.00, 
2244.00, 
2245.00, 
2246.00, 
2247.00, 
2248.00, 
2249.00, 
2250.00, 
2251.00, 
2252.00, 
2253.00, 
2254.00, 
2255.00, 
2256.00, 
2257.00, 
2258.00, 
2259.00, 
2260.00, 
2261.00, 
2262.00, 
2263.00, 
2264.00, 
2265.00, 
2266.00, 
2267.00, 
2268.00, 
2269.00, 
2270.00, 
2271.00, 
2272.00, 
2273.00, 
2274.00, 
2275.00, 
2276.00, 
2277.00, 
2278.00, 
2279.00, 
2280.00, 
2281.00, 
2282.00, 
2283.00, 
2284.00, 
2285.00, 
2286.00, 
2287.00, 
2288.00, 
2289.00, 
2290.00, 
2291.00, 
2292.00, 
2293.00, 
2294.00, 
2295.00, 
2296.00, 
2297.00, 
2298.00, 
2299.00, 
2300.00, 
2301.00, 
2302.00, 
2303.00, 
2304.00, 
2305.00, 
2306.00, 
2307.00, 
2308.00, 
2309.00, 
2310.00, 
2311.00, 
2312.00, 
2313.00, 
2314.00, 
2315.00, 
2316.00, 
2317.00, 
2318.00, 
2319.00, 
2320.00, 
2321.00, 
2322.00, 
2323.00, 
2324.00, 
2325.00, 
2326.00, 
2327.00, 
2328.00, 
2329.00, 
2330.00, 
2331.00, 
2332.00, 
2333.00, 
2334.00, 
2335.00, 
2336.00, 
2337.00, 
2338.00, 
2339.00, 
2340.00, 
2341.00, 
2342.00, 
2343.00, 
2344.00, 
2345.00, 
2346.00, 
2347.00, 
2348.00, 
2349.00, 
2350.00, 
2351.00, 
2352.00, 
2353.00, 
2354.00, 
2355.00, 
2356.00, 
2357.00, 
2358.00, 
2359.00, 
2360.00, 
2361.00, 
2362.00, 
2363.00, 
2364.00, 
2365.00, 
2366.00, 
2367.00, 
2368.00, 
2369.00, 
2370.00, 
2371.00, 
2372.00, 
2373.00, 
2374.00, 
2375.00, 
2376.00, 
2377.00, 
2378.00, 
2379.00, 
2380.00, 
2381.00, 
2382.00, 
2383.00, 
2384.00, 
2385.00, 
2386.00, 
2387.00, 
2388.00, 
2389.00, 
2390.00, 
2391.00, 
2392.00, 
2393.00, 
2394.00, 
2395.00, 
2396.00, 
2397.00, 
2398.00, 
2399.00, 
2400.00, 
2401.00, 
2402.00, 
2403.00, 
2404.00, 
2405.00, 
2406.00, 
2407.00, 
2408.00, 
2409.00, 
2410.00, 
2411.00, 
2412.00, 
2413.00, 
2414.00, 
2415.00, 
2416.00, 
2417.00, 
2418.00, 
2419.00, 
2420.00, 
2421.00, 
2422.00, 
2423.00, 
2424.00, 
2425.00, 
2426.00, 
2427.00, 
2428.00, 
2429.00, 
2430.00, 
2431.00, 
2432.00, 
2433.00, 
2434.00, 
2435.00, 
2436.00, 
2437.00, 
2438.00, 
2439.00, 
2440.00, 
2441.00, 
2442.00, 
2443.00, 
2444.00, 
2445.00, 
2446.00, 
2447.00, 
2448.00, 
2449.00, 
2450.00, 
2451.00, 
2452.00, 
2453.00, 
2454.00, 
2455.00, 
2456.00, 
2457.00, 
2458.00, 
2459.00, 
2460.00, 
2461.00, 
2462.00, 
2463.00, 
2464.00, 
2465.00, 
2466.00, 
2467.00, 
2468.00, 
2469.00, 
2470.00, 
2471.00, 
2472.00, 
2473.00, 
2474.00, 
2475.00, 
2476.00, 
2477.00, 
2478.00, 
2479.00, 
2480.00, 
2481.00, 
2482.00, 
2483.00, 
2484.00, 
2485.00, 
2486.00, 
2487.00, 
2488.00, 
2489.00, 
2490.00, 
2491.00, 
2492.00, 
2493.00, 
2494.00, 
2495.00, 
2496.00, 
2497.00, 
2498.00, 
2499.00, 
2500.00, 
2501.00, 
2502.00, 
2503.00, 
2504.00, 
2505.00, 
2506.00, 
2507.00, 
2508.00, 
2509.00, 
2510.00, 
2511.00, 
2512.00, 
2513.00, 
2514.00, 
2515.00, 
2516.00, 
2517.00, 
2518.00, 
2519.00, 
2520.00, 
2521.00, 
2522.00, 
2523.00, 
2524.00, 
2525.00, 
2526.00, 
2527.00, 
2528.00, 
2529.00, 
2530.00, 
2531.00, 
2532.00, 
2533.00, 
2534.00, 
2535.00, 
2536.00, 
2537.00, 
2538.00, 
2539.00, 
2540.00, 
2541.00, 
2542.00, 
2543.00, 
2544.00, 
2545.00, 
2546.00, 
2547.00, 
2548.00, 
2549.00, 
2550.00, 
2551.00, 
2552.00, 
2553.00, 
2554.00, 
2555.00, 
2556.00, 
2557.00, 
2558.00, 
2559.00, 
2560.00, 
2561.00, 
2562.00, 
2563.00, 
2564.00, 
2565.00, 
2566.00, 
2567.00, 
2568.00, 
2569.00, 
2570.00, 
2571.00, 
2572.00, 
2573.00, 
2574.00, 
2575.00, 
2576.00, 
2577.00, 
2578.00, 
2579.00, 
2580.00, 
2581.00, 
2582.00, 
2583.00, 
2584.00, 
2585.00, 
2586.00, 
2587.00, 
2588.00, 
2589.00, 
2590.00, 
2591.00, 
2592.00, 
2593.00, 
2594.00, 
2595.00, 
2596.00, 
2597.00, 
2598.00, 
2599.00, 
2600.00, 
