"1cP5 - RawData"
"Wavelength nm.","T%"
200.00,-0.000
201.00,-0.001
202.00,-0.002
203.00,0.000
204.00,0.001
205.00,0.002
206.00,0.001
207.00,0.002
208.00,0.000
209.00,0.004
210.00,0.000
211.00,0.001
212.00,0.001
213.00,0.002
214.00,0.000
215.00,0.001
216.00,0.002
217.00,0.001
218.00,0.000
219.00,0.003
220.00,0.001
221.00,0.000
222.00,0.003
223.00,0.003
224.00,-0.000
225.00,-0.001
226.00,0.001
227.00,-0.000
228.00,-0.001
229.00,-0.000
230.00,-0.001
231.00,0.003
232.00,0.000
233.00,-0.002
234.00,0.001
235.00,0.001
236.00,0.001
237.00,-0.000
238.00,0.001
239.00,0.000
240.00,0.002
241.00,0.001
242.00,-0.000
243.00,0.001
244.00,0.002
245.00,-0.000
246.00,0.000
247.00,0.001
248.00,-0.000
249.00,0.002
250.00,0.000
251.00,-0.001
252.00,0.000
253.00,0.001
254.00,0.001
255.00,-0.001
256.00,0.001
257.00,0.000
258.00,0.002
259.00,-0.001
260.00,0.001
261.00,-0.000
262.00,0.002
263.00,0.001
264.00,-0.001
265.00,0.002
266.00,0.001
267.00,0.001
268.00,-0.000
269.00,-0.000
270.00,0.001
271.00,0.001
272.00,0.001
273.00,0.001
274.00,0.001
275.00,0.001
276.00,-0.001
277.00,0.001
278.00,-0.000
279.00,0.002
280.00,-0.001
281.00,-0.001
282.00,0.000
283.00,0.000
284.00,0.002
285.00,0.001
286.00,-0.001
287.00,0.000
288.00,-0.002
289.00,0.001
290.00,0.001
291.00,-0.000
292.00,0.002
293.00,-0.001
294.00,-0.000
295.00,-0.001
296.00,0.001
297.00,0.001
298.00,0.000
299.00,-0.001
300.00,0.001
301.00,-0.000
302.00,-0.001
303.00,0.002
304.00,0.000
305.00,0.001
306.00,0.001
307.00,0.002
308.00,0.004
309.00,0.008
310.00,0.012
311.00,0.022
312.00,0.032
313.00,0.046
314.00,0.072
315.00,0.107
316.00,0.155
317.00,0.216
318.00,0.289
319.00,0.393
320.00,0.518
321.00,0.679
322.00,0.855
323.00,1.071
324.00,1.334
325.00,1.603
326.00,1.890
327.00,2.247
328.00,2.619
329.00,3.011
330.00,3.446
331.00,3.907
332.00,4.354
333.00,4.875
334.00,5.373
335.00,5.929
336.00,6.453
337.00,6.966
338.00,7.511
339.00,8.004
340.00,8.521
341.00,9.024
342.00,9.495
343.00,9.996
344.00,10.487
345.00,10.886
346.00,11.286
347.00,11.635
348.00,12.042
349.00,12.382
350.00,12.710
351.00,13.005
352.00,13.256
353.00,13.516
354.00,13.754
355.00,14.033
356.00,14.222
357.00,14.404
358.00,14.601
359.00,14.765
360.00,14.962
361.00,15.038
362.00,15.163
363.00,15.279
364.00,15.333
365.00,15.387
366.00,15.487
367.00,15.480
368.00,15.545
369.00,15.559
370.00,15.578
371.00,15.573
372.00,15.563
373.00,15.571
374.00,15.526
375.00,15.416
376.00,15.374
377.00,15.268
378.00,15.216
379.00,15.103
380.00,15.058
381.00,15.053
382.00,15.002
383.00,15.012
384.00,15.026
385.00,15.047
386.00,15.044
387.00,15.089
388.00,15.133
389.00,15.133
390.00,15.142
391.00,15.147
392.00,15.180
393.00,15.150
394.00,15.152
395.00,15.179
396.00,15.136
397.00,15.171
398.00,15.135
399.00,15.123
400.00,15.122
401.00,15.095
402.00,15.135
403.00,15.118
404.00,15.069
405.00,15.059
406.00,15.051
407.00,14.991
408.00,15.010
409.00,14.945
410.00,14.915
411.00,14.887
412.00,14.857
413.00,14.856
414.00,14.827
415.00,14.853
416.00,14.881
417.00,14.854
418.00,14.884
419.00,14.943
420.00,14.979
421.00,14.920
422.00,14.936
423.00,14.968
424.00,15.005
425.00,15.037
426.00,15.053
427.00,15.103
428.00,15.134
429.00,15.158
430.00,15.202
431.00,15.253
432.00,15.261
433.00,15.341
434.00,15.376
435.00,15.434
436.00,15.484
437.00,15.550
438.00,15.610
439.00,15.669
440.00,15.720
441.00,15.798
442.00,15.867
443.00,15.949
444.00,16.055
445.00,16.117
446.00,16.199
447.00,16.288
448.00,16.397
449.00,16.465
450.00,16.610
451.00,16.683
452.00,16.782
453.00,16.896
454.00,16.997
455.00,17.102
456.00,17.225
457.00,17.336
458.00,17.410
459.00,17.563
460.00,17.688
461.00,17.822
462.00,17.908
463.00,18.087
464.00,18.207
465.00,18.314
466.00,18.436
467.00,18.579
468.00,18.683
469.00,18.797
470.00,18.919
471.00,19.011
472.00,19.167
473.00,19.225
474.00,19.363
475.00,19.502
476.00,19.582
477.00,19.755
478.00,19.875
479.00,20.070
480.00,20.180
481.00,20.310
482.00,20.462
483.00,20.649
484.00,20.817
485.00,20.967
486.00,21.101
487.00,21.267
488.00,21.383
489.00,21.566
490.00,21.724
491.00,21.863
492.00,22.019
493.00,22.255
494.00,22.407
495.00,22.409
496.00,22.592
497.00,22.630
498.00,22.752
499.00,22.986
500.00,23.082
501.00,23.271
502.00,23.396
503.00,23.502
504.00,23.520
505.00,23.787
506.00,23.922
507.00,24.026
508.00,24.187
509.00,24.341
510.00,24.479
511.00,24.576
512.00,24.766
513.00,24.886
514.00,25.005
515.00,25.145
516.00,25.284
517.00,25.386
518.00,25.489
519.00,25.596
520.00,25.676
521.00,25.772
522.00,25.924
523.00,25.986
524.00,26.115
525.00,26.261
526.00,26.338
527.00,26.452
528.00,26.529
529.00,26.730
530.00,26.867
531.00,26.923
532.00,27.029
533.00,27.206
534.00,27.250
535.00,27.329
536.00,27.431
537.00,27.501
538.00,27.611
539.00,27.654
540.00,27.744
541.00,27.830
542.00,27.869
543.00,27.986
544.00,28.077
545.00,28.134
546.00,28.191
547.00,28.343
548.00,28.388
549.00,28.474
550.00,28.561
551.00,28.675
552.00,28.771
553.00,28.813
554.00,28.892
555.00,28.924
556.00,28.984
557.00,29.081
558.00,29.147
559.00,29.226
560.00,29.309
561.00,29.363
562.00,29.415
563.00,29.475
564.00,29.568
565.00,29.585
566.00,29.616
567.00,29.668
568.00,29.691
569.00,29.762
570.00,29.791
571.00,29.823
572.00,29.895
573.00,29.872
574.00,29.910
575.00,29.957
576.00,29.980
577.00,30.035
578.00,30.104
579.00,30.226
580.00,30.241
581.00,30.380
582.00,30.458
583.00,30.486
584.00,30.597
585.00,30.616
586.00,30.679
587.00,30.767
588.00,30.795
589.00,30.779
590.00,30.896
591.00,30.913
592.00,30.836
593.00,30.950
594.00,31.035
595.00,31.118
596.00,31.157
597.00,31.252
598.00,31.346
599.00,31.336
600.00,31.403
601.00,31.420
602.00,31.395
603.00,31.510
604.00,31.562
605.00,31.617
606.00,31.730
607.00,31.719
608.00,31.762
609.00,31.732
610.00,31.911
611.00,32.106
612.00,31.955
613.00,31.988
614.00,32.071
615.00,32.137
616.00,32.250
617.00,32.262
618.00,32.214
619.00,32.368
620.00,32.429
621.00,32.549
622.00,32.620
623.00,32.652
624.00,32.773
625.00,32.818
626.00,32.893
627.00,32.950
628.00,32.926
629.00,32.981
630.00,33.066
631.00,33.140
632.00,33.273
633.00,33.473
634.00,33.535
635.00,33.592
636.00,33.699
637.00,33.753
638.00,33.833
639.00,33.963
640.00,34.017
641.00,34.071
642.00,34.193
643.00,34.258
644.00,34.381
645.00,34.462
646.00,34.614
647.00,34.722
648.00,34.732
649.00,34.833
650.00,34.873
651.00,35.031
652.00,35.184
653.00,35.220
654.00,35.324
655.00,35.552
656.00,35.798
657.00,35.783
658.00,35.919
659.00,35.993
660.00,36.114
661.00,36.199
662.00,36.186
663.00,36.345
664.00,36.661
665.00,36.836
666.00,36.667
667.00,36.889
668.00,36.905
669.00,37.003
670.00,37.484
671.00,37.733
672.00,37.559
673.00,37.672
674.00,37.730
675.00,37.896
676.00,38.140
677.00,38.282
678.00,38.174
679.00,38.417
680.00,38.505
681.00,38.706
682.00,38.864
683.00,38.814
684.00,39.011
685.00,39.147
686.00,39.143
687.00,39.385
688.00,39.413
689.00,39.465
690.00,39.622
691.00,39.835
692.00,40.246
693.00,39.964
694.00,40.151
695.00,40.382
696.00,40.503
697.00,40.491
698.00,40.633
699.00,40.846
700.00,40.952
701.00,41.096
702.00,41.152
703.00,41.443
704.00,41.381
705.00,41.456
706.00,41.556
707.00,41.803
708.00,41.672
709.00,42.097
710.00,42.499
711.00,42.018
712.00,42.126
713.00,42.361
714.00,42.502
715.00,42.577
716.00,42.621
717.00,42.816
718.00,43.011
719.00,43.015
720.00,43.085
721.00,47.366
722.00,47.379
723.00,47.442
724.00,47.541
725.00,47.559
726.00,47.612
727.00,47.660
728.00,47.781
729.00,47.851
730.00,47.873
731.00,47.924
732.00,48.000
733.00,48.099
734.00,48.274
735.00,48.247
736.00,48.308
737.00,48.367
738.00,48.504
739.00,48.554
740.00,48.595
741.00,48.668
742.00,48.722
743.00,48.739
744.00,48.777
745.00,48.900
746.00,48.855
747.00,48.880
748.00,49.022
749.00,49.018
750.00,49.014
751.00,48.981
752.00,49.075
753.00,49.066
754.00,49.188
755.00,49.136
756.00,49.216
757.00,49.272
758.00,49.265
759.00,49.371
760.00,49.362
761.00,49.375
762.00,49.457
763.00,49.521
764.00,49.492
765.00,49.505
766.00,49.643
767.00,49.686
768.00,49.698
769.00,49.669
770.00,49.739
771.00,49.785
772.00,49.783
773.00,49.865
774.00,49.899
775.00,49.921
776.00,49.912
777.00,49.951
778.00,49.984
779.00,50.020
780.00,50.007
781.00,50.002
782.00,50.059
783.00,50.058
784.00,50.079
785.00,50.049
786.00,50.154
787.00,50.123
788.00,50.040
789.00,50.131
790.00,50.114
791.00,50.185
792.00,50.119
793.00,50.197
794.00,50.214
795.00,50.141
796.00,50.131
797.00,50.073
798.00,50.093
799.00,50.128
800.00,50.083
801.00,50.174
802.00,50.135
803.00,50.181
804.00,50.101
805.00,50.168
806.00,50.169
807.00,50.144
808.00,50.157
809.00,50.113
810.00,50.152
811.00,50.146
812.00,50.207
813.00,50.134
814.00,50.184
815.00,50.175
816.00,50.123
817.00,50.083
818.00,50.067
819.00,50.092
820.00,50.071
821.00,50.059
822.00,50.136
823.00,50.059
824.00,50.127
825.00,50.053
826.00,50.112
827.00,50.070
828.00,50.056
829.00,50.173
830.00,50.119
831.00,52.506
832.00,52.533
833.00,52.486
834.00,52.480
835.00,52.461
836.00,52.472
837.00,52.463
838.00,52.437
839.00,52.392
840.00,52.369
841.00,52.410
842.00,52.410
843.00,52.391
844.00,52.399
845.00,52.371
846.00,52.350
847.00,52.311
848.00,52.353
849.00,52.268
850.00,52.282
851.00,52.213
852.00,52.249
853.00,52.198
854.00,52.179
855.00,52.129
856.00,52.131
857.00,52.129
858.00,52.105
859.00,52.076
860.00,52.102
861.00,52.101
862.00,52.045
863.00,52.044
864.00,52.032
865.00,52.047
866.00,52.025
867.00,52.023
868.00,52.034
869.00,51.988
870.00,52.024
871.00,52.029
872.00,52.019
873.00,51.983
874.00,52.004
875.00,51.953
876.00,51.996
877.00,51.961
878.00,51.952
879.00,51.942
880.00,51.931
881.00,51.904
882.00,51.951
883.00,51.894
884.00,51.889
885.00,51.875
886.00,51.868
887.00,51.836
888.00,51.818
889.00,51.802
890.00,51.801
891.00,51.758
892.00,51.732
893.00,51.754
894.00,51.718
895.00,51.719
896.00,51.705
897.00,51.668
898.00,51.655
899.00,51.679
900.00,51.638
901.00,51.634
902.00,51.630
903.00,51.600
904.00,51.609
905.00,51.608
906.00,51.559
907.00,51.704
908.00,51.525
909.00,51.485
910.00,51.504
911.00,51.477
912.00,51.466
913.00,51.428
914.00,51.444
915.00,51.425
916.00,51.406
917.00,51.375
918.00,51.386
919.00,51.326
920.00,51.306
921.00,51.334
922.00,51.320
923.00,51.224
924.00,51.300
925.00,51.234
926.00,51.234
927.00,51.212
928.00,51.199
929.00,51.175
930.00,51.140
931.00,51.133
932.00,51.095
933.00,51.121
934.00,51.085
935.00,51.075
936.00,51.090
937.00,51.032
938.00,51.002
939.00,51.026
940.00,50.981
941.00,51.007
942.00,50.845
943.00,50.956
944.00,50.909
945.00,50.907
946.00,50.910
947.00,50.869
948.00,50.837
949.00,50.847
950.00,50.810
951.00,50.782
952.00,50.797
953.00,50.827
954.00,50.725
955.00,50.692
956.00,50.702
957.00,50.678
958.00,50.667
959.00,50.613
960.00,50.621
961.00,50.606
962.00,50.610
963.00,50.567
964.00,50.543
965.00,50.554
966.00,50.541
967.00,50.500
968.00,50.525
969.00,50.538
970.00,50.482
971.00,50.517
972.00,50.445
973.00,50.556
974.00,50.494
975.00,50.499
976.00,50.508
977.00,50.521
978.00,50.544
979.00,50.525
980.00,50.535
981.00,50.516
982.00,50.519
983.00,50.504
984.00,50.466
985.00,50.556
986.00,50.473
987.00,50.494
988.00,50.422
989.00,50.440
990.00,50.427
991.00,50.419
992.00,50.434
993.00,50.403
994.00,50.388
995.00,50.365
996.00,50.391
997.00,50.359
998.00,50.340
999.00,50.362
1000.00,50.351
1001.00,50.299
1002.00,50.306
1003.00,50.328
1004.00,50.278
1005.00,50.254
1006.00,50.284
1007.00,50.259
1008.00,50.241
1009.00,50.224
1010.00,50.237
1011.00,50.198
1012.00,50.179
1013.00,50.192
1014.00,50.146
1015.00,50.168
1016.00,50.138
1017.00,50.120
1018.00,50.114
1019.00,50.112
1020.00,50.078
1021.00,50.056
1022.00,50.038
1023.00,49.996
1024.00,50.013
1025.00,49.988
1026.00,49.994
1027.00,49.962
1028.00,49.952
1029.00,49.941
1030.00,49.899
1031.00,49.922
1032.00,49.893
1033.00,49.885
1034.00,49.859
1035.00,49.833
1036.00,49.794
1037.00,49.787
1038.00,49.786
1039.00,49.752
1040.00,49.749
1041.00,49.708
1042.00,49.700
1043.00,49.701
1044.00,49.710
1045.00,49.711
1046.00,49.721
1047.00,49.727
1048.00,49.738
1049.00,49.742
1050.00,49.739
1051.00,49.776
1052.00,49.760
1053.00,49.763
1054.00,49.767
1055.00,49.787
1056.00,49.805
1057.00,49.807
1058.00,49.782
1059.00,49.792
1060.00,49.810
1061.00,49.793
1062.00,49.771
1063.00,49.770
1064.00,49.770
1065.00,49.758
1066.00,49.739
1067.00,49.735
1068.00,49.758
1069.00,49.713
1070.00,49.714
1071.00,49.695
1072.00,49.718
1073.00,49.710
1074.00,49.690
1075.00,49.680
1076.00,49.691
1077.00,49.669
1078.00,49.663
1079.00,49.673
1080.00,49.661
1081.00,49.642
1082.00,49.638
1083.00,49.610
1084.00,49.626
1085.00,49.620
1086.00,49.604
1087.00,49.618
1088.00,49.591
1089.00,49.588
1090.00,49.585
1091.00,49.578
1092.00,49.585
1093.00,49.558
1094.00,49.539
1095.00,49.529
1096.00,49.517
1097.00,49.531
1098.00,49.535
1099.00,49.510
1100.00,49.505
1101.00,49.502
1102.00,49.469
1103.00,49.484
1104.00,49.469
1105.00,49.449
1106.00,49.437
1107.00,49.429
1108.00,49.430
1109.00,49.435
1110.00,49.413
1111.00,49.397
1112.00,49.390
1113.00,49.372
1114.00,49.376
1115.00,49.388
1116.00,49.367
1117.00,49.369
1118.00,49.344
1119.00,49.333
1120.00,49.362
1121.00,49.335
1122.00,49.336
1123.00,49.358
1124.00,49.302
1125.00,49.316
1126.00,49.300
1127.00,49.284
1128.00,49.273
1129.00,49.255
1130.00,49.262
1131.00,49.280
1132.00,49.260
1133.00,49.268
1134.00,49.254
1135.00,49.232
1136.00,49.249
1137.00,49.248
1138.00,49.244
1139.00,49.258
1140.00,49.241
1141.00,49.242
1142.00,49.240
1143.00,49.240
1144.00,49.218
1145.00,49.234
1146.00,49.204
1147.00,49.210
1148.00,49.206
1149.00,49.213
1150.00,49.222
1151.00,49.212
1152.00,49.203
1153.00,49.216
1154.00,49.190
1155.00,49.213
1156.00,49.207
1157.00,49.198
1158.00,49.195
1159.00,49.194
1160.00,49.184
1161.00,49.201
1162.00,49.182
1163.00,49.179
1164.00,49.191
1165.00,49.177
1166.00,49.182
1167.00,49.176
1168.00,49.194
1169.00,49.199
1170.00,49.201
1171.00,49.178
1172.00,49.193
1173.00,49.169
1174.00,49.180
1175.00,49.186
1176.00,49.179
1177.00,49.156
1178.00,49.163
1179.00,49.169
1180.00,49.166
1181.00,49.184
1182.00,49.161
1183.00,49.165
1184.00,49.146
1185.00,49.165
1186.00,49.160
1187.00,49.162
1188.00,49.173
1189.00,49.176
1190.00,49.155
1191.00,49.152
1192.00,49.180
1193.00,49.157
1194.00,49.174
1195.00,49.150
1196.00,49.180
1197.00,49.180
1198.00,49.159
1199.00,49.169
1200.00,49.184
1201.00,49.176
1202.00,49.168
1203.00,49.154
1204.00,49.140
1205.00,49.168
1206.00,49.143
1207.00,49.164
1208.00,49.167
1209.00,49.170
1210.00,49.171
1211.00,49.172
1212.00,49.171
1213.00,49.159
1214.00,49.210
1215.00,49.160
1216.00,49.183
1217.00,49.172
1218.00,49.166
1219.00,49.192
1220.00,49.158
1221.00,49.176
1222.00,49.174
1223.00,49.195
1224.00,49.191
1225.00,49.177
1226.00,49.179
1227.00,49.189
1228.00,49.194
1229.00,49.175
1230.00,49.223
1231.00,49.196
1232.00,49.221
1233.00,49.233
1234.00,49.218
1235.00,49.231
1236.00,49.234
1237.00,49.241
1238.00,49.241
1239.00,49.242
1240.00,49.229
1241.00,49.256
1242.00,49.245
1243.00,49.260
1244.00,49.239
1245.00,49.249
1246.00,49.272
1247.00,49.258
1248.00,49.250
1249.00,49.278
1250.00,49.266
1251.00,49.259
1252.00,49.287
1253.00,49.268
1254.00,49.299
1255.00,49.292
1256.00,49.256
1257.00,49.241
1258.00,49.325
1259.00,49.300
1260.00,49.328
1261.00,49.312
1262.00,49.306
1263.00,49.321
1264.00,49.315
1265.00,49.336
1266.00,49.349
1267.00,49.350
1268.00,49.370
1269.00,49.373
1270.00,49.397
1271.00,49.399
1272.00,49.384
1273.00,49.405
1274.00,49.412
1275.00,49.397
1276.00,49.402
1277.00,49.413
1278.00,49.400
1279.00,49.412
1280.00,49.401
1281.00,49.422
1282.00,49.443
1283.00,49.436
1284.00,49.448
1285.00,49.467
1286.00,49.468
1287.00,49.467
1288.00,49.479
1289.00,49.458
1290.00,49.500
1291.00,49.488
1292.00,49.477
1293.00,49.494
1294.00,49.507
1295.00,49.520
1296.00,49.520
1297.00,49.525
1298.00,49.563
1299.00,49.532
1300.00,49.546
1301.00,49.548
1302.00,49.552
1303.00,49.577
1304.00,49.571
1305.00,49.579
1306.00,49.574
1307.00,49.607
1308.00,49.578
1309.00,49.611
1310.00,49.597
1311.00,49.585
1312.00,49.615
1313.00,49.621
1314.00,49.640
1315.00,49.669
1316.00,49.657
1317.00,49.694
1318.00,49.711
1319.00,49.707
1320.00,49.706
1321.00,49.853
1322.00,49.817
1323.00,49.812
1324.00,49.819
1325.00,49.790
1326.00,49.831
1327.00,49.808
1328.00,49.809
1329.00,49.806
1330.00,49.825
1331.00,49.817
1332.00,49.841
1333.00,49.840
1334.00,49.889
1335.00,49.887
1336.00,49.906
1337.00,49.944
1338.00,50.017
1339.00,50.043
1340.00,50.130
1341.00,50.174
1342.00,50.242
1343.00,50.307
1344.00,50.339
1345.00,50.400
1346.00,50.449
1347.00,50.479
1348.00,50.486
1349.00,50.515
1350.00,50.506
1351.00,50.516
1352.00,50.521
1353.00,50.530
1354.00,50.569
1355.00,50.511
1356.00,50.550
1357.00,50.567
1358.00,50.587
1359.00,50.569
1360.00,50.624
1361.00,50.569
1362.00,50.524
1363.00,50.623
1364.00,50.631
1365.00,50.657
1366.00,50.630
1367.00,50.607
1368.00,50.584
1369.00,50.612
1370.00,50.592
1371.00,50.591
1372.00,50.564
1373.00,50.607
1374.00,50.627
1375.00,50.595
1376.00,50.592
1377.00,50.579
1378.00,50.638
1379.00,50.645
1380.00,50.629
1381.00,50.603
1382.00,50.613
1383.00,50.601
1384.00,50.572
1385.00,50.590
1386.00,50.604
1387.00,50.580
1388.00,50.568
1389.00,50.585
1390.00,50.625
1391.00,50.572
1392.00,50.577
1393.00,50.619
1394.00,50.598
1395.00,50.523
1396.00,50.555
1397.00,50.611
1398.00,50.608
1399.00,50.592
1400.00,50.569
1401.00,50.570
1402.00,50.657
1403.00,50.616
1404.00,50.612
1405.00,50.639
1406.00,50.662
1407.00,50.638
1408.00,50.644
1409.00,50.650
1410.00,50.690
1411.00,50.645
1412.00,50.734
1413.00,50.669
1414.00,50.686
1415.00,50.719
1416.00,50.733
1417.00,50.774
1418.00,50.748
1419.00,50.759
1420.00,50.775
1421.00,50.812
1422.00,50.796
1423.00,50.836
1424.00,50.826
1425.00,50.887
1426.00,50.852
1427.00,50.885
1428.00,50.887
1429.00,50.897
1430.00,50.907
1431.00,50.950
1432.00,50.946
1433.00,50.984
1434.00,50.983
1435.00,51.053
1436.00,51.042
1437.00,51.031
1438.00,51.067
1439.00,51.109
1440.00,51.144
1441.00,51.129
1442.00,51.131
1443.00,51.151
1444.00,51.186
1445.00,51.175
1446.00,51.196
1447.00,51.228
1448.00,51.273
1449.00,51.259
1450.00,51.288
1451.00,51.287
1452.00,51.322
1453.00,51.345
1454.00,51.345
1455.00,51.391
1456.00,51.427
1457.00,51.389
1458.00,51.425
1459.00,51.438
1460.00,51.462
1461.00,51.468
1462.00,51.502
1463.00,51.504
1464.00,51.534
1465.00,51.522
1466.00,51.535
1467.00,51.564
1468.00,51.606
1469.00,51.584
1470.00,51.609
1471.00,51.629
1472.00,51.647
1473.00,51.656
1474.00,51.679
1475.00,51.709
1476.00,51.718
1477.00,51.699
1478.00,51.741
1479.00,51.732
1480.00,51.757
1481.00,51.752
1482.00,51.769
1483.00,51.807
1484.00,51.810
1485.00,51.839
1486.00,51.902
1487.00,51.904
1488.00,51.910
1489.00,51.906
1490.00,51.919
1491.00,51.921
1492.00,51.951
1493.00,51.935
1494.00,51.985
1495.00,51.950
1496.00,51.989
1497.00,51.992
1498.00,52.005
1499.00,52.015
1500.00,52.047
1501.00, 
1502.00, 
1503.00, 
1504.00, 
1505.00, 
1506.00, 
1507.00, 
1508.00, 
1509.00, 
1510.00, 
1511.00, 
1512.00, 
1513.00, 
1514.00, 
1515.00, 
1516.00, 
1517.00, 
1518.00, 
1519.00, 
1520.00, 
1521.00, 
1522.00, 
1523.00, 
1524.00, 
1525.00, 
1526.00, 
1527.00, 
1528.00, 
1529.00, 
1530.00, 
1531.00, 
1532.00, 
1533.00, 
1534.00, 
1535.00, 
1536.00, 
1537.00, 
1538.00, 
1539.00, 
1540.00, 
1541.00, 
1542.00, 
1543.00, 
1544.00, 
1545.00, 
1546.00, 
1547.00, 
1548.00, 
1549.00, 
1550.00, 
1551.00, 
1552.00, 
1553.00, 
1554.00, 
1555.00, 
1556.00, 
1557.00, 
1558.00, 
1559.00, 
1560.00, 
1561.00, 
1562.00, 
1563.00, 
1564.00, 
1565.00, 
1566.00, 
1567.00, 
1568.00, 
1569.00, 
1570.00, 
1571.00, 
1572.00, 
1573.00, 
1574.00, 
1575.00, 
1576.00, 
1577.00, 
1578.00, 
1579.00, 
1580.00, 
1581.00, 
1582.00, 
1583.00, 
1584.00, 
1585.00, 
1586.00, 
1587.00, 
1588.00, 
1589.00, 
1590.00, 
1591.00, 
1592.00, 
1593.00, 
1594.00, 
1595.00, 
1596.00, 
1597.00, 
1598.00, 
1599.00, 
1600.00, 
1601.00, 
1602.00, 
1603.00, 
1604.00, 
1605.00, 
1606.00, 
1607.00, 
1608.00, 
1609.00, 
1610.00, 
1611.00, 
1612.00, 
1613.00, 
1614.00, 
1615.00, 
1616.00, 
1617.00, 
1618.00, 
1619.00, 
1620.00, 
1621.00, 
1622.00, 
1623.00, 
1624.00, 
1625.00, 
1626.00, 
1627.00, 
1628.00, 
1629.00, 
1630.00, 
1631.00, 
1632.00, 
1633.00, 
1634.00, 
1635.00, 
1636.00, 
1637.00, 
1638.00, 
1639.00, 
1640.00, 
1641.00, 
1642.00, 
1643.00, 
1644.00, 
1645.00, 
1646.00, 
1647.00, 
1648.00, 
1649.00, 
1650.00, 
1651.00, 
1652.00, 
1653.00, 
1654.00, 
1655.00, 
1656.00, 
1657.00, 
1658.00, 
1659.00, 
1660.00, 
1661.00, 
1662.00, 
1663.00, 
1664.00, 
1665.00, 
1666.00, 
1667.00, 
1668.00, 
1669.00, 
1670.00, 
1671.00, 
1672.00, 
1673.00, 
1674.00, 
1675.00, 
1676.00, 
1677.00, 
1678.00, 
1679.00, 
1680.00, 
1681.00, 
1682.00, 
1683.00, 
1684.00, 
1685.00, 
1686.00, 
1687.00, 
1688.00, 
1689.00, 
1690.00, 
1691.00, 
1692.00, 
1693.00, 
1694.00, 
1695.00, 
1696.00, 
1697.00, 
1698.00, 
1699.00, 
1700.00, 
1701.00, 
1702.00, 
1703.00, 
1704.00, 
1705.00, 
1706.00, 
1707.00, 
1708.00, 
1709.00, 
1710.00, 
1711.00, 
1712.00, 
1713.00, 
1714.00, 
1715.00, 
1716.00, 
1717.00, 
1718.00, 
1719.00, 
1720.00, 
1721.00, 
1722.00, 
1723.00, 
1724.00, 
1725.00, 
1726.00, 
1727.00, 
1728.00, 
1729.00, 
1730.00, 
1731.00, 
1732.00, 
1733.00, 
1734.00, 
1735.00, 
1736.00, 
1737.00, 
1738.00, 
1739.00, 
1740.00, 
1741.00, 
1742.00, 
1743.00, 
1744.00, 
1745.00, 
1746.00, 
1747.00, 
1748.00, 
1749.00, 
1750.00, 
1751.00, 
1752.00, 
1753.00, 
1754.00, 
1755.00, 
1756.00, 
1757.00, 
1758.00, 
1759.00, 
1760.00, 
1761.00, 
1762.00, 
1763.00, 
1764.00, 
1765.00, 
1766.00, 
1767.00, 
1768.00, 
1769.00, 
1770.00, 
1771.00, 
1772.00, 
1773.00, 
1774.00, 
1775.00, 
1776.00, 
1777.00, 
1778.00, 
1779.00, 
1780.00, 
1781.00, 
1782.00, 
1783.00, 
1784.00, 
1785.00, 
1786.00, 
1787.00, 
1788.00, 
1789.00, 
1790.00, 
1791.00, 
1792.00, 
1793.00, 
1794.00, 
1795.00, 
1796.00, 
1797.00, 
1798.00, 
1799.00, 
1800.00, 
1801.00, 
1802.00, 
1803.00, 
1804.00, 
1805.00, 
1806.00, 
1807.00, 
1808.00, 
1809.00, 
1810.00, 
1811.00, 
1812.00, 
1813.00, 
1814.00, 
1815.00, 
1816.00, 
1817.00, 
1818.00, 
1819.00, 
1820.00, 
1821.00, 
1822.00, 
1823.00, 
1824.00, 
1825.00, 
1826.00, 
1827.00, 
1828.00, 
1829.00, 
1830.00, 
1831.00, 
1832.00, 
1833.00, 
1834.00, 
1835.00, 
1836.00, 
1837.00, 
1838.00, 
1839.00, 
1840.00, 
1841.00, 
1842.00, 
1843.00, 
1844.00, 
1845.00, 
1846.00, 
1847.00, 
1848.00, 
1849.00, 
1850.00, 
1851.00, 
1852.00, 
1853.00, 
1854.00, 
1855.00, 
1856.00, 
1857.00, 
1858.00, 
1859.00, 
1860.00, 
1861.00, 
1862.00, 
1863.00, 
1864.00, 
1865.00, 
1866.00, 
1867.00, 
1868.00, 
1869.00, 
1870.00, 
1871.00, 
1872.00, 
1873.00, 
1874.00, 
1875.00, 
1876.00, 
1877.00, 
1878.00, 
1879.00, 
1880.00, 
1881.00, 
1882.00, 
1883.00, 
1884.00, 
1885.00, 
1886.00, 
1887.00, 
1888.00, 
1889.00, 
1890.00, 
1891.00, 
1892.00, 
1893.00, 
1894.00, 
1895.00, 
1896.00, 
1897.00, 
1898.00, 
1899.00, 
1900.00, 
1901.00, 
1902.00, 
1903.00, 
1904.00, 
1905.00, 
1906.00, 
1907.00, 
1908.00, 
1909.00, 
1910.00, 
1911.00, 
1912.00, 
1913.00, 
1914.00, 
1915.00, 
1916.00, 
1917.00, 
1918.00, 
1919.00, 
1920.00, 
1921.00, 
1922.00, 
1923.00, 
1924.00, 
1925.00, 
1926.00, 
1927.00, 
1928.00, 
1929.00, 
1930.00, 
1931.00, 
1932.00, 
1933.00, 
1934.00, 
1935.00, 
1936.00, 
1937.00, 
1938.00, 
1939.00, 
1940.00, 
1941.00, 
1942.00, 
1943.00, 
1944.00, 
1945.00, 
1946.00, 
1947.00, 
1948.00, 
1949.00, 
1950.00, 
1951.00, 
1952.00, 
1953.00, 
1954.00, 
1955.00, 
1956.00, 
1957.00, 
1958.00, 
1959.00, 
1960.00, 
1961.00, 
1962.00, 
1963.00, 
1964.00, 
1965.00, 
1966.00, 
1967.00, 
1968.00, 
1969.00, 
1970.00, 
1971.00, 
1972.00, 
1973.00, 
1974.00, 
1975.00, 
1976.00, 
1977.00, 
1978.00, 
1979.00, 
1980.00, 
1981.00, 
1982.00, 
1983.00, 
1984.00, 
1985.00, 
1986.00, 
1987.00, 
1988.00, 
1989.00, 
1990.00, 
1991.00, 
1992.00, 
1993.00, 
1994.00, 
1995.00, 
1996.00, 
1997.00, 
1998.00, 
1999.00, 
2000.00, 
2001.00, 
2002.00, 
2003.00, 
2004.00, 
2005.00, 
2006.00, 
2007.00, 
2008.00, 
2009.00, 
2010.00, 
2011.00, 
2012.00, 
2013.00, 
2014.00, 
2015.00, 
2016.00, 
2017.00, 
2018.00, 
2019.00, 
2020.00, 
2021.00, 
2022.00, 
2023.00, 
2024.00, 
2025.00, 
2026.00, 
2027.00, 
2028.00, 
2029.00, 
2030.00, 
2031.00, 
2032.00, 
2033.00, 
2034.00, 
2035.00, 
2036.00, 
2037.00, 
2038.00, 
2039.00, 
2040.00, 
2041.00, 
2042.00, 
2043.00, 
2044.00, 
2045.00, 
2046.00, 
2047.00, 
2048.00, 
2049.00, 
2050.00, 
2051.00, 
2052.00, 
2053.00, 
2054.00, 
2055.00, 
2056.00, 
2057.00, 
2058.00, 
2059.00, 
2060.00, 
2061.00, 
2062.00, 
2063.00, 
2064.00, 
2065.00, 
2066.00, 
2067.00, 
2068.00, 
2069.00, 
2070.00, 
2071.00, 
2072.00, 
2073.00, 
2074.00, 
2075.00, 
2076.00, 
2077.00, 
2078.00, 
2079.00, 
2080.00, 
2081.00, 
2082.00, 
2083.00, 
2084.00, 
2085.00, 
2086.00, 
2087.00, 
2088.00, 
2089.00, 
2090.00, 
2091.00, 
2092.00, 
2093.00, 
2094.00, 
2095.00, 
2096.00, 
2097.00, 
2098.00, 
2099.00, 
2100.00, 
2101.00, 
2102.00, 
2103.00, 
2104.00, 
2105.00, 
2106.00, 
2107.00, 
2108.00, 
2109.00, 
2110.00, 
2111.00, 
2112.00, 
2113.00, 
2114.00, 
2115.00, 
2116.00, 
2117.00, 
2118.00, 
2119.00, 
2120.00, 
2121.00, 
2122.00, 
2123.00, 
2124.00, 
2125.00, 
2126.00, 
2127.00, 
2128.00, 
2129.00, 
2130.00, 
2131.00, 
2132.00, 
2133.00, 
2134.00, 
2135.00, 
2136.00, 
2137.00, 
2138.00, 
2139.00, 
2140.00, 
2141.00, 
2142.00, 
2143.00, 
2144.00, 
2145.00, 
2146.00, 
2147.00, 
2148.00, 
2149.00, 
2150.00, 
2151.00, 
2152.00, 
2153.00, 
2154.00, 
2155.00, 
2156.00, 
2157.00, 
2158.00, 
2159.00, 
2160.00, 
2161.00, 
2162.00, 
2163.00, 
2164.00, 
2165.00, 
2166.00, 
2167.00, 
2168.00, 
2169.00, 
2170.00, 
2171.00, 
2172.00, 
2173.00, 
2174.00, 
2175.00, 
2176.00, 
2177.00, 
2178.00, 
2179.00, 
2180.00, 
2181.00, 
2182.00, 
2183.00, 
2184.00, 
2185.00, 
2186.00, 
2187.00, 
2188.00, 
2189.00, 
2190.00, 
2191.00, 
2192.00, 
2193.00, 
2194.00, 
2195.00, 
2196.00, 
2197.00, 
2198.00, 
2199.00, 
2200.00, 
2201.00, 
2202.00, 
2203.00, 
2204.00, 
2205.00, 
2206.00, 
2207.00, 
2208.00, 
2209.00, 
2210.00, 
2211.00, 
2212.00, 
2213.00, 
2214.00, 
2215.00, 
2216.00, 
2217.00, 
2218.00, 
2219.00, 
2220.00, 
2221.00, 
2222.00, 
2223.00, 
2224.00, 
2225.00, 
2226.00, 
2227.00, 
2228.00, 
2229.00, 
2230.00, 
2231.00, 
2232.00, 
2233.00, 
2234.00, 
2235.00, 
2236.00, 
2237.00, 
2238.00, 
2239.00, 
2240.00, 
2241.00, 
2242.00, 
2243.00, 
2244.00, 
2245.00, 
2246.00, 
2247.00, 
2248.00, 
2249.00, 
2250.00, 
2251.00, 
2252.00, 
2253.00, 
2254.00, 
2255.00, 
2256.00, 
2257.00, 
2258.00, 
2259.00, 
2260.00, 
2261.00, 
2262.00, 
2263.00, 
2264.00, 
2265.00, 
2266.00, 
2267.00, 
2268.00, 
2269.00, 
2270.00, 
2271.00, 
2272.00, 
2273.00, 
2274.00, 
2275.00, 
2276.00, 
2277.00, 
2278.00, 
2279.00, 
2280.00, 
2281.00, 
2282.00, 
2283.00, 
2284.00, 
2285.00, 
2286.00, 
2287.00, 
2288.00, 
2289.00, 
2290.00, 
2291.00, 
2292.00, 
2293.00, 
2294.00, 
2295.00, 
2296.00, 
2297.00, 
2298.00, 
2299.00, 
2300.00, 
2301.00, 
2302.00, 
2303.00, 
2304.00, 
2305.00, 
2306.00, 
2307.00, 
2308.00, 
2309.00, 
2310.00, 
2311.00, 
2312.00, 
2313.00, 
2314.00, 
2315.00, 
2316.00, 
2317.00, 
2318.00, 
2319.00, 
2320.00, 
2321.00, 
2322.00, 
2323.00, 
2324.00, 
2325.00, 
2326.00, 
2327.00, 
2328.00, 
2329.00, 
2330.00, 
2331.00, 
2332.00, 
2333.00, 
2334.00, 
2335.00, 
2336.00, 
2337.00, 
2338.00, 
2339.00, 
2340.00, 
2341.00, 
2342.00, 
2343.00, 
2344.00, 
2345.00, 
2346.00, 
2347.00, 
2348.00, 
2349.00, 
2350.00, 
2351.00, 
2352.00, 
2353.00, 
2354.00, 
2355.00, 
2356.00, 
2357.00, 
2358.00, 
2359.00, 
2360.00, 
2361.00, 
2362.00, 
2363.00, 
2364.00, 
2365.00, 
2366.00, 
2367.00, 
2368.00, 
2369.00, 
2370.00, 
2371.00, 
2372.00, 
2373.00, 
2374.00, 
2375.00, 
2376.00, 
2377.00, 
2378.00, 
2379.00, 
2380.00, 
2381.00, 
2382.00, 
2383.00, 
2384.00, 
2385.00, 
2386.00, 
2387.00, 
2388.00, 
2389.00, 
2390.00, 
2391.00, 
2392.00, 
2393.00, 
2394.00, 
2395.00, 
2396.00, 
2397.00, 
2398.00, 
2399.00, 
2400.00, 
2401.00, 
2402.00, 
2403.00, 
2404.00, 
2405.00, 
2406.00, 
2407.00, 
2408.00, 
2409.00, 
2410.00, 
2411.00, 
2412.00, 
2413.00, 
2414.00, 
2415.00, 
2416.00, 
2417.00, 
2418.00, 
2419.00, 
2420.00, 
2421.00, 
2422.00, 
2423.00, 
2424.00, 
2425.00, 
2426.00, 
2427.00, 
2428.00, 
2429.00, 
2430.00, 
2431.00, 
2432.00, 
2433.00, 
2434.00, 
2435.00, 
2436.00, 
2437.00, 
2438.00, 
2439.00, 
2440.00, 
2441.00, 
2442.00, 
2443.00, 
2444.00, 
2445.00, 
2446.00, 
2447.00, 
2448.00, 
2449.00, 
2450.00, 
2451.00, 
2452.00, 
2453.00, 
2454.00, 
2455.00, 
2456.00, 
2457.00, 
2458.00, 
2459.00, 
2460.00, 
2461.00, 
2462.00, 
2463.00, 
2464.00, 
2465.00, 
2466.00, 
2467.00, 
2468.00, 
2469.00, 
2470.00, 
2471.00, 
2472.00, 
2473.00, 
2474.00, 
2475.00, 
2476.00, 
2477.00, 
2478.00, 
2479.00, 
2480.00, 
2481.00, 
2482.00, 
2483.00, 
2484.00, 
2485.00, 
2486.00, 
2487.00, 
2488.00, 
2489.00, 
2490.00, 
2491.00, 
2492.00, 
2493.00, 
2494.00, 
2495.00, 
2496.00, 
2497.00, 
2498.00, 
2499.00, 
2500.00, 
2501.00, 
2502.00, 
2503.00, 
2504.00, 
2505.00, 
2506.00, 
2507.00, 
2508.00, 
2509.00, 
2510.00, 
2511.00, 
2512.00, 
2513.00, 
2514.00, 
2515.00, 
2516.00, 
2517.00, 
2518.00, 
2519.00, 
2520.00, 
2521.00, 
2522.00, 
2523.00, 
2524.00, 
2525.00, 
2526.00, 
2527.00, 
2528.00, 
2529.00, 
2530.00, 
2531.00, 
2532.00, 
2533.00, 
2534.00, 
2535.00, 
2536.00, 
2537.00, 
2538.00, 
2539.00, 
2540.00, 
2541.00, 
2542.00, 
2543.00, 
2544.00, 
2545.00, 
2546.00, 
2547.00, 
2548.00, 
2549.00, 
2550.00, 
2551.00, 
2552.00, 
2553.00, 
2554.00, 
2555.00, 
2556.00, 
2557.00, 
2558.00, 
2559.00, 
2560.00, 
2561.00, 
2562.00, 
2563.00, 
2564.00, 
2565.00, 
2566.00, 
2567.00, 
2568.00, 
2569.00, 
2570.00, 
2571.00, 
2572.00, 
2573.00, 
2574.00, 
2575.00, 
2576.00, 
2577.00, 
2578.00, 
2579.00, 
2580.00, 
2581.00, 
2582.00, 
2583.00, 
2584.00, 
2585.00, 
2586.00, 
2587.00, 
2588.00, 
2589.00, 
2590.00, 
2591.00, 
2592.00, 
2593.00, 
2594.00, 
2595.00, 
2596.00, 
2597.00, 
2598.00, 
2599.00, 
2600.00, 
