"2aP2 - RawData"
"Wavelength nm.","T%"
200.00,-0.000
201.00,0.003
202.00,0.001
203.00,0.004
204.00,0.001
205.00,-0.000
206.00,-0.001
207.00,0.001
208.00,0.001
209.00,0.001
210.00,0.002
211.00,0.003
212.00,0.003
213.00,0.003
214.00,-0.000
215.00,-0.000
216.00,0.003
217.00,0.000
218.00,-0.000
219.00,0.000
220.00,0.002
221.00,-0.001
222.00,0.001
223.00,0.004
224.00,0.003
225.00,-0.001
226.00,0.001
227.00,0.003
228.00,0.000
229.00,-0.002
230.00,0.000
231.00,-0.001
232.00,0.001
233.00,0.001
234.00,0.000
235.00,0.002
236.00,0.001
237.00,0.003
238.00,0.002
239.00,0.001
240.00,0.002
241.00,0.003
242.00,-0.001
243.00,0.002
244.00,0.003
245.00,0.002
246.00,0.002
247.00,0.001
248.00,0.001
249.00,0.001
250.00,0.002
251.00,0.000
252.00,0.003
253.00,0.002
254.00,-0.000
255.00,-0.000
256.00,-0.001
257.00,0.002
258.00,0.002
259.00,0.000
260.00,-0.002
261.00,0.001
262.00,0.002
263.00,0.000
264.00,0.002
265.00,0.001
266.00,0.002
267.00,0.001
268.00,-0.001
269.00,-0.001
270.00,0.000
271.00,-0.001
272.00,0.001
273.00,0.001
274.00,-0.001
275.00,0.000
276.00,0.001
277.00,0.000
278.00,0.002
279.00,0.001
280.00,0.002
281.00,-0.001
282.00,-0.001
283.00,-0.000
284.00,-0.000
285.00,0.001
286.00,-0.000
287.00,-0.001
288.00,0.002
289.00,0.000
290.00,-0.001
291.00,0.001
292.00,-0.001
293.00,0.000
294.00,0.000
295.00,0.000
296.00,0.001
297.00,0.001
298.00,0.002
299.00,0.001
300.00,0.001
301.00,0.003
302.00,0.003
303.00,0.006
304.00,0.008
305.00,0.014
306.00,0.018
307.00,0.027
308.00,0.046
309.00,0.067
310.00,0.091
311.00,0.124
312.00,0.173
313.00,0.227
314.00,0.299
315.00,0.382
316.00,0.487
317.00,0.604
318.00,0.758
319.00,0.922
320.00,1.115
321.00,1.337
322.00,1.565
323.00,1.851
324.00,2.129
325.00,2.418
326.00,2.725
327.00,3.090
328.00,3.447
329.00,3.779
330.00,4.149
331.00,4.540
332.00,4.923
333.00,5.345
334.00,5.708
335.00,6.114
336.00,6.507
337.00,6.910
338.00,7.284
339.00,7.631
340.00,8.003
341.00,8.353
342.00,8.675
343.00,9.005
344.00,9.313
345.00,9.597
346.00,9.862
347.00,10.075
348.00,10.351
349.00,10.553
350.00,10.758
351.00,10.959
352.00,11.073
353.00,11.275
354.00,11.420
355.00,11.564
356.00,11.721
357.00,11.793
358.00,11.908
359.00,12.078
360.00,12.150
361.00,12.203
362.00,12.291
363.00,12.343
364.00,12.395
365.00,12.404
366.00,12.442
367.00,12.489
368.00,12.472
369.00,12.477
370.00,12.486
371.00,12.501
372.00,12.456
373.00,12.499
374.00,12.447
375.00,12.375
376.00,12.350
377.00,12.303
378.00,12.256
379.00,12.170
380.00,12.143
381.00,12.142
382.00,12.079
383.00,12.109
384.00,12.090
385.00,12.069
386.00,12.045
387.00,12.075
388.00,12.070
389.00,12.070
390.00,12.037
391.00,12.043
392.00,12.050
393.00,12.000
394.00,11.990
395.00,11.998
396.00,11.969
397.00,11.983
398.00,11.944
399.00,11.947
400.00,11.945
401.00,11.915
402.00,11.923
403.00,11.911
404.00,11.892
405.00,11.867
406.00,11.860
407.00,11.841
408.00,11.871
409.00,11.801
410.00,11.775
411.00,11.780
412.00,11.751
413.00,11.777
414.00,11.751
415.00,11.751
416.00,11.796
417.00,11.766
418.00,11.805
419.00,11.844
420.00,11.880
421.00,11.837
422.00,11.866
423.00,11.899
424.00,11.932
425.00,11.955
426.00,11.970
427.00,12.021
428.00,12.053
429.00,12.079
430.00,12.135
431.00,12.171
432.00,12.213
433.00,12.279
434.00,12.313
435.00,12.355
436.00,12.422
437.00,12.461
438.00,12.559
439.00,12.607
440.00,12.672
441.00,12.758
442.00,12.809
443.00,12.902
444.00,12.978
445.00,13.072
446.00,13.137
447.00,13.218
448.00,13.319
449.00,13.402
450.00,13.494
451.00,13.580
452.00,13.653
453.00,13.780
454.00,13.875
455.00,13.967
456.00,14.097
457.00,14.186
458.00,14.286
459.00,14.414
460.00,14.546
461.00,14.663
462.00,14.774
463.00,14.878
464.00,15.005
465.00,15.178
466.00,15.242
467.00,15.393
468.00,15.490
469.00,15.621
470.00,15.755
471.00,15.846
472.00,15.982
473.00,16.063
474.00,16.193
475.00,16.325
476.00,16.455
477.00,16.571
478.00,16.703
479.00,16.866
480.00,17.002
481.00,17.148
482.00,17.290
483.00,17.438
484.00,17.613
485.00,17.767
486.00,17.900
487.00,18.062
488.00,18.205
489.00,18.373
490.00,18.547
491.00,18.679
492.00,18.843
493.00,19.035
494.00,19.161
495.00,19.218
496.00,19.362
497.00,19.505
498.00,19.643
499.00,19.803
500.00,19.937
501.00,20.090
502.00,20.225
503.00,20.368
504.00,20.467
505.00,20.628
506.00,20.764
507.00,20.867
508.00,21.026
509.00,21.172
510.00,21.315
511.00,21.428
512.00,21.610
513.00,21.735
514.00,21.854
515.00,22.010
516.00,22.133
517.00,22.238
518.00,22.373
519.00,22.485
520.00,22.532
521.00,22.682
522.00,22.805
523.00,22.861
524.00,23.008
525.00,23.137
526.00,23.233
527.00,23.335
528.00,23.440
529.00,23.611
530.00,23.745
531.00,23.869
532.00,23.941
533.00,24.119
534.00,24.223
535.00,24.284
536.00,24.372
537.00,24.459
538.00,24.513
539.00,24.614
540.00,24.743
541.00,24.769
542.00,24.831
543.00,24.943
544.00,25.018
545.00,25.090
546.00,25.168
547.00,25.305
548.00,25.429
549.00,25.502
550.00,25.510
551.00,25.636
552.00,25.729
553.00,25.754
554.00,25.907
555.00,25.978
556.00,25.995
557.00,26.101
558.00,26.171
559.00,26.235
560.00,26.312
561.00,26.405
562.00,26.472
563.00,26.505
564.00,26.591
565.00,26.642
566.00,26.673
567.00,26.709
568.00,26.780
569.00,26.840
570.00,26.895
571.00,26.951
572.00,27.005
573.00,26.996
574.00,27.074
575.00,27.106
576.00,27.137
577.00,27.217
578.00,27.287
579.00,27.394
580.00,27.417
581.00,27.531
582.00,27.635
583.00,27.636
584.00,27.748
585.00,27.809
586.00,27.887
587.00,27.940
588.00,27.982
589.00,27.998
590.00,28.089
591.00,28.148
592.00,28.113
593.00,28.156
594.00,28.285
595.00,28.398
596.00,28.412
597.00,28.423
598.00,28.649
599.00,28.608
600.00,28.629
601.00,28.743
602.00,28.761
603.00,28.853
604.00,28.914
605.00,28.930
606.00,29.055
607.00,29.114
608.00,29.152
609.00,29.149
610.00,29.279
611.00,29.486
612.00,29.346
613.00,29.387
614.00,29.501
615.00,29.575
616.00,29.669
617.00,29.677
618.00,29.706
619.00,29.812
620.00,29.902
621.00,29.940
622.00,29.989
623.00,30.067
624.00,30.264
625.00,30.362
626.00,30.412
627.00,30.515
628.00,30.545
629.00,30.659
630.00,30.733
631.00,30.825
632.00,30.910
633.00,31.071
634.00,31.152
635.00,31.268
636.00,31.398
637.00,31.445
638.00,31.564
639.00,31.682
640.00,31.766
641.00,31.843
642.00,31.965
643.00,32.028
644.00,32.152
645.00,32.275
646.00,32.410
647.00,32.547
648.00,32.623
649.00,32.702
650.00,32.807
651.00,32.979
652.00,33.168
653.00,33.160
654.00,33.298
655.00,33.559
656.00,33.773
657.00,33.747
658.00,33.925
659.00,34.030
660.00,34.243
661.00,34.328
662.00,34.324
663.00,34.496
664.00,34.810
665.00,34.944
666.00,34.895
667.00,35.070
668.00,35.135
669.00,35.385
670.00,35.728
671.00,35.652
672.00,35.830
673.00,35.902
674.00,36.074
675.00,36.220
676.00,36.510
677.00,36.643
678.00,36.612
679.00,36.835
680.00,36.998
681.00,37.186
682.00,37.319
683.00,37.391
684.00,37.634
685.00,37.778
686.00,37.735
687.00,37.968
688.00,38.046
689.00,38.114
690.00,38.351
691.00,38.700
692.00,38.901
693.00,38.774
694.00,38.886
695.00,39.005
696.00,39.292
697.00,39.395
698.00,39.509
699.00,39.771
700.00,39.924
701.00,40.008
702.00,40.207
703.00,40.419
704.00,40.526
705.00,40.571
706.00,40.724
707.00,40.845
708.00,40.784
709.00,41.167
710.00,41.674
711.00,41.277
712.00,41.367
713.00,41.592
714.00,41.838
715.00,41.896
716.00,41.957
717.00,42.246
718.00,42.453
719.00,42.417
720.00,42.537
721.00,46.768
722.00,46.869
723.00,46.916
724.00,47.055
725.00,47.111
726.00,47.169
727.00,47.235
728.00,47.367
729.00,47.449
730.00,47.524
731.00,47.646
732.00,47.749
733.00,47.834
734.00,48.010
735.00,48.032
736.00,48.148
737.00,48.280
738.00,48.269
739.00,48.402
740.00,48.461
741.00,48.560
742.00,48.691
743.00,48.666
744.00,48.701
745.00,48.868
746.00,48.883
747.00,48.954
748.00,49.023
749.00,49.040
750.00,49.128
751.00,49.127
752.00,49.213
753.00,49.259
754.00,49.324
755.00,49.445
756.00,49.483
757.00,49.493
758.00,49.534
759.00,49.651
760.00,49.746
761.00,49.767
762.00,49.791
763.00,49.855
764.00,49.856
765.00,50.042
766.00,50.040
767.00,50.123
768.00,50.217
769.00,50.153
770.00,50.330
771.00,50.299
772.00,50.389
773.00,50.432
774.00,50.508
775.00,50.547
776.00,50.545
777.00,50.659
778.00,50.647
779.00,50.671
780.00,50.695
781.00,50.705
782.00,50.728
783.00,50.730
784.00,50.848
785.00,50.792
786.00,50.853
787.00,50.858
788.00,50.896
789.00,50.866
790.00,50.822
791.00,51.020
792.00,50.935
793.00,51.075
794.00,51.084
795.00,51.074
796.00,51.069
797.00,51.003
798.00,51.039
799.00,51.033
800.00,51.044
801.00,51.186
802.00,51.113
803.00,51.159
804.00,51.111
805.00,51.157
806.00,51.187
807.00,51.138
808.00,51.248
809.00,51.206
810.00,51.181
811.00,51.296
812.00,51.323
813.00,51.255
814.00,51.249
815.00,51.223
816.00,51.192
817.00,51.207
818.00,51.183
819.00,51.186
820.00,51.226
821.00,51.258
822.00,51.310
823.00,51.166
824.00,51.233
825.00,51.234
826.00,51.296
827.00,51.289
828.00,51.246
829.00,51.290
830.00,51.299
831.00,53.447
832.00,53.468
833.00,53.447
834.00,53.455
835.00,53.429
836.00,53.461
837.00,53.462
838.00,53.448
839.00,53.440
840.00,53.432
841.00,53.452
842.00,53.399
843.00,53.442
844.00,53.537
845.00,53.395
846.00,53.426
847.00,53.378
848.00,53.396
849.00,53.317
850.00,53.333
851.00,53.283
852.00,53.306
853.00,53.252
854.00,53.276
855.00,53.225
856.00,53.229
857.00,53.227
858.00,53.219
859.00,53.193
860.00,53.202
861.00,53.182
862.00,53.129
863.00,53.161
864.00,53.170
865.00,53.190
866.00,53.159
867.00,53.186
868.00,53.158
869.00,53.134
870.00,53.172
871.00,53.170
872.00,53.168
873.00,53.143
874.00,53.160
875.00,53.114
876.00,53.156
877.00,53.135
878.00,53.102
879.00,53.114
880.00,53.096
881.00,53.069
882.00,53.111
883.00,53.084
884.00,53.088
885.00,53.002
886.00,53.057
887.00,52.998
888.00,52.985
889.00,52.970
890.00,52.944
891.00,52.943
892.00,52.900
893.00,52.892
894.00,52.881
895.00,52.895
896.00,52.884
897.00,52.875
898.00,52.864
899.00,52.851
900.00,52.854
901.00,52.847
902.00,52.857
903.00,52.816
904.00,52.819
905.00,52.832
906.00,52.821
907.00,52.803
908.00,52.732
909.00,52.719
910.00,52.744
911.00,52.717
912.00,52.700
913.00,52.693
914.00,52.669
915.00,52.652
916.00,52.623
917.00,52.583
918.00,52.585
919.00,52.565
920.00,52.531
921.00,52.511
922.00,52.530
923.00,52.530
924.00,52.509
925.00,52.455
926.00,52.624
927.00,52.481
928.00,52.449
929.00,52.423
930.00,52.417
931.00,52.389
932.00,52.355
933.00,52.372
934.00,52.352
935.00,52.347
936.00,52.318
937.00,52.284
938.00,52.279
939.00,52.278
940.00,52.233
941.00,52.260
942.00,52.106
943.00,52.224
944.00,52.195
945.00,52.200
946.00,52.177
947.00,52.139
948.00,52.112
949.00,52.094
950.00,52.094
951.00,52.078
952.00,52.056
953.00,52.032
954.00,52.007
955.00,51.959
956.00,51.972
957.00,51.938
958.00,51.938
959.00,51.887
960.00,51.901
961.00,51.860
962.00,51.876
963.00,51.821
964.00,51.807
965.00,51.821
966.00,51.818
967.00,51.783
968.00,51.810
969.00,51.844
970.00,51.774
971.00,51.796
972.00,51.793
973.00,51.845
974.00,51.769
975.00,51.784
976.00,51.790
977.00,51.787
978.00,51.815
979.00,51.780
980.00,51.799
981.00,51.793
982.00,51.775
983.00,51.776
984.00,51.762
985.00,51.782
986.00,51.717
987.00,51.792
988.00,51.699
989.00,51.731
990.00,51.727
991.00,51.720
992.00,51.719
993.00,51.707
994.00,51.681
995.00,51.654
996.00,51.689
997.00,51.640
998.00,51.631
999.00,51.636
1000.00,51.600
1001.00,51.589
1002.00,51.594
1003.00,51.615
1004.00,51.567
1005.00,51.547
1006.00,51.576
1007.00,51.561
1008.00,51.531
1009.00,51.514
1010.00,51.517
1011.00,51.486
1012.00,51.469
1013.00,51.466
1014.00,51.425
1015.00,51.442
1016.00,51.397
1017.00,51.390
1018.00,51.392
1019.00,51.394
1020.00,51.364
1021.00,51.341
1022.00,51.317
1023.00,51.295
1024.00,51.292
1025.00,51.264
1026.00,51.266
1027.00,51.222
1028.00,51.216
1029.00,51.203
1030.00,51.181
1031.00,51.185
1032.00,51.153
1033.00,51.178
1034.00,51.140
1035.00,51.105
1036.00,51.077
1037.00,51.064
1038.00,51.046
1039.00,51.002
1040.00,51.018
1041.00,50.963
1042.00,50.955
1043.00,50.959
1044.00,50.965
1045.00,50.973
1046.00,50.959
1047.00,50.982
1048.00,50.993
1049.00,50.982
1050.00,50.969
1051.00,51.021
1052.00,51.007
1053.00,51.005
1054.00,51.017
1055.00,51.033
1056.00,51.046
1057.00,51.039
1058.00,51.026
1059.00,51.033
1060.00,51.036
1061.00,51.022
1062.00,51.019
1063.00,51.013
1064.00,51.010
1065.00,51.007
1066.00,50.981
1067.00,50.974
1068.00,51.000
1069.00,50.943
1070.00,50.938
1071.00,50.917
1072.00,50.933
1073.00,50.926
1074.00,50.907
1075.00,50.904
1076.00,50.909
1077.00,50.881
1078.00,50.872
1079.00,50.879
1080.00,50.863
1081.00,50.850
1082.00,50.853
1083.00,50.838
1084.00,50.852
1085.00,50.843
1086.00,50.824
1087.00,50.830
1088.00,50.812
1089.00,50.822
1090.00,50.808
1091.00,50.796
1092.00,50.795
1093.00,50.758
1094.00,50.742
1095.00,50.732
1096.00,50.722
1097.00,50.734
1098.00,50.728
1099.00,50.703
1100.00,50.697
1101.00,50.686
1102.00,50.671
1103.00,50.684
1104.00,50.661
1105.00,50.644
1106.00,50.646
1107.00,50.627
1108.00,50.626
1109.00,50.651
1110.00,50.598
1111.00,50.595
1112.00,50.583
1113.00,50.563
1114.00,50.566
1115.00,50.569
1116.00,50.549
1117.00,50.554
1118.00,50.540
1119.00,50.540
1120.00,50.545
1121.00,50.533
1122.00,50.536
1123.00,50.522
1124.00,50.491
1125.00,50.503
1126.00,50.484
1127.00,50.480
1128.00,50.464
1129.00,50.445
1130.00,50.433
1131.00,50.438
1132.00,50.423
1133.00,50.431
1134.00,50.420
1135.00,50.403
1136.00,50.418
1137.00,50.407
1138.00,50.404
1139.00,50.427
1140.00,50.386
1141.00,50.390
1142.00,50.385
1143.00,50.386
1144.00,50.373
1145.00,50.386
1146.00,50.368
1147.00,50.371
1148.00,50.361
1149.00,50.367
1150.00,50.379
1151.00,50.365
1152.00,50.344
1153.00,50.361
1154.00,50.338
1155.00,50.355
1156.00,50.337
1157.00,50.337
1158.00,50.345
1159.00,50.338
1160.00,50.330
1161.00,50.333
1162.00,50.317
1163.00,50.313
1164.00,50.329
1165.00,50.311
1166.00,50.312
1167.00,50.298
1168.00,50.300
1169.00,50.297
1170.00,50.282
1171.00,50.260
1172.00,50.282
1173.00,50.265
1174.00,50.278
1175.00,50.280
1176.00,50.286
1177.00,50.274
1178.00,50.278
1179.00,50.288
1180.00,50.273
1181.00,50.286
1182.00,50.266
1183.00,50.263
1184.00,50.248
1185.00,50.261
1186.00,50.256
1187.00,50.254
1188.00,50.260
1189.00,50.257
1190.00,50.229
1191.00,50.229
1192.00,50.260
1193.00,50.243
1194.00,50.254
1195.00,50.232
1196.00,50.269
1197.00,50.270
1198.00,50.239
1199.00,50.244
1200.00,50.276
1201.00,50.268
1202.00,50.231
1203.00,50.226
1204.00,50.214
1205.00,50.230
1206.00,50.203
1207.00,50.214
1208.00,50.214
1209.00,50.214
1210.00,50.210
1211.00,50.206
1212.00,50.203
1213.00,50.202
1214.00,50.211
1215.00,50.184
1216.00,50.226
1217.00,50.192
1218.00,50.180
1219.00,50.216
1220.00,50.186
1221.00,50.212
1222.00,50.197
1223.00,50.214
1224.00,50.209
1225.00,50.196
1226.00,50.194
1227.00,50.208
1228.00,50.237
1229.00,50.237
1230.00,50.252
1231.00,50.229
1232.00,50.258
1233.00,50.255
1234.00,50.246
1235.00,50.258
1236.00,50.244
1237.00,50.255
1238.00,50.262
1239.00,50.259
1240.00,50.249
1241.00,50.269
1242.00,50.258
1243.00,50.264
1244.00,50.251
1245.00,50.266
1246.00,50.288
1247.00,50.269
1248.00,50.258
1249.00,50.299
1250.00,50.284
1251.00,50.271
1252.00,50.308
1253.00,50.259
1254.00,50.301
1255.00,50.300
1256.00,50.240
1257.00,50.227
1258.00,50.293
1259.00,50.286
1260.00,50.297
1261.00,50.295
1262.00,50.318
1263.00,50.297
1264.00,50.295
1265.00,50.320
1266.00,50.322
1267.00,50.315
1268.00,50.339
1269.00,50.322
1270.00,50.333
1271.00,50.339
1272.00,50.323
1273.00,50.331
1274.00,50.351
1275.00,50.337
1276.00,50.346
1277.00,50.348
1278.00,50.343
1279.00,50.363
1280.00,50.349
1281.00,50.368
1282.00,50.394
1283.00,50.376
1284.00,50.385
1285.00,50.386
1286.00,50.378
1287.00,50.379
1288.00,50.393
1289.00,50.376
1290.00,50.413
1291.00,50.411
1292.00,50.403
1293.00,50.435
1294.00,50.430
1295.00,50.426
1296.00,50.432
1297.00,50.437
1298.00,50.482
1299.00,50.450
1300.00,50.461
1301.00,50.457
1302.00,50.460
1303.00,50.488
1304.00,50.470
1305.00,50.482
1306.00,50.491
1307.00,50.505
1308.00,50.496
1309.00,50.504
1310.00,50.498
1311.00,50.464
1312.00,50.500
1313.00,50.503
1314.00,50.504
1315.00,50.533
1316.00,50.512
1317.00,50.548
1318.00,50.534
1319.00,50.533
1320.00,50.556
1321.00,50.719
1322.00,50.685
1323.00,50.681
1324.00,50.671
1325.00,50.637
1326.00,50.671
1327.00,50.644
1328.00,50.643
1329.00,50.656
1330.00,50.649
1331.00,50.661
1332.00,50.672
1333.00,50.671
1334.00,50.697
1335.00,50.741
1336.00,50.793
1337.00,50.792
1338.00,50.842
1339.00,50.862
1340.00,50.937
1341.00,50.985
1342.00,51.043
1343.00,51.099
1344.00,51.134
1345.00,51.186
1346.00,51.243
1347.00,51.279
1348.00,51.311
1349.00,51.303
1350.00,51.315
1351.00,51.322
1352.00,51.306
1353.00,51.294
1354.00,51.346
1355.00,51.343
1356.00,51.368
1357.00,51.338
1358.00,51.357
1359.00,51.356
1360.00,51.341
1361.00,51.392
1362.00,51.368
1363.00,51.376
1364.00,51.415
1365.00,51.354
1366.00,51.437
1367.00,51.378
1368.00,51.348
1369.00,51.353
1370.00,51.363
1371.00,51.337
1372.00,51.316
1373.00,51.334
1374.00,51.348
1375.00,51.326
1376.00,51.334
1377.00,51.295
1378.00,51.371
1379.00,51.330
1380.00,51.303
1381.00,51.345
1382.00,51.303
1383.00,51.320
1384.00,51.303
1385.00,51.299
1386.00,51.341
1387.00,51.320
1388.00,51.289
1389.00,51.346
1390.00,51.361
1391.00,51.287
1392.00,51.302
1393.00,51.286
1394.00,51.330
1395.00,51.268
1396.00,51.342
1397.00,51.330
1398.00,51.347
1399.00,51.334
1400.00,51.302
1401.00,51.318
1402.00,51.403
1403.00,51.340
1404.00,51.354
1405.00,51.385
1406.00,51.428
1407.00,51.293
1408.00,51.389
1409.00,51.390
1410.00,51.420
1411.00,51.411
1412.00,51.464
1413.00,51.404
1414.00,51.433
1415.00,51.458
1416.00,51.452
1417.00,51.482
1418.00,51.464
1419.00,51.473
1420.00,51.488
1421.00,51.520
1422.00,51.519
1423.00,51.534
1424.00,51.523
1425.00,51.554
1426.00,51.566
1427.00,51.582
1428.00,51.573
1429.00,51.582
1430.00,51.594
1431.00,51.638
1432.00,51.635
1433.00,51.656
1434.00,51.646
1435.00,51.687
1436.00,51.701
1437.00,51.693
1438.00,51.703
1439.00,51.752
1440.00,51.745
1441.00,51.747
1442.00,51.784
1443.00,51.791
1444.00,51.840
1445.00,51.817
1446.00,51.828
1447.00,51.863
1448.00,51.887
1449.00,51.872
1450.00,51.897
1451.00,51.881
1452.00,51.907
1453.00,51.907
1454.00,51.919
1455.00,51.961
1456.00,51.998
1457.00,51.978
1458.00,52.018
1459.00,52.034
1460.00,52.046
1461.00,52.052
1462.00,52.088
1463.00,52.086
1464.00,52.090
1465.00,52.102
1466.00,52.110
1467.00,52.133
1468.00,52.161
1469.00,52.164
1470.00,52.202
1471.00,52.194
1472.00,52.225
1473.00,52.232
1474.00,52.240
1475.00,52.267
1476.00,52.272
1477.00,52.255
1478.00,52.267
1479.00,52.274
1480.00,52.292
1481.00,52.279
1482.00,52.315
1483.00,52.348
1484.00,52.337
1485.00,52.345
1486.00,52.378
1487.00,52.402
1488.00,52.434
1489.00,52.437
1490.00,52.455
1491.00,52.438
1492.00,52.457
1493.00,52.452
1494.00,52.499
1495.00,52.460
1496.00,52.491
1497.00,52.507
1498.00,52.499
1499.00,52.510
1500.00,52.557
1501.00, 
1502.00, 
1503.00, 
1504.00, 
1505.00, 
1506.00, 
1507.00, 
1508.00, 
1509.00, 
1510.00, 
1511.00, 
1512.00, 
1513.00, 
1514.00, 
1515.00, 
1516.00, 
1517.00, 
1518.00, 
1519.00, 
1520.00, 
1521.00, 
1522.00, 
1523.00, 
1524.00, 
1525.00, 
1526.00, 
1527.00, 
1528.00, 
1529.00, 
1530.00, 
1531.00, 
1532.00, 
1533.00, 
1534.00, 
1535.00, 
1536.00, 
1537.00, 
1538.00, 
1539.00, 
1540.00, 
1541.00, 
1542.00, 
1543.00, 
1544.00, 
1545.00, 
1546.00, 
1547.00, 
1548.00, 
1549.00, 
1550.00, 
1551.00, 
1552.00, 
1553.00, 
1554.00, 
1555.00, 
1556.00, 
1557.00, 
1558.00, 
1559.00, 
1560.00, 
1561.00, 
1562.00, 
1563.00, 
1564.00, 
1565.00, 
1566.00, 
1567.00, 
1568.00, 
1569.00, 
1570.00, 
1571.00, 
1572.00, 
1573.00, 
1574.00, 
1575.00, 
1576.00, 
1577.00, 
1578.00, 
1579.00, 
1580.00, 
1581.00, 
1582.00, 
1583.00, 
1584.00, 
1585.00, 
1586.00, 
1587.00, 
1588.00, 
1589.00, 
1590.00, 
1591.00, 
1592.00, 
1593.00, 
1594.00, 
1595.00, 
1596.00, 
1597.00, 
1598.00, 
1599.00, 
1600.00, 
1601.00, 
1602.00, 
1603.00, 
1604.00, 
1605.00, 
1606.00, 
1607.00, 
1608.00, 
1609.00, 
1610.00, 
1611.00, 
1612.00, 
1613.00, 
1614.00, 
1615.00, 
1616.00, 
1617.00, 
1618.00, 
1619.00, 
1620.00, 
1621.00, 
1622.00, 
1623.00, 
1624.00, 
1625.00, 
1626.00, 
1627.00, 
1628.00, 
1629.00, 
1630.00, 
1631.00, 
1632.00, 
1633.00, 
1634.00, 
1635.00, 
1636.00, 
1637.00, 
1638.00, 
1639.00, 
1640.00, 
1641.00, 
1642.00, 
1643.00, 
1644.00, 
1645.00, 
1646.00, 
1647.00, 
1648.00, 
1649.00, 
1650.00, 
1651.00, 
1652.00, 
1653.00, 
1654.00, 
1655.00, 
1656.00, 
1657.00, 
1658.00, 
1659.00, 
1660.00, 
1661.00, 
1662.00, 
1663.00, 
1664.00, 
1665.00, 
1666.00, 
1667.00, 
1668.00, 
1669.00, 
1670.00, 
1671.00, 
1672.00, 
1673.00, 
1674.00, 
1675.00, 
1676.00, 
1677.00, 
1678.00, 
1679.00, 
1680.00, 
1681.00, 
1682.00, 
1683.00, 
1684.00, 
1685.00, 
1686.00, 
1687.00, 
1688.00, 
1689.00, 
1690.00, 
1691.00, 
1692.00, 
1693.00, 
1694.00, 
1695.00, 
1696.00, 
1697.00, 
1698.00, 
1699.00, 
1700.00, 
1701.00, 
1702.00, 
1703.00, 
1704.00, 
1705.00, 
1706.00, 
1707.00, 
1708.00, 
1709.00, 
1710.00, 
1711.00, 
1712.00, 
1713.00, 
1714.00, 
1715.00, 
1716.00, 
1717.00, 
1718.00, 
1719.00, 
1720.00, 
1721.00, 
1722.00, 
1723.00, 
1724.00, 
1725.00, 
1726.00, 
1727.00, 
1728.00, 
1729.00, 
1730.00, 
1731.00, 
1732.00, 
1733.00, 
1734.00, 
1735.00, 
1736.00, 
1737.00, 
1738.00, 
1739.00, 
1740.00, 
1741.00, 
1742.00, 
1743.00, 
1744.00, 
1745.00, 
1746.00, 
1747.00, 
1748.00, 
1749.00, 
1750.00, 
1751.00, 
1752.00, 
1753.00, 
1754.00, 
1755.00, 
1756.00, 
1757.00, 
1758.00, 
1759.00, 
1760.00, 
1761.00, 
1762.00, 
1763.00, 
1764.00, 
1765.00, 
1766.00, 
1767.00, 
1768.00, 
1769.00, 
1770.00, 
1771.00, 
1772.00, 
1773.00, 
1774.00, 
1775.00, 
1776.00, 
1777.00, 
1778.00, 
1779.00, 
1780.00, 
1781.00, 
1782.00, 
1783.00, 
1784.00, 
1785.00, 
1786.00, 
1787.00, 
1788.00, 
1789.00, 
1790.00, 
1791.00, 
1792.00, 
1793.00, 
1794.00, 
1795.00, 
1796.00, 
1797.00, 
1798.00, 
1799.00, 
1800.00, 
1801.00, 
1802.00, 
1803.00, 
1804.00, 
1805.00, 
1806.00, 
1807.00, 
1808.00, 
1809.00, 
1810.00, 
1811.00, 
1812.00, 
1813.00, 
1814.00, 
1815.00, 
1816.00, 
1817.00, 
1818.00, 
1819.00, 
1820.00, 
1821.00, 
1822.00, 
1823.00, 
1824.00, 
1825.00, 
1826.00, 
1827.00, 
1828.00, 
1829.00, 
1830.00, 
1831.00, 
1832.00, 
1833.00, 
1834.00, 
1835.00, 
1836.00, 
1837.00, 
1838.00, 
1839.00, 
1840.00, 
1841.00, 
1842.00, 
1843.00, 
1844.00, 
1845.00, 
1846.00, 
1847.00, 
1848.00, 
1849.00, 
1850.00, 
1851.00, 
1852.00, 
1853.00, 
1854.00, 
1855.00, 
1856.00, 
1857.00, 
1858.00, 
1859.00, 
1860.00, 
1861.00, 
1862.00, 
1863.00, 
1864.00, 
1865.00, 
1866.00, 
1867.00, 
1868.00, 
1869.00, 
1870.00, 
1871.00, 
1872.00, 
1873.00, 
1874.00, 
1875.00, 
1876.00, 
1877.00, 
1878.00, 
1879.00, 
1880.00, 
1881.00, 
1882.00, 
1883.00, 
1884.00, 
1885.00, 
1886.00, 
1887.00, 
1888.00, 
1889.00, 
1890.00, 
1891.00, 
1892.00, 
1893.00, 
1894.00, 
1895.00, 
1896.00, 
1897.00, 
1898.00, 
1899.00, 
1900.00, 
1901.00, 
1902.00, 
1903.00, 
1904.00, 
1905.00, 
1906.00, 
1907.00, 
1908.00, 
1909.00, 
1910.00, 
1911.00, 
1912.00, 
1913.00, 
1914.00, 
1915.00, 
1916.00, 
1917.00, 
1918.00, 
1919.00, 
1920.00, 
1921.00, 
1922.00, 
1923.00, 
1924.00, 
1925.00, 
1926.00, 
1927.00, 
1928.00, 
1929.00, 
1930.00, 
1931.00, 
1932.00, 
1933.00, 
1934.00, 
1935.00, 
1936.00, 
1937.00, 
1938.00, 
1939.00, 
1940.00, 
1941.00, 
1942.00, 
1943.00, 
1944.00, 
1945.00, 
1946.00, 
1947.00, 
1948.00, 
1949.00, 
1950.00, 
1951.00, 
1952.00, 
1953.00, 
1954.00, 
1955.00, 
1956.00, 
1957.00, 
1958.00, 
1959.00, 
1960.00, 
1961.00, 
1962.00, 
1963.00, 
1964.00, 
1965.00, 
1966.00, 
1967.00, 
1968.00, 
1969.00, 
1970.00, 
1971.00, 
1972.00, 
1973.00, 
1974.00, 
1975.00, 
1976.00, 
1977.00, 
1978.00, 
1979.00, 
1980.00, 
1981.00, 
1982.00, 
1983.00, 
1984.00, 
1985.00, 
1986.00, 
1987.00, 
1988.00, 
1989.00, 
1990.00, 
1991.00, 
1992.00, 
1993.00, 
1994.00, 
1995.00, 
1996.00, 
1997.00, 
1998.00, 
1999.00, 
2000.00, 
2001.00, 
2002.00, 
2003.00, 
2004.00, 
2005.00, 
2006.00, 
2007.00, 
2008.00, 
2009.00, 
2010.00, 
2011.00, 
2012.00, 
2013.00, 
2014.00, 
2015.00, 
2016.00, 
2017.00, 
2018.00, 
2019.00, 
2020.00, 
2021.00, 
2022.00, 
2023.00, 
2024.00, 
2025.00, 
2026.00, 
2027.00, 
2028.00, 
2029.00, 
2030.00, 
2031.00, 
2032.00, 
2033.00, 
2034.00, 
2035.00, 
2036.00, 
2037.00, 
2038.00, 
2039.00, 
2040.00, 
2041.00, 
2042.00, 
2043.00, 
2044.00, 
2045.00, 
2046.00, 
2047.00, 
2048.00, 
2049.00, 
2050.00, 
2051.00, 
2052.00, 
2053.00, 
2054.00, 
2055.00, 
2056.00, 
2057.00, 
2058.00, 
2059.00, 
2060.00, 
2061.00, 
2062.00, 
2063.00, 
2064.00, 
2065.00, 
2066.00, 
2067.00, 
2068.00, 
2069.00, 
2070.00, 
2071.00, 
2072.00, 
2073.00, 
2074.00, 
2075.00, 
2076.00, 
2077.00, 
2078.00, 
2079.00, 
2080.00, 
2081.00, 
2082.00, 
2083.00, 
2084.00, 
2085.00, 
2086.00, 
2087.00, 
2088.00, 
2089.00, 
2090.00, 
2091.00, 
2092.00, 
2093.00, 
2094.00, 
2095.00, 
2096.00, 
2097.00, 
2098.00, 
2099.00, 
2100.00, 
2101.00, 
2102.00, 
2103.00, 
2104.00, 
2105.00, 
2106.00, 
2107.00, 
2108.00, 
2109.00, 
2110.00, 
2111.00, 
2112.00, 
2113.00, 
2114.00, 
2115.00, 
2116.00, 
2117.00, 
2118.00, 
2119.00, 
2120.00, 
2121.00, 
2122.00, 
2123.00, 
2124.00, 
2125.00, 
2126.00, 
2127.00, 
2128.00, 
2129.00, 
2130.00, 
2131.00, 
2132.00, 
2133.00, 
2134.00, 
2135.00, 
2136.00, 
2137.00, 
2138.00, 
2139.00, 
2140.00, 
2141.00, 
2142.00, 
2143.00, 
2144.00, 
2145.00, 
2146.00, 
2147.00, 
2148.00, 
2149.00, 
2150.00, 
2151.00, 
2152.00, 
2153.00, 
2154.00, 
2155.00, 
2156.00, 
2157.00, 
2158.00, 
2159.00, 
2160.00, 
2161.00, 
2162.00, 
2163.00, 
2164.00, 
2165.00, 
2166.00, 
2167.00, 
2168.00, 
2169.00, 
2170.00, 
2171.00, 
2172.00, 
2173.00, 
2174.00, 
2175.00, 
2176.00, 
2177.00, 
2178.00, 
2179.00, 
2180.00, 
2181.00, 
2182.00, 
2183.00, 
2184.00, 
2185.00, 
2186.00, 
2187.00, 
2188.00, 
2189.00, 
2190.00, 
2191.00, 
2192.00, 
2193.00, 
2194.00, 
2195.00, 
2196.00, 
2197.00, 
2198.00, 
2199.00, 
2200.00, 
2201.00, 
2202.00, 
2203.00, 
2204.00, 
2205.00, 
2206.00, 
2207.00, 
2208.00, 
2209.00, 
2210.00, 
2211.00, 
2212.00, 
2213.00, 
2214.00, 
2215.00, 
2216.00, 
2217.00, 
2218.00, 
2219.00, 
2220.00, 
2221.00, 
2222.00, 
2223.00, 
2224.00, 
2225.00, 
2226.00, 
2227.00, 
2228.00, 
2229.00, 
2230.00, 
2231.00, 
2232.00, 
2233.00, 
2234.00, 
2235.00, 
2236.00, 
2237.00, 
2238.00, 
2239.00, 
2240.00, 
2241.00, 
2242.00, 
2243.00, 
2244.00, 
2245.00, 
2246.00, 
2247.00, 
2248.00, 
2249.00, 
2250.00, 
2251.00, 
2252.00, 
2253.00, 
2254.00, 
2255.00, 
2256.00, 
2257.00, 
2258.00, 
2259.00, 
2260.00, 
2261.00, 
2262.00, 
2263.00, 
2264.00, 
2265.00, 
2266.00, 
2267.00, 
2268.00, 
2269.00, 
2270.00, 
2271.00, 
2272.00, 
2273.00, 
2274.00, 
2275.00, 
2276.00, 
2277.00, 
2278.00, 
2279.00, 
2280.00, 
2281.00, 
2282.00, 
2283.00, 
2284.00, 
2285.00, 
2286.00, 
2287.00, 
2288.00, 
2289.00, 
2290.00, 
2291.00, 
2292.00, 
2293.00, 
2294.00, 
2295.00, 
2296.00, 
2297.00, 
2298.00, 
2299.00, 
2300.00, 
2301.00, 
2302.00, 
2303.00, 
2304.00, 
2305.00, 
2306.00, 
2307.00, 
2308.00, 
2309.00, 
2310.00, 
2311.00, 
2312.00, 
2313.00, 
2314.00, 
2315.00, 
2316.00, 
2317.00, 
2318.00, 
2319.00, 
2320.00, 
2321.00, 
2322.00, 
2323.00, 
2324.00, 
2325.00, 
2326.00, 
2327.00, 
2328.00, 
2329.00, 
2330.00, 
2331.00, 
2332.00, 
2333.00, 
2334.00, 
2335.00, 
2336.00, 
2337.00, 
2338.00, 
2339.00, 
2340.00, 
2341.00, 
2342.00, 
2343.00, 
2344.00, 
2345.00, 
2346.00, 
2347.00, 
2348.00, 
2349.00, 
2350.00, 
2351.00, 
2352.00, 
2353.00, 
2354.00, 
2355.00, 
2356.00, 
2357.00, 
2358.00, 
2359.00, 
2360.00, 
2361.00, 
2362.00, 
2363.00, 
2364.00, 
2365.00, 
2366.00, 
2367.00, 
2368.00, 
2369.00, 
2370.00, 
2371.00, 
2372.00, 
2373.00, 
2374.00, 
2375.00, 
2376.00, 
2377.00, 
2378.00, 
2379.00, 
2380.00, 
2381.00, 
2382.00, 
2383.00, 
2384.00, 
2385.00, 
2386.00, 
2387.00, 
2388.00, 
2389.00, 
2390.00, 
2391.00, 
2392.00, 
2393.00, 
2394.00, 
2395.00, 
2396.00, 
2397.00, 
2398.00, 
2399.00, 
2400.00, 
2401.00, 
2402.00, 
2403.00, 
2404.00, 
2405.00, 
2406.00, 
2407.00, 
2408.00, 
2409.00, 
2410.00, 
2411.00, 
2412.00, 
2413.00, 
2414.00, 
2415.00, 
2416.00, 
2417.00, 
2418.00, 
2419.00, 
2420.00, 
2421.00, 
2422.00, 
2423.00, 
2424.00, 
2425.00, 
2426.00, 
2427.00, 
2428.00, 
2429.00, 
2430.00, 
2431.00, 
2432.00, 
2433.00, 
2434.00, 
2435.00, 
2436.00, 
2437.00, 
2438.00, 
2439.00, 
2440.00, 
2441.00, 
2442.00, 
2443.00, 
2444.00, 
2445.00, 
2446.00, 
2447.00, 
2448.00, 
2449.00, 
2450.00, 
2451.00, 
2452.00, 
2453.00, 
2454.00, 
2455.00, 
2456.00, 
2457.00, 
2458.00, 
2459.00, 
2460.00, 
2461.00, 
2462.00, 
2463.00, 
2464.00, 
2465.00, 
2466.00, 
2467.00, 
2468.00, 
2469.00, 
2470.00, 
2471.00, 
2472.00, 
2473.00, 
2474.00, 
2475.00, 
2476.00, 
2477.00, 
2478.00, 
2479.00, 
2480.00, 
2481.00, 
2482.00, 
2483.00, 
2484.00, 
2485.00, 
2486.00, 
2487.00, 
2488.00, 
2489.00, 
2490.00, 
2491.00, 
2492.00, 
2493.00, 
2494.00, 
2495.00, 
2496.00, 
2497.00, 
2498.00, 
2499.00, 
2500.00, 
2501.00, 
2502.00, 
2503.00, 
2504.00, 
2505.00, 
2506.00, 
2507.00, 
2508.00, 
2509.00, 
2510.00, 
2511.00, 
2512.00, 
2513.00, 
2514.00, 
2515.00, 
2516.00, 
2517.00, 
2518.00, 
2519.00, 
2520.00, 
2521.00, 
2522.00, 
2523.00, 
2524.00, 
2525.00, 
2526.00, 
2527.00, 
2528.00, 
2529.00, 
2530.00, 
2531.00, 
2532.00, 
2533.00, 
2534.00, 
2535.00, 
2536.00, 
2537.00, 
2538.00, 
2539.00, 
2540.00, 
2541.00, 
2542.00, 
2543.00, 
2544.00, 
2545.00, 
2546.00, 
2547.00, 
2548.00, 
2549.00, 
2550.00, 
2551.00, 
2552.00, 
2553.00, 
2554.00, 
2555.00, 
2556.00, 
2557.00, 
2558.00, 
2559.00, 
2560.00, 
2561.00, 
2562.00, 
2563.00, 
2564.00, 
2565.00, 
2566.00, 
2567.00, 
2568.00, 
2569.00, 
2570.00, 
2571.00, 
2572.00, 
2573.00, 
2574.00, 
2575.00, 
2576.00, 
2577.00, 
2578.00, 
2579.00, 
2580.00, 
2581.00, 
2582.00, 
2583.00, 
2584.00, 
2585.00, 
2586.00, 
2587.00, 
2588.00, 
2589.00, 
2590.00, 
2591.00, 
2592.00, 
2593.00, 
2594.00, 
2595.00, 
2596.00, 
2597.00, 
2598.00, 
2599.00, 
2600.00, 
