"2bP2 - RawData"
"Wavelength nm.","T%"
200.00,-0.001
201.00,-0.003
202.00,0.003
203.00,-0.002
204.00,0.000
205.00,0.004
206.00,0.002
207.00,0.003
208.00,-0.001
209.00,0.002
210.00,0.001
211.00,0.003
212.00,-0.000
213.00,-0.001
214.00,0.000
215.00,0.002
216.00,0.003
217.00,0.003
218.00,0.002
219.00,0.000
220.00,-0.001
221.00,0.000
222.00,0.000
223.00,-0.002
224.00,0.002
225.00,0.002
226.00,-0.002
227.00,0.001
228.00,0.003
229.00,0.000
230.00,0.004
231.00,-0.002
232.00,0.001
233.00,0.000
234.00,0.001
235.00,0.000
236.00,-0.001
237.00,-0.000
238.00,0.002
239.00,-0.001
240.00,0.000
241.00,0.002
242.00,0.000
243.00,0.001
244.00,0.000
245.00,-0.001
246.00,-0.001
247.00,0.001
248.00,-0.000
249.00,0.001
250.00,0.004
251.00,0.000
252.00,-0.001
253.00,-0.001
254.00,-0.000
255.00,0.001
256.00,0.001
257.00,-0.000
258.00,-0.001
259.00,-0.000
260.00,-0.000
261.00,0.002
262.00,0.002
263.00,-0.000
264.00,0.000
265.00,0.001
266.00,-0.002
267.00,0.001
268.00,0.000
269.00,0.001
270.00,0.000
271.00,0.001
272.00,0.000
273.00,-0.000
274.00,-0.000
275.00,-0.000
276.00,-0.000
277.00,0.001
278.00,0.002
279.00,-0.001
280.00,-0.000
281.00,0.000
282.00,-0.000
283.00,0.001
284.00,-0.001
285.00,0.000
286.00,0.000
287.00,0.000
288.00,0.001
289.00,0.001
290.00,0.000
291.00,0.000
292.00,0.000
293.00,0.001
294.00,0.000
295.00,-0.000
296.00,0.001
297.00,0.001
298.00,-0.000
299.00,0.001
300.00,0.002
301.00,0.002
302.00,0.005
303.00,0.007
304.00,0.009
305.00,0.016
306.00,0.024
307.00,0.040
308.00,0.057
309.00,0.085
310.00,0.121
311.00,0.159
312.00,0.217
313.00,0.290
314.00,0.377
315.00,0.469
316.00,0.625
317.00,0.771
318.00,0.943
319.00,1.150
320.00,1.394
321.00,1.655
322.00,1.936
323.00,2.278
324.00,2.621
325.00,2.967
326.00,3.319
327.00,3.740
328.00,4.164
329.00,4.588
330.00,5.025
331.00,5.455
332.00,5.939
333.00,6.406
334.00,6.835
335.00,7.326
336.00,7.789
337.00,8.232
338.00,8.701
339.00,9.076
340.00,9.494
341.00,9.888
342.00,10.296
343.00,10.670
344.00,11.049
345.00,11.376
346.00,11.669
347.00,11.930
348.00,12.224
349.00,12.471
350.00,12.725
351.00,12.945
352.00,13.119
353.00,13.314
354.00,13.483
355.00,13.664
356.00,13.828
357.00,13.938
358.00,14.067
359.00,14.202
360.00,14.345
361.00,14.407
362.00,14.470
363.00,14.552
364.00,14.600
365.00,14.652
366.00,14.692
367.00,14.715
368.00,14.731
369.00,14.705
370.00,14.746
371.00,14.730
372.00,14.713
373.00,14.730
374.00,14.706
375.00,14.671
376.00,14.600
377.00,14.543
378.00,14.468
379.00,14.413
380.00,14.380
381.00,14.370
382.00,14.333
383.00,14.306
384.00,14.297
385.00,14.300
386.00,14.254
387.00,14.301
388.00,14.301
389.00,14.288
390.00,14.245
391.00,14.274
392.00,14.255
393.00,14.223
394.00,14.229
395.00,14.236
396.00,14.205
397.00,14.211
398.00,14.167
399.00,14.170
400.00,14.153
401.00,14.125
402.00,14.148
403.00,14.130
404.00,14.098
405.00,14.090
406.00,14.086
407.00,14.050
408.00,14.071
409.00,14.025
410.00,13.990
411.00,13.968
412.00,13.953
413.00,13.964
414.00,13.938
415.00,13.949
416.00,13.979
417.00,13.958
418.00,14.012
419.00,14.030
420.00,14.077
421.00,14.036
422.00,14.032
423.00,14.077
424.00,14.117
425.00,14.124
426.00,14.159
427.00,14.200
428.00,14.247
429.00,14.287
430.00,14.303
431.00,14.358
432.00,14.360
433.00,14.467
434.00,14.506
435.00,14.560
436.00,14.605
437.00,14.681
438.00,14.724
439.00,14.785
440.00,14.873
441.00,14.937
442.00,14.999
443.00,15.085
444.00,15.159
445.00,15.274
446.00,15.330
447.00,15.424
448.00,15.510
449.00,15.628
450.00,15.716
451.00,15.780
452.00,15.905
453.00,15.987
454.00,16.109
455.00,16.215
456.00,16.307
457.00,16.423
458.00,16.530
459.00,16.641
460.00,16.784
461.00,16.891
462.00,16.983
463.00,17.143
464.00,17.278
465.00,17.389
466.00,17.534
467.00,17.651
468.00,17.780
469.00,17.875
470.00,18.030
471.00,18.134
472.00,18.235
473.00,18.326
474.00,18.450
475.00,18.603
476.00,18.680
477.00,18.816
478.00,18.942
479.00,19.124
480.00,19.265
481.00,19.405
482.00,19.554
483.00,19.704
484.00,19.888
485.00,20.025
486.00,20.187
487.00,20.337
488.00,20.451
489.00,20.634
490.00,20.813
491.00,20.960
492.00,21.127
493.00,21.297
494.00,21.453
495.00,21.511
496.00,21.652
497.00,21.794
498.00,21.931
499.00,22.095
500.00,22.208
501.00,22.383
502.00,22.506
503.00,22.650
504.00,22.729
505.00,22.897
506.00,23.022
507.00,23.129
508.00,23.300
509.00,23.460
510.00,23.610
511.00,23.702
512.00,23.857
513.00,24.006
514.00,24.114
515.00,24.273
516.00,24.370
517.00,24.476
518.00,24.631
519.00,24.739
520.00,24.812
521.00,24.924
522.00,25.035
523.00,25.110
524.00,25.248
525.00,25.384
526.00,25.476
527.00,25.582
528.00,25.673
529.00,25.855
530.00,25.977
531.00,26.094
532.00,26.197
533.00,26.345
534.00,26.397
535.00,26.486
536.00,26.586
537.00,26.647
538.00,26.745
539.00,26.801
540.00,26.887
541.00,26.940
542.00,27.038
543.00,27.136
544.00,27.224
545.00,27.333
546.00,27.344
547.00,27.513
548.00,27.582
549.00,27.666
550.00,27.709
551.00,27.864
552.00,27.937
553.00,27.982
554.00,28.092
555.00,28.145
556.00,28.216
557.00,28.261
558.00,28.347
559.00,28.415
560.00,28.445
561.00,28.552
562.00,28.647
563.00,28.648
564.00,28.774
565.00,28.794
566.00,28.843
567.00,28.885
568.00,28.929
569.00,28.993
570.00,29.070
571.00,29.095
572.00,29.155
573.00,29.147
574.00,29.220
575.00,29.237
576.00,29.244
577.00,29.358
578.00,29.446
579.00,29.508
580.00,29.550
581.00,29.689
582.00,29.757
583.00,29.765
584.00,29.925
585.00,29.954
586.00,29.944
587.00,30.056
588.00,30.085
589.00,30.130
590.00,30.246
591.00,30.266
592.00,30.133
593.00,30.284
594.00,30.421
595.00,30.507
596.00,30.520
597.00,30.611
598.00,30.787
599.00,30.737
600.00,30.748
601.00,30.855
602.00,30.831
603.00,30.910
604.00,30.996
605.00,31.000
606.00,31.138
607.00,31.219
608.00,31.267
609.00,31.225
610.00,31.330
611.00,31.492
612.00,31.300
613.00,31.381
614.00,31.521
615.00,31.497
616.00,31.491
617.00,31.531
618.00,31.615
619.00,31.965
620.00,32.132
621.00,32.037
622.00,32.129
623.00,32.191
624.00,32.312
625.00,32.354
626.00,32.390
627.00,32.527
628.00,32.561
629.00,32.595
630.00,32.675
631.00,32.756
632.00,32.855
633.00,33.018
634.00,33.100
635.00,33.216
636.00,33.300
637.00,33.367
638.00,33.462
639.00,33.572
640.00,33.642
641.00,33.760
642.00,33.793
643.00,33.886
644.00,34.008
645.00,34.063
646.00,34.284
647.00,34.396
648.00,34.369
649.00,34.392
650.00,34.651
651.00,34.874
652.00,34.934
653.00,34.988
654.00,35.066
655.00,35.338
656.00,35.555
657.00,35.518
658.00,35.707
659.00,35.799
660.00,35.905
661.00,35.960
662.00,35.986
663.00,36.207
664.00,36.455
665.00,36.629
666.00,36.621
667.00,36.701
668.00,36.758
669.00,37.082
670.00,37.334
671.00,37.167
672.00,37.368
673.00,37.493
674.00,37.639
675.00,37.768
676.00,38.027
677.00,38.166
678.00,38.061
679.00,38.288
680.00,38.455
681.00,38.690
682.00,38.785
683.00,38.781
684.00,39.037
685.00,39.175
686.00,39.061
687.00,39.375
688.00,39.461
689.00,39.476
690.00,39.675
691.00,39.982
692.00,40.263
693.00,40.063
694.00,40.253
695.00,40.459
696.00,40.565
697.00,40.589
698.00,40.692
699.00,40.941
700.00,40.992
701.00,41.125
702.00,41.350
703.00,41.583
704.00,41.502
705.00,41.434
706.00,41.832
707.00,42.023
708.00,41.926
709.00,42.290
710.00,42.639
711.00,42.342
712.00,42.429
713.00,42.681
714.00,42.776
715.00,42.840
716.00,42.954
717.00,43.194
718.00,43.363
719.00,43.355
720.00,43.438
721.00,47.725
722.00,47.787
723.00,47.835
724.00,47.978
725.00,47.978
726.00,48.056
727.00,48.088
728.00,48.271
729.00,48.310
730.00,48.331
731.00,48.452
732.00,48.568
733.00,48.651
734.00,48.748
735.00,48.834
736.00,48.941
737.00,48.969
738.00,49.015
739.00,49.123
740.00,49.156
741.00,49.305
742.00,49.364
743.00,49.404
744.00,49.417
745.00,49.496
746.00,49.497
747.00,49.587
748.00,49.595
749.00,49.688
750.00,49.731
751.00,49.687
752.00,49.864
753.00,49.843
754.00,49.896
755.00,49.935
756.00,49.975
757.00,50.034
758.00,50.022
759.00,50.152
760.00,50.184
761.00,50.207
762.00,50.219
763.00,50.345
764.00,50.287
765.00,50.386
766.00,50.477
767.00,50.575
768.00,50.530
769.00,50.541
770.00,50.648
771.00,50.725
772.00,50.671
773.00,50.695
774.00,50.825
775.00,50.890
776.00,50.880
777.00,50.918
778.00,50.976
779.00,50.984
780.00,50.958
781.00,50.990
782.00,51.020
783.00,51.026
784.00,51.090
785.00,51.041
786.00,51.144
787.00,51.081
788.00,51.135
789.00,51.142
790.00,51.117
791.00,51.219
792.00,51.161
793.00,51.190
794.00,51.272
795.00,51.178
796.00,51.253
797.00,51.234
798.00,51.214
799.00,51.235
800.00,51.224
801.00,51.270
802.00,51.296
803.00,51.280
804.00,51.261
805.00,51.295
806.00,51.301
807.00,51.250
808.00,51.324
809.00,51.325
810.00,51.310
811.00,51.327
812.00,51.422
813.00,51.316
814.00,51.373
815.00,51.335
816.00,51.327
817.00,51.342
818.00,51.311
819.00,51.258
820.00,51.303
821.00,51.311
822.00,51.329
823.00,51.234
824.00,51.312
825.00,51.308
826.00,51.308
827.00,51.361
828.00,51.391
829.00,51.358
830.00,51.321
831.00,53.708
832.00,53.730
833.00,53.705
834.00,53.725
835.00,53.702
836.00,53.662
837.00,53.758
838.00,53.670
839.00,53.650
840.00,53.654
841.00,53.654
842.00,53.643
843.00,53.622
844.00,53.623
845.00,53.619
846.00,53.608
847.00,53.575
848.00,53.611
849.00,53.512
850.00,53.525
851.00,53.454
852.00,53.492
853.00,53.448
854.00,53.442
855.00,53.394
856.00,53.413
857.00,53.409
858.00,53.403
859.00,53.383
860.00,53.345
861.00,53.504
862.00,53.347
863.00,53.331
864.00,53.321
865.00,53.337
866.00,53.473
867.00,53.344
868.00,53.323
869.00,53.311
870.00,53.329
871.00,53.348
872.00,53.316
873.00,53.299
874.00,53.316
875.00,53.306
876.00,53.320
877.00,53.277
878.00,53.271
879.00,53.277
880.00,53.221
881.00,53.280
882.00,53.261
883.00,53.202
884.00,53.208
885.00,53.186
886.00,53.189
887.00,53.186
888.00,53.164
889.00,53.145
890.00,53.147
891.00,53.106
892.00,53.090
893.00,53.057
894.00,53.072
895.00,53.081
896.00,53.036
897.00,53.025
898.00,53.027
899.00,53.011
900.00,53.018
901.00,52.989
902.00,52.999
903.00,52.946
904.00,52.960
905.00,52.947
906.00,52.938
907.00,52.955
908.00,52.911
909.00,52.838
910.00,52.993
911.00,52.865
912.00,52.822
913.00,52.814
914.00,52.803
915.00,52.788
916.00,52.766
917.00,52.721
918.00,52.765
919.00,52.749
920.00,52.674
921.00,52.669
922.00,52.854
923.00,52.655
924.00,52.616
925.00,52.603
926.00,52.592
927.00,52.592
928.00,52.560
929.00,52.552
930.00,52.553
931.00,52.540
932.00,52.494
933.00,52.515
934.00,52.507
935.00,52.448
936.00,52.454
937.00,52.422
938.00,52.427
939.00,52.430
940.00,52.372
941.00,52.399
942.00,52.233
943.00,52.359
944.00,52.305
945.00,52.328
946.00,52.306
947.00,52.270
948.00,52.258
949.00,52.251
950.00,52.239
951.00,52.208
952.00,52.201
953.00,52.153
954.00,52.146
955.00,52.091
956.00,52.086
957.00,52.060
958.00,52.049
959.00,52.013
960.00,52.024
961.00,52.001
962.00,52.007
963.00,51.959
964.00,51.964
965.00,51.949
966.00,51.933
967.00,51.920
968.00,51.934
969.00,51.957
970.00,51.905
971.00,51.935
972.00,51.873
973.00,51.987
974.00,51.909
975.00,51.901
976.00,51.923
977.00,51.910
978.00,51.944
979.00,51.909
980.00,51.947
981.00,51.930
982.00,51.913
983.00,51.929
984.00,51.904
985.00,51.936
986.00,51.881
987.00,51.918
988.00,51.846
989.00,51.877
990.00,51.864
991.00,51.845
992.00,51.868
993.00,51.824
994.00,51.810
995.00,51.861
996.00,51.818
997.00,51.778
998.00,51.764
999.00,51.784
1000.00,51.732
1001.00,51.728
1002.00,51.731
1003.00,51.757
1004.00,51.713
1005.00,51.681
1006.00,51.706
1007.00,51.684
1008.00,51.660
1009.00,51.637
1010.00,51.648
1011.00,51.634
1012.00,51.606
1013.00,51.608
1014.00,51.554
1015.00,51.591
1016.00,51.550
1017.00,51.535
1018.00,51.542
1019.00,51.528
1020.00,51.503
1021.00,51.486
1022.00,51.478
1023.00,51.449
1024.00,51.445
1025.00,51.425
1026.00,51.420
1027.00,51.397
1028.00,51.398
1029.00,51.375
1030.00,51.343
1031.00,51.349
1032.00,51.318
1033.00,51.300
1034.00,51.284
1035.00,51.249
1036.00,51.222
1037.00,51.213
1038.00,51.194
1039.00,51.161
1040.00,51.164
1041.00,51.132
1042.00,51.117
1043.00,51.108
1044.00,51.126
1045.00,51.113
1046.00,51.097
1047.00,51.115
1048.00,51.127
1049.00,51.137
1050.00,51.127
1051.00,51.185
1052.00,51.167
1053.00,51.165
1054.00,51.169
1055.00,51.203
1056.00,51.238
1057.00,51.228
1058.00,51.201
1059.00,51.197
1060.00,51.205
1061.00,51.182
1062.00,51.193
1063.00,51.190
1064.00,51.179
1065.00,51.178
1066.00,51.156
1067.00,51.156
1068.00,51.165
1069.00,51.113
1070.00,51.116
1071.00,51.093
1072.00,51.114
1073.00,51.106
1074.00,51.092
1075.00,51.083
1076.00,51.081
1077.00,51.050
1078.00,51.037
1079.00,51.048
1080.00,51.033
1081.00,51.017
1082.00,51.022
1083.00,51.010
1084.00,51.007
1085.00,50.992
1086.00,50.979
1087.00,50.982
1088.00,50.972
1089.00,50.991
1090.00,50.959
1091.00,50.950
1092.00,50.950
1093.00,50.919
1094.00,50.907
1095.00,50.911
1096.00,50.874
1097.00,50.873
1098.00,50.872
1099.00,50.866
1100.00,50.868
1101.00,50.849
1102.00,50.835
1103.00,50.849
1104.00,50.843
1105.00,50.838
1106.00,50.793
1107.00,50.791
1108.00,50.779
1109.00,50.788
1110.00,50.771
1111.00,50.772
1112.00,50.760
1113.00,50.749
1114.00,50.746
1115.00,50.743
1116.00,50.723
1117.00,50.724
1118.00,50.708
1119.00,50.703
1120.00,50.700
1121.00,50.682
1122.00,50.688
1123.00,50.690
1124.00,50.658
1125.00,50.674
1126.00,50.650
1127.00,50.645
1128.00,50.636
1129.00,50.617
1130.00,50.602
1131.00,50.612
1132.00,50.585
1133.00,50.592
1134.00,50.575
1135.00,50.564
1136.00,50.576
1137.00,50.580
1138.00,50.574
1139.00,50.599
1140.00,50.570
1141.00,50.571
1142.00,50.566
1143.00,50.576
1144.00,50.553
1145.00,50.553
1146.00,50.533
1147.00,50.530
1148.00,50.539
1149.00,50.527
1150.00,50.548
1151.00,50.546
1152.00,50.511
1153.00,50.524
1154.00,50.507
1155.00,50.521
1156.00,50.515
1157.00,50.515
1158.00,50.510
1159.00,50.498
1160.00,50.493
1161.00,50.508
1162.00,50.475
1163.00,50.491
1164.00,50.504
1165.00,50.494
1166.00,50.518
1167.00,50.469
1168.00,50.471
1169.00,50.468
1170.00,50.464
1171.00,50.436
1172.00,50.453
1173.00,50.444
1174.00,50.444
1175.00,50.455
1176.00,50.441
1177.00,50.434
1178.00,50.439
1179.00,50.441
1180.00,50.441
1181.00,50.457
1182.00,50.434
1183.00,50.435
1184.00,50.416
1185.00,50.421
1186.00,50.415
1187.00,50.421
1188.00,50.433
1189.00,50.430
1190.00,50.409
1191.00,50.413
1192.00,50.431
1193.00,50.413
1194.00,50.426
1195.00,50.406
1196.00,50.432
1197.00,50.431
1198.00,50.400
1199.00,50.421
1200.00,50.434
1201.00,50.425
1202.00,50.421
1203.00,50.415
1204.00,50.395
1205.00,50.426
1206.00,50.397
1207.00,50.394
1208.00,50.383
1209.00,50.390
1210.00,50.425
1211.00,50.423
1212.00,50.420
1213.00,50.393
1214.00,50.415
1215.00,50.386
1216.00,50.409
1217.00,50.399
1218.00,50.389
1219.00,50.417
1220.00,50.384
1221.00,50.404
1222.00,50.395
1223.00,50.417
1224.00,50.428
1225.00,50.386
1226.00,50.391
1227.00,50.389
1228.00,50.395
1229.00,50.386
1230.00,50.417
1231.00,50.397
1232.00,50.419
1233.00,50.415
1234.00,50.398
1235.00,50.417
1236.00,50.417
1237.00,50.417
1238.00,50.425
1239.00,50.426
1240.00,50.414
1241.00,50.430
1242.00,50.415
1243.00,50.432
1244.00,50.408
1245.00,50.431
1246.00,50.456
1247.00,50.440
1248.00,50.438
1249.00,50.464
1250.00,50.449
1251.00,50.426
1252.00,50.458
1253.00,50.438
1254.00,50.471
1255.00,50.457
1256.00,50.407
1257.00,50.386
1258.00,50.467
1259.00,50.454
1260.00,50.483
1261.00,50.449
1262.00,50.446
1263.00,50.463
1264.00,50.469
1265.00,50.485
1266.00,50.475
1267.00,50.486
1268.00,50.497
1269.00,50.505
1270.00,50.534
1271.00,50.525
1272.00,50.537
1273.00,50.555
1274.00,50.543
1275.00,50.524
1276.00,50.534
1277.00,50.532
1278.00,50.525
1279.00,50.549
1280.00,50.545
1281.00,50.563
1282.00,50.571
1283.00,50.559
1284.00,50.571
1285.00,50.565
1286.00,50.575
1287.00,50.585
1288.00,50.581
1289.00,50.562
1290.00,50.596
1291.00,50.595
1292.00,50.587
1293.00,50.600
1294.00,50.613
1295.00,50.617
1296.00,50.626
1297.00,50.634
1298.00,50.670
1299.00,50.631
1300.00,50.639
1301.00,50.648
1302.00,50.628
1303.00,50.643
1304.00,50.638
1305.00,50.650
1306.00,50.658
1307.00,50.679
1308.00,50.676
1309.00,50.703
1310.00,50.687
1311.00,50.658
1312.00,50.669
1313.00,50.670
1314.00,50.678
1315.00,50.706
1316.00,50.691
1317.00,50.710
1318.00,50.706
1319.00,50.705
1320.00,50.732
1321.00,50.873
1322.00,50.853
1323.00,50.842
1324.00,50.848
1325.00,50.823
1326.00,50.854
1327.00,50.842
1328.00,50.817
1329.00,50.848
1330.00,50.850
1331.00,50.832
1332.00,50.865
1333.00,50.843
1334.00,50.877
1335.00,50.892
1336.00,50.901
1337.00,50.952
1338.00,51.002
1339.00,51.037
1340.00,51.110
1341.00,51.149
1342.00,51.219
1343.00,51.281
1344.00,51.321
1345.00,51.381
1346.00,51.436
1347.00,51.524
1348.00,51.463
1349.00,51.470
1350.00,51.484
1351.00,51.492
1352.00,51.496
1353.00,51.502
1354.00,51.538
1355.00,51.505
1356.00,51.548
1357.00,51.540
1358.00,51.548
1359.00,51.553
1360.00,51.557
1361.00,51.489
1362.00,51.513
1363.00,51.561
1364.00,51.586
1365.00,51.519
1366.00,51.521
1367.00,51.515
1368.00,51.526
1369.00,51.510
1370.00,51.532
1371.00,51.511
1372.00,51.517
1373.00,51.539
1374.00,51.538
1375.00,51.541
1376.00,51.531
1377.00,51.478
1378.00,51.580
1379.00,51.507
1380.00,51.466
1381.00,51.516
1382.00,51.501
1383.00,51.496
1384.00,51.490
1385.00,51.478
1386.00,51.526
1387.00,51.507
1388.00,51.486
1389.00,51.498
1390.00,51.612
1391.00,51.511
1392.00,51.481
1393.00,51.464
1394.00,51.486
1395.00,51.496
1396.00,51.434
1397.00,51.470
1398.00,51.511
1399.00,51.506
1400.00,51.455
1401.00,51.471
1402.00,51.536
1403.00,51.510
1404.00,51.509
1405.00,51.519
1406.00,51.548
1407.00,51.524
1408.00,51.534
1409.00,51.525
1410.00,51.555
1411.00,51.558
1412.00,51.584
1413.00,51.517
1414.00,51.561
1415.00,51.594
1416.00,51.595
1417.00,51.629
1418.00,51.607
1419.00,51.623
1420.00,51.639
1421.00,51.667
1422.00,51.672
1423.00,51.683
1424.00,51.673
1425.00,51.707
1426.00,51.722
1427.00,51.728
1428.00,51.743
1429.00,51.762
1430.00,51.760
1431.00,51.800
1432.00,51.795
1433.00,51.818
1434.00,51.804
1435.00,51.833
1436.00,51.850
1437.00,51.841
1438.00,51.862
1439.00,51.890
1440.00,51.883
1441.00,51.885
1442.00,51.909
1443.00,51.935
1444.00,51.957
1445.00,51.936
1446.00,51.956
1447.00,52.006
1448.00,52.033
1449.00,52.015
1450.00,52.049
1451.00,52.036
1452.00,52.066
1453.00,52.074
1454.00,52.091
1455.00,52.131
1456.00,52.141
1457.00,52.119
1458.00,52.158
1459.00,52.170
1460.00,52.169
1461.00,52.175
1462.00,52.216
1463.00,52.205
1464.00,52.228
1465.00,52.240
1466.00,52.260
1467.00,52.299
1468.00,52.320
1469.00,52.314
1470.00,52.318
1471.00,52.326
1472.00,52.344
1473.00,52.337
1474.00,52.347
1475.00,52.353
1476.00,52.373
1477.00,52.370
1478.00,52.394
1479.00,52.390
1480.00,52.404
1481.00,52.409
1482.00,52.441
1483.00,52.484
1484.00,52.479
1485.00,52.490
1486.00,52.511
1487.00,52.526
1488.00,52.551
1489.00,52.539
1490.00,52.560
1491.00,52.558
1492.00,52.578
1493.00,52.550
1494.00,52.603
1495.00,52.586
1496.00,52.608
1497.00,52.600
1498.00,52.609
1499.00,52.629
1500.00,52.662
1501.00, 
1502.00, 
1503.00, 
1504.00, 
1505.00, 
1506.00, 
1507.00, 
1508.00, 
1509.00, 
1510.00, 
1511.00, 
1512.00, 
1513.00, 
1514.00, 
1515.00, 
1516.00, 
1517.00, 
1518.00, 
1519.00, 
1520.00, 
1521.00, 
1522.00, 
1523.00, 
1524.00, 
1525.00, 
1526.00, 
1527.00, 
1528.00, 
1529.00, 
1530.00, 
1531.00, 
1532.00, 
1533.00, 
1534.00, 
1535.00, 
1536.00, 
1537.00, 
1538.00, 
1539.00, 
1540.00, 
1541.00, 
1542.00, 
1543.00, 
1544.00, 
1545.00, 
1546.00, 
1547.00, 
1548.00, 
1549.00, 
1550.00, 
1551.00, 
1552.00, 
1553.00, 
1554.00, 
1555.00, 
1556.00, 
1557.00, 
1558.00, 
1559.00, 
1560.00, 
1561.00, 
1562.00, 
1563.00, 
1564.00, 
1565.00, 
1566.00, 
1567.00, 
1568.00, 
1569.00, 
1570.00, 
1571.00, 
1572.00, 
1573.00, 
1574.00, 
1575.00, 
1576.00, 
1577.00, 
1578.00, 
1579.00, 
1580.00, 
1581.00, 
1582.00, 
1583.00, 
1584.00, 
1585.00, 
1586.00, 
1587.00, 
1588.00, 
1589.00, 
1590.00, 
1591.00, 
1592.00, 
1593.00, 
1594.00, 
1595.00, 
1596.00, 
1597.00, 
1598.00, 
1599.00, 
1600.00, 
1601.00, 
1602.00, 
1603.00, 
1604.00, 
1605.00, 
1606.00, 
1607.00, 
1608.00, 
1609.00, 
1610.00, 
1611.00, 
1612.00, 
1613.00, 
1614.00, 
1615.00, 
1616.00, 
1617.00, 
1618.00, 
1619.00, 
1620.00, 
1621.00, 
1622.00, 
1623.00, 
1624.00, 
1625.00, 
1626.00, 
1627.00, 
1628.00, 
1629.00, 
1630.00, 
1631.00, 
1632.00, 
1633.00, 
1634.00, 
1635.00, 
1636.00, 
1637.00, 
1638.00, 
1639.00, 
1640.00, 
1641.00, 
1642.00, 
1643.00, 
1644.00, 
1645.00, 
1646.00, 
1647.00, 
1648.00, 
1649.00, 
1650.00, 
1651.00, 
1652.00, 
1653.00, 
1654.00, 
1655.00, 
1656.00, 
1657.00, 
1658.00, 
1659.00, 
1660.00, 
1661.00, 
1662.00, 
1663.00, 
1664.00, 
1665.00, 
1666.00, 
1667.00, 
1668.00, 
1669.00, 
1670.00, 
1671.00, 
1672.00, 
1673.00, 
1674.00, 
1675.00, 
1676.00, 
1677.00, 
1678.00, 
1679.00, 
1680.00, 
1681.00, 
1682.00, 
1683.00, 
1684.00, 
1685.00, 
1686.00, 
1687.00, 
1688.00, 
1689.00, 
1690.00, 
1691.00, 
1692.00, 
1693.00, 
1694.00, 
1695.00, 
1696.00, 
1697.00, 
1698.00, 
1699.00, 
1700.00, 
1701.00, 
1702.00, 
1703.00, 
1704.00, 
1705.00, 
1706.00, 
1707.00, 
1708.00, 
1709.00, 
1710.00, 
1711.00, 
1712.00, 
1713.00, 
1714.00, 
1715.00, 
1716.00, 
1717.00, 
1718.00, 
1719.00, 
1720.00, 
1721.00, 
1722.00, 
1723.00, 
1724.00, 
1725.00, 
1726.00, 
1727.00, 
1728.00, 
1729.00, 
1730.00, 
1731.00, 
1732.00, 
1733.00, 
1734.00, 
1735.00, 
1736.00, 
1737.00, 
1738.00, 
1739.00, 
1740.00, 
1741.00, 
1742.00, 
1743.00, 
1744.00, 
1745.00, 
1746.00, 
1747.00, 
1748.00, 
1749.00, 
1750.00, 
1751.00, 
1752.00, 
1753.00, 
1754.00, 
1755.00, 
1756.00, 
1757.00, 
1758.00, 
1759.00, 
1760.00, 
1761.00, 
1762.00, 
1763.00, 
1764.00, 
1765.00, 
1766.00, 
1767.00, 
1768.00, 
1769.00, 
1770.00, 
1771.00, 
1772.00, 
1773.00, 
1774.00, 
1775.00, 
1776.00, 
1777.00, 
1778.00, 
1779.00, 
1780.00, 
1781.00, 
1782.00, 
1783.00, 
1784.00, 
1785.00, 
1786.00, 
1787.00, 
1788.00, 
1789.00, 
1790.00, 
1791.00, 
1792.00, 
1793.00, 
1794.00, 
1795.00, 
1796.00, 
1797.00, 
1798.00, 
1799.00, 
1800.00, 
1801.00, 
1802.00, 
1803.00, 
1804.00, 
1805.00, 
1806.00, 
1807.00, 
1808.00, 
1809.00, 
1810.00, 
1811.00, 
1812.00, 
1813.00, 
1814.00, 
1815.00, 
1816.00, 
1817.00, 
1818.00, 
1819.00, 
1820.00, 
1821.00, 
1822.00, 
1823.00, 
1824.00, 
1825.00, 
1826.00, 
1827.00, 
1828.00, 
1829.00, 
1830.00, 
1831.00, 
1832.00, 
1833.00, 
1834.00, 
1835.00, 
1836.00, 
1837.00, 
1838.00, 
1839.00, 
1840.00, 
1841.00, 
1842.00, 
1843.00, 
1844.00, 
1845.00, 
1846.00, 
1847.00, 
1848.00, 
1849.00, 
1850.00, 
1851.00, 
1852.00, 
1853.00, 
1854.00, 
1855.00, 
1856.00, 
1857.00, 
1858.00, 
1859.00, 
1860.00, 
1861.00, 
1862.00, 
1863.00, 
1864.00, 
1865.00, 
1866.00, 
1867.00, 
1868.00, 
1869.00, 
1870.00, 
1871.00, 
1872.00, 
1873.00, 
1874.00, 
1875.00, 
1876.00, 
1877.00, 
1878.00, 
1879.00, 
1880.00, 
1881.00, 
1882.00, 
1883.00, 
1884.00, 
1885.00, 
1886.00, 
1887.00, 
1888.00, 
1889.00, 
1890.00, 
1891.00, 
1892.00, 
1893.00, 
1894.00, 
1895.00, 
1896.00, 
1897.00, 
1898.00, 
1899.00, 
1900.00, 
1901.00, 
1902.00, 
1903.00, 
1904.00, 
1905.00, 
1906.00, 
1907.00, 
1908.00, 
1909.00, 
1910.00, 
1911.00, 
1912.00, 
1913.00, 
1914.00, 
1915.00, 
1916.00, 
1917.00, 
1918.00, 
1919.00, 
1920.00, 
1921.00, 
1922.00, 
1923.00, 
1924.00, 
1925.00, 
1926.00, 
1927.00, 
1928.00, 
1929.00, 
1930.00, 
1931.00, 
1932.00, 
1933.00, 
1934.00, 
1935.00, 
1936.00, 
1937.00, 
1938.00, 
1939.00, 
1940.00, 
1941.00, 
1942.00, 
1943.00, 
1944.00, 
1945.00, 
1946.00, 
1947.00, 
1948.00, 
1949.00, 
1950.00, 
1951.00, 
1952.00, 
1953.00, 
1954.00, 
1955.00, 
1956.00, 
1957.00, 
1958.00, 
1959.00, 
1960.00, 
1961.00, 
1962.00, 
1963.00, 
1964.00, 
1965.00, 
1966.00, 
1967.00, 
1968.00, 
1969.00, 
1970.00, 
1971.00, 
1972.00, 
1973.00, 
1974.00, 
1975.00, 
1976.00, 
1977.00, 
1978.00, 
1979.00, 
1980.00, 
1981.00, 
1982.00, 
1983.00, 
1984.00, 
1985.00, 
1986.00, 
1987.00, 
1988.00, 
1989.00, 
1990.00, 
1991.00, 
1992.00, 
1993.00, 
1994.00, 
1995.00, 
1996.00, 
1997.00, 
1998.00, 
1999.00, 
2000.00, 
2001.00, 
2002.00, 
2003.00, 
2004.00, 
2005.00, 
2006.00, 
2007.00, 
2008.00, 
2009.00, 
2010.00, 
2011.00, 
2012.00, 
2013.00, 
2014.00, 
2015.00, 
2016.00, 
2017.00, 
2018.00, 
2019.00, 
2020.00, 
2021.00, 
2022.00, 
2023.00, 
2024.00, 
2025.00, 
2026.00, 
2027.00, 
2028.00, 
2029.00, 
2030.00, 
2031.00, 
2032.00, 
2033.00, 
2034.00, 
2035.00, 
2036.00, 
2037.00, 
2038.00, 
2039.00, 
2040.00, 
2041.00, 
2042.00, 
2043.00, 
2044.00, 
2045.00, 
2046.00, 
2047.00, 
2048.00, 
2049.00, 
2050.00, 
2051.00, 
2052.00, 
2053.00, 
2054.00, 
2055.00, 
2056.00, 
2057.00, 
2058.00, 
2059.00, 
2060.00, 
2061.00, 
2062.00, 
2063.00, 
2064.00, 
2065.00, 
2066.00, 
2067.00, 
2068.00, 
2069.00, 
2070.00, 
2071.00, 
2072.00, 
2073.00, 
2074.00, 
2075.00, 
2076.00, 
2077.00, 
2078.00, 
2079.00, 
2080.00, 
2081.00, 
2082.00, 
2083.00, 
2084.00, 
2085.00, 
2086.00, 
2087.00, 
2088.00, 
2089.00, 
2090.00, 
2091.00, 
2092.00, 
2093.00, 
2094.00, 
2095.00, 
2096.00, 
2097.00, 
2098.00, 
2099.00, 
2100.00, 
2101.00, 
2102.00, 
2103.00, 
2104.00, 
2105.00, 
2106.00, 
2107.00, 
2108.00, 
2109.00, 
2110.00, 
2111.00, 
2112.00, 
2113.00, 
2114.00, 
2115.00, 
2116.00, 
2117.00, 
2118.00, 
2119.00, 
2120.00, 
2121.00, 
2122.00, 
2123.00, 
2124.00, 
2125.00, 
2126.00, 
2127.00, 
2128.00, 
2129.00, 
2130.00, 
2131.00, 
2132.00, 
2133.00, 
2134.00, 
2135.00, 
2136.00, 
2137.00, 
2138.00, 
2139.00, 
2140.00, 
2141.00, 
2142.00, 
2143.00, 
2144.00, 
2145.00, 
2146.00, 
2147.00, 
2148.00, 
2149.00, 
2150.00, 
2151.00, 
2152.00, 
2153.00, 
2154.00, 
2155.00, 
2156.00, 
2157.00, 
2158.00, 
2159.00, 
2160.00, 
2161.00, 
2162.00, 
2163.00, 
2164.00, 
2165.00, 
2166.00, 
2167.00, 
2168.00, 
2169.00, 
2170.00, 
2171.00, 
2172.00, 
2173.00, 
2174.00, 
2175.00, 
2176.00, 
2177.00, 
2178.00, 
2179.00, 
2180.00, 
2181.00, 
2182.00, 
2183.00, 
2184.00, 
2185.00, 
2186.00, 
2187.00, 
2188.00, 
2189.00, 
2190.00, 
2191.00, 
2192.00, 
2193.00, 
2194.00, 
2195.00, 
2196.00, 
2197.00, 
2198.00, 
2199.00, 
2200.00, 
2201.00, 
2202.00, 
2203.00, 
2204.00, 
2205.00, 
2206.00, 
2207.00, 
2208.00, 
2209.00, 
2210.00, 
2211.00, 
2212.00, 
2213.00, 
2214.00, 
2215.00, 
2216.00, 
2217.00, 
2218.00, 
2219.00, 
2220.00, 
2221.00, 
2222.00, 
2223.00, 
2224.00, 
2225.00, 
2226.00, 
2227.00, 
2228.00, 
2229.00, 
2230.00, 
2231.00, 
2232.00, 
2233.00, 
2234.00, 
2235.00, 
2236.00, 
2237.00, 
2238.00, 
2239.00, 
2240.00, 
2241.00, 
2242.00, 
2243.00, 
2244.00, 
2245.00, 
2246.00, 
2247.00, 
2248.00, 
2249.00, 
2250.00, 
2251.00, 
2252.00, 
2253.00, 
2254.00, 
2255.00, 
2256.00, 
2257.00, 
2258.00, 
2259.00, 
2260.00, 
2261.00, 
2262.00, 
2263.00, 
2264.00, 
2265.00, 
2266.00, 
2267.00, 
2268.00, 
2269.00, 
2270.00, 
2271.00, 
2272.00, 
2273.00, 
2274.00, 
2275.00, 
2276.00, 
2277.00, 
2278.00, 
2279.00, 
2280.00, 
2281.00, 
2282.00, 
2283.00, 
2284.00, 
2285.00, 
2286.00, 
2287.00, 
2288.00, 
2289.00, 
2290.00, 
2291.00, 
2292.00, 
2293.00, 
2294.00, 
2295.00, 
2296.00, 
2297.00, 
2298.00, 
2299.00, 
2300.00, 
2301.00, 
2302.00, 
2303.00, 
2304.00, 
2305.00, 
2306.00, 
2307.00, 
2308.00, 
2309.00, 
2310.00, 
2311.00, 
2312.00, 
2313.00, 
2314.00, 
2315.00, 
2316.00, 
2317.00, 
2318.00, 
2319.00, 
2320.00, 
2321.00, 
2322.00, 
2323.00, 
2324.00, 
2325.00, 
2326.00, 
2327.00, 
2328.00, 
2329.00, 
2330.00, 
2331.00, 
2332.00, 
2333.00, 
2334.00, 
2335.00, 
2336.00, 
2337.00, 
2338.00, 
2339.00, 
2340.00, 
2341.00, 
2342.00, 
2343.00, 
2344.00, 
2345.00, 
2346.00, 
2347.00, 
2348.00, 
2349.00, 
2350.00, 
2351.00, 
2352.00, 
2353.00, 
2354.00, 
2355.00, 
2356.00, 
2357.00, 
2358.00, 
2359.00, 
2360.00, 
2361.00, 
2362.00, 
2363.00, 
2364.00, 
2365.00, 
2366.00, 
2367.00, 
2368.00, 
2369.00, 
2370.00, 
2371.00, 
2372.00, 
2373.00, 
2374.00, 
2375.00, 
2376.00, 
2377.00, 
2378.00, 
2379.00, 
2380.00, 
2381.00, 
2382.00, 
2383.00, 
2384.00, 
2385.00, 
2386.00, 
2387.00, 
2388.00, 
2389.00, 
2390.00, 
2391.00, 
2392.00, 
2393.00, 
2394.00, 
2395.00, 
2396.00, 
2397.00, 
2398.00, 
2399.00, 
2400.00, 
2401.00, 
2402.00, 
2403.00, 
2404.00, 
2405.00, 
2406.00, 
2407.00, 
2408.00, 
2409.00, 
2410.00, 
2411.00, 
2412.00, 
2413.00, 
2414.00, 
2415.00, 
2416.00, 
2417.00, 
2418.00, 
2419.00, 
2420.00, 
2421.00, 
2422.00, 
2423.00, 
2424.00, 
2425.00, 
2426.00, 
2427.00, 
2428.00, 
2429.00, 
2430.00, 
2431.00, 
2432.00, 
2433.00, 
2434.00, 
2435.00, 
2436.00, 
2437.00, 
2438.00, 
2439.00, 
2440.00, 
2441.00, 
2442.00, 
2443.00, 
2444.00, 
2445.00, 
2446.00, 
2447.00, 
2448.00, 
2449.00, 
2450.00, 
2451.00, 
2452.00, 
2453.00, 
2454.00, 
2455.00, 
2456.00, 
2457.00, 
2458.00, 
2459.00, 
2460.00, 
2461.00, 
2462.00, 
2463.00, 
2464.00, 
2465.00, 
2466.00, 
2467.00, 
2468.00, 
2469.00, 
2470.00, 
2471.00, 
2472.00, 
2473.00, 
2474.00, 
2475.00, 
2476.00, 
2477.00, 
2478.00, 
2479.00, 
2480.00, 
2481.00, 
2482.00, 
2483.00, 
2484.00, 
2485.00, 
2486.00, 
2487.00, 
2488.00, 
2489.00, 
2490.00, 
2491.00, 
2492.00, 
2493.00, 
2494.00, 
2495.00, 
2496.00, 
2497.00, 
2498.00, 
2499.00, 
2500.00, 
2501.00, 
2502.00, 
2503.00, 
2504.00, 
2505.00, 
2506.00, 
2507.00, 
2508.00, 
2509.00, 
2510.00, 
2511.00, 
2512.00, 
2513.00, 
2514.00, 
2515.00, 
2516.00, 
2517.00, 
2518.00, 
2519.00, 
2520.00, 
2521.00, 
2522.00, 
2523.00, 
2524.00, 
2525.00, 
2526.00, 
2527.00, 
2528.00, 
2529.00, 
2530.00, 
2531.00, 
2532.00, 
2533.00, 
2534.00, 
2535.00, 
2536.00, 
2537.00, 
2538.00, 
2539.00, 
2540.00, 
2541.00, 
2542.00, 
2543.00, 
2544.00, 
2545.00, 
2546.00, 
2547.00, 
2548.00, 
2549.00, 
2550.00, 
2551.00, 
2552.00, 
2553.00, 
2554.00, 
2555.00, 
2556.00, 
2557.00, 
2558.00, 
2559.00, 
2560.00, 
2561.00, 
2562.00, 
2563.00, 
2564.00, 
2565.00, 
2566.00, 
2567.00, 
2568.00, 
2569.00, 
2570.00, 
2571.00, 
2572.00, 
2573.00, 
2574.00, 
2575.00, 
2576.00, 
2577.00, 
2578.00, 
2579.00, 
2580.00, 
2581.00, 
2582.00, 
2583.00, 
2584.00, 
2585.00, 
2586.00, 
2587.00, 
2588.00, 
2589.00, 
2590.00, 
2591.00, 
2592.00, 
2593.00, 
2594.00, 
2595.00, 
2596.00, 
2597.00, 
2598.00, 
2599.00, 
2600.00, 
