"2cP1 - RawData"
"Wavelength nm.","T%"
200.00,-0.000
201.00,-0.001
202.00,-0.000
203.00,0.002
204.00,0.001
205.00,0.002
206.00,0.001
207.00,-0.000
208.00,0.002
209.00,0.002
210.00,-0.001
211.00,0.002
212.00,-0.000
213.00,0.001
214.00,-0.001
215.00,0.001
216.00,0.001
217.00,0.004
218.00,-0.001
219.00,-0.001
220.00,0.003
221.00,0.000
222.00,-0.001
223.00,0.002
224.00,0.001
225.00,0.002
226.00,0.002
227.00,-0.001
228.00,-0.000
229.00,0.001
230.00,-0.000
231.00,0.002
232.00,0.002
233.00,0.000
234.00,0.001
235.00,0.002
236.00,-0.001
237.00,-0.000
238.00,-0.000
239.00,0.000
240.00,-0.000
241.00,-0.000
242.00,0.001
243.00,-0.001
244.00,-0.001
245.00,0.002
246.00,0.001
247.00,0.000
248.00,0.001
249.00,0.000
250.00,-0.001
251.00,-0.001
252.00,0.002
253.00,-0.001
254.00,0.001
255.00,-0.001
256.00,0.001
257.00,-0.001
258.00,0.002
259.00,0.003
260.00,0.000
261.00,0.001
262.00,-0.001
263.00,-0.001
264.00,0.001
265.00,-0.001
266.00,-0.001
267.00,-0.002
268.00,0.000
269.00,0.000
270.00,-0.000
271.00,-0.000
272.00,0.001
273.00,0.001
274.00,0.000
275.00,0.001
276.00,0.002
277.00,0.001
278.00,0.000
279.00,0.002
280.00,-0.001
281.00,-0.000
282.00,-0.000
283.00,0.002
284.00,-0.001
285.00,0.000
286.00,0.001
287.00,0.000
288.00,0.000
289.00,0.001
290.00,-0.001
291.00,-0.000
292.00,0.001
293.00,-0.001
294.00,0.002
295.00,-0.001
296.00,0.001
297.00,0.000
298.00,0.001
299.00,0.000
300.00,0.001
301.00,0.001
302.00,0.004
303.00,0.005
304.00,0.009
305.00,0.012
306.00,0.020
307.00,0.029
308.00,0.048
309.00,0.072
310.00,0.101
311.00,0.134
312.00,0.182
313.00,0.256
314.00,0.330
315.00,0.433
316.00,0.545
317.00,0.675
318.00,0.846
319.00,1.038
320.00,1.263
321.00,1.520
322.00,1.794
323.00,2.098
324.00,2.450
325.00,2.781
326.00,3.121
327.00,3.527
328.00,3.938
329.00,4.360
330.00,4.806
331.00,5.252
332.00,5.686
333.00,6.187
334.00,6.599
335.00,7.085
336.00,7.573
337.00,8.012
338.00,8.464
339.00,8.875
340.00,9.292
341.00,9.697
342.00,10.086
343.00,10.453
344.00,10.831
345.00,11.147
346.00,11.497
347.00,11.764
348.00,12.086
349.00,12.322
350.00,12.597
351.00,12.809
352.00,13.063
353.00,13.250
354.00,13.418
355.00,13.589
356.00,13.774
357.00,13.934
358.00,14.031
359.00,14.188
360.00,14.279
361.00,14.407
362.00,14.486
363.00,14.554
364.00,14.664
365.00,14.731
366.00,14.751
367.00,14.789
368.00,14.813
369.00,14.847
370.00,14.821
371.00,14.837
372.00,14.821
373.00,14.834
374.00,14.775
375.00,14.785
376.00,14.719
377.00,14.686
378.00,14.625
379.00,14.582
380.00,14.546
381.00,14.525
382.00,14.510
383.00,14.485
384.00,14.465
385.00,14.461
386.00,14.488
387.00,14.498
388.00,14.479
389.00,14.487
390.00,14.476
391.00,14.479
392.00,14.469
393.00,14.489
394.00,14.447
395.00,14.477
396.00,14.447
397.00,14.443
398.00,14.426
399.00,14.408
400.00,14.399
401.00,14.402
402.00,14.385
403.00,14.376
404.00,14.373
405.00,14.390
406.00,14.359
407.00,14.332
408.00,14.333
409.00,14.290
410.00,14.291
411.00,14.251
412.00,14.228
413.00,14.230
414.00,14.228
415.00,14.222
416.00,14.242
417.00,14.245
418.00,14.270
419.00,14.267
420.00,14.289
421.00,14.297
422.00,14.303
423.00,14.358
424.00,14.368
425.00,14.384
426.00,14.431
427.00,14.472
428.00,14.502
429.00,14.517
430.00,14.576
431.00,14.610
432.00,14.645
433.00,14.712
434.00,14.731
435.00,14.784
436.00,14.854
437.00,14.920
438.00,14.977
439.00,15.033
440.00,15.105
441.00,15.173
442.00,15.200
443.00,15.315
444.00,15.402
445.00,15.490
446.00,15.550
447.00,15.644
448.00,15.724
449.00,15.836
450.00,15.924
451.00,16.008
452.00,16.120
453.00,16.226
454.00,16.330
455.00,16.433
456.00,16.546
457.00,16.637
458.00,16.728
459.00,16.847
460.00,16.972
461.00,17.090
462.00,17.195
463.00,17.331
464.00,17.449
465.00,17.544
466.00,17.692
467.00,17.801
468.00,17.901
469.00,18.050
470.00,18.168
471.00,18.261
472.00,18.394
473.00,18.486
474.00,18.604
475.00,18.737
476.00,18.848
477.00,18.979
478.00,19.110
479.00,19.264
480.00,19.402
481.00,19.541
482.00,19.688
483.00,19.842
484.00,20.006
485.00,20.149
486.00,20.292
487.00,20.427
488.00,20.564
489.00,20.707
490.00,20.872
491.00,21.031
492.00,21.197
493.00,21.321
494.00,21.464
495.00,21.540
496.00,21.702
497.00,21.825
498.00,21.982
499.00,22.146
500.00,22.251
501.00,22.423
502.00,22.561
503.00,22.700
504.00,22.781
505.00,22.944
506.00,23.129
507.00,23.205
508.00,23.349
509.00,23.518
510.00,23.626
511.00,23.759
512.00,23.926
513.00,24.004
514.00,24.160
515.00,24.288
516.00,24.416
517.00,24.539
518.00,24.650
519.00,24.782
520.00,24.879
521.00,24.982
522.00,25.087
523.00,25.183
524.00,25.264
525.00,25.407
526.00,25.499
527.00,25.631
528.00,25.713
529.00,25.827
530.00,25.912
531.00,26.075
532.00,26.193
533.00,26.274
534.00,26.432
535.00,26.494
536.00,26.628
537.00,26.693
538.00,26.801
539.00,26.888
540.00,26.967
541.00,27.060
542.00,27.123
543.00,27.213
544.00,27.287
545.00,27.366
546.00,27.453
547.00,27.566
548.00,27.616
549.00,27.737
550.00,27.823
551.00,27.909
552.00,27.985
553.00,28.105
554.00,28.183
555.00,28.225
556.00,28.269
557.00,28.358
558.00,28.463
559.00,28.512
560.00,28.592
561.00,28.664
562.00,28.711
563.00,28.754
564.00,28.859
565.00,28.909
566.00,28.915
567.00,28.982
568.00,29.029
569.00,29.062
570.00,29.102
571.00,29.164
572.00,29.241
573.00,29.230
574.00,29.339
575.00,29.358
576.00,29.415
577.00,29.521
578.00,29.575
579.00,29.630
580.00,29.683
581.00,29.816
582.00,29.902
583.00,29.906
584.00,30.031
585.00,30.093
586.00,30.116
587.00,30.181
588.00,30.219
589.00,30.238
590.00,30.403
591.00,30.447
592.00,30.472
593.00,30.563
594.00,30.616
595.00,30.641
596.00,30.709
597.00,30.757
598.00,30.894
599.00,30.920
600.00,30.969
601.00,31.060
602.00,31.070
603.00,31.103
604.00,31.243
605.00,31.232
606.00,31.281
607.00,31.356
608.00,31.399
609.00,31.443
610.00,31.540
611.00,31.646
612.00,31.676
613.00,31.667
614.00,31.754
615.00,31.822
616.00,31.900
617.00,31.951
618.00,32.017
619.00,32.102
620.00,32.163
621.00,32.224
622.00,32.336
623.00,32.407
624.00,32.491
625.00,32.571
626.00,32.599
627.00,32.687
628.00,32.765
629.00,32.873
630.00,32.938
631.00,33.008
632.00,33.107
633.00,33.216
634.00,33.282
635.00,33.377
636.00,33.505
637.00,33.578
638.00,33.707
639.00,33.755
640.00,33.812
641.00,33.954
642.00,34.011
643.00,34.094
644.00,34.256
645.00,34.266
646.00,34.438
647.00,34.499
648.00,34.584
649.00,34.667
650.00,34.707
651.00,34.959
652.00,35.072
653.00,35.137
654.00,35.288
655.00,35.443
656.00,35.542
657.00,35.739
658.00,35.773
659.00,35.803
660.00,36.091
661.00,36.208
662.00,36.243
663.00,36.354
664.00,36.537
665.00,36.557
666.00,36.702
667.00,36.871
668.00,36.971
669.00,37.034
670.00,37.232
671.00,37.228
672.00,37.374
673.00,37.564
674.00,37.739
675.00,37.810
676.00,38.012
677.00,38.055
678.00,38.223
679.00,38.352
680.00,38.465
681.00,38.581
682.00,38.754
683.00,38.798
684.00,39.054
685.00,39.204
686.00,39.171
687.00,39.357
688.00,39.475
689.00,39.620
690.00,39.610
691.00,39.861
692.00,40.065
693.00,40.169
694.00,40.228
695.00,40.386
696.00,40.469
697.00,40.626
698.00,40.770
699.00,40.910
700.00,41.079
701.00,41.165
702.00,41.374
703.00,41.511
704.00,41.528
705.00,41.563
706.00,41.793
707.00,41.952
708.00,41.859
709.00,42.106
710.00,42.386
711.00,42.231
712.00,42.380
713.00,42.540
714.00,42.599
715.00,42.764
716.00,42.886
717.00,42.945
718.00,43.130
719.00,43.233
720.00,43.302
721.00,47.023
722.00,47.059
723.00,47.073
724.00,47.213
725.00,47.254
726.00,47.266
727.00,47.373
728.00,47.494
729.00,47.494
730.00,47.627
731.00,47.650
732.00,47.768
733.00,47.829
734.00,47.912
735.00,47.978
736.00,48.109
737.00,48.120
738.00,48.191
739.00,48.288
740.00,48.319
741.00,48.364
742.00,48.434
743.00,48.497
744.00,48.532
745.00,48.595
746.00,48.601
747.00,48.663
748.00,48.698
749.00,48.661
750.00,48.784
751.00,48.765
752.00,48.878
753.00,48.863
754.00,48.961
755.00,48.984
756.00,49.012
757.00,48.992
758.00,49.063
759.00,49.152
760.00,49.246
761.00,49.198
762.00,49.291
763.00,49.276
764.00,49.297
765.00,49.407
766.00,49.437
767.00,49.485
768.00,49.518
769.00,49.521
770.00,49.598
771.00,49.666
772.00,49.637
773.00,49.637
774.00,49.747
775.00,49.793
776.00,49.855
777.00,49.787
778.00,49.883
779.00,49.876
780.00,49.851
781.00,49.989
782.00,49.942
783.00,49.954
784.00,49.968
785.00,49.898
786.00,49.996
787.00,50.001
788.00,50.003
789.00,50.017
790.00,50.032
791.00,50.068
792.00,50.068
793.00,50.135
794.00,50.070
795.00,50.115
796.00,50.147
797.00,50.073
798.00,50.087
799.00,50.110
800.00,50.055
801.00,50.142
802.00,50.116
803.00,50.120
804.00,50.131
805.00,50.123
806.00,50.181
807.00,50.132
808.00,50.160
809.00,50.154
810.00,50.173
811.00,50.159
812.00,50.187
813.00,50.207
814.00,50.247
815.00,50.217
816.00,50.113
817.00,50.205
818.00,50.129
819.00,50.118
820.00,50.150
821.00,50.200
822.00,50.126
823.00,50.086
824.00,50.124
825.00,50.170
826.00,50.171
827.00,50.178
828.00,50.071
829.00,50.165
830.00,50.199
831.00,52.714
832.00,52.723
833.00,52.685
834.00,52.655
835.00,52.714
836.00,52.693
837.00,52.660
838.00,52.647
839.00,52.613
840.00,52.589
841.00,52.636
842.00,52.585
843.00,52.590
844.00,52.590
845.00,52.565
846.00,52.605
847.00,52.564
848.00,52.534
849.00,52.494
850.00,52.492
851.00,52.405
852.00,52.448
853.00,52.409
854.00,52.391
855.00,52.327
856.00,52.323
857.00,52.326
858.00,52.329
859.00,52.294
860.00,52.283
861.00,52.310
862.00,52.242
863.00,52.258
864.00,52.238
865.00,52.241
866.00,52.235
867.00,52.217
868.00,52.209
869.00,52.198
870.00,52.208
871.00,52.223
872.00,52.231
873.00,52.183
874.00,52.195
875.00,52.174
876.00,52.160
877.00,52.152
878.00,52.141
879.00,52.147
880.00,52.144
881.00,52.099
882.00,52.284
883.00,52.092
884.00,52.093
885.00,52.060
886.00,52.052
887.00,52.038
888.00,52.027
889.00,51.999
890.00,51.999
891.00,51.959
892.00,51.949
893.00,51.927
894.00,51.913
895.00,51.891
896.00,51.860
897.00,51.867
898.00,51.852
899.00,51.846
900.00,51.865
901.00,51.839
902.00,51.833
903.00,51.804
904.00,51.790
905.00,51.830
906.00,51.766
907.00,51.767
908.00,51.729
909.00,51.696
910.00,51.688
911.00,51.704
912.00,51.662
913.00,51.636
914.00,51.626
915.00,51.602
916.00,51.611
917.00,51.549
918.00,51.578
919.00,51.555
920.00,51.528
921.00,51.460
922.00,51.612
923.00,51.474
924.00,51.446
925.00,51.432
926.00,51.411
927.00,51.420
928.00,51.399
929.00,51.381
930.00,51.348
931.00,51.339
932.00,51.312
933.00,51.312
934.00,51.297
935.00,51.283
936.00,51.276
937.00,51.239
938.00,51.230
939.00,51.224
940.00,51.187
941.00,51.212
942.00,51.037
943.00,51.165
944.00,51.128
945.00,51.118
946.00,51.109
947.00,51.080
948.00,51.064
949.00,51.039
950.00,51.038
951.00,51.005
952.00,50.974
953.00,50.958
954.00,50.941
955.00,50.896
956.00,50.889
957.00,50.858
958.00,50.858
959.00,50.826
960.00,50.815
961.00,50.777
962.00,50.799
963.00,50.755
964.00,50.725
965.00,50.748
966.00,50.742
967.00,50.697
968.00,50.724
969.00,50.741
970.00,50.691
971.00,50.710
972.00,50.652
973.00,50.740
974.00,50.670
975.00,50.681
976.00,50.716
977.00,50.690
978.00,50.721
979.00,50.694
980.00,50.722
981.00,50.698
982.00,50.689
983.00,50.690
984.00,50.678
985.00,50.690
986.00,50.647
987.00,50.673
988.00,50.612
989.00,50.631
990.00,50.634
991.00,50.613
992.00,50.614
993.00,50.592
994.00,50.568
995.00,50.561
996.00,50.566
997.00,50.529
998.00,50.511
999.00,50.525
1000.00,50.483
1001.00,50.490
1002.00,50.500
1003.00,50.514
1004.00,50.468
1005.00,50.440
1006.00,50.439
1007.00,50.429
1008.00,50.399
1009.00,50.399
1010.00,50.387
1011.00,50.370
1012.00,50.352
1013.00,50.349
1014.00,50.313
1015.00,50.326
1016.00,50.292
1017.00,50.281
1018.00,50.273
1019.00,50.260
1020.00,50.230
1021.00,50.207
1022.00,50.195
1023.00,50.166
1024.00,50.172
1025.00,50.159
1026.00,50.158
1027.00,50.122
1028.00,50.125
1029.00,50.118
1030.00,50.081
1031.00,50.086
1032.00,50.063
1033.00,50.052
1034.00,50.027
1035.00,49.996
1036.00,49.966
1037.00,49.952
1038.00,49.924
1039.00,49.907
1040.00,49.907
1041.00,49.857
1042.00,49.857
1043.00,49.853
1044.00,49.856
1045.00,49.860
1046.00,49.852
1047.00,49.855
1048.00,49.866
1049.00,49.870
1050.00,49.874
1051.00,49.895
1052.00,49.905
1053.00,49.912
1054.00,49.907
1055.00,49.913
1056.00,49.940
1057.00,49.937
1058.00,49.932
1059.00,49.928
1060.00,49.923
1061.00,49.929
1062.00,49.907
1063.00,49.914
1064.00,49.891
1065.00,49.898
1066.00,49.882
1067.00,49.870
1068.00,49.877
1069.00,49.838
1070.00,49.833
1071.00,49.809
1072.00,49.823
1073.00,49.808
1074.00,49.794
1075.00,49.797
1076.00,49.772
1077.00,49.759
1078.00,49.757
1079.00,49.743
1080.00,49.746
1081.00,49.729
1082.00,49.729
1083.00,49.718
1084.00,49.720
1085.00,49.703
1086.00,49.704
1087.00,49.704
1088.00,49.675
1089.00,49.673
1090.00,49.665
1091.00,49.651
1092.00,49.646
1093.00,49.611
1094.00,49.625
1095.00,49.606
1096.00,49.591
1097.00,49.584
1098.00,49.596
1099.00,49.566
1100.00,49.573
1101.00,49.544
1102.00,49.536
1103.00,49.536
1104.00,49.522
1105.00,49.509
1106.00,49.505
1107.00,49.473
1108.00,49.483
1109.00,49.478
1110.00,49.462
1111.00,49.466
1112.00,49.463
1113.00,49.449
1114.00,49.464
1115.00,49.448
1116.00,49.438
1117.00,49.429
1118.00,49.418
1119.00,49.412
1120.00,49.406
1121.00,49.384
1122.00,49.405
1123.00,49.389
1124.00,49.377
1125.00,49.370
1126.00,49.364
1127.00,49.359
1128.00,49.353
1129.00,49.330
1130.00,49.333
1131.00,49.325
1132.00,49.307
1133.00,49.308
1134.00,49.292
1135.00,49.271
1136.00,49.303
1137.00,49.276
1138.00,49.283
1139.00,49.279
1140.00,49.265
1141.00,49.260
1142.00,49.266
1143.00,49.263
1144.00,49.243
1145.00,49.249
1146.00,49.250
1147.00,49.243
1148.00,49.238
1149.00,49.235
1150.00,49.239
1151.00,49.222
1152.00,49.213
1153.00,49.210
1154.00,49.195
1155.00,49.216
1156.00,49.203
1157.00,49.199
1158.00,49.203
1159.00,49.189
1160.00,49.192
1161.00,49.191
1162.00,49.156
1163.00,49.165
1164.00,49.162
1165.00,49.148
1166.00,49.158
1167.00,49.157
1168.00,49.153
1169.00,49.163
1170.00,49.152
1171.00,49.141
1172.00,49.143
1173.00,49.127
1174.00,49.138
1175.00,49.139
1176.00,49.129
1177.00,49.130
1178.00,49.132
1179.00,49.128
1180.00,49.119
1181.00,49.142
1182.00,49.135
1183.00,49.125
1184.00,49.107
1185.00,49.135
1186.00,49.115
1187.00,49.117
1188.00,49.117
1189.00,49.108
1190.00,49.094
1191.00,49.101
1192.00,49.106
1193.00,49.088
1194.00,49.098
1195.00,49.078
1196.00,49.107
1197.00,49.110
1198.00,49.081
1199.00,49.094
1200.00,49.082
1201.00,49.081
1202.00,49.088
1203.00,49.077
1204.00,49.067
1205.00,49.083
1206.00,49.060
1207.00,49.073
1208.00,49.060
1209.00,49.048
1210.00,49.064
1211.00,49.057
1212.00,49.066
1213.00,49.051
1214.00,49.070
1215.00,49.056
1216.00,49.068
1217.00,49.064
1218.00,49.058
1219.00,49.072
1220.00,49.048
1221.00,49.060
1222.00,49.055
1223.00,49.064
1224.00,49.063
1225.00,49.056
1226.00,49.063
1227.00,49.057
1228.00,49.054
1229.00,49.051
1230.00,49.099
1231.00,49.094
1232.00,49.109
1233.00,49.098
1234.00,49.098
1235.00,49.097
1236.00,49.090
1237.00,49.091
1238.00,49.100
1239.00,49.087
1240.00,49.096
1241.00,49.108
1242.00,49.098
1243.00,49.109
1244.00,49.098
1245.00,49.099
1246.00,49.116
1247.00,49.107
1248.00,49.110
1249.00,49.119
1250.00,49.104
1251.00,49.116
1252.00,49.127
1253.00,49.119
1254.00,49.138
1255.00,49.140
1256.00,49.097
1257.00,49.071
1258.00,49.159
1259.00,49.137
1260.00,49.160
1261.00,49.150
1262.00,49.146
1263.00,49.151
1264.00,49.154
1265.00,49.175
1266.00,49.165
1267.00,49.161
1268.00,49.189
1269.00,49.169
1270.00,49.193
1271.00,49.202
1272.00,49.201
1273.00,49.193
1274.00,49.208
1275.00,49.198
1276.00,49.212
1277.00,49.206
1278.00,49.223
1279.00,49.229
1280.00,49.220
1281.00,49.245
1282.00,49.254
1283.00,49.215
1284.00,49.237
1285.00,49.218
1286.00,49.226
1287.00,49.225
1288.00,49.248
1289.00,49.237
1290.00,49.247
1291.00,49.252
1292.00,49.273
1293.00,49.269
1294.00,49.268
1295.00,49.285
1296.00,49.287
1297.00,49.288
1298.00,49.315
1299.00,49.304
1300.00,49.309
1301.00,49.318
1302.00,49.309
1303.00,49.368
1304.00,49.343
1305.00,49.336
1306.00,49.346
1307.00,49.356
1308.00,49.351
1309.00,49.370
1310.00,49.372
1311.00,49.352
1312.00,49.353
1313.00,49.342
1314.00,49.374
1315.00,49.377
1316.00,49.371
1317.00,49.398
1318.00,49.392
1319.00,49.384
1320.00,49.425
1321.00,49.550
1322.00,49.547
1323.00,49.545
1324.00,49.556
1325.00,49.530
1326.00,49.559
1327.00,49.546
1328.00,49.545
1329.00,49.555
1330.00,49.549
1331.00,49.552
1332.00,49.558
1333.00,49.564
1334.00,49.601
1335.00,49.609
1336.00,49.621
1337.00,49.665
1338.00,49.718
1339.00,49.760
1340.00,49.825
1341.00,49.871
1342.00,49.961
1343.00,50.012
1344.00,50.048
1345.00,50.115
1346.00,50.163
1347.00,50.173
1348.00,50.203
1349.00,50.218
1350.00,50.221
1351.00,50.235
1352.00,50.229
1353.00,50.253
1354.00,50.259
1355.00,50.224
1356.00,50.266
1357.00,50.279
1358.00,50.279
1359.00,50.319
1360.00,50.314
1361.00,50.168
1362.00,50.252
1363.00,50.307
1364.00,50.274
1365.00,50.264
1366.00,50.289
1367.00,50.260
1368.00,50.260
1369.00,50.271
1370.00,50.252
1371.00,50.243
1372.00,50.255
1373.00,50.259
1374.00,50.281
1375.00,50.249
1376.00,50.241
1377.00,50.228
1378.00,50.418
1379.00,50.213
1380.00,50.233
1381.00,50.202
1382.00,50.213
1383.00,50.224
1384.00,50.206
1385.00,50.217
1386.00,50.253
1387.00,50.217
1388.00,50.200
1389.00,50.251
1390.00,50.278
1391.00,50.211
1392.00,50.245
1393.00,50.264
1394.00,50.232
1395.00,50.226
1396.00,50.204
1397.00,50.252
1398.00,50.246
1399.00,50.233
1400.00,50.219
1401.00,50.252
1402.00,50.291
1403.00,50.253
1404.00,50.270
1405.00,50.293
1406.00,50.291
1407.00,50.297
1408.00,50.298
1409.00,50.302
1410.00,50.332
1411.00,50.322
1412.00,50.365
1413.00,50.300
1414.00,50.334
1415.00,50.371
1416.00,50.386
1417.00,50.394
1418.00,50.391
1419.00,50.389
1420.00,50.420
1421.00,50.429
1422.00,50.450
1423.00,50.460
1424.00,50.474
1425.00,50.484
1426.00,50.500
1427.00,50.515
1428.00,50.527
1429.00,50.537
1430.00,50.549
1431.00,50.571
1432.00,50.574
1433.00,50.604
1434.00,50.607
1435.00,50.624
1436.00,50.657
1437.00,50.648
1438.00,50.673
1439.00,50.686
1440.00,50.689
1441.00,50.709
1442.00,50.706
1443.00,50.740
1444.00,50.759
1445.00,50.751
1446.00,50.762
1447.00,50.800
1448.00,50.817
1449.00,50.823
1450.00,50.842
1451.00,50.850
1452.00,50.869
1453.00,50.885
1454.00,50.887
1455.00,50.926
1456.00,50.947
1457.00,50.933
1458.00,50.954
1459.00,50.969
1460.00,50.989
1461.00,51.010
1462.00,51.023
1463.00,51.042
1464.00,51.050
1465.00,51.047
1466.00,51.065
1467.00,51.091
1468.00,51.111
1469.00,51.132
1470.00,51.131
1471.00,51.151
1472.00,51.158
1473.00,51.151
1474.00,51.194
1475.00,51.194
1476.00,51.203
1477.00,51.220
1478.00,51.232
1479.00,51.244
1480.00,51.263
1481.00,51.253
1482.00,51.288
1483.00,51.302
1484.00,51.315
1485.00,51.333
1486.00,51.336
1487.00,51.354
1488.00,51.385
1489.00,51.393
1490.00,51.403
1491.00,51.399
1492.00,51.412
1493.00,51.414
1494.00,51.428
1495.00,51.438
1496.00,51.460
1497.00,51.473
1498.00,51.466
1499.00,51.487
1500.00,51.529
1501.00, 
1502.00, 
1503.00, 
1504.00, 
1505.00, 
1506.00, 
1507.00, 
1508.00, 
1509.00, 
1510.00, 
1511.00, 
1512.00, 
1513.00, 
1514.00, 
1515.00, 
1516.00, 
1517.00, 
1518.00, 
1519.00, 
1520.00, 
1521.00, 
1522.00, 
1523.00, 
1524.00, 
1525.00, 
1526.00, 
1527.00, 
1528.00, 
1529.00, 
1530.00, 
1531.00, 
1532.00, 
1533.00, 
1534.00, 
1535.00, 
1536.00, 
1537.00, 
1538.00, 
1539.00, 
1540.00, 
1541.00, 
1542.00, 
1543.00, 
1544.00, 
1545.00, 
1546.00, 
1547.00, 
1548.00, 
1549.00, 
1550.00, 
1551.00, 
1552.00, 
1553.00, 
1554.00, 
1555.00, 
1556.00, 
1557.00, 
1558.00, 
1559.00, 
1560.00, 
1561.00, 
1562.00, 
1563.00, 
1564.00, 
1565.00, 
1566.00, 
1567.00, 
1568.00, 
1569.00, 
1570.00, 
1571.00, 
1572.00, 
1573.00, 
1574.00, 
1575.00, 
1576.00, 
1577.00, 
1578.00, 
1579.00, 
1580.00, 
1581.00, 
1582.00, 
1583.00, 
1584.00, 
1585.00, 
1586.00, 
1587.00, 
1588.00, 
1589.00, 
1590.00, 
1591.00, 
1592.00, 
1593.00, 
1594.00, 
1595.00, 
1596.00, 
1597.00, 
1598.00, 
1599.00, 
1600.00, 
1601.00, 
1602.00, 
1603.00, 
1604.00, 
1605.00, 
1606.00, 
1607.00, 
1608.00, 
1609.00, 
1610.00, 
1611.00, 
1612.00, 
1613.00, 
1614.00, 
1615.00, 
1616.00, 
1617.00, 
1618.00, 
1619.00, 
1620.00, 
1621.00, 
1622.00, 
1623.00, 
1624.00, 
1625.00, 
1626.00, 
1627.00, 
1628.00, 
1629.00, 
1630.00, 
1631.00, 
1632.00, 
1633.00, 
1634.00, 
1635.00, 
1636.00, 
1637.00, 
1638.00, 
1639.00, 
1640.00, 
1641.00, 
1642.00, 
1643.00, 
1644.00, 
1645.00, 
1646.00, 
1647.00, 
1648.00, 
1649.00, 
1650.00, 
1651.00, 
1652.00, 
1653.00, 
1654.00, 
1655.00, 
1656.00, 
1657.00, 
1658.00, 
1659.00, 
1660.00, 
1661.00, 
1662.00, 
1663.00, 
1664.00, 
1665.00, 
1666.00, 
1667.00, 
1668.00, 
1669.00, 
1670.00, 
1671.00, 
1672.00, 
1673.00, 
1674.00, 
1675.00, 
1676.00, 
1677.00, 
1678.00, 
1679.00, 
1680.00, 
1681.00, 
1682.00, 
1683.00, 
1684.00, 
1685.00, 
1686.00, 
1687.00, 
1688.00, 
1689.00, 
1690.00, 
1691.00, 
1692.00, 
1693.00, 
1694.00, 
1695.00, 
1696.00, 
1697.00, 
1698.00, 
1699.00, 
1700.00, 
1701.00, 
1702.00, 
1703.00, 
1704.00, 
1705.00, 
1706.00, 
1707.00, 
1708.00, 
1709.00, 
1710.00, 
1711.00, 
1712.00, 
1713.00, 
1714.00, 
1715.00, 
1716.00, 
1717.00, 
1718.00, 
1719.00, 
1720.00, 
1721.00, 
1722.00, 
1723.00, 
1724.00, 
1725.00, 
1726.00, 
1727.00, 
1728.00, 
1729.00, 
1730.00, 
1731.00, 
1732.00, 
1733.00, 
1734.00, 
1735.00, 
1736.00, 
1737.00, 
1738.00, 
1739.00, 
1740.00, 
1741.00, 
1742.00, 
1743.00, 
1744.00, 
1745.00, 
1746.00, 
1747.00, 
1748.00, 
1749.00, 
1750.00, 
1751.00, 
1752.00, 
1753.00, 
1754.00, 
1755.00, 
1756.00, 
1757.00, 
1758.00, 
1759.00, 
1760.00, 
1761.00, 
1762.00, 
1763.00, 
1764.00, 
1765.00, 
1766.00, 
1767.00, 
1768.00, 
1769.00, 
1770.00, 
1771.00, 
1772.00, 
1773.00, 
1774.00, 
1775.00, 
1776.00, 
1777.00, 
1778.00, 
1779.00, 
1780.00, 
1781.00, 
1782.00, 
1783.00, 
1784.00, 
1785.00, 
1786.00, 
1787.00, 
1788.00, 
1789.00, 
1790.00, 
1791.00, 
1792.00, 
1793.00, 
1794.00, 
1795.00, 
1796.00, 
1797.00, 
1798.00, 
1799.00, 
1800.00, 
1801.00, 
1802.00, 
1803.00, 
1804.00, 
1805.00, 
1806.00, 
1807.00, 
1808.00, 
1809.00, 
1810.00, 
1811.00, 
1812.00, 
1813.00, 
1814.00, 
1815.00, 
1816.00, 
1817.00, 
1818.00, 
1819.00, 
1820.00, 
1821.00, 
1822.00, 
1823.00, 
1824.00, 
1825.00, 
1826.00, 
1827.00, 
1828.00, 
1829.00, 
1830.00, 
1831.00, 
1832.00, 
1833.00, 
1834.00, 
1835.00, 
1836.00, 
1837.00, 
1838.00, 
1839.00, 
1840.00, 
1841.00, 
1842.00, 
1843.00, 
1844.00, 
1845.00, 
1846.00, 
1847.00, 
1848.00, 
1849.00, 
1850.00, 
1851.00, 
1852.00, 
1853.00, 
1854.00, 
1855.00, 
1856.00, 
1857.00, 
1858.00, 
1859.00, 
1860.00, 
1861.00, 
1862.00, 
1863.00, 
1864.00, 
1865.00, 
1866.00, 
1867.00, 
1868.00, 
1869.00, 
1870.00, 
1871.00, 
1872.00, 
1873.00, 
1874.00, 
1875.00, 
1876.00, 
1877.00, 
1878.00, 
1879.00, 
1880.00, 
1881.00, 
1882.00, 
1883.00, 
1884.00, 
1885.00, 
1886.00, 
1887.00, 
1888.00, 
1889.00, 
1890.00, 
1891.00, 
1892.00, 
1893.00, 
1894.00, 
1895.00, 
1896.00, 
1897.00, 
1898.00, 
1899.00, 
1900.00, 
1901.00, 
1902.00, 
1903.00, 
1904.00, 
1905.00, 
1906.00, 
1907.00, 
1908.00, 
1909.00, 
1910.00, 
1911.00, 
1912.00, 
1913.00, 
1914.00, 
1915.00, 
1916.00, 
1917.00, 
1918.00, 
1919.00, 
1920.00, 
1921.00, 
1922.00, 
1923.00, 
1924.00, 
1925.00, 
1926.00, 
1927.00, 
1928.00, 
1929.00, 
1930.00, 
1931.00, 
1932.00, 
1933.00, 
1934.00, 
1935.00, 
1936.00, 
1937.00, 
1938.00, 
1939.00, 
1940.00, 
1941.00, 
1942.00, 
1943.00, 
1944.00, 
1945.00, 
1946.00, 
1947.00, 
1948.00, 
1949.00, 
1950.00, 
1951.00, 
1952.00, 
1953.00, 
1954.00, 
1955.00, 
1956.00, 
1957.00, 
1958.00, 
1959.00, 
1960.00, 
1961.00, 
1962.00, 
1963.00, 
1964.00, 
1965.00, 
1966.00, 
1967.00, 
1968.00, 
1969.00, 
1970.00, 
1971.00, 
1972.00, 
1973.00, 
1974.00, 
1975.00, 
1976.00, 
1977.00, 
1978.00, 
1979.00, 
1980.00, 
1981.00, 
1982.00, 
1983.00, 
1984.00, 
1985.00, 
1986.00, 
1987.00, 
1988.00, 
1989.00, 
1990.00, 
1991.00, 
1992.00, 
1993.00, 
1994.00, 
1995.00, 
1996.00, 
1997.00, 
1998.00, 
1999.00, 
2000.00, 
2001.00, 
2002.00, 
2003.00, 
2004.00, 
2005.00, 
2006.00, 
2007.00, 
2008.00, 
2009.00, 
2010.00, 
2011.00, 
2012.00, 
2013.00, 
2014.00, 
2015.00, 
2016.00, 
2017.00, 
2018.00, 
2019.00, 
2020.00, 
2021.00, 
2022.00, 
2023.00, 
2024.00, 
2025.00, 
2026.00, 
2027.00, 
2028.00, 
2029.00, 
2030.00, 
2031.00, 
2032.00, 
2033.00, 
2034.00, 
2035.00, 
2036.00, 
2037.00, 
2038.00, 
2039.00, 
2040.00, 
2041.00, 
2042.00, 
2043.00, 
2044.00, 
2045.00, 
2046.00, 
2047.00, 
2048.00, 
2049.00, 
2050.00, 
2051.00, 
2052.00, 
2053.00, 
2054.00, 
2055.00, 
2056.00, 
2057.00, 
2058.00, 
2059.00, 
2060.00, 
2061.00, 
2062.00, 
2063.00, 
2064.00, 
2065.00, 
2066.00, 
2067.00, 
2068.00, 
2069.00, 
2070.00, 
2071.00, 
2072.00, 
2073.00, 
2074.00, 
2075.00, 
2076.00, 
2077.00, 
2078.00, 
2079.00, 
2080.00, 
2081.00, 
2082.00, 
2083.00, 
2084.00, 
2085.00, 
2086.00, 
2087.00, 
2088.00, 
2089.00, 
2090.00, 
2091.00, 
2092.00, 
2093.00, 
2094.00, 
2095.00, 
2096.00, 
2097.00, 
2098.00, 
2099.00, 
2100.00, 
2101.00, 
2102.00, 
2103.00, 
2104.00, 
2105.00, 
2106.00, 
2107.00, 
2108.00, 
2109.00, 
2110.00, 
2111.00, 
2112.00, 
2113.00, 
2114.00, 
2115.00, 
2116.00, 
2117.00, 
2118.00, 
2119.00, 
2120.00, 
2121.00, 
2122.00, 
2123.00, 
2124.00, 
2125.00, 
2126.00, 
2127.00, 
2128.00, 
2129.00, 
2130.00, 
2131.00, 
2132.00, 
2133.00, 
2134.00, 
2135.00, 
2136.00, 
2137.00, 
2138.00, 
2139.00, 
2140.00, 
2141.00, 
2142.00, 
2143.00, 
2144.00, 
2145.00, 
2146.00, 
2147.00, 
2148.00, 
2149.00, 
2150.00, 
2151.00, 
2152.00, 
2153.00, 
2154.00, 
2155.00, 
2156.00, 
2157.00, 
2158.00, 
2159.00, 
2160.00, 
2161.00, 
2162.00, 
2163.00, 
2164.00, 
2165.00, 
2166.00, 
2167.00, 
2168.00, 
2169.00, 
2170.00, 
2171.00, 
2172.00, 
2173.00, 
2174.00, 
2175.00, 
2176.00, 
2177.00, 
2178.00, 
2179.00, 
2180.00, 
2181.00, 
2182.00, 
2183.00, 
2184.00, 
2185.00, 
2186.00, 
2187.00, 
2188.00, 
2189.00, 
2190.00, 
2191.00, 
2192.00, 
2193.00, 
2194.00, 
2195.00, 
2196.00, 
2197.00, 
2198.00, 
2199.00, 
2200.00, 
2201.00, 
2202.00, 
2203.00, 
2204.00, 
2205.00, 
2206.00, 
2207.00, 
2208.00, 
2209.00, 
2210.00, 
2211.00, 
2212.00, 
2213.00, 
2214.00, 
2215.00, 
2216.00, 
2217.00, 
2218.00, 
2219.00, 
2220.00, 
2221.00, 
2222.00, 
2223.00, 
2224.00, 
2225.00, 
2226.00, 
2227.00, 
2228.00, 
2229.00, 
2230.00, 
2231.00, 
2232.00, 
2233.00, 
2234.00, 
2235.00, 
2236.00, 
2237.00, 
2238.00, 
2239.00, 
2240.00, 
2241.00, 
2242.00, 
2243.00, 
2244.00, 
2245.00, 
2246.00, 
2247.00, 
2248.00, 
2249.00, 
2250.00, 
2251.00, 
2252.00, 
2253.00, 
2254.00, 
2255.00, 
2256.00, 
2257.00, 
2258.00, 
2259.00, 
2260.00, 
2261.00, 
2262.00, 
2263.00, 
2264.00, 
2265.00, 
2266.00, 
2267.00, 
2268.00, 
2269.00, 
2270.00, 
2271.00, 
2272.00, 
2273.00, 
2274.00, 
2275.00, 
2276.00, 
2277.00, 
2278.00, 
2279.00, 
2280.00, 
2281.00, 
2282.00, 
2283.00, 
2284.00, 
2285.00, 
2286.00, 
2287.00, 
2288.00, 
2289.00, 
2290.00, 
2291.00, 
2292.00, 
2293.00, 
2294.00, 
2295.00, 
2296.00, 
2297.00, 
2298.00, 
2299.00, 
2300.00, 
2301.00, 
2302.00, 
2303.00, 
2304.00, 
2305.00, 
2306.00, 
2307.00, 
2308.00, 
2309.00, 
2310.00, 
2311.00, 
2312.00, 
2313.00, 
2314.00, 
2315.00, 
2316.00, 
2317.00, 
2318.00, 
2319.00, 
2320.00, 
2321.00, 
2322.00, 
2323.00, 
2324.00, 
2325.00, 
2326.00, 
2327.00, 
2328.00, 
2329.00, 
2330.00, 
2331.00, 
2332.00, 
2333.00, 
2334.00, 
2335.00, 
2336.00, 
2337.00, 
2338.00, 
2339.00, 
2340.00, 
2341.00, 
2342.00, 
2343.00, 
2344.00, 
2345.00, 
2346.00, 
2347.00, 
2348.00, 
2349.00, 
2350.00, 
2351.00, 
2352.00, 
2353.00, 
2354.00, 
2355.00, 
2356.00, 
2357.00, 
2358.00, 
2359.00, 
2360.00, 
2361.00, 
2362.00, 
2363.00, 
2364.00, 
2365.00, 
2366.00, 
2367.00, 
2368.00, 
2369.00, 
2370.00, 
2371.00, 
2372.00, 
2373.00, 
2374.00, 
2375.00, 
2376.00, 
2377.00, 
2378.00, 
2379.00, 
2380.00, 
2381.00, 
2382.00, 
2383.00, 
2384.00, 
2385.00, 
2386.00, 
2387.00, 
2388.00, 
2389.00, 
2390.00, 
2391.00, 
2392.00, 
2393.00, 
2394.00, 
2395.00, 
2396.00, 
2397.00, 
2398.00, 
2399.00, 
2400.00, 
2401.00, 
2402.00, 
2403.00, 
2404.00, 
2405.00, 
2406.00, 
2407.00, 
2408.00, 
2409.00, 
2410.00, 
2411.00, 
2412.00, 
2413.00, 
2414.00, 
2415.00, 
2416.00, 
2417.00, 
2418.00, 
2419.00, 
2420.00, 
2421.00, 
2422.00, 
2423.00, 
2424.00, 
2425.00, 
2426.00, 
2427.00, 
2428.00, 
2429.00, 
2430.00, 
2431.00, 
2432.00, 
2433.00, 
2434.00, 
2435.00, 
2436.00, 
2437.00, 
2438.00, 
2439.00, 
2440.00, 
2441.00, 
2442.00, 
2443.00, 
2444.00, 
2445.00, 
2446.00, 
2447.00, 
2448.00, 
2449.00, 
2450.00, 
2451.00, 
2452.00, 
2453.00, 
2454.00, 
2455.00, 
2456.00, 
2457.00, 
2458.00, 
2459.00, 
2460.00, 
2461.00, 
2462.00, 
2463.00, 
2464.00, 
2465.00, 
2466.00, 
2467.00, 
2468.00, 
2469.00, 
2470.00, 
2471.00, 
2472.00, 
2473.00, 
2474.00, 
2475.00, 
2476.00, 
2477.00, 
2478.00, 
2479.00, 
2480.00, 
2481.00, 
2482.00, 
2483.00, 
2484.00, 
2485.00, 
2486.00, 
2487.00, 
2488.00, 
2489.00, 
2490.00, 
2491.00, 
2492.00, 
2493.00, 
2494.00, 
2495.00, 
2496.00, 
2497.00, 
2498.00, 
2499.00, 
2500.00, 
2501.00, 
2502.00, 
2503.00, 
2504.00, 
2505.00, 
2506.00, 
2507.00, 
2508.00, 
2509.00, 
2510.00, 
2511.00, 
2512.00, 
2513.00, 
2514.00, 
2515.00, 
2516.00, 
2517.00, 
2518.00, 
2519.00, 
2520.00, 
2521.00, 
2522.00, 
2523.00, 
2524.00, 
2525.00, 
2526.00, 
2527.00, 
2528.00, 
2529.00, 
2530.00, 
2531.00, 
2532.00, 
2533.00, 
2534.00, 
2535.00, 
2536.00, 
2537.00, 
2538.00, 
2539.00, 
2540.00, 
2541.00, 
2542.00, 
2543.00, 
2544.00, 
2545.00, 
2546.00, 
2547.00, 
2548.00, 
2549.00, 
2550.00, 
2551.00, 
2552.00, 
2553.00, 
2554.00, 
2555.00, 
2556.00, 
2557.00, 
2558.00, 
2559.00, 
2560.00, 
2561.00, 
2562.00, 
2563.00, 
2564.00, 
2565.00, 
2566.00, 
2567.00, 
2568.00, 
2569.00, 
2570.00, 
2571.00, 
2572.00, 
2573.00, 
2574.00, 
2575.00, 
2576.00, 
2577.00, 
2578.00, 
2579.00, 
2580.00, 
2581.00, 
2582.00, 
2583.00, 
2584.00, 
2585.00, 
2586.00, 
2587.00, 
2588.00, 
2589.00, 
2590.00, 
2591.00, 
2592.00, 
2593.00, 
2594.00, 
2595.00, 
2596.00, 
2597.00, 
2598.00, 
2599.00, 
2600.00, 
