"2cP2 - RawData"
"Wavelength nm.","T%"
200.00,0.004
201.00,0.002
202.00,0.000
203.00,0.001
204.00,0.001
205.00,0.003
206.00,0.003
207.00,0.002
208.00,0.001
209.00,0.004
210.00,-0.000
211.00,-0.001
212.00,0.001
213.00,0.001
214.00,0.002
215.00,0.001
216.00,0.004
217.00,0.005
218.00,0.004
219.00,0.002
220.00,0.000
221.00,0.001
222.00,-0.000
223.00,0.003
224.00,0.002
225.00,0.000
226.00,0.002
227.00,-0.000
228.00,0.001
229.00,0.002
230.00,0.001
231.00,-0.000
232.00,0.001
233.00,0.000
234.00,0.002
235.00,0.001
236.00,-0.001
237.00,-0.001
238.00,0.000
239.00,0.001
240.00,0.001
241.00,0.002
242.00,-0.002
243.00,0.002
244.00,-0.000
245.00,0.000
246.00,0.001
247.00,0.001
248.00,-0.001
249.00,0.001
250.00,0.001
251.00,-0.000
252.00,0.000
253.00,0.002
254.00,0.002
255.00,-0.000
256.00,0.001
257.00,0.000
258.00,0.001
259.00,0.000
260.00,-0.000
261.00,0.001
262.00,-0.002
263.00,-0.000
264.00,0.001
265.00,0.000
266.00,-0.000
267.00,-0.001
268.00,0.001
269.00,0.001
270.00,0.000
271.00,0.000
272.00,0.000
273.00,-0.000
274.00,-0.002
275.00,0.000
276.00,0.001
277.00,0.001
278.00,0.001
279.00,0.001
280.00,0.000
281.00,0.001
282.00,0.001
283.00,0.001
284.00,0.002
285.00,0.000
286.00,0.001
287.00,0.001
288.00,0.000
289.00,0.001
290.00,0.002
291.00,-0.000
292.00,-0.000
293.00,-0.000
294.00,0.000
295.00,-0.000
296.00,0.000
297.00,0.000
298.00,0.001
299.00,0.001
300.00,0.002
301.00,0.005
302.00,0.007
303.00,0.009
304.00,0.012
305.00,0.018
306.00,0.032
307.00,0.048
308.00,0.074
309.00,0.117
310.00,0.164
311.00,0.223
312.00,0.300
313.00,0.414
314.00,0.544
315.00,0.703
316.00,0.904
317.00,1.119
318.00,1.401
319.00,1.718
320.00,2.091
321.00,2.515
322.00,2.970
323.00,3.509
324.00,4.082
325.00,4.617
326.00,5.218
327.00,5.907
328.00,6.621
329.00,7.310
330.00,8.062
331.00,8.829
332.00,9.601
333.00,10.431
334.00,11.157
335.00,12.012
336.00,12.800
337.00,13.593
338.00,14.382
339.00,15.091
340.00,15.859
341.00,16.577
342.00,17.261
343.00,17.969
344.00,18.589
345.00,19.122
346.00,19.764
347.00,20.294
348.00,20.879
349.00,21.357
350.00,21.830
351.00,22.240
352.00,22.656
353.00,23.045
354.00,23.418
355.00,23.761
356.00,24.084
357.00,24.389
358.00,24.684
359.00,24.942
360.00,25.184
361.00,25.385
362.00,25.616
363.00,25.792
364.00,26.024
365.00,26.093
366.00,26.258
367.00,26.376
368.00,26.453
369.00,26.504
370.00,26.567
371.00,26.632
372.00,26.674
373.00,26.706
374.00,26.654
375.00,26.662
376.00,26.602
377.00,26.518
378.00,26.507
379.00,26.457
380.00,26.425
381.00,26.426
382.00,26.439
383.00,26.409
384.00,26.455
385.00,26.487
386.00,26.502
387.00,26.570
388.00,26.597
389.00,26.644
390.00,26.650
391.00,26.679
392.00,26.714
393.00,26.694
394.00,26.710
395.00,26.745
396.00,26.755
397.00,26.747
398.00,26.761
399.00,26.740
400.00,26.766
401.00,26.753
402.00,26.774
403.00,26.735
404.00,26.756
405.00,26.728
406.00,26.718
407.00,26.663
408.00,26.700
409.00,26.607
410.00,26.584
411.00,26.530
412.00,26.484
413.00,26.457
414.00,26.435
415.00,26.468
416.00,26.446
417.00,26.437
418.00,26.468
419.00,26.480
420.00,26.478
421.00,26.482
422.00,26.502
423.00,26.485
424.00,26.515
425.00,26.570
426.00,26.583
427.00,26.600
428.00,26.642
429.00,26.627
430.00,26.673
431.00,26.684
432.00,26.702
433.00,26.785
434.00,26.792
435.00,26.855
436.00,26.905
437.00,26.963
438.00,27.025
439.00,27.076
440.00,27.124
441.00,27.180
442.00,27.216
443.00,27.327
444.00,27.384
445.00,27.466
446.00,27.490
447.00,27.511
448.00,27.706
449.00,27.822
450.00,27.896
451.00,27.953
452.00,28.075
453.00,28.150
454.00,28.242
455.00,28.342
456.00,28.464
457.00,28.534
458.00,28.636
459.00,28.730
460.00,28.857
461.00,28.941
462.00,29.049
463.00,29.175
464.00,29.273
465.00,29.373
466.00,29.481
467.00,29.597
468.00,29.683
469.00,29.791
470.00,29.882
471.00,29.966
472.00,30.062
473.00,30.118
474.00,30.202
475.00,30.335
476.00,30.408
477.00,30.536
478.00,30.652
479.00,30.793
480.00,30.934
481.00,31.075
482.00,31.181
483.00,31.299
484.00,31.459
485.00,31.617
486.00,31.713
487.00,31.861
488.00,31.962
489.00,32.087
490.00,32.284
491.00,32.365
492.00,32.489
493.00,32.587
494.00,32.752
495.00,32.784
496.00,32.917
497.00,33.032
498.00,33.123
499.00,33.279
500.00,33.426
501.00,33.561
502.00,33.641
503.00,33.787
504.00,33.845
505.00,34.004
506.00,34.098
507.00,34.203
508.00,34.268
509.00,34.399
510.00,34.548
511.00,34.579
512.00,34.719
513.00,34.841
514.00,34.845
515.00,35.121
516.00,35.186
517.00,35.309
518.00,35.407
519.00,35.548
520.00,35.566
521.00,35.623
522.00,35.736
523.00,35.820
524.00,35.878
525.00,35.995
526.00,36.068
527.00,36.210
528.00,36.263
529.00,36.383
530.00,36.422
531.00,36.581
532.00,36.658
533.00,36.656
534.00,36.889
535.00,36.927
536.00,37.038
537.00,37.090
538.00,37.195
539.00,37.220
540.00,37.301
541.00,37.397
542.00,37.404
543.00,37.520
544.00,37.586
545.00,37.648
546.00,37.689
547.00,37.798
548.00,37.862
549.00,37.931
550.00,38.037
551.00,38.103
552.00,38.220
553.00,38.266
554.00,38.316
555.00,38.413
556.00,38.440
557.00,38.484
558.00,38.560
559.00,38.619
560.00,38.640
561.00,38.718
562.00,38.752
563.00,38.782
564.00,38.907
565.00,38.906
566.00,38.962
567.00,39.006
568.00,38.977
569.00,39.054
570.00,39.081
571.00,39.107
572.00,39.200
573.00,39.151
574.00,39.234
575.00,39.267
576.00,39.330
577.00,39.384
578.00,39.452
579.00,39.500
580.00,39.608
581.00,39.681
582.00,39.751
583.00,39.805
584.00,39.892
585.00,39.926
586.00,39.930
587.00,39.968
588.00,40.083
589.00,40.141
590.00,40.214
591.00,40.217
592.00,40.170
593.00,40.213
594.00,40.278
595.00,40.370
596.00,40.431
597.00,40.475
598.00,40.644
599.00,40.669
600.00,40.612
601.00,40.685
602.00,40.680
603.00,40.795
604.00,40.863
605.00,40.732
606.00,40.854
607.00,40.934
608.00,41.041
609.00,41.035
610.00,41.045
611.00,41.123
612.00,41.060
613.00,41.047
614.00,41.102
615.00,41.147
616.00,41.278
617.00,41.281
618.00,41.282
619.00,41.266
620.00,41.345
621.00,41.554
622.00,41.566
623.00,41.632
624.00,41.699
625.00,41.743
626.00,41.730
627.00,41.840
628.00,41.858
629.00,41.918
630.00,41.950
631.00,41.991
632.00,42.057
633.00,42.152
634.00,42.205
635.00,42.274
636.00,42.344
637.00,42.428
638.00,42.485
639.00,42.502
640.00,42.570
641.00,42.574
642.00,42.685
643.00,42.731
644.00,42.842
645.00,42.857
646.00,42.906
647.00,42.993
648.00,43.027
649.00,43.101
650.00,43.139
651.00,43.199
652.00,43.337
653.00,43.338
654.00,43.471
655.00,43.552
656.00,43.623
657.00,43.827
658.00,43.887
659.00,43.813
660.00,43.867
661.00,43.968
662.00,44.002
663.00,44.125
664.00,44.208
665.00,44.192
666.00,44.219
667.00,44.395
668.00,44.487
669.00,44.479
670.00,44.610
671.00,44.613
672.00,44.627
673.00,44.727
674.00,44.856
675.00,44.906
676.00,44.968
677.00,45.072
678.00,45.063
679.00,45.052
680.00,45.116
681.00,45.285
682.00,45.430
683.00,45.379
684.00,45.639
685.00,45.666
686.00,45.590
687.00,45.760
688.00,45.777
689.00,45.914
690.00,45.909
691.00,45.985
692.00,46.167
693.00,46.159
694.00,46.270
695.00,46.315
696.00,46.347
697.00,46.384
698.00,46.478
699.00,46.579
700.00,46.647
701.00,46.655
702.00,46.807
703.00,46.923
704.00,46.878
705.00,46.858
706.00,46.978
707.00,47.134
708.00,46.973
709.00,47.155
710.00,47.391
711.00,47.155
712.00,47.229
713.00,47.364
714.00,47.414
715.00,47.462
716.00,47.593
717.00,47.577
718.00,47.641
719.00,47.727
720.00,47.738
721.00,51.798
722.00,51.801
723.00,51.774
724.00,51.860
725.00,51.791
726.00,51.865
727.00,51.783
728.00,51.777
729.00,51.801
730.00,51.859
731.00,51.869
732.00,51.847
733.00,51.912
734.00,51.993
735.00,51.895
736.00,51.957
737.00,51.947
738.00,51.996
739.00,51.980
740.00,52.010
741.00,52.004
742.00,52.045
743.00,52.021
744.00,51.968
745.00,52.019
746.00,51.957
747.00,51.989
748.00,51.945
749.00,51.904
750.00,51.943
751.00,51.852
752.00,51.960
753.00,51.893
754.00,51.954
755.00,51.863
756.00,51.885
757.00,51.842
758.00,51.896
759.00,51.915
760.00,51.896
761.00,51.851
762.00,51.868
763.00,51.907
764.00,51.828
765.00,51.885
766.00,51.920
767.00,51.993
768.00,51.986
769.00,51.947
770.00,51.978
771.00,52.016
772.00,51.954
773.00,51.874
774.00,51.889
775.00,51.967
776.00,51.956
777.00,51.917
778.00,51.949
779.00,51.916
780.00,51.863
781.00,51.903
782.00,51.872
783.00,51.808
784.00,51.837
785.00,51.882
786.00,51.850
787.00,51.859
788.00,51.842
789.00,51.820
790.00,51.766
791.00,51.810
792.00,51.758
793.00,51.739
794.00,51.712
795.00,51.724
796.00,51.706
797.00,51.588
798.00,51.718
799.00,51.619
800.00,51.625
801.00,51.697
802.00,51.598
803.00,51.621
804.00,51.555
805.00,51.542
806.00,51.554
807.00,51.490
808.00,51.467
809.00,51.449
810.00,51.444
811.00,51.461
812.00,51.519
813.00,51.418
814.00,51.361
815.00,51.352
816.00,51.353
817.00,51.367
818.00,51.282
819.00,51.256
820.00,51.217
821.00,51.278
822.00,51.307
823.00,51.175
824.00,51.198
825.00,51.249
826.00,51.236
827.00,51.230
828.00,51.108
829.00,51.192
830.00,51.192
831.00,53.647
832.00,53.640
833.00,53.595
834.00,53.593
835.00,53.541
836.00,53.536
837.00,53.529
838.00,53.496
839.00,53.480
840.00,53.448
841.00,53.461
842.00,53.442
843.00,53.414
844.00,53.397
845.00,53.335
846.00,53.345
847.00,53.282
848.00,53.298
849.00,53.215
850.00,53.177
851.00,53.211
852.00,53.160
853.00,53.111
854.00,53.067
855.00,53.005
856.00,53.003
857.00,52.983
858.00,52.970
859.00,52.936
860.00,52.913
861.00,52.900
862.00,52.864
863.00,52.877
864.00,52.852
865.00,52.829
866.00,52.993
867.00,52.808
868.00,52.791
869.00,52.756
870.00,52.759
871.00,52.767
872.00,52.750
873.00,52.696
874.00,52.692
875.00,52.677
876.00,52.665
877.00,52.671
878.00,52.634
879.00,52.637
880.00,52.630
881.00,52.582
882.00,52.612
883.00,52.565
884.00,52.563
885.00,52.546
886.00,52.525
887.00,52.495
888.00,52.476
889.00,52.455
890.00,52.446
891.00,52.391
892.00,52.362
893.00,52.349
894.00,52.341
895.00,52.317
896.00,52.297
897.00,52.282
898.00,52.269
899.00,52.225
900.00,52.247
901.00,52.213
902.00,52.223
903.00,52.176
904.00,52.163
905.00,52.152
906.00,52.117
907.00,52.127
908.00,52.089
909.00,52.000
910.00,52.130
911.00,52.039
912.00,52.010
913.00,51.964
914.00,51.969
915.00,51.953
916.00,51.937
917.00,51.900
918.00,51.918
919.00,51.853
920.00,51.787
921.00,51.851
922.00,51.820
923.00,51.796
924.00,51.756
925.00,51.733
926.00,51.707
927.00,51.712
928.00,51.705
929.00,51.655
930.00,51.620
931.00,51.626
932.00,51.590
933.00,51.595
934.00,51.567
935.00,51.561
936.00,51.550
937.00,51.507
938.00,51.496
939.00,51.490
940.00,51.441
941.00,51.457
942.00,51.296
943.00,51.410
944.00,51.364
945.00,51.365
946.00,51.343
947.00,51.317
948.00,51.286
949.00,51.259
950.00,51.267
951.00,51.239
952.00,51.207
953.00,51.190
954.00,51.171
955.00,51.130
956.00,51.113
957.00,51.109
958.00,51.078
959.00,50.996
960.00,51.018
961.00,50.996
962.00,51.014
963.00,50.951
964.00,50.949
965.00,50.941
966.00,50.924
967.00,50.938
968.00,50.931
969.00,50.941
970.00,50.893
971.00,50.910
972.00,50.864
973.00,50.943
974.00,50.866
975.00,50.896
976.00,50.902
977.00,50.902
978.00,50.927
979.00,50.942
980.00,50.911
981.00,50.897
982.00,50.881
983.00,50.887
984.00,50.864
985.00,50.887
986.00,50.852
987.00,50.863
988.00,50.804
989.00,50.829
990.00,50.825
991.00,50.812
992.00,50.812
993.00,50.785
994.00,50.770
995.00,50.750
996.00,50.756
997.00,50.730
998.00,50.706
999.00,50.731
1000.00,50.691
1001.00,50.672
1002.00,50.678
1003.00,50.700
1004.00,50.650
1005.00,50.634
1006.00,50.639
1007.00,50.637
1008.00,50.593
1009.00,50.571
1010.00,50.577
1011.00,50.542
1012.00,50.497
1013.00,50.534
1014.00,50.482
1015.00,50.492
1016.00,50.463
1017.00,50.448
1018.00,50.449
1019.00,50.439
1020.00,50.397
1021.00,50.388
1022.00,50.373
1023.00,50.344
1024.00,50.349
1025.00,50.331
1026.00,50.318
1027.00,50.289
1028.00,50.303
1029.00,50.265
1030.00,50.231
1031.00,50.241
1032.00,50.219
1033.00,50.209
1034.00,50.181
1035.00,50.166
1036.00,50.133
1037.00,50.119
1038.00,50.100
1039.00,50.052
1040.00,50.060
1041.00,50.018
1042.00,50.008
1043.00,49.991
1044.00,50.017
1045.00,50.001
1046.00,50.012
1047.00,50.014
1048.00,50.014
1049.00,50.033
1050.00,50.034
1051.00,50.064
1052.00,50.078
1053.00,50.073
1054.00,50.061
1055.00,50.068
1056.00,50.085
1057.00,50.078
1058.00,50.067
1059.00,50.066
1060.00,50.064
1061.00,50.058
1062.00,50.047
1063.00,50.060
1064.00,50.039
1065.00,50.045
1066.00,50.032
1067.00,50.016
1068.00,50.027
1069.00,49.988
1070.00,49.968
1071.00,49.962
1072.00,49.955
1073.00,49.947
1074.00,49.946
1075.00,49.929
1076.00,49.924
1077.00,49.912
1078.00,49.905
1079.00,49.911
1080.00,49.902
1081.00,49.868
1082.00,49.885
1083.00,49.862
1084.00,49.862
1085.00,49.844
1086.00,49.835
1087.00,49.831
1088.00,49.810
1089.00,49.824
1090.00,49.804
1091.00,49.788
1092.00,49.786
1093.00,49.761
1094.00,49.762
1095.00,49.745
1096.00,49.735
1097.00,49.723
1098.00,49.732
1099.00,49.708
1100.00,49.697
1101.00,49.683
1102.00,49.669
1103.00,49.665
1104.00,49.666
1105.00,49.646
1106.00,49.645
1107.00,49.629
1108.00,49.618
1109.00,49.616
1110.00,49.599
1111.00,49.596
1112.00,49.600
1113.00,49.566
1114.00,49.571
1115.00,49.578
1116.00,49.564
1117.00,49.542
1118.00,49.542
1119.00,49.546
1120.00,49.539
1121.00,49.509
1122.00,49.518
1123.00,49.507
1124.00,49.492
1125.00,49.481
1126.00,49.471
1127.00,49.462
1128.00,49.445
1129.00,49.443
1130.00,49.432
1131.00,49.425
1132.00,49.431
1133.00,49.427
1134.00,49.432
1135.00,49.439
1136.00,49.404
1137.00,49.402
1138.00,49.390
1139.00,49.389
1140.00,49.378
1141.00,49.361
1142.00,49.370
1143.00,49.380
1144.00,49.354
1145.00,49.367
1146.00,49.355
1147.00,49.349
1148.00,49.352
1149.00,49.343
1150.00,49.350
1151.00,49.343
1152.00,49.322
1153.00,49.325
1154.00,49.305
1155.00,49.319
1156.00,49.303
1157.00,49.307
1158.00,49.298
1159.00,49.298
1160.00,49.288
1161.00,49.297
1162.00,49.287
1163.00,49.282
1164.00,49.281
1165.00,49.264
1166.00,49.269
1167.00,49.274
1168.00,49.271
1169.00,49.271
1170.00,49.267
1171.00,49.245
1172.00,49.261
1173.00,49.256
1174.00,49.252
1175.00,49.255
1176.00,49.255
1177.00,49.246
1178.00,49.256
1179.00,49.261
1180.00,49.246
1181.00,49.254
1182.00,49.238
1183.00,49.230
1184.00,49.215
1185.00,49.230
1186.00,49.222
1187.00,49.222
1188.00,49.216
1189.00,49.227
1190.00,49.219
1191.00,49.212
1192.00,49.221
1193.00,49.221
1194.00,49.226
1195.00,49.209
1196.00,49.227
1197.00,49.213
1198.00,49.192
1199.00,49.199
1200.00,49.202
1201.00,49.197
1202.00,49.195
1203.00,49.193
1204.00,49.182
1205.00,49.202
1206.00,49.186
1207.00,49.194
1208.00,49.198
1209.00,49.202
1210.00,49.189
1211.00,49.171
1212.00,49.176
1213.00,49.154
1214.00,49.180
1215.00,49.143
1216.00,49.161
1217.00,49.168
1218.00,49.163
1219.00,49.184
1220.00,49.164
1221.00,49.171
1222.00,49.169
1223.00,49.184
1224.00,49.173
1225.00,49.161
1226.00,49.174
1227.00,49.166
1228.00,49.172
1229.00,49.171
1230.00,49.222
1231.00,49.193
1232.00,49.210
1233.00,49.223
1234.00,49.217
1235.00,49.206
1236.00,49.207
1237.00,49.198
1238.00,49.195
1239.00,49.187
1240.00,49.188
1241.00,49.223
1242.00,49.212
1243.00,49.213
1244.00,49.196
1245.00,49.204
1246.00,49.225
1247.00,49.231
1248.00,49.212
1249.00,49.221
1250.00,49.225
1251.00,49.222
1252.00,49.245
1253.00,49.225
1254.00,49.237
1255.00,49.255
1256.00,49.217
1257.00,49.179
1258.00,49.269
1259.00,49.241
1260.00,49.265
1261.00,49.265
1262.00,49.254
1263.00,49.249
1264.00,49.251
1265.00,49.262
1266.00,49.269
1267.00,49.260
1268.00,49.272
1269.00,49.266
1270.00,49.284
1271.00,49.288
1272.00,49.292
1273.00,49.289
1274.00,49.310
1275.00,49.299
1276.00,49.311
1277.00,49.312
1278.00,49.311
1279.00,49.317
1280.00,49.320
1281.00,49.324
1282.00,49.336
1283.00,49.323
1284.00,49.334
1285.00,49.323
1286.00,49.330
1287.00,49.328
1288.00,49.359
1289.00,49.337
1290.00,49.342
1291.00,49.358
1292.00,49.357
1293.00,49.361
1294.00,49.371
1295.00,49.380
1296.00,49.370
1297.00,49.383
1298.00,49.401
1299.00,49.386
1300.00,49.396
1301.00,49.393
1302.00,49.395
1303.00,49.441
1304.00,49.413
1305.00,49.435
1306.00,49.433
1307.00,49.447
1308.00,49.438
1309.00,49.443
1310.00,49.441
1311.00,49.426
1312.00,49.438
1313.00,49.428
1314.00,49.442
1315.00,49.453
1316.00,49.453
1317.00,49.471
1318.00,49.473
1319.00,49.474
1320.00,49.499
1321.00,49.631
1322.00,49.643
1323.00,49.628
1324.00,49.648
1325.00,49.611
1326.00,49.644
1327.00,49.637
1328.00,49.611
1329.00,49.625
1330.00,49.627
1331.00,49.620
1332.00,49.616
1333.00,49.617
1334.00,49.644
1335.00,49.656
1336.00,49.677
1337.00,49.711
1338.00,49.779
1339.00,49.810
1340.00,49.877
1341.00,49.940
1342.00,50.013
1343.00,50.065
1344.00,50.099
1345.00,50.150
1346.00,50.218
1347.00,50.220
1348.00,50.227
1349.00,50.259
1350.00,50.266
1351.00,50.286
1352.00,50.284
1353.00,50.289
1354.00,50.304
1355.00,50.275
1356.00,50.290
1357.00,50.312
1358.00,50.315
1359.00,50.337
1360.00,50.370
1361.00,50.402
1362.00,50.293
1363.00,50.346
1364.00,50.310
1365.00,50.314
1366.00,50.339
1367.00,50.302
1368.00,50.289
1369.00,50.323
1370.00,50.279
1371.00,50.281
1372.00,50.278
1373.00,50.290
1374.00,50.310
1375.00,50.276
1376.00,50.273
1377.00,50.234
1378.00,50.297
1379.00,50.268
1380.00,50.270
1381.00,50.238
1382.00,50.266
1383.00,50.263
1384.00,50.247
1385.00,50.250
1386.00,50.274
1387.00,50.240
1388.00,50.229
1389.00,50.244
1390.00,50.297
1391.00,50.225
1392.00,50.243
1393.00,50.288
1394.00,50.270
1395.00,50.264
1396.00,50.231
1397.00,50.293
1398.00,50.286
1399.00,50.242
1400.00,50.207
1401.00,50.259
1402.00,50.289
1403.00,50.248
1404.00,50.259
1405.00,50.306
1406.00,50.310
1407.00,50.335
1408.00,50.310
1409.00,50.327
1410.00,50.347
1411.00,50.334
1412.00,50.386
1413.00,50.329
1414.00,50.334
1415.00,50.382
1416.00,50.403
1417.00,50.411
1418.00,50.416
1419.00,50.406
1420.00,50.440
1421.00,50.461
1422.00,50.465
1423.00,50.477
1424.00,50.487
1425.00,50.490
1426.00,50.503
1427.00,50.506
1428.00,50.514
1429.00,50.533
1430.00,50.539
1431.00,50.556
1432.00,50.568
1433.00,50.580
1434.00,50.590
1435.00,50.630
1436.00,50.632
1437.00,50.639
1438.00,50.646
1439.00,50.681
1440.00,50.684
1441.00,50.685
1442.00,50.697
1443.00,50.735
1444.00,50.732
1445.00,50.740
1446.00,50.756
1447.00,50.786
1448.00,50.804
1449.00,50.807
1450.00,50.816
1451.00,50.851
1452.00,50.850
1453.00,50.874
1454.00,50.875
1455.00,50.893
1456.00,50.925
1457.00,50.922
1458.00,50.932
1459.00,50.967
1460.00,50.964
1461.00,50.978
1462.00,50.997
1463.00,50.999
1464.00,51.025
1465.00,51.020
1466.00,51.017
1467.00,51.060
1468.00,51.099
1469.00,51.092
1470.00,51.107
1471.00,51.115
1472.00,51.131
1473.00,51.137
1474.00,51.162
1475.00,51.167
1476.00,51.182
1477.00,51.176
1478.00,51.194
1479.00,51.216
1480.00,51.211
1481.00,51.223
1482.00,51.249
1483.00,51.276
1484.00,51.285
1485.00,51.293
1486.00,51.298
1487.00,51.315
1488.00,51.323
1489.00,51.340
1490.00,51.348
1491.00,51.342
1492.00,51.364
1493.00,51.365
1494.00,51.378
1495.00,51.388
1496.00,51.383
1497.00,51.407
1498.00,51.404
1499.00,51.417
1500.00,51.467
1501.00, 
1502.00, 
1503.00, 
1504.00, 
1505.00, 
1506.00, 
1507.00, 
1508.00, 
1509.00, 
1510.00, 
1511.00, 
1512.00, 
1513.00, 
1514.00, 
1515.00, 
1516.00, 
1517.00, 
1518.00, 
1519.00, 
1520.00, 
1521.00, 
1522.00, 
1523.00, 
1524.00, 
1525.00, 
1526.00, 
1527.00, 
1528.00, 
1529.00, 
1530.00, 
1531.00, 
1532.00, 
1533.00, 
1534.00, 
1535.00, 
1536.00, 
1537.00, 
1538.00, 
1539.00, 
1540.00, 
1541.00, 
1542.00, 
1543.00, 
1544.00, 
1545.00, 
1546.00, 
1547.00, 
1548.00, 
1549.00, 
1550.00, 
1551.00, 
1552.00, 
1553.00, 
1554.00, 
1555.00, 
1556.00, 
1557.00, 
1558.00, 
1559.00, 
1560.00, 
1561.00, 
1562.00, 
1563.00, 
1564.00, 
1565.00, 
1566.00, 
1567.00, 
1568.00, 
1569.00, 
1570.00, 
1571.00, 
1572.00, 
1573.00, 
1574.00, 
1575.00, 
1576.00, 
1577.00, 
1578.00, 
1579.00, 
1580.00, 
1581.00, 
1582.00, 
1583.00, 
1584.00, 
1585.00, 
1586.00, 
1587.00, 
1588.00, 
1589.00, 
1590.00, 
1591.00, 
1592.00, 
1593.00, 
1594.00, 
1595.00, 
1596.00, 
1597.00, 
1598.00, 
1599.00, 
1600.00, 
1601.00, 
1602.00, 
1603.00, 
1604.00, 
1605.00, 
1606.00, 
1607.00, 
1608.00, 
1609.00, 
1610.00, 
1611.00, 
1612.00, 
1613.00, 
1614.00, 
1615.00, 
1616.00, 
1617.00, 
1618.00, 
1619.00, 
1620.00, 
1621.00, 
1622.00, 
1623.00, 
1624.00, 
1625.00, 
1626.00, 
1627.00, 
1628.00, 
1629.00, 
1630.00, 
1631.00, 
1632.00, 
1633.00, 
1634.00, 
1635.00, 
1636.00, 
1637.00, 
1638.00, 
1639.00, 
1640.00, 
1641.00, 
1642.00, 
1643.00, 
1644.00, 
1645.00, 
1646.00, 
1647.00, 
1648.00, 
1649.00, 
1650.00, 
1651.00, 
1652.00, 
1653.00, 
1654.00, 
1655.00, 
1656.00, 
1657.00, 
1658.00, 
1659.00, 
1660.00, 
1661.00, 
1662.00, 
1663.00, 
1664.00, 
1665.00, 
1666.00, 
1667.00, 
1668.00, 
1669.00, 
1670.00, 
1671.00, 
1672.00, 
1673.00, 
1674.00, 
1675.00, 
1676.00, 
1677.00, 
1678.00, 
1679.00, 
1680.00, 
1681.00, 
1682.00, 
1683.00, 
1684.00, 
1685.00, 
1686.00, 
1687.00, 
1688.00, 
1689.00, 
1690.00, 
1691.00, 
1692.00, 
1693.00, 
1694.00, 
1695.00, 
1696.00, 
1697.00, 
1698.00, 
1699.00, 
1700.00, 
1701.00, 
1702.00, 
1703.00, 
1704.00, 
1705.00, 
1706.00, 
1707.00, 
1708.00, 
1709.00, 
1710.00, 
1711.00, 
1712.00, 
1713.00, 
1714.00, 
1715.00, 
1716.00, 
1717.00, 
1718.00, 
1719.00, 
1720.00, 
1721.00, 
1722.00, 
1723.00, 
1724.00, 
1725.00, 
1726.00, 
1727.00, 
1728.00, 
1729.00, 
1730.00, 
1731.00, 
1732.00, 
1733.00, 
1734.00, 
1735.00, 
1736.00, 
1737.00, 
1738.00, 
1739.00, 
1740.00, 
1741.00, 
1742.00, 
1743.00, 
1744.00, 
1745.00, 
1746.00, 
1747.00, 
1748.00, 
1749.00, 
1750.00, 
1751.00, 
1752.00, 
1753.00, 
1754.00, 
1755.00, 
1756.00, 
1757.00, 
1758.00, 
1759.00, 
1760.00, 
1761.00, 
1762.00, 
1763.00, 
1764.00, 
1765.00, 
1766.00, 
1767.00, 
1768.00, 
1769.00, 
1770.00, 
1771.00, 
1772.00, 
1773.00, 
1774.00, 
1775.00, 
1776.00, 
1777.00, 
1778.00, 
1779.00, 
1780.00, 
1781.00, 
1782.00, 
1783.00, 
1784.00, 
1785.00, 
1786.00, 
1787.00, 
1788.00, 
1789.00, 
1790.00, 
1791.00, 
1792.00, 
1793.00, 
1794.00, 
1795.00, 
1796.00, 
1797.00, 
1798.00, 
1799.00, 
1800.00, 
1801.00, 
1802.00, 
1803.00, 
1804.00, 
1805.00, 
1806.00, 
1807.00, 
1808.00, 
1809.00, 
1810.00, 
1811.00, 
1812.00, 
1813.00, 
1814.00, 
1815.00, 
1816.00, 
1817.00, 
1818.00, 
1819.00, 
1820.00, 
1821.00, 
1822.00, 
1823.00, 
1824.00, 
1825.00, 
1826.00, 
1827.00, 
1828.00, 
1829.00, 
1830.00, 
1831.00, 
1832.00, 
1833.00, 
1834.00, 
1835.00, 
1836.00, 
1837.00, 
1838.00, 
1839.00, 
1840.00, 
1841.00, 
1842.00, 
1843.00, 
1844.00, 
1845.00, 
1846.00, 
1847.00, 
1848.00, 
1849.00, 
1850.00, 
1851.00, 
1852.00, 
1853.00, 
1854.00, 
1855.00, 
1856.00, 
1857.00, 
1858.00, 
1859.00, 
1860.00, 
1861.00, 
1862.00, 
1863.00, 
1864.00, 
1865.00, 
1866.00, 
1867.00, 
1868.00, 
1869.00, 
1870.00, 
1871.00, 
1872.00, 
1873.00, 
1874.00, 
1875.00, 
1876.00, 
1877.00, 
1878.00, 
1879.00, 
1880.00, 
1881.00, 
1882.00, 
1883.00, 
1884.00, 
1885.00, 
1886.00, 
1887.00, 
1888.00, 
1889.00, 
1890.00, 
1891.00, 
1892.00, 
1893.00, 
1894.00, 
1895.00, 
1896.00, 
1897.00, 
1898.00, 
1899.00, 
1900.00, 
1901.00, 
1902.00, 
1903.00, 
1904.00, 
1905.00, 
1906.00, 
1907.00, 
1908.00, 
1909.00, 
1910.00, 
1911.00, 
1912.00, 
1913.00, 
1914.00, 
1915.00, 
1916.00, 
1917.00, 
1918.00, 
1919.00, 
1920.00, 
1921.00, 
1922.00, 
1923.00, 
1924.00, 
1925.00, 
1926.00, 
1927.00, 
1928.00, 
1929.00, 
1930.00, 
1931.00, 
1932.00, 
1933.00, 
1934.00, 
1935.00, 
1936.00, 
1937.00, 
1938.00, 
1939.00, 
1940.00, 
1941.00, 
1942.00, 
1943.00, 
1944.00, 
1945.00, 
1946.00, 
1947.00, 
1948.00, 
1949.00, 
1950.00, 
1951.00, 
1952.00, 
1953.00, 
1954.00, 
1955.00, 
1956.00, 
1957.00, 
1958.00, 
1959.00, 
1960.00, 
1961.00, 
1962.00, 
1963.00, 
1964.00, 
1965.00, 
1966.00, 
1967.00, 
1968.00, 
1969.00, 
1970.00, 
1971.00, 
1972.00, 
1973.00, 
1974.00, 
1975.00, 
1976.00, 
1977.00, 
1978.00, 
1979.00, 
1980.00, 
1981.00, 
1982.00, 
1983.00, 
1984.00, 
1985.00, 
1986.00, 
1987.00, 
1988.00, 
1989.00, 
1990.00, 
1991.00, 
1992.00, 
1993.00, 
1994.00, 
1995.00, 
1996.00, 
1997.00, 
1998.00, 
1999.00, 
2000.00, 
2001.00, 
2002.00, 
2003.00, 
2004.00, 
2005.00, 
2006.00, 
2007.00, 
2008.00, 
2009.00, 
2010.00, 
2011.00, 
2012.00, 
2013.00, 
2014.00, 
2015.00, 
2016.00, 
2017.00, 
2018.00, 
2019.00, 
2020.00, 
2021.00, 
2022.00, 
2023.00, 
2024.00, 
2025.00, 
2026.00, 
2027.00, 
2028.00, 
2029.00, 
2030.00, 
2031.00, 
2032.00, 
2033.00, 
2034.00, 
2035.00, 
2036.00, 
2037.00, 
2038.00, 
2039.00, 
2040.00, 
2041.00, 
2042.00, 
2043.00, 
2044.00, 
2045.00, 
2046.00, 
2047.00, 
2048.00, 
2049.00, 
2050.00, 
2051.00, 
2052.00, 
2053.00, 
2054.00, 
2055.00, 
2056.00, 
2057.00, 
2058.00, 
2059.00, 
2060.00, 
2061.00, 
2062.00, 
2063.00, 
2064.00, 
2065.00, 
2066.00, 
2067.00, 
2068.00, 
2069.00, 
2070.00, 
2071.00, 
2072.00, 
2073.00, 
2074.00, 
2075.00, 
2076.00, 
2077.00, 
2078.00, 
2079.00, 
2080.00, 
2081.00, 
2082.00, 
2083.00, 
2084.00, 
2085.00, 
2086.00, 
2087.00, 
2088.00, 
2089.00, 
2090.00, 
2091.00, 
2092.00, 
2093.00, 
2094.00, 
2095.00, 
2096.00, 
2097.00, 
2098.00, 
2099.00, 
2100.00, 
2101.00, 
2102.00, 
2103.00, 
2104.00, 
2105.00, 
2106.00, 
2107.00, 
2108.00, 
2109.00, 
2110.00, 
2111.00, 
2112.00, 
2113.00, 
2114.00, 
2115.00, 
2116.00, 
2117.00, 
2118.00, 
2119.00, 
2120.00, 
2121.00, 
2122.00, 
2123.00, 
2124.00, 
2125.00, 
2126.00, 
2127.00, 
2128.00, 
2129.00, 
2130.00, 
2131.00, 
2132.00, 
2133.00, 
2134.00, 
2135.00, 
2136.00, 
2137.00, 
2138.00, 
2139.00, 
2140.00, 
2141.00, 
2142.00, 
2143.00, 
2144.00, 
2145.00, 
2146.00, 
2147.00, 
2148.00, 
2149.00, 
2150.00, 
2151.00, 
2152.00, 
2153.00, 
2154.00, 
2155.00, 
2156.00, 
2157.00, 
2158.00, 
2159.00, 
2160.00, 
2161.00, 
2162.00, 
2163.00, 
2164.00, 
2165.00, 
2166.00, 
2167.00, 
2168.00, 
2169.00, 
2170.00, 
2171.00, 
2172.00, 
2173.00, 
2174.00, 
2175.00, 
2176.00, 
2177.00, 
2178.00, 
2179.00, 
2180.00, 
2181.00, 
2182.00, 
2183.00, 
2184.00, 
2185.00, 
2186.00, 
2187.00, 
2188.00, 
2189.00, 
2190.00, 
2191.00, 
2192.00, 
2193.00, 
2194.00, 
2195.00, 
2196.00, 
2197.00, 
2198.00, 
2199.00, 
2200.00, 
2201.00, 
2202.00, 
2203.00, 
2204.00, 
2205.00, 
2206.00, 
2207.00, 
2208.00, 
2209.00, 
2210.00, 
2211.00, 
2212.00, 
2213.00, 
2214.00, 
2215.00, 
2216.00, 
2217.00, 
2218.00, 
2219.00, 
2220.00, 
2221.00, 
2222.00, 
2223.00, 
2224.00, 
2225.00, 
2226.00, 
2227.00, 
2228.00, 
2229.00, 
2230.00, 
2231.00, 
2232.00, 
2233.00, 
2234.00, 
2235.00, 
2236.00, 
2237.00, 
2238.00, 
2239.00, 
2240.00, 
2241.00, 
2242.00, 
2243.00, 
2244.00, 
2245.00, 
2246.00, 
2247.00, 
2248.00, 
2249.00, 
2250.00, 
2251.00, 
2252.00, 
2253.00, 
2254.00, 
2255.00, 
2256.00, 
2257.00, 
2258.00, 
2259.00, 
2260.00, 
2261.00, 
2262.00, 
2263.00, 
2264.00, 
2265.00, 
2266.00, 
2267.00, 
2268.00, 
2269.00, 
2270.00, 
2271.00, 
2272.00, 
2273.00, 
2274.00, 
2275.00, 
2276.00, 
2277.00, 
2278.00, 
2279.00, 
2280.00, 
2281.00, 
2282.00, 
2283.00, 
2284.00, 
2285.00, 
2286.00, 
2287.00, 
2288.00, 
2289.00, 
2290.00, 
2291.00, 
2292.00, 
2293.00, 
2294.00, 
2295.00, 
2296.00, 
2297.00, 
2298.00, 
2299.00, 
2300.00, 
2301.00, 
2302.00, 
2303.00, 
2304.00, 
2305.00, 
2306.00, 
2307.00, 
2308.00, 
2309.00, 
2310.00, 
2311.00, 
2312.00, 
2313.00, 
2314.00, 
2315.00, 
2316.00, 
2317.00, 
2318.00, 
2319.00, 
2320.00, 
2321.00, 
2322.00, 
2323.00, 
2324.00, 
2325.00, 
2326.00, 
2327.00, 
2328.00, 
2329.00, 
2330.00, 
2331.00, 
2332.00, 
2333.00, 
2334.00, 
2335.00, 
2336.00, 
2337.00, 
2338.00, 
2339.00, 
2340.00, 
2341.00, 
2342.00, 
2343.00, 
2344.00, 
2345.00, 
2346.00, 
2347.00, 
2348.00, 
2349.00, 
2350.00, 
2351.00, 
2352.00, 
2353.00, 
2354.00, 
2355.00, 
2356.00, 
2357.00, 
2358.00, 
2359.00, 
2360.00, 
2361.00, 
2362.00, 
2363.00, 
2364.00, 
2365.00, 
2366.00, 
2367.00, 
2368.00, 
2369.00, 
2370.00, 
2371.00, 
2372.00, 
2373.00, 
2374.00, 
2375.00, 
2376.00, 
2377.00, 
2378.00, 
2379.00, 
2380.00, 
2381.00, 
2382.00, 
2383.00, 
2384.00, 
2385.00, 
2386.00, 
2387.00, 
2388.00, 
2389.00, 
2390.00, 
2391.00, 
2392.00, 
2393.00, 
2394.00, 
2395.00, 
2396.00, 
2397.00, 
2398.00, 
2399.00, 
2400.00, 
2401.00, 
2402.00, 
2403.00, 
2404.00, 
2405.00, 
2406.00, 
2407.00, 
2408.00, 
2409.00, 
2410.00, 
2411.00, 
2412.00, 
2413.00, 
2414.00, 
2415.00, 
2416.00, 
2417.00, 
2418.00, 
2419.00, 
2420.00, 
2421.00, 
2422.00, 
2423.00, 
2424.00, 
2425.00, 
2426.00, 
2427.00, 
2428.00, 
2429.00, 
2430.00, 
2431.00, 
2432.00, 
2433.00, 
2434.00, 
2435.00, 
2436.00, 
2437.00, 
2438.00, 
2439.00, 
2440.00, 
2441.00, 
2442.00, 
2443.00, 
2444.00, 
2445.00, 
2446.00, 
2447.00, 
2448.00, 
2449.00, 
2450.00, 
2451.00, 
2452.00, 
2453.00, 
2454.00, 
2455.00, 
2456.00, 
2457.00, 
2458.00, 
2459.00, 
2460.00, 
2461.00, 
2462.00, 
2463.00, 
2464.00, 
2465.00, 
2466.00, 
2467.00, 
2468.00, 
2469.00, 
2470.00, 
2471.00, 
2472.00, 
2473.00, 
2474.00, 
2475.00, 
2476.00, 
2477.00, 
2478.00, 
2479.00, 
2480.00, 
2481.00, 
2482.00, 
2483.00, 
2484.00, 
2485.00, 
2486.00, 
2487.00, 
2488.00, 
2489.00, 
2490.00, 
2491.00, 
2492.00, 
2493.00, 
2494.00, 
2495.00, 
2496.00, 
2497.00, 
2498.00, 
2499.00, 
2500.00, 
2501.00, 
2502.00, 
2503.00, 
2504.00, 
2505.00, 
2506.00, 
2507.00, 
2508.00, 
2509.00, 
2510.00, 
2511.00, 
2512.00, 
2513.00, 
2514.00, 
2515.00, 
2516.00, 
2517.00, 
2518.00, 
2519.00, 
2520.00, 
2521.00, 
2522.00, 
2523.00, 
2524.00, 
2525.00, 
2526.00, 
2527.00, 
2528.00, 
2529.00, 
2530.00, 
2531.00, 
2532.00, 
2533.00, 
2534.00, 
2535.00, 
2536.00, 
2537.00, 
2538.00, 
2539.00, 
2540.00, 
2541.00, 
2542.00, 
2543.00, 
2544.00, 
2545.00, 
2546.00, 
2547.00, 
2548.00, 
2549.00, 
2550.00, 
2551.00, 
2552.00, 
2553.00, 
2554.00, 
2555.00, 
2556.00, 
2557.00, 
2558.00, 
2559.00, 
2560.00, 
2561.00, 
2562.00, 
2563.00, 
2564.00, 
2565.00, 
2566.00, 
2567.00, 
2568.00, 
2569.00, 
2570.00, 
2571.00, 
2572.00, 
2573.00, 
2574.00, 
2575.00, 
2576.00, 
2577.00, 
2578.00, 
2579.00, 
2580.00, 
2581.00, 
2582.00, 
2583.00, 
2584.00, 
2585.00, 
2586.00, 
2587.00, 
2588.00, 
2589.00, 
2590.00, 
2591.00, 
2592.00, 
2593.00, 
2594.00, 
2595.00, 
2596.00, 
2597.00, 
2598.00, 
2599.00, 
2600.00, 
