"2cP3 - RawData"
"Wavelength nm.","T%"
200.00,0.002
201.00,0.004
202.00,0.001
203.00,0.002
204.00,0.003
205.00,0.003
206.00,0.003
207.00,0.001
208.00,-0.001
209.00,-0.001
210.00,0.004
211.00,0.002
212.00,-0.001
213.00,0.001
214.00,0.001
215.00,0.001
216.00,0.001
217.00,0.003
218.00,-0.001
219.00,0.002
220.00,-0.000
221.00,0.002
222.00,-0.000
223.00,0.003
224.00,0.003
225.00,0.002
226.00,0.000
227.00,0.001
228.00,-0.000
229.00,0.003
230.00,0.001
231.00,0.001
232.00,-0.001
233.00,-0.001
234.00,-0.001
235.00,-0.001
236.00,-0.000
237.00,-0.001
238.00,-0.001
239.00,0.003
240.00,0.001
241.00,0.000
242.00,0.001
243.00,0.000
244.00,-0.000
245.00,-0.001
246.00,0.000
247.00,-0.000
248.00,-0.000
249.00,0.000
250.00,0.001
251.00,0.001
252.00,0.001
253.00,0.001
254.00,-0.000
255.00,0.001
256.00,0.000
257.00,-0.001
258.00,-0.000
259.00,0.001
260.00,-0.000
261.00,0.000
262.00,0.001
263.00,0.001
264.00,0.002
265.00,0.000
266.00,-0.001
267.00,-0.001
268.00,0.001
269.00,0.001
270.00,0.001
271.00,-0.001
272.00,-0.001
273.00,-0.000
274.00,0.002
275.00,0.001
276.00,-0.001
277.00,-0.000
278.00,-0.001
279.00,0.001
280.00,0.001
281.00,0.001
282.00,0.000
283.00,-0.000
284.00,-0.001
285.00,0.002
286.00,-0.000
287.00,0.002
288.00,0.000
289.00,-0.000
290.00,-0.001
291.00,-0.001
292.00,-0.000
293.00,0.001
294.00,0.000
295.00,0.001
296.00,0.000
297.00,0.002
298.00,0.001
299.00,0.001
300.00,0.001
301.00,0.003
302.00,0.004
303.00,0.006
304.00,0.008
305.00,0.015
306.00,0.021
307.00,0.032
308.00,0.052
309.00,0.080
310.00,0.115
311.00,0.156
312.00,0.208
313.00,0.277
314.00,0.374
315.00,0.483
316.00,0.598
317.00,0.762
318.00,0.951
319.00,1.167
320.00,1.409
321.00,1.695
322.00,2.004
323.00,2.366
324.00,2.728
325.00,3.111
326.00,3.505
327.00,3.953
328.00,4.399
329.00,4.884
330.00,5.372
331.00,5.857
332.00,6.373
333.00,6.891
334.00,7.398
335.00,7.955
336.00,8.465
337.00,8.948
338.00,9.496
339.00,9.937
340.00,10.445
341.00,10.878
342.00,11.317
343.00,11.703
344.00,12.170
345.00,12.510
346.00,12.927
347.00,13.229
348.00,13.599
349.00,13.876
350.00,14.170
351.00,14.426
352.00,14.681
353.00,14.948
354.00,15.113
355.00,15.347
356.00,15.576
357.00,15.753
358.00,15.891
359.00,16.067
360.00,16.188
361.00,16.257
362.00,16.384
363.00,16.520
364.00,16.616
365.00,16.677
366.00,16.766
367.00,16.811
368.00,16.823
369.00,16.876
370.00,16.923
371.00,16.940
372.00,16.912
373.00,16.926
374.00,16.867
375.00,16.846
376.00,16.800
377.00,16.733
378.00,16.720
379.00,16.649
380.00,16.646
381.00,16.606
382.00,16.612
383.00,16.601
384.00,16.591
385.00,16.612
386.00,16.616
387.00,16.636
388.00,16.643
389.00,16.654
390.00,16.655
391.00,16.668
392.00,16.659
393.00,16.657
394.00,16.632
395.00,16.655
396.00,16.671
397.00,16.672
398.00,16.651
399.00,16.641
400.00,16.658
401.00,16.641
402.00,16.642
403.00,16.613
404.00,16.615
405.00,16.575
406.00,16.601
407.00,16.563
408.00,16.575
409.00,16.519
410.00,16.486
411.00,16.454
412.00,16.444
413.00,16.456
414.00,16.423
415.00,16.435
416.00,16.465
417.00,16.491
418.00,16.488
419.00,16.512
420.00,16.547
421.00,16.527
422.00,16.537
423.00,16.559
424.00,16.601
425.00,16.620
426.00,16.663
427.00,16.700
428.00,16.722
429.00,16.757
430.00,16.787
431.00,16.812
432.00,16.866
433.00,16.921
434.00,16.956
435.00,17.010
436.00,17.066
437.00,17.140
438.00,17.199
439.00,17.261
440.00,17.315
441.00,17.399
442.00,17.462
443.00,17.544
444.00,17.616
445.00,17.693
446.00,17.774
447.00,17.865
448.00,17.950
449.00,18.056
450.00,18.162
451.00,18.213
452.00,18.318
453.00,18.409
454.00,18.511
455.00,18.630
456.00,18.748
457.00,18.858
458.00,18.956
459.00,19.049
460.00,19.184
461.00,19.254
462.00,19.395
463.00,19.505
464.00,19.643
465.00,19.762
466.00,19.867
467.00,20.005
468.00,20.122
469.00,20.241
470.00,20.355
471.00,20.458
472.00,20.571
473.00,20.643
474.00,20.768
475.00,20.884
476.00,21.008
477.00,21.122
478.00,21.263
479.00,21.397
480.00,21.540
481.00,21.675
482.00,21.798
483.00,21.952
484.00,22.113
485.00,22.260
486.00,22.396
487.00,22.552
488.00,22.684
489.00,22.857
490.00,23.042
491.00,23.171
492.00,23.320
493.00,23.480
494.00,23.572
495.00,23.658
496.00,23.808
497.00,23.904
498.00,24.064
499.00,24.247
500.00,24.295
501.00,24.457
502.00,24.612
503.00,24.727
504.00,24.794
505.00,24.938
506.00,25.115
507.00,25.269
508.00,25.407
509.00,25.553
510.00,25.680
511.00,25.775
512.00,25.913
513.00,26.042
514.00,26.181
515.00,26.316
516.00,26.421
517.00,26.550
518.00,26.682
519.00,26.807
520.00,26.904
521.00,26.995
522.00,27.112
523.00,27.183
524.00,27.298
525.00,27.426
526.00,27.546
527.00,27.664
528.00,27.757
529.00,27.885
530.00,27.977
531.00,28.129
532.00,28.215
533.00,28.359
534.00,28.435
535.00,28.435
536.00,28.650
537.00,28.696
538.00,28.842
539.00,28.895
540.00,28.994
541.00,29.077
542.00,29.113
543.00,29.259
544.00,29.326
545.00,29.417
546.00,29.493
547.00,29.603
548.00,29.642
549.00,29.698
550.00,29.825
551.00,29.845
552.00,30.016
553.00,30.133
554.00,30.225
555.00,30.263
556.00,30.297
557.00,30.402
558.00,30.463
559.00,30.493
560.00,30.620
561.00,30.676
562.00,30.739
563.00,30.754
564.00,30.862
565.00,30.844
566.00,31.016
567.00,31.042
568.00,31.081
569.00,31.159
570.00,31.143
571.00,31.235
572.00,31.314
573.00,31.289
574.00,31.443
575.00,31.445
576.00,31.434
577.00,31.607
578.00,31.646
579.00,31.743
580.00,31.805
581.00,31.882
582.00,31.968
583.00,32.044
584.00,32.146
585.00,32.148
586.00,32.240
587.00,32.310
588.00,32.366
589.00,32.454
590.00,32.463
591.00,32.518
592.00,32.519
593.00,32.598
594.00,32.658
595.00,32.691
596.00,32.761
597.00,32.780
598.00,33.012
599.00,33.011
600.00,33.025
601.00,33.136
602.00,33.144
603.00,33.220
604.00,33.341
605.00,33.317
606.00,33.488
607.00,33.512
608.00,33.618
609.00,33.621
610.00,33.667
611.00,33.739
612.00,33.713
613.00,33.730
614.00,33.852
615.00,33.877
616.00,34.003
617.00,34.028
618.00,34.078
619.00,34.210
620.00,34.221
621.00,34.291
622.00,34.373
623.00,34.444
624.00,34.517
625.00,34.574
626.00,34.637
627.00,34.762
628.00,34.768
629.00,34.892
630.00,34.923
631.00,35.001
632.00,35.096
633.00,35.202
634.00,35.254
635.00,35.391
636.00,35.537
637.00,35.613
638.00,35.685
639.00,35.765
640.00,35.800
641.00,35.874
642.00,36.002
643.00,36.037
644.00,36.159
645.00,36.276
646.00,36.377
647.00,36.428
648.00,36.545
649.00,36.689
650.00,36.713
651.00,36.834
652.00,36.949
653.00,37.003
654.00,37.106
655.00,37.298
656.00,37.330
657.00,37.625
658.00,37.726
659.00,37.791
660.00,37.966
661.00,38.053
662.00,38.052
663.00,38.126
664.00,38.291
665.00,38.385
666.00,38.392
667.00,38.594
668.00,38.571
669.00,38.690
670.00,38.940
671.00,38.928
672.00,38.971
673.00,39.229
674.00,39.376
675.00,39.393
676.00,39.605
677.00,39.706
678.00,39.692
679.00,39.864
680.00,39.989
681.00,40.092
682.00,40.219
683.00,40.311
684.00,40.502
685.00,40.585
686.00,40.564
687.00,40.794
688.00,40.901
689.00,41.038
690.00,41.079
691.00,41.267
692.00,41.435
693.00,41.470
694.00,41.470
695.00,41.583
696.00,41.689
697.00,41.759
698.00,41.995
699.00,42.189
700.00,42.285
701.00,42.347
702.00,42.472
703.00,42.634
704.00,42.640
705.00,42.691
706.00,42.934
707.00,43.123
708.00,43.017
709.00,43.243
710.00,43.410
711.00,43.277
712.00,43.287
713.00,43.473
714.00,43.605
715.00,43.842
716.00,43.860
717.00,43.955
718.00,44.052
719.00,44.105
720.00,44.236
721.00,48.271
722.00,48.384
723.00,48.331
724.00,48.433
725.00,48.483
726.00,48.522
727.00,48.523
728.00,48.624
729.00,48.661
730.00,48.725
731.00,48.780
732.00,48.871
733.00,48.891
734.00,49.034
735.00,49.002
736.00,49.127
737.00,49.113
738.00,49.222
739.00,49.240
740.00,49.310
741.00,49.360
742.00,49.435
743.00,49.499
744.00,49.421
745.00,49.559
746.00,49.504
747.00,49.564
748.00,49.637
749.00,49.594
750.00,49.626
751.00,49.607
752.00,49.681
753.00,49.688
754.00,49.743
755.00,49.786
756.00,49.803
757.00,49.820
758.00,49.809
759.00,49.923
760.00,49.953
761.00,49.972
762.00,49.981
763.00,50.033
764.00,50.062
765.00,50.085
766.00,50.176
767.00,50.231
768.00,50.262
769.00,50.197
770.00,50.265
771.00,50.333
772.00,50.311
773.00,50.277
774.00,50.359
775.00,50.413
776.00,50.473
777.00,50.405
778.00,50.465
779.00,50.453
780.00,50.459
781.00,50.459
782.00,50.480
783.00,50.503
784.00,50.553
785.00,50.540
786.00,50.553
787.00,50.607
788.00,50.565
789.00,50.566
790.00,50.560
791.00,50.618
792.00,50.580
793.00,50.598
794.00,50.640
795.00,50.651
796.00,50.588
797.00,50.531
798.00,50.585
799.00,50.604
800.00,50.563
801.00,50.535
802.00,50.567
803.00,50.623
804.00,50.567
805.00,50.569
806.00,50.531
807.00,50.482
808.00,50.583
809.00,50.586
810.00,50.552
811.00,50.507
812.00,50.588
813.00,50.605
814.00,50.513
815.00,50.570
816.00,50.554
817.00,50.589
818.00,50.507
819.00,50.465
820.00,50.493
821.00,50.453
822.00,50.558
823.00,50.390
824.00,50.470
825.00,50.528
826.00,50.518
827.00,50.543
828.00,50.464
829.00,50.502
830.00,50.504
831.00,52.962
832.00,52.963
833.00,52.950
834.00,52.916
835.00,52.906
836.00,52.914
837.00,52.908
838.00,52.872
839.00,52.838
840.00,52.859
841.00,52.868
842.00,52.841
843.00,52.805
844.00,52.831
845.00,52.788
846.00,52.818
847.00,52.770
848.00,52.771
849.00,52.708
850.00,52.683
851.00,52.634
852.00,52.631
853.00,52.601
854.00,52.610
855.00,52.537
856.00,52.527
857.00,52.503
858.00,52.543
859.00,52.472
860.00,52.460
861.00,52.453
862.00,52.437
863.00,52.435
864.00,52.421
865.00,52.427
866.00,52.424
867.00,52.439
868.00,52.407
869.00,52.366
870.00,52.542
871.00,52.383
872.00,52.378
873.00,52.354
874.00,52.361
875.00,52.331
876.00,52.321
877.00,52.315
878.00,52.276
879.00,52.298
880.00,52.286
881.00,52.281
882.00,52.292
883.00,52.270
884.00,52.252
885.00,52.252
886.00,52.221
887.00,52.213
888.00,52.194
889.00,52.159
890.00,52.141
891.00,52.108
892.00,52.106
893.00,52.078
894.00,52.054
895.00,52.058
896.00,52.042
897.00,52.029
898.00,52.011
899.00,51.997
900.00,52.007
901.00,51.982
902.00,51.982
903.00,51.944
904.00,51.941
905.00,51.940
906.00,51.921
907.00,51.921
908.00,51.879
909.00,51.827
910.00,51.841
911.00,51.836
912.00,51.808
913.00,51.780
914.00,51.770
915.00,51.747
916.00,51.751
917.00,51.697
918.00,51.692
919.00,51.659
920.00,51.642
921.00,51.600
922.00,51.639
923.00,51.603
924.00,51.526
925.00,51.623
926.00,51.553
927.00,51.550
928.00,51.543
929.00,51.484
930.00,51.489
931.00,51.453
932.00,51.432
933.00,51.420
934.00,51.429
935.00,51.414
936.00,51.378
937.00,51.340
938.00,51.460
939.00,51.358
940.00,51.314
941.00,51.330
942.00,51.159
943.00,51.275
944.00,51.234
945.00,51.244
946.00,51.220
947.00,51.214
948.00,51.186
949.00,51.119
950.00,51.202
951.00,51.123
952.00,51.074
953.00,51.078
954.00,51.039
955.00,50.975
956.00,51.039
957.00,50.976
958.00,50.968
959.00,50.936
960.00,50.941
961.00,50.894
962.00,50.913
963.00,50.869
964.00,50.843
965.00,50.838
966.00,50.854
967.00,50.813
968.00,50.859
969.00,50.852
970.00,50.788
971.00,50.862
972.00,50.776
973.00,50.871
974.00,50.814
975.00,50.812
976.00,50.837
977.00,50.824
978.00,50.858
979.00,50.826
980.00,50.845
981.00,50.830
982.00,50.828
983.00,50.822
984.00,50.800
985.00,50.819
986.00,50.838
987.00,50.801
988.00,50.755
989.00,50.761
990.00,50.763
991.00,50.741
992.00,50.753
993.00,50.723
994.00,50.708
995.00,50.693
996.00,50.716
997.00,50.691
998.00,50.662
999.00,50.685
1000.00,50.629
1001.00,50.625
1002.00,50.629
1003.00,50.640
1004.00,50.599
1005.00,50.575
1006.00,50.580
1007.00,50.559
1008.00,50.534
1009.00,50.535
1010.00,50.532
1011.00,50.506
1012.00,50.472
1013.00,50.479
1014.00,50.434
1015.00,50.453
1016.00,50.420
1017.00,50.404
1018.00,50.404
1019.00,50.394
1020.00,50.369
1021.00,50.362
1022.00,50.337
1023.00,50.300
1024.00,50.309
1025.00,50.290
1026.00,50.284
1027.00,50.261
1028.00,50.248
1029.00,50.251
1030.00,50.213
1031.00,50.215
1032.00,50.226
1033.00,50.180
1034.00,50.152
1035.00,50.122
1036.00,50.088
1037.00,50.080
1038.00,50.060
1039.00,50.024
1040.00,50.042
1041.00,49.975
1042.00,49.975
1043.00,49.965
1044.00,49.989
1045.00,49.984
1046.00,49.971
1047.00,49.991
1048.00,49.991
1049.00,50.000
1050.00,49.995
1051.00,50.036
1052.00,50.033
1053.00,50.041
1054.00,50.045
1055.00,50.048
1056.00,50.070
1057.00,50.071
1058.00,50.052
1059.00,50.064
1060.00,50.061
1061.00,50.057
1062.00,50.044
1063.00,50.040
1064.00,50.026
1065.00,50.032
1066.00,50.017
1067.00,50.014
1068.00,50.022
1069.00,49.977
1070.00,49.975
1071.00,49.946
1072.00,49.950
1073.00,49.949
1074.00,49.928
1075.00,49.920
1076.00,49.900
1077.00,49.881
1078.00,49.876
1079.00,49.876
1080.00,49.869
1081.00,49.853
1082.00,49.868
1083.00,49.846
1084.00,49.847
1085.00,49.824
1086.00,49.824
1087.00,49.812
1088.00,49.781
1089.00,49.780
1090.00,49.781
1091.00,49.776
1092.00,49.779
1093.00,49.765
1094.00,49.738
1095.00,49.732
1096.00,49.715
1097.00,49.709
1098.00,49.717
1099.00,49.692
1100.00,49.692
1101.00,49.672
1102.00,49.658
1103.00,49.666
1104.00,49.663
1105.00,49.645
1106.00,49.654
1107.00,49.625
1108.00,49.641
1109.00,49.653
1110.00,49.617
1111.00,49.605
1112.00,49.597
1113.00,49.575
1114.00,49.585
1115.00,49.579
1116.00,49.560
1117.00,49.559
1118.00,49.536
1119.00,49.530
1120.00,49.535
1121.00,49.515
1122.00,49.521
1123.00,49.519
1124.00,49.491
1125.00,49.487
1126.00,49.473
1127.00,49.464
1128.00,49.462
1129.00,49.439
1130.00,49.428
1131.00,49.429
1132.00,49.413
1133.00,49.429
1134.00,49.417
1135.00,49.391
1136.00,49.416
1137.00,49.410
1138.00,49.415
1139.00,49.418
1140.00,49.389
1141.00,49.381
1142.00,49.378
1143.00,49.374
1144.00,49.356
1145.00,49.364
1146.00,49.353
1147.00,49.357
1148.00,49.346
1149.00,49.342
1150.00,49.353
1151.00,49.324
1152.00,49.313
1153.00,49.344
1154.00,49.340
1155.00,49.335
1156.00,49.310
1157.00,49.311
1158.00,49.308
1159.00,49.294
1160.00,49.293
1161.00,49.300
1162.00,49.283
1163.00,49.283
1164.00,49.284
1165.00,49.269
1166.00,49.293
1167.00,49.299
1168.00,49.296
1169.00,49.282
1170.00,49.276
1171.00,49.256
1172.00,49.274
1173.00,49.254
1174.00,49.258
1175.00,49.268
1176.00,49.257
1177.00,49.256
1178.00,49.250
1179.00,49.252
1180.00,49.244
1181.00,49.264
1182.00,49.252
1183.00,49.255
1184.00,49.228
1185.00,49.249
1186.00,49.235
1187.00,49.231
1188.00,49.227
1189.00,49.235
1190.00,49.227
1191.00,49.222
1192.00,49.232
1193.00,49.204
1194.00,49.233
1195.00,49.204
1196.00,49.217
1197.00,49.221
1198.00,49.202
1199.00,49.213
1200.00,49.204
1201.00,49.199
1202.00,49.193
1203.00,49.193
1204.00,49.182
1205.00,49.210
1206.00,49.185
1207.00,49.194
1208.00,49.189
1209.00,49.177
1210.00,49.193
1211.00,49.185
1212.00,49.186
1213.00,49.159
1214.00,49.178
1215.00,49.156
1216.00,49.182
1217.00,49.179
1218.00,49.175
1219.00,49.199
1220.00,49.171
1221.00,49.184
1222.00,49.181
1223.00,49.188
1224.00,49.188
1225.00,49.165
1226.00,49.165
1227.00,49.165
1228.00,49.167
1229.00,49.166
1230.00,49.210
1231.00,49.185
1232.00,49.211
1233.00,49.211
1234.00,49.201
1235.00,49.207
1236.00,49.201
1237.00,49.207
1238.00,49.214
1239.00,49.218
1240.00,49.214
1241.00,49.244
1242.00,49.219
1243.00,49.244
1244.00,49.220
1245.00,49.226
1246.00,49.250
1247.00,49.235
1248.00,49.232
1249.00,49.245
1250.00,49.232
1251.00,49.224
1252.00,49.255
1253.00,49.228
1254.00,49.264
1255.00,49.264
1256.00,49.225
1257.00,49.193
1258.00,49.271
1259.00,49.255
1260.00,49.286
1261.00,49.262
1262.00,49.263
1263.00,49.277
1264.00,49.265
1265.00,49.275
1266.00,49.277
1267.00,49.272
1268.00,49.298
1269.00,49.281
1270.00,49.299
1271.00,49.303
1272.00,49.298
1273.00,49.312
1274.00,49.320
1275.00,49.303
1276.00,49.323
1277.00,49.332
1278.00,49.335
1279.00,49.348
1280.00,49.348
1281.00,49.355
1282.00,49.370
1283.00,49.341
1284.00,49.356
1285.00,49.341
1286.00,49.344
1287.00,49.337
1288.00,49.358
1289.00,49.334
1290.00,49.367
1291.00,49.371
1292.00,49.367
1293.00,49.377
1294.00,49.385
1295.00,49.397
1296.00,49.400
1297.00,49.394
1298.00,49.420
1299.00,49.391
1300.00,49.402
1301.00,49.428
1302.00,49.403
1303.00,49.449
1304.00,49.436
1305.00,49.453
1306.00,49.442
1307.00,49.458
1308.00,49.443
1309.00,49.464
1310.00,49.460
1311.00,49.426
1312.00,49.449
1313.00,49.433
1314.00,49.452
1315.00,49.477
1316.00,49.456
1317.00,49.474
1318.00,49.487
1319.00,49.485
1320.00,49.520
1321.00,49.633
1322.00,49.645
1323.00,49.631
1324.00,49.644
1325.00,49.608
1326.00,49.647
1327.00,49.648
1328.00,49.622
1329.00,49.644
1330.00,49.626
1331.00,49.633
1332.00,49.666
1333.00,49.593
1334.00,49.676
1335.00,49.691
1336.00,49.714
1337.00,49.750
1338.00,49.812
1339.00,49.839
1340.00,49.924
1341.00,49.953
1342.00,50.034
1343.00,50.085
1344.00,50.116
1345.00,50.183
1346.00,50.221
1347.00,50.238
1348.00,50.259
1349.00,50.275
1350.00,50.291
1351.00,50.311
1352.00,50.307
1353.00,50.302
1354.00,50.324
1355.00,50.286
1356.00,50.314
1357.00,50.326
1358.00,50.342
1359.00,50.354
1360.00,50.337
1361.00,50.287
1362.00,50.305
1363.00,50.371
1364.00,50.322
1365.00,50.356
1366.00,50.455
1367.00,50.316
1368.00,50.311
1369.00,50.323
1370.00,50.308
1371.00,50.280
1372.00,50.296
1373.00,50.300
1374.00,50.316
1375.00,50.298
1376.00,50.299
1377.00,50.268
1378.00,50.304
1379.00,50.290
1380.00,50.300
1381.00,50.366
1382.00,50.261
1383.00,50.263
1384.00,50.264
1385.00,50.264
1386.00,50.285
1387.00,50.242
1388.00,50.244
1389.00,50.309
1390.00,50.304
1391.00,50.236
1392.00,50.267
1393.00,50.276
1394.00,50.259
1395.00,50.241
1396.00,50.223
1397.00,50.276
1398.00,50.308
1399.00,50.299
1400.00,50.233
1401.00,50.265
1402.00,50.330
1403.00,50.297
1404.00,50.291
1405.00,50.318
1406.00,50.335
1407.00,50.321
1408.00,50.318
1409.00,50.321
1410.00,50.345
1411.00,50.346
1412.00,50.391
1413.00,50.332
1414.00,50.361
1415.00,50.389
1416.00,50.389
1417.00,50.414
1418.00,50.400
1419.00,50.400
1420.00,50.435
1421.00,50.459
1422.00,50.472
1423.00,50.473
1424.00,50.487
1425.00,50.503
1426.00,50.528
1427.00,50.535
1428.00,50.527
1429.00,50.540
1430.00,50.542
1431.00,50.569
1432.00,50.563
1433.00,50.596
1434.00,50.594
1435.00,50.629
1436.00,50.640
1437.00,50.650
1438.00,50.653
1439.00,50.698
1440.00,50.693
1441.00,50.715
1442.00,50.734
1443.00,50.741
1444.00,50.752
1445.00,50.755
1446.00,50.757
1447.00,50.796
1448.00,50.812
1449.00,50.808
1450.00,50.830
1451.00,50.832
1452.00,50.850
1453.00,50.865
1454.00,50.862
1455.00,50.901
1456.00,50.926
1457.00,50.903
1458.00,50.935
1459.00,50.959
1460.00,50.960
1461.00,50.977
1462.00,50.997
1463.00,51.001
1464.00,51.013
1465.00,51.017
1466.00,51.041
1467.00,51.061
1468.00,51.081
1469.00,51.086
1470.00,51.105
1471.00,51.108
1472.00,51.168
1473.00,51.156
1474.00,51.166
1475.00,51.176
1476.00,51.182
1477.00,51.181
1478.00,51.200
1479.00,51.212
1480.00,51.236
1481.00,51.230
1482.00,51.255
1483.00,51.271
1484.00,51.280
1485.00,51.291
1486.00,51.298
1487.00,51.312
1488.00,51.331
1489.00,51.345
1490.00,51.357
1491.00,51.360
1492.00,51.368
1493.00,51.365
1494.00,51.400
1495.00,51.395
1496.00,51.399
1497.00,51.417
1498.00,51.403
1499.00,51.435
1500.00,51.472
1501.00, 
1502.00, 
1503.00, 
1504.00, 
1505.00, 
1506.00, 
1507.00, 
1508.00, 
1509.00, 
1510.00, 
1511.00, 
1512.00, 
1513.00, 
1514.00, 
1515.00, 
1516.00, 
1517.00, 
1518.00, 
1519.00, 
1520.00, 
1521.00, 
1522.00, 
1523.00, 
1524.00, 
1525.00, 
1526.00, 
1527.00, 
1528.00, 
1529.00, 
1530.00, 
1531.00, 
1532.00, 
1533.00, 
1534.00, 
1535.00, 
1536.00, 
1537.00, 
1538.00, 
1539.00, 
1540.00, 
1541.00, 
1542.00, 
1543.00, 
1544.00, 
1545.00, 
1546.00, 
1547.00, 
1548.00, 
1549.00, 
1550.00, 
1551.00, 
1552.00, 
1553.00, 
1554.00, 
1555.00, 
1556.00, 
1557.00, 
1558.00, 
1559.00, 
1560.00, 
1561.00, 
1562.00, 
1563.00, 
1564.00, 
1565.00, 
1566.00, 
1567.00, 
1568.00, 
1569.00, 
1570.00, 
1571.00, 
1572.00, 
1573.00, 
1574.00, 
1575.00, 
1576.00, 
1577.00, 
1578.00, 
1579.00, 
1580.00, 
1581.00, 
1582.00, 
1583.00, 
1584.00, 
1585.00, 
1586.00, 
1587.00, 
1588.00, 
1589.00, 
1590.00, 
1591.00, 
1592.00, 
1593.00, 
1594.00, 
1595.00, 
1596.00, 
1597.00, 
1598.00, 
1599.00, 
1600.00, 
1601.00, 
1602.00, 
1603.00, 
1604.00, 
1605.00, 
1606.00, 
1607.00, 
1608.00, 
1609.00, 
1610.00, 
1611.00, 
1612.00, 
1613.00, 
1614.00, 
1615.00, 
1616.00, 
1617.00, 
1618.00, 
1619.00, 
1620.00, 
1621.00, 
1622.00, 
1623.00, 
1624.00, 
1625.00, 
1626.00, 
1627.00, 
1628.00, 
1629.00, 
1630.00, 
1631.00, 
1632.00, 
1633.00, 
1634.00, 
1635.00, 
1636.00, 
1637.00, 
1638.00, 
1639.00, 
1640.00, 
1641.00, 
1642.00, 
1643.00, 
1644.00, 
1645.00, 
1646.00, 
1647.00, 
1648.00, 
1649.00, 
1650.00, 
1651.00, 
1652.00, 
1653.00, 
1654.00, 
1655.00, 
1656.00, 
1657.00, 
1658.00, 
1659.00, 
1660.00, 
1661.00, 
1662.00, 
1663.00, 
1664.00, 
1665.00, 
1666.00, 
1667.00, 
1668.00, 
1669.00, 
1670.00, 
1671.00, 
1672.00, 
1673.00, 
1674.00, 
1675.00, 
1676.00, 
1677.00, 
1678.00, 
1679.00, 
1680.00, 
1681.00, 
1682.00, 
1683.00, 
1684.00, 
1685.00, 
1686.00, 
1687.00, 
1688.00, 
1689.00, 
1690.00, 
1691.00, 
1692.00, 
1693.00, 
1694.00, 
1695.00, 
1696.00, 
1697.00, 
1698.00, 
1699.00, 
1700.00, 
1701.00, 
1702.00, 
1703.00, 
1704.00, 
1705.00, 
1706.00, 
1707.00, 
1708.00, 
1709.00, 
1710.00, 
1711.00, 
1712.00, 
1713.00, 
1714.00, 
1715.00, 
1716.00, 
1717.00, 
1718.00, 
1719.00, 
1720.00, 
1721.00, 
1722.00, 
1723.00, 
1724.00, 
1725.00, 
1726.00, 
1727.00, 
1728.00, 
1729.00, 
1730.00, 
1731.00, 
1732.00, 
1733.00, 
1734.00, 
1735.00, 
1736.00, 
1737.00, 
1738.00, 
1739.00, 
1740.00, 
1741.00, 
1742.00, 
1743.00, 
1744.00, 
1745.00, 
1746.00, 
1747.00, 
1748.00, 
1749.00, 
1750.00, 
1751.00, 
1752.00, 
1753.00, 
1754.00, 
1755.00, 
1756.00, 
1757.00, 
1758.00, 
1759.00, 
1760.00, 
1761.00, 
1762.00, 
1763.00, 
1764.00, 
1765.00, 
1766.00, 
1767.00, 
1768.00, 
1769.00, 
1770.00, 
1771.00, 
1772.00, 
1773.00, 
1774.00, 
1775.00, 
1776.00, 
1777.00, 
1778.00, 
1779.00, 
1780.00, 
1781.00, 
1782.00, 
1783.00, 
1784.00, 
1785.00, 
1786.00, 
1787.00, 
1788.00, 
1789.00, 
1790.00, 
1791.00, 
1792.00, 
1793.00, 
1794.00, 
1795.00, 
1796.00, 
1797.00, 
1798.00, 
1799.00, 
1800.00, 
1801.00, 
1802.00, 
1803.00, 
1804.00, 
1805.00, 
1806.00, 
1807.00, 
1808.00, 
1809.00, 
1810.00, 
1811.00, 
1812.00, 
1813.00, 
1814.00, 
1815.00, 
1816.00, 
1817.00, 
1818.00, 
1819.00, 
1820.00, 
1821.00, 
1822.00, 
1823.00, 
1824.00, 
1825.00, 
1826.00, 
1827.00, 
1828.00, 
1829.00, 
1830.00, 
1831.00, 
1832.00, 
1833.00, 
1834.00, 
1835.00, 
1836.00, 
1837.00, 
1838.00, 
1839.00, 
1840.00, 
1841.00, 
1842.00, 
1843.00, 
1844.00, 
1845.00, 
1846.00, 
1847.00, 
1848.00, 
1849.00, 
1850.00, 
1851.00, 
1852.00, 
1853.00, 
1854.00, 
1855.00, 
1856.00, 
1857.00, 
1858.00, 
1859.00, 
1860.00, 
1861.00, 
1862.00, 
1863.00, 
1864.00, 
1865.00, 
1866.00, 
1867.00, 
1868.00, 
1869.00, 
1870.00, 
1871.00, 
1872.00, 
1873.00, 
1874.00, 
1875.00, 
1876.00, 
1877.00, 
1878.00, 
1879.00, 
1880.00, 
1881.00, 
1882.00, 
1883.00, 
1884.00, 
1885.00, 
1886.00, 
1887.00, 
1888.00, 
1889.00, 
1890.00, 
1891.00, 
1892.00, 
1893.00, 
1894.00, 
1895.00, 
1896.00, 
1897.00, 
1898.00, 
1899.00, 
1900.00, 
1901.00, 
1902.00, 
1903.00, 
1904.00, 
1905.00, 
1906.00, 
1907.00, 
1908.00, 
1909.00, 
1910.00, 
1911.00, 
1912.00, 
1913.00, 
1914.00, 
1915.00, 
1916.00, 
1917.00, 
1918.00, 
1919.00, 
1920.00, 
1921.00, 
1922.00, 
1923.00, 
1924.00, 
1925.00, 
1926.00, 
1927.00, 
1928.00, 
1929.00, 
1930.00, 
1931.00, 
1932.00, 
1933.00, 
1934.00, 
1935.00, 
1936.00, 
1937.00, 
1938.00, 
1939.00, 
1940.00, 
1941.00, 
1942.00, 
1943.00, 
1944.00, 
1945.00, 
1946.00, 
1947.00, 
1948.00, 
1949.00, 
1950.00, 
1951.00, 
1952.00, 
1953.00, 
1954.00, 
1955.00, 
1956.00, 
1957.00, 
1958.00, 
1959.00, 
1960.00, 
1961.00, 
1962.00, 
1963.00, 
1964.00, 
1965.00, 
1966.00, 
1967.00, 
1968.00, 
1969.00, 
1970.00, 
1971.00, 
1972.00, 
1973.00, 
1974.00, 
1975.00, 
1976.00, 
1977.00, 
1978.00, 
1979.00, 
1980.00, 
1981.00, 
1982.00, 
1983.00, 
1984.00, 
1985.00, 
1986.00, 
1987.00, 
1988.00, 
1989.00, 
1990.00, 
1991.00, 
1992.00, 
1993.00, 
1994.00, 
1995.00, 
1996.00, 
1997.00, 
1998.00, 
1999.00, 
2000.00, 
2001.00, 
2002.00, 
2003.00, 
2004.00, 
2005.00, 
2006.00, 
2007.00, 
2008.00, 
2009.00, 
2010.00, 
2011.00, 
2012.00, 
2013.00, 
2014.00, 
2015.00, 
2016.00, 
2017.00, 
2018.00, 
2019.00, 
2020.00, 
2021.00, 
2022.00, 
2023.00, 
2024.00, 
2025.00, 
2026.00, 
2027.00, 
2028.00, 
2029.00, 
2030.00, 
2031.00, 
2032.00, 
2033.00, 
2034.00, 
2035.00, 
2036.00, 
2037.00, 
2038.00, 
2039.00, 
2040.00, 
2041.00, 
2042.00, 
2043.00, 
2044.00, 
2045.00, 
2046.00, 
2047.00, 
2048.00, 
2049.00, 
2050.00, 
2051.00, 
2052.00, 
2053.00, 
2054.00, 
2055.00, 
2056.00, 
2057.00, 
2058.00, 
2059.00, 
2060.00, 
2061.00, 
2062.00, 
2063.00, 
2064.00, 
2065.00, 
2066.00, 
2067.00, 
2068.00, 
2069.00, 
2070.00, 
2071.00, 
2072.00, 
2073.00, 
2074.00, 
2075.00, 
2076.00, 
2077.00, 
2078.00, 
2079.00, 
2080.00, 
2081.00, 
2082.00, 
2083.00, 
2084.00, 
2085.00, 
2086.00, 
2087.00, 
2088.00, 
2089.00, 
2090.00, 
2091.00, 
2092.00, 
2093.00, 
2094.00, 
2095.00, 
2096.00, 
2097.00, 
2098.00, 
2099.00, 
2100.00, 
2101.00, 
2102.00, 
2103.00, 
2104.00, 
2105.00, 
2106.00, 
2107.00, 
2108.00, 
2109.00, 
2110.00, 
2111.00, 
2112.00, 
2113.00, 
2114.00, 
2115.00, 
2116.00, 
2117.00, 
2118.00, 
2119.00, 
2120.00, 
2121.00, 
2122.00, 
2123.00, 
2124.00, 
2125.00, 
2126.00, 
2127.00, 
2128.00, 
2129.00, 
2130.00, 
2131.00, 
2132.00, 
2133.00, 
2134.00, 
2135.00, 
2136.00, 
2137.00, 
2138.00, 
2139.00, 
2140.00, 
2141.00, 
2142.00, 
2143.00, 
2144.00, 
2145.00, 
2146.00, 
2147.00, 
2148.00, 
2149.00, 
2150.00, 
2151.00, 
2152.00, 
2153.00, 
2154.00, 
2155.00, 
2156.00, 
2157.00, 
2158.00, 
2159.00, 
2160.00, 
2161.00, 
2162.00, 
2163.00, 
2164.00, 
2165.00, 
2166.00, 
2167.00, 
2168.00, 
2169.00, 
2170.00, 
2171.00, 
2172.00, 
2173.00, 
2174.00, 
2175.00, 
2176.00, 
2177.00, 
2178.00, 
2179.00, 
2180.00, 
2181.00, 
2182.00, 
2183.00, 
2184.00, 
2185.00, 
2186.00, 
2187.00, 
2188.00, 
2189.00, 
2190.00, 
2191.00, 
2192.00, 
2193.00, 
2194.00, 
2195.00, 
2196.00, 
2197.00, 
2198.00, 
2199.00, 
2200.00, 
2201.00, 
2202.00, 
2203.00, 
2204.00, 
2205.00, 
2206.00, 
2207.00, 
2208.00, 
2209.00, 
2210.00, 
2211.00, 
2212.00, 
2213.00, 
2214.00, 
2215.00, 
2216.00, 
2217.00, 
2218.00, 
2219.00, 
2220.00, 
2221.00, 
2222.00, 
2223.00, 
2224.00, 
2225.00, 
2226.00, 
2227.00, 
2228.00, 
2229.00, 
2230.00, 
2231.00, 
2232.00, 
2233.00, 
2234.00, 
2235.00, 
2236.00, 
2237.00, 
2238.00, 
2239.00, 
2240.00, 
2241.00, 
2242.00, 
2243.00, 
2244.00, 
2245.00, 
2246.00, 
2247.00, 
2248.00, 
2249.00, 
2250.00, 
2251.00, 
2252.00, 
2253.00, 
2254.00, 
2255.00, 
2256.00, 
2257.00, 
2258.00, 
2259.00, 
2260.00, 
2261.00, 
2262.00, 
2263.00, 
2264.00, 
2265.00, 
2266.00, 
2267.00, 
2268.00, 
2269.00, 
2270.00, 
2271.00, 
2272.00, 
2273.00, 
2274.00, 
2275.00, 
2276.00, 
2277.00, 
2278.00, 
2279.00, 
2280.00, 
2281.00, 
2282.00, 
2283.00, 
2284.00, 
2285.00, 
2286.00, 
2287.00, 
2288.00, 
2289.00, 
2290.00, 
2291.00, 
2292.00, 
2293.00, 
2294.00, 
2295.00, 
2296.00, 
2297.00, 
2298.00, 
2299.00, 
2300.00, 
2301.00, 
2302.00, 
2303.00, 
2304.00, 
2305.00, 
2306.00, 
2307.00, 
2308.00, 
2309.00, 
2310.00, 
2311.00, 
2312.00, 
2313.00, 
2314.00, 
2315.00, 
2316.00, 
2317.00, 
2318.00, 
2319.00, 
2320.00, 
2321.00, 
2322.00, 
2323.00, 
2324.00, 
2325.00, 
2326.00, 
2327.00, 
2328.00, 
2329.00, 
2330.00, 
2331.00, 
2332.00, 
2333.00, 
2334.00, 
2335.00, 
2336.00, 
2337.00, 
2338.00, 
2339.00, 
2340.00, 
2341.00, 
2342.00, 
2343.00, 
2344.00, 
2345.00, 
2346.00, 
2347.00, 
2348.00, 
2349.00, 
2350.00, 
2351.00, 
2352.00, 
2353.00, 
2354.00, 
2355.00, 
2356.00, 
2357.00, 
2358.00, 
2359.00, 
2360.00, 
2361.00, 
2362.00, 
2363.00, 
2364.00, 
2365.00, 
2366.00, 
2367.00, 
2368.00, 
2369.00, 
2370.00, 
2371.00, 
2372.00, 
2373.00, 
2374.00, 
2375.00, 
2376.00, 
2377.00, 
2378.00, 
2379.00, 
2380.00, 
2381.00, 
2382.00, 
2383.00, 
2384.00, 
2385.00, 
2386.00, 
2387.00, 
2388.00, 
2389.00, 
2390.00, 
2391.00, 
2392.00, 
2393.00, 
2394.00, 
2395.00, 
2396.00, 
2397.00, 
2398.00, 
2399.00, 
2400.00, 
2401.00, 
2402.00, 
2403.00, 
2404.00, 
2405.00, 
2406.00, 
2407.00, 
2408.00, 
2409.00, 
2410.00, 
2411.00, 
2412.00, 
2413.00, 
2414.00, 
2415.00, 
2416.00, 
2417.00, 
2418.00, 
2419.00, 
2420.00, 
2421.00, 
2422.00, 
2423.00, 
2424.00, 
2425.00, 
2426.00, 
2427.00, 
2428.00, 
2429.00, 
2430.00, 
2431.00, 
2432.00, 
2433.00, 
2434.00, 
2435.00, 
2436.00, 
2437.00, 
2438.00, 
2439.00, 
2440.00, 
2441.00, 
2442.00, 
2443.00, 
2444.00, 
2445.00, 
2446.00, 
2447.00, 
2448.00, 
2449.00, 
2450.00, 
2451.00, 
2452.00, 
2453.00, 
2454.00, 
2455.00, 
2456.00, 
2457.00, 
2458.00, 
2459.00, 
2460.00, 
2461.00, 
2462.00, 
2463.00, 
2464.00, 
2465.00, 
2466.00, 
2467.00, 
2468.00, 
2469.00, 
2470.00, 
2471.00, 
2472.00, 
2473.00, 
2474.00, 
2475.00, 
2476.00, 
2477.00, 
2478.00, 
2479.00, 
2480.00, 
2481.00, 
2482.00, 
2483.00, 
2484.00, 
2485.00, 
2486.00, 
2487.00, 
2488.00, 
2489.00, 
2490.00, 
2491.00, 
2492.00, 
2493.00, 
2494.00, 
2495.00, 
2496.00, 
2497.00, 
2498.00, 
2499.00, 
2500.00, 
2501.00, 
2502.00, 
2503.00, 
2504.00, 
2505.00, 
2506.00, 
2507.00, 
2508.00, 
2509.00, 
2510.00, 
2511.00, 
2512.00, 
2513.00, 
2514.00, 
2515.00, 
2516.00, 
2517.00, 
2518.00, 
2519.00, 
2520.00, 
2521.00, 
2522.00, 
2523.00, 
2524.00, 
2525.00, 
2526.00, 
2527.00, 
2528.00, 
2529.00, 
2530.00, 
2531.00, 
2532.00, 
2533.00, 
2534.00, 
2535.00, 
2536.00, 
2537.00, 
2538.00, 
2539.00, 
2540.00, 
2541.00, 
2542.00, 
2543.00, 
2544.00, 
2545.00, 
2546.00, 
2547.00, 
2548.00, 
2549.00, 
2550.00, 
2551.00, 
2552.00, 
2553.00, 
2554.00, 
2555.00, 
2556.00, 
2557.00, 
2558.00, 
2559.00, 
2560.00, 
2561.00, 
2562.00, 
2563.00, 
2564.00, 
2565.00, 
2566.00, 
2567.00, 
2568.00, 
2569.00, 
2570.00, 
2571.00, 
2572.00, 
2573.00, 
2574.00, 
2575.00, 
2576.00, 
2577.00, 
2578.00, 
2579.00, 
2580.00, 
2581.00, 
2582.00, 
2583.00, 
2584.00, 
2585.00, 
2586.00, 
2587.00, 
2588.00, 
2589.00, 
2590.00, 
2591.00, 
2592.00, 
2593.00, 
2594.00, 
2595.00, 
2596.00, 
2597.00, 
2598.00, 
2599.00, 
2600.00, 
