"2cP4 - RawData"
"Wavelength nm.","T%"
200.00,0.002
201.00,-0.001
202.00,0.001
203.00,0.003
204.00,-0.001
205.00,0.000
206.00,-0.000
207.00,0.000
208.00,0.001
209.00,0.000
210.00,0.003
211.00,0.000
212.00,0.001
213.00,0.001
214.00,0.003
215.00,0.001
216.00,0.002
217.00,-0.000
218.00,0.002
219.00,-0.001
220.00,0.001
221.00,0.001
222.00,0.000
223.00,-0.001
224.00,0.001
225.00,0.001
226.00,0.001
227.00,0.000
228.00,0.000
229.00,-0.000
230.00,-0.001
231.00,0.001
232.00,-0.001
233.00,-0.000
234.00,-0.000
235.00,0.000
236.00,-0.000
237.00,0.001
238.00,0.000
239.00,-0.001
240.00,0.000
241.00,0.000
242.00,0.001
243.00,-0.001
244.00,0.001
245.00,0.000
246.00,-0.002
247.00,-0.001
248.00,-0.001
249.00,0.000
250.00,0.002
251.00,0.003
252.00,0.001
253.00,0.000
254.00,-0.000
255.00,-0.000
256.00,-0.001
257.00,0.000
258.00,-0.000
259.00,0.001
260.00,0.001
261.00,-0.001
262.00,0.000
263.00,-0.003
264.00,0.001
265.00,0.001
266.00,-0.000
267.00,0.000
268.00,0.000
269.00,-0.000
270.00,0.000
271.00,-0.001
272.00,0.001
273.00,0.000
274.00,-0.000
275.00,-0.001
276.00,0.001
277.00,0.001
278.00,0.001
279.00,0.001
280.00,-0.000
281.00,-0.000
282.00,0.000
283.00,0.001
284.00,-0.001
285.00,0.002
286.00,0.000
287.00,0.003
288.00,-0.000
289.00,0.002
290.00,0.001
291.00,-0.001
292.00,0.001
293.00,0.001
294.00,-0.000
295.00,-0.000
296.00,-0.000
297.00,-0.000
298.00,0.001
299.00,0.000
300.00,0.002
301.00,0.002
302.00,0.001
303.00,0.005
304.00,0.008
305.00,0.013
306.00,0.019
307.00,0.027
308.00,0.045
309.00,0.068
310.00,0.097
311.00,0.128
312.00,0.171
313.00,0.237
314.00,0.313
315.00,0.406
316.00,0.516
317.00,0.644
318.00,0.785
319.00,0.972
320.00,1.185
321.00,1.412
322.00,1.679
323.00,1.964
324.00,2.269
325.00,2.583
326.00,2.910
327.00,3.262
328.00,3.640
329.00,4.027
330.00,4.440
331.00,4.856
332.00,5.274
333.00,5.702
334.00,6.099
335.00,6.545
336.00,6.952
337.00,7.361
338.00,7.772
339.00,8.165
340.00,8.541
341.00,8.936
342.00,9.290
343.00,9.631
344.00,9.972
345.00,10.256
346.00,10.555
347.00,10.828
348.00,11.100
349.00,11.334
350.00,11.556
351.00,11.763
352.00,11.951
353.00,12.123
354.00,12.273
355.00,12.424
356.00,12.584
357.00,12.718
358.00,12.830
359.00,12.952
360.00,13.070
361.00,13.165
362.00,13.240
363.00,13.281
364.00,13.384
365.00,13.376
366.00,13.451
367.00,13.475
368.00,13.487
369.00,13.471
370.00,13.485
371.00,13.512
372.00,13.470
373.00,13.463
374.00,13.431
375.00,13.383
376.00,13.388
377.00,13.321
378.00,13.276
379.00,13.210
380.00,13.169
381.00,13.167
382.00,13.141
383.00,13.116
384.00,13.094
385.00,13.089
386.00,13.083
387.00,13.105
388.00,13.112
389.00,13.095
390.00,13.084
391.00,13.066
392.00,13.080
393.00,13.061
394.00,13.045
395.00,13.037
396.00,13.030
397.00,13.052
398.00,13.021
399.00,13.014
400.00,12.996
401.00,12.989
402.00,12.996
403.00,12.997
404.00,12.993
405.00,12.974
406.00,12.952
407.00,12.931
408.00,12.931
409.00,12.883
410.00,12.878
411.00,12.853
412.00,12.843
413.00,12.849
414.00,12.817
415.00,12.840
416.00,12.879
417.00,12.877
418.00,12.883
419.00,12.921
420.00,12.946
421.00,12.954
422.00,12.974
423.00,12.972
424.00,13.028
425.00,13.063
426.00,13.092
427.00,13.122
428.00,13.165
429.00,13.165
430.00,13.200
431.00,13.266
432.00,13.310
433.00,13.388
434.00,13.416
435.00,13.480
436.00,13.530
437.00,13.600
438.00,13.679
439.00,13.731
440.00,13.789
441.00,13.885
442.00,13.931
443.00,14.021
444.00,14.086
445.00,14.136
446.00,14.277
447.00,14.360
448.00,14.447
449.00,14.533
450.00,14.629
451.00,14.715
452.00,14.827
453.00,14.924
454.00,15.026
455.00,15.141
456.00,15.259
457.00,15.351
458.00,15.464
459.00,15.572
460.00,15.671
461.00,15.810
462.00,15.948
463.00,16.077
464.00,16.194
465.00,16.306
466.00,16.436
467.00,16.548
468.00,16.688
469.00,16.810
470.00,16.918
471.00,17.028
472.00,17.160
473.00,17.236
474.00,17.352
475.00,17.475
476.00,17.586
477.00,17.758
478.00,17.898
479.00,18.035
480.00,18.185
481.00,18.328
482.00,18.475
483.00,18.612
484.00,18.792
485.00,18.951
486.00,19.071
487.00,19.207
488.00,19.311
489.00,19.489
490.00,19.695
491.00,19.860
492.00,20.037
493.00,20.193
494.00,20.325
495.00,20.412
496.00,20.547
497.00,20.666
498.00,20.858
499.00,20.993
500.00,21.113
501.00,21.280
502.00,21.425
503.00,21.552
504.00,21.656
505.00,21.793
506.00,21.945
507.00,22.036
508.00,22.186
509.00,22.342
510.00,22.463
511.00,22.608
512.00,22.745
513.00,22.870
514.00,23.044
515.00,23.173
516.00,23.313
517.00,23.426
518.00,23.544
519.00,23.657
520.00,23.732
521.00,23.831
522.00,23.952
523.00,24.022
524.00,24.126
525.00,24.295
526.00,24.365
527.00,24.510
528.00,24.560
529.00,24.721
530.00,24.833
531.00,24.954
532.00,25.076
533.00,25.217
534.00,25.308
535.00,25.399
536.00,25.501
537.00,25.529
538.00,25.661
539.00,25.718
540.00,25.817
541.00,25.903
542.00,25.954
543.00,26.063
544.00,26.141
545.00,26.239
546.00,26.287
547.00,26.406
548.00,26.454
549.00,26.554
550.00,26.664
551.00,26.746
552.00,26.859
553.00,26.917
554.00,26.989
555.00,27.068
556.00,27.124
557.00,27.160
558.00,27.236
559.00,27.298
560.00,27.411
561.00,27.492
562.00,27.545
563.00,27.565
564.00,27.664
565.00,27.703
566.00,27.739
567.00,27.784
568.00,27.826
569.00,27.884
570.00,27.891
571.00,27.988
572.00,28.073
573.00,28.012
574.00,28.156
575.00,28.144
576.00,28.151
577.00,28.301
578.00,28.359
579.00,28.404
580.00,28.503
581.00,28.580
582.00,28.652
583.00,28.727
584.00,28.810
585.00,28.856
586.00,28.935
587.00,28.994
588.00,29.028
589.00,29.040
590.00,29.097
591.00,29.144
592.00,29.186
593.00,29.284
594.00,29.328
595.00,29.376
596.00,29.491
597.00,29.530
598.00,29.663
599.00,29.696
600.00,29.752
601.00,29.801
602.00,29.802
603.00,29.846
604.00,29.940
605.00,30.023
606.00,30.053
607.00,30.129
608.00,30.226
609.00,30.227
610.00,30.300
611.00,30.462
612.00,30.316
613.00,30.383
614.00,30.506
615.00,30.488
616.00,30.631
617.00,30.639
618.00,30.774
619.00,30.851
620.00,30.877
621.00,31.010
622.00,31.127
623.00,31.192
624.00,31.281
625.00,31.365
626.00,31.416
627.00,31.492
628.00,31.559
629.00,31.622
630.00,31.700
631.00,31.790
632.00,31.869
633.00,32.046
634.00,32.136
635.00,32.226
636.00,32.363
637.00,32.425
638.00,32.528
639.00,32.600
640.00,32.665
641.00,32.742
642.00,32.884
643.00,32.970
644.00,33.095
645.00,33.153
646.00,33.278
647.00,33.372
648.00,33.529
649.00,33.660
650.00,33.730
651.00,33.831
652.00,33.936
653.00,34.122
654.00,34.212
655.00,34.371
656.00,34.577
657.00,34.802
658.00,34.898
659.00,35.006
660.00,35.116
661.00,35.138
662.00,35.266
663.00,35.361
664.00,35.575
665.00,35.665
666.00,35.694
667.00,35.911
668.00,35.948
669.00,36.130
670.00,36.380
671.00,36.364
672.00,36.520
673.00,36.648
674.00,36.871
675.00,37.027
676.00,37.089
677.00,37.382
678.00,37.317
679.00,37.507
680.00,37.611
681.00,37.769
682.00,37.987
683.00,38.063
684.00,38.290
685.00,38.382
686.00,38.414
687.00,38.580
688.00,38.766
689.00,38.937
690.00,38.988
691.00,39.212
692.00,39.442
693.00,39.420
694.00,39.524
695.00,39.727
696.00,39.896
697.00,39.980
698.00,40.211
699.00,40.329
700.00,40.331
701.00,40.564
702.00,40.742
703.00,40.907
704.00,41.007
705.00,41.029
706.00,41.283
707.00,41.487
708.00,41.401
709.00,41.674
710.00,41.930
711.00,41.746
712.00,41.942
713.00,42.110
714.00,42.226
715.00,42.363
716.00,42.468
717.00,42.538
718.00,42.776
719.00,42.887
720.00,43.032
721.00,47.051
722.00,47.127
723.00,47.152
724.00,47.270
725.00,47.402
726.00,47.348
727.00,47.507
728.00,47.618
729.00,47.639
730.00,47.749
731.00,47.806
732.00,47.953
733.00,47.944
734.00,48.158
735.00,48.167
736.00,48.275
737.00,48.406
738.00,48.473
739.00,48.539
740.00,48.561
741.00,48.678
742.00,48.700
743.00,48.782
744.00,48.808
745.00,48.880
746.00,48.941
747.00,48.993
748.00,49.057
749.00,49.059
750.00,49.164
751.00,49.097
752.00,49.221
753.00,49.219
754.00,49.289
755.00,49.424
756.00,49.393
757.00,49.432
758.00,49.528
759.00,49.631
760.00,49.625
761.00,49.689
762.00,49.774
763.00,49.836
764.00,49.759
765.00,49.890
766.00,49.960
767.00,50.014
768.00,50.115
769.00,50.100
770.00,50.194
771.00,50.164
772.00,50.225
773.00,50.227
774.00,50.306
775.00,50.339
776.00,50.387
777.00,50.384
778.00,50.447
779.00,50.478
780.00,50.416
781.00,50.525
782.00,50.575
783.00,50.611
784.00,50.587
785.00,50.587
786.00,50.613
787.00,50.648
788.00,50.652
789.00,50.669
790.00,50.679
791.00,50.749
792.00,50.690
793.00,50.721
794.00,50.788
795.00,50.788
796.00,50.770
797.00,50.820
798.00,50.800
799.00,50.799
800.00,50.791
801.00,50.923
802.00,50.806
803.00,50.892
804.00,50.832
805.00,50.874
806.00,50.884
807.00,50.795
808.00,50.900
809.00,50.890
810.00,50.917
811.00,50.905
812.00,50.978
813.00,50.941
814.00,50.963
815.00,50.961
816.00,50.877
817.00,50.992
818.00,50.906
819.00,50.889
820.00,50.903
821.00,50.898
822.00,50.951
823.00,50.803
824.00,50.876
825.00,50.880
826.00,50.883
827.00,50.914
828.00,50.891
829.00,50.901
830.00,50.928
831.00,53.062
832.00,53.065
833.00,53.016
834.00,53.050
835.00,53.037
836.00,53.038
837.00,53.002
838.00,53.008
839.00,52.982
840.00,52.954
841.00,52.993
842.00,52.962
843.00,52.973
844.00,52.975
845.00,52.940
846.00,52.981
847.00,52.925
848.00,52.919
849.00,52.866
850.00,52.888
851.00,52.822
852.00,52.840
853.00,52.824
854.00,52.786
855.00,52.740
856.00,52.734
857.00,52.717
858.00,52.710
859.00,52.702
860.00,52.697
861.00,52.693
862.00,52.671
863.00,52.666
864.00,52.655
865.00,52.688
866.00,52.673
867.00,52.638
868.00,52.652
869.00,52.615
870.00,52.621
871.00,52.646
872.00,52.627
873.00,52.595
874.00,52.612
875.00,52.591
876.00,52.603
877.00,52.604
878.00,52.575
879.00,52.602
880.00,52.574
881.00,52.558
882.00,52.576
883.00,52.557
884.00,52.526
885.00,52.502
886.00,52.488
887.00,52.476
888.00,52.465
889.00,52.435
890.00,52.427
891.00,52.410
892.00,52.400
893.00,52.383
894.00,52.375
895.00,52.363
896.00,52.345
897.00,52.320
898.00,52.301
899.00,52.303
900.00,52.301
901.00,52.287
902.00,52.292
903.00,52.251
904.00,52.276
905.00,52.262
906.00,52.224
907.00,52.229
908.00,52.207
909.00,52.154
910.00,52.173
911.00,52.168
912.00,52.127
913.00,52.045
914.00,52.222
915.00,52.066
916.00,52.051
917.00,52.029
918.00,52.025
919.00,51.996
920.00,51.983
921.00,51.956
922.00,51.980
923.00,51.953
924.00,51.920
925.00,51.926
926.00,51.911
927.00,51.909
928.00,51.892
929.00,51.866
930.00,51.823
931.00,51.811
932.00,51.814
933.00,51.813
934.00,51.777
935.00,51.735
936.00,51.769
937.00,51.747
938.00,51.722
939.00,51.728
940.00,51.667
941.00,51.696
942.00,51.535
943.00,51.648
944.00,51.614
945.00,51.610
946.00,51.597
947.00,51.571
948.00,51.541
949.00,51.486
950.00,51.572
951.00,51.505
952.00,51.473
953.00,51.451
954.00,51.428
955.00,51.389
956.00,51.391
957.00,51.353
958.00,51.344
959.00,51.310
960.00,51.300
961.00,51.277
962.00,51.284
963.00,51.260
964.00,51.265
965.00,51.233
966.00,51.248
967.00,51.206
968.00,51.227
969.00,51.234
970.00,51.190
971.00,51.226
972.00,51.182
973.00,51.279
974.00,51.204
975.00,51.209
976.00,51.228
977.00,51.225
978.00,51.257
979.00,51.212
980.00,51.238
981.00,51.247
982.00,51.225
983.00,51.224
984.00,51.207
985.00,51.229
986.00,51.177
987.00,51.189
988.00,51.143
989.00,51.168
990.00,51.156
991.00,51.143
992.00,51.146
993.00,51.134
994.00,51.102
995.00,51.088
996.00,51.109
997.00,51.084
998.00,51.060
999.00,51.094
1000.00,51.043
1001.00,51.026
1002.00,51.030
1003.00,51.062
1004.00,51.008
1005.00,50.990
1006.00,50.988
1007.00,50.964
1008.00,50.955
1009.00,50.938
1010.00,50.936
1011.00,50.944
1012.00,50.890
1013.00,50.890
1014.00,50.845
1015.00,50.860
1016.00,50.836
1017.00,50.825
1018.00,50.833
1019.00,50.830
1020.00,50.802
1021.00,50.793
1022.00,50.780
1023.00,50.741
1024.00,50.753
1025.00,50.719
1026.00,50.715
1027.00,50.682
1028.00,50.678
1029.00,50.663
1030.00,50.632
1031.00,50.638
1032.00,50.615
1033.00,50.610
1034.00,50.571
1035.00,50.551
1036.00,50.517
1037.00,50.504
1038.00,50.487
1039.00,50.448
1040.00,50.451
1041.00,50.403
1042.00,50.397
1043.00,50.402
1044.00,50.422
1045.00,50.399
1046.00,50.397
1047.00,50.406
1048.00,50.423
1049.00,50.443
1050.00,50.439
1051.00,50.479
1052.00,50.478
1053.00,50.480
1054.00,50.486
1055.00,50.484
1056.00,50.517
1057.00,50.523
1058.00,50.489
1059.00,50.476
1060.00,50.481
1061.00,50.475
1062.00,50.461
1063.00,50.467
1064.00,50.442
1065.00,50.455
1066.00,50.437
1067.00,50.429
1068.00,50.430
1069.00,50.397
1070.00,50.379
1071.00,50.374
1072.00,50.399
1073.00,50.369
1074.00,50.355
1075.00,50.343
1076.00,50.343
1077.00,50.322
1078.00,50.302
1079.00,50.309
1080.00,50.312
1081.00,50.289
1082.00,50.302
1083.00,50.281
1084.00,50.275
1085.00,50.263
1086.00,50.257
1087.00,50.259
1088.00,50.234
1089.00,50.235
1090.00,50.231
1091.00,50.216
1092.00,50.202
1093.00,50.182
1094.00,50.179
1095.00,50.166
1096.00,50.152
1097.00,50.138
1098.00,50.148
1099.00,50.124
1100.00,50.129
1101.00,50.104
1102.00,50.110
1103.00,50.140
1104.00,50.100
1105.00,50.073
1106.00,50.064
1107.00,50.055
1108.00,50.055
1109.00,50.056
1110.00,50.047
1111.00,50.039
1112.00,50.034
1113.00,50.016
1114.00,50.025
1115.00,50.015
1116.00,49.992
1117.00,49.999
1118.00,49.995
1119.00,49.951
1120.00,49.956
1121.00,49.939
1122.00,49.941
1123.00,49.943
1124.00,49.924
1125.00,49.923
1126.00,49.926
1127.00,49.923
1128.00,49.917
1129.00,49.887
1130.00,49.887
1131.00,49.896
1132.00,49.895
1133.00,49.876
1134.00,49.868
1135.00,49.847
1136.00,49.846
1137.00,49.837
1138.00,49.838
1139.00,49.840
1140.00,49.817
1141.00,49.813
1142.00,49.823
1143.00,49.818
1144.00,49.787
1145.00,49.801
1146.00,49.787
1147.00,49.791
1148.00,49.792
1149.00,49.787
1150.00,49.797
1151.00,49.785
1152.00,49.764
1153.00,49.768
1154.00,49.759
1155.00,49.770
1156.00,49.764
1157.00,49.795
1158.00,49.784
1159.00,49.776
1160.00,49.758
1161.00,49.765
1162.00,49.744
1163.00,49.737
1164.00,49.745
1165.00,49.726
1166.00,49.728
1167.00,49.728
1168.00,49.729
1169.00,49.738
1170.00,49.736
1171.00,49.733
1172.00,49.729
1173.00,49.706
1174.00,49.717
1175.00,49.714
1176.00,49.715
1177.00,49.687
1178.00,49.713
1179.00,49.726
1180.00,49.689
1181.00,49.718
1182.00,49.701
1183.00,49.696
1184.00,49.677
1185.00,49.688
1186.00,49.687
1187.00,49.688
1188.00,49.667
1189.00,49.686
1190.00,49.664
1191.00,49.680
1192.00,49.710
1193.00,49.687
1194.00,49.683
1195.00,49.654
1196.00,49.675
1197.00,49.675
1198.00,49.657
1199.00,49.654
1200.00,49.673
1201.00,49.664
1202.00,49.656
1203.00,49.652
1204.00,49.640
1205.00,49.661
1206.00,49.632
1207.00,49.630
1208.00,49.631
1209.00,49.625
1210.00,49.630
1211.00,49.643
1212.00,49.644
1213.00,49.614
1214.00,49.651
1215.00,49.625
1216.00,49.633
1217.00,49.624
1218.00,49.614
1219.00,49.639
1220.00,49.615
1221.00,49.620
1222.00,49.614
1223.00,49.650
1224.00,49.649
1225.00,49.634
1226.00,49.631
1227.00,49.629
1228.00,49.636
1229.00,49.625
1230.00,49.665
1231.00,49.641
1232.00,49.662
1233.00,49.671
1234.00,49.665
1235.00,49.663
1236.00,49.665
1237.00,49.667
1238.00,49.665
1239.00,49.695
1240.00,49.674
1241.00,49.692
1242.00,49.673
1243.00,49.683
1244.00,49.682
1245.00,49.688
1246.00,49.699
1247.00,49.691
1248.00,49.677
1249.00,49.686
1250.00,49.693
1251.00,49.700
1252.00,49.716
1253.00,49.698
1254.00,49.716
1255.00,49.723
1256.00,49.687
1257.00,49.649
1258.00,49.739
1259.00,49.724
1260.00,49.740
1261.00,49.725
1262.00,49.713
1263.00,49.718
1264.00,49.723
1265.00,49.735
1266.00,49.742
1267.00,49.742
1268.00,49.760
1269.00,49.752
1270.00,49.769
1271.00,49.760
1272.00,49.757
1273.00,49.761
1274.00,49.772
1275.00,49.758
1276.00,49.769
1277.00,49.775
1278.00,49.765
1279.00,49.773
1280.00,49.781
1281.00,49.795
1282.00,49.799
1283.00,49.779
1284.00,49.814
1285.00,49.807
1286.00,49.805
1287.00,49.796
1288.00,49.820
1289.00,49.810
1290.00,49.826
1291.00,49.833
1292.00,49.819
1293.00,49.832
1294.00,49.842
1295.00,49.854
1296.00,49.858
1297.00,49.854
1298.00,49.876
1299.00,49.861
1300.00,49.868
1301.00,49.871
1302.00,49.871
1303.00,49.907
1304.00,49.885
1305.00,49.899
1306.00,49.897
1307.00,49.920
1308.00,49.913
1309.00,49.926
1310.00,49.922
1311.00,49.897
1312.00,49.915
1313.00,49.915
1314.00,49.930
1315.00,49.942
1316.00,49.942
1317.00,49.957
1318.00,49.955
1319.00,49.955
1320.00,49.975
1321.00,50.104
1322.00,50.097
1323.00,50.078
1324.00,50.101
1325.00,50.069
1326.00,50.107
1327.00,50.107
1328.00,50.099
1329.00,50.077
1330.00,50.079
1331.00,50.080
1332.00,50.094
1333.00,50.088
1334.00,50.117
1335.00,50.147
1336.00,50.163
1337.00,50.191
1338.00,50.253
1339.00,50.277
1340.00,50.341
1341.00,50.404
1342.00,50.466
1343.00,50.537
1344.00,50.576
1345.00,50.678
1346.00,50.682
1347.00,50.698
1348.00,50.692
1349.00,50.723
1350.00,50.736
1351.00,50.748
1352.00,50.730
1353.00,50.754
1354.00,50.764
1355.00,50.753
1356.00,50.767
1357.00,50.796
1358.00,50.786
1359.00,50.811
1360.00,50.838
1361.00,50.744
1362.00,50.755
1363.00,50.832
1364.00,50.795
1365.00,50.778
1366.00,50.804
1367.00,50.747
1368.00,50.759
1369.00,50.774
1370.00,50.762
1371.00,50.764
1372.00,50.762
1373.00,50.764
1374.00,50.789
1375.00,50.765
1376.00,50.763
1377.00,50.738
1378.00,50.775
1379.00,50.757
1380.00,50.750
1381.00,50.721
1382.00,50.728
1383.00,50.750
1384.00,50.725
1385.00,50.717
1386.00,50.765
1387.00,50.723
1388.00,50.727
1389.00,50.743
1390.00,50.765
1391.00,50.731
1392.00,50.727
1393.00,50.756
1394.00,50.729
1395.00,50.713
1396.00,50.694
1397.00,50.750
1398.00,50.773
1399.00,50.734
1400.00,50.710
1401.00,50.726
1402.00,50.786
1403.00,50.764
1404.00,50.783
1405.00,50.797
1406.00,50.802
1407.00,50.811
1408.00,50.814
1409.00,50.823
1410.00,50.829
1411.00,50.820
1412.00,50.867
1413.00,50.795
1414.00,50.811
1415.00,50.857
1416.00,50.863
1417.00,50.892
1418.00,50.885
1419.00,50.879
1420.00,50.913
1421.00,50.935
1422.00,50.921
1423.00,50.946
1424.00,50.953
1425.00,50.973
1426.00,51.001
1427.00,51.002
1428.00,51.011
1429.00,51.025
1430.00,51.023
1431.00,51.055
1432.00,51.045
1433.00,51.068
1434.00,51.073
1435.00,51.105
1436.00,51.113
1437.00,51.120
1438.00,51.132
1439.00,51.160
1440.00,51.160
1441.00,51.164
1442.00,51.189
1443.00,51.207
1444.00,51.217
1445.00,51.219
1446.00,51.231
1447.00,51.262
1448.00,51.284
1449.00,51.289
1450.00,51.301
1451.00,51.330
1452.00,51.347
1453.00,51.359
1454.00,51.356
1455.00,51.391
1456.00,51.419
1457.00,51.396
1458.00,51.418
1459.00,51.445
1460.00,51.448
1461.00,51.451
1462.00,51.484
1463.00,51.477
1464.00,51.502
1465.00,51.504
1466.00,51.508
1467.00,51.554
1468.00,51.569
1469.00,51.573
1470.00,51.585
1471.00,51.590
1472.00,51.611
1473.00,51.610
1474.00,51.639
1475.00,51.662
1476.00,51.669
1477.00,51.657
1478.00,51.684
1479.00,51.694
1480.00,51.696
1481.00,51.717
1482.00,51.744
1483.00,51.753
1484.00,51.750
1485.00,51.767
1486.00,51.787
1487.00,51.803
1488.00,51.817
1489.00,51.828
1490.00,51.829
1491.00,51.833
1492.00,51.859
1493.00,51.865
1494.00,51.886
1495.00,51.880
1496.00,51.888
1497.00,51.911
1498.00,51.899
1499.00,51.910
1500.00,51.955
1501.00, 
1502.00, 
1503.00, 
1504.00, 
1505.00, 
1506.00, 
1507.00, 
1508.00, 
1509.00, 
1510.00, 
1511.00, 
1512.00, 
1513.00, 
1514.00, 
1515.00, 
1516.00, 
1517.00, 
1518.00, 
1519.00, 
1520.00, 
1521.00, 
1522.00, 
1523.00, 
1524.00, 
1525.00, 
1526.00, 
1527.00, 
1528.00, 
1529.00, 
1530.00, 
1531.00, 
1532.00, 
1533.00, 
1534.00, 
1535.00, 
1536.00, 
1537.00, 
1538.00, 
1539.00, 
1540.00, 
1541.00, 
1542.00, 
1543.00, 
1544.00, 
1545.00, 
1546.00, 
1547.00, 
1548.00, 
1549.00, 
1550.00, 
1551.00, 
1552.00, 
1553.00, 
1554.00, 
1555.00, 
1556.00, 
1557.00, 
1558.00, 
1559.00, 
1560.00, 
1561.00, 
1562.00, 
1563.00, 
1564.00, 
1565.00, 
1566.00, 
1567.00, 
1568.00, 
1569.00, 
1570.00, 
1571.00, 
1572.00, 
1573.00, 
1574.00, 
1575.00, 
1576.00, 
1577.00, 
1578.00, 
1579.00, 
1580.00, 
1581.00, 
1582.00, 
1583.00, 
1584.00, 
1585.00, 
1586.00, 
1587.00, 
1588.00, 
1589.00, 
1590.00, 
1591.00, 
1592.00, 
1593.00, 
1594.00, 
1595.00, 
1596.00, 
1597.00, 
1598.00, 
1599.00, 
1600.00, 
1601.00, 
1602.00, 
1603.00, 
1604.00, 
1605.00, 
1606.00, 
1607.00, 
1608.00, 
1609.00, 
1610.00, 
1611.00, 
1612.00, 
1613.00, 
1614.00, 
1615.00, 
1616.00, 
1617.00, 
1618.00, 
1619.00, 
1620.00, 
1621.00, 
1622.00, 
1623.00, 
1624.00, 
1625.00, 
1626.00, 
1627.00, 
1628.00, 
1629.00, 
1630.00, 
1631.00, 
1632.00, 
1633.00, 
1634.00, 
1635.00, 
1636.00, 
1637.00, 
1638.00, 
1639.00, 
1640.00, 
1641.00, 
1642.00, 
1643.00, 
1644.00, 
1645.00, 
1646.00, 
1647.00, 
1648.00, 
1649.00, 
1650.00, 
1651.00, 
1652.00, 
1653.00, 
1654.00, 
1655.00, 
1656.00, 
1657.00, 
1658.00, 
1659.00, 
1660.00, 
1661.00, 
1662.00, 
1663.00, 
1664.00, 
1665.00, 
1666.00, 
1667.00, 
1668.00, 
1669.00, 
1670.00, 
1671.00, 
1672.00, 
1673.00, 
1674.00, 
1675.00, 
1676.00, 
1677.00, 
1678.00, 
1679.00, 
1680.00, 
1681.00, 
1682.00, 
1683.00, 
1684.00, 
1685.00, 
1686.00, 
1687.00, 
1688.00, 
1689.00, 
1690.00, 
1691.00, 
1692.00, 
1693.00, 
1694.00, 
1695.00, 
1696.00, 
1697.00, 
1698.00, 
1699.00, 
1700.00, 
1701.00, 
1702.00, 
1703.00, 
1704.00, 
1705.00, 
1706.00, 
1707.00, 
1708.00, 
1709.00, 
1710.00, 
1711.00, 
1712.00, 
1713.00, 
1714.00, 
1715.00, 
1716.00, 
1717.00, 
1718.00, 
1719.00, 
1720.00, 
1721.00, 
1722.00, 
1723.00, 
1724.00, 
1725.00, 
1726.00, 
1727.00, 
1728.00, 
1729.00, 
1730.00, 
1731.00, 
1732.00, 
1733.00, 
1734.00, 
1735.00, 
1736.00, 
1737.00, 
1738.00, 
1739.00, 
1740.00, 
1741.00, 
1742.00, 
1743.00, 
1744.00, 
1745.00, 
1746.00, 
1747.00, 
1748.00, 
1749.00, 
1750.00, 
1751.00, 
1752.00, 
1753.00, 
1754.00, 
1755.00, 
1756.00, 
1757.00, 
1758.00, 
1759.00, 
1760.00, 
1761.00, 
1762.00, 
1763.00, 
1764.00, 
1765.00, 
1766.00, 
1767.00, 
1768.00, 
1769.00, 
1770.00, 
1771.00, 
1772.00, 
1773.00, 
1774.00, 
1775.00, 
1776.00, 
1777.00, 
1778.00, 
1779.00, 
1780.00, 
1781.00, 
1782.00, 
1783.00, 
1784.00, 
1785.00, 
1786.00, 
1787.00, 
1788.00, 
1789.00, 
1790.00, 
1791.00, 
1792.00, 
1793.00, 
1794.00, 
1795.00, 
1796.00, 
1797.00, 
1798.00, 
1799.00, 
1800.00, 
1801.00, 
1802.00, 
1803.00, 
1804.00, 
1805.00, 
1806.00, 
1807.00, 
1808.00, 
1809.00, 
1810.00, 
1811.00, 
1812.00, 
1813.00, 
1814.00, 
1815.00, 
1816.00, 
1817.00, 
1818.00, 
1819.00, 
1820.00, 
1821.00, 
1822.00, 
1823.00, 
1824.00, 
1825.00, 
1826.00, 
1827.00, 
1828.00, 
1829.00, 
1830.00, 
1831.00, 
1832.00, 
1833.00, 
1834.00, 
1835.00, 
1836.00, 
1837.00, 
1838.00, 
1839.00, 
1840.00, 
1841.00, 
1842.00, 
1843.00, 
1844.00, 
1845.00, 
1846.00, 
1847.00, 
1848.00, 
1849.00, 
1850.00, 
1851.00, 
1852.00, 
1853.00, 
1854.00, 
1855.00, 
1856.00, 
1857.00, 
1858.00, 
1859.00, 
1860.00, 
1861.00, 
1862.00, 
1863.00, 
1864.00, 
1865.00, 
1866.00, 
1867.00, 
1868.00, 
1869.00, 
1870.00, 
1871.00, 
1872.00, 
1873.00, 
1874.00, 
1875.00, 
1876.00, 
1877.00, 
1878.00, 
1879.00, 
1880.00, 
1881.00, 
1882.00, 
1883.00, 
1884.00, 
1885.00, 
1886.00, 
1887.00, 
1888.00, 
1889.00, 
1890.00, 
1891.00, 
1892.00, 
1893.00, 
1894.00, 
1895.00, 
1896.00, 
1897.00, 
1898.00, 
1899.00, 
1900.00, 
1901.00, 
1902.00, 
1903.00, 
1904.00, 
1905.00, 
1906.00, 
1907.00, 
1908.00, 
1909.00, 
1910.00, 
1911.00, 
1912.00, 
1913.00, 
1914.00, 
1915.00, 
1916.00, 
1917.00, 
1918.00, 
1919.00, 
1920.00, 
1921.00, 
1922.00, 
1923.00, 
1924.00, 
1925.00, 
1926.00, 
1927.00, 
1928.00, 
1929.00, 
1930.00, 
1931.00, 
1932.00, 
1933.00, 
1934.00, 
1935.00, 
1936.00, 
1937.00, 
1938.00, 
1939.00, 
1940.00, 
1941.00, 
1942.00, 
1943.00, 
1944.00, 
1945.00, 
1946.00, 
1947.00, 
1948.00, 
1949.00, 
1950.00, 
1951.00, 
1952.00, 
1953.00, 
1954.00, 
1955.00, 
1956.00, 
1957.00, 
1958.00, 
1959.00, 
1960.00, 
1961.00, 
1962.00, 
1963.00, 
1964.00, 
1965.00, 
1966.00, 
1967.00, 
1968.00, 
1969.00, 
1970.00, 
1971.00, 
1972.00, 
1973.00, 
1974.00, 
1975.00, 
1976.00, 
1977.00, 
1978.00, 
1979.00, 
1980.00, 
1981.00, 
1982.00, 
1983.00, 
1984.00, 
1985.00, 
1986.00, 
1987.00, 
1988.00, 
1989.00, 
1990.00, 
1991.00, 
1992.00, 
1993.00, 
1994.00, 
1995.00, 
1996.00, 
1997.00, 
1998.00, 
1999.00, 
2000.00, 
2001.00, 
2002.00, 
2003.00, 
2004.00, 
2005.00, 
2006.00, 
2007.00, 
2008.00, 
2009.00, 
2010.00, 
2011.00, 
2012.00, 
2013.00, 
2014.00, 
2015.00, 
2016.00, 
2017.00, 
2018.00, 
2019.00, 
2020.00, 
2021.00, 
2022.00, 
2023.00, 
2024.00, 
2025.00, 
2026.00, 
2027.00, 
2028.00, 
2029.00, 
2030.00, 
2031.00, 
2032.00, 
2033.00, 
2034.00, 
2035.00, 
2036.00, 
2037.00, 
2038.00, 
2039.00, 
2040.00, 
2041.00, 
2042.00, 
2043.00, 
2044.00, 
2045.00, 
2046.00, 
2047.00, 
2048.00, 
2049.00, 
2050.00, 
2051.00, 
2052.00, 
2053.00, 
2054.00, 
2055.00, 
2056.00, 
2057.00, 
2058.00, 
2059.00, 
2060.00, 
2061.00, 
2062.00, 
2063.00, 
2064.00, 
2065.00, 
2066.00, 
2067.00, 
2068.00, 
2069.00, 
2070.00, 
2071.00, 
2072.00, 
2073.00, 
2074.00, 
2075.00, 
2076.00, 
2077.00, 
2078.00, 
2079.00, 
2080.00, 
2081.00, 
2082.00, 
2083.00, 
2084.00, 
2085.00, 
2086.00, 
2087.00, 
2088.00, 
2089.00, 
2090.00, 
2091.00, 
2092.00, 
2093.00, 
2094.00, 
2095.00, 
2096.00, 
2097.00, 
2098.00, 
2099.00, 
2100.00, 
2101.00, 
2102.00, 
2103.00, 
2104.00, 
2105.00, 
2106.00, 
2107.00, 
2108.00, 
2109.00, 
2110.00, 
2111.00, 
2112.00, 
2113.00, 
2114.00, 
2115.00, 
2116.00, 
2117.00, 
2118.00, 
2119.00, 
2120.00, 
2121.00, 
2122.00, 
2123.00, 
2124.00, 
2125.00, 
2126.00, 
2127.00, 
2128.00, 
2129.00, 
2130.00, 
2131.00, 
2132.00, 
2133.00, 
2134.00, 
2135.00, 
2136.00, 
2137.00, 
2138.00, 
2139.00, 
2140.00, 
2141.00, 
2142.00, 
2143.00, 
2144.00, 
2145.00, 
2146.00, 
2147.00, 
2148.00, 
2149.00, 
2150.00, 
2151.00, 
2152.00, 
2153.00, 
2154.00, 
2155.00, 
2156.00, 
2157.00, 
2158.00, 
2159.00, 
2160.00, 
2161.00, 
2162.00, 
2163.00, 
2164.00, 
2165.00, 
2166.00, 
2167.00, 
2168.00, 
2169.00, 
2170.00, 
2171.00, 
2172.00, 
2173.00, 
2174.00, 
2175.00, 
2176.00, 
2177.00, 
2178.00, 
2179.00, 
2180.00, 
2181.00, 
2182.00, 
2183.00, 
2184.00, 
2185.00, 
2186.00, 
2187.00, 
2188.00, 
2189.00, 
2190.00, 
2191.00, 
2192.00, 
2193.00, 
2194.00, 
2195.00, 
2196.00, 
2197.00, 
2198.00, 
2199.00, 
2200.00, 
2201.00, 
2202.00, 
2203.00, 
2204.00, 
2205.00, 
2206.00, 
2207.00, 
2208.00, 
2209.00, 
2210.00, 
2211.00, 
2212.00, 
2213.00, 
2214.00, 
2215.00, 
2216.00, 
2217.00, 
2218.00, 
2219.00, 
2220.00, 
2221.00, 
2222.00, 
2223.00, 
2224.00, 
2225.00, 
2226.00, 
2227.00, 
2228.00, 
2229.00, 
2230.00, 
2231.00, 
2232.00, 
2233.00, 
2234.00, 
2235.00, 
2236.00, 
2237.00, 
2238.00, 
2239.00, 
2240.00, 
2241.00, 
2242.00, 
2243.00, 
2244.00, 
2245.00, 
2246.00, 
2247.00, 
2248.00, 
2249.00, 
2250.00, 
2251.00, 
2252.00, 
2253.00, 
2254.00, 
2255.00, 
2256.00, 
2257.00, 
2258.00, 
2259.00, 
2260.00, 
2261.00, 
2262.00, 
2263.00, 
2264.00, 
2265.00, 
2266.00, 
2267.00, 
2268.00, 
2269.00, 
2270.00, 
2271.00, 
2272.00, 
2273.00, 
2274.00, 
2275.00, 
2276.00, 
2277.00, 
2278.00, 
2279.00, 
2280.00, 
2281.00, 
2282.00, 
2283.00, 
2284.00, 
2285.00, 
2286.00, 
2287.00, 
2288.00, 
2289.00, 
2290.00, 
2291.00, 
2292.00, 
2293.00, 
2294.00, 
2295.00, 
2296.00, 
2297.00, 
2298.00, 
2299.00, 
2300.00, 
2301.00, 
2302.00, 
2303.00, 
2304.00, 
2305.00, 
2306.00, 
2307.00, 
2308.00, 
2309.00, 
2310.00, 
2311.00, 
2312.00, 
2313.00, 
2314.00, 
2315.00, 
2316.00, 
2317.00, 
2318.00, 
2319.00, 
2320.00, 
2321.00, 
2322.00, 
2323.00, 
2324.00, 
2325.00, 
2326.00, 
2327.00, 
2328.00, 
2329.00, 
2330.00, 
2331.00, 
2332.00, 
2333.00, 
2334.00, 
2335.00, 
2336.00, 
2337.00, 
2338.00, 
2339.00, 
2340.00, 
2341.00, 
2342.00, 
2343.00, 
2344.00, 
2345.00, 
2346.00, 
2347.00, 
2348.00, 
2349.00, 
2350.00, 
2351.00, 
2352.00, 
2353.00, 
2354.00, 
2355.00, 
2356.00, 
2357.00, 
2358.00, 
2359.00, 
2360.00, 
2361.00, 
2362.00, 
2363.00, 
2364.00, 
2365.00, 
2366.00, 
2367.00, 
2368.00, 
2369.00, 
2370.00, 
2371.00, 
2372.00, 
2373.00, 
2374.00, 
2375.00, 
2376.00, 
2377.00, 
2378.00, 
2379.00, 
2380.00, 
2381.00, 
2382.00, 
2383.00, 
2384.00, 
2385.00, 
2386.00, 
2387.00, 
2388.00, 
2389.00, 
2390.00, 
2391.00, 
2392.00, 
2393.00, 
2394.00, 
2395.00, 
2396.00, 
2397.00, 
2398.00, 
2399.00, 
2400.00, 
2401.00, 
2402.00, 
2403.00, 
2404.00, 
2405.00, 
2406.00, 
2407.00, 
2408.00, 
2409.00, 
2410.00, 
2411.00, 
2412.00, 
2413.00, 
2414.00, 
2415.00, 
2416.00, 
2417.00, 
2418.00, 
2419.00, 
2420.00, 
2421.00, 
2422.00, 
2423.00, 
2424.00, 
2425.00, 
2426.00, 
2427.00, 
2428.00, 
2429.00, 
2430.00, 
2431.00, 
2432.00, 
2433.00, 
2434.00, 
2435.00, 
2436.00, 
2437.00, 
2438.00, 
2439.00, 
2440.00, 
2441.00, 
2442.00, 
2443.00, 
2444.00, 
2445.00, 
2446.00, 
2447.00, 
2448.00, 
2449.00, 
2450.00, 
2451.00, 
2452.00, 
2453.00, 
2454.00, 
2455.00, 
2456.00, 
2457.00, 
2458.00, 
2459.00, 
2460.00, 
2461.00, 
2462.00, 
2463.00, 
2464.00, 
2465.00, 
2466.00, 
2467.00, 
2468.00, 
2469.00, 
2470.00, 
2471.00, 
2472.00, 
2473.00, 
2474.00, 
2475.00, 
2476.00, 
2477.00, 
2478.00, 
2479.00, 
2480.00, 
2481.00, 
2482.00, 
2483.00, 
2484.00, 
2485.00, 
2486.00, 
2487.00, 
2488.00, 
2489.00, 
2490.00, 
2491.00, 
2492.00, 
2493.00, 
2494.00, 
2495.00, 
2496.00, 
2497.00, 
2498.00, 
2499.00, 
2500.00, 
2501.00, 
2502.00, 
2503.00, 
2504.00, 
2505.00, 
2506.00, 
2507.00, 
2508.00, 
2509.00, 
2510.00, 
2511.00, 
2512.00, 
2513.00, 
2514.00, 
2515.00, 
2516.00, 
2517.00, 
2518.00, 
2519.00, 
2520.00, 
2521.00, 
2522.00, 
2523.00, 
2524.00, 
2525.00, 
2526.00, 
2527.00, 
2528.00, 
2529.00, 
2530.00, 
2531.00, 
2532.00, 
2533.00, 
2534.00, 
2535.00, 
2536.00, 
2537.00, 
2538.00, 
2539.00, 
2540.00, 
2541.00, 
2542.00, 
2543.00, 
2544.00, 
2545.00, 
2546.00, 
2547.00, 
2548.00, 
2549.00, 
2550.00, 
2551.00, 
2552.00, 
2553.00, 
2554.00, 
2555.00, 
2556.00, 
2557.00, 
2558.00, 
2559.00, 
2560.00, 
2561.00, 
2562.00, 
2563.00, 
2564.00, 
2565.00, 
2566.00, 
2567.00, 
2568.00, 
2569.00, 
2570.00, 
2571.00, 
2572.00, 
2573.00, 
2574.00, 
2575.00, 
2576.00, 
2577.00, 
2578.00, 
2579.00, 
2580.00, 
2581.00, 
2582.00, 
2583.00, 
2584.00, 
2585.00, 
2586.00, 
2587.00, 
2588.00, 
2589.00, 
2590.00, 
2591.00, 
2592.00, 
2593.00, 
2594.00, 
2595.00, 
2596.00, 
2597.00, 
2598.00, 
2599.00, 
2600.00, 
