"1aP2 - RawData"
"Wavelength nm.","T%"
200.00,0.002
201.00,0.004
202.00,0.004
203.00,-0.005
204.00,0.001
205.00,0.001
206.00,0.001
207.00,0.001
208.00,-0.001
209.00,0.000
210.00,0.000
211.00,0.000
212.00,0.000
213.00,-0.001
214.00,0.002
215.00,-0.001
216.00,0.001
217.00,0.000
218.00,0.001
219.00,0.003
220.00,-0.004
221.00,0.001
222.00,0.001
223.00,0.001
224.00,0.000
225.00,-0.000
226.00,-0.002
227.00,-0.002
228.00,0.001
229.00,-0.002
230.00,0.000
231.00,0.002
232.00,0.001
233.00,0.001
234.00,-0.001
235.00,0.002
236.00,0.002
237.00,0.003
238.00,0.001
239.00,0.000
240.00,-0.000
241.00,-0.001
242.00,0.001
243.00,-0.001
244.00,-0.000
245.00,0.001
246.00,-0.002
247.00,0.001
248.00,-0.001
249.00,0.001
250.00,0.002
251.00,0.000
252.00,0.000
253.00,0.001
254.00,0.001
255.00,0.002
256.00,0.001
257.00,-0.000
258.00,0.000
259.00,-0.001
260.00,0.000
261.00,0.001
262.00,0.001
263.00,-0.000
264.00,-0.000
265.00,0.001
266.00,-0.002
267.00,-0.001
268.00,-0.000
269.00,-0.001
270.00,-0.001
271.00,-0.001
272.00,-0.001
273.00,-0.000
274.00,0.001
275.00,0.003
276.00,-0.001
277.00,0.001
278.00,0.002
279.00,-0.001
280.00,0.001
281.00,0.000
282.00,-0.002
283.00,0.001
284.00,-0.000
285.00,0.001
286.00,0.001
287.00,0.000
288.00,0.002
289.00,0.002
290.00,0.002
291.00,-0.001
292.00,0.000
293.00,0.001
294.00,0.001
295.00,-0.001
296.00,0.001
297.00,0.000
298.00,0.002
299.00,0.004
300.00,0.003
301.00,0.005
302.00,0.007
303.00,0.010
304.00,0.016
305.00,0.027
306.00,0.041
307.00,0.061
308.00,0.094
309.00,0.143
310.00,0.199
311.00,0.271
312.00,0.369
313.00,0.497
314.00,0.650
315.00,0.835
316.00,1.049
317.00,1.300
318.00,1.603
319.00,1.955
320.00,2.370
321.00,2.824
322.00,3.294
323.00,3.773
324.00,4.427
325.00,5.017
326.00,5.621
327.00,6.280
328.00,6.959
329.00,7.658
330.00,8.391
331.00,9.068
332.00,9.822
333.00,10.562
334.00,11.249
335.00,11.972
336.00,12.665
337.00,13.356
338.00,14.060
339.00,14.656
340.00,15.323
341.00,15.938
342.00,16.484
343.00,17.048
344.00,17.617
345.00,18.063
346.00,18.561
347.00,18.993
348.00,19.423
349.00,19.688
350.00,20.198
351.00,20.475
352.00,20.785
353.00,21.084
354.00,21.323
355.00,21.562
356.00,21.827
357.00,21.896
358.00,22.209
359.00,22.404
360.00,22.584
361.00,22.698
362.00,22.845
363.00,23.006
364.00,23.077
365.00,23.161
366.00,23.233
367.00,23.245
368.00,23.302
369.00,23.323
370.00,23.316
371.00,23.368
372.00,23.286
373.00,23.326
374.00,23.267
375.00,23.253
376.00,23.200
377.00,23.155
378.00,23.079
379.00,22.999
380.00,22.941
381.00,22.961
382.00,22.945
383.00,22.896
384.00,22.934
385.00,22.958
386.00,22.941
387.00,22.990
388.00,23.016
389.00,23.001
390.00,23.036
391.00,23.042
392.00,23.120
393.00,23.076
394.00,23.062
395.00,23.070
396.00,23.064
397.00,23.074
398.00,23.012
399.00,23.025
400.00,22.997
401.00,22.984
402.00,23.052
403.00,22.999
404.00,23.050
405.00,23.028
406.00,23.032
407.00,23.003
408.00,23.015
409.00,22.929
410.00,22.912
411.00,22.900
412.00,22.835
413.00,22.854
414.00,22.844
415.00,22.835
416.00,22.894
417.00,22.840
418.00,22.877
419.00,22.946
420.00,22.967
421.00,22.951
422.00,22.972
423.00,23.001
424.00,23.049
425.00,23.096
426.00,23.121
427.00,23.161
428.00,23.209
429.00,23.232
430.00,23.298
431.00,23.339
432.00,23.342
433.00,23.484
434.00,23.492
435.00,23.560
436.00,23.650
437.00,23.702
438.00,23.784
439.00,23.834
440.00,23.899
441.00,23.976
442.00,24.059
443.00,24.119
444.00,24.224
445.00,24.303
446.00,24.420
447.00,24.518
448.00,24.611
449.00,24.733
450.00,24.776
451.00,24.899
452.00,25.006
453.00,25.058
454.00,25.233
455.00,25.359
456.00,25.446
457.00,25.599
458.00,25.671
459.00,25.747
460.00,25.975
461.00,26.079
462.00,26.209
463.00,26.325
464.00,26.417
465.00,26.561
466.00,26.718
467.00,26.805
468.00,26.942
469.00,27.090
470.00,27.131
471.00,27.252
472.00,27.362
473.00,27.447
474.00,27.569
475.00,27.791
476.00,27.893
477.00,28.046
478.00,28.171
479.00,28.351
480.00,28.505
481.00,28.620
482.00,28.785
483.00,28.936
484.00,29.055
485.00,29.267
486.00,29.389
487.00,29.548
488.00,29.693
489.00,29.788
490.00,29.922
491.00,30.099
492.00,30.214
493.00,30.452
494.00,30.556
495.00,30.646
496.00,30.748
497.00,30.906
498.00,31.040
499.00,31.194
500.00,31.300
501.00,31.289
502.00,31.568
503.00,31.688
504.00,31.753
505.00,31.927
506.00,32.070
507.00,32.126
508.00,32.278
509.00,32.410
510.00,32.541
511.00,32.642
512.00,32.810
513.00,32.952
514.00,33.085
515.00,33.219
516.00,33.307
517.00,33.464
518.00,33.571
519.00,33.629
520.00,33.695
521.00,33.814
522.00,33.926
523.00,33.997
524.00,34.076
525.00,34.183
526.00,34.296
527.00,34.372
528.00,34.397
529.00,34.537
530.00,34.643
531.00,34.826
532.00,34.892
533.00,34.988
534.00,35.092
535.00,35.166
536.00,35.240
537.00,35.294
538.00,35.404
539.00,35.452
540.00,35.521
541.00,35.540
542.00,35.616
543.00,35.670
544.00,35.751
545.00,35.801
546.00,35.853
547.00,35.980
548.00,36.025
549.00,36.107
550.00,36.216
551.00,36.230
552.00,36.322
553.00,36.410
554.00,36.422
555.00,36.517
556.00,36.524
557.00,36.539
558.00,36.624
559.00,36.676
560.00,36.692
561.00,36.852
562.00,36.910
563.00,36.930
564.00,36.991
565.00,36.998
566.00,37.056
567.00,37.128
568.00,37.125
569.00,37.141
570.00,37.165
571.00,37.292
572.00,37.289
573.00,37.285
574.00,37.349
575.00,37.355
576.00,37.378
577.00,37.482
578.00,37.555
579.00,37.599
580.00,37.619
581.00,37.778
582.00,37.822
583.00,37.854
584.00,37.939
585.00,38.032
586.00,38.009
587.00,38.082
588.00,38.120
589.00,38.103
590.00,38.146
591.00,38.196
592.00,38.219
593.00,38.290
594.00,38.306
595.00,38.376
596.00,38.472
597.00,38.500
598.00,38.590
599.00,38.577
600.00,38.645
601.00,38.644
602.00,38.680
603.00,38.780
604.00,38.632
605.00,38.715
606.00,38.968
607.00,38.822
608.00,38.949
609.00,38.928
610.00,39.076
611.00,39.084
612.00,39.121
613.00,39.134
614.00,39.248
615.00,39.207
616.00,39.344
617.00,39.375
618.00,39.388
619.00,39.459
620.00,39.510
621.00,39.576
622.00,39.624
623.00,39.716
624.00,39.757
625.00,39.817
626.00,39.855
627.00,39.919
628.00,39.921
629.00,39.999
630.00,40.082
631.00,40.074
632.00,40.140
633.00,40.307
634.00,40.412
635.00,40.459
636.00,40.546
637.00,40.643
638.00,40.736
639.00,40.752
640.00,40.857
641.00,40.862
642.00,40.945
643.00,41.046
644.00,41.119
645.00,41.173
646.00,41.274
647.00,41.335
648.00,41.422
649.00,41.521
650.00,41.560
651.00,41.632
652.00,41.692
653.00,41.842
654.00,41.925
655.00,41.943
656.00,42.088
657.00,42.344
658.00,42.234
659.00,42.290
660.00,42.413
661.00,42.520
662.00,42.643
663.00,42.676
664.00,42.823
665.00,42.905
666.00,42.961
667.00,43.145
668.00,43.118
669.00,43.246
670.00,43.419
671.00,43.494
672.00,43.632
673.00,43.511
674.00,43.647
675.00,43.836
676.00,43.922
677.00,44.053
678.00,44.091
679.00,44.221
680.00,44.371
681.00,44.541
682.00,44.636
683.00,44.649
684.00,44.803
685.00,44.853
686.00,44.833
687.00,45.000
688.00,45.034
689.00,45.058
690.00,45.171
691.00,45.318
692.00,45.457
693.00,45.446
694.00,45.628
695.00,45.730
696.00,45.714
697.00,45.785
698.00,45.994
699.00,46.180
700.00,46.242
701.00,46.278
702.00,46.467
703.00,46.490
704.00,46.604
705.00,46.570
706.00,46.698
707.00,46.820
708.00,46.621
709.00,46.931
710.00,46.997
711.00,46.858
712.00,47.230
713.00,47.158
714.00,47.308
715.00,47.366
716.00,47.478
717.00,47.517
718.00,47.590
719.00,47.594
720.00,47.766
721.00,51.944
722.00,52.026
723.00,52.054
724.00,52.044
725.00,52.026
726.00,52.138
727.00,52.156
728.00,52.168
729.00,52.249
730.00,52.286
731.00,52.301
732.00,52.268
733.00,52.334
734.00,52.345
735.00,52.496
736.00,52.494
737.00,52.516
738.00,52.613
739.00,52.544
740.00,52.632
741.00,52.626
742.00,52.652
743.00,52.723
744.00,52.690
745.00,52.733
746.00,52.829
747.00,52.687
748.00,52.752
749.00,52.781
750.00,52.791
751.00,52.798
752.00,52.786
753.00,52.889
754.00,52.883
755.00,52.827
756.00,52.891
757.00,52.895
758.00,52.913
759.00,52.889
760.00,52.953
761.00,52.936
762.00,53.007
763.00,52.991
764.00,52.980
765.00,52.979
766.00,53.026
767.00,53.072
768.00,53.040
769.00,53.094
770.00,53.184
771.00,53.094
772.00,53.197
773.00,53.193
774.00,53.108
775.00,53.138
776.00,53.181
777.00,53.289
778.00,53.191
779.00,53.241
780.00,53.196
781.00,53.263
782.00,53.269
783.00,53.248
784.00,53.250
785.00,53.160
786.00,53.200
787.00,53.193
788.00,53.163
789.00,53.214
790.00,53.193
791.00,53.267
792.00,53.154
793.00,53.232
794.00,53.147
795.00,53.224
796.00,53.259
797.00,53.144
798.00,53.193
799.00,53.123
800.00,53.136
801.00,53.128
802.00,53.129
803.00,53.123
804.00,53.018
805.00,52.995
806.00,53.103
807.00,53.007
808.00,53.062
809.00,53.110
810.00,53.006
811.00,53.046
812.00,53.098
813.00,52.984
814.00,53.057
815.00,53.016
816.00,52.959
817.00,52.974
818.00,52.876
819.00,52.929
820.00,52.937
821.00,52.910
822.00,52.965
823.00,52.825
824.00,52.949
825.00,52.900
826.00,52.911
827.00,52.872
828.00,52.919
829.00,52.836
830.00,52.834
831.00,55.451
832.00,55.437
833.00,55.370
834.00,55.428
835.00,55.410
836.00,55.378
837.00,55.383
838.00,55.337
839.00,55.360
840.00,55.305
841.00,55.308
842.00,55.234
843.00,55.389
844.00,55.277
845.00,55.264
846.00,55.257
847.00,55.246
848.00,55.280
849.00,55.160
850.00,55.162
851.00,55.081
852.00,55.119
853.00,55.092
854.00,55.095
855.00,55.054
856.00,55.031
857.00,55.034
858.00,54.935
859.00,54.902
860.00,55.089
861.00,54.958
862.00,54.949
863.00,54.931
864.00,54.904
865.00,54.930
866.00,54.931
867.00,54.895
868.00,54.878
869.00,54.881
870.00,54.879
871.00,54.863
872.00,54.861
873.00,54.833
874.00,54.849
875.00,54.811
876.00,54.815
877.00,54.781
878.00,54.750
879.00,54.771
880.00,54.752
881.00,54.743
882.00,54.807
883.00,54.773
884.00,54.698
885.00,54.706
886.00,54.700
887.00,54.662
888.00,54.643
889.00,54.638
890.00,54.616
891.00,54.619
892.00,54.590
893.00,54.585
894.00,54.578
895.00,54.531
896.00,54.507
897.00,54.506
898.00,54.474
899.00,54.496
900.00,54.457
901.00,54.484
902.00,54.483
903.00,54.430
904.00,54.408
905.00,54.426
906.00,54.398
907.00,54.371
908.00,54.313
909.00,54.320
910.00,54.284
911.00,54.279
912.00,54.269
913.00,54.218
914.00,54.245
915.00,54.204
916.00,54.193
917.00,54.177
918.00,54.180
919.00,54.133
920.00,54.107
921.00,54.123
922.00,54.113
923.00,54.073
924.00,54.031
925.00,54.053
926.00,54.036
927.00,54.012
928.00,53.993
929.00,53.988
930.00,53.970
931.00,53.943
932.00,53.902
933.00,53.901
934.00,53.899
935.00,53.880
936.00,53.865
937.00,53.819
938.00,53.833
939.00,53.803
940.00,53.813
941.00,53.810
942.00,53.792
943.00,53.756
944.00,53.757
945.00,53.746
946.00,53.734
947.00,53.705
948.00,53.681
949.00,53.671
950.00,53.636
951.00,53.635
952.00,53.616
953.00,53.572
954.00,53.542
955.00,53.529
956.00,53.470
957.00,53.438
958.00,53.471
959.00,53.410
960.00,53.406
961.00,53.415
962.00,53.423
963.00,53.376
964.00,53.384
965.00,53.383
966.00,53.391
967.00,53.359
968.00,53.347
969.00,53.353
970.00,53.333
971.00,53.350
972.00,53.263
973.00,53.361
974.00,53.373
975.00,53.347
976.00,53.345
977.00,53.350
978.00,53.383
979.00,53.355
980.00,53.375
981.00,53.386
982.00,53.325
983.00,53.354
984.00,53.334
985.00,53.347
986.00,53.323
987.00,53.325
988.00,53.275
989.00,53.298
990.00,53.269
991.00,53.288
992.00,53.280
993.00,53.252
994.00,53.245
995.00,53.240
996.00,53.243
997.00,53.196
998.00,53.209
999.00,53.187
1000.00,53.138
1001.00,53.127
1002.00,53.185
1003.00,53.181
1004.00,53.119
1005.00,53.103
1006.00,53.139
1007.00,53.116
1008.00,53.072
1009.00,53.057
1010.00,53.058
1011.00,53.030
1012.00,53.026
1013.00,53.043
1014.00,53.006
1015.00,53.024
1016.00,52.974
1017.00,52.968
1018.00,52.957
1019.00,52.937
1020.00,52.925
1021.00,52.912
1022.00,52.899
1023.00,52.842
1024.00,52.859
1025.00,52.843
1026.00,52.849
1027.00,52.816
1028.00,52.807
1029.00,52.808
1030.00,52.774
1031.00,52.787
1032.00,52.737
1033.00,52.748
1034.00,52.705
1035.00,52.691
1036.00,52.671
1037.00,52.659
1038.00,52.633
1039.00,52.618
1040.00,52.636
1041.00,52.590
1042.00,52.579
1043.00,52.552
1044.00,52.589
1045.00,52.576
1046.00,52.576
1047.00,52.580
1048.00,52.582
1049.00,52.588
1050.00,52.619
1051.00,52.632
1052.00,52.628
1053.00,52.640
1054.00,52.652
1055.00,52.652
1056.00,52.657
1057.00,52.673
1058.00,52.658
1059.00,52.665
1060.00,52.675
1061.00,52.661
1062.00,52.644
1063.00,52.657
1064.00,52.651
1065.00,52.628
1066.00,52.594
1067.00,52.605
1068.00,52.628
1069.00,52.606
1070.00,52.590
1071.00,52.587
1072.00,52.600
1073.00,52.583
1074.00,52.567
1075.00,52.550
1076.00,52.572
1077.00,52.537
1078.00,52.524
1079.00,52.528
1080.00,52.533
1081.00,52.508
1082.00,52.513
1083.00,52.519
1084.00,52.518
1085.00,52.507
1086.00,52.495
1087.00,52.521
1088.00,52.503
1089.00,52.485
1090.00,52.483
1091.00,52.480
1092.00,52.477
1093.00,52.445
1094.00,52.425
1095.00,52.415
1096.00,52.391
1097.00,52.400
1098.00,52.394
1099.00,52.373
1100.00,52.374
1101.00,52.376
1102.00,52.377
1103.00,52.371
1104.00,52.366
1105.00,52.351
1106.00,52.336
1107.00,52.325
1108.00,52.320
1109.00,52.299
1110.00,52.298
1111.00,52.311
1112.00,52.289
1113.00,52.271
1114.00,52.266
1115.00,52.273
1116.00,52.283
1117.00,52.261
1118.00,52.234
1119.00,52.241
1120.00,52.243
1121.00,52.223
1122.00,52.212
1123.00,52.214
1124.00,52.205
1125.00,52.207
1126.00,52.196
1127.00,52.198
1128.00,52.185
1129.00,52.152
1130.00,52.167
1131.00,52.165
1132.00,52.142
1133.00,52.119
1134.00,52.132
1135.00,52.115
1136.00,52.115
1137.00,52.126
1138.00,52.127
1139.00,52.134
1140.00,52.125
1141.00,52.104
1142.00,52.102
1143.00,52.104
1144.00,52.085
1145.00,52.077
1146.00,52.075
1147.00,52.086
1148.00,52.082
1149.00,52.111
1150.00,52.111
1151.00,52.110
1152.00,52.097
1153.00,52.106
1154.00,52.092
1155.00,52.059
1156.00,52.083
1157.00,52.112
1158.00,52.082
1159.00,52.096
1160.00,52.094
1161.00,52.100
1162.00,52.083
1163.00,52.090
1164.00,52.099
1165.00,52.084
1166.00,52.079
1167.00,52.083
1168.00,52.084
1169.00,52.075
1170.00,52.057
1171.00,52.047
1172.00,52.062
1173.00,52.040
1174.00,52.054
1175.00,52.046
1176.00,52.047
1177.00,52.038
1178.00,52.050
1179.00,52.066
1180.00,52.050
1181.00,52.055
1182.00,52.041
1183.00,52.046
1184.00,52.034
1185.00,52.069
1186.00,52.060
1187.00,52.059
1188.00,52.039
1189.00,52.040
1190.00,52.041
1191.00,52.047
1192.00,52.060
1193.00,52.057
1194.00,52.054
1195.00,52.032
1196.00,52.062
1197.00,52.070
1198.00,52.059
1199.00,52.037
1200.00,52.066
1201.00,52.075
1202.00,52.058
1203.00,52.049
1204.00,52.029
1205.00,52.053
1206.00,52.036
1207.00,52.060
1208.00,52.040
1209.00,52.046
1210.00,52.037
1211.00,52.057
1212.00,52.082
1213.00,52.032
1214.00,52.071
1215.00,52.045
1216.00,52.055
1217.00,52.052
1218.00,52.045
1219.00,52.068
1220.00,52.036
1221.00,52.059
1222.00,52.052
1223.00,52.068
1224.00,52.064
1225.00,52.044
1226.00,52.052
1227.00,52.055
1228.00,52.057
1229.00,52.065
1230.00,52.099
1231.00,52.078
1232.00,52.108
1233.00,52.119
1234.00,52.117
1235.00,52.110
1236.00,52.114
1237.00,52.093
1238.00,52.108
1239.00,52.105
1240.00,52.094
1241.00,52.098
1242.00,52.090
1243.00,52.105
1244.00,52.091
1245.00,52.112
1246.00,52.095
1247.00,52.103
1248.00,52.108
1249.00,52.117
1250.00,52.111
1251.00,52.103
1252.00,52.125
1253.00,52.120
1254.00,52.139
1255.00,52.125
1256.00,52.114
1257.00,52.112
1258.00,52.141
1259.00,52.163
1260.00,52.179
1261.00,52.179
1262.00,52.188
1263.00,52.190
1264.00,52.175
1265.00,52.172
1266.00,52.184
1267.00,52.182
1268.00,52.197
1269.00,52.185
1270.00,52.207
1271.00,52.211
1272.00,52.216
1273.00,52.228
1274.00,52.228
1275.00,52.237
1276.00,52.234
1277.00,52.234
1278.00,52.248
1279.00,52.238
1280.00,52.244
1281.00,52.268
1282.00,52.287
1283.00,52.266
1284.00,52.280
1285.00,52.280
1286.00,52.276
1287.00,52.256
1288.00,52.268
1289.00,52.266
1290.00,52.299
1291.00,52.302
1292.00,52.311
1293.00,52.313
1294.00,52.311
1295.00,52.329
1296.00,52.336
1297.00,52.339
1298.00,52.353
1299.00,52.355
1300.00,52.367
1301.00,52.356
1302.00,52.380
1303.00,52.387
1304.00,52.366
1305.00,52.386
1306.00,52.391
1307.00,52.400
1308.00,52.394
1309.00,52.395
1310.00,52.392
1311.00,52.375
1312.00,52.389
1313.00,52.414
1314.00,52.434
1315.00,52.449
1316.00,52.456
1317.00,52.462
1318.00,52.472
1319.00,52.466
1320.00,52.467
1321.00,52.317
1322.00,52.307
1323.00,52.286
1324.00,52.279
1325.00,52.279
1326.00,52.305
1327.00,52.287
1328.00,52.289
1329.00,52.291
1330.00,52.303
1331.00,52.298
1332.00,52.308
1333.00,52.303
1334.00,52.339
1335.00,52.359
1336.00,52.399
1337.00,52.414
1338.00,52.468
1339.00,52.521
1340.00,52.568
1341.00,52.631
1342.00,52.696
1343.00,52.729
1344.00,52.784
1345.00,52.837
1346.00,52.864
1347.00,52.891
1348.00,52.917
1349.00,52.935
1350.00,52.929
1351.00,52.961
1352.00,52.957
1353.00,52.971
1354.00,52.966
1355.00,52.968
1356.00,52.986
1357.00,52.977
1358.00,53.024
1359.00,53.001
1360.00,53.025
1361.00,53.027
1362.00,52.984
1363.00,53.107
1364.00,53.045
1365.00,53.036
1366.00,53.061
1367.00,53.017
1368.00,52.987
1369.00,53.048
1370.00,53.031
1371.00,52.999
1372.00,53.008
1373.00,53.007
1374.00,53.032
1375.00,52.986
1376.00,52.990
1377.00,52.982
1378.00,53.028
1379.00,53.000
1380.00,53.036
1381.00,53.022
1382.00,53.002
1383.00,53.046
1384.00,53.009
1385.00,53.000
1386.00,53.007
1387.00,52.969
1388.00,52.976
1389.00,52.940
1390.00,52.984
1391.00,53.015
1392.00,52.996
1393.00,52.942
1394.00,53.047
1395.00,52.935
1396.00,52.962
1397.00,52.999
1398.00,53.008
1399.00,53.038
1400.00,52.997
1401.00,52.992
1402.00,52.995
1403.00,52.991
1404.00,53.024
1405.00,53.066
1406.00,53.070
1407.00,53.054
1408.00,53.072
1409.00,53.049
1410.00,53.102
1411.00,53.069
1412.00,53.142
1413.00,53.081
1414.00,53.071
1415.00,53.096
1416.00,53.123
1417.00,53.166
1418.00,53.122
1419.00,53.131
1420.00,53.146
1421.00,53.195
1422.00,53.186
1423.00,53.199
1424.00,53.221
1425.00,53.239
1426.00,53.252
1427.00,53.261
1428.00,53.277
1429.00,53.278
1430.00,53.285
1431.00,53.297
1432.00,53.280
1433.00,53.312
1434.00,53.297
1435.00,53.360
1436.00,53.352
1437.00,53.337
1438.00,53.373
1439.00,53.388
1440.00,53.390
1441.00,53.417
1442.00,53.413
1443.00,53.445
1444.00,53.502
1445.00,53.467
1446.00,53.469
1447.00,53.493
1448.00,53.507
1449.00,53.528
1450.00,53.522
1451.00,53.532
1452.00,53.552
1453.00,53.554
1454.00,53.590
1455.00,53.609
1456.00,53.597
1457.00,53.624
1458.00,53.635
1459.00,53.648
1460.00,53.658
1461.00,53.670
1462.00,53.692
1463.00,53.683
1464.00,53.700
1465.00,53.720
1466.00,53.708
1467.00,53.735
1468.00,53.796
1469.00,53.760
1470.00,53.776
1471.00,53.819
1472.00,53.813
1473.00,53.822
1474.00,53.846
1475.00,53.856
1476.00,53.871
1477.00,53.858
1478.00,53.888
1479.00,53.916
1480.00,53.905
1481.00,53.925
1482.00,53.933
1483.00,53.936
1484.00,53.986
1485.00,53.960
1486.00,53.963
1487.00,54.002
1488.00,54.003
1489.00,54.001
1490.00,54.035
1491.00,54.073
1492.00,54.069
1493.00,54.044
1494.00,54.100
1495.00,54.099
1496.00,54.121
1497.00,54.107
1498.00,54.111
1499.00,54.134
1500.00,54.153
1501.00, 
1502.00, 
1503.00, 
1504.00, 
1505.00, 
1506.00, 
1507.00, 
1508.00, 
1509.00, 
1510.00, 
1511.00, 
1512.00, 
1513.00, 
1514.00, 
1515.00, 
1516.00, 
1517.00, 
1518.00, 
1519.00, 
1520.00, 
1521.00, 
1522.00, 
1523.00, 
1524.00, 
1525.00, 
1526.00, 
1527.00, 
1528.00, 
1529.00, 
1530.00, 
1531.00, 
1532.00, 
1533.00, 
1534.00, 
1535.00, 
1536.00, 
1537.00, 
1538.00, 
1539.00, 
1540.00, 
1541.00, 
1542.00, 
1543.00, 
1544.00, 
1545.00, 
1546.00, 
1547.00, 
1548.00, 
1549.00, 
1550.00, 
1551.00, 
1552.00, 
1553.00, 
1554.00, 
1555.00, 
1556.00, 
1557.00, 
1558.00, 
1559.00, 
1560.00, 
1561.00, 
1562.00, 
1563.00, 
1564.00, 
1565.00, 
1566.00, 
1567.00, 
1568.00, 
1569.00, 
1570.00, 
1571.00, 
1572.00, 
1573.00, 
1574.00, 
1575.00, 
1576.00, 
1577.00, 
1578.00, 
1579.00, 
1580.00, 
1581.00, 
1582.00, 
1583.00, 
1584.00, 
1585.00, 
1586.00, 
1587.00, 
1588.00, 
1589.00, 
1590.00, 
1591.00, 
1592.00, 
1593.00, 
1594.00, 
1595.00, 
1596.00, 
1597.00, 
1598.00, 
1599.00, 
1600.00, 
1601.00, 
1602.00, 
1603.00, 
1604.00, 
1605.00, 
1606.00, 
1607.00, 
1608.00, 
1609.00, 
1610.00, 
1611.00, 
1612.00, 
1613.00, 
1614.00, 
1615.00, 
1616.00, 
1617.00, 
1618.00, 
1619.00, 
1620.00, 
1621.00, 
1622.00, 
1623.00, 
1624.00, 
1625.00, 
1626.00, 
1627.00, 
1628.00, 
1629.00, 
1630.00, 
1631.00, 
1632.00, 
1633.00, 
1634.00, 
1635.00, 
1636.00, 
1637.00, 
1638.00, 
1639.00, 
1640.00, 
1641.00, 
1642.00, 
1643.00, 
1644.00, 
1645.00, 
1646.00, 
1647.00, 
1648.00, 
1649.00, 
1650.00, 
1651.00, 
1652.00, 
1653.00, 
1654.00, 
1655.00, 
1656.00, 
1657.00, 
1658.00, 
1659.00, 
1660.00, 
1661.00, 
1662.00, 
1663.00, 
1664.00, 
1665.00, 
1666.00, 
1667.00, 
1668.00, 
1669.00, 
1670.00, 
1671.00, 
1672.00, 
1673.00, 
1674.00, 
1675.00, 
1676.00, 
1677.00, 
1678.00, 
1679.00, 
1680.00, 
1681.00, 
1682.00, 
1683.00, 
1684.00, 
1685.00, 
1686.00, 
1687.00, 
1688.00, 
1689.00, 
1690.00, 
1691.00, 
1692.00, 
1693.00, 
1694.00, 
1695.00, 
1696.00, 
1697.00, 
1698.00, 
1699.00, 
1700.00, 
1701.00, 
1702.00, 
1703.00, 
1704.00, 
1705.00, 
1706.00, 
1707.00, 
1708.00, 
1709.00, 
1710.00, 
1711.00, 
1712.00, 
1713.00, 
1714.00, 
1715.00, 
1716.00, 
1717.00, 
1718.00, 
1719.00, 
1720.00, 
1721.00, 
1722.00, 
1723.00, 
1724.00, 
1725.00, 
1726.00, 
1727.00, 
1728.00, 
1729.00, 
1730.00, 
1731.00, 
1732.00, 
1733.00, 
1734.00, 
1735.00, 
1736.00, 
1737.00, 
1738.00, 
1739.00, 
1740.00, 
1741.00, 
1742.00, 
1743.00, 
1744.00, 
1745.00, 
1746.00, 
1747.00, 
1748.00, 
1749.00, 
1750.00, 
1751.00, 
1752.00, 
1753.00, 
1754.00, 
1755.00, 
1756.00, 
1757.00, 
1758.00, 
1759.00, 
1760.00, 
1761.00, 
1762.00, 
1763.00, 
1764.00, 
1765.00, 
1766.00, 
1767.00, 
1768.00, 
1769.00, 
1770.00, 
1771.00, 
1772.00, 
1773.00, 
1774.00, 
1775.00, 
1776.00, 
1777.00, 
1778.00, 
1779.00, 
1780.00, 
1781.00, 
1782.00, 
1783.00, 
1784.00, 
1785.00, 
1786.00, 
1787.00, 
1788.00, 
1789.00, 
1790.00, 
1791.00, 
1792.00, 
1793.00, 
1794.00, 
1795.00, 
1796.00, 
1797.00, 
1798.00, 
1799.00, 
1800.00, 
1801.00, 
1802.00, 
1803.00, 
1804.00, 
1805.00, 
1806.00, 
1807.00, 
1808.00, 
1809.00, 
1810.00, 
1811.00, 
1812.00, 
1813.00, 
1814.00, 
1815.00, 
1816.00, 
1817.00, 
1818.00, 
1819.00, 
1820.00, 
1821.00, 
1822.00, 
1823.00, 
1824.00, 
1825.00, 
1826.00, 
1827.00, 
1828.00, 
1829.00, 
1830.00, 
1831.00, 
1832.00, 
1833.00, 
1834.00, 
1835.00, 
1836.00, 
1837.00, 
1838.00, 
1839.00, 
1840.00, 
1841.00, 
1842.00, 
1843.00, 
1844.00, 
1845.00, 
1846.00, 
1847.00, 
1848.00, 
1849.00, 
1850.00, 
1851.00, 
1852.00, 
1853.00, 
1854.00, 
1855.00, 
1856.00, 
1857.00, 
1858.00, 
1859.00, 
1860.00, 
1861.00, 
1862.00, 
1863.00, 
1864.00, 
1865.00, 
1866.00, 
1867.00, 
1868.00, 
1869.00, 
1870.00, 
1871.00, 
1872.00, 
1873.00, 
1874.00, 
1875.00, 
1876.00, 
1877.00, 
1878.00, 
1879.00, 
1880.00, 
1881.00, 
1882.00, 
1883.00, 
1884.00, 
1885.00, 
1886.00, 
1887.00, 
1888.00, 
1889.00, 
1890.00, 
1891.00, 
1892.00, 
1893.00, 
1894.00, 
1895.00, 
1896.00, 
1897.00, 
1898.00, 
1899.00, 
1900.00, 
1901.00, 
1902.00, 
1903.00, 
1904.00, 
1905.00, 
1906.00, 
1907.00, 
1908.00, 
1909.00, 
1910.00, 
1911.00, 
1912.00, 
1913.00, 
1914.00, 
1915.00, 
1916.00, 
1917.00, 
1918.00, 
1919.00, 
1920.00, 
1921.00, 
1922.00, 
1923.00, 
1924.00, 
1925.00, 
1926.00, 
1927.00, 
1928.00, 
1929.00, 
1930.00, 
1931.00, 
1932.00, 
1933.00, 
1934.00, 
1935.00, 
1936.00, 
1937.00, 
1938.00, 
1939.00, 
1940.00, 
1941.00, 
1942.00, 
1943.00, 
1944.00, 
1945.00, 
1946.00, 
1947.00, 
1948.00, 
1949.00, 
1950.00, 
1951.00, 
1952.00, 
1953.00, 
1954.00, 
1955.00, 
1956.00, 
1957.00, 
1958.00, 
1959.00, 
1960.00, 
1961.00, 
1962.00, 
1963.00, 
1964.00, 
1965.00, 
1966.00, 
1967.00, 
1968.00, 
1969.00, 
1970.00, 
1971.00, 
1972.00, 
1973.00, 
1974.00, 
1975.00, 
1976.00, 
1977.00, 
1978.00, 
1979.00, 
1980.00, 
1981.00, 
1982.00, 
1983.00, 
1984.00, 
1985.00, 
1986.00, 
1987.00, 
1988.00, 
1989.00, 
1990.00, 
1991.00, 
1992.00, 
1993.00, 
1994.00, 
1995.00, 
1996.00, 
1997.00, 
1998.00, 
1999.00, 
2000.00, 
2001.00, 
2002.00, 
2003.00, 
2004.00, 
2005.00, 
2006.00, 
2007.00, 
2008.00, 
2009.00, 
2010.00, 
2011.00, 
2012.00, 
2013.00, 
2014.00, 
2015.00, 
2016.00, 
2017.00, 
2018.00, 
2019.00, 
2020.00, 
2021.00, 
2022.00, 
2023.00, 
2024.00, 
2025.00, 
2026.00, 
2027.00, 
2028.00, 
2029.00, 
2030.00, 
2031.00, 
2032.00, 
2033.00, 
2034.00, 
2035.00, 
2036.00, 
2037.00, 
2038.00, 
2039.00, 
2040.00, 
2041.00, 
2042.00, 
2043.00, 
2044.00, 
2045.00, 
2046.00, 
2047.00, 
2048.00, 
2049.00, 
2050.00, 
2051.00, 
2052.00, 
2053.00, 
2054.00, 
2055.00, 
2056.00, 
2057.00, 
2058.00, 
2059.00, 
2060.00, 
2061.00, 
2062.00, 
2063.00, 
2064.00, 
2065.00, 
2066.00, 
2067.00, 
2068.00, 
2069.00, 
2070.00, 
2071.00, 
2072.00, 
2073.00, 
2074.00, 
2075.00, 
2076.00, 
2077.00, 
2078.00, 
2079.00, 
2080.00, 
2081.00, 
2082.00, 
2083.00, 
2084.00, 
2085.00, 
2086.00, 
2087.00, 
2088.00, 
2089.00, 
2090.00, 
2091.00, 
2092.00, 
2093.00, 
2094.00, 
2095.00, 
2096.00, 
2097.00, 
2098.00, 
2099.00, 
2100.00, 
2101.00, 
2102.00, 
2103.00, 
2104.00, 
2105.00, 
2106.00, 
2107.00, 
2108.00, 
2109.00, 
2110.00, 
2111.00, 
2112.00, 
2113.00, 
2114.00, 
2115.00, 
2116.00, 
2117.00, 
2118.00, 
2119.00, 
2120.00, 
2121.00, 
2122.00, 
2123.00, 
2124.00, 
2125.00, 
2126.00, 
2127.00, 
2128.00, 
2129.00, 
2130.00, 
2131.00, 
2132.00, 
2133.00, 
2134.00, 
2135.00, 
2136.00, 
2137.00, 
2138.00, 
2139.00, 
2140.00, 
2141.00, 
2142.00, 
2143.00, 
2144.00, 
2145.00, 
2146.00, 
2147.00, 
2148.00, 
2149.00, 
2150.00, 
2151.00, 
2152.00, 
2153.00, 
2154.00, 
2155.00, 
2156.00, 
2157.00, 
2158.00, 
2159.00, 
2160.00, 
2161.00, 
2162.00, 
2163.00, 
2164.00, 
2165.00, 
2166.00, 
2167.00, 
2168.00, 
2169.00, 
2170.00, 
2171.00, 
2172.00, 
2173.00, 
2174.00, 
2175.00, 
2176.00, 
2177.00, 
2178.00, 
2179.00, 
2180.00, 
2181.00, 
2182.00, 
2183.00, 
2184.00, 
2185.00, 
2186.00, 
2187.00, 
2188.00, 
2189.00, 
2190.00, 
2191.00, 
2192.00, 
2193.00, 
2194.00, 
2195.00, 
2196.00, 
2197.00, 
2198.00, 
2199.00, 
2200.00, 
2201.00, 
2202.00, 
2203.00, 
2204.00, 
2205.00, 
2206.00, 
2207.00, 
2208.00, 
2209.00, 
2210.00, 
2211.00, 
2212.00, 
2213.00, 
2214.00, 
2215.00, 
2216.00, 
2217.00, 
2218.00, 
2219.00, 
2220.00, 
2221.00, 
2222.00, 
2223.00, 
2224.00, 
2225.00, 
2226.00, 
2227.00, 
2228.00, 
2229.00, 
2230.00, 
2231.00, 
2232.00, 
2233.00, 
2234.00, 
2235.00, 
2236.00, 
2237.00, 
2238.00, 
2239.00, 
2240.00, 
2241.00, 
2242.00, 
2243.00, 
2244.00, 
2245.00, 
2246.00, 
2247.00, 
2248.00, 
2249.00, 
2250.00, 
2251.00, 
2252.00, 
2253.00, 
2254.00, 
2255.00, 
2256.00, 
2257.00, 
2258.00, 
2259.00, 
2260.00, 
2261.00, 
2262.00, 
2263.00, 
2264.00, 
2265.00, 
2266.00, 
2267.00, 
2268.00, 
2269.00, 
2270.00, 
2271.00, 
2272.00, 
2273.00, 
2274.00, 
2275.00, 
2276.00, 
2277.00, 
2278.00, 
2279.00, 
2280.00, 
2281.00, 
2282.00, 
2283.00, 
2284.00, 
2285.00, 
2286.00, 
2287.00, 
2288.00, 
2289.00, 
2290.00, 
2291.00, 
2292.00, 
2293.00, 
2294.00, 
2295.00, 
2296.00, 
2297.00, 
2298.00, 
2299.00, 
2300.00, 
2301.00, 
2302.00, 
2303.00, 
2304.00, 
2305.00, 
2306.00, 
2307.00, 
2308.00, 
2309.00, 
2310.00, 
2311.00, 
2312.00, 
2313.00, 
2314.00, 
2315.00, 
2316.00, 
2317.00, 
2318.00, 
2319.00, 
2320.00, 
2321.00, 
2322.00, 
2323.00, 
2324.00, 
2325.00, 
2326.00, 
2327.00, 
2328.00, 
2329.00, 
2330.00, 
2331.00, 
2332.00, 
2333.00, 
2334.00, 
2335.00, 
2336.00, 
2337.00, 
2338.00, 
2339.00, 
2340.00, 
2341.00, 
2342.00, 
2343.00, 
2344.00, 
2345.00, 
2346.00, 
2347.00, 
2348.00, 
2349.00, 
2350.00, 
2351.00, 
2352.00, 
2353.00, 
2354.00, 
2355.00, 
2356.00, 
2357.00, 
2358.00, 
2359.00, 
2360.00, 
2361.00, 
2362.00, 
2363.00, 
2364.00, 
2365.00, 
2366.00, 
2367.00, 
2368.00, 
2369.00, 
2370.00, 
2371.00, 
2372.00, 
2373.00, 
2374.00, 
2375.00, 
2376.00, 
2377.00, 
2378.00, 
2379.00, 
2380.00, 
2381.00, 
2382.00, 
2383.00, 
2384.00, 
2385.00, 
2386.00, 
2387.00, 
2388.00, 
2389.00, 
2390.00, 
2391.00, 
2392.00, 
2393.00, 
2394.00, 
2395.00, 
2396.00, 
2397.00, 
2398.00, 
2399.00, 
2400.00, 
2401.00, 
2402.00, 
2403.00, 
2404.00, 
2405.00, 
2406.00, 
2407.00, 
2408.00, 
2409.00, 
2410.00, 
2411.00, 
2412.00, 
2413.00, 
2414.00, 
2415.00, 
2416.00, 
2417.00, 
2418.00, 
2419.00, 
2420.00, 
2421.00, 
2422.00, 
2423.00, 
2424.00, 
2425.00, 
2426.00, 
2427.00, 
2428.00, 
2429.00, 
2430.00, 
2431.00, 
2432.00, 
2433.00, 
2434.00, 
2435.00, 
2436.00, 
2437.00, 
2438.00, 
2439.00, 
2440.00, 
2441.00, 
2442.00, 
2443.00, 
2444.00, 
2445.00, 
2446.00, 
2447.00, 
2448.00, 
2449.00, 
2450.00, 
2451.00, 
2452.00, 
2453.00, 
2454.00, 
2455.00, 
2456.00, 
2457.00, 
2458.00, 
2459.00, 
2460.00, 
2461.00, 
2462.00, 
2463.00, 
2464.00, 
2465.00, 
2466.00, 
2467.00, 
2468.00, 
2469.00, 
2470.00, 
2471.00, 
2472.00, 
2473.00, 
2474.00, 
2475.00, 
2476.00, 
2477.00, 
2478.00, 
2479.00, 
2480.00, 
2481.00, 
2482.00, 
2483.00, 
2484.00, 
2485.00, 
2486.00, 
2487.00, 
2488.00, 
2489.00, 
2490.00, 
2491.00, 
2492.00, 
2493.00, 
2494.00, 
2495.00, 
2496.00, 
2497.00, 
2498.00, 
2499.00, 
2500.00, 
2501.00, 
2502.00, 
2503.00, 
2504.00, 
2505.00, 
2506.00, 
2507.00, 
2508.00, 
2509.00, 
2510.00, 
2511.00, 
2512.00, 
2513.00, 
2514.00, 
2515.00, 
2516.00, 
2517.00, 
2518.00, 
2519.00, 
2520.00, 
2521.00, 
2522.00, 
2523.00, 
2524.00, 
2525.00, 
2526.00, 
2527.00, 
2528.00, 
2529.00, 
2530.00, 
2531.00, 
2532.00, 
2533.00, 
2534.00, 
2535.00, 
2536.00, 
2537.00, 
2538.00, 
2539.00, 
2540.00, 
2541.00, 
2542.00, 
2543.00, 
2544.00, 
2545.00, 
2546.00, 
2547.00, 
2548.00, 
2549.00, 
2550.00, 
2551.00, 
2552.00, 
2553.00, 
2554.00, 
2555.00, 
2556.00, 
2557.00, 
2558.00, 
2559.00, 
2560.00, 
2561.00, 
2562.00, 
2563.00, 
2564.00, 
2565.00, 
2566.00, 
2567.00, 
2568.00, 
2569.00, 
2570.00, 
2571.00, 
2572.00, 
2573.00, 
2574.00, 
2575.00, 
2576.00, 
2577.00, 
2578.00, 
2579.00, 
2580.00, 
2581.00, 
2582.00, 
2583.00, 
2584.00, 
2585.00, 
2586.00, 
2587.00, 
2588.00, 
2589.00, 
2590.00, 
2591.00, 
2592.00, 
2593.00, 
2594.00, 
2595.00, 
2596.00, 
2597.00, 
2598.00, 
2599.00, 
2600.00, 
