"1bP2 - RawData"
"Wavelength nm.","T%"
200.00,-0.000
201.00,0.001
202.00,0.004
203.00,-0.001
204.00,-0.000
205.00,0.002
206.00,0.002
207.00,-0.000
208.00,0.004
209.00,0.002
210.00,0.001
211.00,-0.000
212.00,-0.000
213.00,0.001
214.00,0.000
215.00,0.001
216.00,-0.001
217.00,0.003
218.00,0.001
219.00,0.001
220.00,0.002
221.00,-0.001
222.00,0.003
223.00,-0.002
224.00,-0.002
225.00,0.003
226.00,0.001
227.00,-0.001
228.00,0.002
229.00,-0.002
230.00,0.002
231.00,0.001
232.00,0.001
233.00,-0.001
234.00,-0.001
235.00,-0.000
236.00,-0.001
237.00,-0.000
238.00,-0.001
239.00,0.001
240.00,-0.000
241.00,0.001
242.00,0.000
243.00,0.000
244.00,-0.001
245.00,-0.001
246.00,0.000
247.00,0.000
248.00,0.001
249.00,0.002
250.00,-0.000
251.00,0.000
252.00,-0.003
253.00,-0.001
254.00,0.001
255.00,-0.001
256.00,0.001
257.00,0.000
258.00,0.002
259.00,0.001
260.00,0.000
261.00,0.000
262.00,0.000
263.00,0.001
264.00,0.001
265.00,-0.000
266.00,0.001
267.00,0.001
268.00,-0.001
269.00,-0.001
270.00,-0.000
271.00,-0.001
272.00,-0.001
273.00,0.000
274.00,-0.001
275.00,-0.001
276.00,0.002
277.00,0.001
278.00,0.000
279.00,-0.001
280.00,0.002
281.00,0.001
282.00,0.001
283.00,-0.001
284.00,0.002
285.00,-0.001
286.00,-0.001
287.00,0.000
288.00,0.002
289.00,-0.001
290.00,0.003
291.00,-0.001
292.00,-0.003
293.00,0.004
294.00,0.002
295.00,0.000
296.00,0.001
297.00,0.000
298.00,0.001
299.00,0.003
300.00,0.004
301.00,0.006
302.00,0.008
303.00,0.011
304.00,0.017
305.00,0.029
306.00,0.045
307.00,0.068
308.00,0.102
309.00,0.157
310.00,0.213
311.00,0.294
312.00,0.398
313.00,0.539
314.00,0.704
315.00,0.901
316.00,1.133
317.00,1.403
318.00,1.732
319.00,2.110
320.00,2.549
321.00,3.018
322.00,3.530
323.00,4.122
324.00,4.740
325.00,5.363
326.00,5.990
327.00,6.717
328.00,7.418
329.00,8.160
330.00,8.903
331.00,9.655
332.00,10.433
333.00,11.205
334.00,11.948
335.00,12.720
336.00,13.450
337.00,14.184
338.00,14.915
339.00,15.561
340.00,16.237
341.00,16.875
342.00,17.427
343.00,18.084
344.00,18.662
345.00,19.107
346.00,19.632
347.00,20.082
348.00,20.532
349.00,20.922
350.00,21.359
351.00,21.659
352.00,21.938
353.00,22.266
354.00,22.543
355.00,22.807
356.00,23.067
357.00,23.249
358.00,23.472
359.00,23.663
360.00,23.848
361.00,23.997
362.00,24.133
363.00,24.316
364.00,24.403
365.00,24.467
366.00,24.569
367.00,24.580
368.00,24.612
369.00,24.645
370.00,24.680
371.00,24.661
372.00,24.637
373.00,24.673
374.00,24.641
375.00,24.592
376.00,24.521
377.00,24.493
378.00,24.412
379.00,24.296
380.00,24.314
381.00,24.252
382.00,24.257
383.00,24.277
384.00,24.271
385.00,24.308
386.00,24.198
387.00,24.326
388.00,24.368
389.00,24.357
390.00,24.369
391.00,24.404
392.00,24.385
393.00,24.398
394.00,24.368
395.00,24.404
396.00,24.372
397.00,24.380
398.00,24.380
399.00,24.350
400.00,24.342
401.00,24.237
402.00,24.349
403.00,24.327
404.00,24.387
405.00,24.347
406.00,24.341
407.00,24.288
408.00,24.301
409.00,24.229
410.00,24.152
411.00,24.165
412.00,24.094
413.00,24.116
414.00,24.129
415.00,24.096
416.00,24.151
417.00,24.134
418.00,24.143
419.00,24.187
420.00,24.182
421.00,24.223
422.00,24.230
423.00,24.253
424.00,24.331
425.00,24.338
426.00,24.369
427.00,24.406
428.00,24.450
429.00,24.445
430.00,24.497
431.00,24.548
432.00,24.567
433.00,24.667
434.00,24.658
435.00,24.735
436.00,24.805
437.00,24.871
438.00,24.958
439.00,24.969
440.00,24.983
441.00,25.125
442.00,25.191
443.00,25.287
444.00,25.380
445.00,25.448
446.00,25.552
447.00,25.668
448.00,25.736
449.00,25.803
450.00,25.906
451.00,25.998
452.00,26.096
453.00,26.225
454.00,26.331
455.00,26.376
456.00,26.547
457.00,26.674
458.00,26.758
459.00,26.893
460.00,26.982
461.00,27.121
462.00,27.246
463.00,27.348
464.00,27.502
465.00,27.596
466.00,27.739
467.00,27.842
468.00,27.971
469.00,28.072
470.00,28.139
471.00,28.221
472.00,28.429
473.00,28.476
474.00,28.572
475.00,28.721
476.00,28.798
477.00,28.951
478.00,29.069
479.00,29.229
480.00,29.406
481.00,29.478
482.00,29.689
483.00,29.791
484.00,29.908
485.00,30.101
486.00,30.249
487.00,30.391
488.00,30.500
489.00,30.631
490.00,30.764
491.00,30.902
492.00,31.003
493.00,31.221
494.00,31.341
495.00,31.402
496.00,31.559
497.00,31.645
498.00,31.791
499.00,31.956
500.00,32.084
501.00,32.202
502.00,32.267
503.00,32.439
504.00,32.501
505.00,32.619
506.00,32.784
507.00,32.831
508.00,32.923
509.00,33.146
510.00,33.216
511.00,33.318
512.00,33.464
513.00,33.596
514.00,33.707
515.00,33.883
516.00,33.944
517.00,34.087
518.00,34.181
519.00,34.275
520.00,34.320
521.00,34.433
522.00,34.518
523.00,34.564
524.00,34.659
525.00,34.754
526.00,34.822
527.00,34.892
528.00,34.944
529.00,35.089
530.00,35.163
531.00,35.349
532.00,35.397
533.00,35.519
534.00,35.597
535.00,35.690
536.00,35.754
537.00,35.810
538.00,35.913
539.00,35.978
540.00,35.984
541.00,36.042
542.00,36.082
543.00,36.123
544.00,36.221
545.00,36.239
546.00,36.321
547.00,36.405
548.00,36.452
549.00,36.588
550.00,36.564
551.00,36.689
552.00,36.764
553.00,36.725
554.00,36.879
555.00,36.854
556.00,36.989
557.00,37.024
558.00,37.046
559.00,37.175
560.00,37.190
561.00,37.245
562.00,37.310
563.00,37.355
564.00,37.413
565.00,37.424
566.00,37.492
567.00,37.508
568.00,37.525
569.00,37.546
570.00,37.564
571.00,37.683
572.00,37.691
573.00,37.631
574.00,37.737
575.00,37.766
576.00,37.727
577.00,37.829
578.00,37.917
579.00,37.922
580.00,37.986
581.00,38.109
582.00,38.208
583.00,38.211
584.00,38.336
585.00,38.388
586.00,38.387
587.00,38.457
588.00,38.460
589.00,38.488
590.00,38.488
591.00,38.531
592.00,38.571
593.00,38.534
594.00,38.613
595.00,38.743
596.00,38.687
597.00,38.778
598.00,38.840
599.00,38.893
600.00,38.892
601.00,38.849
602.00,39.090
603.00,39.101
604.00,39.075
605.00,39.094
606.00,39.161
607.00,39.180
608.00,39.181
609.00,39.216
610.00,39.336
611.00,39.224
612.00,39.206
613.00,39.455
614.00,39.504
615.00,39.473
616.00,39.609
617.00,39.629
618.00,39.648
619.00,39.723
620.00,39.731
621.00,39.764
622.00,39.869
623.00,39.934
624.00,39.974
625.00,40.018
626.00,40.041
627.00,40.176
628.00,40.132
629.00,40.209
630.00,40.290
631.00,40.259
632.00,40.352
633.00,40.453
634.00,40.509
635.00,40.625
636.00,40.681
637.00,40.792
638.00,40.840
639.00,40.902
640.00,40.911
641.00,40.981
642.00,41.026
643.00,41.083
644.00,41.201
645.00,41.261
646.00,41.388
647.00,41.411
648.00,41.431
649.00,41.592
650.00,41.578
651.00,41.626
652.00,41.701
653.00,41.815
654.00,41.831
655.00,41.877
656.00,42.141
657.00,42.231
658.00,42.173
659.00,42.305
660.00,42.304
661.00,42.442
662.00,42.521
663.00,42.555
664.00,42.704
665.00,42.822
666.00,42.862
667.00,43.069
668.00,43.027
669.00,43.009
670.00,43.296
671.00,43.233
672.00,43.440
673.00,43.526
674.00,43.573
675.00,43.647
676.00,43.729
677.00,43.864
678.00,43.853
679.00,44.006
680.00,44.087
681.00,44.308
682.00,44.341
683.00,44.357
684.00,44.521
685.00,44.464
686.00,44.527
687.00,44.606
688.00,44.672
689.00,44.716
690.00,44.723
691.00,45.002
692.00,44.985
693.00,45.004
694.00,45.022
695.00,45.168
696.00,45.088
697.00,45.348
698.00,45.113
699.00,45.533
700.00,46.205
701.00,45.740
702.00,45.908
703.00,45.991
704.00,46.073
705.00,46.077
706.00,46.177
707.00,46.293
708.00,46.108
709.00,46.308
710.00,46.610
711.00,46.410
712.00,46.509
713.00,46.604
714.00,46.681
715.00,46.637
716.00,46.790
717.00,46.845
718.00,46.866
719.00,46.931
720.00,47.094
721.00,51.438
722.00,51.511
723.00,51.454
724.00,51.478
725.00,51.509
726.00,51.613
727.00,51.613
728.00,51.636
729.00,51.624
730.00,51.611
731.00,51.619
732.00,51.627
733.00,51.675
734.00,51.694
735.00,51.796
736.00,51.793
737.00,51.869
738.00,51.952
739.00,51.885
740.00,51.910
741.00,51.958
742.00,52.026
743.00,52.044
744.00,51.960
745.00,51.991
746.00,52.052
747.00,51.879
748.00,52.057
749.00,51.998
750.00,52.013
751.00,52.030
752.00,52.030
753.00,52.031
754.00,52.019
755.00,52.020
756.00,52.037
757.00,52.031
758.00,52.067
759.00,52.048
760.00,52.084
761.00,52.092
762.00,52.089
763.00,52.170
764.00,52.108
765.00,52.118
766.00,52.186
767.00,52.207
768.00,52.166
769.00,52.193
770.00,52.204
771.00,52.171
772.00,52.255
773.00,52.268
774.00,52.197
775.00,52.203
776.00,52.245
777.00,52.240
778.00,52.291
779.00,52.273
780.00,52.186
781.00,52.255
782.00,52.237
783.00,52.309
784.00,52.274
785.00,52.202
786.00,52.222
787.00,52.262
788.00,52.122
789.00,52.133
790.00,52.151
791.00,52.245
792.00,52.113
793.00,52.174
794.00,52.112
795.00,52.080
796.00,52.195
797.00,52.120
798.00,52.175
799.00,52.030
800.00,52.011
801.00,52.053
802.00,52.081
803.00,52.026
804.00,51.992
805.00,52.018
806.00,52.065
807.00,51.985
808.00,51.967
809.00,52.009
810.00,51.886
811.00,51.954
812.00,52.003
813.00,51.860
814.00,51.919
815.00,51.911
816.00,51.869
817.00,51.825
818.00,51.796
819.00,51.827
820.00,51.788
821.00,51.856
822.00,51.759
823.00,51.754
824.00,51.871
825.00,51.720
826.00,51.761
827.00,51.852
828.00,51.791
829.00,51.727
830.00,51.770
831.00,54.356
832.00,54.382
833.00,54.311
834.00,54.338
835.00,54.339
836.00,54.341
837.00,54.328
838.00,54.306
839.00,54.285
840.00,54.234
841.00,54.251
842.00,54.198
843.00,54.235
844.00,54.189
845.00,54.168
846.00,54.159
847.00,54.117
848.00,54.189
849.00,54.077
850.00,54.057
851.00,54.020
852.00,54.034
853.00,53.987
854.00,53.947
855.00,53.952
856.00,53.869
857.00,53.805
858.00,53.894
859.00,53.855
860.00,53.875
861.00,53.838
862.00,53.786
863.00,53.841
864.00,53.796
865.00,53.802
866.00,53.823
867.00,53.774
868.00,53.773
869.00,53.779
870.00,53.779
871.00,53.745
872.00,53.771
873.00,53.734
874.00,53.731
875.00,53.693
876.00,53.717
877.00,53.685
878.00,53.673
879.00,53.674
880.00,53.630
881.00,53.653
882.00,53.671
883.00,53.655
884.00,53.586
885.00,53.596
886.00,53.587
887.00,53.499
888.00,53.542
889.00,53.526
890.00,53.494
891.00,53.500
892.00,53.468
893.00,53.441
894.00,53.429
895.00,53.400
896.00,53.390
897.00,53.386
898.00,53.369
899.00,53.375
900.00,53.342
901.00,53.344
902.00,53.308
903.00,53.287
904.00,53.243
905.00,53.255
906.00,53.211
907.00,53.312
908.00,53.186
909.00,53.189
910.00,53.154
911.00,53.140
912.00,53.139
913.00,53.101
914.00,53.087
915.00,53.081
916.00,53.073
917.00,53.040
918.00,53.045
919.00,53.002
920.00,52.985
921.00,53.015
922.00,53.012
923.00,52.959
924.00,52.932
925.00,52.933
926.00,52.942
927.00,52.879
928.00,52.875
929.00,52.857
930.00,52.853
931.00,52.808
932.00,52.813
933.00,52.814
934.00,52.799
935.00,52.775
936.00,52.739
937.00,52.709
938.00,52.719
939.00,52.695
940.00,52.681
941.00,52.660
942.00,52.636
943.00,52.624
944.00,52.594
945.00,52.590
946.00,52.611
947.00,52.547
948.00,52.520
949.00,52.566
950.00,52.499
951.00,52.473
952.00,52.447
953.00,52.426
954.00,52.401
955.00,52.383
956.00,52.351
957.00,52.346
958.00,52.336
959.00,52.303
960.00,52.287
961.00,52.293
962.00,52.292
963.00,52.228
964.00,52.247
965.00,52.234
966.00,52.242
967.00,52.221
968.00,52.218
969.00,52.195
970.00,52.200
971.00,52.200
972.00,52.130
973.00,52.206
974.00,52.222
975.00,52.191
976.00,52.198
977.00,52.210
978.00,52.230
979.00,52.239
980.00,52.201
981.00,52.222
982.00,52.175
983.00,52.188
984.00,52.194
985.00,52.194
986.00,52.166
987.00,52.197
988.00,52.166
989.00,52.147
990.00,52.135
991.00,52.134
992.00,52.143
993.00,52.106
994.00,52.090
995.00,52.085
996.00,52.091
997.00,52.059
998.00,52.045
999.00,52.055
1000.00,52.015
1001.00,52.011
1002.00,51.999
1003.00,52.030
1004.00,51.975
1005.00,51.956
1006.00,51.981
1007.00,51.965
1008.00,51.930
1009.00,51.926
1010.00,51.929
1011.00,51.889
1012.00,51.886
1013.00,51.879
1014.00,51.867
1015.00,51.881
1016.00,51.830
1017.00,51.839
1018.00,51.826
1019.00,51.801
1020.00,51.789
1021.00,51.784
1022.00,51.762
1023.00,51.728
1024.00,51.711
1025.00,51.723
1026.00,51.712
1027.00,51.670
1028.00,51.666
1029.00,51.655
1030.00,51.633
1031.00,51.645
1032.00,51.604
1033.00,51.590
1034.00,51.561
1035.00,51.530
1036.00,51.510
1037.00,51.511
1038.00,51.473
1039.00,51.465
1040.00,51.464
1041.00,51.430
1042.00,51.431
1043.00,51.399
1044.00,51.430
1045.00,51.426
1046.00,51.402
1047.00,51.414
1048.00,51.447
1049.00,51.435
1050.00,51.449
1051.00,51.482
1052.00,51.478
1053.00,51.496
1054.00,51.500
1055.00,51.507
1056.00,51.525
1057.00,51.521
1058.00,51.526
1059.00,51.530
1060.00,51.524
1061.00,51.509
1062.00,51.487
1063.00,51.495
1064.00,51.502
1065.00,51.490
1066.00,51.456
1067.00,51.471
1068.00,51.471
1069.00,51.460
1070.00,51.457
1071.00,51.455
1072.00,51.433
1073.00,51.439
1074.00,51.417
1075.00,51.401
1076.00,51.394
1077.00,51.375
1078.00,51.362
1079.00,51.355
1080.00,51.367
1081.00,51.363
1082.00,51.362
1083.00,51.370
1084.00,51.375
1085.00,51.354
1086.00,51.374
1087.00,51.390
1088.00,51.344
1089.00,51.330
1090.00,51.321
1091.00,51.327
1092.00,51.326
1093.00,51.283
1094.00,51.273
1095.00,51.260
1096.00,51.255
1097.00,51.260
1098.00,51.251
1099.00,51.221
1100.00,51.242
1101.00,51.217
1102.00,51.218
1103.00,51.211
1104.00,51.203
1105.00,51.175
1106.00,51.168
1107.00,51.155
1108.00,51.154
1109.00,51.134
1110.00,51.141
1111.00,51.141
1112.00,51.126
1113.00,51.117
1114.00,51.133
1115.00,51.117
1116.00,51.125
1117.00,51.102
1118.00,51.077
1119.00,51.079
1120.00,51.074
1121.00,51.053
1122.00,51.052
1123.00,51.032
1124.00,51.046
1125.00,51.048
1126.00,51.029
1127.00,51.027
1128.00,51.019
1129.00,50.993
1130.00,51.004
1131.00,50.989
1132.00,50.965
1133.00,50.971
1134.00,50.970
1135.00,50.958
1136.00,50.962
1137.00,50.949
1138.00,50.950
1139.00,50.971
1140.00,50.970
1141.00,50.952
1142.00,50.946
1143.00,50.953
1144.00,50.955
1145.00,50.928
1146.00,50.937
1147.00,50.938
1148.00,50.923
1149.00,50.942
1150.00,50.954
1151.00,50.940
1152.00,50.932
1153.00,50.939
1154.00,50.933
1155.00,50.939
1156.00,50.913
1157.00,50.911
1158.00,50.914
1159.00,50.911
1160.00,50.918
1161.00,50.921
1162.00,50.896
1163.00,50.908
1164.00,50.914
1165.00,50.897
1166.00,50.896
1167.00,50.887
1168.00,50.904
1169.00,50.908
1170.00,50.896
1171.00,50.897
1172.00,50.888
1173.00,50.880
1174.00,50.900
1175.00,50.897
1176.00,50.895
1177.00,50.877
1178.00,50.863
1179.00,50.892
1180.00,50.892
1181.00,50.897
1182.00,50.896
1183.00,50.898
1184.00,50.874
1185.00,50.919
1186.00,50.914
1187.00,50.909
1188.00,50.898
1189.00,50.894
1190.00,50.887
1191.00,50.895
1192.00,50.893
1193.00,50.902
1194.00,50.897
1195.00,50.867
1196.00,50.890
1197.00,50.885
1198.00,50.867
1199.00,50.879
1200.00,50.879
1201.00,50.886
1202.00,50.884
1203.00,50.880
1204.00,50.892
1205.00,50.904
1206.00,50.887
1207.00,50.907
1208.00,50.884
1209.00,50.881
1210.00,50.884
1211.00,50.884
1212.00,50.887
1213.00,50.846
1214.00,50.863
1215.00,50.843
1216.00,50.870
1217.00,50.865
1218.00,50.881
1219.00,50.882
1220.00,50.873
1221.00,50.903
1222.00,50.873
1223.00,50.900
1224.00,50.898
1225.00,50.868
1226.00,50.885
1227.00,50.891
1228.00,50.884
1229.00,50.902
1230.00,50.930
1231.00,50.902
1232.00,50.936
1233.00,50.930
1234.00,50.937
1235.00,50.929
1236.00,50.932
1237.00,50.921
1238.00,50.925
1239.00,50.908
1240.00,50.912
1241.00,50.904
1242.00,50.911
1243.00,50.924
1244.00,50.906
1245.00,50.954
1246.00,50.955
1247.00,50.940
1248.00,50.935
1249.00,50.957
1250.00,50.945
1251.00,50.937
1252.00,50.932
1253.00,50.936
1254.00,50.953
1255.00,50.928
1256.00,50.922
1257.00,50.935
1258.00,50.960
1259.00,50.980
1260.00,51.015
1261.00,51.001
1262.00,50.994
1263.00,50.981
1264.00,50.991
1265.00,50.998
1266.00,50.989
1267.00,51.002
1268.00,51.023
1269.00,51.008
1270.00,51.025
1271.00,51.037
1272.00,51.037
1273.00,51.054
1274.00,51.057
1275.00,51.047
1276.00,51.078
1277.00,51.061
1278.00,51.058
1279.00,51.063
1280.00,51.045
1281.00,51.060
1282.00,51.084
1283.00,51.058
1284.00,51.087
1285.00,51.074
1286.00,51.080
1287.00,51.080
1288.00,51.077
1289.00,51.082
1290.00,51.113
1291.00,51.103
1292.00,51.100
1293.00,51.124
1294.00,51.117
1295.00,51.140
1296.00,51.127
1297.00,51.149
1298.00,51.176
1299.00,51.152
1300.00,51.162
1301.00,51.174
1302.00,51.176
1303.00,51.189
1304.00,51.174
1305.00,51.179
1306.00,51.193
1307.00,51.211
1308.00,51.175
1309.00,51.194
1310.00,51.186
1311.00,51.178
1312.00,51.211
1313.00,51.204
1314.00,51.225
1315.00,51.237
1316.00,51.230
1317.00,51.256
1318.00,51.259
1319.00,51.251
1320.00,51.272
1321.00,51.131
1322.00,51.108
1323.00,51.090
1324.00,51.058
1325.00,51.058
1326.00,51.098
1327.00,51.075
1328.00,51.073
1329.00,51.085
1330.00,51.089
1331.00,51.097
1332.00,51.079
1333.00,51.103
1334.00,51.138
1335.00,51.137
1336.00,51.181
1337.00,51.220
1338.00,51.251
1339.00,51.304
1340.00,51.351
1341.00,51.425
1342.00,51.476
1343.00,51.519
1344.00,51.583
1345.00,51.662
1346.00,51.647
1347.00,51.693
1348.00,51.724
1349.00,51.734
1350.00,51.741
1351.00,51.774
1352.00,51.756
1353.00,51.762
1354.00,51.762
1355.00,51.761
1356.00,51.794
1357.00,51.780
1358.00,51.823
1359.00,51.831
1360.00,51.793
1361.00,51.837
1362.00,51.789
1363.00,51.844
1364.00,51.886
1365.00,51.813
1366.00,51.983
1367.00,51.954
1368.00,51.805
1369.00,51.827
1370.00,51.811
1371.00,51.818
1372.00,51.805
1373.00,51.794
1374.00,51.822
1375.00,51.816
1376.00,51.795
1377.00,51.805
1378.00,51.784
1379.00,51.764
1380.00,51.818
1381.00,51.771
1382.00,51.825
1383.00,51.809
1384.00,51.760
1385.00,51.759
1386.00,51.772
1387.00,51.757
1388.00,51.744
1389.00,51.707
1390.00,51.732
1391.00,51.783
1392.00,51.779
1393.00,51.763
1394.00,51.818
1395.00,51.783
1396.00,51.741
1397.00,51.776
1398.00,51.788
1399.00,51.829
1400.00,51.764
1401.00,51.742
1402.00,51.745
1403.00,51.758
1404.00,51.801
1405.00,51.841
1406.00,51.852
1407.00,51.834
1408.00,51.853
1409.00,51.844
1410.00,51.868
1411.00,51.873
1412.00,51.892
1413.00,51.882
1414.00,51.877
1415.00,51.878
1416.00,51.920
1417.00,51.935
1418.00,51.912
1419.00,51.905
1420.00,51.923
1421.00,51.941
1422.00,51.945
1423.00,51.938
1424.00,51.969
1425.00,51.984
1426.00,51.971
1427.00,52.021
1428.00,52.043
1429.00,52.005
1430.00,52.050
1431.00,52.047
1432.00,52.051
1433.00,52.081
1434.00,52.040
1435.00,52.085
1436.00,52.111
1437.00,52.076
1438.00,52.125
1439.00,52.142
1440.00,52.126
1441.00,52.147
1442.00,52.160
1443.00,52.178
1444.00,52.243
1445.00,52.195
1446.00,52.208
1447.00,52.259
1448.00,52.253
1449.00,52.285
1450.00,52.276
1451.00,52.293
1452.00,52.294
1453.00,52.286
1454.00,52.313
1455.00,52.339
1456.00,52.319
1457.00,52.353
1458.00,52.356
1459.00,52.350
1460.00,52.370
1461.00,52.388
1462.00,52.407
1463.00,52.425
1464.00,52.424
1465.00,52.458
1466.00,52.451
1467.00,52.461
1468.00,52.521
1469.00,52.502
1470.00,52.485
1471.00,52.543
1472.00,52.536
1473.00,52.569
1474.00,52.565
1475.00,52.587
1476.00,52.602
1477.00,52.604
1478.00,52.587
1479.00,52.627
1480.00,52.613
1481.00,52.623
1482.00,52.668
1483.00,52.678
1484.00,52.695
1485.00,52.714
1486.00,52.714
1487.00,52.746
1488.00,52.755
1489.00,52.735
1490.00,52.763
1491.00,52.801
1492.00,52.786
1493.00,52.794
1494.00,52.834
1495.00,52.838
1496.00,52.860
1497.00,52.849
1498.00,52.866
1499.00,52.893
1500.00,52.879
1501.00, 
1502.00, 
1503.00, 
1504.00, 
1505.00, 
1506.00, 
1507.00, 
1508.00, 
1509.00, 
1510.00, 
1511.00, 
1512.00, 
1513.00, 
1514.00, 
1515.00, 
1516.00, 
1517.00, 
1518.00, 
1519.00, 
1520.00, 
1521.00, 
1522.00, 
1523.00, 
1524.00, 
1525.00, 
1526.00, 
1527.00, 
1528.00, 
1529.00, 
1530.00, 
1531.00, 
1532.00, 
1533.00, 
1534.00, 
1535.00, 
1536.00, 
1537.00, 
1538.00, 
1539.00, 
1540.00, 
1541.00, 
1542.00, 
1543.00, 
1544.00, 
1545.00, 
1546.00, 
1547.00, 
1548.00, 
1549.00, 
1550.00, 
1551.00, 
1552.00, 
1553.00, 
1554.00, 
1555.00, 
1556.00, 
1557.00, 
1558.00, 
1559.00, 
1560.00, 
1561.00, 
1562.00, 
1563.00, 
1564.00, 
1565.00, 
1566.00, 
1567.00, 
1568.00, 
1569.00, 
1570.00, 
1571.00, 
1572.00, 
1573.00, 
1574.00, 
1575.00, 
1576.00, 
1577.00, 
1578.00, 
1579.00, 
1580.00, 
1581.00, 
1582.00, 
1583.00, 
1584.00, 
1585.00, 
1586.00, 
1587.00, 
1588.00, 
1589.00, 
1590.00, 
1591.00, 
1592.00, 
1593.00, 
1594.00, 
1595.00, 
1596.00, 
1597.00, 
1598.00, 
1599.00, 
1600.00, 
1601.00, 
1602.00, 
1603.00, 
1604.00, 
1605.00, 
1606.00, 
1607.00, 
1608.00, 
1609.00, 
1610.00, 
1611.00, 
1612.00, 
1613.00, 
1614.00, 
1615.00, 
1616.00, 
1617.00, 
1618.00, 
1619.00, 
1620.00, 
1621.00, 
1622.00, 
1623.00, 
1624.00, 
1625.00, 
1626.00, 
1627.00, 
1628.00, 
1629.00, 
1630.00, 
1631.00, 
1632.00, 
1633.00, 
1634.00, 
1635.00, 
1636.00, 
1637.00, 
1638.00, 
1639.00, 
1640.00, 
1641.00, 
1642.00, 
1643.00, 
1644.00, 
1645.00, 
1646.00, 
1647.00, 
1648.00, 
1649.00, 
1650.00, 
1651.00, 
1652.00, 
1653.00, 
1654.00, 
1655.00, 
1656.00, 
1657.00, 
1658.00, 
1659.00, 
1660.00, 
1661.00, 
1662.00, 
1663.00, 
1664.00, 
1665.00, 
1666.00, 
1667.00, 
1668.00, 
1669.00, 
1670.00, 
1671.00, 
1672.00, 
1673.00, 
1674.00, 
1675.00, 
1676.00, 
1677.00, 
1678.00, 
1679.00, 
1680.00, 
1681.00, 
1682.00, 
1683.00, 
1684.00, 
1685.00, 
1686.00, 
1687.00, 
1688.00, 
1689.00, 
1690.00, 
1691.00, 
1692.00, 
1693.00, 
1694.00, 
1695.00, 
1696.00, 
1697.00, 
1698.00, 
1699.00, 
1700.00, 
1701.00, 
1702.00, 
1703.00, 
1704.00, 
1705.00, 
1706.00, 
1707.00, 
1708.00, 
1709.00, 
1710.00, 
1711.00, 
1712.00, 
1713.00, 
1714.00, 
1715.00, 
1716.00, 
1717.00, 
1718.00, 
1719.00, 
1720.00, 
1721.00, 
1722.00, 
1723.00, 
1724.00, 
1725.00, 
1726.00, 
1727.00, 
1728.00, 
1729.00, 
1730.00, 
1731.00, 
1732.00, 
1733.00, 
1734.00, 
1735.00, 
1736.00, 
1737.00, 
1738.00, 
1739.00, 
1740.00, 
1741.00, 
1742.00, 
1743.00, 
1744.00, 
1745.00, 
1746.00, 
1747.00, 
1748.00, 
1749.00, 
1750.00, 
1751.00, 
1752.00, 
1753.00, 
1754.00, 
1755.00, 
1756.00, 
1757.00, 
1758.00, 
1759.00, 
1760.00, 
1761.00, 
1762.00, 
1763.00, 
1764.00, 
1765.00, 
1766.00, 
1767.00, 
1768.00, 
1769.00, 
1770.00, 
1771.00, 
1772.00, 
1773.00, 
1774.00, 
1775.00, 
1776.00, 
1777.00, 
1778.00, 
1779.00, 
1780.00, 
1781.00, 
1782.00, 
1783.00, 
1784.00, 
1785.00, 
1786.00, 
1787.00, 
1788.00, 
1789.00, 
1790.00, 
1791.00, 
1792.00, 
1793.00, 
1794.00, 
1795.00, 
1796.00, 
1797.00, 
1798.00, 
1799.00, 
1800.00, 
1801.00, 
1802.00, 
1803.00, 
1804.00, 
1805.00, 
1806.00, 
1807.00, 
1808.00, 
1809.00, 
1810.00, 
1811.00, 
1812.00, 
1813.00, 
1814.00, 
1815.00, 
1816.00, 
1817.00, 
1818.00, 
1819.00, 
1820.00, 
1821.00, 
1822.00, 
1823.00, 
1824.00, 
1825.00, 
1826.00, 
1827.00, 
1828.00, 
1829.00, 
1830.00, 
1831.00, 
1832.00, 
1833.00, 
1834.00, 
1835.00, 
1836.00, 
1837.00, 
1838.00, 
1839.00, 
1840.00, 
1841.00, 
1842.00, 
1843.00, 
1844.00, 
1845.00, 
1846.00, 
1847.00, 
1848.00, 
1849.00, 
1850.00, 
1851.00, 
1852.00, 
1853.00, 
1854.00, 
1855.00, 
1856.00, 
1857.00, 
1858.00, 
1859.00, 
1860.00, 
1861.00, 
1862.00, 
1863.00, 
1864.00, 
1865.00, 
1866.00, 
1867.00, 
1868.00, 
1869.00, 
1870.00, 
1871.00, 
1872.00, 
1873.00, 
1874.00, 
1875.00, 
1876.00, 
1877.00, 
1878.00, 
1879.00, 
1880.00, 
1881.00, 
1882.00, 
1883.00, 
1884.00, 
1885.00, 
1886.00, 
1887.00, 
1888.00, 
1889.00, 
1890.00, 
1891.00, 
1892.00, 
1893.00, 
1894.00, 
1895.00, 
1896.00, 
1897.00, 
1898.00, 
1899.00, 
1900.00, 
1901.00, 
1902.00, 
1903.00, 
1904.00, 
1905.00, 
1906.00, 
1907.00, 
1908.00, 
1909.00, 
1910.00, 
1911.00, 
1912.00, 
1913.00, 
1914.00, 
1915.00, 
1916.00, 
1917.00, 
1918.00, 
1919.00, 
1920.00, 
1921.00, 
1922.00, 
1923.00, 
1924.00, 
1925.00, 
1926.00, 
1927.00, 
1928.00, 
1929.00, 
1930.00, 
1931.00, 
1932.00, 
1933.00, 
1934.00, 
1935.00, 
1936.00, 
1937.00, 
1938.00, 
1939.00, 
1940.00, 
1941.00, 
1942.00, 
1943.00, 
1944.00, 
1945.00, 
1946.00, 
1947.00, 
1948.00, 
1949.00, 
1950.00, 
1951.00, 
1952.00, 
1953.00, 
1954.00, 
1955.00, 
1956.00, 
1957.00, 
1958.00, 
1959.00, 
1960.00, 
1961.00, 
1962.00, 
1963.00, 
1964.00, 
1965.00, 
1966.00, 
1967.00, 
1968.00, 
1969.00, 
1970.00, 
1971.00, 
1972.00, 
1973.00, 
1974.00, 
1975.00, 
1976.00, 
1977.00, 
1978.00, 
1979.00, 
1980.00, 
1981.00, 
1982.00, 
1983.00, 
1984.00, 
1985.00, 
1986.00, 
1987.00, 
1988.00, 
1989.00, 
1990.00, 
1991.00, 
1992.00, 
1993.00, 
1994.00, 
1995.00, 
1996.00, 
1997.00, 
1998.00, 
1999.00, 
2000.00, 
2001.00, 
2002.00, 
2003.00, 
2004.00, 
2005.00, 
2006.00, 
2007.00, 
2008.00, 
2009.00, 
2010.00, 
2011.00, 
2012.00, 
2013.00, 
2014.00, 
2015.00, 
2016.00, 
2017.00, 
2018.00, 
2019.00, 
2020.00, 
2021.00, 
2022.00, 
2023.00, 
2024.00, 
2025.00, 
2026.00, 
2027.00, 
2028.00, 
2029.00, 
2030.00, 
2031.00, 
2032.00, 
2033.00, 
2034.00, 
2035.00, 
2036.00, 
2037.00, 
2038.00, 
2039.00, 
2040.00, 
2041.00, 
2042.00, 
2043.00, 
2044.00, 
2045.00, 
2046.00, 
2047.00, 
2048.00, 
2049.00, 
2050.00, 
2051.00, 
2052.00, 
2053.00, 
2054.00, 
2055.00, 
2056.00, 
2057.00, 
2058.00, 
2059.00, 
2060.00, 
2061.00, 
2062.00, 
2063.00, 
2064.00, 
2065.00, 
2066.00, 
2067.00, 
2068.00, 
2069.00, 
2070.00, 
2071.00, 
2072.00, 
2073.00, 
2074.00, 
2075.00, 
2076.00, 
2077.00, 
2078.00, 
2079.00, 
2080.00, 
2081.00, 
2082.00, 
2083.00, 
2084.00, 
2085.00, 
2086.00, 
2087.00, 
2088.00, 
2089.00, 
2090.00, 
2091.00, 
2092.00, 
2093.00, 
2094.00, 
2095.00, 
2096.00, 
2097.00, 
2098.00, 
2099.00, 
2100.00, 
2101.00, 
2102.00, 
2103.00, 
2104.00, 
2105.00, 
2106.00, 
2107.00, 
2108.00, 
2109.00, 
2110.00, 
2111.00, 
2112.00, 
2113.00, 
2114.00, 
2115.00, 
2116.00, 
2117.00, 
2118.00, 
2119.00, 
2120.00, 
2121.00, 
2122.00, 
2123.00, 
2124.00, 
2125.00, 
2126.00, 
2127.00, 
2128.00, 
2129.00, 
2130.00, 
2131.00, 
2132.00, 
2133.00, 
2134.00, 
2135.00, 
2136.00, 
2137.00, 
2138.00, 
2139.00, 
2140.00, 
2141.00, 
2142.00, 
2143.00, 
2144.00, 
2145.00, 
2146.00, 
2147.00, 
2148.00, 
2149.00, 
2150.00, 
2151.00, 
2152.00, 
2153.00, 
2154.00, 
2155.00, 
2156.00, 
2157.00, 
2158.00, 
2159.00, 
2160.00, 
2161.00, 
2162.00, 
2163.00, 
2164.00, 
2165.00, 
2166.00, 
2167.00, 
2168.00, 
2169.00, 
2170.00, 
2171.00, 
2172.00, 
2173.00, 
2174.00, 
2175.00, 
2176.00, 
2177.00, 
2178.00, 
2179.00, 
2180.00, 
2181.00, 
2182.00, 
2183.00, 
2184.00, 
2185.00, 
2186.00, 
2187.00, 
2188.00, 
2189.00, 
2190.00, 
2191.00, 
2192.00, 
2193.00, 
2194.00, 
2195.00, 
2196.00, 
2197.00, 
2198.00, 
2199.00, 
2200.00, 
2201.00, 
2202.00, 
2203.00, 
2204.00, 
2205.00, 
2206.00, 
2207.00, 
2208.00, 
2209.00, 
2210.00, 
2211.00, 
2212.00, 
2213.00, 
2214.00, 
2215.00, 
2216.00, 
2217.00, 
2218.00, 
2219.00, 
2220.00, 
2221.00, 
2222.00, 
2223.00, 
2224.00, 
2225.00, 
2226.00, 
2227.00, 
2228.00, 
2229.00, 
2230.00, 
2231.00, 
2232.00, 
2233.00, 
2234.00, 
2235.00, 
2236.00, 
2237.00, 
2238.00, 
2239.00, 
2240.00, 
2241.00, 
2242.00, 
2243.00, 
2244.00, 
2245.00, 
2246.00, 
2247.00, 
2248.00, 
2249.00, 
2250.00, 
2251.00, 
2252.00, 
2253.00, 
2254.00, 
2255.00, 
2256.00, 
2257.00, 
2258.00, 
2259.00, 
2260.00, 
2261.00, 
2262.00, 
2263.00, 
2264.00, 
2265.00, 
2266.00, 
2267.00, 
2268.00, 
2269.00, 
2270.00, 
2271.00, 
2272.00, 
2273.00, 
2274.00, 
2275.00, 
2276.00, 
2277.00, 
2278.00, 
2279.00, 
2280.00, 
2281.00, 
2282.00, 
2283.00, 
2284.00, 
2285.00, 
2286.00, 
2287.00, 
2288.00, 
2289.00, 
2290.00, 
2291.00, 
2292.00, 
2293.00, 
2294.00, 
2295.00, 
2296.00, 
2297.00, 
2298.00, 
2299.00, 
2300.00, 
2301.00, 
2302.00, 
2303.00, 
2304.00, 
2305.00, 
2306.00, 
2307.00, 
2308.00, 
2309.00, 
2310.00, 
2311.00, 
2312.00, 
2313.00, 
2314.00, 
2315.00, 
2316.00, 
2317.00, 
2318.00, 
2319.00, 
2320.00, 
2321.00, 
2322.00, 
2323.00, 
2324.00, 
2325.00, 
2326.00, 
2327.00, 
2328.00, 
2329.00, 
2330.00, 
2331.00, 
2332.00, 
2333.00, 
2334.00, 
2335.00, 
2336.00, 
2337.00, 
2338.00, 
2339.00, 
2340.00, 
2341.00, 
2342.00, 
2343.00, 
2344.00, 
2345.00, 
2346.00, 
2347.00, 
2348.00, 
2349.00, 
2350.00, 
2351.00, 
2352.00, 
2353.00, 
2354.00, 
2355.00, 
2356.00, 
2357.00, 
2358.00, 
2359.00, 
2360.00, 
2361.00, 
2362.00, 
2363.00, 
2364.00, 
2365.00, 
2366.00, 
2367.00, 
2368.00, 
2369.00, 
2370.00, 
2371.00, 
2372.00, 
2373.00, 
2374.00, 
2375.00, 
2376.00, 
2377.00, 
2378.00, 
2379.00, 
2380.00, 
2381.00, 
2382.00, 
2383.00, 
2384.00, 
2385.00, 
2386.00, 
2387.00, 
2388.00, 
2389.00, 
2390.00, 
2391.00, 
2392.00, 
2393.00, 
2394.00, 
2395.00, 
2396.00, 
2397.00, 
2398.00, 
2399.00, 
2400.00, 
2401.00, 
2402.00, 
2403.00, 
2404.00, 
2405.00, 
2406.00, 
2407.00, 
2408.00, 
2409.00, 
2410.00, 
2411.00, 
2412.00, 
2413.00, 
2414.00, 
2415.00, 
2416.00, 
2417.00, 
2418.00, 
2419.00, 
2420.00, 
2421.00, 
2422.00, 
2423.00, 
2424.00, 
2425.00, 
2426.00, 
2427.00, 
2428.00, 
2429.00, 
2430.00, 
2431.00, 
2432.00, 
2433.00, 
2434.00, 
2435.00, 
2436.00, 
2437.00, 
2438.00, 
2439.00, 
2440.00, 
2441.00, 
2442.00, 
2443.00, 
2444.00, 
2445.00, 
2446.00, 
2447.00, 
2448.00, 
2449.00, 
2450.00, 
2451.00, 
2452.00, 
2453.00, 
2454.00, 
2455.00, 
2456.00, 
2457.00, 
2458.00, 
2459.00, 
2460.00, 
2461.00, 
2462.00, 
2463.00, 
2464.00, 
2465.00, 
2466.00, 
2467.00, 
2468.00, 
2469.00, 
2470.00, 
2471.00, 
2472.00, 
2473.00, 
2474.00, 
2475.00, 
2476.00, 
2477.00, 
2478.00, 
2479.00, 
2480.00, 
2481.00, 
2482.00, 
2483.00, 
2484.00, 
2485.00, 
2486.00, 
2487.00, 
2488.00, 
2489.00, 
2490.00, 
2491.00, 
2492.00, 
2493.00, 
2494.00, 
2495.00, 
2496.00, 
2497.00, 
2498.00, 
2499.00, 
2500.00, 
2501.00, 
2502.00, 
2503.00, 
2504.00, 
2505.00, 
2506.00, 
2507.00, 
2508.00, 
2509.00, 
2510.00, 
2511.00, 
2512.00, 
2513.00, 
2514.00, 
2515.00, 
2516.00, 
2517.00, 
2518.00, 
2519.00, 
2520.00, 
2521.00, 
2522.00, 
2523.00, 
2524.00, 
2525.00, 
2526.00, 
2527.00, 
2528.00, 
2529.00, 
2530.00, 
2531.00, 
2532.00, 
2533.00, 
2534.00, 
2535.00, 
2536.00, 
2537.00, 
2538.00, 
2539.00, 
2540.00, 
2541.00, 
2542.00, 
2543.00, 
2544.00, 
2545.00, 
2546.00, 
2547.00, 
2548.00, 
2549.00, 
2550.00, 
2551.00, 
2552.00, 
2553.00, 
2554.00, 
2555.00, 
2556.00, 
2557.00, 
2558.00, 
2559.00, 
2560.00, 
2561.00, 
2562.00, 
2563.00, 
2564.00, 
2565.00, 
2566.00, 
2567.00, 
2568.00, 
2569.00, 
2570.00, 
2571.00, 
2572.00, 
2573.00, 
2574.00, 
2575.00, 
2576.00, 
2577.00, 
2578.00, 
2579.00, 
2580.00, 
2581.00, 
2582.00, 
2583.00, 
2584.00, 
2585.00, 
2586.00, 
2587.00, 
2588.00, 
2589.00, 
2590.00, 
2591.00, 
2592.00, 
2593.00, 
2594.00, 
2595.00, 
2596.00, 
2597.00, 
2598.00, 
2599.00, 
2600.00, 
