"1cP1 - RawData"
"Wavelength nm.","T%"
200.00,0.004
201.00,0.003
202.00,0.003
203.00,0.002
204.00,-0.001
205.00,-0.001
206.00,0.001
207.00,0.002
208.00,0.002
209.00,0.001
210.00,0.001
211.00,0.001
212.00,0.000
213.00,0.000
214.00,-0.001
215.00,-0.001
216.00,-0.001
217.00,0.001
218.00,0.000
219.00,0.003
220.00,0.001
221.00,0.003
222.00,-0.002
223.00,-0.001
224.00,0.001
225.00,-0.001
226.00,0.002
227.00,0.002
228.00,0.004
229.00,-0.000
230.00,0.001
231.00,-0.000
232.00,0.000
233.00,0.004
234.00,0.002
235.00,0.001
236.00,-0.001
237.00,0.000
238.00,0.001
239.00,0.001
240.00,0.002
241.00,-0.000
242.00,0.002
243.00,-0.001
244.00,0.002
245.00,0.001
246.00,0.001
247.00,0.001
248.00,-0.001
249.00,0.000
250.00,0.001
251.00,-0.000
252.00,0.002
253.00,-0.001
254.00,-0.001
255.00,0.000
256.00,0.001
257.00,0.000
258.00,-0.000
259.00,0.001
260.00,-0.000
261.00,0.001
262.00,-0.000
263.00,-0.001
264.00,-0.000
265.00,-0.001
266.00,0.001
267.00,-0.001
268.00,0.001
269.00,0.000
270.00,-0.002
271.00,0.001
272.00,-0.000
273.00,0.001
274.00,-0.000
275.00,0.000
276.00,-0.001
277.00,-0.000
278.00,-0.000
279.00,-0.002
280.00,0.001
281.00,-0.000
282.00,0.001
283.00,-0.001
284.00,0.000
285.00,0.002
286.00,0.001
287.00,0.000
288.00,-0.002
289.00,0.002
290.00,-0.001
291.00,0.002
292.00,0.000
293.00,0.001
294.00,-0.000
295.00,0.001
296.00,-0.000
297.00,0.000
298.00,0.001
299.00,0.001
300.00,0.000
301.00,0.000
302.00,-0.000
303.00,0.001
304.00,0.001
305.00,0.002
306.00,0.001
307.00,0.003
308.00,0.006
309.00,0.009
310.00,0.014
311.00,0.022
312.00,0.035
313.00,0.053
314.00,0.081
315.00,0.118
316.00,0.172
317.00,0.237
318.00,0.331
319.00,0.444
320.00,0.582
321.00,0.756
322.00,0.970
323.00,1.217
324.00,1.510
325.00,1.812
326.00,2.173
327.00,2.518
328.00,2.986
329.00,3.442
330.00,3.962
331.00,4.446
332.00,4.988
333.00,5.585
334.00,6.142
335.00,6.779
336.00,7.385
337.00,7.992
338.00,8.620
339.00,9.186
340.00,9.764
341.00,10.354
342.00,10.896
343.00,11.453
344.00,12.018
345.00,12.510
346.00,12.975
347.00,13.448
348.00,13.884
349.00,14.286
350.00,14.695
351.00,15.011
352.00,15.316
353.00,15.681
354.00,15.965
355.00,16.252
356.00,16.517
357.00,16.676
358.00,16.935
359.00,17.173
360.00,17.380
361.00,17.546
362.00,17.707
363.00,17.878
364.00,17.909
365.00,18.005
366.00,18.075
367.00,18.132
368.00,18.212
369.00,18.223
370.00,18.242
371.00,18.235
372.00,18.195
373.00,18.259
374.00,18.220
375.00,18.133
376.00,18.069
377.00,18.010
378.00,17.936
379.00,17.827
380.00,17.793
381.00,17.792
382.00,17.754
383.00,17.781
384.00,17.816
385.00,17.848
386.00,17.850
387.00,17.922
388.00,17.995
389.00,17.969
390.00,18.028
391.00,18.052
392.00,18.095
393.00,18.082
394.00,18.103
395.00,18.136
396.00,18.084
397.00,18.089
398.00,18.074
399.00,18.053
400.00,18.056
401.00,18.052
402.00,18.070
403.00,18.079
404.00,18.063
405.00,18.038
406.00,18.047
407.00,18.027
408.00,17.999
409.00,17.939
410.00,17.879
411.00,17.901
412.00,17.858
413.00,17.858
414.00,17.823
415.00,17.826
416.00,17.846
417.00,17.815
418.00,17.818
419.00,17.895
420.00,17.927
421.00,17.861
422.00,17.888
423.00,17.955
424.00,17.978
425.00,17.985
426.00,18.012
427.00,18.045
428.00,18.088
429.00,18.102
430.00,18.168
431.00,18.224
432.00,18.217
433.00,18.310
434.00,18.335
435.00,18.411
436.00,18.458
437.00,18.502
438.00,18.571
439.00,18.628
440.00,18.697
441.00,18.765
442.00,18.801
443.00,18.891
444.00,18.998
445.00,19.058
446.00,19.156
447.00,19.244
448.00,19.326
449.00,19.447
450.00,19.532
451.00,19.566
452.00,19.674
453.00,19.801
454.00,19.874
455.00,20.046
456.00,20.133
457.00,20.241
458.00,20.328
459.00,20.490
460.00,20.612
461.00,20.700
462.00,20.829
463.00,20.939
464.00,21.080
465.00,21.221
466.00,21.319
467.00,21.427
468.00,21.587
469.00,21.627
470.00,21.757
471.00,21.873
472.00,22.043
473.00,22.114
474.00,22.240
475.00,22.352
476.00,22.475
477.00,22.588
478.00,22.756
479.00,22.924
480.00,23.054
481.00,23.159
482.00,23.353
483.00,23.499
484.00,23.636
485.00,23.786
486.00,23.948
487.00,24.070
488.00,24.213
489.00,24.372
490.00,24.512
491.00,24.652
492.00,24.765
493.00,24.979
494.00,25.115
495.00,25.181
496.00,25.330
497.00,25.440
498.00,25.601
499.00,25.748
500.00,25.877
501.00,25.992
502.00,26.130
503.00,26.283
504.00,26.315
505.00,26.519
506.00,26.649
507.00,26.741
508.00,26.864
509.00,27.007
510.00,27.162
511.00,27.234
512.00,27.459
513.00,27.594
514.00,27.675
515.00,27.845
516.00,27.963
517.00,28.029
518.00,28.157
519.00,28.254
520.00,28.265
521.00,28.451
522.00,28.529
523.00,28.630
524.00,28.680
525.00,28.846
526.00,28.908
527.00,29.011
528.00,29.088
529.00,29.281
530.00,29.405
531.00,29.542
532.00,29.592
533.00,29.714
534.00,29.847
535.00,29.936
536.00,29.982
537.00,30.072
538.00,30.215
539.00,30.211
540.00,30.349
541.00,30.391
542.00,30.474
543.00,30.534
544.00,30.634
545.00,30.696
546.00,30.754
547.00,30.900
548.00,31.011
549.00,31.022
550.00,31.133
551.00,31.239
552.00,31.272
553.00,31.327
554.00,31.377
555.00,31.434
556.00,31.521
557.00,31.549
558.00,31.615
559.00,31.674
560.00,31.852
561.00,31.854
562.00,31.949
563.00,31.988
564.00,32.051
565.00,32.046
566.00,32.146
567.00,32.153
568.00,32.190
569.00,32.268
570.00,32.291
571.00,32.379
572.00,32.396
573.00,32.262
574.00,32.362
575.00,32.546
576.00,32.448
577.00,32.584
578.00,32.687
579.00,32.720
580.00,32.759
581.00,32.959
582.00,33.019
583.00,33.001
584.00,33.107
585.00,33.162
586.00,33.211
587.00,33.308
588.00,33.344
589.00,33.317
590.00,33.430
591.00,33.478
592.00,33.424
593.00,33.481
594.00,33.578
595.00,33.706
596.00,33.768
597.00,33.818
598.00,33.819
599.00,33.808
600.00,33.854
601.00,33.906
602.00,33.966
603.00,34.038
604.00,34.000
605.00,34.095
606.00,34.184
607.00,34.189
608.00,34.243
609.00,34.309
610.00,34.486
611.00,34.393
612.00,34.366
613.00,34.514
614.00,34.555
615.00,34.463
616.00,34.619
617.00,34.751
618.00,34.812
619.00,34.846
620.00,34.913
621.00,34.961
622.00,35.051
623.00,35.098
624.00,35.206
625.00,35.225
626.00,35.300
627.00,35.414
628.00,35.405
629.00,35.533
630.00,35.564
631.00,35.565
632.00,35.668
633.00,35.830
634.00,35.888
635.00,35.977
636.00,36.011
637.00,36.116
638.00,36.175
639.00,36.317
640.00,36.368
641.00,36.372
642.00,36.487
643.00,36.581
644.00,36.669
645.00,36.741
646.00,36.820
647.00,36.881
648.00,36.969
649.00,37.031
650.00,37.130
651.00,37.217
652.00,37.319
653.00,37.307
654.00,37.357
655.00,37.576
656.00,37.847
657.00,37.745
658.00,37.856
659.00,37.748
660.00,38.143
661.00,38.158
662.00,38.181
663.00,38.305
664.00,38.605
665.00,38.752
666.00,38.730
667.00,38.752
668.00,38.817
669.00,39.031
670.00,39.279
671.00,39.244
672.00,39.412
673.00,39.355
674.00,39.509
675.00,39.614
676.00,39.688
677.00,40.049
678.00,40.071
679.00,40.147
680.00,40.267
681.00,40.389
682.00,40.449
683.00,40.477
684.00,40.633
685.00,40.704
686.00,40.721
687.00,40.853
688.00,40.864
689.00,40.993
690.00,41.301
691.00,41.451
692.00,41.355
693.00,41.350
694.00,41.492
695.00,41.604
696.00,41.676
697.00,41.576
698.00,42.117
699.00,42.614
700.00,42.318
701.00,42.281
702.00,42.439
703.00,42.571
704.00,42.656
705.00,42.684
706.00,42.902
707.00,42.904
708.00,42.762
709.00,43.173
710.00,43.577
711.00,43.098
712.00,43.241
713.00,43.464
714.00,43.567
715.00,43.562
716.00,43.666
717.00,43.912
718.00,43.846
719.00,43.887
720.00,43.979
721.00,48.438
722.00,48.417
723.00,48.508
724.00,48.512
725.00,48.539
726.00,48.655
727.00,48.654
728.00,48.659
729.00,48.784
730.00,48.769
731.00,48.831
732.00,48.770
733.00,48.866
734.00,48.958
735.00,49.033
736.00,49.026
737.00,49.071
738.00,49.202
739.00,49.193
740.00,49.256
741.00,49.221
742.00,49.333
743.00,49.314
744.00,49.410
745.00,49.451
746.00,49.469
747.00,49.335
748.00,49.433
749.00,49.432
750.00,49.489
751.00,49.491
752.00,49.516
753.00,49.553
754.00,49.620
755.00,49.612
756.00,49.636
757.00,49.665
758.00,49.732
759.00,49.635
760.00,49.739
761.00,49.639
762.00,49.737
763.00,49.767
764.00,49.755
765.00,49.860
766.00,49.872
767.00,49.951
768.00,49.870
769.00,49.914
770.00,50.002
771.00,49.898
772.00,50.065
773.00,50.060
774.00,50.019
775.00,50.027
776.00,50.058
777.00,50.047
778.00,50.118
779.00,50.109
780.00,50.061
781.00,50.133
782.00,50.175
783.00,50.227
784.00,50.170
785.00,50.061
786.00,50.068
787.00,50.156
788.00,50.104
789.00,50.109
790.00,50.138
791.00,50.172
792.00,50.041
793.00,50.113
794.00,50.025
795.00,50.140
796.00,50.127
797.00,50.066
798.00,50.176
799.00,50.056
800.00,50.107
801.00,50.124
802.00,50.149
803.00,50.066
804.00,49.978
805.00,50.002
806.00,50.088
807.00,49.999
808.00,49.967
809.00,50.080
810.00,49.988
811.00,49.997
812.00,50.051
813.00,49.880
814.00,49.982
815.00,49.990
816.00,49.953
817.00,49.921
818.00,49.868
819.00,49.892
820.00,49.972
821.00,49.845
822.00,49.890
823.00,49.902
824.00,49.903
825.00,49.876
826.00,49.890
827.00,49.893
828.00,49.932
829.00,49.877
830.00,49.832
831.00,52.151
832.00,52.151
833.00,52.128
834.00,52.147
835.00,52.128
836.00,52.124
837.00,52.052
838.00,52.062
839.00,52.053
840.00,52.010
841.00,52.019
842.00,51.975
843.00,52.002
844.00,51.959
845.00,51.952
846.00,51.936
847.00,51.885
848.00,51.916
849.00,51.813
850.00,51.813
851.00,51.754
852.00,51.778
853.00,51.750
854.00,51.713
855.00,51.688
856.00,51.681
857.00,51.644
858.00,51.628
859.00,51.610
860.00,51.628
861.00,51.611
862.00,51.561
863.00,51.570
864.00,51.543
865.00,51.566
866.00,51.549
867.00,51.527
868.00,51.523
869.00,51.514
870.00,51.490
871.00,51.511
872.00,51.514
873.00,51.485
874.00,51.456
875.00,51.560
876.00,51.456
877.00,51.441
878.00,51.393
879.00,51.411
880.00,51.387
881.00,51.383
882.00,51.381
883.00,51.375
884.00,51.331
885.00,51.330
886.00,51.320
887.00,51.291
888.00,51.279
889.00,51.207
890.00,51.266
891.00,51.213
892.00,51.169
893.00,51.154
894.00,51.160
895.00,51.117
896.00,51.113
897.00,51.099
898.00,51.075
899.00,51.101
900.00,51.068
901.00,51.059
902.00,51.102
903.00,50.985
904.00,50.965
905.00,50.984
906.00,50.965
907.00,50.942
908.00,50.912
909.00,50.917
910.00,50.888
911.00,50.880
912.00,50.877
913.00,50.827
914.00,50.835
915.00,50.805
916.00,50.803
917.00,50.772
918.00,50.757
919.00,50.727
920.00,50.720
921.00,50.710
922.00,50.699
923.00,50.666
924.00,50.612
925.00,50.595
926.00,50.613
927.00,50.582
928.00,50.564
929.00,50.547
930.00,50.690
931.00,50.508
932.00,50.465
933.00,50.480
934.00,50.461
935.00,50.452
936.00,50.424
937.00,50.414
938.00,50.394
939.00,50.393
940.00,50.371
941.00,50.351
942.00,50.343
943.00,50.308
944.00,50.242
945.00,50.293
946.00,50.270
947.00,50.234
948.00,50.181
949.00,50.181
950.00,50.168
951.00,50.166
952.00,50.134
953.00,50.096
954.00,50.086
955.00,50.060
956.00,50.030
957.00,50.008
958.00,50.006
959.00,49.956
960.00,49.945
961.00,49.929
962.00,49.938
963.00,49.888
964.00,49.889
965.00,49.893
966.00,49.898
967.00,49.881
968.00,49.868
969.00,49.874
970.00,49.870
971.00,49.877
972.00,49.807
973.00,49.894
974.00,49.907
975.00,49.867
976.00,49.868
977.00,49.864
978.00,49.899
979.00,49.860
980.00,49.869
981.00,49.864
982.00,49.826
983.00,49.843
984.00,49.813
985.00,49.852
986.00,49.810
987.00,49.832
988.00,49.806
989.00,49.785
990.00,49.764
991.00,49.797
992.00,49.774
993.00,49.739
994.00,49.720
995.00,49.715
996.00,49.717
997.00,49.695
998.00,49.684
999.00,49.701
1000.00,49.659
1001.00,49.655
1002.00,49.651
1003.00,49.689
1004.00,49.610
1005.00,49.581
1006.00,49.657
1007.00,49.600
1008.00,49.563
1009.00,49.556
1010.00,49.565
1011.00,49.545
1012.00,49.530
1013.00,49.523
1014.00,49.497
1015.00,49.510
1016.00,49.467
1017.00,49.473
1018.00,49.449
1019.00,49.415
1020.00,49.417
1021.00,49.401
1022.00,49.383
1023.00,49.327
1024.00,49.334
1025.00,49.308
1026.00,49.301
1027.00,49.280
1028.00,49.279
1029.00,49.253
1030.00,49.219
1031.00,49.242
1032.00,49.185
1033.00,49.182
1034.00,49.154
1035.00,49.132
1036.00,49.121
1037.00,49.108
1038.00,49.090
1039.00,49.067
1040.00,49.069
1041.00,49.040
1042.00,49.038
1043.00,49.023
1044.00,49.054
1045.00,49.042
1046.00,49.019
1047.00,49.039
1048.00,49.044
1049.00,49.054
1050.00,49.063
1051.00,49.092
1052.00,49.088
1053.00,49.093
1054.00,49.099
1055.00,49.111
1056.00,49.123
1057.00,49.119
1058.00,49.103
1059.00,49.117
1060.00,49.120
1061.00,49.107
1062.00,49.085
1063.00,49.090
1064.00,49.098
1065.00,49.080
1066.00,49.066
1067.00,49.080
1068.00,49.078
1069.00,49.062
1070.00,49.039
1071.00,49.037
1072.00,49.050
1073.00,49.027
1074.00,49.012
1075.00,49.004
1076.00,49.003
1077.00,48.973
1078.00,48.963
1079.00,48.950
1080.00,48.951
1081.00,48.939
1082.00,48.944
1083.00,48.942
1084.00,48.939
1085.00,48.929
1086.00,48.914
1087.00,48.923
1088.00,48.899
1089.00,48.899
1090.00,48.874
1091.00,48.884
1092.00,48.887
1093.00,48.858
1094.00,48.854
1095.00,48.842
1096.00,48.840
1097.00,48.846
1098.00,48.836
1099.00,48.810
1100.00,48.800
1101.00,48.790
1102.00,48.785
1103.00,48.776
1104.00,48.760
1105.00,48.754
1106.00,48.748
1107.00,48.738
1108.00,48.738
1109.00,48.720
1110.00,48.710
1111.00,48.713
1112.00,48.705
1113.00,48.704
1114.00,48.689
1115.00,48.684
1116.00,48.690
1117.00,48.677
1118.00,48.646
1119.00,48.650
1120.00,48.645
1121.00,48.636
1122.00,48.628
1123.00,48.629
1124.00,48.619
1125.00,48.614
1126.00,48.604
1127.00,48.623
1128.00,48.603
1129.00,48.580
1130.00,48.578
1131.00,48.568
1132.00,48.553
1133.00,48.568
1134.00,48.560
1135.00,48.554
1136.00,48.549
1137.00,48.559
1138.00,48.553
1139.00,48.550
1140.00,48.547
1141.00,48.544
1142.00,48.529
1143.00,48.541
1144.00,48.524
1145.00,48.522
1146.00,48.524
1147.00,48.515
1148.00,48.507
1149.00,48.522
1150.00,48.507
1151.00,48.504
1152.00,48.484
1153.00,48.482
1154.00,48.471
1155.00,48.487
1156.00,48.508
1157.00,48.506
1158.00,48.506
1159.00,48.513
1160.00,48.497
1161.00,48.498
1162.00,48.481
1163.00,48.475
1164.00,48.477
1165.00,48.457
1166.00,48.474
1167.00,48.479
1168.00,48.496
1169.00,48.477
1170.00,48.471
1171.00,48.468
1172.00,48.451
1173.00,48.454
1174.00,48.484
1175.00,48.452
1176.00,48.448
1177.00,48.438
1178.00,48.436
1179.00,48.452
1180.00,48.434
1181.00,48.450
1182.00,48.442
1183.00,48.438
1184.00,48.433
1185.00,48.461
1186.00,48.442
1187.00,48.439
1188.00,48.445
1189.00,48.453
1190.00,48.440
1191.00,48.439
1192.00,48.457
1193.00,48.459
1194.00,48.458
1195.00,48.436
1196.00,48.471
1197.00,48.477
1198.00,48.450
1199.00,48.449
1200.00,48.457
1201.00,48.460
1202.00,48.432
1203.00,48.432
1204.00,48.431
1205.00,48.449
1206.00,48.445
1207.00,48.451
1208.00,48.433
1209.00,48.440
1210.00,48.445
1211.00,48.430
1212.00,48.452
1213.00,48.422
1214.00,48.441
1215.00,48.418
1216.00,48.423
1217.00,48.428
1218.00,48.425
1219.00,48.451
1220.00,48.439
1221.00,48.451
1222.00,48.438
1223.00,48.454
1224.00,48.449
1225.00,48.440
1226.00,48.453
1227.00,48.458
1228.00,48.467
1229.00,48.467
1230.00,48.506
1231.00,48.475
1232.00,48.512
1233.00,48.501
1234.00,48.505
1235.00,48.529
1236.00,48.504
1237.00,48.505
1238.00,48.498
1239.00,48.501
1240.00,48.502
1241.00,48.500
1242.00,48.512
1243.00,48.526
1244.00,48.498
1245.00,48.534
1246.00,48.532
1247.00,48.515
1248.00,48.521
1249.00,48.545
1250.00,48.549
1251.00,48.538
1252.00,48.549
1253.00,48.542
1254.00,48.568
1255.00,48.553
1256.00,48.560
1257.00,48.543
1258.00,48.570
1259.00,48.572
1260.00,48.591
1261.00,48.582
1262.00,48.577
1263.00,48.594
1264.00,48.590
1265.00,48.616
1266.00,48.616
1267.00,48.610
1268.00,48.615
1269.00,48.608
1270.00,48.637
1271.00,48.634
1272.00,48.648
1273.00,48.682
1274.00,48.679
1275.00,48.684
1276.00,48.675
1277.00,48.672
1278.00,48.694
1279.00,48.692
1280.00,48.699
1281.00,48.707
1282.00,48.703
1283.00,48.687
1284.00,48.719
1285.00,48.697
1286.00,48.712
1287.00,48.705
1288.00,48.712
1289.00,48.718
1290.00,48.756
1291.00,48.740
1292.00,48.743
1293.00,48.739
1294.00,48.756
1295.00,48.768
1296.00,48.765
1297.00,48.768
1298.00,48.798
1299.00,48.778
1300.00,48.792
1301.00,48.786
1302.00,48.796
1303.00,48.815
1304.00,48.793
1305.00,48.819
1306.00,48.837
1307.00,48.841
1308.00,48.846
1309.00,48.849
1310.00,48.842
1311.00,48.848
1312.00,48.858
1313.00,48.864
1314.00,48.879
1315.00,48.893
1316.00,48.880
1317.00,48.912
1318.00,48.911
1319.00,48.916
1320.00,48.933
1321.00,48.780
1322.00,48.774
1323.00,48.762
1324.00,48.770
1325.00,48.766
1326.00,48.800
1327.00,48.760
1328.00,48.776
1329.00,48.796
1330.00,48.813
1331.00,48.818
1332.00,48.814
1333.00,48.833
1334.00,48.860
1335.00,48.858
1336.00,48.886
1337.00,48.937
1338.00,49.008
1339.00,49.033
1340.00,49.078
1341.00,49.142
1342.00,49.209
1343.00,49.237
1344.00,49.299
1345.00,49.355
1346.00,49.378
1347.00,49.414
1348.00,49.446
1349.00,49.464
1350.00,49.479
1351.00,49.490
1352.00,49.494
1353.00,49.503
1354.00,49.512
1355.00,49.513
1356.00,49.554
1357.00,49.525
1358.00,49.566
1359.00,49.565
1360.00,49.550
1361.00,49.593
1362.00,49.515
1363.00,49.616
1364.00,49.627
1365.00,49.582
1366.00,49.613
1367.00,49.596
1368.00,49.558
1369.00,49.601
1370.00,49.573
1371.00,49.555
1372.00,49.587
1373.00,49.578
1374.00,49.603
1375.00,49.573
1376.00,49.569
1377.00,49.585
1378.00,49.586
1379.00,49.567
1380.00,49.592
1381.00,49.566
1382.00,49.616
1383.00,49.581
1384.00,49.523
1385.00,49.567
1386.00,49.603
1387.00,49.536
1388.00,49.538
1389.00,49.534
1390.00,49.550
1391.00,49.563
1392.00,49.558
1393.00,49.559
1394.00,49.592
1395.00,49.552
1396.00,49.526
1397.00,49.549
1398.00,49.593
1399.00,49.575
1400.00,49.601
1401.00,49.545
1402.00,49.598
1403.00,49.536
1404.00,49.598
1405.00,49.623
1406.00,49.633
1407.00,49.632
1408.00,49.647
1409.00,49.628
1410.00,49.685
1411.00,49.692
1412.00,49.699
1413.00,49.656
1414.00,49.674
1415.00,49.693
1416.00,49.710
1417.00,49.728
1418.00,49.723
1419.00,49.746
1420.00,49.746
1421.00,49.776
1422.00,49.782
1423.00,49.803
1424.00,49.823
1425.00,49.846
1426.00,49.850
1427.00,49.875
1428.00,49.862
1429.00,49.872
1430.00,49.916
1431.00,49.921
1432.00,49.922
1433.00,49.954
1434.00,49.923
1435.00,50.003
1436.00,50.006
1437.00,49.995
1438.00,50.023
1439.00,50.040
1440.00,50.051
1441.00,50.050
1442.00,50.055
1443.00,50.102
1444.00,50.146
1445.00,50.109
1446.00,50.159
1447.00,50.161
1448.00,50.175
1449.00,50.195
1450.00,50.197
1451.00,50.224
1452.00,50.241
1453.00,50.223
1454.00,50.268
1455.00,50.291
1456.00,50.298
1457.00,50.323
1458.00,50.350
1459.00,50.352
1460.00,50.392
1461.00,50.379
1462.00,50.416
1463.00,50.430
1464.00,50.432
1465.00,50.449
1466.00,50.461
1467.00,50.484
1468.00,50.550
1469.00,50.523
1470.00,50.531
1471.00,50.561
1472.00,50.563
1473.00,50.577
1474.00,50.602
1475.00,50.612
1476.00,50.634
1477.00,50.624
1478.00,50.640
1479.00,50.671
1480.00,50.658
1481.00,50.670
1482.00,50.720
1483.00,50.709
1484.00,50.744
1485.00,50.767
1486.00,50.766
1487.00,50.804
1488.00,50.822
1489.00,50.827
1490.00,50.846
1491.00,50.874
1492.00,50.888
1493.00,50.864
1494.00,50.899
1495.00,50.892
1496.00,50.918
1497.00,50.906
1498.00,50.940
1499.00,50.950
1500.00,50.966
1501.00, 
1502.00, 
1503.00, 
1504.00, 
1505.00, 
1506.00, 
1507.00, 
1508.00, 
1509.00, 
1510.00, 
1511.00, 
1512.00, 
1513.00, 
1514.00, 
1515.00, 
1516.00, 
1517.00, 
1518.00, 
1519.00, 
1520.00, 
1521.00, 
1522.00, 
1523.00, 
1524.00, 
1525.00, 
1526.00, 
1527.00, 
1528.00, 
1529.00, 
1530.00, 
1531.00, 
1532.00, 
1533.00, 
1534.00, 
1535.00, 
1536.00, 
1537.00, 
1538.00, 
1539.00, 
1540.00, 
1541.00, 
1542.00, 
1543.00, 
1544.00, 
1545.00, 
1546.00, 
1547.00, 
1548.00, 
1549.00, 
1550.00, 
1551.00, 
1552.00, 
1553.00, 
1554.00, 
1555.00, 
1556.00, 
1557.00, 
1558.00, 
1559.00, 
1560.00, 
1561.00, 
1562.00, 
1563.00, 
1564.00, 
1565.00, 
1566.00, 
1567.00, 
1568.00, 
1569.00, 
1570.00, 
1571.00, 
1572.00, 
1573.00, 
1574.00, 
1575.00, 
1576.00, 
1577.00, 
1578.00, 
1579.00, 
1580.00, 
1581.00, 
1582.00, 
1583.00, 
1584.00, 
1585.00, 
1586.00, 
1587.00, 
1588.00, 
1589.00, 
1590.00, 
1591.00, 
1592.00, 
1593.00, 
1594.00, 
1595.00, 
1596.00, 
1597.00, 
1598.00, 
1599.00, 
1600.00, 
1601.00, 
1602.00, 
1603.00, 
1604.00, 
1605.00, 
1606.00, 
1607.00, 
1608.00, 
1609.00, 
1610.00, 
1611.00, 
1612.00, 
1613.00, 
1614.00, 
1615.00, 
1616.00, 
1617.00, 
1618.00, 
1619.00, 
1620.00, 
1621.00, 
1622.00, 
1623.00, 
1624.00, 
1625.00, 
1626.00, 
1627.00, 
1628.00, 
1629.00, 
1630.00, 
1631.00, 
1632.00, 
1633.00, 
1634.00, 
1635.00, 
1636.00, 
1637.00, 
1638.00, 
1639.00, 
1640.00, 
1641.00, 
1642.00, 
1643.00, 
1644.00, 
1645.00, 
1646.00, 
1647.00, 
1648.00, 
1649.00, 
1650.00, 
1651.00, 
1652.00, 
1653.00, 
1654.00, 
1655.00, 
1656.00, 
1657.00, 
1658.00, 
1659.00, 
1660.00, 
1661.00, 
1662.00, 
1663.00, 
1664.00, 
1665.00, 
1666.00, 
1667.00, 
1668.00, 
1669.00, 
1670.00, 
1671.00, 
1672.00, 
1673.00, 
1674.00, 
1675.00, 
1676.00, 
1677.00, 
1678.00, 
1679.00, 
1680.00, 
1681.00, 
1682.00, 
1683.00, 
1684.00, 
1685.00, 
1686.00, 
1687.00, 
1688.00, 
1689.00, 
1690.00, 
1691.00, 
1692.00, 
1693.00, 
1694.00, 
1695.00, 
1696.00, 
1697.00, 
1698.00, 
1699.00, 
1700.00, 
1701.00, 
1702.00, 
1703.00, 
1704.00, 
1705.00, 
1706.00, 
1707.00, 
1708.00, 
1709.00, 
1710.00, 
1711.00, 
1712.00, 
1713.00, 
1714.00, 
1715.00, 
1716.00, 
1717.00, 
1718.00, 
1719.00, 
1720.00, 
1721.00, 
1722.00, 
1723.00, 
1724.00, 
1725.00, 
1726.00, 
1727.00, 
1728.00, 
1729.00, 
1730.00, 
1731.00, 
1732.00, 
1733.00, 
1734.00, 
1735.00, 
1736.00, 
1737.00, 
1738.00, 
1739.00, 
1740.00, 
1741.00, 
1742.00, 
1743.00, 
1744.00, 
1745.00, 
1746.00, 
1747.00, 
1748.00, 
1749.00, 
1750.00, 
1751.00, 
1752.00, 
1753.00, 
1754.00, 
1755.00, 
1756.00, 
1757.00, 
1758.00, 
1759.00, 
1760.00, 
1761.00, 
1762.00, 
1763.00, 
1764.00, 
1765.00, 
1766.00, 
1767.00, 
1768.00, 
1769.00, 
1770.00, 
1771.00, 
1772.00, 
1773.00, 
1774.00, 
1775.00, 
1776.00, 
1777.00, 
1778.00, 
1779.00, 
1780.00, 
1781.00, 
1782.00, 
1783.00, 
1784.00, 
1785.00, 
1786.00, 
1787.00, 
1788.00, 
1789.00, 
1790.00, 
1791.00, 
1792.00, 
1793.00, 
1794.00, 
1795.00, 
1796.00, 
1797.00, 
1798.00, 
1799.00, 
1800.00, 
1801.00, 
1802.00, 
1803.00, 
1804.00, 
1805.00, 
1806.00, 
1807.00, 
1808.00, 
1809.00, 
1810.00, 
1811.00, 
1812.00, 
1813.00, 
1814.00, 
1815.00, 
1816.00, 
1817.00, 
1818.00, 
1819.00, 
1820.00, 
1821.00, 
1822.00, 
1823.00, 
1824.00, 
1825.00, 
1826.00, 
1827.00, 
1828.00, 
1829.00, 
1830.00, 
1831.00, 
1832.00, 
1833.00, 
1834.00, 
1835.00, 
1836.00, 
1837.00, 
1838.00, 
1839.00, 
1840.00, 
1841.00, 
1842.00, 
1843.00, 
1844.00, 
1845.00, 
1846.00, 
1847.00, 
1848.00, 
1849.00, 
1850.00, 
1851.00, 
1852.00, 
1853.00, 
1854.00, 
1855.00, 
1856.00, 
1857.00, 
1858.00, 
1859.00, 
1860.00, 
1861.00, 
1862.00, 
1863.00, 
1864.00, 
1865.00, 
1866.00, 
1867.00, 
1868.00, 
1869.00, 
1870.00, 
1871.00, 
1872.00, 
1873.00, 
1874.00, 
1875.00, 
1876.00, 
1877.00, 
1878.00, 
1879.00, 
1880.00, 
1881.00, 
1882.00, 
1883.00, 
1884.00, 
1885.00, 
1886.00, 
1887.00, 
1888.00, 
1889.00, 
1890.00, 
1891.00, 
1892.00, 
1893.00, 
1894.00, 
1895.00, 
1896.00, 
1897.00, 
1898.00, 
1899.00, 
1900.00, 
1901.00, 
1902.00, 
1903.00, 
1904.00, 
1905.00, 
1906.00, 
1907.00, 
1908.00, 
1909.00, 
1910.00, 
1911.00, 
1912.00, 
1913.00, 
1914.00, 
1915.00, 
1916.00, 
1917.00, 
1918.00, 
1919.00, 
1920.00, 
1921.00, 
1922.00, 
1923.00, 
1924.00, 
1925.00, 
1926.00, 
1927.00, 
1928.00, 
1929.00, 
1930.00, 
1931.00, 
1932.00, 
1933.00, 
1934.00, 
1935.00, 
1936.00, 
1937.00, 
1938.00, 
1939.00, 
1940.00, 
1941.00, 
1942.00, 
1943.00, 
1944.00, 
1945.00, 
1946.00, 
1947.00, 
1948.00, 
1949.00, 
1950.00, 
1951.00, 
1952.00, 
1953.00, 
1954.00, 
1955.00, 
1956.00, 
1957.00, 
1958.00, 
1959.00, 
1960.00, 
1961.00, 
1962.00, 
1963.00, 
1964.00, 
1965.00, 
1966.00, 
1967.00, 
1968.00, 
1969.00, 
1970.00, 
1971.00, 
1972.00, 
1973.00, 
1974.00, 
1975.00, 
1976.00, 
1977.00, 
1978.00, 
1979.00, 
1980.00, 
1981.00, 
1982.00, 
1983.00, 
1984.00, 
1985.00, 
1986.00, 
1987.00, 
1988.00, 
1989.00, 
1990.00, 
1991.00, 
1992.00, 
1993.00, 
1994.00, 
1995.00, 
1996.00, 
1997.00, 
1998.00, 
1999.00, 
2000.00, 
2001.00, 
2002.00, 
2003.00, 
2004.00, 
2005.00, 
2006.00, 
2007.00, 
2008.00, 
2009.00, 
2010.00, 
2011.00, 
2012.00, 
2013.00, 
2014.00, 
2015.00, 
2016.00, 
2017.00, 
2018.00, 
2019.00, 
2020.00, 
2021.00, 
2022.00, 
2023.00, 
2024.00, 
2025.00, 
2026.00, 
2027.00, 
2028.00, 
2029.00, 
2030.00, 
2031.00, 
2032.00, 
2033.00, 
2034.00, 
2035.00, 
2036.00, 
2037.00, 
2038.00, 
2039.00, 
2040.00, 
2041.00, 
2042.00, 
2043.00, 
2044.00, 
2045.00, 
2046.00, 
2047.00, 
2048.00, 
2049.00, 
2050.00, 
2051.00, 
2052.00, 
2053.00, 
2054.00, 
2055.00, 
2056.00, 
2057.00, 
2058.00, 
2059.00, 
2060.00, 
2061.00, 
2062.00, 
2063.00, 
2064.00, 
2065.00, 
2066.00, 
2067.00, 
2068.00, 
2069.00, 
2070.00, 
2071.00, 
2072.00, 
2073.00, 
2074.00, 
2075.00, 
2076.00, 
2077.00, 
2078.00, 
2079.00, 
2080.00, 
2081.00, 
2082.00, 
2083.00, 
2084.00, 
2085.00, 
2086.00, 
2087.00, 
2088.00, 
2089.00, 
2090.00, 
2091.00, 
2092.00, 
2093.00, 
2094.00, 
2095.00, 
2096.00, 
2097.00, 
2098.00, 
2099.00, 
2100.00, 
2101.00, 
2102.00, 
2103.00, 
2104.00, 
2105.00, 
2106.00, 
2107.00, 
2108.00, 
2109.00, 
2110.00, 
2111.00, 
2112.00, 
2113.00, 
2114.00, 
2115.00, 
2116.00, 
2117.00, 
2118.00, 
2119.00, 
2120.00, 
2121.00, 
2122.00, 
2123.00, 
2124.00, 
2125.00, 
2126.00, 
2127.00, 
2128.00, 
2129.00, 
2130.00, 
2131.00, 
2132.00, 
2133.00, 
2134.00, 
2135.00, 
2136.00, 
2137.00, 
2138.00, 
2139.00, 
2140.00, 
2141.00, 
2142.00, 
2143.00, 
2144.00, 
2145.00, 
2146.00, 
2147.00, 
2148.00, 
2149.00, 
2150.00, 
2151.00, 
2152.00, 
2153.00, 
2154.00, 
2155.00, 
2156.00, 
2157.00, 
2158.00, 
2159.00, 
2160.00, 
2161.00, 
2162.00, 
2163.00, 
2164.00, 
2165.00, 
2166.00, 
2167.00, 
2168.00, 
2169.00, 
2170.00, 
2171.00, 
2172.00, 
2173.00, 
2174.00, 
2175.00, 
2176.00, 
2177.00, 
2178.00, 
2179.00, 
2180.00, 
2181.00, 
2182.00, 
2183.00, 
2184.00, 
2185.00, 
2186.00, 
2187.00, 
2188.00, 
2189.00, 
2190.00, 
2191.00, 
2192.00, 
2193.00, 
2194.00, 
2195.00, 
2196.00, 
2197.00, 
2198.00, 
2199.00, 
2200.00, 
2201.00, 
2202.00, 
2203.00, 
2204.00, 
2205.00, 
2206.00, 
2207.00, 
2208.00, 
2209.00, 
2210.00, 
2211.00, 
2212.00, 
2213.00, 
2214.00, 
2215.00, 
2216.00, 
2217.00, 
2218.00, 
2219.00, 
2220.00, 
2221.00, 
2222.00, 
2223.00, 
2224.00, 
2225.00, 
2226.00, 
2227.00, 
2228.00, 
2229.00, 
2230.00, 
2231.00, 
2232.00, 
2233.00, 
2234.00, 
2235.00, 
2236.00, 
2237.00, 
2238.00, 
2239.00, 
2240.00, 
2241.00, 
2242.00, 
2243.00, 
2244.00, 
2245.00, 
2246.00, 
2247.00, 
2248.00, 
2249.00, 
2250.00, 
2251.00, 
2252.00, 
2253.00, 
2254.00, 
2255.00, 
2256.00, 
2257.00, 
2258.00, 
2259.00, 
2260.00, 
2261.00, 
2262.00, 
2263.00, 
2264.00, 
2265.00, 
2266.00, 
2267.00, 
2268.00, 
2269.00, 
2270.00, 
2271.00, 
2272.00, 
2273.00, 
2274.00, 
2275.00, 
2276.00, 
2277.00, 
2278.00, 
2279.00, 
2280.00, 
2281.00, 
2282.00, 
2283.00, 
2284.00, 
2285.00, 
2286.00, 
2287.00, 
2288.00, 
2289.00, 
2290.00, 
2291.00, 
2292.00, 
2293.00, 
2294.00, 
2295.00, 
2296.00, 
2297.00, 
2298.00, 
2299.00, 
2300.00, 
2301.00, 
2302.00, 
2303.00, 
2304.00, 
2305.00, 
2306.00, 
2307.00, 
2308.00, 
2309.00, 
2310.00, 
2311.00, 
2312.00, 
2313.00, 
2314.00, 
2315.00, 
2316.00, 
2317.00, 
2318.00, 
2319.00, 
2320.00, 
2321.00, 
2322.00, 
2323.00, 
2324.00, 
2325.00, 
2326.00, 
2327.00, 
2328.00, 
2329.00, 
2330.00, 
2331.00, 
2332.00, 
2333.00, 
2334.00, 
2335.00, 
2336.00, 
2337.00, 
2338.00, 
2339.00, 
2340.00, 
2341.00, 
2342.00, 
2343.00, 
2344.00, 
2345.00, 
2346.00, 
2347.00, 
2348.00, 
2349.00, 
2350.00, 
2351.00, 
2352.00, 
2353.00, 
2354.00, 
2355.00, 
2356.00, 
2357.00, 
2358.00, 
2359.00, 
2360.00, 
2361.00, 
2362.00, 
2363.00, 
2364.00, 
2365.00, 
2366.00, 
2367.00, 
2368.00, 
2369.00, 
2370.00, 
2371.00, 
2372.00, 
2373.00, 
2374.00, 
2375.00, 
2376.00, 
2377.00, 
2378.00, 
2379.00, 
2380.00, 
2381.00, 
2382.00, 
2383.00, 
2384.00, 
2385.00, 
2386.00, 
2387.00, 
2388.00, 
2389.00, 
2390.00, 
2391.00, 
2392.00, 
2393.00, 
2394.00, 
2395.00, 
2396.00, 
2397.00, 
2398.00, 
2399.00, 
2400.00, 
2401.00, 
2402.00, 
2403.00, 
2404.00, 
2405.00, 
2406.00, 
2407.00, 
2408.00, 
2409.00, 
2410.00, 
2411.00, 
2412.00, 
2413.00, 
2414.00, 
2415.00, 
2416.00, 
2417.00, 
2418.00, 
2419.00, 
2420.00, 
2421.00, 
2422.00, 
2423.00, 
2424.00, 
2425.00, 
2426.00, 
2427.00, 
2428.00, 
2429.00, 
2430.00, 
2431.00, 
2432.00, 
2433.00, 
2434.00, 
2435.00, 
2436.00, 
2437.00, 
2438.00, 
2439.00, 
2440.00, 
2441.00, 
2442.00, 
2443.00, 
2444.00, 
2445.00, 
2446.00, 
2447.00, 
2448.00, 
2449.00, 
2450.00, 
2451.00, 
2452.00, 
2453.00, 
2454.00, 
2455.00, 
2456.00, 
2457.00, 
2458.00, 
2459.00, 
2460.00, 
2461.00, 
2462.00, 
2463.00, 
2464.00, 
2465.00, 
2466.00, 
2467.00, 
2468.00, 
2469.00, 
2470.00, 
2471.00, 
2472.00, 
2473.00, 
2474.00, 
2475.00, 
2476.00, 
2477.00, 
2478.00, 
2479.00, 
2480.00, 
2481.00, 
2482.00, 
2483.00, 
2484.00, 
2485.00, 
2486.00, 
2487.00, 
2488.00, 
2489.00, 
2490.00, 
2491.00, 
2492.00, 
2493.00, 
2494.00, 
2495.00, 
2496.00, 
2497.00, 
2498.00, 
2499.00, 
2500.00, 
2501.00, 
2502.00, 
2503.00, 
2504.00, 
2505.00, 
2506.00, 
2507.00, 
2508.00, 
2509.00, 
2510.00, 
2511.00, 
2512.00, 
2513.00, 
2514.00, 
2515.00, 
2516.00, 
2517.00, 
2518.00, 
2519.00, 
2520.00, 
2521.00, 
2522.00, 
2523.00, 
2524.00, 
2525.00, 
2526.00, 
2527.00, 
2528.00, 
2529.00, 
2530.00, 
2531.00, 
2532.00, 
2533.00, 
2534.00, 
2535.00, 
2536.00, 
2537.00, 
2538.00, 
2539.00, 
2540.00, 
2541.00, 
2542.00, 
2543.00, 
2544.00, 
2545.00, 
2546.00, 
2547.00, 
2548.00, 
2549.00, 
2550.00, 
2551.00, 
2552.00, 
2553.00, 
2554.00, 
2555.00, 
2556.00, 
2557.00, 
2558.00, 
2559.00, 
2560.00, 
2561.00, 
2562.00, 
2563.00, 
2564.00, 
2565.00, 
2566.00, 
2567.00, 
2568.00, 
2569.00, 
2570.00, 
2571.00, 
2572.00, 
2573.00, 
2574.00, 
2575.00, 
2576.00, 
2577.00, 
2578.00, 
2579.00, 
2580.00, 
2581.00, 
2582.00, 
2583.00, 
2584.00, 
2585.00, 
2586.00, 
2587.00, 
2588.00, 
2589.00, 
2590.00, 
2591.00, 
2592.00, 
2593.00, 
2594.00, 
2595.00, 
2596.00, 
2597.00, 
2598.00, 
2599.00, 
2600.00, 
