"1cP2 - RawData"
"Wavelength nm.","T%"
200.00,0.002
201.00,0.002
202.00,0.003
203.00,-0.000
204.00,-0.000
205.00,0.001
206.00,0.001
207.00,-0.001
208.00,-0.001
209.00,0.000
210.00,-0.001
211.00,0.001
212.00,0.002
213.00,0.000
214.00,0.001
215.00,0.001
216.00,0.000
217.00,0.004
218.00,0.001
219.00,-0.000
220.00,0.004
221.00,-0.002
222.00,0.003
223.00,0.001
224.00,0.001
225.00,0.000
226.00,-0.001
227.00,0.000
228.00,-0.001
229.00,0.001
230.00,0.002
231.00,0.000
232.00,-0.001
233.00,0.002
234.00,0.001
235.00,-0.001
236.00,-0.002
237.00,0.001
238.00,-0.000
239.00,0.000
240.00,0.000
241.00,0.002
242.00,0.001
243.00,0.003
244.00,0.000
245.00,-0.001
246.00,-0.001
247.00,0.001
248.00,-0.000
249.00,-0.001
250.00,0.000
251.00,0.002
252.00,-0.000
253.00,0.001
254.00,0.001
255.00,0.002
256.00,0.000
257.00,0.001
258.00,-0.000
259.00,-0.001
260.00,-0.000
261.00,-0.000
262.00,0.001
263.00,0.001
264.00,0.001
265.00,-0.000
266.00,-0.002
267.00,-0.000
268.00,-0.000
269.00,-0.000
270.00,0.001
271.00,0.001
272.00,0.001
273.00,-0.000
274.00,-0.001
275.00,0.001
276.00,0.000
277.00,-0.001
278.00,-0.000
279.00,0.000
280.00,0.001
281.00,0.002
282.00,-0.000
283.00,0.001
284.00,0.001
285.00,0.001
286.00,0.000
287.00,0.001
288.00,-0.001
289.00,-0.001
290.00,0.003
291.00,-0.003
292.00,0.002
293.00,0.000
294.00,0.000
295.00,0.001
296.00,0.001
297.00,-0.000
298.00,0.002
299.00,0.000
300.00,0.001
301.00,0.001
302.00,-0.001
303.00,0.001
304.00,0.003
305.00,0.002
306.00,0.002
307.00,0.003
308.00,0.006
309.00,0.012
310.00,0.024
311.00,0.034
312.00,0.054
313.00,0.082
314.00,0.118
315.00,0.180
316.00,0.259
317.00,0.363
318.00,0.503
319.00,0.663
320.00,0.886
321.00,1.155
322.00,1.472
323.00,1.866
324.00,2.315
325.00,2.800
326.00,3.328
327.00,3.963
328.00,4.641
329.00,5.360
330.00,6.147
331.00,6.944
332.00,7.807
333.00,8.750
334.00,9.650
335.00,10.652
336.00,11.626
337.00,12.610
338.00,13.601
339.00,14.534
340.00,15.497
341.00,16.422
342.00,17.342
343.00,18.269
344.00,19.191
345.00,19.996
346.00,20.792
347.00,21.546
348.00,22.310
349.00,22.980
350.00,23.683
351.00,24.222
352.00,24.725
353.00,25.345
354.00,25.835
355.00,26.346
356.00,26.824
357.00,27.174
358.00,27.664
359.00,28.075
360.00,28.406
361.00,28.750
362.00,29.028
363.00,29.365
364.00,29.501
365.00,29.671
366.00,29.884
367.00,30.036
368.00,30.157
369.00,30.275
370.00,30.385
371.00,30.434
372.00,30.411
373.00,30.516
374.00,30.503
375.00,30.437
376.00,30.375
377.00,30.292
378.00,30.163
379.00,30.066
380.00,30.091
381.00,30.086
382.00,30.111
383.00,30.165
384.00,30.293
385.00,30.381
386.00,30.394
387.00,30.584
388.00,30.703
389.00,30.761
390.00,30.844
391.00,30.948
392.00,30.962
393.00,31.051
394.00,31.058
395.00,31.148
396.00,31.129
397.00,31.128
398.00,31.162
399.00,31.187
400.00,31.172
401.00,31.119
402.00,31.232
403.00,31.260
404.00,31.223
405.00,31.203
406.00,31.197
407.00,31.178
408.00,31.186
409.00,31.064
410.00,30.982
411.00,30.987
412.00,30.910
413.00,30.887
414.00,30.815
415.00,30.779
416.00,30.847
417.00,30.775
418.00,30.774
419.00,30.867
420.00,30.909
421.00,30.851
422.00,30.844
423.00,30.891
424.00,30.895
425.00,30.928
426.00,30.897
427.00,30.969
428.00,30.965
429.00,30.974
430.00,31.064
431.00,31.041
432.00,31.008
433.00,31.117
434.00,31.058
435.00,31.185
436.00,31.249
437.00,31.246
438.00,31.308
439.00,31.358
440.00,31.406
441.00,31.461
442.00,31.539
443.00,31.556
444.00,31.656
445.00,31.727
446.00,31.774
447.00,31.857
448.00,31.938
449.00,32.004
450.00,32.124
451.00,32.154
452.00,32.280
453.00,32.351
454.00,32.445
455.00,32.532
456.00,32.625
457.00,32.734
458.00,32.799
459.00,32.939
460.00,33.070
461.00,33.126
462.00,33.213
463.00,33.335
464.00,33.413
465.00,33.539
466.00,33.631
467.00,33.723
468.00,33.748
469.00,33.872
470.00,33.921
471.00,33.957
472.00,34.107
473.00,34.165
474.00,34.224
475.00,34.343
476.00,34.425
477.00,34.559
478.00,34.573
479.00,34.839
480.00,34.876
481.00,34.984
482.00,35.174
483.00,35.303
484.00,35.414
485.00,35.516
486.00,35.648
487.00,35.773
488.00,35.890
489.00,36.019
490.00,36.122
491.00,36.226
492.00,36.276
493.00,36.522
494.00,36.655
495.00,36.682
496.00,36.782
497.00,36.845
498.00,36.999
499.00,37.096
500.00,37.231
501.00,37.289
502.00,37.361
503.00,37.503
504.00,37.491
505.00,37.670
506.00,37.771
507.00,37.804
508.00,37.921
509.00,38.068
510.00,38.161
511.00,38.214
512.00,38.407
513.00,38.527
514.00,38.600
515.00,38.755
516.00,38.803
517.00,38.852
518.00,39.002
519.00,39.073
520.00,39.012
521.00,39.186
522.00,39.263
523.00,39.280
524.00,39.370
525.00,39.425
526.00,39.471
527.00,39.518
528.00,39.583
529.00,39.754
530.00,39.914
531.00,40.017
532.00,39.998
533.00,40.187
534.00,40.224
535.00,40.311
536.00,40.353
537.00,40.462
538.00,40.525
539.00,40.566
540.00,40.642
541.00,40.654
542.00,40.715
543.00,40.739
544.00,40.842
545.00,40.910
546.00,40.906
547.00,41.082
548.00,41.145
549.00,41.151
550.00,41.228
551.00,41.306
552.00,41.382
553.00,41.372
554.00,41.468
555.00,41.492
556.00,41.474
557.00,41.573
558.00,41.657
559.00,41.625
560.00,41.733
561.00,41.826
562.00,41.863
563.00,41.881
564.00,41.997
565.00,41.957
566.00,41.983
567.00,42.060
568.00,42.079
569.00,42.135
570.00,42.140
571.00,42.232
572.00,42.218
573.00,42.145
574.00,42.231
575.00,42.251
576.00,42.177
577.00,42.257
578.00,42.395
579.00,42.425
580.00,42.486
581.00,42.686
582.00,42.712
583.00,42.690
584.00,42.779
585.00,42.861
586.00,42.923
587.00,42.965
588.00,42.975
589.00,42.888
590.00,42.996
591.00,43.017
592.00,42.943
593.00,43.017
594.00,43.095
595.00,43.194
596.00,43.266
597.00,43.317
598.00,43.308
599.00,43.296
600.00,43.363
601.00,43.328
602.00,43.401
603.00,43.464
604.00,43.464
605.00,43.453
606.00,43.502
607.00,43.488
608.00,43.524
609.00,43.576
610.00,43.843
611.00,43.685
612.00,43.688
613.00,43.701
614.00,43.809
615.00,43.770
616.00,43.929
617.00,43.883
618.00,43.838
619.00,43.891
620.00,43.952
621.00,44.025
622.00,44.050
623.00,44.091
624.00,44.147
625.00,44.279
626.00,44.246
627.00,44.232
628.00,44.239
629.00,44.299
630.00,44.307
631.00,44.305
632.00,44.327
633.00,44.481
634.00,44.530
635.00,44.557
636.00,44.604
637.00,44.622
638.00,44.648
639.00,44.725
640.00,44.689
641.00,44.738
642.00,44.865
643.00,44.799
644.00,44.864
645.00,45.000
646.00,45.036
647.00,45.121
648.00,45.081
649.00,45.075
650.00,45.018
651.00,45.290
652.00,45.362
653.00,45.269
654.00,45.259
655.00,45.361
656.00,45.673
657.00,45.427
658.00,45.478
659.00,45.655
660.00,45.742
661.00,45.688
662.00,45.673
663.00,45.768
664.00,46.089
665.00,46.145
666.00,45.986
667.00,46.017
668.00,46.035
669.00,46.212
670.00,46.460
671.00,46.352
672.00,46.439
673.00,46.445
674.00,46.446
675.00,46.450
676.00,46.626
677.00,46.757
678.00,46.552
679.00,46.742
680.00,46.855
681.00,47.058
682.00,46.942
683.00,46.886
684.00,47.084
685.00,46.973
686.00,46.903
687.00,46.976
688.00,46.882
689.00,47.042
690.00,47.265
691.00,47.353
692.00,47.349
693.00,47.454
694.00,47.343
695.00,47.512
696.00,47.465
697.00,47.419
698.00,47.540
699.00,47.780
700.00,47.762
701.00,47.622
702.00,47.667
703.00,47.829
704.00,47.931
705.00,47.765
706.00,47.759
707.00,47.952
708.00,47.900
709.00,48.095
710.00,48.510
711.00,47.974
712.00,48.044
713.00,48.202
714.00,48.284
715.00,48.217
716.00,48.204
717.00,48.349
718.00,48.414
719.00,48.330
720.00,48.409
721.00,52.992
722.00,53.004
723.00,52.987
724.00,52.972
725.00,52.957
726.00,53.012
727.00,52.967
728.00,52.938
729.00,52.931
730.00,52.899
731.00,52.965
732.00,52.855
733.00,52.850
734.00,52.872
735.00,52.939
736.00,52.860
737.00,52.868
738.00,52.884
739.00,52.892
740.00,52.918
741.00,52.849
742.00,52.818
743.00,52.857
744.00,52.856
745.00,52.766
746.00,52.826
747.00,52.669
748.00,52.664
749.00,52.667
750.00,52.707
751.00,52.627
752.00,52.635
753.00,52.597
754.00,52.603
755.00,52.561
756.00,52.545
757.00,52.559
758.00,52.589
759.00,52.478
760.00,52.518
761.00,52.406
762.00,52.473
763.00,52.445
764.00,52.313
765.00,52.437
766.00,52.389
767.00,52.425
768.00,52.372
769.00,52.347
770.00,52.417
771.00,52.349
772.00,52.394
773.00,52.363
774.00,52.259
775.00,52.285
776.00,52.325
777.00,52.305
778.00,52.276
779.00,52.247
780.00,52.207
781.00,52.272
782.00,52.185
783.00,52.268
784.00,52.180
785.00,52.062
786.00,52.146
787.00,52.109
788.00,52.090
789.00,51.976
790.00,52.023
791.00,52.021
792.00,51.876
793.00,51.923
794.00,51.880
795.00,51.888
796.00,51.887
797.00,51.841
798.00,51.837
799.00,51.764
800.00,51.782
801.00,51.715
802.00,51.753
803.00,51.669
804.00,51.576
805.00,51.594
806.00,51.578
807.00,51.514
808.00,51.498
809.00,51.627
810.00,51.507
811.00,51.475
812.00,51.583
813.00,51.408
814.00,51.401
815.00,51.449
816.00,51.363
817.00,51.257
818.00,51.214
819.00,51.229
820.00,51.290
821.00,51.159
822.00,51.183
823.00,51.189
824.00,51.241
825.00,51.170
826.00,51.156
827.00,51.133
828.00,51.144
829.00,51.038
830.00,51.017
831.00,53.443
832.00,53.406
833.00,53.355
834.00,53.370
835.00,53.329
836.00,53.327
837.00,53.248
838.00,53.249
839.00,53.253
840.00,53.188
841.00,53.169
842.00,53.123
843.00,53.150
844.00,53.091
845.00,53.068
846.00,53.052
847.00,52.985
848.00,53.043
849.00,52.935
850.00,52.915
851.00,52.856
852.00,52.871
853.00,52.794
854.00,52.777
855.00,52.745
856.00,52.706
857.00,52.698
858.00,52.643
859.00,52.624
860.00,52.663
861.00,52.614
862.00,52.578
863.00,52.566
864.00,52.510
865.00,52.541
866.00,52.551
867.00,52.508
868.00,52.488
869.00,52.485
870.00,52.449
871.00,52.445
872.00,52.443
873.00,52.399
874.00,52.384
875.00,52.361
876.00,52.350
877.00,52.258
878.00,52.406
879.00,52.305
880.00,52.273
881.00,52.240
882.00,52.269
883.00,52.235
884.00,52.167
885.00,52.153
886.00,52.147
887.00,52.112
888.00,52.079
889.00,52.056
890.00,52.052
891.00,52.052
892.00,52.014
893.00,51.994
894.00,51.998
895.00,51.958
896.00,51.918
897.00,51.894
898.00,51.870
899.00,51.878
900.00,51.852
901.00,51.861
902.00,51.837
903.00,51.787
904.00,51.758
905.00,51.762
906.00,51.747
907.00,51.724
908.00,51.673
909.00,51.667
910.00,51.638
911.00,51.615
912.00,51.610
913.00,51.545
914.00,51.540
915.00,51.526
916.00,51.476
917.00,51.512
918.00,51.464
919.00,51.430
920.00,51.404
921.00,51.416
922.00,51.395
923.00,51.361
924.00,51.334
925.00,51.320
926.00,51.295
927.00,51.283
928.00,51.268
929.00,51.275
930.00,51.239
931.00,51.194
932.00,51.133
933.00,51.245
934.00,51.146
935.00,51.113
936.00,51.094
937.00,51.055
938.00,51.070
939.00,51.044
940.00,51.020
941.00,51.014
942.00,50.995
943.00,50.967
944.00,50.923
945.00,50.919
946.00,50.902
947.00,50.876
948.00,50.849
949.00,50.829
950.00,50.792
951.00,50.797
952.00,50.780
953.00,50.748
954.00,50.707
955.00,50.697
956.00,50.657
957.00,50.632
958.00,50.638
959.00,50.587
960.00,50.575
961.00,50.565
962.00,50.563
963.00,50.513
964.00,50.506
965.00,50.501
966.00,50.494
967.00,50.469
968.00,50.455
969.00,50.485
970.00,50.459
971.00,50.460
972.00,50.391
973.00,50.474
974.00,50.478
975.00,50.448
976.00,50.462
977.00,50.445
978.00,50.468
979.00,50.432
980.00,50.463
981.00,50.453
982.00,50.424
983.00,50.433
984.00,50.422
985.00,50.417
986.00,50.385
987.00,50.406
988.00,50.362
989.00,50.360
990.00,50.340
991.00,50.328
992.00,50.342
993.00,50.315
994.00,50.315
995.00,50.299
996.00,50.298
997.00,50.264
998.00,50.249
999.00,50.258
1000.00,50.211
1001.00,50.206
1002.00,50.209
1003.00,50.223
1004.00,50.171
1005.00,50.146
1006.00,50.177
1007.00,50.160
1008.00,50.130
1009.00,50.106
1010.00,50.104
1011.00,50.082
1012.00,50.060
1013.00,50.062
1014.00,50.035
1015.00,50.045
1016.00,49.995
1017.00,50.002
1018.00,49.993
1019.00,49.969
1020.00,49.959
1021.00,49.946
1022.00,49.927
1023.00,49.871
1024.00,49.891
1025.00,49.895
1026.00,49.843
1027.00,49.817
1028.00,49.810
1029.00,49.803
1030.00,49.772
1031.00,49.789
1032.00,49.734
1033.00,49.738
1034.00,49.697
1035.00,49.674
1036.00,49.650
1037.00,49.634
1038.00,49.623
1039.00,49.596
1040.00,49.595
1041.00,49.565
1042.00,49.557
1043.00,49.533
1044.00,49.564
1045.00,49.546
1046.00,49.534
1047.00,49.550
1048.00,49.558
1049.00,49.558
1050.00,49.568
1051.00,49.610
1052.00,49.611
1053.00,49.602
1054.00,49.610
1055.00,49.620
1056.00,49.628
1057.00,49.635
1058.00,49.625
1059.00,49.634
1060.00,49.632
1061.00,49.609
1062.00,49.595
1063.00,49.610
1064.00,49.609
1065.00,49.600
1066.00,49.577
1067.00,49.574
1068.00,49.591
1069.00,49.554
1070.00,49.526
1071.00,49.517
1072.00,49.522
1073.00,49.498
1074.00,49.484
1075.00,49.488
1076.00,49.505
1077.00,49.482
1078.00,49.449
1079.00,49.453
1080.00,49.453
1081.00,49.447
1082.00,49.451
1083.00,49.447
1084.00,49.445
1085.00,49.447
1086.00,49.426
1087.00,49.433
1088.00,49.408
1089.00,49.401
1090.00,49.393
1091.00,49.399
1092.00,49.403
1093.00,49.355
1094.00,49.333
1095.00,49.324
1096.00,49.311
1097.00,49.315
1098.00,49.317
1099.00,49.292
1100.00,49.285
1101.00,49.279
1102.00,49.272
1103.00,49.267
1104.00,49.257
1105.00,49.255
1106.00,49.247
1107.00,49.223
1108.00,49.213
1109.00,49.199
1110.00,49.191
1111.00,49.192
1112.00,49.193
1113.00,49.185
1114.00,49.172
1115.00,49.177
1116.00,49.178
1117.00,49.160
1118.00,49.145
1119.00,49.149
1120.00,49.147
1121.00,49.124
1122.00,49.117
1123.00,49.130
1124.00,49.120
1125.00,49.119
1126.00,49.102
1127.00,49.101
1128.00,49.091
1129.00,49.072
1130.00,49.065
1131.00,49.053
1132.00,49.036
1133.00,49.041
1134.00,49.038
1135.00,49.028
1136.00,49.028
1137.00,49.042
1138.00,49.034
1139.00,49.025
1140.00,49.026
1141.00,49.010
1142.00,49.003
1143.00,49.012
1144.00,48.996
1145.00,49.005
1146.00,48.996
1147.00,48.999
1148.00,48.992
1149.00,49.001
1150.00,48.995
1151.00,48.992
1152.00,48.986
1153.00,49.011
1154.00,48.978
1155.00,48.977
1156.00,48.975
1157.00,48.989
1158.00,48.987
1159.00,48.983
1160.00,48.980
1161.00,48.994
1162.00,48.980
1163.00,48.972
1164.00,48.989
1165.00,48.970
1166.00,48.964
1167.00,48.958
1168.00,48.971
1169.00,48.951
1170.00,48.955
1171.00,48.942
1172.00,48.944
1173.00,48.940
1174.00,48.952
1175.00,48.947
1176.00,48.942
1177.00,48.921
1178.00,48.928
1179.00,48.948
1180.00,48.934
1181.00,48.946
1182.00,48.939
1183.00,48.931
1184.00,48.912
1185.00,48.931
1186.00,48.905
1187.00,48.906
1188.00,48.904
1189.00,48.919
1190.00,48.905
1191.00,48.908
1192.00,48.925
1193.00,48.921
1194.00,48.920
1195.00,48.898
1196.00,48.930
1197.00,48.931
1198.00,48.911
1199.00,48.910
1200.00,48.903
1201.00,48.922
1202.00,48.909
1203.00,48.911
1204.00,48.901
1205.00,48.919
1206.00,48.906
1207.00,48.916
1208.00,48.905
1209.00,48.922
1210.00,48.917
1211.00,48.928
1212.00,48.928
1213.00,48.908
1214.00,48.946
1215.00,48.905
1216.00,48.919
1217.00,48.916
1218.00,48.900
1219.00,48.922
1220.00,48.904
1221.00,48.929
1222.00,48.922
1223.00,48.930
1224.00,48.922
1225.00,48.912
1226.00,48.919
1227.00,48.921
1228.00,48.937
1229.00,48.941
1230.00,48.980
1231.00,48.958
1232.00,48.983
1233.00,48.990
1234.00,48.992
1235.00,48.993
1236.00,48.985
1237.00,48.992
1238.00,48.987
1239.00,48.990
1240.00,48.984
1241.00,48.980
1242.00,48.976
1243.00,48.994
1244.00,48.972
1245.00,49.004
1246.00,49.004
1247.00,49.004
1248.00,49.004
1249.00,49.029
1250.00,49.038
1251.00,49.021
1252.00,49.030
1253.00,49.017
1254.00,49.045
1255.00,49.031
1256.00,49.010
1257.00,49.031
1258.00,49.037
1259.00,49.033
1260.00,49.081
1261.00,49.069
1262.00,49.069
1263.00,49.067
1264.00,49.066
1265.00,49.070
1266.00,49.074
1267.00,49.082
1268.00,49.086
1269.00,49.087
1270.00,49.116
1271.00,49.113
1272.00,49.119
1273.00,49.134
1274.00,49.144
1275.00,49.155
1276.00,49.143
1277.00,49.152
1278.00,49.161
1279.00,49.165
1280.00,49.160
1281.00,49.169
1282.00,49.177
1283.00,49.150
1284.00,49.169
1285.00,49.165
1286.00,49.180
1287.00,49.176
1288.00,49.187
1289.00,49.188
1290.00,49.231
1291.00,49.217
1292.00,49.223
1293.00,49.212
1294.00,49.236
1295.00,49.238
1296.00,49.238
1297.00,49.254
1298.00,49.280
1299.00,49.268
1300.00,49.272
1301.00,49.268
1302.00,49.296
1303.00,49.289
1304.00,49.296
1305.00,49.326
1306.00,49.301
1307.00,49.330
1308.00,49.332
1309.00,49.335
1310.00,49.342
1311.00,49.324
1312.00,49.352
1313.00,49.366
1314.00,49.385
1315.00,49.407
1316.00,49.398
1317.00,49.424
1318.00,49.411
1319.00,49.407
1320.00,49.416
1321.00,49.271
1322.00,49.277
1323.00,49.263
1324.00,49.263
1325.00,49.262
1326.00,49.280
1327.00,49.269
1328.00,49.271
1329.00,49.298
1330.00,49.285
1331.00,49.317
1332.00,49.331
1333.00,49.309
1334.00,49.338
1335.00,49.362
1336.00,49.390
1337.00,49.420
1338.00,49.466
1339.00,49.506
1340.00,49.555
1341.00,49.625
1342.00,49.692
1343.00,49.725
1344.00,49.780
1345.00,49.841
1346.00,49.861
1347.00,49.903
1348.00,49.917
1349.00,49.943
1350.00,49.960
1351.00,49.969
1352.00,49.976
1353.00,49.983
1354.00,49.981
1355.00,49.975
1356.00,50.016
1357.00,50.007
1358.00,50.043
1359.00,49.978
1360.00,50.037
1361.00,50.070
1362.00,50.041
1363.00,50.100
1364.00,50.070
1365.00,50.137
1366.00,50.054
1367.00,50.040
1368.00,50.058
1369.00,50.059
1370.00,50.054
1371.00,50.026
1372.00,50.050
1373.00,50.056
1374.00,50.071
1375.00,50.045
1376.00,50.043
1377.00,50.067
1378.00,50.079
1379.00,50.073
1380.00,50.137
1381.00,50.058
1382.00,50.068
1383.00,50.065
1384.00,50.027
1385.00,50.070
1386.00,50.085
1387.00,50.013
1388.00,50.012
1389.00,50.017
1390.00,50.033
1391.00,50.065
1392.00,50.039
1393.00,50.054
1394.00,50.086
1395.00,50.025
1396.00,50.014
1397.00,50.043
1398.00,50.074
1399.00,50.064
1400.00,50.020
1401.00,50.038
1402.00,50.073
1403.00,50.025
1404.00,50.082
1405.00,50.113
1406.00,50.136
1407.00,50.130
1408.00,50.116
1409.00,50.116
1410.00,50.167
1411.00,50.166
1412.00,50.180
1413.00,50.154
1414.00,50.165
1415.00,50.195
1416.00,50.207
1417.00,50.223
1418.00,50.211
1419.00,50.223
1420.00,50.238
1421.00,50.276
1422.00,50.263
1423.00,50.292
1424.00,50.307
1425.00,50.349
1426.00,50.313
1427.00,50.361
1428.00,50.363
1429.00,50.377
1430.00,50.387
1431.00,50.409
1432.00,50.413
1433.00,50.443
1434.00,50.430
1435.00,50.493
1436.00,50.497
1437.00,50.464
1438.00,50.493
1439.00,50.514
1440.00,50.527
1441.00,50.533
1442.00,50.534
1443.00,50.573
1444.00,50.634
1445.00,50.601
1446.00,50.617
1447.00,50.653
1448.00,50.675
1449.00,50.679
1450.00,50.689
1451.00,50.710
1452.00,50.735
1453.00,50.729
1454.00,50.763
1455.00,50.784
1456.00,50.790
1457.00,50.802
1458.00,50.819
1459.00,50.837
1460.00,50.858
1461.00,50.856
1462.00,50.893
1463.00,50.900
1464.00,50.891
1465.00,50.931
1466.00,50.939
1467.00,50.952
1468.00,50.996
1469.00,50.987
1470.00,50.990
1471.00,51.027
1472.00,51.061
1473.00,51.063
1474.00,51.092
1475.00,51.102
1476.00,51.123
1477.00,51.108
1478.00,51.128
1479.00,51.162
1480.00,51.162
1481.00,51.171
1482.00,51.211
1483.00,51.228
1484.00,51.246
1485.00,51.261
1486.00,51.262
1487.00,51.288
1488.00,51.304
1489.00,51.292
1490.00,51.312
1491.00,51.339
1492.00,51.358
1493.00,51.350
1494.00,51.386
1495.00,51.396
1496.00,51.417
1497.00,51.399
1498.00,51.429
1499.00,51.454
1500.00,51.480
1501.00, 
1502.00, 
1503.00, 
1504.00, 
1505.00, 
1506.00, 
1507.00, 
1508.00, 
1509.00, 
1510.00, 
1511.00, 
1512.00, 
1513.00, 
1514.00, 
1515.00, 
1516.00, 
1517.00, 
1518.00, 
1519.00, 
1520.00, 
1521.00, 
1522.00, 
1523.00, 
1524.00, 
1525.00, 
1526.00, 
1527.00, 
1528.00, 
1529.00, 
1530.00, 
1531.00, 
1532.00, 
1533.00, 
1534.00, 
1535.00, 
1536.00, 
1537.00, 
1538.00, 
1539.00, 
1540.00, 
1541.00, 
1542.00, 
1543.00, 
1544.00, 
1545.00, 
1546.00, 
1547.00, 
1548.00, 
1549.00, 
1550.00, 
1551.00, 
1552.00, 
1553.00, 
1554.00, 
1555.00, 
1556.00, 
1557.00, 
1558.00, 
1559.00, 
1560.00, 
1561.00, 
1562.00, 
1563.00, 
1564.00, 
1565.00, 
1566.00, 
1567.00, 
1568.00, 
1569.00, 
1570.00, 
1571.00, 
1572.00, 
1573.00, 
1574.00, 
1575.00, 
1576.00, 
1577.00, 
1578.00, 
1579.00, 
1580.00, 
1581.00, 
1582.00, 
1583.00, 
1584.00, 
1585.00, 
1586.00, 
1587.00, 
1588.00, 
1589.00, 
1590.00, 
1591.00, 
1592.00, 
1593.00, 
1594.00, 
1595.00, 
1596.00, 
1597.00, 
1598.00, 
1599.00, 
1600.00, 
1601.00, 
1602.00, 
1603.00, 
1604.00, 
1605.00, 
1606.00, 
1607.00, 
1608.00, 
1609.00, 
1610.00, 
1611.00, 
1612.00, 
1613.00, 
1614.00, 
1615.00, 
1616.00, 
1617.00, 
1618.00, 
1619.00, 
1620.00, 
1621.00, 
1622.00, 
1623.00, 
1624.00, 
1625.00, 
1626.00, 
1627.00, 
1628.00, 
1629.00, 
1630.00, 
1631.00, 
1632.00, 
1633.00, 
1634.00, 
1635.00, 
1636.00, 
1637.00, 
1638.00, 
1639.00, 
1640.00, 
1641.00, 
1642.00, 
1643.00, 
1644.00, 
1645.00, 
1646.00, 
1647.00, 
1648.00, 
1649.00, 
1650.00, 
1651.00, 
1652.00, 
1653.00, 
1654.00, 
1655.00, 
1656.00, 
1657.00, 
1658.00, 
1659.00, 
1660.00, 
1661.00, 
1662.00, 
1663.00, 
1664.00, 
1665.00, 
1666.00, 
1667.00, 
1668.00, 
1669.00, 
1670.00, 
1671.00, 
1672.00, 
1673.00, 
1674.00, 
1675.00, 
1676.00, 
1677.00, 
1678.00, 
1679.00, 
1680.00, 
1681.00, 
1682.00, 
1683.00, 
1684.00, 
1685.00, 
1686.00, 
1687.00, 
1688.00, 
1689.00, 
1690.00, 
1691.00, 
1692.00, 
1693.00, 
1694.00, 
1695.00, 
1696.00, 
1697.00, 
1698.00, 
1699.00, 
1700.00, 
1701.00, 
1702.00, 
1703.00, 
1704.00, 
1705.00, 
1706.00, 
1707.00, 
1708.00, 
1709.00, 
1710.00, 
1711.00, 
1712.00, 
1713.00, 
1714.00, 
1715.00, 
1716.00, 
1717.00, 
1718.00, 
1719.00, 
1720.00, 
1721.00, 
1722.00, 
1723.00, 
1724.00, 
1725.00, 
1726.00, 
1727.00, 
1728.00, 
1729.00, 
1730.00, 
1731.00, 
1732.00, 
1733.00, 
1734.00, 
1735.00, 
1736.00, 
1737.00, 
1738.00, 
1739.00, 
1740.00, 
1741.00, 
1742.00, 
1743.00, 
1744.00, 
1745.00, 
1746.00, 
1747.00, 
1748.00, 
1749.00, 
1750.00, 
1751.00, 
1752.00, 
1753.00, 
1754.00, 
1755.00, 
1756.00, 
1757.00, 
1758.00, 
1759.00, 
1760.00, 
1761.00, 
1762.00, 
1763.00, 
1764.00, 
1765.00, 
1766.00, 
1767.00, 
1768.00, 
1769.00, 
1770.00, 
1771.00, 
1772.00, 
1773.00, 
1774.00, 
1775.00, 
1776.00, 
1777.00, 
1778.00, 
1779.00, 
1780.00, 
1781.00, 
1782.00, 
1783.00, 
1784.00, 
1785.00, 
1786.00, 
1787.00, 
1788.00, 
1789.00, 
1790.00, 
1791.00, 
1792.00, 
1793.00, 
1794.00, 
1795.00, 
1796.00, 
1797.00, 
1798.00, 
1799.00, 
1800.00, 
1801.00, 
1802.00, 
1803.00, 
1804.00, 
1805.00, 
1806.00, 
1807.00, 
1808.00, 
1809.00, 
1810.00, 
1811.00, 
1812.00, 
1813.00, 
1814.00, 
1815.00, 
1816.00, 
1817.00, 
1818.00, 
1819.00, 
1820.00, 
1821.00, 
1822.00, 
1823.00, 
1824.00, 
1825.00, 
1826.00, 
1827.00, 
1828.00, 
1829.00, 
1830.00, 
1831.00, 
1832.00, 
1833.00, 
1834.00, 
1835.00, 
1836.00, 
1837.00, 
1838.00, 
1839.00, 
1840.00, 
1841.00, 
1842.00, 
1843.00, 
1844.00, 
1845.00, 
1846.00, 
1847.00, 
1848.00, 
1849.00, 
1850.00, 
1851.00, 
1852.00, 
1853.00, 
1854.00, 
1855.00, 
1856.00, 
1857.00, 
1858.00, 
1859.00, 
1860.00, 
1861.00, 
1862.00, 
1863.00, 
1864.00, 
1865.00, 
1866.00, 
1867.00, 
1868.00, 
1869.00, 
1870.00, 
1871.00, 
1872.00, 
1873.00, 
1874.00, 
1875.00, 
1876.00, 
1877.00, 
1878.00, 
1879.00, 
1880.00, 
1881.00, 
1882.00, 
1883.00, 
1884.00, 
1885.00, 
1886.00, 
1887.00, 
1888.00, 
1889.00, 
1890.00, 
1891.00, 
1892.00, 
1893.00, 
1894.00, 
1895.00, 
1896.00, 
1897.00, 
1898.00, 
1899.00, 
1900.00, 
1901.00, 
1902.00, 
1903.00, 
1904.00, 
1905.00, 
1906.00, 
1907.00, 
1908.00, 
1909.00, 
1910.00, 
1911.00, 
1912.00, 
1913.00, 
1914.00, 
1915.00, 
1916.00, 
1917.00, 
1918.00, 
1919.00, 
1920.00, 
1921.00, 
1922.00, 
1923.00, 
1924.00, 
1925.00, 
1926.00, 
1927.00, 
1928.00, 
1929.00, 
1930.00, 
1931.00, 
1932.00, 
1933.00, 
1934.00, 
1935.00, 
1936.00, 
1937.00, 
1938.00, 
1939.00, 
1940.00, 
1941.00, 
1942.00, 
1943.00, 
1944.00, 
1945.00, 
1946.00, 
1947.00, 
1948.00, 
1949.00, 
1950.00, 
1951.00, 
1952.00, 
1953.00, 
1954.00, 
1955.00, 
1956.00, 
1957.00, 
1958.00, 
1959.00, 
1960.00, 
1961.00, 
1962.00, 
1963.00, 
1964.00, 
1965.00, 
1966.00, 
1967.00, 
1968.00, 
1969.00, 
1970.00, 
1971.00, 
1972.00, 
1973.00, 
1974.00, 
1975.00, 
1976.00, 
1977.00, 
1978.00, 
1979.00, 
1980.00, 
1981.00, 
1982.00, 
1983.00, 
1984.00, 
1985.00, 
1986.00, 
1987.00, 
1988.00, 
1989.00, 
1990.00, 
1991.00, 
1992.00, 
1993.00, 
1994.00, 
1995.00, 
1996.00, 
1997.00, 
1998.00, 
1999.00, 
2000.00, 
2001.00, 
2002.00, 
2003.00, 
2004.00, 
2005.00, 
2006.00, 
2007.00, 
2008.00, 
2009.00, 
2010.00, 
2011.00, 
2012.00, 
2013.00, 
2014.00, 
2015.00, 
2016.00, 
2017.00, 
2018.00, 
2019.00, 
2020.00, 
2021.00, 
2022.00, 
2023.00, 
2024.00, 
2025.00, 
2026.00, 
2027.00, 
2028.00, 
2029.00, 
2030.00, 
2031.00, 
2032.00, 
2033.00, 
2034.00, 
2035.00, 
2036.00, 
2037.00, 
2038.00, 
2039.00, 
2040.00, 
2041.00, 
2042.00, 
2043.00, 
2044.00, 
2045.00, 
2046.00, 
2047.00, 
2048.00, 
2049.00, 
2050.00, 
2051.00, 
2052.00, 
2053.00, 
2054.00, 
2055.00, 
2056.00, 
2057.00, 
2058.00, 
2059.00, 
2060.00, 
2061.00, 
2062.00, 
2063.00, 
2064.00, 
2065.00, 
2066.00, 
2067.00, 
2068.00, 
2069.00, 
2070.00, 
2071.00, 
2072.00, 
2073.00, 
2074.00, 
2075.00, 
2076.00, 
2077.00, 
2078.00, 
2079.00, 
2080.00, 
2081.00, 
2082.00, 
2083.00, 
2084.00, 
2085.00, 
2086.00, 
2087.00, 
2088.00, 
2089.00, 
2090.00, 
2091.00, 
2092.00, 
2093.00, 
2094.00, 
2095.00, 
2096.00, 
2097.00, 
2098.00, 
2099.00, 
2100.00, 
2101.00, 
2102.00, 
2103.00, 
2104.00, 
2105.00, 
2106.00, 
2107.00, 
2108.00, 
2109.00, 
2110.00, 
2111.00, 
2112.00, 
2113.00, 
2114.00, 
2115.00, 
2116.00, 
2117.00, 
2118.00, 
2119.00, 
2120.00, 
2121.00, 
2122.00, 
2123.00, 
2124.00, 
2125.00, 
2126.00, 
2127.00, 
2128.00, 
2129.00, 
2130.00, 
2131.00, 
2132.00, 
2133.00, 
2134.00, 
2135.00, 
2136.00, 
2137.00, 
2138.00, 
2139.00, 
2140.00, 
2141.00, 
2142.00, 
2143.00, 
2144.00, 
2145.00, 
2146.00, 
2147.00, 
2148.00, 
2149.00, 
2150.00, 
2151.00, 
2152.00, 
2153.00, 
2154.00, 
2155.00, 
2156.00, 
2157.00, 
2158.00, 
2159.00, 
2160.00, 
2161.00, 
2162.00, 
2163.00, 
2164.00, 
2165.00, 
2166.00, 
2167.00, 
2168.00, 
2169.00, 
2170.00, 
2171.00, 
2172.00, 
2173.00, 
2174.00, 
2175.00, 
2176.00, 
2177.00, 
2178.00, 
2179.00, 
2180.00, 
2181.00, 
2182.00, 
2183.00, 
2184.00, 
2185.00, 
2186.00, 
2187.00, 
2188.00, 
2189.00, 
2190.00, 
2191.00, 
2192.00, 
2193.00, 
2194.00, 
2195.00, 
2196.00, 
2197.00, 
2198.00, 
2199.00, 
2200.00, 
2201.00, 
2202.00, 
2203.00, 
2204.00, 
2205.00, 
2206.00, 
2207.00, 
2208.00, 
2209.00, 
2210.00, 
2211.00, 
2212.00, 
2213.00, 
2214.00, 
2215.00, 
2216.00, 
2217.00, 
2218.00, 
2219.00, 
2220.00, 
2221.00, 
2222.00, 
2223.00, 
2224.00, 
2225.00, 
2226.00, 
2227.00, 
2228.00, 
2229.00, 
2230.00, 
2231.00, 
2232.00, 
2233.00, 
2234.00, 
2235.00, 
2236.00, 
2237.00, 
2238.00, 
2239.00, 
2240.00, 
2241.00, 
2242.00, 
2243.00, 
2244.00, 
2245.00, 
2246.00, 
2247.00, 
2248.00, 
2249.00, 
2250.00, 
2251.00, 
2252.00, 
2253.00, 
2254.00, 
2255.00, 
2256.00, 
2257.00, 
2258.00, 
2259.00, 
2260.00, 
2261.00, 
2262.00, 
2263.00, 
2264.00, 
2265.00, 
2266.00, 
2267.00, 
2268.00, 
2269.00, 
2270.00, 
2271.00, 
2272.00, 
2273.00, 
2274.00, 
2275.00, 
2276.00, 
2277.00, 
2278.00, 
2279.00, 
2280.00, 
2281.00, 
2282.00, 
2283.00, 
2284.00, 
2285.00, 
2286.00, 
2287.00, 
2288.00, 
2289.00, 
2290.00, 
2291.00, 
2292.00, 
2293.00, 
2294.00, 
2295.00, 
2296.00, 
2297.00, 
2298.00, 
2299.00, 
2300.00, 
2301.00, 
2302.00, 
2303.00, 
2304.00, 
2305.00, 
2306.00, 
2307.00, 
2308.00, 
2309.00, 
2310.00, 
2311.00, 
2312.00, 
2313.00, 
2314.00, 
2315.00, 
2316.00, 
2317.00, 
2318.00, 
2319.00, 
2320.00, 
2321.00, 
2322.00, 
2323.00, 
2324.00, 
2325.00, 
2326.00, 
2327.00, 
2328.00, 
2329.00, 
2330.00, 
2331.00, 
2332.00, 
2333.00, 
2334.00, 
2335.00, 
2336.00, 
2337.00, 
2338.00, 
2339.00, 
2340.00, 
2341.00, 
2342.00, 
2343.00, 
2344.00, 
2345.00, 
2346.00, 
2347.00, 
2348.00, 
2349.00, 
2350.00, 
2351.00, 
2352.00, 
2353.00, 
2354.00, 
2355.00, 
2356.00, 
2357.00, 
2358.00, 
2359.00, 
2360.00, 
2361.00, 
2362.00, 
2363.00, 
2364.00, 
2365.00, 
2366.00, 
2367.00, 
2368.00, 
2369.00, 
2370.00, 
2371.00, 
2372.00, 
2373.00, 
2374.00, 
2375.00, 
2376.00, 
2377.00, 
2378.00, 
2379.00, 
2380.00, 
2381.00, 
2382.00, 
2383.00, 
2384.00, 
2385.00, 
2386.00, 
2387.00, 
2388.00, 
2389.00, 
2390.00, 
2391.00, 
2392.00, 
2393.00, 
2394.00, 
2395.00, 
2396.00, 
2397.00, 
2398.00, 
2399.00, 
2400.00, 
2401.00, 
2402.00, 
2403.00, 
2404.00, 
2405.00, 
2406.00, 
2407.00, 
2408.00, 
2409.00, 
2410.00, 
2411.00, 
2412.00, 
2413.00, 
2414.00, 
2415.00, 
2416.00, 
2417.00, 
2418.00, 
2419.00, 
2420.00, 
2421.00, 
2422.00, 
2423.00, 
2424.00, 
2425.00, 
2426.00, 
2427.00, 
2428.00, 
2429.00, 
2430.00, 
2431.00, 
2432.00, 
2433.00, 
2434.00, 
2435.00, 
2436.00, 
2437.00, 
2438.00, 
2439.00, 
2440.00, 
2441.00, 
2442.00, 
2443.00, 
2444.00, 
2445.00, 
2446.00, 
2447.00, 
2448.00, 
2449.00, 
2450.00, 
2451.00, 
2452.00, 
2453.00, 
2454.00, 
2455.00, 
2456.00, 
2457.00, 
2458.00, 
2459.00, 
2460.00, 
2461.00, 
2462.00, 
2463.00, 
2464.00, 
2465.00, 
2466.00, 
2467.00, 
2468.00, 
2469.00, 
2470.00, 
2471.00, 
2472.00, 
2473.00, 
2474.00, 
2475.00, 
2476.00, 
2477.00, 
2478.00, 
2479.00, 
2480.00, 
2481.00, 
2482.00, 
2483.00, 
2484.00, 
2485.00, 
2486.00, 
2487.00, 
2488.00, 
2489.00, 
2490.00, 
2491.00, 
2492.00, 
2493.00, 
2494.00, 
2495.00, 
2496.00, 
2497.00, 
2498.00, 
2499.00, 
2500.00, 
2501.00, 
2502.00, 
2503.00, 
2504.00, 
2505.00, 
2506.00, 
2507.00, 
2508.00, 
2509.00, 
2510.00, 
2511.00, 
2512.00, 
2513.00, 
2514.00, 
2515.00, 
2516.00, 
2517.00, 
2518.00, 
2519.00, 
2520.00, 
2521.00, 
2522.00, 
2523.00, 
2524.00, 
2525.00, 
2526.00, 
2527.00, 
2528.00, 
2529.00, 
2530.00, 
2531.00, 
2532.00, 
2533.00, 
2534.00, 
2535.00, 
2536.00, 
2537.00, 
2538.00, 
2539.00, 
2540.00, 
2541.00, 
2542.00, 
2543.00, 
2544.00, 
2545.00, 
2546.00, 
2547.00, 
2548.00, 
2549.00, 
2550.00, 
2551.00, 
2552.00, 
2553.00, 
2554.00, 
2555.00, 
2556.00, 
2557.00, 
2558.00, 
2559.00, 
2560.00, 
2561.00, 
2562.00, 
2563.00, 
2564.00, 
2565.00, 
2566.00, 
2567.00, 
2568.00, 
2569.00, 
2570.00, 
2571.00, 
2572.00, 
2573.00, 
2574.00, 
2575.00, 
2576.00, 
2577.00, 
2578.00, 
2579.00, 
2580.00, 
2581.00, 
2582.00, 
2583.00, 
2584.00, 
2585.00, 
2586.00, 
2587.00, 
2588.00, 
2589.00, 
2590.00, 
2591.00, 
2592.00, 
2593.00, 
2594.00, 
2595.00, 
2596.00, 
2597.00, 
2598.00, 
2599.00, 
2600.00, 
