"1cP3 - RawData"
"Wavelength nm.","T%"
200.00,-0.000
201.00,0.002
202.00,0.002
203.00,-0.001
204.00,0.000
205.00,0.002
206.00,0.001
207.00,-0.001
208.00,0.001
209.00,-0.001
210.00,0.001
211.00,0.001
212.00,0.001
213.00,0.001
214.00,-0.002
215.00,0.002
216.00,0.002
217.00,0.004
218.00,0.001
219.00,-0.001
220.00,-0.001
221.00,0.001
222.00,0.002
223.00,-0.000
224.00,-0.000
225.00,-0.000
226.00,0.000
227.00,0.001
228.00,0.001
229.00,0.002
230.00,-0.001
231.00,0.001
232.00,0.001
233.00,-0.003
234.00,-0.001
235.00,0.002
236.00,0.001
237.00,0.000
238.00,0.000
239.00,0.001
240.00,0.002
241.00,0.001
242.00,-0.000
243.00,-0.000
244.00,-0.001
245.00,0.000
246.00,0.002
247.00,0.000
248.00,0.001
249.00,0.001
250.00,-0.001
251.00,-0.000
252.00,0.000
253.00,0.001
254.00,0.001
255.00,-0.000
256.00,0.000
257.00,0.001
258.00,-0.001
259.00,-0.000
260.00,-0.001
261.00,0.002
262.00,-0.001
263.00,-0.002
264.00,-0.000
265.00,0.001
266.00,-0.000
267.00,0.001
268.00,0.001
269.00,-0.000
270.00,-0.000
271.00,-0.000
272.00,0.001
273.00,0.001
274.00,-0.001
275.00,0.000
276.00,0.002
277.00,0.000
278.00,0.002
279.00,-0.000
280.00,0.000
281.00,-0.002
282.00,0.001
283.00,0.002
284.00,0.001
285.00,0.001
286.00,0.001
287.00,0.001
288.00,0.002
289.00,0.001
290.00,-0.000
291.00,0.001
292.00,0.001
293.00,-0.000
294.00,0.000
295.00,0.000
296.00,-0.000
297.00,0.001
298.00,0.000
299.00,-0.000
300.00,-0.000
301.00,0.002
302.00,0.000
303.00,0.001
304.00,0.002
305.00,0.000
306.00,0.002
307.00,0.002
308.00,0.006
309.00,0.011
310.00,0.015
311.00,0.025
312.00,0.039
313.00,0.059
314.00,0.089
315.00,0.131
316.00,0.191
317.00,0.263
318.00,0.360
319.00,0.486
320.00,0.652
321.00,0.832
322.00,1.068
323.00,1.348
324.00,1.669
325.00,1.981
326.00,2.375
327.00,2.831
328.00,3.313
329.00,3.833
330.00,4.379
331.00,4.934
332.00,5.542
333.00,6.217
334.00,6.834
335.00,7.498
336.00,8.183
337.00,8.870
338.00,9.551
339.00,10.210
340.00,10.858
341.00,11.513
342.00,12.167
343.00,12.769
344.00,13.401
345.00,13.931
346.00,14.472
347.00,14.985
348.00,15.477
349.00,15.942
350.00,16.390
351.00,16.810
352.00,17.173
353.00,17.545
354.00,17.877
355.00,18.212
356.00,18.513
357.00,18.744
358.00,19.016
359.00,19.313
360.00,19.521
361.00,19.722
362.00,19.883
363.00,20.074
364.00,20.143
365.00,20.294
366.00,20.400
367.00,20.464
368.00,20.531
369.00,20.588
370.00,20.622
371.00,20.625
372.00,20.622
373.00,20.705
374.00,20.633
375.00,20.565
376.00,20.495
377.00,20.440
378.00,20.358
379.00,20.247
380.00,20.250
381.00,20.252
382.00,20.246
383.00,20.253
384.00,20.316
385.00,20.381
386.00,20.372
387.00,20.477
388.00,20.553
389.00,20.547
390.00,20.585
391.00,20.603
392.00,20.667
393.00,20.702
394.00,20.702
395.00,20.756
396.00,20.713
397.00,20.725
398.00,20.715
399.00,20.710
400.00,20.700
401.00,20.686
402.00,20.758
403.00,20.717
404.00,20.713
405.00,20.674
406.00,20.693
407.00,20.659
408.00,20.664
409.00,20.610
410.00,20.549
411.00,20.554
412.00,20.495
413.00,20.487
414.00,20.444
415.00,20.485
416.00,20.511
417.00,20.470
418.00,20.484
419.00,20.557
420.00,20.583
421.00,20.533
422.00,20.516
423.00,20.578
424.00,20.622
425.00,20.621
426.00,20.651
427.00,20.718
428.00,20.737
429.00,20.730
430.00,20.787
431.00,20.822
432.00,20.854
433.00,20.925
434.00,20.934
435.00,21.014
436.00,21.062
437.00,21.120
438.00,21.178
439.00,21.229
440.00,21.286
441.00,21.350
442.00,21.434
443.00,21.490
444.00,21.582
445.00,21.677
446.00,21.732
447.00,21.840
448.00,21.926
449.00,22.017
450.00,22.116
451.00,22.170
452.00,22.307
453.00,22.395
454.00,22.488
455.00,22.598
456.00,22.688
457.00,22.819
458.00,22.903
459.00,23.049
460.00,23.210
461.00,23.281
462.00,23.377
463.00,23.521
464.00,23.634
465.00,23.764
466.00,23.899
467.00,23.994
468.00,24.058
469.00,24.152
470.00,24.250
471.00,24.409
472.00,24.441
473.00,24.600
474.00,24.729
475.00,24.838
476.00,24.949
477.00,25.087
478.00,25.220
479.00,25.396
480.00,25.507
481.00,25.636
482.00,25.797
483.00,25.935
484.00,26.091
485.00,26.229
486.00,26.386
487.00,26.506
488.00,26.619
489.00,26.799
490.00,26.885
491.00,27.069
492.00,27.136
493.00,27.411
494.00,27.538
495.00,27.611
496.00,27.670
497.00,27.751
498.00,27.937
499.00,28.088
500.00,28.242
501.00,28.307
502.00,28.460
503.00,28.581
504.00,28.595
505.00,28.815
506.00,28.950
507.00,28.996
508.00,29.156
509.00,29.311
510.00,29.424
511.00,29.454
512.00,29.670
513.00,29.809
514.00,29.886
515.00,30.117
516.00,30.135
517.00,30.209
518.00,30.435
519.00,30.485
520.00,30.544
521.00,30.738
522.00,30.838
523.00,30.902
524.00,31.041
525.00,31.102
526.00,31.245
527.00,31.333
528.00,31.406
529.00,31.586
530.00,31.724
531.00,31.820
532.00,31.836
533.00,31.978
534.00,32.063
535.00,32.177
536.00,32.249
537.00,32.338
538.00,32.399
539.00,32.441
540.00,32.563
541.00,32.600
542.00,32.669
543.00,32.708
544.00,32.739
545.00,32.836
546.00,32.921
547.00,33.073
548.00,33.200
549.00,33.295
550.00,33.343
551.00,33.431
552.00,33.487
553.00,33.523
554.00,33.647
555.00,33.691
556.00,33.795
557.00,33.809
558.00,33.909
559.00,33.974
560.00,34.006
561.00,34.063
562.00,34.230
563.00,34.190
564.00,34.327
565.00,34.335
566.00,34.400
567.00,34.451
568.00,34.484
569.00,34.533
570.00,34.613
571.00,34.673
572.00,34.671
573.00,34.647
574.00,34.719
575.00,34.727
576.00,34.705
577.00,34.887
578.00,34.976
579.00,35.035
580.00,35.046
581.00,35.231
582.00,35.302
583.00,35.324
584.00,35.428
585.00,35.493
586.00,35.480
587.00,35.587
588.00,35.673
589.00,35.588
590.00,35.689
591.00,35.760
592.00,35.696
593.00,35.786
594.00,35.863
595.00,35.924
596.00,36.006
597.00,36.068
598.00,36.172
599.00,36.152
600.00,36.197
601.00,36.211
602.00,36.226
603.00,36.366
604.00,36.350
605.00,36.420
606.00,36.517
607.00,36.539
608.00,36.597
609.00,36.682
610.00,36.854
611.00,36.653
612.00,36.734
613.00,36.779
614.00,36.844
615.00,36.876
616.00,37.035
617.00,36.972
618.00,36.979
619.00,37.106
620.00,37.147
621.00,37.198
622.00,37.299
623.00,37.382
624.00,37.426
625.00,37.496
626.00,37.535
627.00,37.632
628.00,37.624
629.00,37.708
630.00,37.801
631.00,37.806
632.00,37.859
633.00,38.035
634.00,38.100
635.00,38.183
636.00,38.223
637.00,38.279
638.00,38.386
639.00,38.499
640.00,38.532
641.00,38.542
642.00,38.680
643.00,38.702
644.00,38.793
645.00,38.841
646.00,39.040
647.00,39.090
648.00,39.096
649.00,39.181
650.00,39.242
651.00,39.380
652.00,39.469
653.00,39.508
654.00,39.505
655.00,39.738
656.00,39.964
657.00,39.893
658.00,39.925
659.00,40.103
660.00,40.129
661.00,40.146
662.00,40.216
663.00,40.368
664.00,40.603
665.00,40.767
666.00,40.662
667.00,40.773
668.00,40.760
669.00,40.996
670.00,41.202
671.00,41.104
672.00,41.257
673.00,41.361
674.00,41.405
675.00,41.531
676.00,41.695
677.00,41.839
678.00,41.624
679.00,41.840
680.00,42.029
681.00,42.177
682.00,42.161
683.00,42.138
684.00,42.290
685.00,42.390
686.00,42.392
687.00,42.570
688.00,42.588
689.00,42.597
690.00,42.896
691.00,43.100
692.00,42.920
693.00,42.977
694.00,43.111
695.00,43.291
696.00,43.272
697.00,43.177
698.00,43.305
699.00,43.600
700.00,43.661
701.00,43.680
702.00,43.872
703.00,43.986
704.00,44.146
705.00,43.994
706.00,44.078
707.00,44.195
708.00,44.126
709.00,44.576
710.00,44.841
711.00,44.283
712.00,44.356
713.00,44.468
714.00,44.839
715.00,44.992
716.00,44.731
717.00,45.022
718.00,45.001
719.00,44.980
720.00,45.082
721.00,49.685
722.00,49.762
723.00,49.790
724.00,49.836
725.00,49.842
726.00,49.957
727.00,50.013
728.00,49.937
729.00,50.020
730.00,49.983
731.00,50.030
732.00,50.036
733.00,50.102
734.00,50.135
735.00,50.134
736.00,50.261
737.00,50.272
738.00,50.347
739.00,50.273
740.00,50.382
741.00,50.379
742.00,50.463
743.00,50.436
744.00,50.386
745.00,50.514
746.00,50.578
747.00,50.423
748.00,50.461
749.00,50.475
750.00,50.540
751.00,50.485
752.00,50.552
753.00,50.514
754.00,50.495
755.00,50.558
756.00,50.544
757.00,50.592
758.00,50.588
759.00,50.533
760.00,50.632
761.00,50.610
762.00,50.632
763.00,50.665
764.00,50.696
765.00,50.648
766.00,50.707
767.00,50.711
768.00,50.707
769.00,50.687
770.00,50.798
771.00,50.695
772.00,50.846
773.00,50.803
774.00,50.792
775.00,50.788
776.00,50.852
777.00,50.773
778.00,50.807
779.00,50.833
780.00,50.796
781.00,50.888
782.00,50.872
783.00,50.923
784.00,50.874
785.00,50.730
786.00,50.812
787.00,50.828
788.00,50.783
789.00,50.742
790.00,50.803
791.00,50.878
792.00,50.744
793.00,50.781
794.00,50.704
795.00,50.735
796.00,50.800
797.00,50.712
798.00,50.775
799.00,50.665
800.00,50.681
801.00,50.667
802.00,50.700
803.00,50.645
804.00,50.604
805.00,50.616
806.00,50.642
807.00,50.591
808.00,50.568
809.00,50.663
810.00,50.575
811.00,50.593
812.00,50.708
813.00,50.490
814.00,50.550
815.00,50.479
816.00,50.514
817.00,50.438
818.00,50.407
819.00,50.486
820.00,50.457
821.00,50.403
822.00,50.444
823.00,50.302
824.00,50.497
825.00,50.443
826.00,50.442
827.00,50.407
828.00,50.419
829.00,50.354
830.00,50.309
831.00,52.727
832.00,52.756
833.00,52.711
834.00,52.707
835.00,52.686
836.00,52.654
837.00,52.609
838.00,52.606
839.00,52.606
840.00,52.546
841.00,52.567
842.00,52.546
843.00,52.541
844.00,52.525
845.00,52.495
846.00,52.510
847.00,52.464
848.00,52.500
849.00,52.321
850.00,52.443
851.00,52.331
852.00,52.345
853.00,52.283
854.00,52.289
855.00,52.252
856.00,52.243
857.00,52.199
858.00,52.149
859.00,52.145
860.00,52.160
861.00,52.135
862.00,52.135
863.00,52.117
864.00,51.983
865.00,52.106
866.00,52.078
867.00,52.044
868.00,52.032
869.00,52.041
870.00,52.027
871.00,52.019
872.00,52.019
873.00,52.001
874.00,51.977
875.00,51.954
876.00,51.948
877.00,51.919
878.00,51.889
879.00,51.917
880.00,51.880
881.00,51.883
882.00,51.905
883.00,51.873
884.00,51.823
885.00,51.812
886.00,51.805
887.00,51.777
888.00,51.739
889.00,51.730
890.00,51.694
891.00,51.704
892.00,51.678
893.00,51.654
894.00,51.628
895.00,51.675
896.00,51.609
897.00,51.602
898.00,51.589
899.00,51.577
900.00,51.566
901.00,51.555
902.00,51.527
903.00,51.500
904.00,51.458
905.00,51.476
906.00,51.463
907.00,51.422
908.00,51.318
909.00,51.451
910.00,51.361
911.00,51.333
912.00,51.345
913.00,51.288
914.00,51.291
915.00,51.290
916.00,51.248
917.00,51.251
918.00,51.261
919.00,51.289
920.00,51.177
921.00,51.181
922.00,51.172
923.00,51.104
924.00,51.092
925.00,51.085
926.00,51.065
927.00,51.019
928.00,51.004
929.00,51.015
930.00,50.998
931.00,50.950
932.00,50.914
933.00,50.930
934.00,50.928
935.00,50.890
936.00,50.856
937.00,50.824
938.00,50.850
939.00,50.827
940.00,50.809
941.00,50.805
942.00,50.774
943.00,50.749
944.00,50.735
945.00,50.725
946.00,50.721
947.00,50.681
948.00,50.655
949.00,50.644
950.00,50.614
951.00,50.606
952.00,50.582
953.00,50.547
954.00,50.525
955.00,50.499
956.00,50.462
957.00,50.463
958.00,50.451
959.00,50.420
960.00,50.405
961.00,50.396
962.00,50.384
963.00,50.355
964.00,50.343
965.00,50.340
966.00,50.337
967.00,50.311
968.00,50.299
969.00,50.311
970.00,50.292
971.00,50.303
972.00,50.231
973.00,50.310
974.00,50.325
975.00,50.289
976.00,50.309
977.00,50.307
978.00,50.326
979.00,50.292
980.00,50.298
981.00,50.294
982.00,50.266
983.00,50.283
984.00,50.260
985.00,50.271
986.00,50.235
987.00,50.259
988.00,50.223
989.00,50.211
990.00,50.207
991.00,50.196
992.00,50.190
993.00,50.158
994.00,50.155
995.00,50.139
996.00,50.159
997.00,50.116
998.00,50.108
999.00,50.118
1000.00,50.058
1001.00,50.064
1002.00,50.070
1003.00,50.070
1004.00,50.015
1005.00,50.000
1006.00,50.034
1007.00,50.014
1008.00,49.979
1009.00,49.961
1010.00,49.967
1011.00,49.961
1012.00,49.930
1013.00,49.930
1014.00,49.902
1015.00,49.916
1016.00,49.874
1017.00,49.880
1018.00,49.870
1019.00,49.821
1020.00,49.824
1021.00,49.811
1022.00,49.783
1023.00,49.754
1024.00,49.768
1025.00,49.733
1026.00,49.720
1027.00,49.724
1028.00,49.693
1029.00,49.666
1030.00,49.643
1031.00,49.652
1032.00,49.616
1033.00,49.606
1034.00,49.571
1035.00,49.545
1036.00,49.525
1037.00,49.516
1038.00,49.490
1039.00,49.473
1040.00,49.478
1041.00,49.434
1042.00,49.442
1043.00,49.423
1044.00,49.445
1045.00,49.427
1046.00,49.410
1047.00,49.416
1048.00,49.438
1049.00,49.436
1050.00,49.448
1051.00,49.487
1052.00,49.488
1053.00,49.495
1054.00,49.497
1055.00,49.502
1056.00,49.518
1057.00,49.505
1058.00,49.497
1059.00,49.513
1060.00,49.517
1061.00,49.499
1062.00,49.490
1063.00,49.503
1064.00,49.495
1065.00,49.483
1066.00,49.449
1067.00,49.465
1068.00,49.484
1069.00,49.450
1070.00,49.429
1071.00,49.427
1072.00,49.438
1073.00,49.429
1074.00,49.409
1075.00,49.404
1076.00,49.410
1077.00,49.371
1078.00,49.390
1079.00,49.395
1080.00,49.362
1081.00,49.356
1082.00,49.356
1083.00,49.337
1084.00,49.345
1085.00,49.340
1086.00,49.334
1087.00,49.343
1088.00,49.306
1089.00,49.303
1090.00,49.294
1091.00,49.291
1092.00,49.298
1093.00,49.259
1094.00,49.239
1095.00,49.237
1096.00,49.225
1097.00,49.226
1098.00,49.221
1099.00,49.197
1100.00,49.217
1101.00,49.210
1102.00,49.185
1103.00,49.187
1104.00,49.168
1105.00,49.152
1106.00,49.150
1107.00,49.127
1108.00,49.126
1109.00,49.120
1110.00,49.110
1111.00,49.122
1112.00,49.119
1113.00,49.101
1114.00,49.101
1115.00,49.099
1116.00,49.096
1117.00,49.089
1118.00,49.052
1119.00,49.053
1120.00,49.052
1121.00,49.028
1122.00,49.028
1123.00,49.023
1124.00,49.017
1125.00,49.022
1126.00,49.005
1127.00,49.011
1128.00,49.018
1129.00,48.988
1130.00,48.988
1131.00,48.983
1132.00,48.958
1133.00,48.960
1134.00,48.957
1135.00,48.932
1136.00,48.935
1137.00,48.940
1138.00,48.930
1139.00,48.960
1140.00,48.963
1141.00,48.938
1142.00,48.936
1143.00,48.936
1144.00,48.925
1145.00,48.909
1146.00,48.902
1147.00,48.912
1148.00,48.902
1149.00,48.905
1150.00,48.914
1151.00,48.900
1152.00,48.894
1153.00,48.890
1154.00,48.870
1155.00,48.878
1156.00,48.877
1157.00,48.887
1158.00,48.895
1159.00,48.883
1160.00,48.882
1161.00,48.898
1162.00,48.869
1163.00,48.873
1164.00,48.883
1165.00,48.866
1166.00,48.869
1167.00,48.864
1168.00,48.861
1169.00,48.853
1170.00,48.864
1171.00,48.839
1172.00,48.854
1173.00,48.843
1174.00,48.858
1175.00,48.855
1176.00,48.843
1177.00,48.829
1178.00,48.832
1179.00,48.830
1180.00,48.826
1181.00,48.837
1182.00,48.828
1183.00,48.848
1184.00,48.818
1185.00,48.839
1186.00,48.824
1187.00,48.823
1188.00,48.830
1189.00,48.834
1190.00,48.828
1191.00,48.842
1192.00,48.849
1193.00,48.846
1194.00,48.852
1195.00,48.819
1196.00,48.857
1197.00,48.860
1198.00,48.828
1199.00,48.830
1200.00,48.847
1201.00,48.867
1202.00,48.854
1203.00,48.840
1204.00,48.824
1205.00,48.863
1206.00,48.843
1207.00,48.849
1208.00,48.840
1209.00,48.834
1210.00,48.833
1211.00,48.827
1212.00,48.840
1213.00,48.805
1214.00,48.831
1215.00,48.811
1216.00,48.832
1217.00,48.820
1218.00,48.813
1219.00,48.837
1220.00,48.814
1221.00,48.853
1222.00,48.834
1223.00,48.843
1224.00,48.853
1225.00,48.830
1226.00,48.835
1227.00,48.847
1228.00,48.854
1229.00,48.861
1230.00,48.894
1231.00,48.872
1232.00,48.894
1233.00,48.890
1234.00,48.884
1235.00,48.882
1236.00,48.875
1237.00,48.883
1238.00,48.893
1239.00,48.890
1240.00,48.889
1241.00,48.891
1242.00,48.880
1243.00,48.912
1244.00,48.900
1245.00,48.914
1246.00,48.919
1247.00,48.925
1248.00,48.907
1249.00,48.945
1250.00,48.949
1251.00,48.936
1252.00,48.943
1253.00,48.906
1254.00,48.957
1255.00,48.938
1256.00,48.908
1257.00,48.936
1258.00,48.977
1259.00,48.994
1260.00,49.006
1261.00,48.994
1262.00,49.029
1263.00,49.006
1264.00,48.991
1265.00,49.000
1266.00,48.994
1267.00,48.992
1268.00,49.002
1269.00,49.003
1270.00,49.035
1271.00,49.049
1272.00,49.037
1273.00,49.055
1274.00,49.058
1275.00,49.049
1276.00,49.060
1277.00,49.062
1278.00,49.067
1279.00,49.075
1280.00,49.055
1281.00,49.078
1282.00,49.107
1283.00,49.074
1284.00,49.101
1285.00,49.088
1286.00,49.104
1287.00,49.114
1288.00,49.114
1289.00,49.105
1290.00,49.140
1291.00,49.126
1292.00,49.127
1293.00,49.136
1294.00,49.154
1295.00,49.168
1296.00,49.173
1297.00,49.172
1298.00,49.203
1299.00,49.183
1300.00,49.201
1301.00,49.197
1302.00,49.208
1303.00,49.213
1304.00,49.205
1305.00,49.222
1306.00,49.240
1307.00,49.252
1308.00,49.228
1309.00,49.256
1310.00,49.251
1311.00,49.230
1312.00,49.253
1313.00,49.269
1314.00,49.293
1315.00,49.304
1316.00,49.302
1317.00,49.334
1318.00,49.311
1319.00,49.302
1320.00,49.330
1321.00,49.182
1322.00,49.174
1323.00,49.169
1324.00,49.163
1325.00,49.148
1326.00,49.190
1327.00,49.158
1328.00,49.191
1329.00,49.193
1330.00,49.204
1331.00,49.203
1332.00,49.217
1333.00,49.213
1334.00,49.255
1335.00,49.257
1336.00,49.291
1337.00,49.317
1338.00,49.372
1339.00,49.402
1340.00,49.467
1341.00,49.528
1342.00,49.598
1343.00,49.638
1344.00,49.692
1345.00,49.767
1346.00,49.771
1347.00,49.794
1348.00,49.836
1349.00,49.847
1350.00,49.861
1351.00,49.887
1352.00,49.874
1353.00,49.877
1354.00,49.882
1355.00,49.883
1356.00,49.911
1357.00,49.895
1358.00,49.950
1359.00,49.934
1360.00,49.948
1361.00,49.939
1362.00,49.935
1363.00,49.978
1364.00,49.980
1365.00,49.986
1366.00,50.107
1367.00,50.104
1368.00,49.995
1369.00,49.985
1370.00,49.965
1371.00,49.970
1372.00,49.978
1373.00,49.990
1374.00,49.997
1375.00,49.967
1376.00,49.980
1377.00,49.961
1378.00,50.028
1379.00,49.944
1380.00,49.997
1381.00,49.979
1382.00,50.016
1383.00,49.984
1384.00,49.961
1385.00,49.987
1386.00,49.960
1387.00,49.908
1388.00,49.928
1389.00,49.930
1390.00,50.004
1391.00,49.931
1392.00,49.972
1393.00,49.977
1394.00,50.013
1395.00,49.929
1396.00,49.932
1397.00,49.984
1398.00,49.987
1399.00,49.968
1400.00,49.911
1401.00,49.937
1402.00,49.968
1403.00,49.932
1404.00,50.007
1405.00,50.006
1406.00,50.045
1407.00,50.014
1408.00,50.010
1409.00,50.027
1410.00,50.054
1411.00,50.067
1412.00,50.154
1413.00,50.058
1414.00,50.074
1415.00,50.092
1416.00,50.113
1417.00,50.154
1418.00,50.130
1419.00,50.137
1420.00,50.155
1421.00,50.200
1422.00,50.203
1423.00,50.216
1424.00,50.244
1425.00,50.280
1426.00,50.247
1427.00,50.286
1428.00,50.282
1429.00,50.279
1430.00,50.296
1431.00,50.321
1432.00,50.308
1433.00,50.334
1434.00,50.334
1435.00,50.399
1436.00,50.414
1437.00,50.396
1438.00,50.422
1439.00,50.457
1440.00,50.454
1441.00,50.474
1442.00,50.473
1443.00,50.497
1444.00,50.558
1445.00,50.525
1446.00,50.539
1447.00,50.569
1448.00,50.577
1449.00,50.590
1450.00,50.613
1451.00,50.626
1452.00,50.663
1453.00,50.662
1454.00,50.677
1455.00,50.717
1456.00,50.709
1457.00,50.736
1458.00,50.778
1459.00,50.772
1460.00,50.802
1461.00,50.808
1462.00,50.839
1463.00,50.839
1464.00,50.841
1465.00,50.854
1466.00,50.874
1467.00,50.887
1468.00,50.927
1469.00,50.924
1470.00,50.927
1471.00,50.940
1472.00,50.969
1473.00,50.980
1474.00,51.003
1475.00,51.029
1476.00,51.038
1477.00,51.036
1478.00,51.058
1479.00,51.071
1480.00,51.090
1481.00,51.093
1482.00,51.143
1483.00,51.154
1484.00,51.150
1485.00,51.162
1486.00,51.174
1487.00,51.213
1488.00,51.254
1489.00,51.235
1490.00,51.265
1491.00,51.293
1492.00,51.298
1493.00,51.283
1494.00,51.335
1495.00,51.328
1496.00,51.335
1497.00,51.322
1498.00,51.344
1499.00,51.384
1500.00,51.382
1501.00, 
1502.00, 
1503.00, 
1504.00, 
1505.00, 
1506.00, 
1507.00, 
1508.00, 
1509.00, 
1510.00, 
1511.00, 
1512.00, 
1513.00, 
1514.00, 
1515.00, 
1516.00, 
1517.00, 
1518.00, 
1519.00, 
1520.00, 
1521.00, 
1522.00, 
1523.00, 
1524.00, 
1525.00, 
1526.00, 
1527.00, 
1528.00, 
1529.00, 
1530.00, 
1531.00, 
1532.00, 
1533.00, 
1534.00, 
1535.00, 
1536.00, 
1537.00, 
1538.00, 
1539.00, 
1540.00, 
1541.00, 
1542.00, 
1543.00, 
1544.00, 
1545.00, 
1546.00, 
1547.00, 
1548.00, 
1549.00, 
1550.00, 
1551.00, 
1552.00, 
1553.00, 
1554.00, 
1555.00, 
1556.00, 
1557.00, 
1558.00, 
1559.00, 
1560.00, 
1561.00, 
1562.00, 
1563.00, 
1564.00, 
1565.00, 
1566.00, 
1567.00, 
1568.00, 
1569.00, 
1570.00, 
1571.00, 
1572.00, 
1573.00, 
1574.00, 
1575.00, 
1576.00, 
1577.00, 
1578.00, 
1579.00, 
1580.00, 
1581.00, 
1582.00, 
1583.00, 
1584.00, 
1585.00, 
1586.00, 
1587.00, 
1588.00, 
1589.00, 
1590.00, 
1591.00, 
1592.00, 
1593.00, 
1594.00, 
1595.00, 
1596.00, 
1597.00, 
1598.00, 
1599.00, 
1600.00, 
1601.00, 
1602.00, 
1603.00, 
1604.00, 
1605.00, 
1606.00, 
1607.00, 
1608.00, 
1609.00, 
1610.00, 
1611.00, 
1612.00, 
1613.00, 
1614.00, 
1615.00, 
1616.00, 
1617.00, 
1618.00, 
1619.00, 
1620.00, 
1621.00, 
1622.00, 
1623.00, 
1624.00, 
1625.00, 
1626.00, 
1627.00, 
1628.00, 
1629.00, 
1630.00, 
1631.00, 
1632.00, 
1633.00, 
1634.00, 
1635.00, 
1636.00, 
1637.00, 
1638.00, 
1639.00, 
1640.00, 
1641.00, 
1642.00, 
1643.00, 
1644.00, 
1645.00, 
1646.00, 
1647.00, 
1648.00, 
1649.00, 
1650.00, 
1651.00, 
1652.00, 
1653.00, 
1654.00, 
1655.00, 
1656.00, 
1657.00, 
1658.00, 
1659.00, 
1660.00, 
1661.00, 
1662.00, 
1663.00, 
1664.00, 
1665.00, 
1666.00, 
1667.00, 
1668.00, 
1669.00, 
1670.00, 
1671.00, 
1672.00, 
1673.00, 
1674.00, 
1675.00, 
1676.00, 
1677.00, 
1678.00, 
1679.00, 
1680.00, 
1681.00, 
1682.00, 
1683.00, 
1684.00, 
1685.00, 
1686.00, 
1687.00, 
1688.00, 
1689.00, 
1690.00, 
1691.00, 
1692.00, 
1693.00, 
1694.00, 
1695.00, 
1696.00, 
1697.00, 
1698.00, 
1699.00, 
1700.00, 
1701.00, 
1702.00, 
1703.00, 
1704.00, 
1705.00, 
1706.00, 
1707.00, 
1708.00, 
1709.00, 
1710.00, 
1711.00, 
1712.00, 
1713.00, 
1714.00, 
1715.00, 
1716.00, 
1717.00, 
1718.00, 
1719.00, 
1720.00, 
1721.00, 
1722.00, 
1723.00, 
1724.00, 
1725.00, 
1726.00, 
1727.00, 
1728.00, 
1729.00, 
1730.00, 
1731.00, 
1732.00, 
1733.00, 
1734.00, 
1735.00, 
1736.00, 
1737.00, 
1738.00, 
1739.00, 
1740.00, 
1741.00, 
1742.00, 
1743.00, 
1744.00, 
1745.00, 
1746.00, 
1747.00, 
1748.00, 
1749.00, 
1750.00, 
1751.00, 
1752.00, 
1753.00, 
1754.00, 
1755.00, 
1756.00, 
1757.00, 
1758.00, 
1759.00, 
1760.00, 
1761.00, 
1762.00, 
1763.00, 
1764.00, 
1765.00, 
1766.00, 
1767.00, 
1768.00, 
1769.00, 
1770.00, 
1771.00, 
1772.00, 
1773.00, 
1774.00, 
1775.00, 
1776.00, 
1777.00, 
1778.00, 
1779.00, 
1780.00, 
1781.00, 
1782.00, 
1783.00, 
1784.00, 
1785.00, 
1786.00, 
1787.00, 
1788.00, 
1789.00, 
1790.00, 
1791.00, 
1792.00, 
1793.00, 
1794.00, 
1795.00, 
1796.00, 
1797.00, 
1798.00, 
1799.00, 
1800.00, 
1801.00, 
1802.00, 
1803.00, 
1804.00, 
1805.00, 
1806.00, 
1807.00, 
1808.00, 
1809.00, 
1810.00, 
1811.00, 
1812.00, 
1813.00, 
1814.00, 
1815.00, 
1816.00, 
1817.00, 
1818.00, 
1819.00, 
1820.00, 
1821.00, 
1822.00, 
1823.00, 
1824.00, 
1825.00, 
1826.00, 
1827.00, 
1828.00, 
1829.00, 
1830.00, 
1831.00, 
1832.00, 
1833.00, 
1834.00, 
1835.00, 
1836.00, 
1837.00, 
1838.00, 
1839.00, 
1840.00, 
1841.00, 
1842.00, 
1843.00, 
1844.00, 
1845.00, 
1846.00, 
1847.00, 
1848.00, 
1849.00, 
1850.00, 
1851.00, 
1852.00, 
1853.00, 
1854.00, 
1855.00, 
1856.00, 
1857.00, 
1858.00, 
1859.00, 
1860.00, 
1861.00, 
1862.00, 
1863.00, 
1864.00, 
1865.00, 
1866.00, 
1867.00, 
1868.00, 
1869.00, 
1870.00, 
1871.00, 
1872.00, 
1873.00, 
1874.00, 
1875.00, 
1876.00, 
1877.00, 
1878.00, 
1879.00, 
1880.00, 
1881.00, 
1882.00, 
1883.00, 
1884.00, 
1885.00, 
1886.00, 
1887.00, 
1888.00, 
1889.00, 
1890.00, 
1891.00, 
1892.00, 
1893.00, 
1894.00, 
1895.00, 
1896.00, 
1897.00, 
1898.00, 
1899.00, 
1900.00, 
1901.00, 
1902.00, 
1903.00, 
1904.00, 
1905.00, 
1906.00, 
1907.00, 
1908.00, 
1909.00, 
1910.00, 
1911.00, 
1912.00, 
1913.00, 
1914.00, 
1915.00, 
1916.00, 
1917.00, 
1918.00, 
1919.00, 
1920.00, 
1921.00, 
1922.00, 
1923.00, 
1924.00, 
1925.00, 
1926.00, 
1927.00, 
1928.00, 
1929.00, 
1930.00, 
1931.00, 
1932.00, 
1933.00, 
1934.00, 
1935.00, 
1936.00, 
1937.00, 
1938.00, 
1939.00, 
1940.00, 
1941.00, 
1942.00, 
1943.00, 
1944.00, 
1945.00, 
1946.00, 
1947.00, 
1948.00, 
1949.00, 
1950.00, 
1951.00, 
1952.00, 
1953.00, 
1954.00, 
1955.00, 
1956.00, 
1957.00, 
1958.00, 
1959.00, 
1960.00, 
1961.00, 
1962.00, 
1963.00, 
1964.00, 
1965.00, 
1966.00, 
1967.00, 
1968.00, 
1969.00, 
1970.00, 
1971.00, 
1972.00, 
1973.00, 
1974.00, 
1975.00, 
1976.00, 
1977.00, 
1978.00, 
1979.00, 
1980.00, 
1981.00, 
1982.00, 
1983.00, 
1984.00, 
1985.00, 
1986.00, 
1987.00, 
1988.00, 
1989.00, 
1990.00, 
1991.00, 
1992.00, 
1993.00, 
1994.00, 
1995.00, 
1996.00, 
1997.00, 
1998.00, 
1999.00, 
2000.00, 
2001.00, 
2002.00, 
2003.00, 
2004.00, 
2005.00, 
2006.00, 
2007.00, 
2008.00, 
2009.00, 
2010.00, 
2011.00, 
2012.00, 
2013.00, 
2014.00, 
2015.00, 
2016.00, 
2017.00, 
2018.00, 
2019.00, 
2020.00, 
2021.00, 
2022.00, 
2023.00, 
2024.00, 
2025.00, 
2026.00, 
2027.00, 
2028.00, 
2029.00, 
2030.00, 
2031.00, 
2032.00, 
2033.00, 
2034.00, 
2035.00, 
2036.00, 
2037.00, 
2038.00, 
2039.00, 
2040.00, 
2041.00, 
2042.00, 
2043.00, 
2044.00, 
2045.00, 
2046.00, 
2047.00, 
2048.00, 
2049.00, 
2050.00, 
2051.00, 
2052.00, 
2053.00, 
2054.00, 
2055.00, 
2056.00, 
2057.00, 
2058.00, 
2059.00, 
2060.00, 
2061.00, 
2062.00, 
2063.00, 
2064.00, 
2065.00, 
2066.00, 
2067.00, 
2068.00, 
2069.00, 
2070.00, 
2071.00, 
2072.00, 
2073.00, 
2074.00, 
2075.00, 
2076.00, 
2077.00, 
2078.00, 
2079.00, 
2080.00, 
2081.00, 
2082.00, 
2083.00, 
2084.00, 
2085.00, 
2086.00, 
2087.00, 
2088.00, 
2089.00, 
2090.00, 
2091.00, 
2092.00, 
2093.00, 
2094.00, 
2095.00, 
2096.00, 
2097.00, 
2098.00, 
2099.00, 
2100.00, 
2101.00, 
2102.00, 
2103.00, 
2104.00, 
2105.00, 
2106.00, 
2107.00, 
2108.00, 
2109.00, 
2110.00, 
2111.00, 
2112.00, 
2113.00, 
2114.00, 
2115.00, 
2116.00, 
2117.00, 
2118.00, 
2119.00, 
2120.00, 
2121.00, 
2122.00, 
2123.00, 
2124.00, 
2125.00, 
2126.00, 
2127.00, 
2128.00, 
2129.00, 
2130.00, 
2131.00, 
2132.00, 
2133.00, 
2134.00, 
2135.00, 
2136.00, 
2137.00, 
2138.00, 
2139.00, 
2140.00, 
2141.00, 
2142.00, 
2143.00, 
2144.00, 
2145.00, 
2146.00, 
2147.00, 
2148.00, 
2149.00, 
2150.00, 
2151.00, 
2152.00, 
2153.00, 
2154.00, 
2155.00, 
2156.00, 
2157.00, 
2158.00, 
2159.00, 
2160.00, 
2161.00, 
2162.00, 
2163.00, 
2164.00, 
2165.00, 
2166.00, 
2167.00, 
2168.00, 
2169.00, 
2170.00, 
2171.00, 
2172.00, 
2173.00, 
2174.00, 
2175.00, 
2176.00, 
2177.00, 
2178.00, 
2179.00, 
2180.00, 
2181.00, 
2182.00, 
2183.00, 
2184.00, 
2185.00, 
2186.00, 
2187.00, 
2188.00, 
2189.00, 
2190.00, 
2191.00, 
2192.00, 
2193.00, 
2194.00, 
2195.00, 
2196.00, 
2197.00, 
2198.00, 
2199.00, 
2200.00, 
2201.00, 
2202.00, 
2203.00, 
2204.00, 
2205.00, 
2206.00, 
2207.00, 
2208.00, 
2209.00, 
2210.00, 
2211.00, 
2212.00, 
2213.00, 
2214.00, 
2215.00, 
2216.00, 
2217.00, 
2218.00, 
2219.00, 
2220.00, 
2221.00, 
2222.00, 
2223.00, 
2224.00, 
2225.00, 
2226.00, 
2227.00, 
2228.00, 
2229.00, 
2230.00, 
2231.00, 
2232.00, 
2233.00, 
2234.00, 
2235.00, 
2236.00, 
2237.00, 
2238.00, 
2239.00, 
2240.00, 
2241.00, 
2242.00, 
2243.00, 
2244.00, 
2245.00, 
2246.00, 
2247.00, 
2248.00, 
2249.00, 
2250.00, 
2251.00, 
2252.00, 
2253.00, 
2254.00, 
2255.00, 
2256.00, 
2257.00, 
2258.00, 
2259.00, 
2260.00, 
2261.00, 
2262.00, 
2263.00, 
2264.00, 
2265.00, 
2266.00, 
2267.00, 
2268.00, 
2269.00, 
2270.00, 
2271.00, 
2272.00, 
2273.00, 
2274.00, 
2275.00, 
2276.00, 
2277.00, 
2278.00, 
2279.00, 
2280.00, 
2281.00, 
2282.00, 
2283.00, 
2284.00, 
2285.00, 
2286.00, 
2287.00, 
2288.00, 
2289.00, 
2290.00, 
2291.00, 
2292.00, 
2293.00, 
2294.00, 
2295.00, 
2296.00, 
2297.00, 
2298.00, 
2299.00, 
2300.00, 
2301.00, 
2302.00, 
2303.00, 
2304.00, 
2305.00, 
2306.00, 
2307.00, 
2308.00, 
2309.00, 
2310.00, 
2311.00, 
2312.00, 
2313.00, 
2314.00, 
2315.00, 
2316.00, 
2317.00, 
2318.00, 
2319.00, 
2320.00, 
2321.00, 
2322.00, 
2323.00, 
2324.00, 
2325.00, 
2326.00, 
2327.00, 
2328.00, 
2329.00, 
2330.00, 
2331.00, 
2332.00, 
2333.00, 
2334.00, 
2335.00, 
2336.00, 
2337.00, 
2338.00, 
2339.00, 
2340.00, 
2341.00, 
2342.00, 
2343.00, 
2344.00, 
2345.00, 
2346.00, 
2347.00, 
2348.00, 
2349.00, 
2350.00, 
2351.00, 
2352.00, 
2353.00, 
2354.00, 
2355.00, 
2356.00, 
2357.00, 
2358.00, 
2359.00, 
2360.00, 
2361.00, 
2362.00, 
2363.00, 
2364.00, 
2365.00, 
2366.00, 
2367.00, 
2368.00, 
2369.00, 
2370.00, 
2371.00, 
2372.00, 
2373.00, 
2374.00, 
2375.00, 
2376.00, 
2377.00, 
2378.00, 
2379.00, 
2380.00, 
2381.00, 
2382.00, 
2383.00, 
2384.00, 
2385.00, 
2386.00, 
2387.00, 
2388.00, 
2389.00, 
2390.00, 
2391.00, 
2392.00, 
2393.00, 
2394.00, 
2395.00, 
2396.00, 
2397.00, 
2398.00, 
2399.00, 
2400.00, 
2401.00, 
2402.00, 
2403.00, 
2404.00, 
2405.00, 
2406.00, 
2407.00, 
2408.00, 
2409.00, 
2410.00, 
2411.00, 
2412.00, 
2413.00, 
2414.00, 
2415.00, 
2416.00, 
2417.00, 
2418.00, 
2419.00, 
2420.00, 
2421.00, 
2422.00, 
2423.00, 
2424.00, 
2425.00, 
2426.00, 
2427.00, 
2428.00, 
2429.00, 
2430.00, 
2431.00, 
2432.00, 
2433.00, 
2434.00, 
2435.00, 
2436.00, 
2437.00, 
2438.00, 
2439.00, 
2440.00, 
2441.00, 
2442.00, 
2443.00, 
2444.00, 
2445.00, 
2446.00, 
2447.00, 
2448.00, 
2449.00, 
2450.00, 
2451.00, 
2452.00, 
2453.00, 
2454.00, 
2455.00, 
2456.00, 
2457.00, 
2458.00, 
2459.00, 
2460.00, 
2461.00, 
2462.00, 
2463.00, 
2464.00, 
2465.00, 
2466.00, 
2467.00, 
2468.00, 
2469.00, 
2470.00, 
2471.00, 
2472.00, 
2473.00, 
2474.00, 
2475.00, 
2476.00, 
2477.00, 
2478.00, 
2479.00, 
2480.00, 
2481.00, 
2482.00, 
2483.00, 
2484.00, 
2485.00, 
2486.00, 
2487.00, 
2488.00, 
2489.00, 
2490.00, 
2491.00, 
2492.00, 
2493.00, 
2494.00, 
2495.00, 
2496.00, 
2497.00, 
2498.00, 
2499.00, 
2500.00, 
2501.00, 
2502.00, 
2503.00, 
2504.00, 
2505.00, 
2506.00, 
2507.00, 
2508.00, 
2509.00, 
2510.00, 
2511.00, 
2512.00, 
2513.00, 
2514.00, 
2515.00, 
2516.00, 
2517.00, 
2518.00, 
2519.00, 
2520.00, 
2521.00, 
2522.00, 
2523.00, 
2524.00, 
2525.00, 
2526.00, 
2527.00, 
2528.00, 
2529.00, 
2530.00, 
2531.00, 
2532.00, 
2533.00, 
2534.00, 
2535.00, 
2536.00, 
2537.00, 
2538.00, 
2539.00, 
2540.00, 
2541.00, 
2542.00, 
2543.00, 
2544.00, 
2545.00, 
2546.00, 
2547.00, 
2548.00, 
2549.00, 
2550.00, 
2551.00, 
2552.00, 
2553.00, 
2554.00, 
2555.00, 
2556.00, 
2557.00, 
2558.00, 
2559.00, 
2560.00, 
2561.00, 
2562.00, 
2563.00, 
2564.00, 
2565.00, 
2566.00, 
2567.00, 
2568.00, 
2569.00, 
2570.00, 
2571.00, 
2572.00, 
2573.00, 
2574.00, 
2575.00, 
2576.00, 
2577.00, 
2578.00, 
2579.00, 
2580.00, 
2581.00, 
2582.00, 
2583.00, 
2584.00, 
2585.00, 
2586.00, 
2587.00, 
2588.00, 
2589.00, 
2590.00, 
2591.00, 
2592.00, 
2593.00, 
2594.00, 
2595.00, 
2596.00, 
2597.00, 
2598.00, 
2599.00, 
2600.00, 
