"1cP5 - RawData"
"Wavelength nm.","T%"
200.00,0.002
201.00,-0.000
202.00,0.003
203.00,0.003
204.00,0.001
205.00,0.001
206.00,-0.001
207.00,0.001
208.00,-0.002
209.00,-0.001
210.00,0.002
211.00,-0.000
212.00,0.000
213.00,0.003
214.00,-0.001
215.00,0.002
216.00,-0.001
217.00,-0.001
218.00,0.000
219.00,-0.000
220.00,-0.001
221.00,0.000
222.00,-0.000
223.00,0.000
224.00,0.002
225.00,0.002
226.00,0.004
227.00,0.003
228.00,-0.001
229.00,0.000
230.00,-0.000
231.00,0.001
232.00,-0.001
233.00,-0.001
234.00,0.000
235.00,0.001
236.00,-0.000
237.00,-0.001
238.00,-0.001
239.00,0.000
240.00,0.001
241.00,0.000
242.00,0.001
243.00,-0.002
244.00,0.002
245.00,0.001
246.00,-0.001
247.00,0.000
248.00,-0.001
249.00,0.002
250.00,-0.001
251.00,-0.000
252.00,0.001
253.00,0.000
254.00,0.002
255.00,0.000
256.00,-0.001
257.00,-0.000
258.00,-0.001
259.00,0.000
260.00,0.002
261.00,0.002
262.00,-0.000
263.00,-0.000
264.00,0.001
265.00,-0.002
266.00,0.001
267.00,-0.001
268.00,-0.001
269.00,0.001
270.00,0.000
271.00,-0.001
272.00,-0.001
273.00,0.001
274.00,-0.001
275.00,-0.000
276.00,0.001
277.00,0.001
278.00,0.001
279.00,0.001
280.00,0.000
281.00,-0.002
282.00,0.001
283.00,0.000
284.00,-0.001
285.00,-0.001
286.00,0.001
287.00,-0.000
288.00,0.001
289.00,-0.000
290.00,-0.000
291.00,0.001
292.00,-0.001
293.00,0.002
294.00,-0.000
295.00,-0.001
296.00,-0.000
297.00,-0.001
298.00,-0.001
299.00,-0.000
300.00,0.000
301.00,0.002
302.00,-0.000
303.00,0.002
304.00,0.000
305.00,-0.001
306.00,0.001
307.00,0.001
308.00,0.004
309.00,0.009
310.00,0.013
311.00,0.021
312.00,0.035
313.00,0.053
314.00,0.077
315.00,0.114
316.00,0.162
317.00,0.228
318.00,0.313
319.00,0.422
320.00,0.552
321.00,0.710
322.00,0.922
323.00,1.160
324.00,1.425
325.00,1.715
326.00,2.046
327.00,2.424
328.00,2.823
329.00,3.245
330.00,3.714
331.00,4.194
332.00,4.704
333.00,5.257
334.00,5.798
335.00,6.359
336.00,6.939
337.00,7.505
338.00,8.058
339.00,8.578
340.00,9.173
341.00,9.733
342.00,10.227
343.00,10.753
344.00,11.261
345.00,11.694
346.00,12.159
347.00,12.576
348.00,12.942
349.00,13.315
350.00,13.690
351.00,14.009
352.00,14.278
353.00,14.600
354.00,14.845
355.00,15.125
356.00,15.344
357.00,15.534
358.00,15.738
359.00,15.980
360.00,16.135
361.00,16.255
362.00,16.411
363.00,16.555
364.00,16.598
365.00,16.665
366.00,16.744
367.00,16.807
368.00,16.811
369.00,16.847
370.00,16.855
371.00,16.841
372.00,16.820
373.00,16.857
374.00,16.801
375.00,16.729
376.00,16.649
377.00,16.574
378.00,16.479
379.00,16.429
380.00,16.352
381.00,16.359
382.00,16.302
383.00,16.347
384.00,16.368
385.00,16.395
386.00,16.396
387.00,16.451
388.00,16.492
389.00,16.508
390.00,16.539
391.00,16.543
392.00,16.572
393.00,16.563
394.00,16.583
395.00,16.574
396.00,16.541
397.00,16.560
398.00,16.531
399.00,16.539
400.00,16.487
401.00,16.483
402.00,16.524
403.00,16.496
404.00,16.498
405.00,16.496
406.00,16.455
407.00,16.440
408.00,16.442
409.00,16.366
410.00,16.353
411.00,16.359
412.00,16.317
413.00,16.289
414.00,16.283
415.00,16.267
416.00,16.293
417.00,16.285
418.00,16.313
419.00,16.353
420.00,16.372
421.00,16.377
422.00,16.355
423.00,16.415
424.00,16.449
425.00,16.475
426.00,16.492
427.00,16.546
428.00,16.586
429.00,16.597
430.00,16.652
431.00,16.682
432.00,16.696
433.00,16.784
434.00,16.795
435.00,16.891
436.00,16.956
437.00,16.968
438.00,17.091
439.00,17.140
440.00,17.199
441.00,17.267
442.00,17.328
443.00,17.399
444.00,17.533
445.00,17.605
446.00,17.663
447.00,17.770
448.00,17.880
449.00,17.972
450.00,18.067
451.00,18.143
452.00,18.208
453.00,18.383
454.00,18.489
455.00,18.587
456.00,18.714
457.00,18.827
458.00,18.935
459.00,19.077
460.00,19.223
461.00,19.322
462.00,19.430
463.00,19.560
464.00,19.691
465.00,19.837
466.00,19.970
467.00,20.078
468.00,20.207
469.00,20.294
470.00,20.395
471.00,20.510
472.00,20.687
473.00,20.760
474.00,20.903
475.00,21.012
476.00,21.113
477.00,21.285
478.00,21.387
479.00,21.605
480.00,21.752
481.00,21.814
482.00,22.050
483.00,22.103
484.00,22.352
485.00,22.492
486.00,22.664
487.00,22.836
488.00,22.932
489.00,23.095
490.00,23.244
491.00,23.381
492.00,23.527
493.00,23.763
494.00,23.889
495.00,23.963
496.00,24.076
497.00,24.198
498.00,24.366
499.00,24.532
500.00,24.665
501.00,24.802
502.00,24.919
503.00,25.071
504.00,25.122
505.00,25.282
506.00,25.433
507.00,25.526
508.00,25.686
509.00,25.863
510.00,26.008
511.00,26.090
512.00,26.269
513.00,26.422
514.00,26.535
515.00,26.675
516.00,26.801
517.00,26.916
518.00,27.037
519.00,27.101
520.00,27.157
521.00,27.364
522.00,27.440
523.00,27.492
524.00,27.600
525.00,27.755
526.00,27.833
527.00,27.905
528.00,27.947
529.00,28.134
530.00,28.303
531.00,28.424
532.00,28.473
533.00,28.618
534.00,28.726
535.00,28.796
536.00,28.836
537.00,28.993
538.00,29.044
539.00,29.133
540.00,29.254
541.00,29.252
542.00,29.329
543.00,29.402
544.00,29.509
545.00,29.594
546.00,29.635
547.00,29.793
548.00,29.866
549.00,29.904
550.00,29.981
551.00,30.116
552.00,30.145
553.00,30.199
554.00,30.268
555.00,30.326
556.00,30.393
557.00,30.464
558.00,30.549
559.00,30.649
560.00,30.682
561.00,30.774
562.00,30.823
563.00,30.850
564.00,30.935
565.00,30.966
566.00,31.000
567.00,31.078
568.00,31.105
569.00,31.159
570.00,31.199
571.00,31.257
572.00,31.268
573.00,31.237
574.00,31.307
575.00,31.348
576.00,31.330
577.00,31.424
578.00,31.525
579.00,31.615
580.00,31.589
581.00,31.744
582.00,31.813
583.00,31.789
584.00,31.983
585.00,32.012
586.00,32.046
587.00,32.147
588.00,32.171
589.00,32.091
590.00,32.225
591.00,32.282
592.00,32.231
593.00,32.302
594.00,32.399
595.00,32.510
596.00,32.511
597.00,32.579
598.00,32.624
599.00,32.652
600.00,32.745
601.00,32.722
602.00,32.769
603.00,32.899
604.00,32.845
605.00,32.901
606.00,32.976
607.00,33.005
608.00,33.055
609.00,33.159
610.00,33.339
611.00,33.215
612.00,33.234
613.00,33.294
614.00,33.425
615.00,33.453
616.00,33.574
617.00,33.548
618.00,33.586
619.00,33.707
620.00,33.721
621.00,33.776
622.00,33.865
623.00,33.965
624.00,34.052
625.00,34.108
626.00,34.143
627.00,34.230
628.00,34.228
629.00,34.314
630.00,34.392
631.00,34.467
632.00,34.534
633.00,34.677
634.00,34.781
635.00,34.869
636.00,34.934
637.00,34.990
638.00,35.047
639.00,35.187
640.00,35.262
641.00,35.314
642.00,35.380
643.00,35.514
644.00,35.569
645.00,35.634
646.00,35.786
647.00,35.849
648.00,35.889
649.00,36.036
650.00,36.036
651.00,36.128
652.00,36.202
653.00,36.326
654.00,36.321
655.00,36.603
656.00,36.841
657.00,36.857
658.00,36.911
659.00,37.070
660.00,37.206
661.00,37.218
662.00,37.253
663.00,37.436
664.00,37.616
665.00,37.821
666.00,37.805
667.00,37.956
668.00,37.913
669.00,38.148
670.00,38.407
671.00,38.380
672.00,38.402
673.00,38.677
674.00,38.739
675.00,38.843
676.00,39.094
677.00,39.263
678.00,39.084
679.00,39.335
680.00,39.567
681.00,39.776
682.00,39.808
683.00,39.808
684.00,40.061
685.00,40.045
686.00,39.933
687.00,40.233
688.00,40.325
689.00,40.333
690.00,40.648
691.00,40.925
692.00,40.817
693.00,40.826
694.00,41.027
695.00,41.225
696.00,41.347
697.00,41.318
698.00,41.496
699.00,41.648
700.00,41.780
701.00,41.832
702.00,42.013
703.00,42.227
704.00,42.335
705.00,42.304
706.00,42.412
707.00,42.550
708.00,42.405
709.00,42.828
710.00,43.171
711.00,42.844
712.00,42.908
713.00,43.192
714.00,43.377
715.00,43.337
716.00,43.383
717.00,43.582
718.00,43.728
719.00,43.729
720.00,43.814
721.00,48.084
722.00,48.077
723.00,48.159
724.00,48.188
725.00,48.247
726.00,48.364
727.00,48.434
728.00,48.506
729.00,48.520
730.00,48.557
731.00,48.609
732.00,48.579
733.00,48.654
734.00,48.773
735.00,48.927
736.00,48.938
737.00,48.916
738.00,49.105
739.00,49.084
740.00,49.123
741.00,49.180
742.00,49.300
743.00,49.309
744.00,49.346
745.00,49.384
746.00,49.449
747.00,49.284
748.00,49.413
749.00,49.483
750.00,49.514
751.00,49.524
752.00,49.548
753.00,49.627
754.00,49.634
755.00,49.625
756.00,49.722
757.00,49.753
758.00,49.787
759.00,49.699
760.00,49.822
761.00,49.797
762.00,49.935
763.00,49.955
764.00,49.969
765.00,49.912
766.00,50.008
767.00,50.098
768.00,50.023
769.00,50.055
770.00,50.148
771.00,50.193
772.00,50.194
773.00,50.260
774.00,50.237
775.00,50.221
776.00,50.297
777.00,50.326
778.00,50.276
779.00,50.357
780.00,50.313
781.00,50.383
782.00,50.389
783.00,50.449
784.00,50.422
785.00,50.341
786.00,50.433
787.00,50.440
788.00,50.362
789.00,50.380
790.00,50.368
791.00,50.498
792.00,50.322
793.00,50.442
794.00,50.319
795.00,50.346
796.00,50.465
797.00,50.402
798.00,50.431
799.00,50.359
800.00,50.391
801.00,50.418
802.00,50.456
803.00,50.398
804.00,50.313
805.00,50.338
806.00,50.376
807.00,50.370
808.00,50.381
809.00,50.451
810.00,50.337
811.00,50.385
812.00,50.468
813.00,50.318
814.00,50.364
815.00,50.337
816.00,50.364
817.00,50.332
818.00,50.263
819.00,50.273
820.00,50.351
821.00,50.303
822.00,50.263
823.00,50.220
824.00,50.344
825.00,50.290
826.00,50.319
827.00,50.273
828.00,50.297
829.00,50.169
830.00,50.200
831.00,52.624
832.00,52.658
833.00,52.583
834.00,52.613
835.00,52.593
836.00,52.576
837.00,52.546
838.00,52.534
839.00,52.553
840.00,52.495
841.00,52.497
842.00,52.463
843.00,52.537
844.00,52.484
845.00,52.464
846.00,52.469
847.00,52.407
848.00,52.455
849.00,52.352
850.00,52.367
851.00,52.284
852.00,52.342
853.00,52.299
854.00,52.271
855.00,52.209
856.00,52.231
857.00,52.229
858.00,52.156
859.00,52.174
860.00,52.175
861.00,52.139
862.00,52.137
863.00,52.117
864.00,52.027
865.00,52.135
866.00,52.118
867.00,52.103
868.00,52.107
869.00,52.087
870.00,52.094
871.00,52.085
872.00,52.079
873.00,52.068
874.00,52.039
875.00,52.048
876.00,52.031
877.00,51.985
878.00,51.973
879.00,52.004
880.00,51.969
881.00,51.963
882.00,51.992
883.00,51.948
884.00,51.893
885.00,51.918
886.00,51.916
887.00,51.882
888.00,51.864
889.00,51.843
890.00,51.825
891.00,51.825
892.00,51.808
893.00,51.769
894.00,51.775
895.00,51.729
896.00,51.718
897.00,51.709
898.00,51.681
899.00,51.679
900.00,51.657
901.00,51.680
902.00,51.662
903.00,51.616
904.00,51.609
905.00,51.605
906.00,51.594
907.00,51.535
908.00,51.509
909.00,51.531
910.00,51.473
911.00,51.496
912.00,51.484
913.00,51.460
914.00,51.443
915.00,51.425
916.00,51.340
917.00,51.486
918.00,51.388
919.00,51.332
920.00,51.318
921.00,51.339
922.00,51.336
923.00,51.288
924.00,51.272
925.00,51.248
926.00,51.256
927.00,51.213
928.00,51.202
929.00,51.212
930.00,51.178
931.00,51.153
932.00,51.132
933.00,51.133
934.00,51.106
935.00,51.097
936.00,51.058
937.00,51.018
938.00,51.032
939.00,51.004
940.00,51.004
941.00,50.991
942.00,50.963
943.00,50.959
944.00,50.936
945.00,50.945
946.00,50.940
947.00,50.880
948.00,50.843
949.00,50.834
950.00,50.797
951.00,50.788
952.00,50.768
953.00,50.735
954.00,50.709
955.00,50.691
956.00,50.669
957.00,50.656
958.00,50.652
959.00,50.601
960.00,50.588
961.00,50.575
962.00,50.579
963.00,50.556
964.00,50.530
965.00,50.525
966.00,50.571
967.00,50.518
968.00,50.511
969.00,50.516
970.00,50.511
971.00,50.523
972.00,50.429
973.00,50.522
974.00,50.531
975.00,50.501
976.00,50.509
977.00,50.515
978.00,50.543
979.00,50.497
980.00,50.517
981.00,50.516
982.00,50.482
983.00,50.494
984.00,50.491
985.00,50.493
986.00,50.454
987.00,50.490
988.00,50.455
989.00,50.448
990.00,50.441
991.00,50.433
992.00,50.434
993.00,50.404
994.00,50.389
995.00,50.375
996.00,50.379
997.00,50.337
998.00,50.334
999.00,50.356
1000.00,50.295
1001.00,50.301
1002.00,50.292
1003.00,50.316
1004.00,50.268
1005.00,50.233
1006.00,50.275
1007.00,50.250
1008.00,50.216
1009.00,50.203
1010.00,50.208
1011.00,50.175
1012.00,50.162
1013.00,50.161
1014.00,50.129
1015.00,50.143
1016.00,50.086
1017.00,50.101
1018.00,50.073
1019.00,50.036
1020.00,50.044
1021.00,50.026
1022.00,50.013
1023.00,49.982
1024.00,49.989
1025.00,49.962
1026.00,49.964
1027.00,49.932
1028.00,49.939
1029.00,49.937
1030.00,49.891
1031.00,49.908
1032.00,49.869
1033.00,49.859
1034.00,49.835
1035.00,49.800
1036.00,49.770
1037.00,49.759
1038.00,49.741
1039.00,49.728
1040.00,49.734
1041.00,49.696
1042.00,49.699
1043.00,49.673
1044.00,49.703
1045.00,49.692
1046.00,49.667
1047.00,49.676
1048.00,49.686
1049.00,49.683
1050.00,49.696
1051.00,49.734
1052.00,49.726
1053.00,49.729
1054.00,49.741
1055.00,49.743
1056.00,49.778
1057.00,49.784
1058.00,49.754
1059.00,49.748
1060.00,49.759
1061.00,49.747
1062.00,49.730
1063.00,49.727
1064.00,49.743
1065.00,49.727
1066.00,49.703
1067.00,49.718
1068.00,49.725
1069.00,49.710
1070.00,49.688
1071.00,49.673
1072.00,49.690
1073.00,49.669
1074.00,49.667
1075.00,49.651
1076.00,49.660
1077.00,49.634
1078.00,49.620
1079.00,49.604
1080.00,49.600
1081.00,49.604
1082.00,49.592
1083.00,49.591
1084.00,49.599
1085.00,49.599
1086.00,49.567
1087.00,49.586
1088.00,49.588
1089.00,49.553
1090.00,49.540
1091.00,49.542
1092.00,49.539
1093.00,49.501
1094.00,49.488
1095.00,49.489
1096.00,49.470
1097.00,49.479
1098.00,49.480
1099.00,49.445
1100.00,49.447
1101.00,49.443
1102.00,49.427
1103.00,49.426
1104.00,49.408
1105.00,49.401
1106.00,49.390
1107.00,49.370
1108.00,49.368
1109.00,49.365
1110.00,49.346
1111.00,49.366
1112.00,49.355
1113.00,49.352
1114.00,49.353
1115.00,49.337
1116.00,49.339
1117.00,49.338
1118.00,49.323
1119.00,49.310
1120.00,49.307
1121.00,49.291
1122.00,49.284
1123.00,49.259
1124.00,49.249
1125.00,49.276
1126.00,49.251
1127.00,49.271
1128.00,49.267
1129.00,49.238
1130.00,49.248
1131.00,49.255
1132.00,49.235
1133.00,49.235
1134.00,49.221
1135.00,49.213
1136.00,49.212
1137.00,49.205
1138.00,49.209
1139.00,49.220
1140.00,49.201
1141.00,49.196
1142.00,49.200
1143.00,49.191
1144.00,49.177
1145.00,49.168
1146.00,49.169
1147.00,49.165
1148.00,49.140
1149.00,49.168
1150.00,49.175
1151.00,49.154
1152.00,49.154
1153.00,49.162
1154.00,49.135
1155.00,49.152
1156.00,49.154
1157.00,49.158
1158.00,49.160
1159.00,49.148
1160.00,49.170
1161.00,49.172
1162.00,49.141
1163.00,49.149
1164.00,49.147
1165.00,49.126
1166.00,49.140
1167.00,49.125
1168.00,49.137
1169.00,49.133
1170.00,49.131
1171.00,49.124
1172.00,49.132
1173.00,49.119
1174.00,49.134
1175.00,49.126
1176.00,49.120
1177.00,49.116
1178.00,49.098
1179.00,49.110
1180.00,49.102
1181.00,49.110
1182.00,49.112
1183.00,49.119
1184.00,49.110
1185.00,49.133
1186.00,49.120
1187.00,49.112
1188.00,49.115
1189.00,49.101
1190.00,49.092
1191.00,49.093
1192.00,49.090
1193.00,49.119
1194.00,49.120
1195.00,49.078
1196.00,49.116
1197.00,49.126
1198.00,49.103
1199.00,49.097
1200.00,49.104
1201.00,49.118
1202.00,49.109
1203.00,49.086
1204.00,49.095
1205.00,49.133
1206.00,49.106
1207.00,49.120
1208.00,49.108
1209.00,49.107
1210.00,49.113
1211.00,49.100
1212.00,49.123
1213.00,49.089
1214.00,49.106
1215.00,49.097
1216.00,49.098
1217.00,49.095
1218.00,49.096
1219.00,49.118
1220.00,49.097
1221.00,49.123
1222.00,49.117
1223.00,49.115
1224.00,49.135
1225.00,49.127
1226.00,49.136
1227.00,49.140
1228.00,49.145
1229.00,49.139
1230.00,49.175
1231.00,49.156
1232.00,49.194
1233.00,49.191
1234.00,49.179
1235.00,49.183
1236.00,49.160
1237.00,49.175
1238.00,49.178
1239.00,49.176
1240.00,49.185
1241.00,49.181
1242.00,49.192
1243.00,49.211
1244.00,49.178
1245.00,49.207
1246.00,49.220
1247.00,49.199
1248.00,49.199
1249.00,49.223
1250.00,49.210
1251.00,49.209
1252.00,49.233
1253.00,49.215
1254.00,49.258
1255.00,49.236
1256.00,49.215
1257.00,49.219
1258.00,49.233
1259.00,49.253
1260.00,49.276
1261.00,49.264
1262.00,49.266
1263.00,49.264
1264.00,49.264
1265.00,49.272
1266.00,49.268
1267.00,49.279
1268.00,49.290
1269.00,49.278
1270.00,49.315
1271.00,49.319
1272.00,49.304
1273.00,49.331
1274.00,49.340
1275.00,49.333
1276.00,49.341
1277.00,49.319
1278.00,49.338
1279.00,49.350
1280.00,49.335
1281.00,49.351
1282.00,49.366
1283.00,49.357
1284.00,49.375
1285.00,49.381
1286.00,49.397
1287.00,49.396
1288.00,49.400
1289.00,49.400
1290.00,49.440
1291.00,49.413
1292.00,49.428
1293.00,49.424
1294.00,49.430
1295.00,49.463
1296.00,49.463
1297.00,49.449
1298.00,49.467
1299.00,49.456
1300.00,49.486
1301.00,49.468
1302.00,49.481
1303.00,49.491
1304.00,49.481
1305.00,49.498
1306.00,49.522
1307.00,49.530
1308.00,49.513
1309.00,49.542
1310.00,49.540
1311.00,49.528
1312.00,49.533
1313.00,49.543
1314.00,49.569
1315.00,49.573
1316.00,49.559
1317.00,49.606
1318.00,49.611
1319.00,49.603
1320.00,49.631
1321.00,49.462
1322.00,49.464
1323.00,49.464
1324.00,49.436
1325.00,49.440
1326.00,49.475
1327.00,49.440
1328.00,49.458
1329.00,49.475
1330.00,49.482
1331.00,49.490
1332.00,49.501
1333.00,49.508
1334.00,49.546
1335.00,49.543
1336.00,49.584
1337.00,49.615
1338.00,49.657
1339.00,49.707
1340.00,49.766
1341.00,49.827
1342.00,49.898
1343.00,49.924
1344.00,49.981
1345.00,50.046
1346.00,50.046
1347.00,50.084
1348.00,50.129
1349.00,50.127
1350.00,50.145
1351.00,50.163
1352.00,50.173
1353.00,50.202
1354.00,50.197
1355.00,50.191
1356.00,50.222
1357.00,50.192
1358.00,50.230
1359.00,50.275
1360.00,50.475
1361.00,50.270
1362.00,50.245
1363.00,50.283
1364.00,50.313
1365.00,50.272
1366.00,50.252
1367.00,50.260
1368.00,50.277
1369.00,50.268
1370.00,50.265
1371.00,50.230
1372.00,50.265
1373.00,50.259
1374.00,50.268
1375.00,50.256
1376.00,50.247
1377.00,50.249
1378.00,50.290
1379.00,50.260
1380.00,50.278
1381.00,50.288
1382.00,50.317
1383.00,50.284
1384.00,50.252
1385.00,50.268
1386.00,50.297
1387.00,50.237
1388.00,50.226
1389.00,50.231
1390.00,50.198
1391.00,50.264
1392.00,50.253
1393.00,50.265
1394.00,50.305
1395.00,50.253
1396.00,50.222
1397.00,50.246
1398.00,50.264
1399.00,50.286
1400.00,50.258
1401.00,50.241
1402.00,50.259
1403.00,50.226
1404.00,50.304
1405.00,50.326
1406.00,50.353
1407.00,50.328
1408.00,50.350
1409.00,50.332
1410.00,50.370
1411.00,50.370
1412.00,50.408
1413.00,50.372
1414.00,50.376
1415.00,50.387
1416.00,50.416
1417.00,50.434
1418.00,50.420
1419.00,50.437
1420.00,50.453
1421.00,50.493
1422.00,50.497
1423.00,50.506
1424.00,50.512
1425.00,50.535
1426.00,50.526
1427.00,50.553
1428.00,50.566
1429.00,50.567
1430.00,50.587
1431.00,50.607
1432.00,50.590
1433.00,50.635
1434.00,50.611
1435.00,50.672
1436.00,50.686
1437.00,50.657
1438.00,50.706
1439.00,50.748
1440.00,50.748
1441.00,50.778
1442.00,50.777
1443.00,50.795
1444.00,50.859
1445.00,50.822
1446.00,50.844
1447.00,50.877
1448.00,50.887
1449.00,50.932
1450.00,50.933
1451.00,50.943
1452.00,50.981
1453.00,50.947
1454.00,50.989
1455.00,51.008
1456.00,50.998
1457.00,51.014
1458.00,51.045
1459.00,51.053
1460.00,51.082
1461.00,51.089
1462.00,51.108
1463.00,51.121
1464.00,51.133
1465.00,51.150
1466.00,51.159
1467.00,51.160
1468.00,51.225
1469.00,51.217
1470.00,51.209
1471.00,51.254
1472.00,51.262
1473.00,51.266
1474.00,51.308
1475.00,51.320
1476.00,51.338
1477.00,51.323
1478.00,51.332
1479.00,51.370
1480.00,51.369
1481.00,51.374
1482.00,51.431
1483.00,51.433
1484.00,51.457
1485.00,51.472
1486.00,51.478
1487.00,51.519
1488.00,51.550
1489.00,51.521
1490.00,51.545
1491.00,51.568
1492.00,51.563
1493.00,51.557
1494.00,51.609
1495.00,51.593
1496.00,51.636
1497.00,51.618
1498.00,51.651
1499.00,51.685
1500.00,51.688
1501.00, 
1502.00, 
1503.00, 
1504.00, 
1505.00, 
1506.00, 
1507.00, 
1508.00, 
1509.00, 
1510.00, 
1511.00, 
1512.00, 
1513.00, 
1514.00, 
1515.00, 
1516.00, 
1517.00, 
1518.00, 
1519.00, 
1520.00, 
1521.00, 
1522.00, 
1523.00, 
1524.00, 
1525.00, 
1526.00, 
1527.00, 
1528.00, 
1529.00, 
1530.00, 
1531.00, 
1532.00, 
1533.00, 
1534.00, 
1535.00, 
1536.00, 
1537.00, 
1538.00, 
1539.00, 
1540.00, 
1541.00, 
1542.00, 
1543.00, 
1544.00, 
1545.00, 
1546.00, 
1547.00, 
1548.00, 
1549.00, 
1550.00, 
1551.00, 
1552.00, 
1553.00, 
1554.00, 
1555.00, 
1556.00, 
1557.00, 
1558.00, 
1559.00, 
1560.00, 
1561.00, 
1562.00, 
1563.00, 
1564.00, 
1565.00, 
1566.00, 
1567.00, 
1568.00, 
1569.00, 
1570.00, 
1571.00, 
1572.00, 
1573.00, 
1574.00, 
1575.00, 
1576.00, 
1577.00, 
1578.00, 
1579.00, 
1580.00, 
1581.00, 
1582.00, 
1583.00, 
1584.00, 
1585.00, 
1586.00, 
1587.00, 
1588.00, 
1589.00, 
1590.00, 
1591.00, 
1592.00, 
1593.00, 
1594.00, 
1595.00, 
1596.00, 
1597.00, 
1598.00, 
1599.00, 
1600.00, 
1601.00, 
1602.00, 
1603.00, 
1604.00, 
1605.00, 
1606.00, 
1607.00, 
1608.00, 
1609.00, 
1610.00, 
1611.00, 
1612.00, 
1613.00, 
1614.00, 
1615.00, 
1616.00, 
1617.00, 
1618.00, 
1619.00, 
1620.00, 
1621.00, 
1622.00, 
1623.00, 
1624.00, 
1625.00, 
1626.00, 
1627.00, 
1628.00, 
1629.00, 
1630.00, 
1631.00, 
1632.00, 
1633.00, 
1634.00, 
1635.00, 
1636.00, 
1637.00, 
1638.00, 
1639.00, 
1640.00, 
1641.00, 
1642.00, 
1643.00, 
1644.00, 
1645.00, 
1646.00, 
1647.00, 
1648.00, 
1649.00, 
1650.00, 
1651.00, 
1652.00, 
1653.00, 
1654.00, 
1655.00, 
1656.00, 
1657.00, 
1658.00, 
1659.00, 
1660.00, 
1661.00, 
1662.00, 
1663.00, 
1664.00, 
1665.00, 
1666.00, 
1667.00, 
1668.00, 
1669.00, 
1670.00, 
1671.00, 
1672.00, 
1673.00, 
1674.00, 
1675.00, 
1676.00, 
1677.00, 
1678.00, 
1679.00, 
1680.00, 
1681.00, 
1682.00, 
1683.00, 
1684.00, 
1685.00, 
1686.00, 
1687.00, 
1688.00, 
1689.00, 
1690.00, 
1691.00, 
1692.00, 
1693.00, 
1694.00, 
1695.00, 
1696.00, 
1697.00, 
1698.00, 
1699.00, 
1700.00, 
1701.00, 
1702.00, 
1703.00, 
1704.00, 
1705.00, 
1706.00, 
1707.00, 
1708.00, 
1709.00, 
1710.00, 
1711.00, 
1712.00, 
1713.00, 
1714.00, 
1715.00, 
1716.00, 
1717.00, 
1718.00, 
1719.00, 
1720.00, 
1721.00, 
1722.00, 
1723.00, 
1724.00, 
1725.00, 
1726.00, 
1727.00, 
1728.00, 
1729.00, 
1730.00, 
1731.00, 
1732.00, 
1733.00, 
1734.00, 
1735.00, 
1736.00, 
1737.00, 
1738.00, 
1739.00, 
1740.00, 
1741.00, 
1742.00, 
1743.00, 
1744.00, 
1745.00, 
1746.00, 
1747.00, 
1748.00, 
1749.00, 
1750.00, 
1751.00, 
1752.00, 
1753.00, 
1754.00, 
1755.00, 
1756.00, 
1757.00, 
1758.00, 
1759.00, 
1760.00, 
1761.00, 
1762.00, 
1763.00, 
1764.00, 
1765.00, 
1766.00, 
1767.00, 
1768.00, 
1769.00, 
1770.00, 
1771.00, 
1772.00, 
1773.00, 
1774.00, 
1775.00, 
1776.00, 
1777.00, 
1778.00, 
1779.00, 
1780.00, 
1781.00, 
1782.00, 
1783.00, 
1784.00, 
1785.00, 
1786.00, 
1787.00, 
1788.00, 
1789.00, 
1790.00, 
1791.00, 
1792.00, 
1793.00, 
1794.00, 
1795.00, 
1796.00, 
1797.00, 
1798.00, 
1799.00, 
1800.00, 
1801.00, 
1802.00, 
1803.00, 
1804.00, 
1805.00, 
1806.00, 
1807.00, 
1808.00, 
1809.00, 
1810.00, 
1811.00, 
1812.00, 
1813.00, 
1814.00, 
1815.00, 
1816.00, 
1817.00, 
1818.00, 
1819.00, 
1820.00, 
1821.00, 
1822.00, 
1823.00, 
1824.00, 
1825.00, 
1826.00, 
1827.00, 
1828.00, 
1829.00, 
1830.00, 
1831.00, 
1832.00, 
1833.00, 
1834.00, 
1835.00, 
1836.00, 
1837.00, 
1838.00, 
1839.00, 
1840.00, 
1841.00, 
1842.00, 
1843.00, 
1844.00, 
1845.00, 
1846.00, 
1847.00, 
1848.00, 
1849.00, 
1850.00, 
1851.00, 
1852.00, 
1853.00, 
1854.00, 
1855.00, 
1856.00, 
1857.00, 
1858.00, 
1859.00, 
1860.00, 
1861.00, 
1862.00, 
1863.00, 
1864.00, 
1865.00, 
1866.00, 
1867.00, 
1868.00, 
1869.00, 
1870.00, 
1871.00, 
1872.00, 
1873.00, 
1874.00, 
1875.00, 
1876.00, 
1877.00, 
1878.00, 
1879.00, 
1880.00, 
1881.00, 
1882.00, 
1883.00, 
1884.00, 
1885.00, 
1886.00, 
1887.00, 
1888.00, 
1889.00, 
1890.00, 
1891.00, 
1892.00, 
1893.00, 
1894.00, 
1895.00, 
1896.00, 
1897.00, 
1898.00, 
1899.00, 
1900.00, 
1901.00, 
1902.00, 
1903.00, 
1904.00, 
1905.00, 
1906.00, 
1907.00, 
1908.00, 
1909.00, 
1910.00, 
1911.00, 
1912.00, 
1913.00, 
1914.00, 
1915.00, 
1916.00, 
1917.00, 
1918.00, 
1919.00, 
1920.00, 
1921.00, 
1922.00, 
1923.00, 
1924.00, 
1925.00, 
1926.00, 
1927.00, 
1928.00, 
1929.00, 
1930.00, 
1931.00, 
1932.00, 
1933.00, 
1934.00, 
1935.00, 
1936.00, 
1937.00, 
1938.00, 
1939.00, 
1940.00, 
1941.00, 
1942.00, 
1943.00, 
1944.00, 
1945.00, 
1946.00, 
1947.00, 
1948.00, 
1949.00, 
1950.00, 
1951.00, 
1952.00, 
1953.00, 
1954.00, 
1955.00, 
1956.00, 
1957.00, 
1958.00, 
1959.00, 
1960.00, 
1961.00, 
1962.00, 
1963.00, 
1964.00, 
1965.00, 
1966.00, 
1967.00, 
1968.00, 
1969.00, 
1970.00, 
1971.00, 
1972.00, 
1973.00, 
1974.00, 
1975.00, 
1976.00, 
1977.00, 
1978.00, 
1979.00, 
1980.00, 
1981.00, 
1982.00, 
1983.00, 
1984.00, 
1985.00, 
1986.00, 
1987.00, 
1988.00, 
1989.00, 
1990.00, 
1991.00, 
1992.00, 
1993.00, 
1994.00, 
1995.00, 
1996.00, 
1997.00, 
1998.00, 
1999.00, 
2000.00, 
2001.00, 
2002.00, 
2003.00, 
2004.00, 
2005.00, 
2006.00, 
2007.00, 
2008.00, 
2009.00, 
2010.00, 
2011.00, 
2012.00, 
2013.00, 
2014.00, 
2015.00, 
2016.00, 
2017.00, 
2018.00, 
2019.00, 
2020.00, 
2021.00, 
2022.00, 
2023.00, 
2024.00, 
2025.00, 
2026.00, 
2027.00, 
2028.00, 
2029.00, 
2030.00, 
2031.00, 
2032.00, 
2033.00, 
2034.00, 
2035.00, 
2036.00, 
2037.00, 
2038.00, 
2039.00, 
2040.00, 
2041.00, 
2042.00, 
2043.00, 
2044.00, 
2045.00, 
2046.00, 
2047.00, 
2048.00, 
2049.00, 
2050.00, 
2051.00, 
2052.00, 
2053.00, 
2054.00, 
2055.00, 
2056.00, 
2057.00, 
2058.00, 
2059.00, 
2060.00, 
2061.00, 
2062.00, 
2063.00, 
2064.00, 
2065.00, 
2066.00, 
2067.00, 
2068.00, 
2069.00, 
2070.00, 
2071.00, 
2072.00, 
2073.00, 
2074.00, 
2075.00, 
2076.00, 
2077.00, 
2078.00, 
2079.00, 
2080.00, 
2081.00, 
2082.00, 
2083.00, 
2084.00, 
2085.00, 
2086.00, 
2087.00, 
2088.00, 
2089.00, 
2090.00, 
2091.00, 
2092.00, 
2093.00, 
2094.00, 
2095.00, 
2096.00, 
2097.00, 
2098.00, 
2099.00, 
2100.00, 
2101.00, 
2102.00, 
2103.00, 
2104.00, 
2105.00, 
2106.00, 
2107.00, 
2108.00, 
2109.00, 
2110.00, 
2111.00, 
2112.00, 
2113.00, 
2114.00, 
2115.00, 
2116.00, 
2117.00, 
2118.00, 
2119.00, 
2120.00, 
2121.00, 
2122.00, 
2123.00, 
2124.00, 
2125.00, 
2126.00, 
2127.00, 
2128.00, 
2129.00, 
2130.00, 
2131.00, 
2132.00, 
2133.00, 
2134.00, 
2135.00, 
2136.00, 
2137.00, 
2138.00, 
2139.00, 
2140.00, 
2141.00, 
2142.00, 
2143.00, 
2144.00, 
2145.00, 
2146.00, 
2147.00, 
2148.00, 
2149.00, 
2150.00, 
2151.00, 
2152.00, 
2153.00, 
2154.00, 
2155.00, 
2156.00, 
2157.00, 
2158.00, 
2159.00, 
2160.00, 
2161.00, 
2162.00, 
2163.00, 
2164.00, 
2165.00, 
2166.00, 
2167.00, 
2168.00, 
2169.00, 
2170.00, 
2171.00, 
2172.00, 
2173.00, 
2174.00, 
2175.00, 
2176.00, 
2177.00, 
2178.00, 
2179.00, 
2180.00, 
2181.00, 
2182.00, 
2183.00, 
2184.00, 
2185.00, 
2186.00, 
2187.00, 
2188.00, 
2189.00, 
2190.00, 
2191.00, 
2192.00, 
2193.00, 
2194.00, 
2195.00, 
2196.00, 
2197.00, 
2198.00, 
2199.00, 
2200.00, 
2201.00, 
2202.00, 
2203.00, 
2204.00, 
2205.00, 
2206.00, 
2207.00, 
2208.00, 
2209.00, 
2210.00, 
2211.00, 
2212.00, 
2213.00, 
2214.00, 
2215.00, 
2216.00, 
2217.00, 
2218.00, 
2219.00, 
2220.00, 
2221.00, 
2222.00, 
2223.00, 
2224.00, 
2225.00, 
2226.00, 
2227.00, 
2228.00, 
2229.00, 
2230.00, 
2231.00, 
2232.00, 
2233.00, 
2234.00, 
2235.00, 
2236.00, 
2237.00, 
2238.00, 
2239.00, 
2240.00, 
2241.00, 
2242.00, 
2243.00, 
2244.00, 
2245.00, 
2246.00, 
2247.00, 
2248.00, 
2249.00, 
2250.00, 
2251.00, 
2252.00, 
2253.00, 
2254.00, 
2255.00, 
2256.00, 
2257.00, 
2258.00, 
2259.00, 
2260.00, 
2261.00, 
2262.00, 
2263.00, 
2264.00, 
2265.00, 
2266.00, 
2267.00, 
2268.00, 
2269.00, 
2270.00, 
2271.00, 
2272.00, 
2273.00, 
2274.00, 
2275.00, 
2276.00, 
2277.00, 
2278.00, 
2279.00, 
2280.00, 
2281.00, 
2282.00, 
2283.00, 
2284.00, 
2285.00, 
2286.00, 
2287.00, 
2288.00, 
2289.00, 
2290.00, 
2291.00, 
2292.00, 
2293.00, 
2294.00, 
2295.00, 
2296.00, 
2297.00, 
2298.00, 
2299.00, 
2300.00, 
2301.00, 
2302.00, 
2303.00, 
2304.00, 
2305.00, 
2306.00, 
2307.00, 
2308.00, 
2309.00, 
2310.00, 
2311.00, 
2312.00, 
2313.00, 
2314.00, 
2315.00, 
2316.00, 
2317.00, 
2318.00, 
2319.00, 
2320.00, 
2321.00, 
2322.00, 
2323.00, 
2324.00, 
2325.00, 
2326.00, 
2327.00, 
2328.00, 
2329.00, 
2330.00, 
2331.00, 
2332.00, 
2333.00, 
2334.00, 
2335.00, 
2336.00, 
2337.00, 
2338.00, 
2339.00, 
2340.00, 
2341.00, 
2342.00, 
2343.00, 
2344.00, 
2345.00, 
2346.00, 
2347.00, 
2348.00, 
2349.00, 
2350.00, 
2351.00, 
2352.00, 
2353.00, 
2354.00, 
2355.00, 
2356.00, 
2357.00, 
2358.00, 
2359.00, 
2360.00, 
2361.00, 
2362.00, 
2363.00, 
2364.00, 
2365.00, 
2366.00, 
2367.00, 
2368.00, 
2369.00, 
2370.00, 
2371.00, 
2372.00, 
2373.00, 
2374.00, 
2375.00, 
2376.00, 
2377.00, 
2378.00, 
2379.00, 
2380.00, 
2381.00, 
2382.00, 
2383.00, 
2384.00, 
2385.00, 
2386.00, 
2387.00, 
2388.00, 
2389.00, 
2390.00, 
2391.00, 
2392.00, 
2393.00, 
2394.00, 
2395.00, 
2396.00, 
2397.00, 
2398.00, 
2399.00, 
2400.00, 
2401.00, 
2402.00, 
2403.00, 
2404.00, 
2405.00, 
2406.00, 
2407.00, 
2408.00, 
2409.00, 
2410.00, 
2411.00, 
2412.00, 
2413.00, 
2414.00, 
2415.00, 
2416.00, 
2417.00, 
2418.00, 
2419.00, 
2420.00, 
2421.00, 
2422.00, 
2423.00, 
2424.00, 
2425.00, 
2426.00, 
2427.00, 
2428.00, 
2429.00, 
2430.00, 
2431.00, 
2432.00, 
2433.00, 
2434.00, 
2435.00, 
2436.00, 
2437.00, 
2438.00, 
2439.00, 
2440.00, 
2441.00, 
2442.00, 
2443.00, 
2444.00, 
2445.00, 
2446.00, 
2447.00, 
2448.00, 
2449.00, 
2450.00, 
2451.00, 
2452.00, 
2453.00, 
2454.00, 
2455.00, 
2456.00, 
2457.00, 
2458.00, 
2459.00, 
2460.00, 
2461.00, 
2462.00, 
2463.00, 
2464.00, 
2465.00, 
2466.00, 
2467.00, 
2468.00, 
2469.00, 
2470.00, 
2471.00, 
2472.00, 
2473.00, 
2474.00, 
2475.00, 
2476.00, 
2477.00, 
2478.00, 
2479.00, 
2480.00, 
2481.00, 
2482.00, 
2483.00, 
2484.00, 
2485.00, 
2486.00, 
2487.00, 
2488.00, 
2489.00, 
2490.00, 
2491.00, 
2492.00, 
2493.00, 
2494.00, 
2495.00, 
2496.00, 
2497.00, 
2498.00, 
2499.00, 
2500.00, 
2501.00, 
2502.00, 
2503.00, 
2504.00, 
2505.00, 
2506.00, 
2507.00, 
2508.00, 
2509.00, 
2510.00, 
2511.00, 
2512.00, 
2513.00, 
2514.00, 
2515.00, 
2516.00, 
2517.00, 
2518.00, 
2519.00, 
2520.00, 
2521.00, 
2522.00, 
2523.00, 
2524.00, 
2525.00, 
2526.00, 
2527.00, 
2528.00, 
2529.00, 
2530.00, 
2531.00, 
2532.00, 
2533.00, 
2534.00, 
2535.00, 
2536.00, 
2537.00, 
2538.00, 
2539.00, 
2540.00, 
2541.00, 
2542.00, 
2543.00, 
2544.00, 
2545.00, 
2546.00, 
2547.00, 
2548.00, 
2549.00, 
2550.00, 
2551.00, 
2552.00, 
2553.00, 
2554.00, 
2555.00, 
2556.00, 
2557.00, 
2558.00, 
2559.00, 
2560.00, 
2561.00, 
2562.00, 
2563.00, 
2564.00, 
2565.00, 
2566.00, 
2567.00, 
2568.00, 
2569.00, 
2570.00, 
2571.00, 
2572.00, 
2573.00, 
2574.00, 
2575.00, 
2576.00, 
2577.00, 
2578.00, 
2579.00, 
2580.00, 
2581.00, 
2582.00, 
2583.00, 
2584.00, 
2585.00, 
2586.00, 
2587.00, 
2588.00, 
2589.00, 
2590.00, 
2591.00, 
2592.00, 
2593.00, 
2594.00, 
2595.00, 
2596.00, 
2597.00, 
2598.00, 
2599.00, 
2600.00, 
