"2cP1 - RawData"
"Wavelength nm.","T%"
200.00,0.001
201.00,0.004
202.00,-0.001
203.00,0.001
204.00,0.002
205.00,0.003
206.00,0.003
207.00,0.001
208.00,0.001
209.00,0.002
210.00,0.000
211.00,0.001
212.00,0.001
213.00,0.000
214.00,-0.001
215.00,0.001
216.00,0.002
217.00,-0.000
218.00,0.001
219.00,0.000
220.00,-0.000
221.00,-0.001
222.00,-0.000
223.00,0.002
224.00,0.000
225.00,-0.003
226.00,-0.002
227.00,0.000
228.00,0.002
229.00,0.001
230.00,-0.000
231.00,-0.001
232.00,0.000
233.00,-0.001
234.00,-0.000
235.00,0.001
236.00,0.000
237.00,-0.001
238.00,0.002
239.00,0.001
240.00,0.000
241.00,-0.001
242.00,0.001
243.00,-0.001
244.00,-0.001
245.00,0.000
246.00,-0.000
247.00,-0.000
248.00,0.001
249.00,0.000
250.00,-0.001
251.00,0.001
252.00,0.001
253.00,0.001
254.00,0.001
255.00,0.000
256.00,0.002
257.00,-0.002
258.00,0.002
259.00,-0.001
260.00,0.001
261.00,-0.001
262.00,0.001
263.00,-0.000
264.00,0.000
265.00,-0.002
266.00,-0.000
267.00,0.000
268.00,0.000
269.00,-0.001
270.00,0.000
271.00,0.001
272.00,-0.001
273.00,0.000
274.00,-0.001
275.00,-0.000
276.00,-0.001
277.00,0.001
278.00,-0.000
279.00,-0.001
280.00,-0.000
281.00,-0.001
282.00,-0.001
283.00,0.000
284.00,0.000
285.00,0.001
286.00,0.000
287.00,0.001
288.00,-0.000
289.00,0.001
290.00,0.001
291.00,-0.002
292.00,-0.002
293.00,-0.000
294.00,-0.001
295.00,-0.000
296.00,-0.000
297.00,-0.000
298.00,0.001
299.00,0.002
300.00,0.002
301.00,0.002
302.00,0.003
303.00,0.006
304.00,0.010
305.00,0.014
306.00,0.022
307.00,0.031
308.00,0.048
309.00,0.078
310.00,0.109
311.00,0.148
312.00,0.199
313.00,0.273
314.00,0.358
315.00,0.471
316.00,0.599
317.00,0.750
318.00,0.939
319.00,1.154
320.00,1.405
321.00,1.622
322.00,1.967
323.00,2.331
324.00,2.686
325.00,3.059
326.00,3.476
327.00,3.928
328.00,4.361
329.00,4.809
330.00,5.308
331.00,5.817
332.00,6.330
333.00,6.848
334.00,7.328
335.00,7.856
336.00,8.408
337.00,8.875
338.00,9.397
339.00,9.847
340.00,10.346
341.00,10.783
342.00,11.222
343.00,11.631
344.00,12.039
345.00,12.381
346.00,12.762
347.00,13.065
348.00,13.418
349.00,13.736
350.00,14.050
351.00,14.264
352.00,14.480
353.00,14.713
354.00,14.944
355.00,15.164
356.00,15.361
357.00,15.536
358.00,15.672
359.00,15.836
360.00,15.963
361.00,16.080
362.00,16.192
363.00,16.313
364.00,16.378
365.00,16.456
366.00,16.537
367.00,16.531
368.00,16.587
369.00,16.605
370.00,16.629
371.00,16.671
372.00,16.635
373.00,16.650
374.00,16.623
375.00,16.604
376.00,16.554
377.00,16.519
378.00,16.463
379.00,16.410
380.00,16.380
381.00,16.382
382.00,16.331
383.00,16.327
384.00,16.350
385.00,16.365
386.00,16.334
387.00,16.342
388.00,16.377
389.00,16.391
390.00,16.374
391.00,16.387
392.00,16.410
393.00,16.395
394.00,16.376
395.00,16.380
396.00,16.392
397.00,16.363
398.00,16.356
399.00,16.344
400.00,16.357
401.00,16.325
402.00,16.336
403.00,16.303
404.00,16.345
405.00,16.317
406.00,16.329
407.00,16.326
408.00,16.298
409.00,16.242
410.00,16.216
411.00,16.219
412.00,16.187
413.00,16.177
414.00,16.183
415.00,16.187
416.00,16.205
417.00,16.211
418.00,16.237
419.00,16.235
420.00,16.253
421.00,16.280
422.00,16.287
423.00,16.313
424.00,16.339
425.00,16.369
426.00,16.400
427.00,16.381
428.00,16.492
429.00,16.503
430.00,16.574
431.00,16.589
432.00,16.642
433.00,16.708
434.00,16.740
435.00,16.790
436.00,16.846
437.00,16.901
438.00,16.977
439.00,17.034
440.00,17.091
441.00,17.178
442.00,17.218
443.00,17.323
444.00,17.407
445.00,17.485
446.00,17.565
447.00,17.675
448.00,17.745
449.00,17.855
450.00,17.929
451.00,18.015
452.00,18.140
453.00,18.236
454.00,18.312
455.00,18.427
456.00,18.545
457.00,18.645
458.00,18.769
459.00,18.882
460.00,18.998
461.00,19.091
462.00,19.217
463.00,19.365
464.00,19.474
465.00,19.604
466.00,19.735
467.00,19.810
468.00,19.939
469.00,20.071
470.00,20.140
471.00,20.265
472.00,20.406
473.00,20.472
474.00,20.666
475.00,20.774
476.00,20.874
477.00,21.007
478.00,21.157
479.00,21.297
480.00,21.428
481.00,21.578
482.00,21.769
483.00,21.879
484.00,22.022
485.00,22.182
486.00,22.324
487.00,22.474
488.00,22.622
489.00,22.782
490.00,22.906
491.00,23.082
492.00,23.210
493.00,23.374
494.00,23.476
495.00,23.602
496.00,23.710
497.00,23.807
498.00,24.006
499.00,24.036
500.00,24.261
501.00,24.405
502.00,24.531
503.00,24.687
504.00,24.789
505.00,24.959
506.00,25.105
507.00,25.186
508.00,25.335
509.00,25.477
510.00,25.587
511.00,25.702
512.00,25.872
513.00,25.993
514.00,26.155
515.00,26.270
516.00,26.419
517.00,26.515
518.00,26.627
519.00,26.756
520.00,26.813
521.00,26.925
522.00,27.045
523.00,27.146
524.00,27.211
525.00,27.356
526.00,27.418
527.00,27.566
528.00,27.642
529.00,27.739
530.00,27.855
531.00,28.020
532.00,28.096
533.00,28.231
534.00,28.317
535.00,28.412
536.00,28.509
537.00,28.571
538.00,28.681
539.00,28.776
540.00,28.832
541.00,28.926
542.00,28.983
543.00,29.009
544.00,29.188
545.00,29.243
546.00,29.305
547.00,29.431
548.00,29.504
549.00,29.569
550.00,29.685
551.00,29.746
552.00,29.847
553.00,29.912
554.00,29.996
555.00,30.100
556.00,30.091
557.00,30.165
558.00,30.254
559.00,30.290
560.00,30.394
561.00,30.418
562.00,30.520
563.00,30.568
564.00,30.654
565.00,30.667
566.00,30.746
567.00,30.807
568.00,30.757
569.00,30.900
570.00,30.919
571.00,30.931
572.00,31.017
573.00,31.009
574.00,31.030
575.00,31.198
576.00,31.216
577.00,31.314
578.00,31.388
579.00,31.425
580.00,31.498
581.00,31.599
582.00,31.688
583.00,31.765
584.00,31.844
585.00,31.899
586.00,31.927
587.00,32.051
588.00,32.082
589.00,32.123
590.00,32.183
591.00,32.216
592.00,32.226
593.00,32.295
594.00,32.370
595.00,32.448
596.00,32.488
597.00,32.569
598.00,32.650
599.00,32.689
600.00,32.750
601.00,32.783
602.00,32.811
603.00,32.880
604.00,32.898
605.00,32.964
606.00,33.034
607.00,33.074
608.00,33.163
609.00,33.187
610.00,33.284
611.00,33.305
612.00,33.380
613.00,33.394
614.00,33.514
615.00,33.524
616.00,33.680
617.00,33.668
618.00,33.737
619.00,33.839
620.00,33.838
621.00,33.922
622.00,33.995
623.00,34.072
624.00,34.164
625.00,34.196
626.00,34.259
627.00,34.369
628.00,34.426
629.00,34.526
630.00,34.583
631.00,34.657
632.00,34.678
633.00,34.809
634.00,34.936
635.00,34.974
636.00,35.071
637.00,35.207
638.00,35.223
639.00,35.331
640.00,35.306
641.00,35.386
642.00,35.602
643.00,35.616
644.00,35.771
645.00,35.849
646.00,35.867
647.00,36.090
648.00,36.143
649.00,36.293
650.00,36.373
651.00,36.461
652.00,36.540
653.00,36.653
654.00,36.742
655.00,36.846
656.00,36.972
657.00,37.130
658.00,37.219
659.00,37.438
660.00,37.529
661.00,37.583
662.00,37.692
663.00,37.711
664.00,37.918
665.00,37.950
666.00,38.054
667.00,38.158
668.00,38.191
669.00,38.383
670.00,38.514
671.00,38.661
672.00,38.713
673.00,38.853
674.00,38.981
675.00,39.096
676.00,39.203
677.00,39.290
678.00,39.409
679.00,39.559
680.00,39.649
681.00,39.831
682.00,39.940
683.00,40.012
684.00,40.238
685.00,40.279
686.00,40.362
687.00,40.435
688.00,40.545
689.00,40.664
690.00,40.839
691.00,40.888
692.00,41.088
693.00,41.147
694.00,41.209
695.00,41.333
696.00,41.469
697.00,41.559
698.00,41.830
699.00,41.984
700.00,42.038
701.00,42.024
702.00,42.226
703.00,42.320
704.00,42.493
705.00,42.561
706.00,42.766
707.00,42.877
708.00,42.816
709.00,42.932
710.00,43.247
711.00,43.103
712.00,43.153
713.00,43.348
714.00,43.456
715.00,43.473
716.00,43.716
717.00,43.686
718.00,43.683
719.00,43.920
720.00,43.911
721.00,48.028
722.00,48.141
723.00,48.155
724.00,48.178
725.00,48.250
726.00,48.336
727.00,48.415
728.00,48.400
729.00,48.459
730.00,48.559
731.00,48.560
732.00,48.678
733.00,48.638
734.00,48.740
735.00,48.831
736.00,48.919
737.00,48.918
738.00,49.009
739.00,48.970
740.00,49.107
741.00,49.119
742.00,49.148
743.00,49.243
744.00,49.260
745.00,49.311
746.00,49.402
747.00,49.278
748.00,49.419
749.00,49.394
750.00,49.498
751.00,49.524
752.00,49.496
753.00,49.603
754.00,49.620
755.00,49.587
756.00,49.677
757.00,49.670
758.00,49.725
759.00,49.639
760.00,49.722
761.00,49.790
762.00,49.856
763.00,49.841
764.00,49.869
765.00,49.888
766.00,49.973
767.00,50.017
768.00,50.066
769.00,50.050
770.00,50.098
771.00,50.038
772.00,50.157
773.00,50.168
774.00,50.149
775.00,50.244
776.00,50.274
777.00,50.302
778.00,50.305
779.00,50.305
780.00,50.263
781.00,50.360
782.00,50.366
783.00,50.405
784.00,50.401
785.00,50.347
786.00,50.407
787.00,50.425
788.00,50.342
789.00,50.367
790.00,50.347
791.00,50.394
792.00,50.336
793.00,50.441
794.00,50.330
795.00,50.350
796.00,50.485
797.00,50.465
798.00,50.473
799.00,50.411
800.00,50.476
801.00,50.397
802.00,50.437
803.00,50.424
804.00,50.407
805.00,50.370
806.00,50.422
807.00,50.403
808.00,50.380
809.00,50.380
810.00,50.382
811.00,50.354
812.00,50.488
813.00,50.365
814.00,50.340
815.00,50.308
816.00,50.346
817.00,50.427
818.00,50.276
819.00,50.365
820.00,50.287
821.00,50.325
822.00,50.312
823.00,50.293
824.00,50.415
825.00,50.303
826.00,50.313
827.00,50.325
828.00,50.370
829.00,50.217
830.00,50.298
831.00,52.782
832.00,52.805
833.00,52.722
834.00,52.761
835.00,52.713
836.00,52.705
837.00,52.701
838.00,52.667
839.00,52.658
840.00,52.634
841.00,52.642
842.00,52.619
843.00,52.643
844.00,52.611
845.00,52.599
846.00,52.618
847.00,52.541
848.00,52.563
849.00,52.502
850.00,52.489
851.00,52.450
852.00,52.450
853.00,52.404
854.00,52.399
855.00,52.358
856.00,52.325
857.00,52.320
858.00,52.323
859.00,52.275
860.00,52.282
861.00,52.249
862.00,52.254
863.00,52.265
864.00,52.220
865.00,52.249
866.00,52.232
867.00,52.242
868.00,52.215
869.00,52.203
870.00,52.192
871.00,52.204
872.00,52.183
873.00,52.155
874.00,52.144
875.00,52.146
876.00,52.150
877.00,52.123
878.00,52.081
879.00,52.104
880.00,52.105
881.00,52.076
882.00,52.080
883.00,52.080
884.00,52.009
885.00,51.999
886.00,51.993
887.00,51.979
888.00,51.972
889.00,51.939
890.00,51.934
891.00,51.938
892.00,51.883
893.00,51.881
894.00,51.869
895.00,51.838
896.00,51.831
897.00,51.807
898.00,51.799
899.00,51.793
900.00,51.801
901.00,51.825
902.00,51.806
903.00,51.739
904.00,51.716
905.00,51.715
906.00,51.683
907.00,51.673
908.00,51.643
909.00,51.639
910.00,51.607
911.00,51.589
912.00,51.622
913.00,51.536
914.00,51.544
915.00,51.537
916.00,51.473
917.00,51.506
918.00,51.457
919.00,51.464
920.00,51.445
921.00,51.426
922.00,51.415
923.00,51.388
924.00,51.376
925.00,51.361
926.00,51.345
927.00,51.317
928.00,51.299
929.00,51.287
930.00,51.263
931.00,51.244
932.00,51.212
933.00,51.221
934.00,51.216
935.00,51.182
936.00,51.157
937.00,51.148
938.00,51.146
939.00,51.148
940.00,51.115
941.00,51.103
942.00,51.054
943.00,51.058
944.00,51.036
945.00,51.017
946.00,51.001
947.00,50.990
948.00,50.961
949.00,50.930
950.00,50.912
951.00,50.899
952.00,50.869
953.00,50.841
954.00,50.820
955.00,50.801
956.00,50.779
957.00,50.757
958.00,50.768
959.00,50.721
960.00,50.710
961.00,50.692
962.00,50.704
963.00,50.660
964.00,50.650
965.00,50.630
966.00,50.641
967.00,50.624
968.00,50.594
969.00,50.604
970.00,50.598
971.00,50.614
972.00,50.556
973.00,50.610
974.00,50.626
975.00,50.614
976.00,50.617
977.00,50.589
978.00,50.661
979.00,50.590
980.00,50.614
981.00,50.608
982.00,50.576
983.00,50.583
984.00,50.572
985.00,50.587
986.00,50.540
987.00,50.563
988.00,50.545
989.00,50.522
990.00,50.520
991.00,50.517
992.00,50.529
993.00,50.489
994.00,50.481
995.00,50.482
996.00,50.469
997.00,50.443
998.00,50.422
999.00,50.457
1000.00,50.389
1001.00,50.407
1002.00,50.403
1003.00,50.411
1004.00,50.365
1005.00,50.350
1006.00,50.360
1007.00,50.325
1008.00,50.299
1009.00,50.336
1010.00,50.289
1011.00,50.269
1012.00,50.248
1013.00,50.264
1014.00,50.229
1015.00,50.238
1016.00,50.196
1017.00,50.209
1018.00,50.178
1019.00,50.149
1020.00,50.140
1021.00,50.137
1022.00,50.126
1023.00,50.078
1024.00,50.083
1025.00,50.064
1026.00,50.062
1027.00,50.035
1028.00,50.023
1029.00,50.020
1030.00,49.985
1031.00,49.984
1032.00,49.951
1033.00,49.948
1034.00,49.913
1035.00,49.895
1036.00,49.866
1037.00,49.852
1038.00,49.830
1039.00,49.809
1040.00,49.813
1041.00,49.776
1042.00,49.765
1043.00,49.744
1044.00,49.775
1045.00,49.754
1046.00,49.751
1047.00,49.742
1048.00,49.757
1049.00,49.768
1050.00,49.766
1051.00,49.795
1052.00,49.804
1053.00,49.816
1054.00,49.822
1055.00,49.823
1056.00,49.829
1057.00,49.848
1058.00,49.836
1059.00,49.833
1060.00,49.837
1061.00,49.829
1062.00,49.810
1063.00,49.811
1064.00,49.786
1065.00,49.792
1066.00,49.753
1067.00,49.776
1068.00,49.779
1069.00,49.752
1070.00,49.741
1071.00,49.731
1072.00,49.731
1073.00,49.702
1074.00,49.698
1075.00,49.685
1076.00,49.671
1077.00,49.663
1078.00,49.658
1079.00,49.646
1080.00,49.643
1081.00,49.624
1082.00,49.632
1083.00,49.621
1084.00,49.618
1085.00,49.604
1086.00,49.597
1087.00,49.594
1088.00,49.569
1089.00,49.565
1090.00,49.564
1091.00,49.554
1092.00,49.551
1093.00,49.522
1094.00,49.514
1095.00,49.503
1096.00,49.495
1097.00,49.480
1098.00,49.485
1099.00,49.458
1100.00,49.460
1101.00,49.446
1102.00,49.440
1103.00,49.426
1104.00,49.422
1105.00,49.393
1106.00,49.388
1107.00,49.383
1108.00,49.376
1109.00,49.366
1110.00,49.363
1111.00,49.357
1112.00,49.358
1113.00,49.328
1114.00,49.343
1115.00,49.346
1116.00,49.333
1117.00,49.311
1118.00,49.296
1119.00,49.287
1120.00,49.289
1121.00,49.269
1122.00,49.260
1123.00,49.266
1124.00,49.259
1125.00,49.244
1126.00,49.248
1127.00,49.244
1128.00,49.252
1129.00,49.211
1130.00,49.219
1131.00,49.227
1132.00,49.189
1133.00,49.177
1134.00,49.189
1135.00,49.163
1136.00,49.155
1137.00,49.163
1138.00,49.156
1139.00,49.151
1140.00,49.147
1141.00,49.136
1142.00,49.147
1143.00,49.132
1144.00,49.114
1145.00,49.115
1146.00,49.112
1147.00,49.105
1148.00,49.105
1149.00,49.106
1150.00,49.099
1151.00,49.084
1152.00,49.076
1153.00,49.082
1154.00,49.069
1155.00,49.067
1156.00,49.066
1157.00,49.072
1158.00,49.062
1159.00,49.053
1160.00,49.048
1161.00,49.063
1162.00,49.036
1163.00,49.041
1164.00,49.049
1165.00,49.033
1166.00,49.030
1167.00,49.037
1168.00,49.035
1169.00,49.025
1170.00,49.028
1171.00,49.003
1172.00,49.012
1173.00,48.999
1174.00,49.006
1175.00,49.011
1176.00,49.008
1177.00,48.998
1178.00,49.004
1179.00,49.020
1180.00,48.999
1181.00,49.012
1182.00,49.010
1183.00,48.998
1184.00,48.976
1185.00,49.009
1186.00,48.996
1187.00,48.992
1188.00,48.973
1189.00,48.988
1190.00,48.967
1191.00,48.974
1192.00,48.980
1193.00,48.974
1194.00,48.978
1195.00,48.954
1196.00,48.974
1197.00,48.977
1198.00,48.958
1199.00,48.950
1200.00,48.954
1201.00,48.954
1202.00,48.952
1203.00,48.951
1204.00,48.937
1205.00,48.943
1206.00,48.937
1207.00,48.954
1208.00,48.944
1209.00,48.926
1210.00,48.937
1211.00,48.932
1212.00,48.942
1213.00,48.919
1214.00,48.952
1215.00,48.927
1216.00,48.935
1217.00,48.937
1218.00,48.926
1219.00,48.940
1220.00,48.924
1221.00,48.941
1222.00,48.935
1223.00,48.927
1224.00,48.927
1225.00,48.923
1226.00,48.925
1227.00,48.926
1228.00,48.925
1229.00,48.935
1230.00,48.972
1231.00,48.950
1232.00,48.968
1233.00,48.959
1234.00,48.976
1235.00,48.967
1236.00,48.968
1237.00,48.959
1238.00,48.968
1239.00,48.970
1240.00,48.968
1241.00,48.967
1242.00,48.965
1243.00,48.983
1244.00,48.958
1245.00,48.978
1246.00,48.985
1247.00,48.984
1248.00,48.973
1249.00,48.984
1250.00,48.976
1251.00,48.975
1252.00,49.000
1253.00,48.986
1254.00,49.004
1255.00,49.002
1256.00,48.969
1257.00,48.961
1258.00,49.001
1259.00,49.003
1260.00,49.016
1261.00,49.009
1262.00,49.011
1263.00,49.004
1264.00,49.011
1265.00,49.013
1266.00,49.034
1267.00,49.042
1268.00,49.046
1269.00,49.024
1270.00,49.041
1271.00,49.041
1272.00,49.044
1273.00,49.050
1274.00,49.062
1275.00,49.050
1276.00,49.062
1277.00,49.061
1278.00,49.067
1279.00,49.067
1280.00,49.079
1281.00,49.086
1282.00,49.100
1283.00,49.071
1284.00,49.075
1285.00,49.062
1286.00,49.074
1287.00,49.071
1288.00,49.087
1289.00,49.081
1290.00,49.100
1291.00,49.110
1292.00,49.117
1293.00,49.103
1294.00,49.117
1295.00,49.125
1296.00,49.130
1297.00,49.136
1298.00,49.144
1299.00,49.137
1300.00,49.139
1301.00,49.142
1302.00,49.144
1303.00,49.164
1304.00,49.143
1305.00,49.171
1306.00,49.173
1307.00,49.181
1308.00,49.170
1309.00,49.174
1310.00,49.188
1311.00,49.144
1312.00,49.165
1313.00,49.203
1314.00,49.193
1315.00,49.199
1316.00,49.198
1317.00,49.207
1318.00,49.209
1319.00,49.208
1320.00,49.241
1321.00,49.078
1322.00,49.102
1323.00,49.084
1324.00,49.086
1325.00,49.066
1326.00,49.108
1327.00,49.091
1328.00,49.105
1329.00,49.113
1330.00,49.108
1331.00,49.112
1332.00,49.116
1333.00,49.123
1334.00,49.142
1335.00,49.153
1336.00,49.212
1337.00,49.195
1338.00,49.279
1339.00,49.327
1340.00,49.378
1341.00,49.439
1342.00,49.514
1343.00,49.602
1344.00,49.592
1345.00,49.645
1346.00,49.681
1347.00,49.702
1348.00,49.737
1349.00,49.745
1350.00,49.753
1351.00,49.766
1352.00,49.749
1353.00,49.780
1354.00,49.781
1355.00,49.798
1356.00,49.812
1357.00,49.826
1358.00,49.767
1359.00,49.808
1360.00,49.812
1361.00,49.805
1362.00,49.747
1363.00,49.871
1364.00,49.856
1365.00,49.803
1366.00,49.833
1367.00,49.812
1368.00,49.765
1369.00,49.791
1370.00,49.804
1371.00,49.752
1372.00,49.779
1373.00,49.772
1374.00,49.797
1375.00,49.775
1376.00,49.778
1377.00,49.777
1378.00,49.783
1379.00,49.764
1380.00,49.793
1381.00,49.767
1382.00,49.820
1383.00,49.761
1384.00,49.767
1385.00,49.773
1386.00,49.781
1387.00,49.725
1388.00,49.729
1389.00,49.707
1390.00,49.801
1391.00,49.752
1392.00,49.772
1393.00,49.763
1394.00,49.773
1395.00,49.757
1396.00,49.723
1397.00,49.725
1398.00,49.777
1399.00,49.767
1400.00,49.711
1401.00,49.743
1402.00,49.745
1403.00,49.729
1404.00,49.793
1405.00,49.826
1406.00,49.800
1407.00,49.828
1408.00,49.818
1409.00,49.813
1410.00,49.838
1411.00,49.847
1412.00,49.868
1413.00,49.835
1414.00,49.853
1415.00,49.884
1416.00,49.891
1417.00,49.896
1418.00,49.894
1419.00,49.907
1420.00,49.929
1421.00,49.938
1422.00,49.952
1423.00,49.951
1424.00,49.967
1425.00,49.973
1426.00,49.988
1427.00,50.003
1428.00,50.021
1429.00,50.010
1430.00,50.045
1431.00,50.043
1432.00,50.060
1433.00,50.085
1434.00,50.065
1435.00,50.105
1436.00,50.120
1437.00,50.113
1438.00,50.126
1439.00,50.155
1440.00,50.157
1441.00,50.172
1442.00,50.175
1443.00,50.206
1444.00,50.212
1445.00,50.220
1446.00,50.223
1447.00,50.258
1448.00,50.263
1449.00,50.287
1450.00,50.305
1451.00,50.293
1452.00,50.294
1453.00,50.302
1454.00,50.322
1455.00,50.349
1456.00,50.356
1457.00,50.369
1458.00,50.382
1459.00,50.401
1460.00,50.398
1461.00,50.423
1462.00,50.429
1463.00,50.445
1464.00,50.459
1465.00,50.475
1466.00,50.471
1467.00,50.487
1468.00,50.527
1469.00,50.533
1470.00,50.535
1471.00,50.568
1472.00,50.575
1473.00,50.589
1474.00,50.611
1475.00,50.615
1476.00,50.636
1477.00,50.627
1478.00,50.640
1479.00,50.666
1480.00,50.667
1481.00,50.682
1482.00,50.712
1483.00,50.709
1484.00,50.726
1485.00,50.751
1486.00,50.743
1487.00,50.770
1488.00,50.777
1489.00,50.788
1490.00,50.800
1491.00,50.815
1492.00,50.829
1493.00,50.837
1494.00,50.854
1495.00,50.868
1496.00,50.857
1497.00,50.882
1498.00,50.888
1499.00,50.909
1500.00,50.934
1501.00, 
1502.00, 
1503.00, 
1504.00, 
1505.00, 
1506.00, 
1507.00, 
1508.00, 
1509.00, 
1510.00, 
1511.00, 
1512.00, 
1513.00, 
1514.00, 
1515.00, 
1516.00, 
1517.00, 
1518.00, 
1519.00, 
1520.00, 
1521.00, 
1522.00, 
1523.00, 
1524.00, 
1525.00, 
1526.00, 
1527.00, 
1528.00, 
1529.00, 
1530.00, 
1531.00, 
1532.00, 
1533.00, 
1534.00, 
1535.00, 
1536.00, 
1537.00, 
1538.00, 
1539.00, 
1540.00, 
1541.00, 
1542.00, 
1543.00, 
1544.00, 
1545.00, 
1546.00, 
1547.00, 
1548.00, 
1549.00, 
1550.00, 
1551.00, 
1552.00, 
1553.00, 
1554.00, 
1555.00, 
1556.00, 
1557.00, 
1558.00, 
1559.00, 
1560.00, 
1561.00, 
1562.00, 
1563.00, 
1564.00, 
1565.00, 
1566.00, 
1567.00, 
1568.00, 
1569.00, 
1570.00, 
1571.00, 
1572.00, 
1573.00, 
1574.00, 
1575.00, 
1576.00, 
1577.00, 
1578.00, 
1579.00, 
1580.00, 
1581.00, 
1582.00, 
1583.00, 
1584.00, 
1585.00, 
1586.00, 
1587.00, 
1588.00, 
1589.00, 
1590.00, 
1591.00, 
1592.00, 
1593.00, 
1594.00, 
1595.00, 
1596.00, 
1597.00, 
1598.00, 
1599.00, 
1600.00, 
1601.00, 
1602.00, 
1603.00, 
1604.00, 
1605.00, 
1606.00, 
1607.00, 
1608.00, 
1609.00, 
1610.00, 
1611.00, 
1612.00, 
1613.00, 
1614.00, 
1615.00, 
1616.00, 
1617.00, 
1618.00, 
1619.00, 
1620.00, 
1621.00, 
1622.00, 
1623.00, 
1624.00, 
1625.00, 
1626.00, 
1627.00, 
1628.00, 
1629.00, 
1630.00, 
1631.00, 
1632.00, 
1633.00, 
1634.00, 
1635.00, 
1636.00, 
1637.00, 
1638.00, 
1639.00, 
1640.00, 
1641.00, 
1642.00, 
1643.00, 
1644.00, 
1645.00, 
1646.00, 
1647.00, 
1648.00, 
1649.00, 
1650.00, 
1651.00, 
1652.00, 
1653.00, 
1654.00, 
1655.00, 
1656.00, 
1657.00, 
1658.00, 
1659.00, 
1660.00, 
1661.00, 
1662.00, 
1663.00, 
1664.00, 
1665.00, 
1666.00, 
1667.00, 
1668.00, 
1669.00, 
1670.00, 
1671.00, 
1672.00, 
1673.00, 
1674.00, 
1675.00, 
1676.00, 
1677.00, 
1678.00, 
1679.00, 
1680.00, 
1681.00, 
1682.00, 
1683.00, 
1684.00, 
1685.00, 
1686.00, 
1687.00, 
1688.00, 
1689.00, 
1690.00, 
1691.00, 
1692.00, 
1693.00, 
1694.00, 
1695.00, 
1696.00, 
1697.00, 
1698.00, 
1699.00, 
1700.00, 
1701.00, 
1702.00, 
1703.00, 
1704.00, 
1705.00, 
1706.00, 
1707.00, 
1708.00, 
1709.00, 
1710.00, 
1711.00, 
1712.00, 
1713.00, 
1714.00, 
1715.00, 
1716.00, 
1717.00, 
1718.00, 
1719.00, 
1720.00, 
1721.00, 
1722.00, 
1723.00, 
1724.00, 
1725.00, 
1726.00, 
1727.00, 
1728.00, 
1729.00, 
1730.00, 
1731.00, 
1732.00, 
1733.00, 
1734.00, 
1735.00, 
1736.00, 
1737.00, 
1738.00, 
1739.00, 
1740.00, 
1741.00, 
1742.00, 
1743.00, 
1744.00, 
1745.00, 
1746.00, 
1747.00, 
1748.00, 
1749.00, 
1750.00, 
1751.00, 
1752.00, 
1753.00, 
1754.00, 
1755.00, 
1756.00, 
1757.00, 
1758.00, 
1759.00, 
1760.00, 
1761.00, 
1762.00, 
1763.00, 
1764.00, 
1765.00, 
1766.00, 
1767.00, 
1768.00, 
1769.00, 
1770.00, 
1771.00, 
1772.00, 
1773.00, 
1774.00, 
1775.00, 
1776.00, 
1777.00, 
1778.00, 
1779.00, 
1780.00, 
1781.00, 
1782.00, 
1783.00, 
1784.00, 
1785.00, 
1786.00, 
1787.00, 
1788.00, 
1789.00, 
1790.00, 
1791.00, 
1792.00, 
1793.00, 
1794.00, 
1795.00, 
1796.00, 
1797.00, 
1798.00, 
1799.00, 
1800.00, 
1801.00, 
1802.00, 
1803.00, 
1804.00, 
1805.00, 
1806.00, 
1807.00, 
1808.00, 
1809.00, 
1810.00, 
1811.00, 
1812.00, 
1813.00, 
1814.00, 
1815.00, 
1816.00, 
1817.00, 
1818.00, 
1819.00, 
1820.00, 
1821.00, 
1822.00, 
1823.00, 
1824.00, 
1825.00, 
1826.00, 
1827.00, 
1828.00, 
1829.00, 
1830.00, 
1831.00, 
1832.00, 
1833.00, 
1834.00, 
1835.00, 
1836.00, 
1837.00, 
1838.00, 
1839.00, 
1840.00, 
1841.00, 
1842.00, 
1843.00, 
1844.00, 
1845.00, 
1846.00, 
1847.00, 
1848.00, 
1849.00, 
1850.00, 
1851.00, 
1852.00, 
1853.00, 
1854.00, 
1855.00, 
1856.00, 
1857.00, 
1858.00, 
1859.00, 
1860.00, 
1861.00, 
1862.00, 
1863.00, 
1864.00, 
1865.00, 
1866.00, 
1867.00, 
1868.00, 
1869.00, 
1870.00, 
1871.00, 
1872.00, 
1873.00, 
1874.00, 
1875.00, 
1876.00, 
1877.00, 
1878.00, 
1879.00, 
1880.00, 
1881.00, 
1882.00, 
1883.00, 
1884.00, 
1885.00, 
1886.00, 
1887.00, 
1888.00, 
1889.00, 
1890.00, 
1891.00, 
1892.00, 
1893.00, 
1894.00, 
1895.00, 
1896.00, 
1897.00, 
1898.00, 
1899.00, 
1900.00, 
1901.00, 
1902.00, 
1903.00, 
1904.00, 
1905.00, 
1906.00, 
1907.00, 
1908.00, 
1909.00, 
1910.00, 
1911.00, 
1912.00, 
1913.00, 
1914.00, 
1915.00, 
1916.00, 
1917.00, 
1918.00, 
1919.00, 
1920.00, 
1921.00, 
1922.00, 
1923.00, 
1924.00, 
1925.00, 
1926.00, 
1927.00, 
1928.00, 
1929.00, 
1930.00, 
1931.00, 
1932.00, 
1933.00, 
1934.00, 
1935.00, 
1936.00, 
1937.00, 
1938.00, 
1939.00, 
1940.00, 
1941.00, 
1942.00, 
1943.00, 
1944.00, 
1945.00, 
1946.00, 
1947.00, 
1948.00, 
1949.00, 
1950.00, 
1951.00, 
1952.00, 
1953.00, 
1954.00, 
1955.00, 
1956.00, 
1957.00, 
1958.00, 
1959.00, 
1960.00, 
1961.00, 
1962.00, 
1963.00, 
1964.00, 
1965.00, 
1966.00, 
1967.00, 
1968.00, 
1969.00, 
1970.00, 
1971.00, 
1972.00, 
1973.00, 
1974.00, 
1975.00, 
1976.00, 
1977.00, 
1978.00, 
1979.00, 
1980.00, 
1981.00, 
1982.00, 
1983.00, 
1984.00, 
1985.00, 
1986.00, 
1987.00, 
1988.00, 
1989.00, 
1990.00, 
1991.00, 
1992.00, 
1993.00, 
1994.00, 
1995.00, 
1996.00, 
1997.00, 
1998.00, 
1999.00, 
2000.00, 
2001.00, 
2002.00, 
2003.00, 
2004.00, 
2005.00, 
2006.00, 
2007.00, 
2008.00, 
2009.00, 
2010.00, 
2011.00, 
2012.00, 
2013.00, 
2014.00, 
2015.00, 
2016.00, 
2017.00, 
2018.00, 
2019.00, 
2020.00, 
2021.00, 
2022.00, 
2023.00, 
2024.00, 
2025.00, 
2026.00, 
2027.00, 
2028.00, 
2029.00, 
2030.00, 
2031.00, 
2032.00, 
2033.00, 
2034.00, 
2035.00, 
2036.00, 
2037.00, 
2038.00, 
2039.00, 
2040.00, 
2041.00, 
2042.00, 
2043.00, 
2044.00, 
2045.00, 
2046.00, 
2047.00, 
2048.00, 
2049.00, 
2050.00, 
2051.00, 
2052.00, 
2053.00, 
2054.00, 
2055.00, 
2056.00, 
2057.00, 
2058.00, 
2059.00, 
2060.00, 
2061.00, 
2062.00, 
2063.00, 
2064.00, 
2065.00, 
2066.00, 
2067.00, 
2068.00, 
2069.00, 
2070.00, 
2071.00, 
2072.00, 
2073.00, 
2074.00, 
2075.00, 
2076.00, 
2077.00, 
2078.00, 
2079.00, 
2080.00, 
2081.00, 
2082.00, 
2083.00, 
2084.00, 
2085.00, 
2086.00, 
2087.00, 
2088.00, 
2089.00, 
2090.00, 
2091.00, 
2092.00, 
2093.00, 
2094.00, 
2095.00, 
2096.00, 
2097.00, 
2098.00, 
2099.00, 
2100.00, 
2101.00, 
2102.00, 
2103.00, 
2104.00, 
2105.00, 
2106.00, 
2107.00, 
2108.00, 
2109.00, 
2110.00, 
2111.00, 
2112.00, 
2113.00, 
2114.00, 
2115.00, 
2116.00, 
2117.00, 
2118.00, 
2119.00, 
2120.00, 
2121.00, 
2122.00, 
2123.00, 
2124.00, 
2125.00, 
2126.00, 
2127.00, 
2128.00, 
2129.00, 
2130.00, 
2131.00, 
2132.00, 
2133.00, 
2134.00, 
2135.00, 
2136.00, 
2137.00, 
2138.00, 
2139.00, 
2140.00, 
2141.00, 
2142.00, 
2143.00, 
2144.00, 
2145.00, 
2146.00, 
2147.00, 
2148.00, 
2149.00, 
2150.00, 
2151.00, 
2152.00, 
2153.00, 
2154.00, 
2155.00, 
2156.00, 
2157.00, 
2158.00, 
2159.00, 
2160.00, 
2161.00, 
2162.00, 
2163.00, 
2164.00, 
2165.00, 
2166.00, 
2167.00, 
2168.00, 
2169.00, 
2170.00, 
2171.00, 
2172.00, 
2173.00, 
2174.00, 
2175.00, 
2176.00, 
2177.00, 
2178.00, 
2179.00, 
2180.00, 
2181.00, 
2182.00, 
2183.00, 
2184.00, 
2185.00, 
2186.00, 
2187.00, 
2188.00, 
2189.00, 
2190.00, 
2191.00, 
2192.00, 
2193.00, 
2194.00, 
2195.00, 
2196.00, 
2197.00, 
2198.00, 
2199.00, 
2200.00, 
2201.00, 
2202.00, 
2203.00, 
2204.00, 
2205.00, 
2206.00, 
2207.00, 
2208.00, 
2209.00, 
2210.00, 
2211.00, 
2212.00, 
2213.00, 
2214.00, 
2215.00, 
2216.00, 
2217.00, 
2218.00, 
2219.00, 
2220.00, 
2221.00, 
2222.00, 
2223.00, 
2224.00, 
2225.00, 
2226.00, 
2227.00, 
2228.00, 
2229.00, 
2230.00, 
2231.00, 
2232.00, 
2233.00, 
2234.00, 
2235.00, 
2236.00, 
2237.00, 
2238.00, 
2239.00, 
2240.00, 
2241.00, 
2242.00, 
2243.00, 
2244.00, 
2245.00, 
2246.00, 
2247.00, 
2248.00, 
2249.00, 
2250.00, 
2251.00, 
2252.00, 
2253.00, 
2254.00, 
2255.00, 
2256.00, 
2257.00, 
2258.00, 
2259.00, 
2260.00, 
2261.00, 
2262.00, 
2263.00, 
2264.00, 
2265.00, 
2266.00, 
2267.00, 
2268.00, 
2269.00, 
2270.00, 
2271.00, 
2272.00, 
2273.00, 
2274.00, 
2275.00, 
2276.00, 
2277.00, 
2278.00, 
2279.00, 
2280.00, 
2281.00, 
2282.00, 
2283.00, 
2284.00, 
2285.00, 
2286.00, 
2287.00, 
2288.00, 
2289.00, 
2290.00, 
2291.00, 
2292.00, 
2293.00, 
2294.00, 
2295.00, 
2296.00, 
2297.00, 
2298.00, 
2299.00, 
2300.00, 
2301.00, 
2302.00, 
2303.00, 
2304.00, 
2305.00, 
2306.00, 
2307.00, 
2308.00, 
2309.00, 
2310.00, 
2311.00, 
2312.00, 
2313.00, 
2314.00, 
2315.00, 
2316.00, 
2317.00, 
2318.00, 
2319.00, 
2320.00, 
2321.00, 
2322.00, 
2323.00, 
2324.00, 
2325.00, 
2326.00, 
2327.00, 
2328.00, 
2329.00, 
2330.00, 
2331.00, 
2332.00, 
2333.00, 
2334.00, 
2335.00, 
2336.00, 
2337.00, 
2338.00, 
2339.00, 
2340.00, 
2341.00, 
2342.00, 
2343.00, 
2344.00, 
2345.00, 
2346.00, 
2347.00, 
2348.00, 
2349.00, 
2350.00, 
2351.00, 
2352.00, 
2353.00, 
2354.00, 
2355.00, 
2356.00, 
2357.00, 
2358.00, 
2359.00, 
2360.00, 
2361.00, 
2362.00, 
2363.00, 
2364.00, 
2365.00, 
2366.00, 
2367.00, 
2368.00, 
2369.00, 
2370.00, 
2371.00, 
2372.00, 
2373.00, 
2374.00, 
2375.00, 
2376.00, 
2377.00, 
2378.00, 
2379.00, 
2380.00, 
2381.00, 
2382.00, 
2383.00, 
2384.00, 
2385.00, 
2386.00, 
2387.00, 
2388.00, 
2389.00, 
2390.00, 
2391.00, 
2392.00, 
2393.00, 
2394.00, 
2395.00, 
2396.00, 
2397.00, 
2398.00, 
2399.00, 
2400.00, 
2401.00, 
2402.00, 
2403.00, 
2404.00, 
2405.00, 
2406.00, 
2407.00, 
2408.00, 
2409.00, 
2410.00, 
2411.00, 
2412.00, 
2413.00, 
2414.00, 
2415.00, 
2416.00, 
2417.00, 
2418.00, 
2419.00, 
2420.00, 
2421.00, 
2422.00, 
2423.00, 
2424.00, 
2425.00, 
2426.00, 
2427.00, 
2428.00, 
2429.00, 
2430.00, 
2431.00, 
2432.00, 
2433.00, 
2434.00, 
2435.00, 
2436.00, 
2437.00, 
2438.00, 
2439.00, 
2440.00, 
2441.00, 
2442.00, 
2443.00, 
2444.00, 
2445.00, 
2446.00, 
2447.00, 
2448.00, 
2449.00, 
2450.00, 
2451.00, 
2452.00, 
2453.00, 
2454.00, 
2455.00, 
2456.00, 
2457.00, 
2458.00, 
2459.00, 
2460.00, 
2461.00, 
2462.00, 
2463.00, 
2464.00, 
2465.00, 
2466.00, 
2467.00, 
2468.00, 
2469.00, 
2470.00, 
2471.00, 
2472.00, 
2473.00, 
2474.00, 
2475.00, 
2476.00, 
2477.00, 
2478.00, 
2479.00, 
2480.00, 
2481.00, 
2482.00, 
2483.00, 
2484.00, 
2485.00, 
2486.00, 
2487.00, 
2488.00, 
2489.00, 
2490.00, 
2491.00, 
2492.00, 
2493.00, 
2494.00, 
2495.00, 
2496.00, 
2497.00, 
2498.00, 
2499.00, 
2500.00, 
2501.00, 
2502.00, 
2503.00, 
2504.00, 
2505.00, 
2506.00, 
2507.00, 
2508.00, 
2509.00, 
2510.00, 
2511.00, 
2512.00, 
2513.00, 
2514.00, 
2515.00, 
2516.00, 
2517.00, 
2518.00, 
2519.00, 
2520.00, 
2521.00, 
2522.00, 
2523.00, 
2524.00, 
2525.00, 
2526.00, 
2527.00, 
2528.00, 
2529.00, 
2530.00, 
2531.00, 
2532.00, 
2533.00, 
2534.00, 
2535.00, 
2536.00, 
2537.00, 
2538.00, 
2539.00, 
2540.00, 
2541.00, 
2542.00, 
2543.00, 
2544.00, 
2545.00, 
2546.00, 
2547.00, 
2548.00, 
2549.00, 
2550.00, 
2551.00, 
2552.00, 
2553.00, 
2554.00, 
2555.00, 
2556.00, 
2557.00, 
2558.00, 
2559.00, 
2560.00, 
2561.00, 
2562.00, 
2563.00, 
2564.00, 
2565.00, 
2566.00, 
2567.00, 
2568.00, 
2569.00, 
2570.00, 
2571.00, 
2572.00, 
2573.00, 
2574.00, 
2575.00, 
2576.00, 
2577.00, 
2578.00, 
2579.00, 
2580.00, 
2581.00, 
2582.00, 
2583.00, 
2584.00, 
2585.00, 
2586.00, 
2587.00, 
2588.00, 
2589.00, 
2590.00, 
2591.00, 
2592.00, 
2593.00, 
2594.00, 
2595.00, 
2596.00, 
2597.00, 
2598.00, 
2599.00, 
2600.00, 
