"2cP4 - RawData"
"Wavelength nm.","T%"
200.00,-0.001
201.00,0.003
202.00,0.002
203.00,0.001
204.00,0.002
205.00,0.004
206.00,0.002
207.00,0.004
208.00,0.004
209.00,-0.002
210.00,0.002
211.00,0.001
212.00,0.002
213.00,-0.000
214.00,-0.000
215.00,0.000
216.00,0.001
217.00,-0.003
218.00,0.000
219.00,0.002
220.00,0.001
221.00,0.004
222.00,0.000
223.00,-0.001
224.00,0.004
225.00,0.000
226.00,-0.001
227.00,-0.002
228.00,0.000
229.00,0.001
230.00,0.000
231.00,0.000
232.00,0.001
233.00,0.001
234.00,0.002
235.00,-0.000
236.00,0.000
237.00,-0.000
238.00,-0.000
239.00,0.001
240.00,-0.002
241.00,0.001
242.00,0.000
243.00,0.001
244.00,-0.001
245.00,0.000
246.00,-0.000
247.00,0.001
248.00,0.001
249.00,0.002
250.00,-0.001
251.00,-0.001
252.00,0.001
253.00,0.001
254.00,-0.003
255.00,0.001
256.00,0.001
257.00,-0.001
258.00,0.000
259.00,-0.001
260.00,-0.001
261.00,0.001
262.00,-0.002
263.00,-0.000
264.00,-0.001
265.00,0.002
266.00,0.001
267.00,-0.001
268.00,-0.000
269.00,0.001
270.00,0.000
271.00,-0.000
272.00,-0.001
273.00,0.000
274.00,0.001
275.00,0.000
276.00,0.000
277.00,-0.000
278.00,0.001
279.00,0.000
280.00,0.001
281.00,-0.001
282.00,0.001
283.00,-0.000
284.00,0.001
285.00,0.000
286.00,0.001
287.00,0.001
288.00,-0.001
289.00,-0.000
290.00,-0.000
291.00,0.001
292.00,0.001
293.00,-0.000
294.00,-0.001
295.00,0.000
296.00,-0.001
297.00,-0.000
298.00,0.002
299.00,0.000
300.00,0.003
301.00,0.002
302.00,0.002
303.00,0.006
304.00,0.008
305.00,0.013
306.00,0.022
307.00,0.031
308.00,0.047
309.00,0.072
310.00,0.106
311.00,0.140
312.00,0.192
313.00,0.257
314.00,0.339
315.00,0.434
316.00,0.563
317.00,0.697
318.00,0.874
319.00,1.067
320.00,1.316
321.00,1.542
322.00,1.831
323.00,2.172
324.00,2.506
325.00,2.850
326.00,3.219
327.00,3.642
328.00,4.048
329.00,4.493
330.00,4.938
331.00,5.377
332.00,5.849
333.00,6.361
334.00,6.806
335.00,7.255
336.00,7.744
337.00,8.176
338.00,8.662
339.00,9.099
340.00,9.515
341.00,9.919
342.00,10.297
343.00,10.693
344.00,11.011
345.00,11.408
346.00,11.749
347.00,12.065
348.00,12.348
349.00,12.597
350.00,12.869
351.00,13.095
352.00,13.291
353.00,13.513
354.00,13.692
355.00,13.893
356.00,14.050
357.00,14.163
358.00,14.312
359.00,14.472
360.00,14.617
361.00,14.721
362.00,14.806
363.00,14.926
364.00,14.937
365.00,14.988
366.00,15.050
367.00,15.072
368.00,15.080
369.00,15.104
370.00,15.128
371.00,15.111
372.00,15.100
373.00,15.109
374.00,15.083
375.00,15.043
376.00,15.021
377.00,14.963
378.00,14.924
379.00,14.870
380.00,14.814
381.00,14.813
382.00,14.735
383.00,14.791
384.00,14.764
385.00,14.787
386.00,14.765
387.00,14.798
388.00,14.827
389.00,14.790
390.00,14.810
391.00,14.812
392.00,14.814
393.00,14.793
394.00,14.792
395.00,14.801
396.00,14.760
397.00,14.755
398.00,14.752
399.00,14.748
400.00,14.728
401.00,14.709
402.00,14.718
403.00,14.721
404.00,14.742
405.00,14.718
406.00,14.708
407.00,14.698
408.00,14.704
409.00,14.653
410.00,14.628
411.00,14.623
412.00,14.591
413.00,14.611
414.00,14.578
415.00,14.605
416.00,14.617
417.00,14.595
418.00,14.632
419.00,14.653
420.00,14.706
421.00,14.715
422.00,14.725
423.00,14.773
424.00,14.797
425.00,14.819
426.00,14.863
427.00,14.900
428.00,14.936
429.00,14.964
430.00,15.032
431.00,15.070
432.00,15.114
433.00,15.187
434.00,15.212
435.00,15.290
436.00,15.341
437.00,15.414
438.00,15.472
439.00,15.547
440.00,15.615
441.00,15.687
442.00,15.767
443.00,15.842
444.00,15.929
445.00,16.014
446.00,16.095
447.00,16.195
448.00,16.275
449.00,16.395
450.00,16.483
451.00,16.540
452.00,16.682
453.00,16.783
454.00,16.880
455.00,16.988
456.00,17.119
457.00,17.229
458.00,17.331
459.00,17.463
460.00,17.602
461.00,17.697
462.00,17.818
463.00,17.945
464.00,18.083
465.00,18.237
466.00,18.359
467.00,18.467
468.00,18.593
469.00,18.688
470.00,18.806
471.00,18.913
472.00,19.053
473.00,19.158
474.00,19.290
475.00,19.418
476.00,19.538
477.00,19.669
478.00,19.801
479.00,19.999
480.00,20.130
481.00,20.245
482.00,20.457
483.00,20.582
484.00,20.748
485.00,20.897
486.00,21.065
487.00,21.203
488.00,21.344
489.00,21.502
490.00,21.666
491.00,21.800
492.00,21.930
493.00,22.133
494.00,22.275
495.00,22.382
496.00,22.496
497.00,22.617
498.00,22.772
499.00,22.927
500.00,23.088
501.00,23.186
502.00,23.356
503.00,23.479
504.00,23.580
505.00,23.759
506.00,23.866
507.00,23.985
508.00,24.121
509.00,24.303
510.00,24.432
511.00,24.536
512.00,24.665
513.00,24.860
514.00,24.945
515.00,25.106
516.00,25.233
517.00,25.342
518.00,25.495
519.00,25.569
520.00,25.601
521.00,25.783
522.00,25.895
523.00,25.980
524.00,26.067
525.00,26.211
526.00,26.249
527.00,26.350
528.00,26.442
529.00,26.594
530.00,26.782
531.00,26.853
532.00,26.934
533.00,27.065
534.00,27.159
535.00,27.291
536.00,27.361
537.00,27.411
538.00,27.484
539.00,27.589
540.00,27.680
541.00,27.736
542.00,27.838
543.00,27.916
544.00,28.015
545.00,28.081
546.00,28.142
547.00,28.266
548.00,28.333
549.00,28.404
550.00,28.492
551.00,28.604
552.00,28.662
553.00,28.713
554.00,28.816
555.00,28.852
556.00,28.917
557.00,28.981
558.00,29.044
559.00,29.137
560.00,29.200
561.00,29.238
562.00,29.301
563.00,29.371
564.00,29.462
565.00,29.463
566.00,29.509
567.00,29.575
568.00,29.610
569.00,29.700
570.00,29.805
571.00,29.767
572.00,29.798
573.00,29.843
574.00,29.891
575.00,29.982
576.00,29.982
577.00,30.060
578.00,30.160
579.00,30.247
580.00,30.276
581.00,30.399
582.00,30.487
583.00,30.474
584.00,30.580
585.00,30.673
586.00,30.678
587.00,30.766
588.00,30.802
589.00,30.780
590.00,30.878
591.00,30.990
592.00,30.928
593.00,31.024
594.00,31.097
595.00,31.177
596.00,31.195
597.00,31.352
598.00,31.402
599.00,31.421
600.00,31.497
601.00,31.501
602.00,31.536
603.00,31.631
604.00,31.657
605.00,31.725
606.00,31.771
607.00,31.795
608.00,31.860
609.00,31.946
610.00,32.160
611.00,32.065
612.00,32.119
613.00,32.153
614.00,32.235
615.00,32.309
616.00,32.470
617.00,32.435
618.00,32.466
619.00,32.584
620.00,32.660
621.00,32.708
622.00,32.780
623.00,32.873
624.00,32.934
625.00,33.023
626.00,33.068
627.00,33.178
628.00,33.191
629.00,33.298
630.00,33.409
631.00,33.463
632.00,33.565
633.00,33.695
634.00,33.761
635.00,33.890
636.00,33.941
637.00,34.056
638.00,34.129
639.00,34.258
640.00,34.313
641.00,34.386
642.00,34.500
643.00,34.564
644.00,34.706
645.00,34.798
646.00,34.881
647.00,34.972
648.00,35.071
649.00,35.162
650.00,35.316
651.00,35.494
652.00,35.592
653.00,35.568
654.00,35.668
655.00,35.941
656.00,36.202
657.00,36.084
658.00,36.156
659.00,36.333
660.00,36.563
661.00,36.652
662.00,36.640
663.00,36.796
664.00,37.029
665.00,37.215
666.00,37.287
667.00,37.286
668.00,37.238
669.00,37.561
670.00,37.861
671.00,37.809
672.00,37.982
673.00,38.151
674.00,38.241
675.00,38.279
676.00,38.464
677.00,38.729
678.00,38.629
679.00,38.944
680.00,39.077
681.00,39.259
682.00,39.329
683.00,39.371
684.00,39.595
685.00,39.630
686.00,39.655
687.00,39.845
688.00,39.898
689.00,40.008
690.00,40.312
691.00,40.559
692.00,40.574
693.00,40.627
694.00,40.831
695.00,40.974
696.00,41.068
697.00,41.048
698.00,41.313
699.00,41.600
700.00,41.578
701.00,41.635
702.00,41.822
703.00,41.956
704.00,42.110
705.00,42.179
706.00,42.290
707.00,42.427
708.00,42.339
709.00,42.733
710.00,43.136
711.00,42.772
712.00,42.890
713.00,43.129
714.00,43.332
715.00,43.276
716.00,43.414
717.00,43.632
718.00,43.742
719.00,43.752
720.00,43.850
721.00,48.186
722.00,48.296
723.00,48.331
724.00,48.428
725.00,48.543
726.00,48.530
727.00,48.661
728.00,48.671
729.00,48.822
730.00,48.820
731.00,48.908
732.00,48.995
733.00,49.005
734.00,49.145
735.00,49.195
736.00,49.273
737.00,49.356
738.00,49.472
739.00,49.492
740.00,49.590
741.00,49.624
742.00,49.683
743.00,49.768
744.00,49.743
745.00,49.807
746.00,49.934
747.00,49.879
748.00,49.994
749.00,49.938
750.00,50.035
751.00,50.065
752.00,50.100
753.00,50.188
754.00,50.218
755.00,50.180
756.00,50.270
757.00,50.330
758.00,50.403
759.00,50.320
760.00,50.481
761.00,50.417
762.00,50.559
763.00,50.582
764.00,50.598
765.00,50.631
766.00,50.628
767.00,50.730
768.00,50.734
769.00,50.760
770.00,50.915
771.00,50.866
772.00,50.961
773.00,50.970
774.00,51.011
775.00,51.005
776.00,51.050
777.00,51.044
778.00,51.174
779.00,51.107
780.00,51.119
781.00,51.220
782.00,51.154
783.00,51.297
784.00,51.236
785.00,51.185
786.00,51.305
787.00,51.269
788.00,51.251
789.00,51.278
790.00,51.302
791.00,51.335
792.00,51.291
793.00,51.335
794.00,51.297
795.00,51.339
796.00,51.374
797.00,51.376
798.00,51.428
799.00,51.380
800.00,51.388
801.00,51.386
802.00,51.419
803.00,51.402
804.00,51.296
805.00,51.322
806.00,51.373
807.00,51.364
808.00,51.383
809.00,51.396
810.00,51.360
811.00,51.401
812.00,51.478
813.00,51.360
814.00,51.364
815.00,51.399
816.00,51.326
817.00,51.352
818.00,51.338
819.00,51.387
820.00,51.379
821.00,51.377
822.00,51.373
823.00,51.299
824.00,51.380
825.00,51.302
826.00,51.314
827.00,51.377
828.00,51.421
829.00,51.267
830.00,51.280
831.00,53.424
832.00,53.429
833.00,53.380
834.00,53.405
835.00,53.403
836.00,53.390
837.00,53.366
838.00,53.339
839.00,53.367
840.00,53.312
841.00,53.344
842.00,53.295
843.00,53.326
844.00,53.288
845.00,53.272
846.00,53.305
847.00,53.263
848.00,53.293
849.00,53.215
850.00,53.205
851.00,53.098
852.00,53.279
853.00,53.115
854.00,53.096
855.00,53.066
856.00,53.073
857.00,53.046
858.00,53.026
859.00,53.016
860.00,53.064
861.00,53.030
862.00,52.973
863.00,52.982
864.00,53.117
865.00,52.985
866.00,52.976
867.00,52.963
868.00,52.950
869.00,52.965
870.00,52.927
871.00,52.951
872.00,52.955
873.00,52.935
874.00,52.947
875.00,52.909
876.00,52.909
877.00,52.878
878.00,52.845
879.00,52.886
880.00,52.858
881.00,52.773
882.00,52.948
883.00,52.832
884.00,52.786
885.00,52.800
886.00,52.798
887.00,52.773
888.00,52.778
889.00,52.747
890.00,52.749
891.00,52.725
892.00,52.686
893.00,52.666
894.00,52.678
895.00,52.629
896.00,52.609
897.00,52.607
898.00,52.598
899.00,52.585
900.00,52.567
901.00,52.573
902.00,52.554
903.00,52.504
904.00,52.499
905.00,52.503
906.00,52.494
907.00,52.466
908.00,52.451
909.00,52.458
910.00,52.360
911.00,52.482
912.00,52.412
913.00,52.358
914.00,52.345
915.00,52.323
916.00,52.310
917.00,52.286
918.00,52.280
919.00,52.280
920.00,52.243
921.00,52.219
922.00,52.374
923.00,52.210
924.00,52.170
925.00,52.164
926.00,52.143
927.00,52.127
928.00,52.110
929.00,52.129
930.00,52.088
931.00,52.067
932.00,52.024
933.00,52.043
934.00,52.025
935.00,52.001
936.00,51.968
937.00,51.940
938.00,51.947
939.00,51.926
940.00,51.927
941.00,51.918
942.00,51.878
943.00,51.872
944.00,51.835
945.00,51.846
946.00,51.839
947.00,51.816
948.00,51.784
949.00,51.772
950.00,51.744
951.00,51.729
952.00,51.708
953.00,51.668
954.00,51.650
955.00,51.639
956.00,51.600
957.00,51.574
958.00,51.569
959.00,51.520
960.00,51.507
961.00,51.489
962.00,51.501
963.00,51.468
964.00,51.468
965.00,51.463
966.00,51.472
967.00,51.450
968.00,51.426
969.00,51.430
970.00,51.411
971.00,51.424
972.00,51.353
973.00,51.443
974.00,51.454
975.00,51.421
976.00,51.434
977.00,51.426
978.00,51.450
979.00,51.408
980.00,51.444
981.00,51.422
982.00,51.376
983.00,51.463
984.00,51.374
985.00,51.411
986.00,51.371
987.00,51.401
988.00,51.366
989.00,51.351
990.00,51.354
991.00,51.350
992.00,51.359
993.00,51.322
994.00,51.303
995.00,51.295
996.00,51.293
997.00,51.244
998.00,51.268
999.00,51.266
1000.00,51.214
1001.00,51.223
1002.00,51.229
1003.00,51.236
1004.00,51.184
1005.00,51.166
1006.00,51.204
1007.00,51.166
1008.00,51.118
1009.00,51.105
1010.00,51.119
1011.00,51.103
1012.00,51.081
1013.00,51.098
1014.00,51.051
1015.00,51.073
1016.00,51.018
1017.00,51.025
1018.00,51.008
1019.00,50.959
1020.00,50.968
1021.00,50.958
1022.00,50.946
1023.00,50.895
1024.00,50.908
1025.00,50.883
1026.00,50.872
1027.00,50.849
1028.00,50.856
1029.00,50.849
1030.00,50.805
1031.00,50.822
1032.00,50.780
1033.00,50.768
1034.00,50.738
1035.00,50.721
1036.00,50.685
1037.00,50.667
1038.00,50.661
1039.00,50.633
1040.00,50.627
1041.00,50.606
1042.00,50.591
1043.00,50.585
1044.00,50.602
1045.00,50.592
1046.00,50.575
1047.00,50.572
1048.00,50.580
1049.00,50.593
1050.00,50.604
1051.00,50.655
1052.00,50.635
1053.00,50.641
1054.00,50.648
1055.00,50.661
1056.00,50.675
1057.00,50.677
1058.00,50.663
1059.00,50.684
1060.00,50.676
1061.00,50.657
1062.00,50.647
1063.00,50.639
1064.00,50.640
1065.00,50.621
1066.00,50.583
1067.00,50.596
1068.00,50.622
1069.00,50.579
1070.00,50.548
1071.00,50.547
1072.00,50.564
1073.00,50.552
1074.00,50.559
1075.00,50.568
1076.00,50.538
1077.00,50.505
1078.00,50.490
1079.00,50.478
1080.00,50.460
1081.00,50.443
1082.00,50.443
1083.00,50.452
1084.00,50.455
1085.00,50.438
1086.00,50.426
1087.00,50.440
1088.00,50.411
1089.00,50.410
1090.00,50.398
1091.00,50.398
1092.00,50.391
1093.00,50.367
1094.00,50.352
1095.00,50.343
1096.00,50.323
1097.00,50.329
1098.00,50.326
1099.00,50.302
1100.00,50.298
1101.00,50.284
1102.00,50.278
1103.00,50.269
1104.00,50.272
1105.00,50.256
1106.00,50.243
1107.00,50.227
1108.00,50.219
1109.00,50.211
1110.00,50.198
1111.00,50.204
1112.00,50.198
1113.00,50.182
1114.00,50.187
1115.00,50.184
1116.00,50.184
1117.00,50.178
1118.00,50.146
1119.00,50.141
1120.00,50.142
1121.00,50.129
1122.00,50.118
1123.00,50.125
1124.00,50.105
1125.00,50.100
1126.00,50.078
1127.00,50.085
1128.00,50.091
1129.00,50.062
1130.00,50.063
1131.00,50.067
1132.00,50.033
1133.00,50.029
1134.00,50.035
1135.00,50.019
1136.00,50.036
1137.00,50.011
1138.00,50.000
1139.00,50.016
1140.00,50.000
1141.00,49.984
1142.00,49.991
1143.00,49.980
1144.00,49.963
1145.00,49.971
1146.00,49.957
1147.00,49.947
1148.00,49.937
1149.00,49.948
1150.00,49.946
1151.00,49.927
1152.00,49.919
1153.00,49.919
1154.00,49.904
1155.00,49.901
1156.00,49.905
1157.00,49.903
1158.00,49.913
1159.00,49.904
1160.00,49.902
1161.00,49.919
1162.00,49.892
1163.00,49.886
1164.00,49.896
1165.00,49.881
1166.00,49.882
1167.00,49.877
1168.00,49.886
1169.00,49.873
1170.00,49.879
1171.00,49.859
1172.00,49.881
1173.00,49.861
1174.00,49.875
1175.00,49.897
1176.00,49.867
1177.00,49.843
1178.00,49.850
1179.00,49.863
1180.00,49.847
1181.00,49.870
1182.00,49.861
1183.00,49.840
1184.00,49.821
1185.00,49.838
1186.00,49.835
1187.00,49.827
1188.00,49.829
1189.00,49.844
1190.00,49.830
1191.00,49.829
1192.00,49.831
1193.00,49.834
1194.00,49.837
1195.00,49.812
1196.00,49.826
1197.00,49.833
1198.00,49.811
1199.00,49.811
1200.00,49.824
1201.00,49.836
1202.00,49.817
1203.00,49.812
1204.00,49.800
1205.00,49.822
1206.00,49.797
1207.00,49.804
1208.00,49.794
1209.00,49.789
1210.00,49.790
1211.00,49.794
1212.00,49.801
1213.00,49.764
1214.00,49.780
1215.00,49.771
1216.00,49.787
1217.00,49.791
1218.00,49.777
1219.00,49.803
1220.00,49.773
1221.00,49.790
1222.00,49.786
1223.00,49.791
1224.00,49.794
1225.00,49.775
1226.00,49.781
1227.00,49.779
1228.00,49.780
1229.00,49.786
1230.00,49.818
1231.00,49.797
1232.00,49.821
1233.00,49.828
1234.00,49.823
1235.00,49.818
1236.00,49.811
1237.00,49.808
1238.00,49.822
1239.00,49.811
1240.00,49.818
1241.00,49.836
1242.00,49.837
1243.00,49.851
1244.00,49.825
1245.00,49.845
1246.00,49.850
1247.00,49.826
1248.00,49.832
1249.00,49.854
1250.00,49.842
1251.00,49.831
1252.00,49.840
1253.00,49.872
1254.00,49.894
1255.00,49.865
1256.00,49.884
1257.00,49.824
1258.00,49.876
1259.00,49.879
1260.00,49.898
1261.00,49.880
1262.00,49.865
1263.00,49.877
1264.00,49.871
1265.00,49.879
1266.00,49.880
1267.00,49.881
1268.00,49.885
1269.00,49.872
1270.00,49.895
1271.00,49.909
1272.00,49.903
1273.00,49.920
1274.00,49.931
1275.00,49.929
1276.00,49.920
1277.00,49.923
1278.00,49.935
1279.00,49.935
1280.00,49.928
1281.00,49.931
1282.00,49.944
1283.00,49.928
1284.00,49.940
1285.00,49.951
1286.00,49.949
1287.00,49.958
1288.00,49.966
1289.00,49.938
1290.00,49.973
1291.00,49.966
1292.00,49.969
1293.00,49.962
1294.00,49.977
1295.00,49.981
1296.00,49.980
1297.00,49.981
1298.00,50.015
1299.00,50.008
1300.00,50.004
1301.00,50.010
1302.00,50.020
1303.00,50.030
1304.00,50.024
1305.00,50.033
1306.00,50.052
1307.00,50.057
1308.00,50.037
1309.00,50.042
1310.00,50.052
1311.00,50.040
1312.00,50.045
1313.00,50.072
1314.00,50.086
1315.00,50.094
1316.00,50.075
1317.00,50.102
1318.00,50.105
1319.00,50.092
1320.00,50.125
1321.00,49.945
1322.00,49.945
1323.00,49.934
1324.00,49.926
1325.00,49.930
1326.00,49.951
1327.00,49.936
1328.00,49.946
1329.00,49.964
1330.00,49.960
1331.00,49.960
1332.00,49.970
1333.00,49.982
1334.00,50.014
1335.00,50.025
1336.00,50.042
1337.00,50.075
1338.00,50.115
1339.00,50.169
1340.00,50.226
1341.00,50.274
1342.00,50.336
1343.00,50.379
1344.00,50.438
1345.00,50.492
1346.00,50.519
1347.00,50.590
1348.00,50.573
1349.00,50.576
1350.00,50.581
1351.00,50.610
1352.00,50.590
1353.00,50.618
1354.00,50.624
1355.00,50.607
1356.00,50.653
1357.00,50.636
1358.00,50.641
1359.00,50.614
1360.00,50.529
1361.00,50.646
1362.00,50.523
1363.00,50.464
1364.00,50.709
1365.00,50.657
1366.00,50.672
1367.00,50.678
1368.00,50.644
1369.00,50.668
1370.00,50.668
1371.00,50.631
1372.00,50.649
1373.00,50.650
1374.00,50.636
1375.00,50.625
1376.00,50.626
1377.00,50.631
1378.00,50.636
1379.00,50.628
1380.00,50.625
1381.00,50.655
1382.00,50.651
1383.00,50.607
1384.00,50.606
1385.00,50.596
1386.00,50.636
1387.00,50.617
1388.00,50.586
1389.00,50.543
1390.00,50.640
1391.00,50.632
1392.00,50.597
1393.00,50.587
1394.00,50.643
1395.00,50.610
1396.00,50.569
1397.00,50.575
1398.00,50.655
1399.00,50.675
1400.00,50.579
1401.00,50.595
1402.00,50.598
1403.00,50.599
1404.00,50.652
1405.00,50.672
1406.00,50.692
1407.00,50.688
1408.00,50.699
1409.00,50.674
1410.00,50.709
1411.00,50.718
1412.00,50.718
1413.00,50.707
1414.00,50.718
1415.00,50.733
1416.00,50.747
1417.00,50.771
1418.00,50.757
1419.00,50.767
1420.00,50.789
1421.00,50.837
1422.00,50.823
1423.00,50.828
1424.00,50.842
1425.00,50.847
1426.00,50.853
1427.00,50.875
1428.00,50.882
1429.00,50.874
1430.00,50.890
1431.00,50.906
1432.00,50.907
1433.00,50.934
1434.00,50.918
1435.00,50.951
1436.00,50.984
1437.00,50.952
1438.00,50.993
1439.00,51.032
1440.00,51.013
1441.00,51.016
1442.00,51.028
1443.00,51.059
1444.00,51.098
1445.00,51.074
1446.00,51.075
1447.00,51.104
1448.00,51.122
1449.00,51.139
1450.00,51.152
1451.00,51.143
1452.00,51.171
1453.00,51.187
1454.00,51.206
1455.00,51.227
1456.00,51.230
1457.00,51.244
1458.00,51.250
1459.00,51.272
1460.00,51.297
1461.00,51.305
1462.00,51.325
1463.00,51.332
1464.00,51.347
1465.00,51.353
1466.00,51.353
1467.00,51.373
1468.00,51.416
1469.00,51.402
1470.00,51.407
1471.00,51.440
1472.00,51.452
1473.00,51.455
1474.00,51.465
1475.00,51.487
1476.00,51.511
1477.00,51.506
1478.00,51.522
1479.00,51.546
1480.00,51.542
1481.00,51.545
1482.00,51.582
1483.00,51.589
1484.00,51.613
1485.00,51.620
1486.00,51.628
1487.00,51.656
1488.00,51.676
1489.00,51.665
1490.00,51.694
1491.00,51.718
1492.00,51.721
1493.00,51.719
1494.00,51.761
1495.00,51.758
1496.00,51.767
1497.00,51.774
1498.00,51.786
1499.00,51.803
1500.00,51.834
1501.00, 
1502.00, 
1503.00, 
1504.00, 
1505.00, 
1506.00, 
1507.00, 
1508.00, 
1509.00, 
1510.00, 
1511.00, 
1512.00, 
1513.00, 
1514.00, 
1515.00, 
1516.00, 
1517.00, 
1518.00, 
1519.00, 
1520.00, 
1521.00, 
1522.00, 
1523.00, 
1524.00, 
1525.00, 
1526.00, 
1527.00, 
1528.00, 
1529.00, 
1530.00, 
1531.00, 
1532.00, 
1533.00, 
1534.00, 
1535.00, 
1536.00, 
1537.00, 
1538.00, 
1539.00, 
1540.00, 
1541.00, 
1542.00, 
1543.00, 
1544.00, 
1545.00, 
1546.00, 
1547.00, 
1548.00, 
1549.00, 
1550.00, 
1551.00, 
1552.00, 
1553.00, 
1554.00, 
1555.00, 
1556.00, 
1557.00, 
1558.00, 
1559.00, 
1560.00, 
1561.00, 
1562.00, 
1563.00, 
1564.00, 
1565.00, 
1566.00, 
1567.00, 
1568.00, 
1569.00, 
1570.00, 
1571.00, 
1572.00, 
1573.00, 
1574.00, 
1575.00, 
1576.00, 
1577.00, 
1578.00, 
1579.00, 
1580.00, 
1581.00, 
1582.00, 
1583.00, 
1584.00, 
1585.00, 
1586.00, 
1587.00, 
1588.00, 
1589.00, 
1590.00, 
1591.00, 
1592.00, 
1593.00, 
1594.00, 
1595.00, 
1596.00, 
1597.00, 
1598.00, 
1599.00, 
1600.00, 
1601.00, 
1602.00, 
1603.00, 
1604.00, 
1605.00, 
1606.00, 
1607.00, 
1608.00, 
1609.00, 
1610.00, 
1611.00, 
1612.00, 
1613.00, 
1614.00, 
1615.00, 
1616.00, 
1617.00, 
1618.00, 
1619.00, 
1620.00, 
1621.00, 
1622.00, 
1623.00, 
1624.00, 
1625.00, 
1626.00, 
1627.00, 
1628.00, 
1629.00, 
1630.00, 
1631.00, 
1632.00, 
1633.00, 
1634.00, 
1635.00, 
1636.00, 
1637.00, 
1638.00, 
1639.00, 
1640.00, 
1641.00, 
1642.00, 
1643.00, 
1644.00, 
1645.00, 
1646.00, 
1647.00, 
1648.00, 
1649.00, 
1650.00, 
1651.00, 
1652.00, 
1653.00, 
1654.00, 
1655.00, 
1656.00, 
1657.00, 
1658.00, 
1659.00, 
1660.00, 
1661.00, 
1662.00, 
1663.00, 
1664.00, 
1665.00, 
1666.00, 
1667.00, 
1668.00, 
1669.00, 
1670.00, 
1671.00, 
1672.00, 
1673.00, 
1674.00, 
1675.00, 
1676.00, 
1677.00, 
1678.00, 
1679.00, 
1680.00, 
1681.00, 
1682.00, 
1683.00, 
1684.00, 
1685.00, 
1686.00, 
1687.00, 
1688.00, 
1689.00, 
1690.00, 
1691.00, 
1692.00, 
1693.00, 
1694.00, 
1695.00, 
1696.00, 
1697.00, 
1698.00, 
1699.00, 
1700.00, 
1701.00, 
1702.00, 
1703.00, 
1704.00, 
1705.00, 
1706.00, 
1707.00, 
1708.00, 
1709.00, 
1710.00, 
1711.00, 
1712.00, 
1713.00, 
1714.00, 
1715.00, 
1716.00, 
1717.00, 
1718.00, 
1719.00, 
1720.00, 
1721.00, 
1722.00, 
1723.00, 
1724.00, 
1725.00, 
1726.00, 
1727.00, 
1728.00, 
1729.00, 
1730.00, 
1731.00, 
1732.00, 
1733.00, 
1734.00, 
1735.00, 
1736.00, 
1737.00, 
1738.00, 
1739.00, 
1740.00, 
1741.00, 
1742.00, 
1743.00, 
1744.00, 
1745.00, 
1746.00, 
1747.00, 
1748.00, 
1749.00, 
1750.00, 
1751.00, 
1752.00, 
1753.00, 
1754.00, 
1755.00, 
1756.00, 
1757.00, 
1758.00, 
1759.00, 
1760.00, 
1761.00, 
1762.00, 
1763.00, 
1764.00, 
1765.00, 
1766.00, 
1767.00, 
1768.00, 
1769.00, 
1770.00, 
1771.00, 
1772.00, 
1773.00, 
1774.00, 
1775.00, 
1776.00, 
1777.00, 
1778.00, 
1779.00, 
1780.00, 
1781.00, 
1782.00, 
1783.00, 
1784.00, 
1785.00, 
1786.00, 
1787.00, 
1788.00, 
1789.00, 
1790.00, 
1791.00, 
1792.00, 
1793.00, 
1794.00, 
1795.00, 
1796.00, 
1797.00, 
1798.00, 
1799.00, 
1800.00, 
1801.00, 
1802.00, 
1803.00, 
1804.00, 
1805.00, 
1806.00, 
1807.00, 
1808.00, 
1809.00, 
1810.00, 
1811.00, 
1812.00, 
1813.00, 
1814.00, 
1815.00, 
1816.00, 
1817.00, 
1818.00, 
1819.00, 
1820.00, 
1821.00, 
1822.00, 
1823.00, 
1824.00, 
1825.00, 
1826.00, 
1827.00, 
1828.00, 
1829.00, 
1830.00, 
1831.00, 
1832.00, 
1833.00, 
1834.00, 
1835.00, 
1836.00, 
1837.00, 
1838.00, 
1839.00, 
1840.00, 
1841.00, 
1842.00, 
1843.00, 
1844.00, 
1845.00, 
1846.00, 
1847.00, 
1848.00, 
1849.00, 
1850.00, 
1851.00, 
1852.00, 
1853.00, 
1854.00, 
1855.00, 
1856.00, 
1857.00, 
1858.00, 
1859.00, 
1860.00, 
1861.00, 
1862.00, 
1863.00, 
1864.00, 
1865.00, 
1866.00, 
1867.00, 
1868.00, 
1869.00, 
1870.00, 
1871.00, 
1872.00, 
1873.00, 
1874.00, 
1875.00, 
1876.00, 
1877.00, 
1878.00, 
1879.00, 
1880.00, 
1881.00, 
1882.00, 
1883.00, 
1884.00, 
1885.00, 
1886.00, 
1887.00, 
1888.00, 
1889.00, 
1890.00, 
1891.00, 
1892.00, 
1893.00, 
1894.00, 
1895.00, 
1896.00, 
1897.00, 
1898.00, 
1899.00, 
1900.00, 
1901.00, 
1902.00, 
1903.00, 
1904.00, 
1905.00, 
1906.00, 
1907.00, 
1908.00, 
1909.00, 
1910.00, 
1911.00, 
1912.00, 
1913.00, 
1914.00, 
1915.00, 
1916.00, 
1917.00, 
1918.00, 
1919.00, 
1920.00, 
1921.00, 
1922.00, 
1923.00, 
1924.00, 
1925.00, 
1926.00, 
1927.00, 
1928.00, 
1929.00, 
1930.00, 
1931.00, 
1932.00, 
1933.00, 
1934.00, 
1935.00, 
1936.00, 
1937.00, 
1938.00, 
1939.00, 
1940.00, 
1941.00, 
1942.00, 
1943.00, 
1944.00, 
1945.00, 
1946.00, 
1947.00, 
1948.00, 
1949.00, 
1950.00, 
1951.00, 
1952.00, 
1953.00, 
1954.00, 
1955.00, 
1956.00, 
1957.00, 
1958.00, 
1959.00, 
1960.00, 
1961.00, 
1962.00, 
1963.00, 
1964.00, 
1965.00, 
1966.00, 
1967.00, 
1968.00, 
1969.00, 
1970.00, 
1971.00, 
1972.00, 
1973.00, 
1974.00, 
1975.00, 
1976.00, 
1977.00, 
1978.00, 
1979.00, 
1980.00, 
1981.00, 
1982.00, 
1983.00, 
1984.00, 
1985.00, 
1986.00, 
1987.00, 
1988.00, 
1989.00, 
1990.00, 
1991.00, 
1992.00, 
1993.00, 
1994.00, 
1995.00, 
1996.00, 
1997.00, 
1998.00, 
1999.00, 
2000.00, 
2001.00, 
2002.00, 
2003.00, 
2004.00, 
2005.00, 
2006.00, 
2007.00, 
2008.00, 
2009.00, 
2010.00, 
2011.00, 
2012.00, 
2013.00, 
2014.00, 
2015.00, 
2016.00, 
2017.00, 
2018.00, 
2019.00, 
2020.00, 
2021.00, 
2022.00, 
2023.00, 
2024.00, 
2025.00, 
2026.00, 
2027.00, 
2028.00, 
2029.00, 
2030.00, 
2031.00, 
2032.00, 
2033.00, 
2034.00, 
2035.00, 
2036.00, 
2037.00, 
2038.00, 
2039.00, 
2040.00, 
2041.00, 
2042.00, 
2043.00, 
2044.00, 
2045.00, 
2046.00, 
2047.00, 
2048.00, 
2049.00, 
2050.00, 
2051.00, 
2052.00, 
2053.00, 
2054.00, 
2055.00, 
2056.00, 
2057.00, 
2058.00, 
2059.00, 
2060.00, 
2061.00, 
2062.00, 
2063.00, 
2064.00, 
2065.00, 
2066.00, 
2067.00, 
2068.00, 
2069.00, 
2070.00, 
2071.00, 
2072.00, 
2073.00, 
2074.00, 
2075.00, 
2076.00, 
2077.00, 
2078.00, 
2079.00, 
2080.00, 
2081.00, 
2082.00, 
2083.00, 
2084.00, 
2085.00, 
2086.00, 
2087.00, 
2088.00, 
2089.00, 
2090.00, 
2091.00, 
2092.00, 
2093.00, 
2094.00, 
2095.00, 
2096.00, 
2097.00, 
2098.00, 
2099.00, 
2100.00, 
2101.00, 
2102.00, 
2103.00, 
2104.00, 
2105.00, 
2106.00, 
2107.00, 
2108.00, 
2109.00, 
2110.00, 
2111.00, 
2112.00, 
2113.00, 
2114.00, 
2115.00, 
2116.00, 
2117.00, 
2118.00, 
2119.00, 
2120.00, 
2121.00, 
2122.00, 
2123.00, 
2124.00, 
2125.00, 
2126.00, 
2127.00, 
2128.00, 
2129.00, 
2130.00, 
2131.00, 
2132.00, 
2133.00, 
2134.00, 
2135.00, 
2136.00, 
2137.00, 
2138.00, 
2139.00, 
2140.00, 
2141.00, 
2142.00, 
2143.00, 
2144.00, 
2145.00, 
2146.00, 
2147.00, 
2148.00, 
2149.00, 
2150.00, 
2151.00, 
2152.00, 
2153.00, 
2154.00, 
2155.00, 
2156.00, 
2157.00, 
2158.00, 
2159.00, 
2160.00, 
2161.00, 
2162.00, 
2163.00, 
2164.00, 
2165.00, 
2166.00, 
2167.00, 
2168.00, 
2169.00, 
2170.00, 
2171.00, 
2172.00, 
2173.00, 
2174.00, 
2175.00, 
2176.00, 
2177.00, 
2178.00, 
2179.00, 
2180.00, 
2181.00, 
2182.00, 
2183.00, 
2184.00, 
2185.00, 
2186.00, 
2187.00, 
2188.00, 
2189.00, 
2190.00, 
2191.00, 
2192.00, 
2193.00, 
2194.00, 
2195.00, 
2196.00, 
2197.00, 
2198.00, 
2199.00, 
2200.00, 
2201.00, 
2202.00, 
2203.00, 
2204.00, 
2205.00, 
2206.00, 
2207.00, 
2208.00, 
2209.00, 
2210.00, 
2211.00, 
2212.00, 
2213.00, 
2214.00, 
2215.00, 
2216.00, 
2217.00, 
2218.00, 
2219.00, 
2220.00, 
2221.00, 
2222.00, 
2223.00, 
2224.00, 
2225.00, 
2226.00, 
2227.00, 
2228.00, 
2229.00, 
2230.00, 
2231.00, 
2232.00, 
2233.00, 
2234.00, 
2235.00, 
2236.00, 
2237.00, 
2238.00, 
2239.00, 
2240.00, 
2241.00, 
2242.00, 
2243.00, 
2244.00, 
2245.00, 
2246.00, 
2247.00, 
2248.00, 
2249.00, 
2250.00, 
2251.00, 
2252.00, 
2253.00, 
2254.00, 
2255.00, 
2256.00, 
2257.00, 
2258.00, 
2259.00, 
2260.00, 
2261.00, 
2262.00, 
2263.00, 
2264.00, 
2265.00, 
2266.00, 
2267.00, 
2268.00, 
2269.00, 
2270.00, 
2271.00, 
2272.00, 
2273.00, 
2274.00, 
2275.00, 
2276.00, 
2277.00, 
2278.00, 
2279.00, 
2280.00, 
2281.00, 
2282.00, 
2283.00, 
2284.00, 
2285.00, 
2286.00, 
2287.00, 
2288.00, 
2289.00, 
2290.00, 
2291.00, 
2292.00, 
2293.00, 
2294.00, 
2295.00, 
2296.00, 
2297.00, 
2298.00, 
2299.00, 
2300.00, 
2301.00, 
2302.00, 
2303.00, 
2304.00, 
2305.00, 
2306.00, 
2307.00, 
2308.00, 
2309.00, 
2310.00, 
2311.00, 
2312.00, 
2313.00, 
2314.00, 
2315.00, 
2316.00, 
2317.00, 
2318.00, 
2319.00, 
2320.00, 
2321.00, 
2322.00, 
2323.00, 
2324.00, 
2325.00, 
2326.00, 
2327.00, 
2328.00, 
2329.00, 
2330.00, 
2331.00, 
2332.00, 
2333.00, 
2334.00, 
2335.00, 
2336.00, 
2337.00, 
2338.00, 
2339.00, 
2340.00, 
2341.00, 
2342.00, 
2343.00, 
2344.00, 
2345.00, 
2346.00, 
2347.00, 
2348.00, 
2349.00, 
2350.00, 
2351.00, 
2352.00, 
2353.00, 
2354.00, 
2355.00, 
2356.00, 
2357.00, 
2358.00, 
2359.00, 
2360.00, 
2361.00, 
2362.00, 
2363.00, 
2364.00, 
2365.00, 
2366.00, 
2367.00, 
2368.00, 
2369.00, 
2370.00, 
2371.00, 
2372.00, 
2373.00, 
2374.00, 
2375.00, 
2376.00, 
2377.00, 
2378.00, 
2379.00, 
2380.00, 
2381.00, 
2382.00, 
2383.00, 
2384.00, 
2385.00, 
2386.00, 
2387.00, 
2388.00, 
2389.00, 
2390.00, 
2391.00, 
2392.00, 
2393.00, 
2394.00, 
2395.00, 
2396.00, 
2397.00, 
2398.00, 
2399.00, 
2400.00, 
2401.00, 
2402.00, 
2403.00, 
2404.00, 
2405.00, 
2406.00, 
2407.00, 
2408.00, 
2409.00, 
2410.00, 
2411.00, 
2412.00, 
2413.00, 
2414.00, 
2415.00, 
2416.00, 
2417.00, 
2418.00, 
2419.00, 
2420.00, 
2421.00, 
2422.00, 
2423.00, 
2424.00, 
2425.00, 
2426.00, 
2427.00, 
2428.00, 
2429.00, 
2430.00, 
2431.00, 
2432.00, 
2433.00, 
2434.00, 
2435.00, 
2436.00, 
2437.00, 
2438.00, 
2439.00, 
2440.00, 
2441.00, 
2442.00, 
2443.00, 
2444.00, 
2445.00, 
2446.00, 
2447.00, 
2448.00, 
2449.00, 
2450.00, 
2451.00, 
2452.00, 
2453.00, 
2454.00, 
2455.00, 
2456.00, 
2457.00, 
2458.00, 
2459.00, 
2460.00, 
2461.00, 
2462.00, 
2463.00, 
2464.00, 
2465.00, 
2466.00, 
2467.00, 
2468.00, 
2469.00, 
2470.00, 
2471.00, 
2472.00, 
2473.00, 
2474.00, 
2475.00, 
2476.00, 
2477.00, 
2478.00, 
2479.00, 
2480.00, 
2481.00, 
2482.00, 
2483.00, 
2484.00, 
2485.00, 
2486.00, 
2487.00, 
2488.00, 
2489.00, 
2490.00, 
2491.00, 
2492.00, 
2493.00, 
2494.00, 
2495.00, 
2496.00, 
2497.00, 
2498.00, 
2499.00, 
2500.00, 
2501.00, 
2502.00, 
2503.00, 
2504.00, 
2505.00, 
2506.00, 
2507.00, 
2508.00, 
2509.00, 
2510.00, 
2511.00, 
2512.00, 
2513.00, 
2514.00, 
2515.00, 
2516.00, 
2517.00, 
2518.00, 
2519.00, 
2520.00, 
2521.00, 
2522.00, 
2523.00, 
2524.00, 
2525.00, 
2526.00, 
2527.00, 
2528.00, 
2529.00, 
2530.00, 
2531.00, 
2532.00, 
2533.00, 
2534.00, 
2535.00, 
2536.00, 
2537.00, 
2538.00, 
2539.00, 
2540.00, 
2541.00, 
2542.00, 
2543.00, 
2544.00, 
2545.00, 
2546.00, 
2547.00, 
2548.00, 
2549.00, 
2550.00, 
2551.00, 
2552.00, 
2553.00, 
2554.00, 
2555.00, 
2556.00, 
2557.00, 
2558.00, 
2559.00, 
2560.00, 
2561.00, 
2562.00, 
2563.00, 
2564.00, 
2565.00, 
2566.00, 
2567.00, 
2568.00, 
2569.00, 
2570.00, 
2571.00, 
2572.00, 
2573.00, 
2574.00, 
2575.00, 
2576.00, 
2577.00, 
2578.00, 
2579.00, 
2580.00, 
2581.00, 
2582.00, 
2583.00, 
2584.00, 
2585.00, 
2586.00, 
2587.00, 
2588.00, 
2589.00, 
2590.00, 
2591.00, 
2592.00, 
2593.00, 
2594.00, 
2595.00, 
2596.00, 
2597.00, 
2598.00, 
2599.00, 
2600.00, 
