"2cP5 - RawData"
"Wavelength nm.","T%"
200.00,0.000
201.00,-0.001
202.00,-0.001
203.00,0.004
204.00,0.000
205.00,0.002
206.00,0.000
207.00,0.006
208.00,0.003
209.00,0.002
210.00,0.002
211.00,0.001
212.00,-0.000
213.00,0.001
214.00,0.001
215.00,0.002
216.00,0.002
217.00,0.002
218.00,-0.001
219.00,0.001
220.00,-0.000
221.00,-0.001
222.00,0.002
223.00,-0.000
224.00,0.000
225.00,0.004
226.00,0.002
227.00,0.000
228.00,0.001
229.00,0.002
230.00,0.000
231.00,-0.001
232.00,-0.001
233.00,0.002
234.00,0.001
235.00,0.002
236.00,-0.000
237.00,-0.001
238.00,0.000
239.00,0.001
240.00,0.001
241.00,0.001
242.00,0.001
243.00,0.000
244.00,0.001
245.00,0.001
246.00,0.000
247.00,0.002
248.00,0.001
249.00,-0.000
250.00,-0.001
251.00,-0.001
252.00,-0.001
253.00,0.000
254.00,0.000
255.00,-0.001
256.00,0.000
257.00,0.001
258.00,0.001
259.00,0.000
260.00,-0.001
261.00,-0.001
262.00,0.001
263.00,-0.001
264.00,-0.002
265.00,0.001
266.00,-0.001
267.00,0.002
268.00,-0.000
269.00,0.001
270.00,0.000
271.00,-0.000
272.00,0.000
273.00,-0.000
274.00,0.001
275.00,-0.001
276.00,0.001
277.00,0.002
278.00,0.002
279.00,-0.001
280.00,0.000
281.00,0.001
282.00,0.001
283.00,-0.000
284.00,-0.000
285.00,-0.001
286.00,0.000
287.00,0.001
288.00,0.000
289.00,0.002
290.00,-0.001
291.00,0.000
292.00,-0.000
293.00,0.001
294.00,0.000
295.00,0.002
296.00,0.001
297.00,0.000
298.00,0.001
299.00,0.001
300.00,0.001
301.00,0.002
302.00,0.005
303.00,0.007
304.00,0.009
305.00,0.012
306.00,0.019
307.00,0.029
308.00,0.046
309.00,0.068
310.00,0.098
311.00,0.134
312.00,0.181
313.00,0.242
314.00,0.313
315.00,0.415
316.00,0.533
317.00,0.675
318.00,0.838
319.00,1.018
320.00,1.230
321.00,1.479
322.00,1.762
323.00,2.066
324.00,2.398
325.00,2.711
326.00,3.070
327.00,3.461
328.00,3.862
329.00,4.256
330.00,4.689
331.00,5.137
332.00,5.577
333.00,6.039
334.00,6.484
335.00,6.892
336.00,7.388
337.00,7.814
338.00,8.270
339.00,8.624
340.00,9.065
341.00,9.482
342.00,9.831
343.00,10.195
344.00,10.591
345.00,10.910
346.00,11.177
347.00,11.466
348.00,11.750
349.00,11.986
350.00,12.262
351.00,12.493
352.00,12.655
353.00,12.859
354.00,13.037
355.00,13.225
356.00,13.359
357.00,13.478
358.00,13.621
359.00,13.774
360.00,13.866
361.00,14.004
362.00,14.090
363.00,14.192
364.00,14.217
365.00,14.245
366.00,14.270
367.00,14.302
368.00,14.347
369.00,14.353
370.00,14.367
371.00,14.333
372.00,14.319
373.00,14.352
374.00,14.322
375.00,14.276
376.00,14.232
377.00,14.207
378.00,14.151
379.00,14.089
380.00,14.061
381.00,14.040
382.00,14.009
383.00,13.993
384.00,14.013
385.00,13.998
386.00,13.987
387.00,13.997
388.00,14.025
389.00,14.008
390.00,13.979
391.00,14.009
392.00,13.976
393.00,13.997
394.00,13.970
395.00,13.982
396.00,13.989
397.00,13.956
398.00,13.920
399.00,13.912
400.00,13.897
401.00,13.885
402.00,13.910
403.00,13.903
404.00,13.913
405.00,13.895
406.00,13.898
407.00,13.875
408.00,13.871
409.00,13.828
410.00,13.821
411.00,13.812
412.00,13.796
413.00,13.789
414.00,13.771
415.00,13.771
416.00,13.787
417.00,13.776
418.00,13.805
419.00,13.839
420.00,13.875
421.00,13.882
422.00,13.903
423.00,13.914
424.00,13.939
425.00,13.986
426.00,13.977
427.00,14.046
428.00,14.105
429.00,14.126
430.00,14.181
431.00,14.215
432.00,14.262
433.00,14.319
434.00,14.351
435.00,14.427
436.00,14.492
437.00,14.548
438.00,14.616
439.00,14.685
440.00,14.741
441.00,14.829
442.00,14.899
443.00,14.971
444.00,15.082
445.00,15.152
446.00,15.217
447.00,15.329
448.00,15.414
449.00,15.513
450.00,15.593
451.00,15.663
452.00,15.811
453.00,15.908
454.00,15.993
455.00,16.105
456.00,16.223
457.00,16.332
458.00,16.448
459.00,16.582
460.00,16.704
461.00,16.812
462.00,16.938
463.00,17.074
464.00,17.181
465.00,17.314
466.00,17.457
467.00,17.571
468.00,17.672
469.00,17.784
470.00,17.903
471.00,18.006
472.00,18.162
473.00,18.252
474.00,18.396
475.00,18.506
476.00,18.624
477.00,18.748
478.00,18.892
479.00,19.073
480.00,19.212
481.00,19.358
482.00,19.524
483.00,19.670
484.00,19.843
485.00,19.973
486.00,20.168
487.00,20.287
488.00,20.421
489.00,20.590
490.00,20.740
491.00,20.871
492.00,21.003
493.00,21.229
494.00,21.353
495.00,21.454
496.00,21.566
497.00,21.686
498.00,21.841
499.00,22.004
500.00,22.129
501.00,22.276
502.00,22.446
503.00,22.528
504.00,22.568
505.00,22.829
506.00,22.978
507.00,23.095
508.00,23.217
509.00,23.395
510.00,23.534
511.00,23.628
512.00,23.801
513.00,23.962
514.00,24.060
515.00,24.220
516.00,24.332
517.00,24.467
518.00,24.582
519.00,24.678
520.00,24.719
521.00,24.915
522.00,24.987
523.00,25.067
524.00,25.194
525.00,25.313
526.00,25.392
527.00,25.493
528.00,25.548
529.00,25.729
530.00,25.866
531.00,26.026
532.00,26.106
533.00,26.225
534.00,26.361
535.00,26.429
536.00,26.514
537.00,26.622
538.00,26.711
539.00,26.779
540.00,26.863
541.00,26.933
542.00,26.983
543.00,27.073
544.00,27.176
545.00,27.238
546.00,27.290
547.00,27.452
548.00,27.535
549.00,27.594
550.00,27.656
551.00,27.760
552.00,27.824
553.00,27.861
554.00,27.983
555.00,28.044
556.00,28.073
557.00,28.144
558.00,28.230
559.00,28.268
560.00,28.380
561.00,28.442
562.00,28.469
563.00,28.510
564.00,28.633
565.00,28.603
566.00,28.717
567.00,28.795
568.00,28.802
569.00,28.879
570.00,28.944
571.00,29.000
572.00,29.016
573.00,29.002
574.00,29.099
575.00,29.130
576.00,29.150
577.00,29.224
578.00,29.276
579.00,29.343
580.00,29.360
581.00,29.579
582.00,29.640
583.00,29.666
584.00,29.790
585.00,29.850
586.00,29.887
587.00,30.007
588.00,30.023
589.00,29.943
590.00,30.092
591.00,30.150
592.00,30.133
593.00,30.234
594.00,30.314
595.00,30.393
596.00,30.451
597.00,30.510
598.00,30.582
599.00,30.599
600.00,30.670
601.00,30.723
602.00,30.729
603.00,30.791
604.00,30.817
605.00,30.839
606.00,30.938
607.00,30.992
608.00,31.018
609.00,31.122
610.00,31.329
611.00,31.218
612.00,31.301
613.00,31.310
614.00,31.405
615.00,31.473
616.00,31.632
617.00,31.583
618.00,31.573
619.00,31.700
620.00,31.698
621.00,31.886
622.00,32.041
623.00,32.047
624.00,32.106
625.00,32.206
626.00,32.273
627.00,32.361
628.00,32.377
629.00,32.476
630.00,32.601
631.00,32.633
632.00,32.672
633.00,32.860
634.00,32.939
635.00,33.044
636.00,33.195
637.00,33.182
638.00,33.259
639.00,33.392
640.00,33.492
641.00,33.540
642.00,33.682
643.00,33.777
644.00,33.821
645.00,33.939
646.00,34.080
647.00,34.182
648.00,34.234
649.00,34.320
650.00,34.467
651.00,34.586
652.00,34.664
653.00,34.755
654.00,34.800
655.00,35.024
656.00,35.328
657.00,35.257
658.00,35.333
659.00,35.573
660.00,35.698
661.00,35.678
662.00,35.734
663.00,35.924
664.00,36.143
665.00,36.349
666.00,36.388
667.00,36.450
668.00,36.458
669.00,36.768
670.00,36.989
671.00,36.993
672.00,37.113
673.00,37.191
674.00,37.325
675.00,37.481
676.00,37.678
677.00,37.898
678.00,37.801
679.00,38.063
680.00,38.231
681.00,38.471
682.00,38.513
683.00,38.570
684.00,38.753
685.00,38.838
686.00,38.837
687.00,39.031
688.00,39.128
689.00,39.236
690.00,39.460
691.00,39.712
692.00,39.660
693.00,39.762
694.00,40.038
695.00,40.236
696.00,40.314
697.00,40.236
698.00,40.453
699.00,40.728
700.00,40.776
701.00,40.820
702.00,41.093
703.00,41.246
704.00,41.380
705.00,41.415
706.00,41.467
707.00,41.587
708.00,41.570
709.00,41.919
710.00,42.355
711.00,42.012
712.00,42.139
713.00,42.397
714.00,42.470
715.00,42.500
716.00,42.626
717.00,42.846
718.00,42.843
719.00,43.028
720.00,43.168
721.00,47.487
722.00,47.588
723.00,47.609
724.00,47.627
725.00,47.822
726.00,47.916
727.00,47.992
728.00,48.041
729.00,48.157
730.00,48.204
731.00,48.278
732.00,48.208
733.00,48.338
734.00,48.463
735.00,48.614
736.00,48.635
737.00,48.721
738.00,48.820
739.00,48.825
740.00,48.933
741.00,48.954
742.00,49.071
743.00,49.136
744.00,49.139
745.00,49.231
746.00,49.298
747.00,49.275
748.00,49.316
749.00,49.385
750.00,49.423
751.00,49.426
752.00,49.503
753.00,49.550
754.00,49.642
755.00,49.645
756.00,49.767
757.00,49.748
758.00,49.799
759.00,49.784
760.00,49.857
761.00,49.939
762.00,49.996
763.00,50.041
764.00,50.046
765.00,50.083
766.00,50.162
767.00,50.212
768.00,50.211
769.00,50.292
770.00,50.299
771.00,50.335
772.00,50.442
773.00,50.428
774.00,50.458
775.00,50.532
776.00,50.542
777.00,50.517
778.00,50.663
779.00,50.641
780.00,50.562
781.00,50.702
782.00,50.686
783.00,50.727
784.00,50.743
785.00,50.668
786.00,50.758
787.00,50.817
788.00,50.818
789.00,50.830
790.00,50.780
791.00,50.860
792.00,50.811
793.00,50.855
794.00,50.778
795.00,50.815
796.00,50.900
797.00,50.854
798.00,50.909
799.00,50.872
800.00,50.873
801.00,50.906
802.00,51.003
803.00,50.912
804.00,50.920
805.00,50.858
806.00,50.961
807.00,50.952
808.00,50.985
809.00,50.941
810.00,50.959
811.00,50.934
812.00,51.039
813.00,50.932
814.00,50.980
815.00,50.973
816.00,50.948
817.00,50.929
818.00,50.950
819.00,50.965
820.00,50.915
821.00,50.969
822.00,50.929
823.00,50.873
824.00,50.998
825.00,50.964
826.00,50.949
827.00,50.993
828.00,51.035
829.00,50.869
830.00,50.909
831.00,53.091
832.00,53.086
833.00,53.033
834.00,53.047
835.00,53.033
836.00,53.020
837.00,52.998
838.00,52.975
839.00,53.007
840.00,52.957
841.00,52.992
842.00,52.962
843.00,52.984
844.00,52.965
845.00,52.927
846.00,52.957
847.00,52.916
848.00,52.937
849.00,52.852
850.00,52.828
851.00,52.803
852.00,52.838
853.00,52.819
854.00,52.778
855.00,52.751
856.00,52.708
857.00,52.710
858.00,52.706
859.00,52.683
860.00,52.694
861.00,52.670
862.00,52.657
863.00,52.662
864.00,52.629
865.00,52.668
866.00,52.665
867.00,52.640
868.00,52.636
869.00,52.650
870.00,52.613
871.00,52.633
872.00,52.644
873.00,52.618
874.00,52.609
875.00,52.598
876.00,52.585
877.00,52.558
878.00,52.525
879.00,52.561
880.00,52.556
881.00,52.521
882.00,52.558
883.00,52.515
884.00,52.482
885.00,52.485
886.00,52.485
887.00,52.426
888.00,52.425
889.00,52.409
890.00,52.400
891.00,52.396
892.00,52.381
893.00,52.345
894.00,52.358
895.00,52.327
896.00,52.326
897.00,52.311
898.00,52.296
899.00,52.292
900.00,52.280
901.00,52.290
902.00,52.268
903.00,52.210
904.00,52.198
905.00,52.196
906.00,52.187
907.00,52.152
908.00,52.141
909.00,52.138
910.00,52.107
911.00,52.129
912.00,52.104
913.00,52.037
914.00,52.063
915.00,52.017
916.00,52.005
917.00,51.986
918.00,51.990
919.00,51.960
920.00,51.938
921.00,51.950
922.00,51.938
923.00,51.902
924.00,51.894
925.00,51.874
926.00,51.854
927.00,51.813
928.00,51.864
929.00,51.841
930.00,51.817
931.00,51.785
932.00,51.750
933.00,51.761
934.00,51.730
935.00,51.714
936.00,51.695
937.00,51.651
938.00,51.657
939.00,51.633
940.00,51.628
941.00,51.611
942.00,51.565
943.00,51.575
944.00,51.555
945.00,51.553
946.00,51.532
947.00,51.528
948.00,51.483
949.00,51.463
950.00,51.441
951.00,51.434
952.00,51.407
953.00,51.360
954.00,51.349
955.00,51.354
956.00,51.304
957.00,51.305
958.00,51.294
959.00,51.246
960.00,51.237
961.00,51.223
962.00,51.215
963.00,51.183
964.00,51.163
965.00,51.167
966.00,51.156
967.00,51.132
968.00,51.106
969.00,51.133
970.00,51.125
971.00,51.132
972.00,51.066
973.00,51.145
974.00,51.161
975.00,51.135
976.00,51.147
977.00,51.125
978.00,51.157
979.00,51.123
980.00,51.145
981.00,51.128
982.00,51.111
983.00,51.124
984.00,51.107
985.00,51.118
986.00,51.107
987.00,51.114
988.00,51.065
989.00,51.076
990.00,51.077
991.00,51.065
992.00,51.072
993.00,51.053
994.00,51.015
995.00,50.996
996.00,51.011
997.00,50.986
998.00,50.977
999.00,50.993
1000.00,50.942
1001.00,50.941
1002.00,50.965
1003.00,50.953
1004.00,50.896
1005.00,50.893
1006.00,50.920
1007.00,50.899
1008.00,50.852
1009.00,50.839
1010.00,50.850
1011.00,50.827
1012.00,50.804
1013.00,50.805
1014.00,50.797
1015.00,50.782
1016.00,50.729
1017.00,50.775
1018.00,50.796
1019.00,50.695
1020.00,50.696
1021.00,50.681
1022.00,50.668
1023.00,50.626
1024.00,50.639
1025.00,50.615
1026.00,50.606
1027.00,50.576
1028.00,50.575
1029.00,50.570
1030.00,50.525
1031.00,50.543
1032.00,50.499
1033.00,50.500
1034.00,50.471
1035.00,50.451
1036.00,50.432
1037.00,50.414
1038.00,50.398
1039.00,50.365
1040.00,50.372
1041.00,50.335
1042.00,50.329
1043.00,50.316
1044.00,50.323
1045.00,50.314
1046.00,50.290
1047.00,50.302
1048.00,50.303
1049.00,50.305
1050.00,50.324
1051.00,50.360
1052.00,50.354
1053.00,50.353
1054.00,50.371
1055.00,50.384
1056.00,50.393
1057.00,50.395
1058.00,50.373
1059.00,50.382
1060.00,50.379
1061.00,50.357
1062.00,50.349
1063.00,50.348
1064.00,50.354
1065.00,50.349
1066.00,50.321
1067.00,50.314
1068.00,50.336
1069.00,50.304
1070.00,50.270
1071.00,50.291
1072.00,50.300
1073.00,50.301
1074.00,50.290
1075.00,50.285
1076.00,50.257
1077.00,50.227
1078.00,50.211
1079.00,50.212
1080.00,50.203
1081.00,50.190
1082.00,50.193
1083.00,50.183
1084.00,50.172
1085.00,50.162
1086.00,50.145
1087.00,50.161
1088.00,50.127
1089.00,50.126
1090.00,50.114
1091.00,50.111
1092.00,50.114
1093.00,50.087
1094.00,50.071
1095.00,50.071
1096.00,50.046
1097.00,50.050
1098.00,50.046
1099.00,50.033
1100.00,50.031
1101.00,50.022
1102.00,50.007
1103.00,50.006
1104.00,49.999
1105.00,49.988
1106.00,49.968
1107.00,49.947
1108.00,49.943
1109.00,49.938
1110.00,49.912
1111.00,49.918
1112.00,49.906
1113.00,49.895
1114.00,49.888
1115.00,49.894
1116.00,49.890
1117.00,49.880
1118.00,49.855
1119.00,49.854
1120.00,49.869
1121.00,49.857
1122.00,49.829
1123.00,49.836
1124.00,49.825
1125.00,49.822
1126.00,49.804
1127.00,49.814
1128.00,49.807
1129.00,49.780
1130.00,49.777
1131.00,49.780
1132.00,49.754
1133.00,49.765
1134.00,49.768
1135.00,49.755
1136.00,49.743
1137.00,49.741
1138.00,49.723
1139.00,49.748
1140.00,49.731
1141.00,49.720
1142.00,49.720
1143.00,49.712
1144.00,49.690
1145.00,49.690
1146.00,49.689
1147.00,49.676
1148.00,49.671
1149.00,49.679
1150.00,49.679
1151.00,49.665
1152.00,49.658
1153.00,49.665
1154.00,49.633
1155.00,49.639
1156.00,49.641
1157.00,49.639
1158.00,49.639
1159.00,49.627
1160.00,49.649
1161.00,49.658
1162.00,49.624
1163.00,49.626
1164.00,49.647
1165.00,49.630
1166.00,49.633
1167.00,49.629
1168.00,49.623
1169.00,49.612
1170.00,49.611
1171.00,49.593
1172.00,49.612
1173.00,49.589
1174.00,49.602
1175.00,49.611
1176.00,49.592
1177.00,49.579
1178.00,49.591
1179.00,49.597
1180.00,49.575
1181.00,49.596
1182.00,49.588
1183.00,49.582
1184.00,49.567
1185.00,49.593
1186.00,49.584
1187.00,49.570
1188.00,49.567
1189.00,49.575
1190.00,49.555
1191.00,49.553
1192.00,49.561
1193.00,49.563
1194.00,49.557
1195.00,49.528
1196.00,49.547
1197.00,49.563
1198.00,49.532
1199.00,49.529
1200.00,49.546
1201.00,49.544
1202.00,49.527
1203.00,49.513
1204.00,49.511
1205.00,49.533
1206.00,49.509
1207.00,49.519
1208.00,49.507
1209.00,49.516
1210.00,49.511
1211.00,49.530
1212.00,49.552
1213.00,49.502
1214.00,49.530
1215.00,49.509
1216.00,49.523
1217.00,49.514
1218.00,49.506
1219.00,49.531
1220.00,49.507
1221.00,49.526
1222.00,49.512
1223.00,49.514
1224.00,49.520
1225.00,49.498
1226.00,49.514
1227.00,49.532
1228.00,49.521
1229.00,49.522
1230.00,49.561
1231.00,49.544
1232.00,49.561
1233.00,49.563
1234.00,49.545
1235.00,49.545
1236.00,49.557
1237.00,49.571
1238.00,49.579
1239.00,49.562
1240.00,49.558
1241.00,49.568
1242.00,49.562
1243.00,49.572
1244.00,49.545
1245.00,49.568
1246.00,49.572
1247.00,49.559
1248.00,49.547
1249.00,49.582
1250.00,49.576
1251.00,49.575
1252.00,49.595
1253.00,49.572
1254.00,49.601
1255.00,49.587
1256.00,49.560
1257.00,49.553
1258.00,49.596
1259.00,49.604
1260.00,49.617
1261.00,49.615
1262.00,49.600
1263.00,49.613
1264.00,49.595
1265.00,49.595
1266.00,49.604
1267.00,49.604
1268.00,49.613
1269.00,49.604
1270.00,49.633
1271.00,49.626
1272.00,49.627
1273.00,49.658
1274.00,49.645
1275.00,49.648
1276.00,49.641
1277.00,49.646
1278.00,49.660
1279.00,49.660
1280.00,49.652
1281.00,49.654
1282.00,49.666
1283.00,49.642
1284.00,49.644
1285.00,49.655
1286.00,49.659
1287.00,49.667
1288.00,49.673
1289.00,49.671
1290.00,49.699
1291.00,49.694
1292.00,49.689
1293.00,49.685
1294.00,49.701
1295.00,49.710
1296.00,49.714
1297.00,49.718
1298.00,49.749
1299.00,49.741
1300.00,49.748
1301.00,49.734
1302.00,49.741
1303.00,49.752
1304.00,49.738
1305.00,49.764
1306.00,49.775
1307.00,49.785
1308.00,49.778
1309.00,49.792
1310.00,49.800
1311.00,49.772
1312.00,49.786
1313.00,49.798
1314.00,49.807
1315.00,49.820
1316.00,49.797
1317.00,49.825
1318.00,49.830
1319.00,49.825
1320.00,49.857
1321.00,49.693
1322.00,49.691
1323.00,49.674
1324.00,49.666
1325.00,49.670
1326.00,49.690
1327.00,49.669
1328.00,49.673
1329.00,49.700
1330.00,49.692
1331.00,49.692
1332.00,49.697
1333.00,49.707
1334.00,49.736
1335.00,49.739
1336.00,49.769
1337.00,49.795
1338.00,49.832
1339.00,49.892
1340.00,49.939
1341.00,49.991
1342.00,50.060
1343.00,50.095
1344.00,50.147
1345.00,50.202
1346.00,50.235
1347.00,50.261
1348.00,50.314
1349.00,50.311
1350.00,50.313
1351.00,50.333
1352.00,50.327
1353.00,50.361
1354.00,50.358
1355.00,50.345
1356.00,50.378
1357.00,50.365
1358.00,50.378
1359.00,50.363
1360.00,50.346
1361.00,50.409
1362.00,50.350
1363.00,50.423
1364.00,50.449
1365.00,50.378
1366.00,50.372
1367.00,50.382
1368.00,50.348
1369.00,50.383
1370.00,50.381
1371.00,50.337
1372.00,50.359
1373.00,50.379
1374.00,50.368
1375.00,50.364
1376.00,50.345
1377.00,50.384
1378.00,50.395
1379.00,50.352
1380.00,50.347
1381.00,50.376
1382.00,50.388
1383.00,50.350
1384.00,50.346
1385.00,50.344
1386.00,50.372
1387.00,50.306
1388.00,50.314
1389.00,50.317
1390.00,50.351
1391.00,50.362
1392.00,50.315
1393.00,50.343
1394.00,50.373
1395.00,50.366
1396.00,50.294
1397.00,50.316
1398.00,50.396
1399.00,50.383
1400.00,50.295
1401.00,50.325
1402.00,50.360
1403.00,50.327
1404.00,50.380
1405.00,50.406
1406.00,50.414
1407.00,50.412
1408.00,50.443
1409.00,50.390
1410.00,50.445
1411.00,50.458
1412.00,50.479
1413.00,50.432
1414.00,50.443
1415.00,50.464
1416.00,50.478
1417.00,50.504
1418.00,50.475
1419.00,50.479
1420.00,50.505
1421.00,50.536
1422.00,50.538
1423.00,50.548
1424.00,50.554
1425.00,50.565
1426.00,50.558
1427.00,50.581
1428.00,50.602
1429.00,50.583
1430.00,50.606
1431.00,50.630
1432.00,50.629
1433.00,50.646
1434.00,50.632
1435.00,50.678
1436.00,50.702
1437.00,50.671
1438.00,50.702
1439.00,50.734
1440.00,50.722
1441.00,50.730
1442.00,50.751
1443.00,50.761
1444.00,50.805
1445.00,50.792
1446.00,50.798
1447.00,50.826
1448.00,50.840
1449.00,50.864
1450.00,50.862
1451.00,50.873
1452.00,50.902
1453.00,50.896
1454.00,50.926
1455.00,50.944
1456.00,50.952
1457.00,50.967
1458.00,50.972
1459.00,50.979
1460.00,50.995
1461.00,51.008
1462.00,51.024
1463.00,51.039
1464.00,51.050
1465.00,51.058
1466.00,51.057
1467.00,51.081
1468.00,51.136
1469.00,51.120
1470.00,51.129
1471.00,51.153
1472.00,51.170
1473.00,51.173
1474.00,51.191
1475.00,51.208
1476.00,51.225
1477.00,51.224
1478.00,51.235
1479.00,51.256
1480.00,51.242
1481.00,51.247
1482.00,51.293
1483.00,51.300
1484.00,51.338
1485.00,51.322
1486.00,51.345
1487.00,51.373
1488.00,51.400
1489.00,51.396
1490.00,51.410
1491.00,51.433
1492.00,51.432
1493.00,51.431
1494.00,51.474
1495.00,51.469
1496.00,51.476
1497.00,51.479
1498.00,51.489
1499.00,51.507
1500.00,51.531
1501.00, 
1502.00, 
1503.00, 
1504.00, 
1505.00, 
1506.00, 
1507.00, 
1508.00, 
1509.00, 
1510.00, 
1511.00, 
1512.00, 
1513.00, 
1514.00, 
1515.00, 
1516.00, 
1517.00, 
1518.00, 
1519.00, 
1520.00, 
1521.00, 
1522.00, 
1523.00, 
1524.00, 
1525.00, 
1526.00, 
1527.00, 
1528.00, 
1529.00, 
1530.00, 
1531.00, 
1532.00, 
1533.00, 
1534.00, 
1535.00, 
1536.00, 
1537.00, 
1538.00, 
1539.00, 
1540.00, 
1541.00, 
1542.00, 
1543.00, 
1544.00, 
1545.00, 
1546.00, 
1547.00, 
1548.00, 
1549.00, 
1550.00, 
1551.00, 
1552.00, 
1553.00, 
1554.00, 
1555.00, 
1556.00, 
1557.00, 
1558.00, 
1559.00, 
1560.00, 
1561.00, 
1562.00, 
1563.00, 
1564.00, 
1565.00, 
1566.00, 
1567.00, 
1568.00, 
1569.00, 
1570.00, 
1571.00, 
1572.00, 
1573.00, 
1574.00, 
1575.00, 
1576.00, 
1577.00, 
1578.00, 
1579.00, 
1580.00, 
1581.00, 
1582.00, 
1583.00, 
1584.00, 
1585.00, 
1586.00, 
1587.00, 
1588.00, 
1589.00, 
1590.00, 
1591.00, 
1592.00, 
1593.00, 
1594.00, 
1595.00, 
1596.00, 
1597.00, 
1598.00, 
1599.00, 
1600.00, 
1601.00, 
1602.00, 
1603.00, 
1604.00, 
1605.00, 
1606.00, 
1607.00, 
1608.00, 
1609.00, 
1610.00, 
1611.00, 
1612.00, 
1613.00, 
1614.00, 
1615.00, 
1616.00, 
1617.00, 
1618.00, 
1619.00, 
1620.00, 
1621.00, 
1622.00, 
1623.00, 
1624.00, 
1625.00, 
1626.00, 
1627.00, 
1628.00, 
1629.00, 
1630.00, 
1631.00, 
1632.00, 
1633.00, 
1634.00, 
1635.00, 
1636.00, 
1637.00, 
1638.00, 
1639.00, 
1640.00, 
1641.00, 
1642.00, 
1643.00, 
1644.00, 
1645.00, 
1646.00, 
1647.00, 
1648.00, 
1649.00, 
1650.00, 
1651.00, 
1652.00, 
1653.00, 
1654.00, 
1655.00, 
1656.00, 
1657.00, 
1658.00, 
1659.00, 
1660.00, 
1661.00, 
1662.00, 
1663.00, 
1664.00, 
1665.00, 
1666.00, 
1667.00, 
1668.00, 
1669.00, 
1670.00, 
1671.00, 
1672.00, 
1673.00, 
1674.00, 
1675.00, 
1676.00, 
1677.00, 
1678.00, 
1679.00, 
1680.00, 
1681.00, 
1682.00, 
1683.00, 
1684.00, 
1685.00, 
1686.00, 
1687.00, 
1688.00, 
1689.00, 
1690.00, 
1691.00, 
1692.00, 
1693.00, 
1694.00, 
1695.00, 
1696.00, 
1697.00, 
1698.00, 
1699.00, 
1700.00, 
1701.00, 
1702.00, 
1703.00, 
1704.00, 
1705.00, 
1706.00, 
1707.00, 
1708.00, 
1709.00, 
1710.00, 
1711.00, 
1712.00, 
1713.00, 
1714.00, 
1715.00, 
1716.00, 
1717.00, 
1718.00, 
1719.00, 
1720.00, 
1721.00, 
1722.00, 
1723.00, 
1724.00, 
1725.00, 
1726.00, 
1727.00, 
1728.00, 
1729.00, 
1730.00, 
1731.00, 
1732.00, 
1733.00, 
1734.00, 
1735.00, 
1736.00, 
1737.00, 
1738.00, 
1739.00, 
1740.00, 
1741.00, 
1742.00, 
1743.00, 
1744.00, 
1745.00, 
1746.00, 
1747.00, 
1748.00, 
1749.00, 
1750.00, 
1751.00, 
1752.00, 
1753.00, 
1754.00, 
1755.00, 
1756.00, 
1757.00, 
1758.00, 
1759.00, 
1760.00, 
1761.00, 
1762.00, 
1763.00, 
1764.00, 
1765.00, 
1766.00, 
1767.00, 
1768.00, 
1769.00, 
1770.00, 
1771.00, 
1772.00, 
1773.00, 
1774.00, 
1775.00, 
1776.00, 
1777.00, 
1778.00, 
1779.00, 
1780.00, 
1781.00, 
1782.00, 
1783.00, 
1784.00, 
1785.00, 
1786.00, 
1787.00, 
1788.00, 
1789.00, 
1790.00, 
1791.00, 
1792.00, 
1793.00, 
1794.00, 
1795.00, 
1796.00, 
1797.00, 
1798.00, 
1799.00, 
1800.00, 
1801.00, 
1802.00, 
1803.00, 
1804.00, 
1805.00, 
1806.00, 
1807.00, 
1808.00, 
1809.00, 
1810.00, 
1811.00, 
1812.00, 
1813.00, 
1814.00, 
1815.00, 
1816.00, 
1817.00, 
1818.00, 
1819.00, 
1820.00, 
1821.00, 
1822.00, 
1823.00, 
1824.00, 
1825.00, 
1826.00, 
1827.00, 
1828.00, 
1829.00, 
1830.00, 
1831.00, 
1832.00, 
1833.00, 
1834.00, 
1835.00, 
1836.00, 
1837.00, 
1838.00, 
1839.00, 
1840.00, 
1841.00, 
1842.00, 
1843.00, 
1844.00, 
1845.00, 
1846.00, 
1847.00, 
1848.00, 
1849.00, 
1850.00, 
1851.00, 
1852.00, 
1853.00, 
1854.00, 
1855.00, 
1856.00, 
1857.00, 
1858.00, 
1859.00, 
1860.00, 
1861.00, 
1862.00, 
1863.00, 
1864.00, 
1865.00, 
1866.00, 
1867.00, 
1868.00, 
1869.00, 
1870.00, 
1871.00, 
1872.00, 
1873.00, 
1874.00, 
1875.00, 
1876.00, 
1877.00, 
1878.00, 
1879.00, 
1880.00, 
1881.00, 
1882.00, 
1883.00, 
1884.00, 
1885.00, 
1886.00, 
1887.00, 
1888.00, 
1889.00, 
1890.00, 
1891.00, 
1892.00, 
1893.00, 
1894.00, 
1895.00, 
1896.00, 
1897.00, 
1898.00, 
1899.00, 
1900.00, 
1901.00, 
1902.00, 
1903.00, 
1904.00, 
1905.00, 
1906.00, 
1907.00, 
1908.00, 
1909.00, 
1910.00, 
1911.00, 
1912.00, 
1913.00, 
1914.00, 
1915.00, 
1916.00, 
1917.00, 
1918.00, 
1919.00, 
1920.00, 
1921.00, 
1922.00, 
1923.00, 
1924.00, 
1925.00, 
1926.00, 
1927.00, 
1928.00, 
1929.00, 
1930.00, 
1931.00, 
1932.00, 
1933.00, 
1934.00, 
1935.00, 
1936.00, 
1937.00, 
1938.00, 
1939.00, 
1940.00, 
1941.00, 
1942.00, 
1943.00, 
1944.00, 
1945.00, 
1946.00, 
1947.00, 
1948.00, 
1949.00, 
1950.00, 
1951.00, 
1952.00, 
1953.00, 
1954.00, 
1955.00, 
1956.00, 
1957.00, 
1958.00, 
1959.00, 
1960.00, 
1961.00, 
1962.00, 
1963.00, 
1964.00, 
1965.00, 
1966.00, 
1967.00, 
1968.00, 
1969.00, 
1970.00, 
1971.00, 
1972.00, 
1973.00, 
1974.00, 
1975.00, 
1976.00, 
1977.00, 
1978.00, 
1979.00, 
1980.00, 
1981.00, 
1982.00, 
1983.00, 
1984.00, 
1985.00, 
1986.00, 
1987.00, 
1988.00, 
1989.00, 
1990.00, 
1991.00, 
1992.00, 
1993.00, 
1994.00, 
1995.00, 
1996.00, 
1997.00, 
1998.00, 
1999.00, 
2000.00, 
2001.00, 
2002.00, 
2003.00, 
2004.00, 
2005.00, 
2006.00, 
2007.00, 
2008.00, 
2009.00, 
2010.00, 
2011.00, 
2012.00, 
2013.00, 
2014.00, 
2015.00, 
2016.00, 
2017.00, 
2018.00, 
2019.00, 
2020.00, 
2021.00, 
2022.00, 
2023.00, 
2024.00, 
2025.00, 
2026.00, 
2027.00, 
2028.00, 
2029.00, 
2030.00, 
2031.00, 
2032.00, 
2033.00, 
2034.00, 
2035.00, 
2036.00, 
2037.00, 
2038.00, 
2039.00, 
2040.00, 
2041.00, 
2042.00, 
2043.00, 
2044.00, 
2045.00, 
2046.00, 
2047.00, 
2048.00, 
2049.00, 
2050.00, 
2051.00, 
2052.00, 
2053.00, 
2054.00, 
2055.00, 
2056.00, 
2057.00, 
2058.00, 
2059.00, 
2060.00, 
2061.00, 
2062.00, 
2063.00, 
2064.00, 
2065.00, 
2066.00, 
2067.00, 
2068.00, 
2069.00, 
2070.00, 
2071.00, 
2072.00, 
2073.00, 
2074.00, 
2075.00, 
2076.00, 
2077.00, 
2078.00, 
2079.00, 
2080.00, 
2081.00, 
2082.00, 
2083.00, 
2084.00, 
2085.00, 
2086.00, 
2087.00, 
2088.00, 
2089.00, 
2090.00, 
2091.00, 
2092.00, 
2093.00, 
2094.00, 
2095.00, 
2096.00, 
2097.00, 
2098.00, 
2099.00, 
2100.00, 
2101.00, 
2102.00, 
2103.00, 
2104.00, 
2105.00, 
2106.00, 
2107.00, 
2108.00, 
2109.00, 
2110.00, 
2111.00, 
2112.00, 
2113.00, 
2114.00, 
2115.00, 
2116.00, 
2117.00, 
2118.00, 
2119.00, 
2120.00, 
2121.00, 
2122.00, 
2123.00, 
2124.00, 
2125.00, 
2126.00, 
2127.00, 
2128.00, 
2129.00, 
2130.00, 
2131.00, 
2132.00, 
2133.00, 
2134.00, 
2135.00, 
2136.00, 
2137.00, 
2138.00, 
2139.00, 
2140.00, 
2141.00, 
2142.00, 
2143.00, 
2144.00, 
2145.00, 
2146.00, 
2147.00, 
2148.00, 
2149.00, 
2150.00, 
2151.00, 
2152.00, 
2153.00, 
2154.00, 
2155.00, 
2156.00, 
2157.00, 
2158.00, 
2159.00, 
2160.00, 
2161.00, 
2162.00, 
2163.00, 
2164.00, 
2165.00, 
2166.00, 
2167.00, 
2168.00, 
2169.00, 
2170.00, 
2171.00, 
2172.00, 
2173.00, 
2174.00, 
2175.00, 
2176.00, 
2177.00, 
2178.00, 
2179.00, 
2180.00, 
2181.00, 
2182.00, 
2183.00, 
2184.00, 
2185.00, 
2186.00, 
2187.00, 
2188.00, 
2189.00, 
2190.00, 
2191.00, 
2192.00, 
2193.00, 
2194.00, 
2195.00, 
2196.00, 
2197.00, 
2198.00, 
2199.00, 
2200.00, 
2201.00, 
2202.00, 
2203.00, 
2204.00, 
2205.00, 
2206.00, 
2207.00, 
2208.00, 
2209.00, 
2210.00, 
2211.00, 
2212.00, 
2213.00, 
2214.00, 
2215.00, 
2216.00, 
2217.00, 
2218.00, 
2219.00, 
2220.00, 
2221.00, 
2222.00, 
2223.00, 
2224.00, 
2225.00, 
2226.00, 
2227.00, 
2228.00, 
2229.00, 
2230.00, 
2231.00, 
2232.00, 
2233.00, 
2234.00, 
2235.00, 
2236.00, 
2237.00, 
2238.00, 
2239.00, 
2240.00, 
2241.00, 
2242.00, 
2243.00, 
2244.00, 
2245.00, 
2246.00, 
2247.00, 
2248.00, 
2249.00, 
2250.00, 
2251.00, 
2252.00, 
2253.00, 
2254.00, 
2255.00, 
2256.00, 
2257.00, 
2258.00, 
2259.00, 
2260.00, 
2261.00, 
2262.00, 
2263.00, 
2264.00, 
2265.00, 
2266.00, 
2267.00, 
2268.00, 
2269.00, 
2270.00, 
2271.00, 
2272.00, 
2273.00, 
2274.00, 
2275.00, 
2276.00, 
2277.00, 
2278.00, 
2279.00, 
2280.00, 
2281.00, 
2282.00, 
2283.00, 
2284.00, 
2285.00, 
2286.00, 
2287.00, 
2288.00, 
2289.00, 
2290.00, 
2291.00, 
2292.00, 
2293.00, 
2294.00, 
2295.00, 
2296.00, 
2297.00, 
2298.00, 
2299.00, 
2300.00, 
2301.00, 
2302.00, 
2303.00, 
2304.00, 
2305.00, 
2306.00, 
2307.00, 
2308.00, 
2309.00, 
2310.00, 
2311.00, 
2312.00, 
2313.00, 
2314.00, 
2315.00, 
2316.00, 
2317.00, 
2318.00, 
2319.00, 
2320.00, 
2321.00, 
2322.00, 
2323.00, 
2324.00, 
2325.00, 
2326.00, 
2327.00, 
2328.00, 
2329.00, 
2330.00, 
2331.00, 
2332.00, 
2333.00, 
2334.00, 
2335.00, 
2336.00, 
2337.00, 
2338.00, 
2339.00, 
2340.00, 
2341.00, 
2342.00, 
2343.00, 
2344.00, 
2345.00, 
2346.00, 
2347.00, 
2348.00, 
2349.00, 
2350.00, 
2351.00, 
2352.00, 
2353.00, 
2354.00, 
2355.00, 
2356.00, 
2357.00, 
2358.00, 
2359.00, 
2360.00, 
2361.00, 
2362.00, 
2363.00, 
2364.00, 
2365.00, 
2366.00, 
2367.00, 
2368.00, 
2369.00, 
2370.00, 
2371.00, 
2372.00, 
2373.00, 
2374.00, 
2375.00, 
2376.00, 
2377.00, 
2378.00, 
2379.00, 
2380.00, 
2381.00, 
2382.00, 
2383.00, 
2384.00, 
2385.00, 
2386.00, 
2387.00, 
2388.00, 
2389.00, 
2390.00, 
2391.00, 
2392.00, 
2393.00, 
2394.00, 
2395.00, 
2396.00, 
2397.00, 
2398.00, 
2399.00, 
2400.00, 
2401.00, 
2402.00, 
2403.00, 
2404.00, 
2405.00, 
2406.00, 
2407.00, 
2408.00, 
2409.00, 
2410.00, 
2411.00, 
2412.00, 
2413.00, 
2414.00, 
2415.00, 
2416.00, 
2417.00, 
2418.00, 
2419.00, 
2420.00, 
2421.00, 
2422.00, 
2423.00, 
2424.00, 
2425.00, 
2426.00, 
2427.00, 
2428.00, 
2429.00, 
2430.00, 
2431.00, 
2432.00, 
2433.00, 
2434.00, 
2435.00, 
2436.00, 
2437.00, 
2438.00, 
2439.00, 
2440.00, 
2441.00, 
2442.00, 
2443.00, 
2444.00, 
2445.00, 
2446.00, 
2447.00, 
2448.00, 
2449.00, 
2450.00, 
2451.00, 
2452.00, 
2453.00, 
2454.00, 
2455.00, 
2456.00, 
2457.00, 
2458.00, 
2459.00, 
2460.00, 
2461.00, 
2462.00, 
2463.00, 
2464.00, 
2465.00, 
2466.00, 
2467.00, 
2468.00, 
2469.00, 
2470.00, 
2471.00, 
2472.00, 
2473.00, 
2474.00, 
2475.00, 
2476.00, 
2477.00, 
2478.00, 
2479.00, 
2480.00, 
2481.00, 
2482.00, 
2483.00, 
2484.00, 
2485.00, 
2486.00, 
2487.00, 
2488.00, 
2489.00, 
2490.00, 
2491.00, 
2492.00, 
2493.00, 
2494.00, 
2495.00, 
2496.00, 
2497.00, 
2498.00, 
2499.00, 
2500.00, 
2501.00, 
2502.00, 
2503.00, 
2504.00, 
2505.00, 
2506.00, 
2507.00, 
2508.00, 
2509.00, 
2510.00, 
2511.00, 
2512.00, 
2513.00, 
2514.00, 
2515.00, 
2516.00, 
2517.00, 
2518.00, 
2519.00, 
2520.00, 
2521.00, 
2522.00, 
2523.00, 
2524.00, 
2525.00, 
2526.00, 
2527.00, 
2528.00, 
2529.00, 
2530.00, 
2531.00, 
2532.00, 
2533.00, 
2534.00, 
2535.00, 
2536.00, 
2537.00, 
2538.00, 
2539.00, 
2540.00, 
2541.00, 
2542.00, 
2543.00, 
2544.00, 
2545.00, 
2546.00, 
2547.00, 
2548.00, 
2549.00, 
2550.00, 
2551.00, 
2552.00, 
2553.00, 
2554.00, 
2555.00, 
2556.00, 
2557.00, 
2558.00, 
2559.00, 
2560.00, 
2561.00, 
2562.00, 
2563.00, 
2564.00, 
2565.00, 
2566.00, 
2567.00, 
2568.00, 
2569.00, 
2570.00, 
2571.00, 
2572.00, 
2573.00, 
2574.00, 
2575.00, 
2576.00, 
2577.00, 
2578.00, 
2579.00, 
2580.00, 
2581.00, 
2582.00, 
2583.00, 
2584.00, 
2585.00, 
2586.00, 
2587.00, 
2588.00, 
2589.00, 
2590.00, 
2591.00, 
2592.00, 
2593.00, 
2594.00, 
2595.00, 
2596.00, 
2597.00, 
2598.00, 
2599.00, 
2600.00, 
