"1cP1 - RawData"
"Wavelength nm.","T%"
200.00,0.003
201.00,-0.001
202.00,-0.002
203.00,0.000
204.00,-0.001
205.00,-0.001
206.00,0.000
207.00,0.000
208.00,0.001
209.00,-0.000
210.00,0.003
211.00,0.002
212.00,0.002
213.00,0.001
214.00,-0.001
215.00,0.001
216.00,-0.001
217.00,0.003
218.00,0.003
219.00,0.000
220.00,0.001
221.00,0.003
222.00,-0.003
223.00,0.002
224.00,0.001
225.00,-0.001
226.00,0.001
227.00,0.002
228.00,-0.004
229.00,0.001
230.00,-0.000
231.00,0.001
232.00,-0.000
233.00,0.001
234.00,0.001
235.00,-0.000
236.00,0.002
237.00,0.002
238.00,0.001
239.00,0.001
240.00,0.000
241.00,-0.001
242.00,0.002
243.00,0.000
244.00,0.001
245.00,0.003
246.00,-0.002
247.00,0.002
248.00,-0.001
249.00,-0.000
250.00,0.000
251.00,0.001
252.00,0.001
253.00,0.001
254.00,0.000
255.00,0.000
256.00,-0.000
257.00,-0.001
258.00,-0.000
259.00,-0.000
260.00,0.000
261.00,-0.001
262.00,0.000
263.00,-0.000
264.00,0.002
265.00,0.001
266.00,-0.000
267.00,-0.001
268.00,0.001
269.00,-0.002
270.00,0.001
271.00,-0.000
272.00,0.000
273.00,0.002
274.00,0.001
275.00,-0.001
276.00,-0.001
277.00,0.000
278.00,0.001
279.00,0.001
280.00,-0.000
281.00,0.001
282.00,0.000
283.00,0.002
284.00,0.000
285.00,0.000
286.00,-0.000
287.00,0.001
288.00,-0.002
289.00,-0.001
290.00,0.002
291.00,0.000
292.00,-0.001
293.00,-0.000
294.00,0.000
295.00,-0.000
296.00,-0.001
297.00,-0.001
298.00,0.000
299.00,0.001
300.00,0.000
301.00,-0.001
302.00,0.000
303.00,0.001
304.00,0.001
305.00,0.000
306.00,0.003
307.00,0.004
308.00,0.006
309.00,0.010
310.00,0.020
311.00,0.028
312.00,0.042
313.00,0.071
314.00,0.107
315.00,0.153
316.00,0.224
317.00,0.314
318.00,0.425
319.00,0.570
320.00,0.763
321.00,1.004
322.00,1.279
323.00,1.600
324.00,1.997
325.00,2.402
326.00,2.835
327.00,3.376
328.00,3.944
329.00,4.549
330.00,5.228
331.00,5.920
332.00,6.652
333.00,7.449
334.00,8.195
335.00,9.035
336.00,9.860
337.00,10.653
338.00,11.530
339.00,12.142
340.00,13.089
341.00,13.935
342.00,14.670
343.00,15.409
344.00,16.130
345.00,16.882
346.00,17.553
347.00,18.111
348.00,18.743
349.00,19.297
350.00,19.863
351.00,20.350
352.00,20.825
353.00,21.304
354.00,21.717
355.00,22.107
356.00,22.481
357.00,22.814
358.00,23.167
359.00,23.511
360.00,23.853
361.00,24.001
362.00,24.337
363.00,24.546
364.00,24.645
365.00,24.827
366.00,24.971
367.00,25.139
368.00,25.227
369.00,25.314
370.00,25.397
371.00,25.390
372.00,25.441
373.00,25.363
374.00,25.395
375.00,25.416
376.00,25.332
377.00,25.259
378.00,25.101
379.00,25.048
380.00,25.031
381.00,25.030
382.00,25.072
383.00,25.100
384.00,25.194
385.00,25.275
386.00,25.272
387.00,25.447
388.00,25.478
389.00,25.557
390.00,25.631
391.00,25.710
392.00,25.800
393.00,25.790
394.00,25.877
395.00,25.944
396.00,25.949
397.00,25.990
398.00,25.999
399.00,26.022
400.00,25.995
401.00,25.997
402.00,26.025
403.00,26.005
404.00,26.036
405.00,26.012
406.00,25.971
407.00,25.932
408.00,25.948
409.00,25.863
410.00,25.801
411.00,25.852
412.00,25.784
413.00,25.745
414.00,25.715
415.00,25.751
416.00,25.782
417.00,25.761
418.00,25.795
419.00,25.906
420.00,25.906
421.00,25.949
422.00,25.948
423.00,26.012
424.00,26.037
425.00,26.078
426.00,26.116
427.00,26.155
428.00,26.180
429.00,26.227
430.00,26.273
431.00,26.270
432.00,26.335
433.00,26.337
434.00,26.436
435.00,26.478
436.00,26.540
437.00,26.592
438.00,26.667
439.00,26.719
440.00,26.776
441.00,26.844
442.00,26.901
443.00,26.968
444.00,27.108
445.00,27.165
446.00,27.288
447.00,27.374
448.00,27.457
449.00,27.542
450.00,27.671
451.00,27.753
452.00,27.863
453.00,27.941
454.00,27.999
455.00,28.100
456.00,28.258
457.00,28.374
458.00,28.424
459.00,28.604
460.00,28.685
461.00,28.852
462.00,28.947
463.00,29.043
464.00,29.171
465.00,29.280
466.00,29.401
467.00,29.541
468.00,29.651
469.00,29.741
470.00,29.778
471.00,29.875
472.00,30.039
473.00,30.063
474.00,30.181
475.00,30.269
476.00,30.409
477.00,30.447
478.00,30.609
479.00,30.788
480.00,30.890
481.00,31.002
482.00,31.114
483.00,31.255
484.00,31.443
485.00,31.568
486.00,31.691
487.00,31.853
488.00,31.992
489.00,32.116
490.00,32.249
491.00,32.354
492.00,32.610
493.00,32.722
494.00,32.711
495.00,32.918
496.00,33.031
497.00,33.014
498.00,33.144
499.00,33.360
500.00,33.405
501.00,33.539
502.00,33.740
503.00,33.848
504.00,33.855
505.00,33.968
506.00,34.108
507.00,34.186
508.00,34.359
509.00,34.511
510.00,34.597
511.00,34.641
512.00,34.830
513.00,34.982
514.00,35.058
515.00,35.182
516.00,35.299
517.00,35.377
518.00,35.511
519.00,35.562
520.00,35.569
521.00,35.688
522.00,35.755
523.00,35.783
524.00,35.925
525.00,36.017
526.00,36.178
527.00,36.165
528.00,36.256
529.00,36.370
530.00,36.549
531.00,36.693
532.00,36.704
533.00,36.838
534.00,36.900
535.00,36.999
536.00,37.083
537.00,37.160
538.00,37.230
539.00,37.298
540.00,37.337
541.00,37.406
542.00,37.473
543.00,37.575
544.00,37.549
545.00,37.605
546.00,37.623
547.00,37.700
548.00,37.863
549.00,37.900
550.00,38.035
551.00,38.125
552.00,38.220
553.00,38.215
554.00,38.313
555.00,38.385
556.00,38.427
557.00,38.515
558.00,38.540
559.00,38.591
560.00,38.712
561.00,38.749
562.00,38.748
563.00,38.788
564.00,38.886
565.00,38.894
566.00,38.902
567.00,38.974
568.00,38.976
569.00,39.041
570.00,39.086
571.00,39.133
572.00,39.144
573.00,39.109
574.00,39.127
575.00,39.132
576.00,39.184
577.00,39.230
578.00,39.284
579.00,39.390
580.00,39.396
581.00,39.602
582.00,39.658
583.00,39.641
584.00,39.771
585.00,39.882
586.00,39.840
587.00,39.938
588.00,39.942
589.00,39.813
590.00,40.015
591.00,40.035
592.00,39.955
593.00,40.016
594.00,40.100
595.00,40.240
596.00,40.281
597.00,40.276
598.00,40.358
599.00,40.385
600.00,40.460
601.00,40.510
602.00,40.443
603.00,40.446
604.00,40.560
605.00,40.593
606.00,40.614
607.00,40.642
608.00,40.836
609.00,40.899
610.00,40.700
611.00,40.806
612.00,40.849
613.00,40.848
614.00,40.920
615.00,40.973
616.00,41.094
617.00,41.095
618.00,41.048
619.00,41.095
620.00,41.044
621.00,41.217
622.00,41.420
623.00,41.385
624.00,41.420
625.00,41.459
626.00,41.529
627.00,41.569
628.00,41.480
629.00,41.538
630.00,41.660
631.00,41.594
632.00,41.782
633.00,41.884
634.00,41.796
635.00,41.914
636.00,42.044
637.00,42.076
638.00,42.105
639.00,42.178
640.00,42.180
641.00,42.254
642.00,42.323
643.00,42.320
644.00,42.470
645.00,42.445
646.00,42.611
647.00,42.673
648.00,42.721
649.00,42.730
650.00,42.734
651.00,42.908
652.00,42.986
653.00,42.942
654.00,42.975
655.00,43.187
656.00,43.434
657.00,43.359
658.00,43.425
659.00,43.547
660.00,43.518
661.00,43.448
662.00,43.577
663.00,43.566
664.00,43.799
665.00,43.940
666.00,43.902
667.00,44.043
668.00,43.960
669.00,44.162
670.00,44.372
671.00,44.257
672.00,44.324
673.00,44.462
674.00,44.473
675.00,44.494
676.00,44.705
677.00,44.809
678.00,44.538
679.00,44.754
680.00,44.773
681.00,44.954
682.00,44.929
683.00,45.090
684.00,45.142
685.00,45.219
686.00,45.175
687.00,45.263
688.00,45.290
689.00,45.274
690.00,45.611
691.00,45.784
692.00,45.464
693.00,45.562
694.00,45.796
695.00,45.951
696.00,45.977
697.00,45.942
698.00,45.886
699.00,46.069
700.00,46.228
701.00,46.212
702.00,46.254
703.00,46.418
704.00,46.385
705.00,46.374
706.00,46.402
707.00,46.518
708.00,46.331
709.00,46.716
710.00,47.077
711.00,46.679
712.00,46.706
713.00,46.888
714.00,46.943
715.00,46.860
716.00,47.008
717.00,47.033
718.00,47.179
719.00,47.103
720.00,47.112
721.00,51.793
722.00,51.783
723.00,51.755
724.00,51.713
725.00,51.798
726.00,51.814
727.00,51.753
728.00,51.831
729.00,51.739
730.00,51.756
731.00,51.795
732.00,51.849
733.00,51.821
734.00,51.812
735.00,51.884
736.00,51.865
737.00,51.811
738.00,51.916
739.00,51.870
740.00,51.900
741.00,51.972
742.00,51.930
743.00,51.955
744.00,51.850
745.00,51.955
746.00,52.036
747.00,51.849
748.00,51.866
749.00,51.834
750.00,51.845
751.00,51.827
752.00,51.895
753.00,51.789
754.00,51.831
755.00,51.740
756.00,51.812
757.00,51.798
758.00,51.845
759.00,51.757
760.00,51.740
761.00,51.796
762.00,51.814
763.00,51.830
764.00,51.807
765.00,51.741
766.00,51.790
767.00,51.752
768.00,51.742
769.00,51.764
770.00,51.828
771.00,51.716
772.00,51.845
773.00,51.768
774.00,51.750
775.00,51.765
776.00,51.651
777.00,51.793
778.00,51.710
779.00,51.828
780.00,51.738
781.00,51.740
782.00,51.716
783.00,51.699
784.00,51.765
785.00,51.596
786.00,51.715
787.00,51.687
788.00,51.540
789.00,51.615
790.00,51.544
791.00,51.613
792.00,51.493
793.00,51.453
794.00,51.553
795.00,51.538
796.00,51.517
797.00,51.403
798.00,51.404
799.00,51.370
800.00,51.393
801.00,51.387
802.00,51.358
803.00,51.390
804.00,51.391
805.00,51.419
806.00,51.273
807.00,51.264
808.00,51.373
809.00,51.161
810.00,51.212
811.00,51.152
812.00,51.191
813.00,51.165
814.00,51.101
815.00,51.151
816.00,51.142
817.00,51.066
818.00,51.012
819.00,51.000
820.00,50.959
821.00,50.948
822.00,50.965
823.00,50.977
824.00,50.986
825.00,50.805
826.00,50.829
827.00,50.936
828.00,50.868
829.00,50.901
830.00,50.909
831.00,53.218
832.00,53.215
833.00,53.134
834.00,53.149
835.00,53.124
836.00,53.097
837.00,53.060
838.00,53.050
839.00,53.043
840.00,52.963
841.00,53.006
842.00,52.948
843.00,52.978
844.00,52.927
845.00,52.853
846.00,52.872
847.00,52.852
848.00,52.833
849.00,52.770
850.00,52.771
851.00,52.683
852.00,52.705
853.00,52.643
854.00,52.649
855.00,52.568
856.00,52.585
857.00,52.527
858.00,52.514
859.00,52.489
860.00,52.484
861.00,52.453
862.00,52.406
863.00,52.413
864.00,52.385
865.00,52.430
866.00,52.334
867.00,52.310
868.00,52.303
869.00,52.339
870.00,52.318
871.00,52.263
872.00,52.282
873.00,52.296
874.00,52.273
875.00,52.242
876.00,52.240
877.00,52.347
878.00,52.213
879.00,52.138
880.00,52.150
881.00,52.133
882.00,52.169
883.00,52.114
884.00,52.086
885.00,52.058
886.00,52.065
887.00,52.031
888.00,51.990
889.00,52.003
890.00,51.984
891.00,51.942
892.00,51.924
893.00,51.894
894.00,51.896
895.00,51.873
896.00,51.836
897.00,51.812
898.00,51.791
899.00,51.778
900.00,51.766
901.00,51.785
902.00,51.752
903.00,51.717
904.00,51.709
905.00,51.679
906.00,51.685
907.00,51.634
908.00,51.625
909.00,51.628
910.00,51.548
911.00,51.597
912.00,51.570
913.00,51.507
914.00,51.506
915.00,51.484
916.00,51.462
917.00,51.429
918.00,51.432
919.00,51.371
920.00,51.314
921.00,51.375
922.00,51.351
923.00,51.330
924.00,51.309
925.00,51.294
926.00,51.257
927.00,51.264
928.00,51.189
929.00,51.217
930.00,51.197
931.00,51.168
932.00,51.158
933.00,51.139
934.00,51.126
935.00,51.108
936.00,51.069
937.00,51.056
938.00,51.028
939.00,51.034
940.00,50.989
941.00,50.977
942.00,50.936
943.00,50.946
944.00,50.879
945.00,50.912
946.00,50.899
947.00,50.846
948.00,50.831
949.00,50.819
950.00,50.800
951.00,50.779
952.00,50.751
953.00,50.800
954.00,50.706
955.00,50.654
956.00,50.647
957.00,50.613
958.00,50.637
959.00,50.568
960.00,50.580
961.00,50.555
962.00,50.561
963.00,50.523
964.00,50.498
965.00,50.501
966.00,50.487
967.00,50.473
968.00,50.486
969.00,50.485
970.00,50.444
971.00,50.469
972.00,50.430
973.00,50.479
974.00,50.404
975.00,50.425
976.00,50.452
977.00,50.444
978.00,50.484
979.00,50.443
980.00,50.470
981.00,50.559
982.00,50.446
983.00,50.438
984.00,50.422
985.00,50.453
986.00,50.400
987.00,50.416
988.00,50.408
989.00,50.408
990.00,50.393
991.00,50.369
992.00,50.396
993.00,50.339
994.00,50.320
995.00,50.311
996.00,50.287
997.00,50.268
998.00,50.255
999.00,50.283
1000.00,50.235
1001.00,50.250
1002.00,50.211
1003.00,50.206
1004.00,50.187
1005.00,50.154
1006.00,50.198
1007.00,50.160
1008.00,50.146
1009.00,50.123
1010.00,50.106
1011.00,50.115
1012.00,50.093
1013.00,50.100
1014.00,50.097
1015.00,50.076
1016.00,50.013
1017.00,50.019
1018.00,50.003
1019.00,49.960
1020.00,49.966
1021.00,49.925
1022.00,49.931
1023.00,49.880
1024.00,49.884
1025.00,49.864
1026.00,49.861
1027.00,49.820
1028.00,49.815
1029.00,49.819
1030.00,49.784
1031.00,49.814
1032.00,49.769
1033.00,49.773
1034.00,49.755
1035.00,49.722
1036.00,49.693
1037.00,49.681
1038.00,49.662
1039.00,49.637
1040.00,49.626
1041.00,49.579
1042.00,49.594
1043.00,49.566
1044.00,49.606
1045.00,49.599
1046.00,49.573
1047.00,49.598
1048.00,49.606
1049.00,49.612
1050.00,49.617
1051.00,49.655
1052.00,49.644
1053.00,49.664
1054.00,49.647
1055.00,49.671
1056.00,49.689
1057.00,49.681
1058.00,49.670
1059.00,49.667
1060.00,49.672
1061.00,49.661
1062.00,49.654
1063.00,49.652
1064.00,49.666
1065.00,49.636
1066.00,49.631
1067.00,49.628
1068.00,49.654
1069.00,49.617
1070.00,49.590
1071.00,49.560
1072.00,49.603
1073.00,49.577
1074.00,49.581
1075.00,49.586
1076.00,49.549
1077.00,49.536
1078.00,49.523
1079.00,49.516
1080.00,49.514
1081.00,49.498
1082.00,49.485
1083.00,49.487
1084.00,49.481
1085.00,49.474
1086.00,49.477
1087.00,49.470
1088.00,49.464
1089.00,49.477
1090.00,49.462
1091.00,49.461
1092.00,49.447
1093.00,49.415
1094.00,49.404
1095.00,49.400
1096.00,49.369
1097.00,49.379
1098.00,49.363
1099.00,49.350
1100.00,49.343
1101.00,49.328
1102.00,49.324
1103.00,49.327
1104.00,49.302
1105.00,49.287
1106.00,49.277
1107.00,49.263
1108.00,49.268
1109.00,49.260
1110.00,49.254
1111.00,49.261
1112.00,49.233
1113.00,49.235
1114.00,49.230
1115.00,49.218
1116.00,49.218
1117.00,49.198
1118.00,49.184
1119.00,49.203
1120.00,49.191
1121.00,49.183
1122.00,49.174
1123.00,49.190
1124.00,49.178
1125.00,49.179
1126.00,49.163
1127.00,49.164
1128.00,49.145
1129.00,49.125
1130.00,49.122
1131.00,49.111
1132.00,49.087
1133.00,49.105
1134.00,49.088
1135.00,49.084
1136.00,49.092
1137.00,49.092
1138.00,49.087
1139.00,49.093
1140.00,49.072
1141.00,49.078
1142.00,49.060
1143.00,49.088
1144.00,49.070
1145.00,49.063
1146.00,49.057
1147.00,49.059
1148.00,49.051
1149.00,49.057
1150.00,49.054
1151.00,49.069
1152.00,49.050
1153.00,49.051
1154.00,49.045
1155.00,49.059
1156.00,49.039
1157.00,49.050
1158.00,49.043
1159.00,49.036
1160.00,49.032
1161.00,49.043
1162.00,49.030
1163.00,49.032
1164.00,49.020
1165.00,49.018
1166.00,49.025
1167.00,49.006
1168.00,49.034
1169.00,49.024
1170.00,49.008
1171.00,48.996
1172.00,49.017
1173.00,49.008
1174.00,49.028
1175.00,49.015
1176.00,49.013
1177.00,49.002
1178.00,48.994
1179.00,49.018
1180.00,49.000
1181.00,49.013
1182.00,49.002
1183.00,48.991
1184.00,48.984
1185.00,49.012
1186.00,48.993
1187.00,48.994
1188.00,48.995
1189.00,48.989
1190.00,48.984
1191.00,48.985
1192.00,48.995
1193.00,48.978
1194.00,48.971
1195.00,48.947
1196.00,48.998
1197.00,48.997
1198.00,48.977
1199.00,48.988
1200.00,48.994
1201.00,49.012
1202.00,48.993
1203.00,48.984
1204.00,48.981
1205.00,49.013
1206.00,48.992
1207.00,49.005
1208.00,48.992
1209.00,49.002
1210.00,49.011
1211.00,48.987
1212.00,49.015
1213.00,48.981
1214.00,49.006
1215.00,48.992
1216.00,48.990
1217.00,48.986
1218.00,48.975
1219.00,48.995
1220.00,48.983
1221.00,49.009
1222.00,48.986
1223.00,48.998
1224.00,48.992
1225.00,48.989
1226.00,48.983
1227.00,48.989
1228.00,49.019
1229.00,49.004
1230.00,49.036
1231.00,49.018
1232.00,49.043
1233.00,49.035
1234.00,49.058
1235.00,49.063
1236.00,49.057
1237.00,49.074
1238.00,49.070
1239.00,49.070
1240.00,49.062
1241.00,49.073
1242.00,49.068
1243.00,49.089
1244.00,49.065
1245.00,49.096
1246.00,49.109
1247.00,49.089
1248.00,49.104
1249.00,49.114
1250.00,49.117
1251.00,49.115
1252.00,49.120
1253.00,49.108
1254.00,49.146
1255.00,49.132
1256.00,49.105
1257.00,49.105
1258.00,49.156
1259.00,49.138
1260.00,49.177
1261.00,49.160
1262.00,49.153
1263.00,49.147
1264.00,49.170
1265.00,49.188
1266.00,49.167
1267.00,49.193
1268.00,49.195
1269.00,49.175
1270.00,49.193
1271.00,49.207
1272.00,49.197
1273.00,49.221
1274.00,49.218
1275.00,49.222
1276.00,49.234
1277.00,49.234
1278.00,49.256
1279.00,49.257
1280.00,49.242
1281.00,49.272
1282.00,49.267
1283.00,49.282
1284.00,49.299
1285.00,49.282
1286.00,49.296
1287.00,49.319
1288.00,49.335
1289.00,49.316
1290.00,49.335
1291.00,49.318
1292.00,49.315
1293.00,49.316
1294.00,49.334
1295.00,49.363
1296.00,49.343
1297.00,49.343
1298.00,49.387
1299.00,49.350
1300.00,49.372
1301.00,49.361
1302.00,49.370
1303.00,49.388
1304.00,49.391
1305.00,49.417
1306.00,49.432
1307.00,49.432
1308.00,49.425
1309.00,49.457
1310.00,49.441
1311.00,49.434
1312.00,49.444
1313.00,49.447
1314.00,49.480
1315.00,49.491
1316.00,49.477
1317.00,49.513
1318.00,49.502
1319.00,49.515
1320.00,49.541
1321.00,49.687
1322.00,49.674
1323.00,49.669
1324.00,49.663
1325.00,49.650
1326.00,49.672
1327.00,49.673
1328.00,49.646
1329.00,49.665
1330.00,49.656
1331.00,49.667
1332.00,49.678
1333.00,49.676
1334.00,49.723
1335.00,49.744
1336.00,49.757
1337.00,49.805
1338.00,49.859
1339.00,49.895
1340.00,49.959
1341.00,50.018
1342.00,50.079
1343.00,50.112
1344.00,50.172
1345.00,50.231
1346.00,50.275
1347.00,50.287
1348.00,50.336
1349.00,50.348
1350.00,50.363
1351.00,50.399
1352.00,50.412
1353.00,50.376
1354.00,50.407
1355.00,50.348
1356.00,50.471
1357.00,50.361
1358.00,50.458
1359.00,50.489
1360.00,50.402
1361.00,50.385
1362.00,50.418
1363.00,50.210
1364.00,50.444
1365.00,50.468
1366.00,50.478
1367.00,50.420
1368.00,50.466
1369.00,50.494
1370.00,50.471
1371.00,50.362
1372.00,50.450
1373.00,50.479
1374.00,50.451
1375.00,50.479
1376.00,50.523
1377.00,50.271
1378.00,50.498
1379.00,50.474
1380.00,50.480
1381.00,50.456
1382.00,50.430
1383.00,50.467
1384.00,50.441
1385.00,50.441
1386.00,50.482
1387.00,50.425
1388.00,50.418
1389.00,50.434
1390.00,50.475
1391.00,50.429
1392.00,50.455
1393.00,50.412
1394.00,50.490
1395.00,50.447
1396.00,50.404
1397.00,50.489
1398.00,50.517
1399.00,50.432
1400.00,50.564
1401.00,50.465
1402.00,50.528
1403.00,50.471
1404.00,50.483
1405.00,50.508
1406.00,50.533
1407.00,50.511
1408.00,50.534
1409.00,50.503
1410.00,50.548
1411.00,50.580
1412.00,50.608
1413.00,50.525
1414.00,50.560
1415.00,50.577
1416.00,50.593
1417.00,50.632
1418.00,50.620
1419.00,50.617
1420.00,50.634
1421.00,50.690
1422.00,50.682
1423.00,50.709
1424.00,50.718
1425.00,50.725
1426.00,50.747
1427.00,50.759
1428.00,50.766
1429.00,50.774
1430.00,50.788
1431.00,50.824
1432.00,50.827
1433.00,50.850
1434.00,50.837
1435.00,50.881
1436.00,50.903
1437.00,50.903
1438.00,50.919
1439.00,50.951
1440.00,50.960
1441.00,50.972
1442.00,50.991
1443.00,51.011
1444.00,51.090
1445.00,51.041
1446.00,51.040
1447.00,51.094
1448.00,51.122
1449.00,51.117
1450.00,51.131
1451.00,51.147
1452.00,51.173
1453.00,51.176
1454.00,51.194
1455.00,51.219
1456.00,51.260
1457.00,51.238
1458.00,51.279
1459.00,51.297
1460.00,51.307
1461.00,51.322
1462.00,51.355
1463.00,51.365
1464.00,51.400
1465.00,51.395
1466.00,51.407
1467.00,51.440
1468.00,51.488
1469.00,51.478
1470.00,51.511
1471.00,51.486
1472.00,51.502
1473.00,51.515
1474.00,51.535
1475.00,51.556
1476.00,51.570
1477.00,51.560
1478.00,51.588
1479.00,51.594
1480.00,51.624
1481.00,51.606
1482.00,51.643
1483.00,51.670
1484.00,51.698
1485.00,51.674
1486.00,51.699
1487.00,51.727
1488.00,51.743
1489.00,51.734
1490.00,51.744
1491.00,51.769
1492.00,51.816
1493.00,51.787
1494.00,51.840
1495.00,51.826
1496.00,51.855
1497.00,51.839
1498.00,51.858
1499.00,51.886
1500.00,51.897
1501.00, 
1502.00, 
1503.00, 
1504.00, 
1505.00, 
1506.00, 
1507.00, 
1508.00, 
1509.00, 
1510.00, 
1511.00, 
1512.00, 
1513.00, 
1514.00, 
1515.00, 
1516.00, 
1517.00, 
1518.00, 
1519.00, 
1520.00, 
1521.00, 
1522.00, 
1523.00, 
1524.00, 
1525.00, 
1526.00, 
1527.00, 
1528.00, 
1529.00, 
1530.00, 
1531.00, 
1532.00, 
1533.00, 
1534.00, 
1535.00, 
1536.00, 
1537.00, 
1538.00, 
1539.00, 
1540.00, 
1541.00, 
1542.00, 
1543.00, 
1544.00, 
1545.00, 
1546.00, 
1547.00, 
1548.00, 
1549.00, 
1550.00, 
1551.00, 
1552.00, 
1553.00, 
1554.00, 
1555.00, 
1556.00, 
1557.00, 
1558.00, 
1559.00, 
1560.00, 
1561.00, 
1562.00, 
1563.00, 
1564.00, 
1565.00, 
1566.00, 
1567.00, 
1568.00, 
1569.00, 
1570.00, 
1571.00, 
1572.00, 
1573.00, 
1574.00, 
1575.00, 
1576.00, 
1577.00, 
1578.00, 
1579.00, 
1580.00, 
1581.00, 
1582.00, 
1583.00, 
1584.00, 
1585.00, 
1586.00, 
1587.00, 
1588.00, 
1589.00, 
1590.00, 
1591.00, 
1592.00, 
1593.00, 
1594.00, 
1595.00, 
1596.00, 
1597.00, 
1598.00, 
1599.00, 
1600.00, 
1601.00, 
1602.00, 
1603.00, 
1604.00, 
1605.00, 
1606.00, 
1607.00, 
1608.00, 
1609.00, 
1610.00, 
1611.00, 
1612.00, 
1613.00, 
1614.00, 
1615.00, 
1616.00, 
1617.00, 
1618.00, 
1619.00, 
1620.00, 
1621.00, 
1622.00, 
1623.00, 
1624.00, 
1625.00, 
1626.00, 
1627.00, 
1628.00, 
1629.00, 
1630.00, 
1631.00, 
1632.00, 
1633.00, 
1634.00, 
1635.00, 
1636.00, 
1637.00, 
1638.00, 
1639.00, 
1640.00, 
1641.00, 
1642.00, 
1643.00, 
1644.00, 
1645.00, 
1646.00, 
1647.00, 
1648.00, 
1649.00, 
1650.00, 
1651.00, 
1652.00, 
1653.00, 
1654.00, 
1655.00, 
1656.00, 
1657.00, 
1658.00, 
1659.00, 
1660.00, 
1661.00, 
1662.00, 
1663.00, 
1664.00, 
1665.00, 
1666.00, 
1667.00, 
1668.00, 
1669.00, 
1670.00, 
1671.00, 
1672.00, 
1673.00, 
1674.00, 
1675.00, 
1676.00, 
1677.00, 
1678.00, 
1679.00, 
1680.00, 
1681.00, 
1682.00, 
1683.00, 
1684.00, 
1685.00, 
1686.00, 
1687.00, 
1688.00, 
1689.00, 
1690.00, 
1691.00, 
1692.00, 
1693.00, 
1694.00, 
1695.00, 
1696.00, 
1697.00, 
1698.00, 
1699.00, 
1700.00, 
1701.00, 
1702.00, 
1703.00, 
1704.00, 
1705.00, 
1706.00, 
1707.00, 
1708.00, 
1709.00, 
1710.00, 
1711.00, 
1712.00, 
1713.00, 
1714.00, 
1715.00, 
1716.00, 
1717.00, 
1718.00, 
1719.00, 
1720.00, 
1721.00, 
1722.00, 
1723.00, 
1724.00, 
1725.00, 
1726.00, 
1727.00, 
1728.00, 
1729.00, 
1730.00, 
1731.00, 
1732.00, 
1733.00, 
1734.00, 
1735.00, 
1736.00, 
1737.00, 
1738.00, 
1739.00, 
1740.00, 
1741.00, 
1742.00, 
1743.00, 
1744.00, 
1745.00, 
1746.00, 
1747.00, 
1748.00, 
1749.00, 
1750.00, 
1751.00, 
1752.00, 
1753.00, 
1754.00, 
1755.00, 
1756.00, 
1757.00, 
1758.00, 
1759.00, 
1760.00, 
1761.00, 
1762.00, 
1763.00, 
1764.00, 
1765.00, 
1766.00, 
1767.00, 
1768.00, 
1769.00, 
1770.00, 
1771.00, 
1772.00, 
1773.00, 
1774.00, 
1775.00, 
1776.00, 
1777.00, 
1778.00, 
1779.00, 
1780.00, 
1781.00, 
1782.00, 
1783.00, 
1784.00, 
1785.00, 
1786.00, 
1787.00, 
1788.00, 
1789.00, 
1790.00, 
1791.00, 
1792.00, 
1793.00, 
1794.00, 
1795.00, 
1796.00, 
1797.00, 
1798.00, 
1799.00, 
1800.00, 
1801.00, 
1802.00, 
1803.00, 
1804.00, 
1805.00, 
1806.00, 
1807.00, 
1808.00, 
1809.00, 
1810.00, 
1811.00, 
1812.00, 
1813.00, 
1814.00, 
1815.00, 
1816.00, 
1817.00, 
1818.00, 
1819.00, 
1820.00, 
1821.00, 
1822.00, 
1823.00, 
1824.00, 
1825.00, 
1826.00, 
1827.00, 
1828.00, 
1829.00, 
1830.00, 
1831.00, 
1832.00, 
1833.00, 
1834.00, 
1835.00, 
1836.00, 
1837.00, 
1838.00, 
1839.00, 
1840.00, 
1841.00, 
1842.00, 
1843.00, 
1844.00, 
1845.00, 
1846.00, 
1847.00, 
1848.00, 
1849.00, 
1850.00, 
1851.00, 
1852.00, 
1853.00, 
1854.00, 
1855.00, 
1856.00, 
1857.00, 
1858.00, 
1859.00, 
1860.00, 
1861.00, 
1862.00, 
1863.00, 
1864.00, 
1865.00, 
1866.00, 
1867.00, 
1868.00, 
1869.00, 
1870.00, 
1871.00, 
1872.00, 
1873.00, 
1874.00, 
1875.00, 
1876.00, 
1877.00, 
1878.00, 
1879.00, 
1880.00, 
1881.00, 
1882.00, 
1883.00, 
1884.00, 
1885.00, 
1886.00, 
1887.00, 
1888.00, 
1889.00, 
1890.00, 
1891.00, 
1892.00, 
1893.00, 
1894.00, 
1895.00, 
1896.00, 
1897.00, 
1898.00, 
1899.00, 
1900.00, 
1901.00, 
1902.00, 
1903.00, 
1904.00, 
1905.00, 
1906.00, 
1907.00, 
1908.00, 
1909.00, 
1910.00, 
1911.00, 
1912.00, 
1913.00, 
1914.00, 
1915.00, 
1916.00, 
1917.00, 
1918.00, 
1919.00, 
1920.00, 
1921.00, 
1922.00, 
1923.00, 
1924.00, 
1925.00, 
1926.00, 
1927.00, 
1928.00, 
1929.00, 
1930.00, 
1931.00, 
1932.00, 
1933.00, 
1934.00, 
1935.00, 
1936.00, 
1937.00, 
1938.00, 
1939.00, 
1940.00, 
1941.00, 
1942.00, 
1943.00, 
1944.00, 
1945.00, 
1946.00, 
1947.00, 
1948.00, 
1949.00, 
1950.00, 
1951.00, 
1952.00, 
1953.00, 
1954.00, 
1955.00, 
1956.00, 
1957.00, 
1958.00, 
1959.00, 
1960.00, 
1961.00, 
1962.00, 
1963.00, 
1964.00, 
1965.00, 
1966.00, 
1967.00, 
1968.00, 
1969.00, 
1970.00, 
1971.00, 
1972.00, 
1973.00, 
1974.00, 
1975.00, 
1976.00, 
1977.00, 
1978.00, 
1979.00, 
1980.00, 
1981.00, 
1982.00, 
1983.00, 
1984.00, 
1985.00, 
1986.00, 
1987.00, 
1988.00, 
1989.00, 
1990.00, 
1991.00, 
1992.00, 
1993.00, 
1994.00, 
1995.00, 
1996.00, 
1997.00, 
1998.00, 
1999.00, 
2000.00, 
2001.00, 
2002.00, 
2003.00, 
2004.00, 
2005.00, 
2006.00, 
2007.00, 
2008.00, 
2009.00, 
2010.00, 
2011.00, 
2012.00, 
2013.00, 
2014.00, 
2015.00, 
2016.00, 
2017.00, 
2018.00, 
2019.00, 
2020.00, 
2021.00, 
2022.00, 
2023.00, 
2024.00, 
2025.00, 
2026.00, 
2027.00, 
2028.00, 
2029.00, 
2030.00, 
2031.00, 
2032.00, 
2033.00, 
2034.00, 
2035.00, 
2036.00, 
2037.00, 
2038.00, 
2039.00, 
2040.00, 
2041.00, 
2042.00, 
2043.00, 
2044.00, 
2045.00, 
2046.00, 
2047.00, 
2048.00, 
2049.00, 
2050.00, 
2051.00, 
2052.00, 
2053.00, 
2054.00, 
2055.00, 
2056.00, 
2057.00, 
2058.00, 
2059.00, 
2060.00, 
2061.00, 
2062.00, 
2063.00, 
2064.00, 
2065.00, 
2066.00, 
2067.00, 
2068.00, 
2069.00, 
2070.00, 
2071.00, 
2072.00, 
2073.00, 
2074.00, 
2075.00, 
2076.00, 
2077.00, 
2078.00, 
2079.00, 
2080.00, 
2081.00, 
2082.00, 
2083.00, 
2084.00, 
2085.00, 
2086.00, 
2087.00, 
2088.00, 
2089.00, 
2090.00, 
2091.00, 
2092.00, 
2093.00, 
2094.00, 
2095.00, 
2096.00, 
2097.00, 
2098.00, 
2099.00, 
2100.00, 
2101.00, 
2102.00, 
2103.00, 
2104.00, 
2105.00, 
2106.00, 
2107.00, 
2108.00, 
2109.00, 
2110.00, 
2111.00, 
2112.00, 
2113.00, 
2114.00, 
2115.00, 
2116.00, 
2117.00, 
2118.00, 
2119.00, 
2120.00, 
2121.00, 
2122.00, 
2123.00, 
2124.00, 
2125.00, 
2126.00, 
2127.00, 
2128.00, 
2129.00, 
2130.00, 
2131.00, 
2132.00, 
2133.00, 
2134.00, 
2135.00, 
2136.00, 
2137.00, 
2138.00, 
2139.00, 
2140.00, 
2141.00, 
2142.00, 
2143.00, 
2144.00, 
2145.00, 
2146.00, 
2147.00, 
2148.00, 
2149.00, 
2150.00, 
2151.00, 
2152.00, 
2153.00, 
2154.00, 
2155.00, 
2156.00, 
2157.00, 
2158.00, 
2159.00, 
2160.00, 
2161.00, 
2162.00, 
2163.00, 
2164.00, 
2165.00, 
2166.00, 
2167.00, 
2168.00, 
2169.00, 
2170.00, 
2171.00, 
2172.00, 
2173.00, 
2174.00, 
2175.00, 
2176.00, 
2177.00, 
2178.00, 
2179.00, 
2180.00, 
2181.00, 
2182.00, 
2183.00, 
2184.00, 
2185.00, 
2186.00, 
2187.00, 
2188.00, 
2189.00, 
2190.00, 
2191.00, 
2192.00, 
2193.00, 
2194.00, 
2195.00, 
2196.00, 
2197.00, 
2198.00, 
2199.00, 
2200.00, 
2201.00, 
2202.00, 
2203.00, 
2204.00, 
2205.00, 
2206.00, 
2207.00, 
2208.00, 
2209.00, 
2210.00, 
2211.00, 
2212.00, 
2213.00, 
2214.00, 
2215.00, 
2216.00, 
2217.00, 
2218.00, 
2219.00, 
2220.00, 
2221.00, 
2222.00, 
2223.00, 
2224.00, 
2225.00, 
2226.00, 
2227.00, 
2228.00, 
2229.00, 
2230.00, 
2231.00, 
2232.00, 
2233.00, 
2234.00, 
2235.00, 
2236.00, 
2237.00, 
2238.00, 
2239.00, 
2240.00, 
2241.00, 
2242.00, 
2243.00, 
2244.00, 
2245.00, 
2246.00, 
2247.00, 
2248.00, 
2249.00, 
2250.00, 
2251.00, 
2252.00, 
2253.00, 
2254.00, 
2255.00, 
2256.00, 
2257.00, 
2258.00, 
2259.00, 
2260.00, 
2261.00, 
2262.00, 
2263.00, 
2264.00, 
2265.00, 
2266.00, 
2267.00, 
2268.00, 
2269.00, 
2270.00, 
2271.00, 
2272.00, 
2273.00, 
2274.00, 
2275.00, 
2276.00, 
2277.00, 
2278.00, 
2279.00, 
2280.00, 
2281.00, 
2282.00, 
2283.00, 
2284.00, 
2285.00, 
2286.00, 
2287.00, 
2288.00, 
2289.00, 
2290.00, 
2291.00, 
2292.00, 
2293.00, 
2294.00, 
2295.00, 
2296.00, 
2297.00, 
2298.00, 
2299.00, 
2300.00, 
2301.00, 
2302.00, 
2303.00, 
2304.00, 
2305.00, 
2306.00, 
2307.00, 
2308.00, 
2309.00, 
2310.00, 
2311.00, 
2312.00, 
2313.00, 
2314.00, 
2315.00, 
2316.00, 
2317.00, 
2318.00, 
2319.00, 
2320.00, 
2321.00, 
2322.00, 
2323.00, 
2324.00, 
2325.00, 
2326.00, 
2327.00, 
2328.00, 
2329.00, 
2330.00, 
2331.00, 
2332.00, 
2333.00, 
2334.00, 
2335.00, 
2336.00, 
2337.00, 
2338.00, 
2339.00, 
2340.00, 
2341.00, 
2342.00, 
2343.00, 
2344.00, 
2345.00, 
2346.00, 
2347.00, 
2348.00, 
2349.00, 
2350.00, 
2351.00, 
2352.00, 
2353.00, 
2354.00, 
2355.00, 
2356.00, 
2357.00, 
2358.00, 
2359.00, 
2360.00, 
2361.00, 
2362.00, 
2363.00, 
2364.00, 
2365.00, 
2366.00, 
2367.00, 
2368.00, 
2369.00, 
2370.00, 
2371.00, 
2372.00, 
2373.00, 
2374.00, 
2375.00, 
2376.00, 
2377.00, 
2378.00, 
2379.00, 
2380.00, 
2381.00, 
2382.00, 
2383.00, 
2384.00, 
2385.00, 
2386.00, 
2387.00, 
2388.00, 
2389.00, 
2390.00, 
2391.00, 
2392.00, 
2393.00, 
2394.00, 
2395.00, 
2396.00, 
2397.00, 
2398.00, 
2399.00, 
2400.00, 
2401.00, 
2402.00, 
2403.00, 
2404.00, 
2405.00, 
2406.00, 
2407.00, 
2408.00, 
2409.00, 
2410.00, 
2411.00, 
2412.00, 
2413.00, 
2414.00, 
2415.00, 
2416.00, 
2417.00, 
2418.00, 
2419.00, 
2420.00, 
2421.00, 
2422.00, 
2423.00, 
2424.00, 
2425.00, 
2426.00, 
2427.00, 
2428.00, 
2429.00, 
2430.00, 
2431.00, 
2432.00, 
2433.00, 
2434.00, 
2435.00, 
2436.00, 
2437.00, 
2438.00, 
2439.00, 
2440.00, 
2441.00, 
2442.00, 
2443.00, 
2444.00, 
2445.00, 
2446.00, 
2447.00, 
2448.00, 
2449.00, 
2450.00, 
2451.00, 
2452.00, 
2453.00, 
2454.00, 
2455.00, 
2456.00, 
2457.00, 
2458.00, 
2459.00, 
2460.00, 
2461.00, 
2462.00, 
2463.00, 
2464.00, 
2465.00, 
2466.00, 
2467.00, 
2468.00, 
2469.00, 
2470.00, 
2471.00, 
2472.00, 
2473.00, 
2474.00, 
2475.00, 
2476.00, 
2477.00, 
2478.00, 
2479.00, 
2480.00, 
2481.00, 
2482.00, 
2483.00, 
2484.00, 
2485.00, 
2486.00, 
2487.00, 
2488.00, 
2489.00, 
2490.00, 
2491.00, 
2492.00, 
2493.00, 
2494.00, 
2495.00, 
2496.00, 
2497.00, 
2498.00, 
2499.00, 
2500.00, 
2501.00, 
2502.00, 
2503.00, 
2504.00, 
2505.00, 
2506.00, 
2507.00, 
2508.00, 
2509.00, 
2510.00, 
2511.00, 
2512.00, 
2513.00, 
2514.00, 
2515.00, 
2516.00, 
2517.00, 
2518.00, 
2519.00, 
2520.00, 
2521.00, 
2522.00, 
2523.00, 
2524.00, 
2525.00, 
2526.00, 
2527.00, 
2528.00, 
2529.00, 
2530.00, 
2531.00, 
2532.00, 
2533.00, 
2534.00, 
2535.00, 
2536.00, 
2537.00, 
2538.00, 
2539.00, 
2540.00, 
2541.00, 
2542.00, 
2543.00, 
2544.00, 
2545.00, 
2546.00, 
2547.00, 
2548.00, 
2549.00, 
2550.00, 
2551.00, 
2552.00, 
2553.00, 
2554.00, 
2555.00, 
2556.00, 
2557.00, 
2558.00, 
2559.00, 
2560.00, 
2561.00, 
2562.00, 
2563.00, 
2564.00, 
2565.00, 
2566.00, 
2567.00, 
2568.00, 
2569.00, 
2570.00, 
2571.00, 
2572.00, 
2573.00, 
2574.00, 
2575.00, 
2576.00, 
2577.00, 
2578.00, 
2579.00, 
2580.00, 
2581.00, 
2582.00, 
2583.00, 
2584.00, 
2585.00, 
2586.00, 
2587.00, 
2588.00, 
2589.00, 
2590.00, 
2591.00, 
2592.00, 
2593.00, 
2594.00, 
2595.00, 
2596.00, 
2597.00, 
2598.00, 
2599.00, 
2600.00, 
