"1cP2 - RawData"
"Wavelength nm.","T%"
200.00,0.001
201.00,0.004
202.00,0.002
203.00,0.002
204.00,0.005
205.00,0.001
206.00,-0.001
207.00,0.002
208.00,-0.001
209.00,-0.000
210.00,0.001
211.00,0.000
212.00,0.001
213.00,0.001
214.00,-0.000
215.00,-0.001
216.00,-0.001
217.00,-0.001
218.00,-0.003
219.00,0.004
220.00,-0.001
221.00,0.002
222.00,0.003
223.00,0.002
224.00,-0.003
225.00,0.002
226.00,0.000
227.00,0.002
228.00,-0.000
229.00,0.002
230.00,0.000
231.00,-0.001
232.00,0.002
233.00,0.001
234.00,0.000
235.00,-0.000
236.00,-0.001
237.00,-0.002
238.00,0.002
239.00,0.000
240.00,0.001
241.00,-0.000
242.00,-0.001
243.00,0.001
244.00,0.001
245.00,0.002
246.00,0.003
247.00,0.001
248.00,0.001
249.00,0.001
250.00,0.001
251.00,-0.001
252.00,0.002
253.00,0.000
254.00,-0.001
255.00,0.001
256.00,0.001
257.00,-0.001
258.00,0.002
259.00,0.001
260.00,-0.000
261.00,0.001
262.00,0.002
263.00,-0.000
264.00,-0.001
265.00,-0.002
266.00,0.000
267.00,-0.000
268.00,-0.001
269.00,0.000
270.00,0.000
271.00,-0.000
272.00,-0.001
273.00,0.001
274.00,0.000
275.00,-0.000
276.00,0.000
277.00,0.001
278.00,0.001
279.00,-0.000
280.00,-0.000
281.00,0.002
282.00,0.001
283.00,-0.000
284.00,0.001
285.00,-0.000
286.00,-0.000
287.00,0.001
288.00,0.000
289.00,-0.000
290.00,0.001
291.00,-0.000
292.00,-0.001
293.00,-0.000
294.00,-0.000
295.00,0.000
296.00,-0.001
297.00,-0.000
298.00,-0.001
299.00,0.001
300.00,-0.000
301.00,-0.000
302.00,-0.001
303.00,0.002
304.00,0.001
305.00,0.002
306.00,0.003
307.00,0.006
308.00,0.010
309.00,0.019
310.00,0.029
311.00,0.044
312.00,0.070
313.00,0.107
314.00,0.165
315.00,0.240
316.00,0.343
317.00,0.493
318.00,0.664
319.00,0.893
320.00,1.198
321.00,1.565
322.00,2.020
323.00,2.451
324.00,3.128
325.00,3.784
326.00,4.485
327.00,5.316
328.00,6.212
329.00,7.189
330.00,8.235
331.00,9.349
332.00,10.498
333.00,11.740
334.00,12.939
335.00,14.300
336.00,15.518
337.00,16.908
338.00,18.250
339.00,19.534
340.00,20.880
341.00,22.183
342.00,23.373
343.00,24.554
344.00,25.751
345.00,26.944
346.00,28.043
347.00,28.948
348.00,30.069
349.00,30.990
350.00,31.901
351.00,32.726
352.00,33.504
353.00,34.323
354.00,35.039
355.00,35.712
356.00,36.350
357.00,36.893
358.00,37.552
359.00,38.169
360.00,38.666
361.00,39.092
362.00,39.655
363.00,40.039
364.00,40.272
365.00,40.531
366.00,40.883
367.00,41.224
368.00,41.287
369.00,41.563
370.00,41.824
371.00,41.929
372.00,41.945
373.00,41.990
374.00,42.094
375.00,42.097
376.00,42.068
377.00,41.909
378.00,41.859
379.00,41.728
380.00,41.732
381.00,41.802
382.00,41.943
383.00,42.084
384.00,42.276
385.00,42.456
386.00,42.574
387.00,42.803
388.00,43.043
389.00,43.209
390.00,43.405
391.00,43.563
392.00,43.722
393.00,43.758
394.00,43.945
395.00,43.982
396.00,44.162
397.00,44.274
398.00,44.309
399.00,44.366
400.00,44.421
401.00,44.443
402.00,44.544
403.00,44.539
404.00,44.580
405.00,44.575
406.00,44.561
407.00,44.566
408.00,44.438
409.00,44.415
410.00,44.298
411.00,44.429
412.00,44.261
413.00,44.273
414.00,44.230
415.00,44.283
416.00,44.339
417.00,44.245
418.00,44.309
419.00,44.449
420.00,44.469
421.00,44.328
422.00,44.444
423.00,44.435
424.00,44.524
425.00,44.552
426.00,44.558
427.00,44.612
428.00,44.622
429.00,44.671
430.00,44.657
431.00,44.689
432.00,44.708
433.00,44.702
434.00,44.723
435.00,44.739
436.00,44.778
437.00,44.805
438.00,44.854
439.00,44.840
440.00,44.856
441.00,44.907
442.00,44.960
443.00,44.974
444.00,45.071
445.00,45.106
446.00,45.160
447.00,45.192
448.00,45.280
449.00,45.366
450.00,45.418
451.00,45.441
452.00,45.448
453.00,45.555
454.00,45.492
455.00,45.607
456.00,45.768
457.00,45.805
458.00,45.799
459.00,45.973
460.00,46.012
461.00,46.090
462.00,46.146
463.00,46.177
464.00,46.357
465.00,46.393
466.00,46.425
467.00,46.456
468.00,46.612
469.00,46.512
470.00,46.537
471.00,46.540
472.00,46.577
473.00,46.555
474.00,46.602
475.00,46.637
476.00,46.678
477.00,46.690
478.00,46.727
479.00,46.880
480.00,46.893
481.00,46.933
482.00,47.039
483.00,47.081
484.00,47.201
485.00,47.302
486.00,47.324
487.00,47.454
488.00,47.535
489.00,47.605
490.00,47.643
491.00,47.722
492.00,47.966
493.00,47.997
494.00,47.883
495.00,48.027
496.00,48.022
497.00,48.016
498.00,48.113
499.00,48.165
500.00,48.247
501.00,48.253
502.00,48.340
503.00,48.404
504.00,48.321
505.00,48.358
506.00,48.499
507.00,48.504
508.00,48.502
509.00,48.527
510.00,48.657
511.00,48.673
512.00,48.842
513.00,48.929
514.00,48.951
515.00,49.104
516.00,49.130
517.00,49.083
518.00,49.307
519.00,49.172
520.00,49.086
521.00,49.149
522.00,49.203
523.00,49.169
524.00,49.229
525.00,49.307
526.00,49.389
527.00,49.324
528.00,49.381
529.00,49.480
530.00,49.626
531.00,49.744
532.00,49.713
533.00,49.826
534.00,49.838
535.00,49.910
536.00,49.932
537.00,49.954
538.00,49.931
539.00,49.920
540.00,50.012
541.00,50.042
542.00,50.056
543.00,50.117
544.00,50.063
545.00,50.089
546.00,50.099
547.00,50.211
548.00,50.213
549.00,50.242
550.00,50.268
551.00,50.402
552.00,50.470
553.00,50.351
554.00,50.494
555.00,50.461
556.00,50.480
557.00,50.549
558.00,50.594
559.00,50.595
560.00,50.620
561.00,50.627
562.00,50.666
563.00,50.637
564.00,50.652
565.00,50.717
566.00,50.708
567.00,50.658
568.00,50.559
569.00,50.740
570.00,50.561
571.00,50.712
572.00,50.684
573.00,50.571
574.00,50.630
575.00,50.584
576.00,50.508
577.00,50.599
578.00,50.729
579.00,50.819
580.00,50.814
581.00,50.872
582.00,50.788
583.00,50.718
584.00,50.933
585.00,51.058
586.00,51.138
587.00,51.126
588.00,51.028
589.00,50.955
590.00,51.107
591.00,51.164
592.00,51.038
593.00,51.092
594.00,51.054
595.00,51.168
596.00,51.233
597.00,51.275
598.00,51.325
599.00,51.271
600.00,51.288
601.00,51.227
602.00,51.117
603.00,51.148
604.00,51.262
605.00,51.292
606.00,51.211
607.00,51.232
608.00,51.377
609.00,51.436
610.00,51.124
611.00,51.233
612.00,51.247
613.00,51.345
614.00,51.318
615.00,51.361
616.00,51.429
617.00,51.343
618.00,51.161
619.00,51.189
620.00,51.279
621.00,51.181
622.00,51.361
623.00,51.363
624.00,51.267
625.00,51.266
626.00,51.377
627.00,51.470
628.00,51.321
629.00,51.279
630.00,51.388
631.00,51.314
632.00,51.393
633.00,51.437
634.00,51.475
635.00,51.551
636.00,51.509
637.00,51.462
638.00,51.462
639.00,51.464
640.00,51.391
641.00,51.407
642.00,51.422
643.00,51.384
644.00,51.463
645.00,51.405
646.00,51.564
647.00,51.587
648.00,51.479
649.00,51.490
650.00,51.362
651.00,51.516
652.00,51.533
653.00,51.441
654.00,51.429
655.00,51.576
656.00,51.837
657.00,51.608
658.00,51.486
659.00,51.648
660.00,51.492
661.00,51.412
662.00,51.471
663.00,51.395
664.00,51.733
665.00,51.807
666.00,51.702
667.00,51.556
668.00,51.397
669.00,51.674
670.00,51.893
671.00,51.657
672.00,51.725
673.00,51.565
674.00,51.469
675.00,51.707
676.00,52.023
677.00,51.911
678.00,51.574
679.00,51.625
680.00,51.623
681.00,51.826
682.00,51.710
683.00,51.565
684.00,51.627
685.00,51.764
686.00,51.635
687.00,51.540
688.00,51.482
689.00,51.517
690.00,51.627
691.00,51.920
692.00,51.403
693.00,51.506
694.00,51.698
695.00,51.638
696.00,51.532
697.00,51.493
698.00,51.295
699.00,51.584
700.00,51.725
701.00,51.495
702.00,51.575
703.00,51.689
704.00,51.669
705.00,51.407
706.00,51.400
707.00,51.445
708.00,51.252
709.00,51.591
710.00,51.924
711.00,51.339
712.00,51.322
713.00,51.450
714.00,51.429
715.00,51.380
716.00,51.416
717.00,51.361
718.00,51.499
719.00,51.348
720.00,51.196
721.00,56.213
722.00,56.194
723.00,56.046
724.00,55.962
725.00,55.969
726.00,55.850
727.00,55.823
728.00,55.750
729.00,55.688
730.00,55.612
731.00,55.605
732.00,55.538
733.00,55.537
734.00,55.570
735.00,55.511
736.00,55.457
737.00,55.358
738.00,55.347
739.00,55.275
740.00,55.208
741.00,55.252
742.00,55.176
743.00,55.082
744.00,54.987
745.00,55.003
746.00,55.051
747.00,54.878
748.00,54.822
749.00,54.848
750.00,54.669
751.00,54.642
752.00,54.700
753.00,54.570
754.00,54.507
755.00,54.408
756.00,54.396
757.00,54.369
758.00,54.387
759.00,54.259
760.00,54.198
761.00,54.238
762.00,54.178
763.00,54.186
764.00,54.070
765.00,54.107
766.00,54.055
767.00,53.987
768.00,53.986
769.00,53.888
770.00,53.873
771.00,53.811
772.00,53.855
773.00,53.727
774.00,53.741
775.00,53.748
776.00,53.590
777.00,53.668
778.00,53.590
779.00,53.590
780.00,53.531
781.00,53.541
782.00,53.509
783.00,53.439
784.00,53.481
785.00,53.288
786.00,53.328
787.00,53.312
788.00,53.300
789.00,53.207
790.00,53.090
791.00,53.117
792.00,53.002
793.00,53.011
794.00,52.983
795.00,52.968
796.00,52.928
797.00,52.858
798.00,52.817
799.00,52.675
800.00,52.732
801.00,52.694
802.00,52.677
803.00,52.612
804.00,52.623
805.00,52.623
806.00,52.512
807.00,52.455
808.00,52.534
809.00,52.361
810.00,52.364
811.00,52.404
812.00,52.361
813.00,52.296
814.00,52.262
815.00,52.212
816.00,52.237
817.00,52.176
818.00,52.072
819.00,52.073
820.00,52.022
821.00,51.966
822.00,52.037
823.00,51.899
824.00,51.947
825.00,51.776
826.00,51.826
827.00,51.850
828.00,51.850
829.00,51.797
830.00,51.768
831.00,54.173
832.00,54.139
833.00,54.032
834.00,54.040
835.00,53.993
836.00,53.989
837.00,53.950
838.00,53.918
839.00,53.879
840.00,53.812
841.00,53.790
842.00,53.760
843.00,53.763
844.00,53.749
845.00,53.618
846.00,53.761
847.00,53.585
848.00,53.560
849.00,53.465
850.00,53.507
851.00,53.436
852.00,53.396
853.00,53.275
854.00,53.330
855.00,53.272
856.00,53.242
857.00,53.215
858.00,53.156
859.00,53.140
860.00,53.115
861.00,53.095
862.00,53.049
863.00,53.039
864.00,53.030
865.00,53.044
866.00,52.966
867.00,52.943
868.00,52.899
869.00,52.893
870.00,52.902
871.00,52.882
872.00,52.859
873.00,52.856
874.00,52.831
875.00,52.795
876.00,52.833
877.00,52.780
878.00,52.793
879.00,52.714
880.00,52.740
881.00,52.702
882.00,52.714
883.00,52.663
884.00,52.627
885.00,52.628
886.00,52.593
887.00,52.500
888.00,52.528
889.00,52.484
890.00,52.476
891.00,52.423
892.00,52.389
893.00,52.382
894.00,52.389
895.00,52.334
896.00,52.285
897.00,52.366
898.00,52.236
899.00,52.233
900.00,52.219
901.00,52.373
902.00,52.215
903.00,52.177
904.00,52.159
905.00,52.132
906.00,52.136
907.00,52.084
908.00,52.038
909.00,52.029
910.00,51.976
911.00,52.003
912.00,51.988
913.00,51.943
914.00,51.929
915.00,51.905
916.00,51.872
917.00,51.814
918.00,51.840
919.00,51.778
920.00,51.739
921.00,51.716
922.00,51.924
923.00,51.721
924.00,51.709
925.00,51.691
926.00,51.665
927.00,51.641
928.00,51.578
929.00,51.614
930.00,51.573
931.00,51.539
932.00,51.510
933.00,51.507
934.00,51.486
935.00,51.461
936.00,51.440
937.00,51.428
938.00,51.404
939.00,51.392
940.00,51.380
941.00,51.323
942.00,51.279
943.00,51.325
944.00,51.247
945.00,51.274
946.00,51.244
947.00,51.204
948.00,51.198
949.00,51.169
950.00,51.143
951.00,51.122
952.00,51.100
953.00,51.043
954.00,51.033
955.00,51.003
956.00,50.985
957.00,50.974
958.00,50.974
959.00,50.889
960.00,50.904
961.00,50.871
962.00,50.876
963.00,50.831
964.00,50.828
965.00,50.837
966.00,50.810
967.00,50.813
968.00,50.788
969.00,50.799
970.00,50.768
971.00,50.785
972.00,50.722
973.00,50.798
974.00,50.731
975.00,50.753
976.00,50.768
977.00,50.732
978.00,50.776
979.00,50.739
980.00,50.751
981.00,50.752
982.00,50.745
983.00,50.719
984.00,50.710
985.00,50.738
986.00,50.691
987.00,50.700
988.00,50.751
989.00,50.708
990.00,50.685
991.00,50.655
992.00,50.693
993.00,50.640
994.00,50.610
995.00,50.606
996.00,50.595
997.00,50.595
998.00,50.570
999.00,50.587
1000.00,50.547
1001.00,50.554
1002.00,50.499
1003.00,50.497
1004.00,50.523
1005.00,50.432
1006.00,50.482
1007.00,50.448
1008.00,50.413
1009.00,50.395
1010.00,50.383
1011.00,50.391
1012.00,50.363
1013.00,50.345
1014.00,50.345
1015.00,50.362
1016.00,50.326
1017.00,50.295
1018.00,50.283
1019.00,50.253
1020.00,50.261
1021.00,50.229
1022.00,50.227
1023.00,50.189
1024.00,50.177
1025.00,50.171
1026.00,50.150
1027.00,50.113
1028.00,50.124
1029.00,50.102
1030.00,50.083
1031.00,50.092
1032.00,50.051
1033.00,50.051
1034.00,50.037
1035.00,49.995
1036.00,49.973
1037.00,49.957
1038.00,49.920
1039.00,49.897
1040.00,49.891
1041.00,49.866
1042.00,49.877
1043.00,49.841
1044.00,49.880
1045.00,49.872
1046.00,49.857
1047.00,49.880
1048.00,49.892
1049.00,49.880
1050.00,49.877
1051.00,49.911
1052.00,49.909
1053.00,49.931
1054.00,49.918
1055.00,49.941
1056.00,49.953
1057.00,49.953
1058.00,49.961
1059.00,49.939
1060.00,49.933
1061.00,49.934
1062.00,49.910
1063.00,49.915
1064.00,49.930
1065.00,49.914
1066.00,49.898
1067.00,49.886
1068.00,49.906
1069.00,49.874
1070.00,49.860
1071.00,49.821
1072.00,49.863
1073.00,49.827
1074.00,49.816
1075.00,49.799
1076.00,49.780
1077.00,49.790
1078.00,49.781
1079.00,49.774
1080.00,49.773
1081.00,49.772
1082.00,49.762
1083.00,49.759
1084.00,49.757
1085.00,49.747
1086.00,49.735
1087.00,49.720
1088.00,49.705
1089.00,49.708
1090.00,49.683
1091.00,49.702
1092.00,49.696
1093.00,49.674
1094.00,49.670
1095.00,49.656
1096.00,49.644
1097.00,49.645
1098.00,49.629
1099.00,49.607
1100.00,49.625
1101.00,49.612
1102.00,49.597
1103.00,49.601
1104.00,49.571
1105.00,49.576
1106.00,49.553
1107.00,49.547
1108.00,49.559
1109.00,49.545
1110.00,49.533
1111.00,49.538
1112.00,49.514
1113.00,49.503
1114.00,49.494
1115.00,49.485
1116.00,49.483
1117.00,49.456
1118.00,49.449
1119.00,49.462
1120.00,49.438
1121.00,49.440
1122.00,49.423
1123.00,49.428
1124.00,49.426
1125.00,49.436
1126.00,49.438
1127.00,49.423
1128.00,49.412
1129.00,49.391
1130.00,49.385
1131.00,49.388
1132.00,49.374
1133.00,49.383
1134.00,49.347
1135.00,49.355
1136.00,49.358
1137.00,49.345
1138.00,49.370
1139.00,49.383
1140.00,49.362
1141.00,49.352
1142.00,49.341
1143.00,49.356
1144.00,49.326
1145.00,49.327
1146.00,49.321
1147.00,49.321
1148.00,49.292
1149.00,49.319
1150.00,49.323
1151.00,49.322
1152.00,49.325
1153.00,49.315
1154.00,49.309
1155.00,49.328
1156.00,49.306
1157.00,49.321
1158.00,49.312
1159.00,49.296
1160.00,49.288
1161.00,49.300
1162.00,49.296
1163.00,49.302
1164.00,49.294
1165.00,49.295
1166.00,49.311
1167.00,49.282
1168.00,49.312
1169.00,49.304
1170.00,49.294
1171.00,49.277
1172.00,49.280
1173.00,49.279
1174.00,49.285
1175.00,49.271
1176.00,49.275
1177.00,49.286
1178.00,49.270
1179.00,49.292
1180.00,49.287
1181.00,49.295
1182.00,49.280
1183.00,49.271
1184.00,49.279
1185.00,49.288
1186.00,49.271
1187.00,49.306
1188.00,49.300
1189.00,49.296
1190.00,49.293
1191.00,49.289
1192.00,49.295
1193.00,49.282
1194.00,49.288
1195.00,49.252
1196.00,49.284
1197.00,49.279
1198.00,49.281
1199.00,49.295
1200.00,49.294
1201.00,49.328
1202.00,49.312
1203.00,49.286
1204.00,49.282
1205.00,49.302
1206.00,49.280
1207.00,49.276
1208.00,49.268
1209.00,49.284
1210.00,49.302
1211.00,49.278
1212.00,49.308
1213.00,49.269
1214.00,49.286
1215.00,49.290
1216.00,49.299
1217.00,49.295
1218.00,49.290
1219.00,49.307
1220.00,49.291
1221.00,49.318
1222.00,49.299
1223.00,49.326
1224.00,49.315
1225.00,49.285
1226.00,49.297
1227.00,49.297
1228.00,49.312
1229.00,49.320
1230.00,49.344
1231.00,49.337
1232.00,49.368
1233.00,49.351
1234.00,49.365
1235.00,49.376
1236.00,49.359
1237.00,49.373
1238.00,49.363
1239.00,49.376
1240.00,49.351
1241.00,49.355
1242.00,49.361
1243.00,49.370
1244.00,49.362
1245.00,49.405
1246.00,49.409
1247.00,49.398
1248.00,49.395
1249.00,49.413
1250.00,49.419
1251.00,49.413
1252.00,49.423
1253.00,49.420
1254.00,49.450
1255.00,49.428
1256.00,49.406
1257.00,49.400
1258.00,49.425
1259.00,49.432
1260.00,49.462
1261.00,49.451
1262.00,49.457
1263.00,49.444
1264.00,49.469
1265.00,49.481
1266.00,49.462
1267.00,49.485
1268.00,49.483
1269.00,49.467
1270.00,49.495
1271.00,49.502
1272.00,49.498
1273.00,49.519
1274.00,49.525
1275.00,49.541
1276.00,49.543
1277.00,49.540
1278.00,49.557
1279.00,49.559
1280.00,49.538
1281.00,49.574
1282.00,49.571
1283.00,49.573
1284.00,49.579
1285.00,49.557
1286.00,49.568
1287.00,49.591
1288.00,49.576
1289.00,49.591
1290.00,49.625
1291.00,49.611
1292.00,49.624
1293.00,49.623
1294.00,49.631
1295.00,49.660
1296.00,49.648
1297.00,49.662
1298.00,49.707
1299.00,49.655
1300.00,49.692
1301.00,49.682
1302.00,49.700
1303.00,49.701
1304.00,49.679
1305.00,49.719
1306.00,49.732
1307.00,49.742
1308.00,49.736
1309.00,49.764
1310.00,49.752
1311.00,49.753
1312.00,49.751
1313.00,49.752
1314.00,49.792
1315.00,49.787
1316.00,49.791
1317.00,49.829
1318.00,49.829
1319.00,49.825
1320.00,49.847
1321.00,50.034
1322.00,50.002
1323.00,50.000
1324.00,50.000
1325.00,49.981
1326.00,49.998
1327.00,49.992
1328.00,49.986
1329.00,50.003
1330.00,49.986
1331.00,49.989
1332.00,49.975
1333.00,49.987
1334.00,50.028
1335.00,50.048
1336.00,50.065
1337.00,50.125
1338.00,50.182
1339.00,50.226
1340.00,50.292
1341.00,50.364
1342.00,50.425
1343.00,50.461
1344.00,50.521
1345.00,50.575
1346.00,50.612
1347.00,50.621
1348.00,50.670
1349.00,50.667
1350.00,50.690
1351.00,50.724
1352.00,50.733
1353.00,50.750
1354.00,50.752
1355.00,50.715
1356.00,50.759
1357.00,50.763
1358.00,50.776
1359.00,50.795
1360.00,50.762
1361.00,50.747
1362.00,50.795
1363.00,50.817
1364.00,50.833
1365.00,50.785
1366.00,50.826
1367.00,50.741
1368.00,50.804
1369.00,50.825
1370.00,50.795
1371.00,50.726
1372.00,50.782
1373.00,50.800
1374.00,50.816
1375.00,50.798
1376.00,50.775
1377.00,50.771
1378.00,50.876
1379.00,50.789
1380.00,50.774
1381.00,50.802
1382.00,50.645
1383.00,50.859
1384.00,50.770
1385.00,50.813
1386.00,50.809
1387.00,50.740
1388.00,50.761
1389.00,50.761
1390.00,50.758
1391.00,50.740
1392.00,50.759
1393.00,50.749
1394.00,50.779
1395.00,50.741
1396.00,50.693
1397.00,50.798
1398.00,50.481
1399.00,50.796
1400.00,50.884
1401.00,50.783
1402.00,50.871
1403.00,50.811
1404.00,50.804
1405.00,50.830
1406.00,50.834
1407.00,50.818
1408.00,50.862
1409.00,50.808
1410.00,50.901
1411.00,50.711
1412.00,51.073
1413.00,50.851
1414.00,50.886
1415.00,50.915
1416.00,50.935
1417.00,50.971
1418.00,50.942
1419.00,50.928
1420.00,50.966
1421.00,51.026
1422.00,50.998
1423.00,51.014
1424.00,51.013
1425.00,51.042
1426.00,51.044
1427.00,51.058
1428.00,51.070
1429.00,51.077
1430.00,51.088
1431.00,51.133
1432.00,51.133
1433.00,51.153
1434.00,51.146
1435.00,51.190
1436.00,51.214
1437.00,51.203
1438.00,51.214
1439.00,51.253
1440.00,51.275
1441.00,51.300
1442.00,51.298
1443.00,51.367
1444.00,51.454
1445.00,51.365
1446.00,51.379
1447.00,51.421
1448.00,51.457
1449.00,51.444
1450.00,51.453
1451.00,51.480
1452.00,51.492
1453.00,51.501
1454.00,51.513
1455.00,51.550
1456.00,51.582
1457.00,51.568
1458.00,51.617
1459.00,51.610
1460.00,51.636
1461.00,51.646
1462.00,51.677
1463.00,51.674
1464.00,51.688
1465.00,51.697
1466.00,51.715
1467.00,51.729
1468.00,51.784
1469.00,51.756
1470.00,51.785
1471.00,51.805
1472.00,51.812
1473.00,51.825
1474.00,51.857
1475.00,51.875
1476.00,51.877
1477.00,51.859
1478.00,51.890
1479.00,51.894
1480.00,51.914
1481.00,51.922
1482.00,51.963
1483.00,51.987
1484.00,52.002
1485.00,52.003
1486.00,52.022
1487.00,52.056
1488.00,52.089
1489.00,52.053
1490.00,52.065
1491.00,52.078
1492.00,52.098
1493.00,52.085
1494.00,52.123
1495.00,52.116
1496.00,52.141
1497.00,52.123
1498.00,52.144
1499.00,52.176
1500.00,52.187
1501.00, 
1502.00, 
1503.00, 
1504.00, 
1505.00, 
1506.00, 
1507.00, 
1508.00, 
1509.00, 
1510.00, 
1511.00, 
1512.00, 
1513.00, 
1514.00, 
1515.00, 
1516.00, 
1517.00, 
1518.00, 
1519.00, 
1520.00, 
1521.00, 
1522.00, 
1523.00, 
1524.00, 
1525.00, 
1526.00, 
1527.00, 
1528.00, 
1529.00, 
1530.00, 
1531.00, 
1532.00, 
1533.00, 
1534.00, 
1535.00, 
1536.00, 
1537.00, 
1538.00, 
1539.00, 
1540.00, 
1541.00, 
1542.00, 
1543.00, 
1544.00, 
1545.00, 
1546.00, 
1547.00, 
1548.00, 
1549.00, 
1550.00, 
1551.00, 
1552.00, 
1553.00, 
1554.00, 
1555.00, 
1556.00, 
1557.00, 
1558.00, 
1559.00, 
1560.00, 
1561.00, 
1562.00, 
1563.00, 
1564.00, 
1565.00, 
1566.00, 
1567.00, 
1568.00, 
1569.00, 
1570.00, 
1571.00, 
1572.00, 
1573.00, 
1574.00, 
1575.00, 
1576.00, 
1577.00, 
1578.00, 
1579.00, 
1580.00, 
1581.00, 
1582.00, 
1583.00, 
1584.00, 
1585.00, 
1586.00, 
1587.00, 
1588.00, 
1589.00, 
1590.00, 
1591.00, 
1592.00, 
1593.00, 
1594.00, 
1595.00, 
1596.00, 
1597.00, 
1598.00, 
1599.00, 
1600.00, 
1601.00, 
1602.00, 
1603.00, 
1604.00, 
1605.00, 
1606.00, 
1607.00, 
1608.00, 
1609.00, 
1610.00, 
1611.00, 
1612.00, 
1613.00, 
1614.00, 
1615.00, 
1616.00, 
1617.00, 
1618.00, 
1619.00, 
1620.00, 
1621.00, 
1622.00, 
1623.00, 
1624.00, 
1625.00, 
1626.00, 
1627.00, 
1628.00, 
1629.00, 
1630.00, 
1631.00, 
1632.00, 
1633.00, 
1634.00, 
1635.00, 
1636.00, 
1637.00, 
1638.00, 
1639.00, 
1640.00, 
1641.00, 
1642.00, 
1643.00, 
1644.00, 
1645.00, 
1646.00, 
1647.00, 
1648.00, 
1649.00, 
1650.00, 
1651.00, 
1652.00, 
1653.00, 
1654.00, 
1655.00, 
1656.00, 
1657.00, 
1658.00, 
1659.00, 
1660.00, 
1661.00, 
1662.00, 
1663.00, 
1664.00, 
1665.00, 
1666.00, 
1667.00, 
1668.00, 
1669.00, 
1670.00, 
1671.00, 
1672.00, 
1673.00, 
1674.00, 
1675.00, 
1676.00, 
1677.00, 
1678.00, 
1679.00, 
1680.00, 
1681.00, 
1682.00, 
1683.00, 
1684.00, 
1685.00, 
1686.00, 
1687.00, 
1688.00, 
1689.00, 
1690.00, 
1691.00, 
1692.00, 
1693.00, 
1694.00, 
1695.00, 
1696.00, 
1697.00, 
1698.00, 
1699.00, 
1700.00, 
1701.00, 
1702.00, 
1703.00, 
1704.00, 
1705.00, 
1706.00, 
1707.00, 
1708.00, 
1709.00, 
1710.00, 
1711.00, 
1712.00, 
1713.00, 
1714.00, 
1715.00, 
1716.00, 
1717.00, 
1718.00, 
1719.00, 
1720.00, 
1721.00, 
1722.00, 
1723.00, 
1724.00, 
1725.00, 
1726.00, 
1727.00, 
1728.00, 
1729.00, 
1730.00, 
1731.00, 
1732.00, 
1733.00, 
1734.00, 
1735.00, 
1736.00, 
1737.00, 
1738.00, 
1739.00, 
1740.00, 
1741.00, 
1742.00, 
1743.00, 
1744.00, 
1745.00, 
1746.00, 
1747.00, 
1748.00, 
1749.00, 
1750.00, 
1751.00, 
1752.00, 
1753.00, 
1754.00, 
1755.00, 
1756.00, 
1757.00, 
1758.00, 
1759.00, 
1760.00, 
1761.00, 
1762.00, 
1763.00, 
1764.00, 
1765.00, 
1766.00, 
1767.00, 
1768.00, 
1769.00, 
1770.00, 
1771.00, 
1772.00, 
1773.00, 
1774.00, 
1775.00, 
1776.00, 
1777.00, 
1778.00, 
1779.00, 
1780.00, 
1781.00, 
1782.00, 
1783.00, 
1784.00, 
1785.00, 
1786.00, 
1787.00, 
1788.00, 
1789.00, 
1790.00, 
1791.00, 
1792.00, 
1793.00, 
1794.00, 
1795.00, 
1796.00, 
1797.00, 
1798.00, 
1799.00, 
1800.00, 
1801.00, 
1802.00, 
1803.00, 
1804.00, 
1805.00, 
1806.00, 
1807.00, 
1808.00, 
1809.00, 
1810.00, 
1811.00, 
1812.00, 
1813.00, 
1814.00, 
1815.00, 
1816.00, 
1817.00, 
1818.00, 
1819.00, 
1820.00, 
1821.00, 
1822.00, 
1823.00, 
1824.00, 
1825.00, 
1826.00, 
1827.00, 
1828.00, 
1829.00, 
1830.00, 
1831.00, 
1832.00, 
1833.00, 
1834.00, 
1835.00, 
1836.00, 
1837.00, 
1838.00, 
1839.00, 
1840.00, 
1841.00, 
1842.00, 
1843.00, 
1844.00, 
1845.00, 
1846.00, 
1847.00, 
1848.00, 
1849.00, 
1850.00, 
1851.00, 
1852.00, 
1853.00, 
1854.00, 
1855.00, 
1856.00, 
1857.00, 
1858.00, 
1859.00, 
1860.00, 
1861.00, 
1862.00, 
1863.00, 
1864.00, 
1865.00, 
1866.00, 
1867.00, 
1868.00, 
1869.00, 
1870.00, 
1871.00, 
1872.00, 
1873.00, 
1874.00, 
1875.00, 
1876.00, 
1877.00, 
1878.00, 
1879.00, 
1880.00, 
1881.00, 
1882.00, 
1883.00, 
1884.00, 
1885.00, 
1886.00, 
1887.00, 
1888.00, 
1889.00, 
1890.00, 
1891.00, 
1892.00, 
1893.00, 
1894.00, 
1895.00, 
1896.00, 
1897.00, 
1898.00, 
1899.00, 
1900.00, 
1901.00, 
1902.00, 
1903.00, 
1904.00, 
1905.00, 
1906.00, 
1907.00, 
1908.00, 
1909.00, 
1910.00, 
1911.00, 
1912.00, 
1913.00, 
1914.00, 
1915.00, 
1916.00, 
1917.00, 
1918.00, 
1919.00, 
1920.00, 
1921.00, 
1922.00, 
1923.00, 
1924.00, 
1925.00, 
1926.00, 
1927.00, 
1928.00, 
1929.00, 
1930.00, 
1931.00, 
1932.00, 
1933.00, 
1934.00, 
1935.00, 
1936.00, 
1937.00, 
1938.00, 
1939.00, 
1940.00, 
1941.00, 
1942.00, 
1943.00, 
1944.00, 
1945.00, 
1946.00, 
1947.00, 
1948.00, 
1949.00, 
1950.00, 
1951.00, 
1952.00, 
1953.00, 
1954.00, 
1955.00, 
1956.00, 
1957.00, 
1958.00, 
1959.00, 
1960.00, 
1961.00, 
1962.00, 
1963.00, 
1964.00, 
1965.00, 
1966.00, 
1967.00, 
1968.00, 
1969.00, 
1970.00, 
1971.00, 
1972.00, 
1973.00, 
1974.00, 
1975.00, 
1976.00, 
1977.00, 
1978.00, 
1979.00, 
1980.00, 
1981.00, 
1982.00, 
1983.00, 
1984.00, 
1985.00, 
1986.00, 
1987.00, 
1988.00, 
1989.00, 
1990.00, 
1991.00, 
1992.00, 
1993.00, 
1994.00, 
1995.00, 
1996.00, 
1997.00, 
1998.00, 
1999.00, 
2000.00, 
2001.00, 
2002.00, 
2003.00, 
2004.00, 
2005.00, 
2006.00, 
2007.00, 
2008.00, 
2009.00, 
2010.00, 
2011.00, 
2012.00, 
2013.00, 
2014.00, 
2015.00, 
2016.00, 
2017.00, 
2018.00, 
2019.00, 
2020.00, 
2021.00, 
2022.00, 
2023.00, 
2024.00, 
2025.00, 
2026.00, 
2027.00, 
2028.00, 
2029.00, 
2030.00, 
2031.00, 
2032.00, 
2033.00, 
2034.00, 
2035.00, 
2036.00, 
2037.00, 
2038.00, 
2039.00, 
2040.00, 
2041.00, 
2042.00, 
2043.00, 
2044.00, 
2045.00, 
2046.00, 
2047.00, 
2048.00, 
2049.00, 
2050.00, 
2051.00, 
2052.00, 
2053.00, 
2054.00, 
2055.00, 
2056.00, 
2057.00, 
2058.00, 
2059.00, 
2060.00, 
2061.00, 
2062.00, 
2063.00, 
2064.00, 
2065.00, 
2066.00, 
2067.00, 
2068.00, 
2069.00, 
2070.00, 
2071.00, 
2072.00, 
2073.00, 
2074.00, 
2075.00, 
2076.00, 
2077.00, 
2078.00, 
2079.00, 
2080.00, 
2081.00, 
2082.00, 
2083.00, 
2084.00, 
2085.00, 
2086.00, 
2087.00, 
2088.00, 
2089.00, 
2090.00, 
2091.00, 
2092.00, 
2093.00, 
2094.00, 
2095.00, 
2096.00, 
2097.00, 
2098.00, 
2099.00, 
2100.00, 
2101.00, 
2102.00, 
2103.00, 
2104.00, 
2105.00, 
2106.00, 
2107.00, 
2108.00, 
2109.00, 
2110.00, 
2111.00, 
2112.00, 
2113.00, 
2114.00, 
2115.00, 
2116.00, 
2117.00, 
2118.00, 
2119.00, 
2120.00, 
2121.00, 
2122.00, 
2123.00, 
2124.00, 
2125.00, 
2126.00, 
2127.00, 
2128.00, 
2129.00, 
2130.00, 
2131.00, 
2132.00, 
2133.00, 
2134.00, 
2135.00, 
2136.00, 
2137.00, 
2138.00, 
2139.00, 
2140.00, 
2141.00, 
2142.00, 
2143.00, 
2144.00, 
2145.00, 
2146.00, 
2147.00, 
2148.00, 
2149.00, 
2150.00, 
2151.00, 
2152.00, 
2153.00, 
2154.00, 
2155.00, 
2156.00, 
2157.00, 
2158.00, 
2159.00, 
2160.00, 
2161.00, 
2162.00, 
2163.00, 
2164.00, 
2165.00, 
2166.00, 
2167.00, 
2168.00, 
2169.00, 
2170.00, 
2171.00, 
2172.00, 
2173.00, 
2174.00, 
2175.00, 
2176.00, 
2177.00, 
2178.00, 
2179.00, 
2180.00, 
2181.00, 
2182.00, 
2183.00, 
2184.00, 
2185.00, 
2186.00, 
2187.00, 
2188.00, 
2189.00, 
2190.00, 
2191.00, 
2192.00, 
2193.00, 
2194.00, 
2195.00, 
2196.00, 
2197.00, 
2198.00, 
2199.00, 
2200.00, 
2201.00, 
2202.00, 
2203.00, 
2204.00, 
2205.00, 
2206.00, 
2207.00, 
2208.00, 
2209.00, 
2210.00, 
2211.00, 
2212.00, 
2213.00, 
2214.00, 
2215.00, 
2216.00, 
2217.00, 
2218.00, 
2219.00, 
2220.00, 
2221.00, 
2222.00, 
2223.00, 
2224.00, 
2225.00, 
2226.00, 
2227.00, 
2228.00, 
2229.00, 
2230.00, 
2231.00, 
2232.00, 
2233.00, 
2234.00, 
2235.00, 
2236.00, 
2237.00, 
2238.00, 
2239.00, 
2240.00, 
2241.00, 
2242.00, 
2243.00, 
2244.00, 
2245.00, 
2246.00, 
2247.00, 
2248.00, 
2249.00, 
2250.00, 
2251.00, 
2252.00, 
2253.00, 
2254.00, 
2255.00, 
2256.00, 
2257.00, 
2258.00, 
2259.00, 
2260.00, 
2261.00, 
2262.00, 
2263.00, 
2264.00, 
2265.00, 
2266.00, 
2267.00, 
2268.00, 
2269.00, 
2270.00, 
2271.00, 
2272.00, 
2273.00, 
2274.00, 
2275.00, 
2276.00, 
2277.00, 
2278.00, 
2279.00, 
2280.00, 
2281.00, 
2282.00, 
2283.00, 
2284.00, 
2285.00, 
2286.00, 
2287.00, 
2288.00, 
2289.00, 
2290.00, 
2291.00, 
2292.00, 
2293.00, 
2294.00, 
2295.00, 
2296.00, 
2297.00, 
2298.00, 
2299.00, 
2300.00, 
2301.00, 
2302.00, 
2303.00, 
2304.00, 
2305.00, 
2306.00, 
2307.00, 
2308.00, 
2309.00, 
2310.00, 
2311.00, 
2312.00, 
2313.00, 
2314.00, 
2315.00, 
2316.00, 
2317.00, 
2318.00, 
2319.00, 
2320.00, 
2321.00, 
2322.00, 
2323.00, 
2324.00, 
2325.00, 
2326.00, 
2327.00, 
2328.00, 
2329.00, 
2330.00, 
2331.00, 
2332.00, 
2333.00, 
2334.00, 
2335.00, 
2336.00, 
2337.00, 
2338.00, 
2339.00, 
2340.00, 
2341.00, 
2342.00, 
2343.00, 
2344.00, 
2345.00, 
2346.00, 
2347.00, 
2348.00, 
2349.00, 
2350.00, 
2351.00, 
2352.00, 
2353.00, 
2354.00, 
2355.00, 
2356.00, 
2357.00, 
2358.00, 
2359.00, 
2360.00, 
2361.00, 
2362.00, 
2363.00, 
2364.00, 
2365.00, 
2366.00, 
2367.00, 
2368.00, 
2369.00, 
2370.00, 
2371.00, 
2372.00, 
2373.00, 
2374.00, 
2375.00, 
2376.00, 
2377.00, 
2378.00, 
2379.00, 
2380.00, 
2381.00, 
2382.00, 
2383.00, 
2384.00, 
2385.00, 
2386.00, 
2387.00, 
2388.00, 
2389.00, 
2390.00, 
2391.00, 
2392.00, 
2393.00, 
2394.00, 
2395.00, 
2396.00, 
2397.00, 
2398.00, 
2399.00, 
2400.00, 
2401.00, 
2402.00, 
2403.00, 
2404.00, 
2405.00, 
2406.00, 
2407.00, 
2408.00, 
2409.00, 
2410.00, 
2411.00, 
2412.00, 
2413.00, 
2414.00, 
2415.00, 
2416.00, 
2417.00, 
2418.00, 
2419.00, 
2420.00, 
2421.00, 
2422.00, 
2423.00, 
2424.00, 
2425.00, 
2426.00, 
2427.00, 
2428.00, 
2429.00, 
2430.00, 
2431.00, 
2432.00, 
2433.00, 
2434.00, 
2435.00, 
2436.00, 
2437.00, 
2438.00, 
2439.00, 
2440.00, 
2441.00, 
2442.00, 
2443.00, 
2444.00, 
2445.00, 
2446.00, 
2447.00, 
2448.00, 
2449.00, 
2450.00, 
2451.00, 
2452.00, 
2453.00, 
2454.00, 
2455.00, 
2456.00, 
2457.00, 
2458.00, 
2459.00, 
2460.00, 
2461.00, 
2462.00, 
2463.00, 
2464.00, 
2465.00, 
2466.00, 
2467.00, 
2468.00, 
2469.00, 
2470.00, 
2471.00, 
2472.00, 
2473.00, 
2474.00, 
2475.00, 
2476.00, 
2477.00, 
2478.00, 
2479.00, 
2480.00, 
2481.00, 
2482.00, 
2483.00, 
2484.00, 
2485.00, 
2486.00, 
2487.00, 
2488.00, 
2489.00, 
2490.00, 
2491.00, 
2492.00, 
2493.00, 
2494.00, 
2495.00, 
2496.00, 
2497.00, 
2498.00, 
2499.00, 
2500.00, 
2501.00, 
2502.00, 
2503.00, 
2504.00, 
2505.00, 
2506.00, 
2507.00, 
2508.00, 
2509.00, 
2510.00, 
2511.00, 
2512.00, 
2513.00, 
2514.00, 
2515.00, 
2516.00, 
2517.00, 
2518.00, 
2519.00, 
2520.00, 
2521.00, 
2522.00, 
2523.00, 
2524.00, 
2525.00, 
2526.00, 
2527.00, 
2528.00, 
2529.00, 
2530.00, 
2531.00, 
2532.00, 
2533.00, 
2534.00, 
2535.00, 
2536.00, 
2537.00, 
2538.00, 
2539.00, 
2540.00, 
2541.00, 
2542.00, 
2543.00, 
2544.00, 
2545.00, 
2546.00, 
2547.00, 
2548.00, 
2549.00, 
2550.00, 
2551.00, 
2552.00, 
2553.00, 
2554.00, 
2555.00, 
2556.00, 
2557.00, 
2558.00, 
2559.00, 
2560.00, 
2561.00, 
2562.00, 
2563.00, 
2564.00, 
2565.00, 
2566.00, 
2567.00, 
2568.00, 
2569.00, 
2570.00, 
2571.00, 
2572.00, 
2573.00, 
2574.00, 
2575.00, 
2576.00, 
2577.00, 
2578.00, 
2579.00, 
2580.00, 
2581.00, 
2582.00, 
2583.00, 
2584.00, 
2585.00, 
2586.00, 
2587.00, 
2588.00, 
2589.00, 
2590.00, 
2591.00, 
2592.00, 
2593.00, 
2594.00, 
2595.00, 
2596.00, 
2597.00, 
2598.00, 
2599.00, 
2600.00, 
