"1cP3 - RawData"
"Wavelength nm.","T%"
200.00,0.002
201.00,0.002
202.00,0.003
203.00,-0.000
204.00,0.001
205.00,0.000
206.00,0.003
207.00,0.002
208.00,-0.000
209.00,-0.000
210.00,0.004
211.00,-0.000
212.00,-0.001
213.00,0.001
214.00,0.000
215.00,-0.000
216.00,-0.001
217.00,0.001
218.00,0.003
219.00,0.003
220.00,0.002
221.00,0.001
222.00,-0.003
223.00,-0.002
224.00,0.002
225.00,0.000
226.00,0.001
227.00,0.001
228.00,0.001
229.00,0.001
230.00,0.002
231.00,0.000
232.00,-0.000
233.00,0.000
234.00,-0.000
235.00,-0.001
236.00,-0.000
237.00,0.002
238.00,-0.000
239.00,0.001
240.00,0.000
241.00,0.000
242.00,0.001
243.00,-0.001
244.00,-0.001
245.00,-0.000
246.00,0.002
247.00,-0.000
248.00,0.001
249.00,0.000
250.00,0.001
251.00,-0.000
252.00,-0.000
253.00,-0.000
254.00,-0.001
255.00,0.001
256.00,0.001
257.00,0.001
258.00,-0.001
259.00,0.001
260.00,0.001
261.00,0.001
262.00,0.000
263.00,0.001
264.00,0.001
265.00,0.001
266.00,-0.002
267.00,0.003
268.00,0.002
269.00,-0.000
270.00,0.000
271.00,-0.000
272.00,-0.001
273.00,0.002
274.00,0.000
275.00,0.001
276.00,0.001
277.00,-0.000
278.00,0.001
279.00,0.000
280.00,0.000
281.00,0.002
282.00,0.002
283.00,-0.001
284.00,-0.001
285.00,0.001
286.00,0.000
287.00,0.001
288.00,-0.000
289.00,-0.000
290.00,0.001
291.00,-0.001
292.00,0.000
293.00,0.000
294.00,0.001
295.00,-0.001
296.00,0.002
297.00,-0.000
298.00,0.002
299.00,0.002
300.00,0.000
301.00,0.001
302.00,0.002
303.00,0.003
304.00,0.003
305.00,0.003
306.00,0.002
307.00,0.005
308.00,0.009
309.00,0.014
310.00,0.021
311.00,0.032
312.00,0.051
313.00,0.081
314.00,0.119
315.00,0.174
316.00,0.251
317.00,0.355
318.00,0.489
319.00,0.662
320.00,0.880
321.00,1.139
322.00,1.444
323.00,1.842
324.00,2.277
325.00,2.735
326.00,3.259
327.00,3.904
328.00,4.461
329.00,5.225
330.00,5.993
331.00,6.781
332.00,7.630
333.00,8.552
334.00,9.394
335.00,10.355
336.00,11.291
337.00,12.279
338.00,13.278
339.00,14.153
340.00,15.125
341.00,16.031
342.00,16.945
343.00,17.777
344.00,18.643
345.00,19.516
346.00,20.289
347.00,20.998
348.00,21.694
349.00,22.419
350.00,23.079
351.00,23.666
352.00,24.177
353.00,24.753
354.00,25.215
355.00,25.745
356.00,26.206
357.00,26.550
358.00,27.037
359.00,27.467
360.00,27.817
361.00,28.104
362.00,28.433
363.00,28.714
364.00,28.868
365.00,29.065
366.00,29.249
367.00,29.495
368.00,29.669
369.00,29.725
370.00,29.885
371.00,29.878
372.00,29.897
373.00,29.941
374.00,29.972
375.00,29.952
376.00,29.891
377.00,29.730
378.00,29.659
379.00,29.522
380.00,29.629
381.00,29.601
382.00,29.689
383.00,29.754
384.00,29.838
385.00,29.938
386.00,30.010
387.00,30.191
388.00,30.378
389.00,30.412
390.00,30.541
391.00,30.636
392.00,30.622
393.00,30.754
394.00,30.731
395.00,30.887
396.00,30.903
397.00,30.994
398.00,31.039
399.00,31.024
400.00,31.016
401.00,31.054
402.00,31.103
403.00,31.096
404.00,31.091
405.00,31.048
406.00,31.081
407.00,31.025
408.00,31.062
409.00,30.931
410.00,30.895
411.00,30.908
412.00,30.839
413.00,30.899
414.00,30.852
415.00,30.836
416.00,30.928
417.00,30.851
418.00,30.862
419.00,30.970
420.00,31.019
421.00,31.041
422.00,31.016
423.00,31.072
424.00,31.139
425.00,31.172
426.00,31.163
427.00,31.207
428.00,31.257
429.00,31.292
430.00,31.320
431.00,31.366
432.00,31.373
433.00,31.449
434.00,31.477
435.00,31.516
436.00,31.544
437.00,31.612
438.00,31.650
439.00,31.723
440.00,31.799
441.00,31.835
442.00,31.889
443.00,31.994
444.00,32.066
445.00,32.142
446.00,32.261
447.00,32.275
448.00,32.419
449.00,32.517
450.00,32.584
451.00,32.634
452.00,32.759
453.00,32.833
454.00,32.930
455.00,33.020
456.00,33.161
457.00,33.265
458.00,33.311
459.00,33.473
460.00,33.557
461.00,33.700
462.00,33.797
463.00,33.899
464.00,34.013
465.00,34.174
466.00,34.240
467.00,34.350
468.00,34.396
469.00,34.502
470.00,34.539
471.00,34.640
472.00,34.769
473.00,34.812
474.00,34.872
475.00,34.940
476.00,35.052
477.00,35.161
478.00,35.208
479.00,35.430
480.00,35.494
481.00,35.543
482.00,35.719
483.00,35.792
484.00,36.023
485.00,36.127
486.00,36.273
487.00,36.406
488.00,36.515
489.00,36.657
490.00,36.821
491.00,36.856
492.00,37.108
493.00,37.246
494.00,37.160
495.00,37.337
496.00,37.460
497.00,37.475
498.00,37.651
499.00,37.769
500.00,37.883
501.00,37.940
502.00,38.050
503.00,38.207
504.00,38.195
505.00,38.360
506.00,38.501
507.00,38.502
508.00,38.648
509.00,38.766
510.00,38.855
511.00,38.937
512.00,39.098
513.00,39.259
514.00,39.277
515.00,39.420
516.00,39.528
517.00,39.612
518.00,39.740
519.00,39.751
520.00,39.768
521.00,39.867
522.00,39.984
523.00,39.923
524.00,40.076
525.00,40.200
526.00,40.290
527.00,40.278
528.00,40.365
529.00,40.552
530.00,40.692
531.00,40.791
532.00,40.895
533.00,40.961
534.00,41.021
535.00,41.144
536.00,41.199
537.00,41.296
538.00,41.292
539.00,41.387
540.00,41.490
541.00,41.497
542.00,41.592
543.00,41.688
544.00,41.660
545.00,41.732
546.00,41.747
547.00,41.898
548.00,41.941
549.00,42.007
550.00,42.071
551.00,42.193
552.00,42.249
553.00,42.251
554.00,42.362
555.00,42.393
556.00,42.424
557.00,42.544
558.00,42.580
559.00,42.632
560.00,42.726
561.00,42.790
562.00,42.838
563.00,42.844
564.00,42.934
565.00,42.927
566.00,42.929
567.00,42.976
568.00,43.039
569.00,43.081
570.00,43.106
571.00,43.159
572.00,43.187
573.00,43.110
574.00,43.203
575.00,43.171
576.00,43.179
577.00,43.242
578.00,43.386
579.00,43.456
580.00,43.469
581.00,43.674
582.00,43.693
583.00,43.661
584.00,43.783
585.00,43.862
586.00,43.903
587.00,43.972
588.00,43.940
589.00,43.883
590.00,44.038
591.00,44.102
592.00,43.972
593.00,44.046
594.00,44.128
595.00,44.228
596.00,44.278
597.00,44.353
598.00,44.354
599.00,44.360
600.00,44.387
601.00,44.487
602.00,44.405
603.00,44.404
604.00,44.526
605.00,44.587
606.00,44.448
607.00,44.575
608.00,44.745
609.00,44.712
610.00,44.605
611.00,44.877
612.00,44.774
613.00,44.822
614.00,44.884
615.00,44.928
616.00,44.998
617.00,44.979
618.00,44.914
619.00,44.997
620.00,45.077
621.00,45.157
622.00,45.227
623.00,45.206
624.00,45.296
625.00,45.309
626.00,45.348
627.00,45.376
628.00,45.353
629.00,45.326
630.00,45.453
631.00,45.468
632.00,45.535
633.00,45.597
634.00,45.696
635.00,45.725
636.00,45.813
637.00,45.812
638.00,45.807
639.00,45.893
640.00,45.888
641.00,45.849
642.00,45.993
643.00,46.019
644.00,46.091
645.00,46.070
646.00,46.197
647.00,46.329
648.00,46.288
649.00,46.288
650.00,46.295
651.00,46.450
652.00,46.526
653.00,46.460
654.00,46.504
655.00,46.673
656.00,46.886
657.00,46.863
658.00,46.805
659.00,46.935
660.00,46.870
661.00,46.874
662.00,46.914
663.00,46.919
664.00,47.190
665.00,47.335
666.00,47.193
667.00,47.226
668.00,47.198
669.00,47.502
670.00,47.624
671.00,47.547
672.00,47.540
673.00,47.360
674.00,47.762
675.00,47.978
676.00,47.780
677.00,47.980
678.00,47.705
679.00,47.715
680.00,47.906
681.00,48.224
682.00,48.024
683.00,48.066
684.00,48.179
685.00,48.324
686.00,48.124
687.00,48.134
688.00,48.184
689.00,48.269
690.00,48.450
691.00,48.731
692.00,48.214
693.00,48.305
694.00,48.451
695.00,48.537
696.00,48.501
697.00,48.617
698.00,48.645
699.00,48.821
700.00,48.996
701.00,48.730
702.00,48.892
703.00,49.092
704.00,48.941
705.00,48.815
706.00,48.951
707.00,49.087
708.00,48.876
709.00,49.286
710.00,49.599
711.00,49.086
712.00,49.166
713.00,49.317
714.00,49.412
715.00,49.302
716.00,49.363
717.00,49.348
718.00,49.507
719.00,49.384
720.00,49.475
721.00,54.127
722.00,54.199
723.00,54.148
724.00,54.047
725.00,54.068
726.00,54.126
727.00,54.035
728.00,54.094
729.00,53.912
730.00,53.976
731.00,53.940
732.00,54.063
733.00,54.043
734.00,54.001
735.00,54.016
736.00,54.017
737.00,53.952
738.00,54.042
739.00,53.947
740.00,53.966
741.00,53.977
742.00,53.970
743.00,53.902
744.00,53.894
745.00,53.934
746.00,53.982
747.00,53.827
748.00,53.860
749.00,53.787
750.00,53.714
751.00,53.714
752.00,53.756
753.00,53.748
754.00,53.724
755.00,53.677
756.00,53.656
757.00,53.584
758.00,53.597
759.00,53.671
760.00,53.534
761.00,53.627
762.00,53.628
763.00,53.653
764.00,53.537
765.00,53.532
766.00,53.518
767.00,53.468
768.00,53.472
769.00,53.461
770.00,53.552
771.00,53.433
772.00,53.475
773.00,53.435
774.00,53.413
775.00,53.391
776.00,53.295
777.00,53.432
778.00,53.414
779.00,53.463
780.00,53.305
781.00,53.332
782.00,53.335
783.00,53.336
784.00,53.295
785.00,53.230
786.00,53.251
787.00,53.268
788.00,53.188
789.00,53.218
790.00,53.051
791.00,53.084
792.00,53.108
793.00,53.049
794.00,53.068
795.00,53.055
796.00,52.992
797.00,52.920
798.00,52.961
799.00,52.829
800.00,52.910
801.00,52.816
802.00,52.806
803.00,52.800
804.00,52.781
805.00,52.795
806.00,52.784
807.00,52.732
808.00,52.814
809.00,52.680
810.00,52.640
811.00,52.629
812.00,52.613
813.00,52.572
814.00,52.530
815.00,52.554
816.00,52.510
817.00,52.445
818.00,52.470
819.00,52.397
820.00,52.328
821.00,52.359
822.00,52.364
823.00,52.329
824.00,52.391
825.00,52.139
826.00,52.207
827.00,52.269
828.00,52.262
829.00,52.314
830.00,52.190
831.00,54.621
832.00,54.607
833.00,54.498
834.00,54.533
835.00,54.490
836.00,54.507
837.00,54.469
838.00,54.425
839.00,54.383
840.00,54.344
841.00,54.339
842.00,54.329
843.00,54.320
844.00,54.287
845.00,54.245
846.00,54.216
847.00,54.178
848.00,54.152
849.00,54.089
850.00,54.077
851.00,54.059
852.00,54.026
853.00,53.978
854.00,53.962
855.00,53.893
856.00,53.870
857.00,53.870
858.00,53.826
859.00,53.779
860.00,53.795
861.00,53.746
862.00,53.719
863.00,53.702
864.00,53.713
865.00,53.745
866.00,53.687
867.00,53.652
868.00,53.612
869.00,53.617
870.00,53.585
871.00,53.562
872.00,53.567
873.00,53.576
874.00,53.537
875.00,53.492
876.00,53.504
877.00,53.464
878.00,53.481
879.00,53.423
880.00,53.463
881.00,53.413
882.00,53.418
883.00,53.394
884.00,53.384
885.00,53.360
886.00,53.341
887.00,53.457
888.00,53.261
889.00,53.265
890.00,53.239
891.00,53.193
892.00,53.166
893.00,53.140
894.00,53.142
895.00,53.121
896.00,53.110
897.00,53.074
898.00,53.047
899.00,53.028
900.00,53.016
901.00,53.012
902.00,53.001
903.00,52.974
904.00,52.987
905.00,52.921
906.00,52.924
907.00,52.911
908.00,52.866
909.00,52.852
910.00,52.798
911.00,52.791
912.00,52.788
913.00,52.733
914.00,52.737
915.00,52.707
916.00,52.686
917.00,52.657
918.00,52.652
919.00,52.619
920.00,52.599
921.00,52.609
922.00,52.594
923.00,52.564
924.00,52.534
925.00,52.512
926.00,52.423
927.00,52.527
928.00,52.431
929.00,52.418
930.00,52.402
931.00,52.389
932.00,52.346
933.00,52.345
934.00,52.342
935.00,52.330
936.00,52.287
937.00,52.259
938.00,52.257
939.00,52.237
940.00,52.216
941.00,52.203
942.00,52.164
943.00,52.152
944.00,52.105
945.00,52.127
946.00,52.100
947.00,52.067
948.00,52.041
949.00,52.030
950.00,52.034
951.00,51.991
952.00,51.966
953.00,51.999
954.00,51.902
955.00,51.868
956.00,51.864
957.00,51.815
958.00,51.820
959.00,51.752
960.00,51.745
961.00,51.738
962.00,51.730
963.00,51.696
964.00,51.688
965.00,51.688
966.00,51.668
967.00,51.663
968.00,51.639
969.00,51.662
970.00,51.620
971.00,51.636
972.00,51.592
973.00,51.656
974.00,51.580
975.00,51.608
976.00,51.629
977.00,51.608
978.00,51.633
979.00,51.587
980.00,51.611
981.00,51.602
982.00,51.593
983.00,51.579
984.00,51.563
985.00,51.594
986.00,51.547
987.00,51.554
988.00,51.560
989.00,51.547
990.00,51.528
991.00,51.503
992.00,51.534
993.00,51.501
994.00,51.487
995.00,51.456
996.00,51.437
997.00,51.424
998.00,51.399
999.00,51.410
1000.00,51.371
1001.00,51.367
1002.00,51.350
1003.00,51.341
1004.00,51.322
1005.00,51.281
1006.00,51.324
1007.00,51.297
1008.00,51.300
1009.00,51.274
1010.00,51.262
1011.00,51.270
1012.00,51.232
1013.00,51.231
1014.00,51.209
1015.00,51.249
1016.00,51.186
1017.00,51.163
1018.00,51.155
1019.00,51.117
1020.00,51.118
1021.00,51.084
1022.00,51.100
1023.00,51.056
1024.00,51.045
1025.00,51.028
1026.00,51.024
1027.00,50.985
1028.00,50.975
1029.00,50.975
1030.00,50.949
1031.00,50.951
1032.00,50.914
1033.00,50.924
1034.00,50.914
1035.00,50.872
1036.00,50.848
1037.00,50.828
1038.00,50.799
1039.00,50.777
1040.00,50.774
1041.00,50.732
1042.00,50.726
1043.00,50.711
1044.00,50.743
1045.00,50.715
1046.00,50.707
1047.00,50.724
1048.00,50.746
1049.00,50.747
1050.00,50.756
1051.00,50.776
1052.00,50.774
1053.00,50.790
1054.00,50.787
1055.00,50.817
1056.00,50.825
1057.00,50.816
1058.00,50.803
1059.00,50.791
1060.00,50.801
1061.00,50.773
1062.00,50.765
1063.00,50.772
1064.00,50.773
1065.00,50.753
1066.00,50.743
1067.00,50.740
1068.00,50.757
1069.00,50.728
1070.00,50.711
1071.00,50.694
1072.00,50.727
1073.00,50.705
1074.00,50.715
1075.00,50.690
1076.00,50.684
1077.00,50.676
1078.00,50.659
1079.00,50.666
1080.00,50.664
1081.00,50.643
1082.00,50.626
1083.00,50.609
1084.00,50.619
1085.00,50.613
1086.00,50.602
1087.00,50.619
1088.00,50.582
1089.00,50.583
1090.00,50.570
1091.00,50.584
1092.00,50.578
1093.00,50.547
1094.00,50.519
1095.00,50.524
1096.00,50.492
1097.00,50.498
1098.00,50.490
1099.00,50.475
1100.00,50.466
1101.00,50.456
1102.00,50.453
1103.00,50.464
1104.00,50.442
1105.00,50.440
1106.00,50.450
1107.00,50.441
1108.00,50.451
1109.00,50.446
1110.00,50.394
1111.00,50.386
1112.00,50.378
1113.00,50.382
1114.00,50.360
1115.00,50.355
1116.00,50.358
1117.00,50.345
1118.00,50.325
1119.00,50.334
1120.00,50.331
1121.00,50.319
1122.00,50.299
1123.00,50.329
1124.00,50.314
1125.00,50.315
1126.00,50.309
1127.00,50.290
1128.00,50.276
1129.00,50.252
1130.00,50.257
1131.00,50.258
1132.00,50.239
1133.00,50.238
1134.00,50.217
1135.00,50.224
1136.00,50.205
1137.00,50.215
1138.00,50.219
1139.00,50.227
1140.00,50.221
1141.00,50.220
1142.00,50.190
1143.00,50.200
1144.00,50.172
1145.00,50.178
1146.00,50.163
1147.00,50.157
1148.00,50.148
1149.00,50.180
1150.00,50.192
1151.00,50.188
1152.00,50.169
1153.00,50.170
1154.00,50.171
1155.00,50.176
1156.00,50.190
1157.00,50.202
1158.00,50.166
1159.00,50.163
1160.00,50.157
1161.00,50.171
1162.00,50.151
1163.00,50.149
1164.00,50.153
1165.00,50.159
1166.00,50.168
1167.00,50.142
1168.00,50.169
1169.00,50.148
1170.00,50.138
1171.00,50.113
1172.00,50.126
1173.00,50.124
1174.00,50.134
1175.00,50.133
1176.00,50.139
1177.00,50.123
1178.00,50.123
1179.00,50.141
1180.00,50.131
1181.00,50.143
1182.00,50.134
1183.00,50.130
1184.00,50.114
1185.00,50.136
1186.00,50.124
1187.00,50.130
1188.00,50.120
1189.00,50.124
1190.00,50.106
1191.00,50.106
1192.00,50.129
1193.00,50.105
1194.00,50.114
1195.00,50.086
1196.00,50.145
1197.00,50.152
1198.00,50.121
1199.00,50.126
1200.00,50.134
1201.00,50.145
1202.00,50.120
1203.00,50.130
1204.00,50.117
1205.00,50.139
1206.00,50.130
1207.00,50.124
1208.00,50.105
1209.00,50.122
1210.00,50.126
1211.00,50.100
1212.00,50.107
1213.00,50.072
1214.00,50.104
1215.00,50.088
1216.00,50.121
1217.00,50.133
1218.00,50.111
1219.00,50.144
1220.00,50.136
1221.00,50.167
1222.00,50.143
1223.00,50.159
1224.00,50.160
1225.00,50.135
1226.00,50.142
1227.00,50.149
1228.00,50.160
1229.00,50.158
1230.00,50.178
1231.00,50.165
1232.00,50.189
1233.00,50.186
1234.00,50.185
1235.00,50.188
1236.00,50.182
1237.00,50.182
1238.00,50.175
1239.00,50.182
1240.00,50.165
1241.00,50.185
1242.00,50.188
1243.00,50.209
1244.00,50.189
1245.00,50.218
1246.00,50.227
1247.00,50.211
1248.00,50.209
1249.00,50.234
1250.00,50.246
1251.00,50.223
1252.00,50.238
1253.00,50.236
1254.00,50.273
1255.00,50.257
1256.00,50.233
1257.00,50.228
1258.00,50.263
1259.00,50.257
1260.00,50.295
1261.00,50.287
1262.00,50.284
1263.00,50.278
1264.00,50.296
1265.00,50.311
1266.00,50.307
1267.00,50.316
1268.00,50.333
1269.00,50.329
1270.00,50.336
1271.00,50.354
1272.00,50.340
1273.00,50.368
1274.00,50.362
1275.00,50.367
1276.00,50.370
1277.00,50.385
1278.00,50.416
1279.00,50.413
1280.00,50.390
1281.00,50.406
1282.00,50.412
1283.00,50.434
1284.00,50.433
1285.00,50.431
1286.00,50.437
1287.00,50.448
1288.00,50.444
1289.00,50.436
1290.00,50.471
1291.00,50.457
1292.00,50.454
1293.00,50.457
1294.00,50.463
1295.00,50.486
1296.00,50.481
1297.00,50.498
1298.00,50.532
1299.00,50.510
1300.00,50.534
1301.00,50.532
1302.00,50.553
1303.00,50.535
1304.00,50.539
1305.00,50.559
1306.00,50.575
1307.00,50.578
1308.00,50.605
1309.00,50.624
1310.00,50.596
1311.00,50.600
1312.00,50.602
1313.00,50.602
1314.00,50.639
1315.00,50.656
1316.00,50.654
1317.00,50.684
1318.00,50.683
1319.00,50.696
1320.00,50.705
1321.00,50.878
1322.00,50.855
1323.00,50.833
1324.00,50.838
1325.00,50.826
1326.00,50.835
1327.00,50.840
1328.00,50.829
1329.00,50.854
1330.00,50.848
1331.00,50.850
1332.00,50.864
1333.00,50.856
1334.00,50.881
1335.00,50.918
1336.00,50.924
1337.00,50.975
1338.00,51.037
1339.00,51.071
1340.00,51.136
1341.00,51.195
1342.00,51.239
1343.00,51.289
1344.00,51.336
1345.00,51.387
1346.00,51.442
1347.00,51.422
1348.00,51.465
1349.00,51.509
1350.00,51.513
1351.00,51.557
1352.00,51.560
1353.00,51.554
1354.00,51.576
1355.00,51.529
1356.00,51.583
1357.00,51.590
1358.00,51.605
1359.00,51.619
1360.00,51.628
1361.00,51.639
1362.00,51.684
1363.00,51.670
1364.00,51.618
1365.00,51.628
1366.00,51.577
1367.00,51.500
1368.00,51.654
1369.00,51.625
1370.00,51.669
1371.00,51.660
1372.00,51.618
1373.00,51.637
1374.00,51.674
1375.00,51.635
1376.00,51.650
1377.00,51.607
1378.00,51.634
1379.00,51.662
1380.00,51.632
1381.00,51.704
1382.00,51.592
1383.00,51.701
1384.00,51.660
1385.00,51.634
1386.00,51.680
1387.00,51.667
1388.00,51.636
1389.00,51.579
1390.00,51.636
1391.00,51.660
1392.00,51.630
1393.00,51.639
1394.00,51.684
1395.00,51.642
1396.00,51.615
1397.00,51.619
1398.00,51.684
1399.00,51.657
1400.00,51.820
1401.00,51.674
1402.00,51.701
1403.00,51.695
1404.00,51.716
1405.00,51.689
1406.00,51.748
1407.00,51.728
1408.00,51.782
1409.00,51.743
1410.00,51.776
1411.00,51.751
1412.00,51.831
1413.00,51.737
1414.00,51.761
1415.00,51.790
1416.00,51.831
1417.00,51.853
1418.00,51.832
1419.00,51.817
1420.00,51.836
1421.00,51.918
1422.00,51.893
1423.00,51.915
1424.00,51.927
1425.00,51.943
1426.00,51.970
1427.00,51.977
1428.00,51.990
1429.00,51.997
1430.00,52.001
1431.00,52.038
1432.00,52.038
1433.00,52.068
1434.00,52.063
1435.00,52.109
1436.00,52.131
1437.00,52.128
1438.00,52.140
1439.00,52.184
1440.00,52.194
1441.00,52.191
1442.00,52.202
1443.00,52.233
1444.00,52.306
1445.00,52.269
1446.00,52.277
1447.00,52.320
1448.00,52.368
1449.00,52.351
1450.00,52.370
1451.00,52.389
1452.00,52.403
1453.00,52.412
1454.00,52.445
1455.00,52.465
1456.00,52.502
1457.00,52.478
1458.00,52.516
1459.00,52.536
1460.00,52.558
1461.00,52.560
1462.00,52.602
1463.00,52.587
1464.00,52.602
1465.00,52.608
1466.00,52.620
1467.00,52.656
1468.00,52.715
1469.00,52.674
1470.00,52.709
1471.00,52.718
1472.00,52.720
1473.00,52.749
1474.00,52.760
1475.00,52.792
1476.00,52.814
1477.00,52.801
1478.00,52.855
1479.00,52.851
1480.00,52.872
1481.00,52.887
1482.00,52.907
1483.00,52.943
1484.00,52.951
1485.00,52.939
1486.00,52.959
1487.00,52.997
1488.00,53.005
1489.00,53.007
1490.00,53.017
1491.00,53.012
1492.00,53.041
1493.00,53.020
1494.00,53.073
1495.00,53.055
1496.00,53.083
1497.00,53.092
1498.00,53.104
1499.00,53.136
1500.00,53.167
1501.00, 
1502.00, 
1503.00, 
1504.00, 
1505.00, 
1506.00, 
1507.00, 
1508.00, 
1509.00, 
1510.00, 
1511.00, 
1512.00, 
1513.00, 
1514.00, 
1515.00, 
1516.00, 
1517.00, 
1518.00, 
1519.00, 
1520.00, 
1521.00, 
1522.00, 
1523.00, 
1524.00, 
1525.00, 
1526.00, 
1527.00, 
1528.00, 
1529.00, 
1530.00, 
1531.00, 
1532.00, 
1533.00, 
1534.00, 
1535.00, 
1536.00, 
1537.00, 
1538.00, 
1539.00, 
1540.00, 
1541.00, 
1542.00, 
1543.00, 
1544.00, 
1545.00, 
1546.00, 
1547.00, 
1548.00, 
1549.00, 
1550.00, 
1551.00, 
1552.00, 
1553.00, 
1554.00, 
1555.00, 
1556.00, 
1557.00, 
1558.00, 
1559.00, 
1560.00, 
1561.00, 
1562.00, 
1563.00, 
1564.00, 
1565.00, 
1566.00, 
1567.00, 
1568.00, 
1569.00, 
1570.00, 
1571.00, 
1572.00, 
1573.00, 
1574.00, 
1575.00, 
1576.00, 
1577.00, 
1578.00, 
1579.00, 
1580.00, 
1581.00, 
1582.00, 
1583.00, 
1584.00, 
1585.00, 
1586.00, 
1587.00, 
1588.00, 
1589.00, 
1590.00, 
1591.00, 
1592.00, 
1593.00, 
1594.00, 
1595.00, 
1596.00, 
1597.00, 
1598.00, 
1599.00, 
1600.00, 
1601.00, 
1602.00, 
1603.00, 
1604.00, 
1605.00, 
1606.00, 
1607.00, 
1608.00, 
1609.00, 
1610.00, 
1611.00, 
1612.00, 
1613.00, 
1614.00, 
1615.00, 
1616.00, 
1617.00, 
1618.00, 
1619.00, 
1620.00, 
1621.00, 
1622.00, 
1623.00, 
1624.00, 
1625.00, 
1626.00, 
1627.00, 
1628.00, 
1629.00, 
1630.00, 
1631.00, 
1632.00, 
1633.00, 
1634.00, 
1635.00, 
1636.00, 
1637.00, 
1638.00, 
1639.00, 
1640.00, 
1641.00, 
1642.00, 
1643.00, 
1644.00, 
1645.00, 
1646.00, 
1647.00, 
1648.00, 
1649.00, 
1650.00, 
1651.00, 
1652.00, 
1653.00, 
1654.00, 
1655.00, 
1656.00, 
1657.00, 
1658.00, 
1659.00, 
1660.00, 
1661.00, 
1662.00, 
1663.00, 
1664.00, 
1665.00, 
1666.00, 
1667.00, 
1668.00, 
1669.00, 
1670.00, 
1671.00, 
1672.00, 
1673.00, 
1674.00, 
1675.00, 
1676.00, 
1677.00, 
1678.00, 
1679.00, 
1680.00, 
1681.00, 
1682.00, 
1683.00, 
1684.00, 
1685.00, 
1686.00, 
1687.00, 
1688.00, 
1689.00, 
1690.00, 
1691.00, 
1692.00, 
1693.00, 
1694.00, 
1695.00, 
1696.00, 
1697.00, 
1698.00, 
1699.00, 
1700.00, 
1701.00, 
1702.00, 
1703.00, 
1704.00, 
1705.00, 
1706.00, 
1707.00, 
1708.00, 
1709.00, 
1710.00, 
1711.00, 
1712.00, 
1713.00, 
1714.00, 
1715.00, 
1716.00, 
1717.00, 
1718.00, 
1719.00, 
1720.00, 
1721.00, 
1722.00, 
1723.00, 
1724.00, 
1725.00, 
1726.00, 
1727.00, 
1728.00, 
1729.00, 
1730.00, 
1731.00, 
1732.00, 
1733.00, 
1734.00, 
1735.00, 
1736.00, 
1737.00, 
1738.00, 
1739.00, 
1740.00, 
1741.00, 
1742.00, 
1743.00, 
1744.00, 
1745.00, 
1746.00, 
1747.00, 
1748.00, 
1749.00, 
1750.00, 
1751.00, 
1752.00, 
1753.00, 
1754.00, 
1755.00, 
1756.00, 
1757.00, 
1758.00, 
1759.00, 
1760.00, 
1761.00, 
1762.00, 
1763.00, 
1764.00, 
1765.00, 
1766.00, 
1767.00, 
1768.00, 
1769.00, 
1770.00, 
1771.00, 
1772.00, 
1773.00, 
1774.00, 
1775.00, 
1776.00, 
1777.00, 
1778.00, 
1779.00, 
1780.00, 
1781.00, 
1782.00, 
1783.00, 
1784.00, 
1785.00, 
1786.00, 
1787.00, 
1788.00, 
1789.00, 
1790.00, 
1791.00, 
1792.00, 
1793.00, 
1794.00, 
1795.00, 
1796.00, 
1797.00, 
1798.00, 
1799.00, 
1800.00, 
1801.00, 
1802.00, 
1803.00, 
1804.00, 
1805.00, 
1806.00, 
1807.00, 
1808.00, 
1809.00, 
1810.00, 
1811.00, 
1812.00, 
1813.00, 
1814.00, 
1815.00, 
1816.00, 
1817.00, 
1818.00, 
1819.00, 
1820.00, 
1821.00, 
1822.00, 
1823.00, 
1824.00, 
1825.00, 
1826.00, 
1827.00, 
1828.00, 
1829.00, 
1830.00, 
1831.00, 
1832.00, 
1833.00, 
1834.00, 
1835.00, 
1836.00, 
1837.00, 
1838.00, 
1839.00, 
1840.00, 
1841.00, 
1842.00, 
1843.00, 
1844.00, 
1845.00, 
1846.00, 
1847.00, 
1848.00, 
1849.00, 
1850.00, 
1851.00, 
1852.00, 
1853.00, 
1854.00, 
1855.00, 
1856.00, 
1857.00, 
1858.00, 
1859.00, 
1860.00, 
1861.00, 
1862.00, 
1863.00, 
1864.00, 
1865.00, 
1866.00, 
1867.00, 
1868.00, 
1869.00, 
1870.00, 
1871.00, 
1872.00, 
1873.00, 
1874.00, 
1875.00, 
1876.00, 
1877.00, 
1878.00, 
1879.00, 
1880.00, 
1881.00, 
1882.00, 
1883.00, 
1884.00, 
1885.00, 
1886.00, 
1887.00, 
1888.00, 
1889.00, 
1890.00, 
1891.00, 
1892.00, 
1893.00, 
1894.00, 
1895.00, 
1896.00, 
1897.00, 
1898.00, 
1899.00, 
1900.00, 
1901.00, 
1902.00, 
1903.00, 
1904.00, 
1905.00, 
1906.00, 
1907.00, 
1908.00, 
1909.00, 
1910.00, 
1911.00, 
1912.00, 
1913.00, 
1914.00, 
1915.00, 
1916.00, 
1917.00, 
1918.00, 
1919.00, 
1920.00, 
1921.00, 
1922.00, 
1923.00, 
1924.00, 
1925.00, 
1926.00, 
1927.00, 
1928.00, 
1929.00, 
1930.00, 
1931.00, 
1932.00, 
1933.00, 
1934.00, 
1935.00, 
1936.00, 
1937.00, 
1938.00, 
1939.00, 
1940.00, 
1941.00, 
1942.00, 
1943.00, 
1944.00, 
1945.00, 
1946.00, 
1947.00, 
1948.00, 
1949.00, 
1950.00, 
1951.00, 
1952.00, 
1953.00, 
1954.00, 
1955.00, 
1956.00, 
1957.00, 
1958.00, 
1959.00, 
1960.00, 
1961.00, 
1962.00, 
1963.00, 
1964.00, 
1965.00, 
1966.00, 
1967.00, 
1968.00, 
1969.00, 
1970.00, 
1971.00, 
1972.00, 
1973.00, 
1974.00, 
1975.00, 
1976.00, 
1977.00, 
1978.00, 
1979.00, 
1980.00, 
1981.00, 
1982.00, 
1983.00, 
1984.00, 
1985.00, 
1986.00, 
1987.00, 
1988.00, 
1989.00, 
1990.00, 
1991.00, 
1992.00, 
1993.00, 
1994.00, 
1995.00, 
1996.00, 
1997.00, 
1998.00, 
1999.00, 
2000.00, 
2001.00, 
2002.00, 
2003.00, 
2004.00, 
2005.00, 
2006.00, 
2007.00, 
2008.00, 
2009.00, 
2010.00, 
2011.00, 
2012.00, 
2013.00, 
2014.00, 
2015.00, 
2016.00, 
2017.00, 
2018.00, 
2019.00, 
2020.00, 
2021.00, 
2022.00, 
2023.00, 
2024.00, 
2025.00, 
2026.00, 
2027.00, 
2028.00, 
2029.00, 
2030.00, 
2031.00, 
2032.00, 
2033.00, 
2034.00, 
2035.00, 
2036.00, 
2037.00, 
2038.00, 
2039.00, 
2040.00, 
2041.00, 
2042.00, 
2043.00, 
2044.00, 
2045.00, 
2046.00, 
2047.00, 
2048.00, 
2049.00, 
2050.00, 
2051.00, 
2052.00, 
2053.00, 
2054.00, 
2055.00, 
2056.00, 
2057.00, 
2058.00, 
2059.00, 
2060.00, 
2061.00, 
2062.00, 
2063.00, 
2064.00, 
2065.00, 
2066.00, 
2067.00, 
2068.00, 
2069.00, 
2070.00, 
2071.00, 
2072.00, 
2073.00, 
2074.00, 
2075.00, 
2076.00, 
2077.00, 
2078.00, 
2079.00, 
2080.00, 
2081.00, 
2082.00, 
2083.00, 
2084.00, 
2085.00, 
2086.00, 
2087.00, 
2088.00, 
2089.00, 
2090.00, 
2091.00, 
2092.00, 
2093.00, 
2094.00, 
2095.00, 
2096.00, 
2097.00, 
2098.00, 
2099.00, 
2100.00, 
2101.00, 
2102.00, 
2103.00, 
2104.00, 
2105.00, 
2106.00, 
2107.00, 
2108.00, 
2109.00, 
2110.00, 
2111.00, 
2112.00, 
2113.00, 
2114.00, 
2115.00, 
2116.00, 
2117.00, 
2118.00, 
2119.00, 
2120.00, 
2121.00, 
2122.00, 
2123.00, 
2124.00, 
2125.00, 
2126.00, 
2127.00, 
2128.00, 
2129.00, 
2130.00, 
2131.00, 
2132.00, 
2133.00, 
2134.00, 
2135.00, 
2136.00, 
2137.00, 
2138.00, 
2139.00, 
2140.00, 
2141.00, 
2142.00, 
2143.00, 
2144.00, 
2145.00, 
2146.00, 
2147.00, 
2148.00, 
2149.00, 
2150.00, 
2151.00, 
2152.00, 
2153.00, 
2154.00, 
2155.00, 
2156.00, 
2157.00, 
2158.00, 
2159.00, 
2160.00, 
2161.00, 
2162.00, 
2163.00, 
2164.00, 
2165.00, 
2166.00, 
2167.00, 
2168.00, 
2169.00, 
2170.00, 
2171.00, 
2172.00, 
2173.00, 
2174.00, 
2175.00, 
2176.00, 
2177.00, 
2178.00, 
2179.00, 
2180.00, 
2181.00, 
2182.00, 
2183.00, 
2184.00, 
2185.00, 
2186.00, 
2187.00, 
2188.00, 
2189.00, 
2190.00, 
2191.00, 
2192.00, 
2193.00, 
2194.00, 
2195.00, 
2196.00, 
2197.00, 
2198.00, 
2199.00, 
2200.00, 
2201.00, 
2202.00, 
2203.00, 
2204.00, 
2205.00, 
2206.00, 
2207.00, 
2208.00, 
2209.00, 
2210.00, 
2211.00, 
2212.00, 
2213.00, 
2214.00, 
2215.00, 
2216.00, 
2217.00, 
2218.00, 
2219.00, 
2220.00, 
2221.00, 
2222.00, 
2223.00, 
2224.00, 
2225.00, 
2226.00, 
2227.00, 
2228.00, 
2229.00, 
2230.00, 
2231.00, 
2232.00, 
2233.00, 
2234.00, 
2235.00, 
2236.00, 
2237.00, 
2238.00, 
2239.00, 
2240.00, 
2241.00, 
2242.00, 
2243.00, 
2244.00, 
2245.00, 
2246.00, 
2247.00, 
2248.00, 
2249.00, 
2250.00, 
2251.00, 
2252.00, 
2253.00, 
2254.00, 
2255.00, 
2256.00, 
2257.00, 
2258.00, 
2259.00, 
2260.00, 
2261.00, 
2262.00, 
2263.00, 
2264.00, 
2265.00, 
2266.00, 
2267.00, 
2268.00, 
2269.00, 
2270.00, 
2271.00, 
2272.00, 
2273.00, 
2274.00, 
2275.00, 
2276.00, 
2277.00, 
2278.00, 
2279.00, 
2280.00, 
2281.00, 
2282.00, 
2283.00, 
2284.00, 
2285.00, 
2286.00, 
2287.00, 
2288.00, 
2289.00, 
2290.00, 
2291.00, 
2292.00, 
2293.00, 
2294.00, 
2295.00, 
2296.00, 
2297.00, 
2298.00, 
2299.00, 
2300.00, 
2301.00, 
2302.00, 
2303.00, 
2304.00, 
2305.00, 
2306.00, 
2307.00, 
2308.00, 
2309.00, 
2310.00, 
2311.00, 
2312.00, 
2313.00, 
2314.00, 
2315.00, 
2316.00, 
2317.00, 
2318.00, 
2319.00, 
2320.00, 
2321.00, 
2322.00, 
2323.00, 
2324.00, 
2325.00, 
2326.00, 
2327.00, 
2328.00, 
2329.00, 
2330.00, 
2331.00, 
2332.00, 
2333.00, 
2334.00, 
2335.00, 
2336.00, 
2337.00, 
2338.00, 
2339.00, 
2340.00, 
2341.00, 
2342.00, 
2343.00, 
2344.00, 
2345.00, 
2346.00, 
2347.00, 
2348.00, 
2349.00, 
2350.00, 
2351.00, 
2352.00, 
2353.00, 
2354.00, 
2355.00, 
2356.00, 
2357.00, 
2358.00, 
2359.00, 
2360.00, 
2361.00, 
2362.00, 
2363.00, 
2364.00, 
2365.00, 
2366.00, 
2367.00, 
2368.00, 
2369.00, 
2370.00, 
2371.00, 
2372.00, 
2373.00, 
2374.00, 
2375.00, 
2376.00, 
2377.00, 
2378.00, 
2379.00, 
2380.00, 
2381.00, 
2382.00, 
2383.00, 
2384.00, 
2385.00, 
2386.00, 
2387.00, 
2388.00, 
2389.00, 
2390.00, 
2391.00, 
2392.00, 
2393.00, 
2394.00, 
2395.00, 
2396.00, 
2397.00, 
2398.00, 
2399.00, 
2400.00, 
2401.00, 
2402.00, 
2403.00, 
2404.00, 
2405.00, 
2406.00, 
2407.00, 
2408.00, 
2409.00, 
2410.00, 
2411.00, 
2412.00, 
2413.00, 
2414.00, 
2415.00, 
2416.00, 
2417.00, 
2418.00, 
2419.00, 
2420.00, 
2421.00, 
2422.00, 
2423.00, 
2424.00, 
2425.00, 
2426.00, 
2427.00, 
2428.00, 
2429.00, 
2430.00, 
2431.00, 
2432.00, 
2433.00, 
2434.00, 
2435.00, 
2436.00, 
2437.00, 
2438.00, 
2439.00, 
2440.00, 
2441.00, 
2442.00, 
2443.00, 
2444.00, 
2445.00, 
2446.00, 
2447.00, 
2448.00, 
2449.00, 
2450.00, 
2451.00, 
2452.00, 
2453.00, 
2454.00, 
2455.00, 
2456.00, 
2457.00, 
2458.00, 
2459.00, 
2460.00, 
2461.00, 
2462.00, 
2463.00, 
2464.00, 
2465.00, 
2466.00, 
2467.00, 
2468.00, 
2469.00, 
2470.00, 
2471.00, 
2472.00, 
2473.00, 
2474.00, 
2475.00, 
2476.00, 
2477.00, 
2478.00, 
2479.00, 
2480.00, 
2481.00, 
2482.00, 
2483.00, 
2484.00, 
2485.00, 
2486.00, 
2487.00, 
2488.00, 
2489.00, 
2490.00, 
2491.00, 
2492.00, 
2493.00, 
2494.00, 
2495.00, 
2496.00, 
2497.00, 
2498.00, 
2499.00, 
2500.00, 
2501.00, 
2502.00, 
2503.00, 
2504.00, 
2505.00, 
2506.00, 
2507.00, 
2508.00, 
2509.00, 
2510.00, 
2511.00, 
2512.00, 
2513.00, 
2514.00, 
2515.00, 
2516.00, 
2517.00, 
2518.00, 
2519.00, 
2520.00, 
2521.00, 
2522.00, 
2523.00, 
2524.00, 
2525.00, 
2526.00, 
2527.00, 
2528.00, 
2529.00, 
2530.00, 
2531.00, 
2532.00, 
2533.00, 
2534.00, 
2535.00, 
2536.00, 
2537.00, 
2538.00, 
2539.00, 
2540.00, 
2541.00, 
2542.00, 
2543.00, 
2544.00, 
2545.00, 
2546.00, 
2547.00, 
2548.00, 
2549.00, 
2550.00, 
2551.00, 
2552.00, 
2553.00, 
2554.00, 
2555.00, 
2556.00, 
2557.00, 
2558.00, 
2559.00, 
2560.00, 
2561.00, 
2562.00, 
2563.00, 
2564.00, 
2565.00, 
2566.00, 
2567.00, 
2568.00, 
2569.00, 
2570.00, 
2571.00, 
2572.00, 
2573.00, 
2574.00, 
2575.00, 
2576.00, 
2577.00, 
2578.00, 
2579.00, 
2580.00, 
2581.00, 
2582.00, 
2583.00, 
2584.00, 
2585.00, 
2586.00, 
2587.00, 
2588.00, 
2589.00, 
2590.00, 
2591.00, 
2592.00, 
2593.00, 
2594.00, 
2595.00, 
2596.00, 
2597.00, 
2598.00, 
2599.00, 
2600.00, 
