"1cP4 - RawData"
"Wavelength nm.","T%"
200.00,0.004
201.00,0.003
202.00,0.002
203.00,0.005
204.00,-0.001
205.00,0.001
206.00,0.003
207.00,0.000
208.00,-0.002
209.00,0.002
210.00,-0.002
211.00,0.001
212.00,0.000
213.00,-0.000
214.00,0.000
215.00,-0.001
216.00,-0.000
217.00,0.001
218.00,0.002
219.00,0.002
220.00,0.002
221.00,0.000
222.00,-0.001
223.00,0.002
224.00,-0.000
225.00,0.002
226.00,0.003
227.00,0.001
228.00,-0.001
229.00,0.000
230.00,-0.001
231.00,0.000
232.00,0.001
233.00,0.001
234.00,-0.001
235.00,0.002
236.00,0.003
237.00,-0.001
238.00,0.000
239.00,0.001
240.00,-0.000
241.00,0.000
242.00,-0.001
243.00,0.001
244.00,-0.000
245.00,0.002
246.00,0.001
247.00,-0.000
248.00,0.000
249.00,0.002
250.00,0.001
251.00,0.001
252.00,0.000
253.00,0.000
254.00,-0.001
255.00,-0.000
256.00,0.001
257.00,-0.000
258.00,0.000
259.00,-0.001
260.00,-0.001
261.00,0.001
262.00,-0.001
263.00,-0.000
264.00,0.002
265.00,0.000
266.00,0.001
267.00,-0.003
268.00,0.001
269.00,0.000
270.00,0.002
271.00,-0.000
272.00,0.001
273.00,0.001
274.00,-0.000
275.00,0.000
276.00,-0.001
277.00,0.001
278.00,-0.000
279.00,0.000
280.00,0.001
281.00,0.001
282.00,0.000
283.00,0.000
284.00,-0.001
285.00,0.000
286.00,-0.000
287.00,0.001
288.00,0.001
289.00,-0.001
290.00,0.000
291.00,-0.001
292.00,-0.000
293.00,-0.001
294.00,-0.002
295.00,-0.001
296.00,0.000
297.00,-0.000
298.00,-0.001
299.00,0.000
300.00,0.001
301.00,0.000
302.00,0.000
303.00,0.000
304.00,-0.000
305.00,0.002
306.00,0.003
307.00,0.005
308.00,0.006
309.00,0.012
310.00,0.017
311.00,0.029
312.00,0.043
313.00,0.068
314.00,0.101
315.00,0.149
316.00,0.214
317.00,0.305
318.00,0.414
319.00,0.558
320.00,0.746
321.00,0.962
322.00,1.220
323.00,1.539
324.00,1.890
325.00,2.293
326.00,2.716
327.00,3.235
328.00,3.767
329.00,4.326
330.00,4.988
331.00,5.630
332.00,6.312
333.00,6.974
334.00,7.742
335.00,8.571
336.00,9.324
337.00,10.105
338.00,10.870
339.00,11.628
340.00,12.394
341.00,13.119
342.00,13.828
343.00,14.509
344.00,15.216
345.00,15.919
346.00,16.517
347.00,17.085
348.00,17.633
349.00,18.229
350.00,18.595
351.00,19.144
352.00,19.533
353.00,19.994
354.00,20.373
355.00,20.734
356.00,21.112
357.00,21.367
358.00,21.716
359.00,22.052
360.00,22.340
361.00,22.482
362.00,22.774
363.00,22.955
364.00,23.029
365.00,23.149
366.00,23.339
367.00,23.429
368.00,23.510
369.00,23.550
370.00,23.692
371.00,23.675
372.00,23.651
373.00,23.633
374.00,23.624
375.00,23.647
376.00,23.558
377.00,23.435
378.00,23.361
379.00,23.262
380.00,23.261
381.00,23.210
382.00,23.269
383.00,23.279
384.00,23.356
385.00,23.411
386.00,23.438
387.00,23.579
388.00,23.611
389.00,23.662
390.00,23.739
391.00,23.793
392.00,23.862
393.00,23.887
394.00,23.909
395.00,23.988
396.00,23.951
397.00,24.023
398.00,23.999
399.00,24.043
400.00,23.967
401.00,23.948
402.00,24.040
403.00,23.952
404.00,24.046
405.00,24.011
406.00,24.031
407.00,23.973
408.00,23.970
409.00,23.901
410.00,23.837
411.00,23.876
412.00,23.829
413.00,23.829
414.00,23.783
415.00,23.819
416.00,23.870
417.00,23.815
418.00,23.877
419.00,23.959
420.00,23.996
421.00,24.016
422.00,24.031
423.00,24.104
424.00,24.123
425.00,24.162
426.00,24.168
427.00,24.212
428.00,24.276
429.00,24.294
430.00,24.347
431.00,24.440
432.00,24.462
433.00,24.499
434.00,24.544
435.00,24.631
436.00,24.673
437.00,24.768
438.00,24.840
439.00,24.877
440.00,24.954
441.00,25.034
442.00,25.131
443.00,25.203
444.00,25.297
445.00,25.380
446.00,25.486
447.00,25.559
448.00,25.673
449.00,25.803
450.00,25.924
451.00,26.023
452.00,26.134
453.00,26.208
454.00,26.309
455.00,26.392
456.00,26.573
457.00,26.670
458.00,26.769
459.00,26.948
460.00,27.033
461.00,27.171
462.00,27.277
463.00,27.436
464.00,27.553
465.00,27.690
466.00,27.823
467.00,27.964
468.00,28.091
469.00,28.153
470.00,28.256
471.00,28.340
472.00,28.507
473.00,28.540
474.00,28.667
475.00,28.764
476.00,28.887
477.00,28.994
478.00,29.119
479.00,29.326
480.00,29.409
481.00,29.546
482.00,29.698
483.00,29.835
484.00,30.012
485.00,30.170
486.00,30.320
487.00,30.432
488.00,30.589
489.00,30.737
490.00,30.940
491.00,31.031
492.00,31.291
493.00,31.430
494.00,31.359
495.00,31.562
496.00,31.702
497.00,31.748
498.00,31.917
499.00,32.061
500.00,32.141
501.00,32.279
502.00,32.436
503.00,32.491
504.00,32.461
505.00,32.665
506.00,32.893
507.00,32.944
508.00,33.068
509.00,33.272
510.00,33.352
511.00,33.417
512.00,33.577
513.00,33.774
514.00,33.824
515.00,33.979
516.00,34.088
517.00,34.141
518.00,34.321
519.00,34.362
520.00,34.380
521.00,34.501
522.00,34.576
523.00,34.584
524.00,34.742
525.00,34.852
526.00,34.957
527.00,34.966
528.00,35.060
529.00,35.245
530.00,35.387
531.00,35.491
532.00,35.585
533.00,35.673
534.00,35.787
535.00,35.864
536.00,35.909
537.00,35.987
538.00,36.027
539.00,36.088
540.00,36.190
541.00,36.222
542.00,36.313
543.00,36.381
544.00,36.391
545.00,36.486
546.00,36.520
547.00,36.609
548.00,36.683
549.00,36.741
550.00,36.811
551.00,36.940
552.00,37.021
553.00,37.027
554.00,37.103
555.00,37.166
556.00,37.208
557.00,37.260
558.00,37.331
559.00,37.380
560.00,37.493
561.00,37.548
562.00,37.602
563.00,37.608
564.00,37.643
565.00,37.687
566.00,37.717
567.00,37.783
568.00,37.783
569.00,37.837
570.00,37.878
571.00,37.923
572.00,37.944
573.00,37.893
574.00,37.937
575.00,37.922
576.00,37.935
577.00,37.992
578.00,38.090
579.00,38.195
580.00,38.185
581.00,38.338
582.00,38.392
583.00,38.381
584.00,38.421
585.00,38.598
586.00,38.662
587.00,38.585
588.00,38.576
589.00,38.608
590.00,38.768
591.00,38.793
592.00,38.740
593.00,38.824
594.00,38.894
595.00,38.997
596.00,39.069
597.00,39.119
598.00,39.120
599.00,39.133
600.00,39.173
601.00,39.187
602.00,39.197
603.00,39.248
604.00,39.351
605.00,39.359
606.00,39.332
607.00,39.385
608.00,39.573
609.00,39.660
610.00,39.501
611.00,39.556
612.00,39.638
613.00,39.708
614.00,39.735
615.00,39.811
616.00,39.907
617.00,39.903
618.00,39.860
619.00,39.934
620.00,40.015
621.00,40.080
622.00,40.159
623.00,40.153
624.00,40.284
625.00,40.326
626.00,40.333
627.00,40.416
628.00,40.441
629.00,40.489
630.00,40.535
631.00,40.549
632.00,40.670
633.00,40.752
634.00,40.893
635.00,40.964
636.00,41.032
637.00,41.004
638.00,41.075
639.00,41.191
640.00,41.192
641.00,41.223
642.00,41.302
643.00,41.383
644.00,41.507
645.00,41.474
646.00,41.604
647.00,41.693
648.00,41.762
649.00,41.755
650.00,41.757
651.00,41.962
652.00,42.080
653.00,42.039
654.00,42.092
655.00,42.333
656.00,42.555
657.00,42.485
658.00,42.547
659.00,42.625
660.00,42.627
661.00,42.624
662.00,42.773
663.00,42.848
664.00,43.128
665.00,43.224
666.00,43.143
667.00,43.230
668.00,43.252
669.00,43.532
670.00,43.745
671.00,43.688
672.00,43.724
673.00,43.833
674.00,43.796
675.00,43.953
676.00,44.134
677.00,44.262
678.00,44.056
679.00,44.263
680.00,44.203
681.00,44.443
682.00,44.396
683.00,44.603
684.00,44.726
685.00,44.845
686.00,44.742
687.00,44.794
688.00,44.821
689.00,44.957
690.00,45.215
691.00,45.350
692.00,45.150
693.00,45.267
694.00,45.301
695.00,45.494
696.00,45.629
697.00,45.564
698.00,45.554
699.00,45.900
700.00,46.063
701.00,45.888
702.00,45.964
703.00,46.160
704.00,46.210
705.00,46.125
706.00,46.276
707.00,46.352
708.00,46.224
709.00,46.552
710.00,46.963
711.00,46.478
712.00,46.485
713.00,46.733
714.00,46.864
715.00,46.790
716.00,46.907
717.00,46.926
718.00,47.016
719.00,46.994
720.00,47.110
721.00,51.564
722.00,51.657
723.00,51.610
724.00,51.557
725.00,51.596
726.00,51.613
727.00,51.656
728.00,51.673
729.00,51.684
730.00,51.697
731.00,51.728
732.00,51.712
733.00,51.782
734.00,51.830
735.00,51.832
736.00,51.886
737.00,51.843
738.00,51.965
739.00,51.856
740.00,51.922
741.00,51.943
742.00,51.926
743.00,51.958
744.00,51.925
745.00,52.010
746.00,52.043
747.00,51.945
748.00,51.975
749.00,51.967
750.00,51.906
751.00,51.942
752.00,51.974
753.00,51.938
754.00,51.952
755.00,51.926
756.00,51.988
757.00,51.998
758.00,51.967
759.00,51.931
760.00,51.880
761.00,51.973
762.00,51.996
763.00,52.077
764.00,51.978
765.00,52.013
766.00,52.000
767.00,51.978
768.00,52.050
769.00,51.987
770.00,52.065
771.00,51.959
772.00,52.107
773.00,51.975
774.00,52.000
775.00,52.063
776.00,51.944
777.00,52.062
778.00,52.046
779.00,52.077
780.00,52.067
781.00,52.033
782.00,52.053
783.00,52.007
784.00,52.012
785.00,51.979
786.00,51.991
787.00,51.980
788.00,51.979
789.00,51.997
790.00,51.878
791.00,51.930
792.00,51.874
793.00,51.887
794.00,51.887
795.00,51.927
796.00,51.841
797.00,51.784
798.00,51.804
799.00,51.688
800.00,51.802
801.00,51.784
802.00,51.770
803.00,51.732
804.00,51.726
805.00,51.720
806.00,51.700
807.00,51.647
808.00,51.747
809.00,51.589
810.00,51.639
811.00,51.624
812.00,51.632
813.00,51.616
814.00,51.550
815.00,51.545
816.00,51.557
817.00,51.510
818.00,51.512
819.00,51.449
820.00,51.416
821.00,51.427
822.00,51.388
823.00,51.352
824.00,51.456
825.00,51.247
826.00,51.374
827.00,51.348
828.00,51.286
829.00,51.310
830.00,51.336
831.00,53.628
832.00,53.626
833.00,53.541
834.00,53.572
835.00,53.530
836.00,53.503
837.00,53.507
838.00,53.505
839.00,53.464
840.00,53.402
841.00,53.400
842.00,53.382
843.00,53.357
844.00,53.354
845.00,53.278
846.00,53.314
847.00,53.262
848.00,53.256
849.00,53.179
850.00,53.193
851.00,53.170
852.00,53.138
853.00,53.085
854.00,53.083
855.00,53.020
856.00,53.018
857.00,52.991
858.00,52.967
859.00,52.947
860.00,52.968
861.00,52.928
862.00,52.898
863.00,52.898
864.00,52.889
865.00,52.908
866.00,52.828
867.00,52.806
868.00,52.811
869.00,52.812
870.00,52.800
871.00,52.772
872.00,52.774
873.00,52.786
874.00,52.746
875.00,52.728
876.00,52.755
877.00,52.715
878.00,52.733
879.00,52.673
880.00,52.675
881.00,52.663
882.00,52.709
883.00,52.610
884.00,52.573
885.00,52.594
886.00,52.564
887.00,52.527
888.00,52.504
889.00,52.486
890.00,52.494
891.00,52.455
892.00,52.441
893.00,52.401
894.00,52.413
895.00,52.390
896.00,52.358
897.00,52.339
898.00,52.306
899.00,52.326
900.00,52.278
901.00,52.291
902.00,52.284
903.00,52.233
904.00,52.231
905.00,52.219
906.00,52.206
907.00,52.179
908.00,52.158
909.00,52.157
910.00,52.082
911.00,52.123
912.00,52.082
913.00,52.034
914.00,52.031
915.00,52.006
916.00,51.999
917.00,51.976
918.00,51.968
919.00,51.933
920.00,51.896
921.00,51.898
922.00,51.880
923.00,51.864
924.00,51.848
925.00,51.833
926.00,51.812
927.00,51.794
928.00,51.734
929.00,51.758
930.00,51.721
931.00,51.701
932.00,51.666
933.00,51.668
934.00,51.653
935.00,51.657
936.00,51.624
937.00,51.587
938.00,51.586
939.00,51.568
940.00,51.549
941.00,51.548
942.00,51.509
943.00,51.492
944.00,51.465
945.00,51.496
946.00,51.463
947.00,51.422
948.00,51.408
949.00,51.391
950.00,51.374
951.00,51.357
952.00,51.336
953.00,51.282
954.00,51.265
955.00,51.232
956.00,51.213
957.00,51.192
958.00,51.214
959.00,51.151
960.00,51.148
961.00,51.139
962.00,51.143
963.00,51.095
964.00,51.082
965.00,51.091
966.00,51.064
967.00,51.041
968.00,51.064
969.00,51.060
970.00,51.006
971.00,51.041
972.00,50.994
973.00,51.043
974.00,50.983
975.00,51.013
976.00,51.029
977.00,51.012
978.00,51.051
979.00,51.005
980.00,51.023
981.00,51.013
982.00,51.009
983.00,51.040
984.00,50.980
985.00,51.010
986.00,50.973
987.00,50.978
988.00,50.987
989.00,50.990
990.00,50.961
991.00,50.920
992.00,50.946
993.00,50.906
994.00,50.880
995.00,50.872
996.00,50.877
997.00,50.848
998.00,50.812
999.00,50.878
1000.00,50.815
1001.00,50.817
1002.00,50.795
1003.00,50.785
1004.00,50.770
1005.00,50.739
1006.00,50.774
1007.00,50.721
1008.00,50.729
1009.00,50.700
1010.00,50.698
1011.00,50.700
1012.00,50.675
1013.00,50.681
1014.00,50.676
1015.00,50.659
1016.00,50.608
1017.00,50.590
1018.00,50.584
1019.00,50.560
1020.00,50.549
1021.00,50.529
1022.00,50.531
1023.00,50.495
1024.00,50.480
1025.00,50.463
1026.00,50.464
1027.00,50.438
1028.00,50.427
1029.00,50.430
1030.00,50.394
1031.00,50.406
1032.00,50.369
1033.00,50.362
1034.00,50.347
1035.00,50.308
1036.00,50.274
1037.00,50.267
1038.00,50.240
1039.00,50.207
1040.00,50.208
1041.00,50.175
1042.00,50.168
1043.00,50.134
1044.00,50.190
1045.00,50.164
1046.00,50.148
1047.00,50.176
1048.00,50.205
1049.00,50.199
1050.00,50.196
1051.00,50.239
1052.00,50.236
1053.00,50.243
1054.00,50.234
1055.00,50.262
1056.00,50.265
1057.00,50.257
1058.00,50.253
1059.00,50.256
1060.00,50.259
1061.00,50.242
1062.00,50.236
1063.00,50.240
1064.00,50.238
1065.00,50.225
1066.00,50.203
1067.00,50.203
1068.00,50.217
1069.00,50.187
1070.00,50.187
1071.00,50.152
1072.00,50.179
1073.00,50.158
1074.00,50.169
1075.00,50.161
1076.00,50.130
1077.00,50.130
1078.00,50.117
1079.00,50.119
1080.00,50.115
1081.00,50.112
1082.00,50.099
1083.00,50.089
1084.00,50.090
1085.00,50.085
1086.00,50.068
1087.00,50.069
1088.00,50.061
1089.00,50.054
1090.00,50.039
1091.00,50.025
1092.00,50.022
1093.00,50.002
1094.00,49.978
1095.00,49.982
1096.00,49.965
1097.00,49.981
1098.00,49.984
1099.00,49.961
1100.00,49.972
1101.00,49.942
1102.00,49.924
1103.00,49.937
1104.00,49.931
1105.00,49.923
1106.00,49.910
1107.00,49.906
1108.00,49.894
1109.00,49.888
1110.00,49.881
1111.00,49.878
1112.00,49.855
1113.00,49.850
1114.00,49.846
1115.00,49.836
1116.00,49.827
1117.00,49.818
1118.00,49.794
1119.00,49.802
1120.00,49.792
1121.00,49.792
1122.00,49.767
1123.00,49.779
1124.00,49.777
1125.00,49.784
1126.00,49.766
1127.00,49.764
1128.00,49.758
1129.00,49.734
1130.00,49.730
1131.00,49.740
1132.00,49.715
1133.00,49.714
1134.00,49.694
1135.00,49.687
1136.00,49.724
1137.00,49.697
1138.00,49.699
1139.00,49.707
1140.00,49.686
1141.00,49.679
1142.00,49.670
1143.00,49.684
1144.00,49.652
1145.00,49.659
1146.00,49.651
1147.00,49.656
1148.00,49.644
1149.00,49.651
1150.00,49.656
1151.00,49.676
1152.00,49.652
1153.00,49.654
1154.00,49.643
1155.00,49.643
1156.00,49.636
1157.00,49.641
1158.00,49.646
1159.00,49.645
1160.00,49.622
1161.00,49.658
1162.00,49.633
1163.00,49.635
1164.00,49.665
1165.00,49.630
1166.00,49.631
1167.00,49.604
1168.00,49.644
1169.00,49.636
1170.00,49.619
1171.00,49.592
1172.00,49.600
1173.00,49.601
1174.00,49.610
1175.00,49.607
1176.00,49.617
1177.00,49.609
1178.00,49.607
1179.00,49.626
1180.00,49.622
1181.00,49.629
1182.00,49.618
1183.00,49.614
1184.00,49.616
1185.00,49.620
1186.00,49.591
1187.00,49.597
1188.00,49.597
1189.00,49.599
1190.00,49.576
1191.00,49.582
1192.00,49.600
1193.00,49.577
1194.00,49.603
1195.00,49.581
1196.00,49.623
1197.00,49.631
1198.00,49.611
1199.00,49.612
1200.00,49.610
1201.00,49.628
1202.00,49.610
1203.00,49.599
1204.00,49.589
1205.00,49.620
1206.00,49.615
1207.00,49.619
1208.00,49.608
1209.00,49.627
1210.00,49.615
1211.00,49.599
1212.00,49.638
1213.00,49.596
1214.00,49.618
1215.00,49.603
1216.00,49.615
1217.00,49.621
1218.00,49.610
1219.00,49.631
1220.00,49.623
1221.00,49.645
1222.00,49.615
1223.00,49.638
1224.00,49.650
1225.00,49.621
1226.00,49.625
1227.00,49.629
1228.00,49.642
1229.00,49.643
1230.00,49.673
1231.00,49.662
1232.00,49.691
1233.00,49.682
1234.00,49.682
1235.00,49.689
1236.00,49.691
1237.00,49.687
1238.00,49.682
1239.00,49.698
1240.00,49.690
1241.00,49.712
1242.00,49.702
1243.00,49.726
1244.00,49.694
1245.00,49.726
1246.00,49.739
1247.00,49.720
1248.00,49.721
1249.00,49.732
1250.00,49.753
1251.00,49.729
1252.00,49.741
1253.00,49.734
1254.00,49.765
1255.00,49.760
1256.00,49.734
1257.00,49.744
1258.00,49.811
1259.00,49.764
1260.00,49.803
1261.00,49.793
1262.00,49.798
1263.00,49.790
1264.00,49.792
1265.00,49.791
1266.00,49.778
1267.00,49.804
1268.00,49.818
1269.00,49.811
1270.00,49.837
1271.00,49.847
1272.00,49.848
1273.00,49.891
1274.00,49.869
1275.00,49.847
1276.00,49.849
1277.00,49.852
1278.00,49.856
1279.00,49.873
1280.00,49.875
1281.00,49.903
1282.00,49.903
1283.00,49.911
1284.00,49.919
1285.00,49.908
1286.00,49.925
1287.00,49.936
1288.00,49.927
1289.00,49.907
1290.00,49.958
1291.00,49.946
1292.00,49.945
1293.00,49.947
1294.00,49.978
1295.00,49.989
1296.00,49.973
1297.00,49.968
1298.00,50.001
1299.00,49.970
1300.00,49.992
1301.00,50.008
1302.00,50.023
1303.00,50.021
1304.00,50.032
1305.00,50.052
1306.00,50.053
1307.00,50.068
1308.00,50.063
1309.00,50.084
1310.00,50.075
1311.00,50.070
1312.00,50.080
1313.00,50.078
1314.00,50.093
1315.00,50.107
1316.00,50.100
1317.00,50.120
1318.00,50.124
1319.00,50.139
1320.00,50.158
1321.00,50.330
1322.00,50.308
1323.00,50.309
1324.00,50.296
1325.00,50.280
1326.00,50.318
1327.00,50.305
1328.00,50.284
1329.00,50.310
1330.00,50.308
1331.00,50.298
1332.00,50.317
1333.00,50.319
1334.00,50.350
1335.00,50.374
1336.00,50.400
1337.00,50.458
1338.00,50.514
1339.00,50.539
1340.00,50.619
1341.00,50.682
1342.00,50.729
1343.00,50.774
1344.00,50.829
1345.00,50.860
1346.00,50.897
1347.00,50.910
1348.00,50.955
1349.00,50.966
1350.00,50.974
1351.00,51.018
1352.00,51.041
1353.00,51.000
1354.00,51.032
1355.00,50.981
1356.00,51.046
1357.00,51.042
1358.00,51.097
1359.00,51.088
1360.00,51.023
1361.00,51.024
1362.00,51.042
1363.00,50.827
1364.00,50.974
1365.00,51.079
1366.00,51.114
1367.00,51.034
1368.00,51.123
1369.00,51.099
1370.00,51.112
1371.00,51.067
1372.00,51.081
1373.00,51.088
1374.00,51.115
1375.00,51.081
1376.00,51.080
1377.00,51.143
1378.00,51.197
1379.00,51.084
1380.00,51.104
1381.00,51.087
1382.00,51.022
1383.00,51.098
1384.00,51.061
1385.00,51.079
1386.00,51.099
1387.00,51.041
1388.00,51.050
1389.00,51.062
1390.00,51.055
1391.00,51.077
1392.00,51.076
1393.00,51.122
1394.00,51.110
1395.00,51.012
1396.00,51.052
1397.00,51.115
1398.00,51.172
1399.00,51.082
1400.00,51.222
1401.00,51.077
1402.00,51.266
1403.00,51.278
1404.00,51.121
1405.00,51.118
1406.00,51.161
1407.00,51.133
1408.00,51.151
1409.00,51.160
1410.00,51.185
1411.00,51.140
1412.00,51.243
1413.00,51.136
1414.00,51.169
1415.00,51.207
1416.00,51.214
1417.00,51.256
1418.00,51.239
1419.00,51.239
1420.00,51.257
1421.00,51.297
1422.00,51.298
1423.00,51.307
1424.00,51.331
1425.00,51.347
1426.00,51.366
1427.00,51.374
1428.00,51.388
1429.00,51.402
1430.00,51.406
1431.00,51.443
1432.00,51.438
1433.00,51.458
1434.00,51.446
1435.00,51.475
1436.00,51.523
1437.00,51.518
1438.00,51.536
1439.00,51.589
1440.00,51.591
1441.00,51.585
1442.00,51.614
1443.00,51.623
1444.00,51.683
1445.00,51.671
1446.00,51.682
1447.00,51.728
1448.00,51.771
1449.00,51.734
1450.00,51.749
1451.00,51.757
1452.00,51.777
1453.00,51.802
1454.00,51.809
1455.00,51.830
1456.00,51.868
1457.00,51.847
1458.00,51.898
1459.00,51.904
1460.00,51.934
1461.00,51.926
1462.00,51.980
1463.00,51.964
1464.00,51.990
1465.00,51.998
1466.00,52.006
1467.00,52.058
1468.00,52.121
1469.00,52.103
1470.00,52.138
1471.00,52.116
1472.00,52.123
1473.00,52.149
1474.00,52.159
1475.00,52.187
1476.00,52.192
1477.00,52.171
1478.00,52.219
1479.00,52.215
1480.00,52.248
1481.00,52.252
1482.00,52.258
1483.00,52.288
1484.00,52.296
1485.00,52.297
1486.00,52.331
1487.00,52.354
1488.00,52.379
1489.00,52.377
1490.00,52.394
1491.00,52.422
1492.00,52.445
1493.00,52.415
1494.00,52.458
1495.00,52.439
1496.00,52.466
1497.00,52.464
1498.00,52.473
1499.00,52.497
1500.00,52.515
1501.00, 
1502.00, 
1503.00, 
1504.00, 
1505.00, 
1506.00, 
1507.00, 
1508.00, 
1509.00, 
1510.00, 
1511.00, 
1512.00, 
1513.00, 
1514.00, 
1515.00, 
1516.00, 
1517.00, 
1518.00, 
1519.00, 
1520.00, 
1521.00, 
1522.00, 
1523.00, 
1524.00, 
1525.00, 
1526.00, 
1527.00, 
1528.00, 
1529.00, 
1530.00, 
1531.00, 
1532.00, 
1533.00, 
1534.00, 
1535.00, 
1536.00, 
1537.00, 
1538.00, 
1539.00, 
1540.00, 
1541.00, 
1542.00, 
1543.00, 
1544.00, 
1545.00, 
1546.00, 
1547.00, 
1548.00, 
1549.00, 
1550.00, 
1551.00, 
1552.00, 
1553.00, 
1554.00, 
1555.00, 
1556.00, 
1557.00, 
1558.00, 
1559.00, 
1560.00, 
1561.00, 
1562.00, 
1563.00, 
1564.00, 
1565.00, 
1566.00, 
1567.00, 
1568.00, 
1569.00, 
1570.00, 
1571.00, 
1572.00, 
1573.00, 
1574.00, 
1575.00, 
1576.00, 
1577.00, 
1578.00, 
1579.00, 
1580.00, 
1581.00, 
1582.00, 
1583.00, 
1584.00, 
1585.00, 
1586.00, 
1587.00, 
1588.00, 
1589.00, 
1590.00, 
1591.00, 
1592.00, 
1593.00, 
1594.00, 
1595.00, 
1596.00, 
1597.00, 
1598.00, 
1599.00, 
1600.00, 
1601.00, 
1602.00, 
1603.00, 
1604.00, 
1605.00, 
1606.00, 
1607.00, 
1608.00, 
1609.00, 
1610.00, 
1611.00, 
1612.00, 
1613.00, 
1614.00, 
1615.00, 
1616.00, 
1617.00, 
1618.00, 
1619.00, 
1620.00, 
1621.00, 
1622.00, 
1623.00, 
1624.00, 
1625.00, 
1626.00, 
1627.00, 
1628.00, 
1629.00, 
1630.00, 
1631.00, 
1632.00, 
1633.00, 
1634.00, 
1635.00, 
1636.00, 
1637.00, 
1638.00, 
1639.00, 
1640.00, 
1641.00, 
1642.00, 
1643.00, 
1644.00, 
1645.00, 
1646.00, 
1647.00, 
1648.00, 
1649.00, 
1650.00, 
1651.00, 
1652.00, 
1653.00, 
1654.00, 
1655.00, 
1656.00, 
1657.00, 
1658.00, 
1659.00, 
1660.00, 
1661.00, 
1662.00, 
1663.00, 
1664.00, 
1665.00, 
1666.00, 
1667.00, 
1668.00, 
1669.00, 
1670.00, 
1671.00, 
1672.00, 
1673.00, 
1674.00, 
1675.00, 
1676.00, 
1677.00, 
1678.00, 
1679.00, 
1680.00, 
1681.00, 
1682.00, 
1683.00, 
1684.00, 
1685.00, 
1686.00, 
1687.00, 
1688.00, 
1689.00, 
1690.00, 
1691.00, 
1692.00, 
1693.00, 
1694.00, 
1695.00, 
1696.00, 
1697.00, 
1698.00, 
1699.00, 
1700.00, 
1701.00, 
1702.00, 
1703.00, 
1704.00, 
1705.00, 
1706.00, 
1707.00, 
1708.00, 
1709.00, 
1710.00, 
1711.00, 
1712.00, 
1713.00, 
1714.00, 
1715.00, 
1716.00, 
1717.00, 
1718.00, 
1719.00, 
1720.00, 
1721.00, 
1722.00, 
1723.00, 
1724.00, 
1725.00, 
1726.00, 
1727.00, 
1728.00, 
1729.00, 
1730.00, 
1731.00, 
1732.00, 
1733.00, 
1734.00, 
1735.00, 
1736.00, 
1737.00, 
1738.00, 
1739.00, 
1740.00, 
1741.00, 
1742.00, 
1743.00, 
1744.00, 
1745.00, 
1746.00, 
1747.00, 
1748.00, 
1749.00, 
1750.00, 
1751.00, 
1752.00, 
1753.00, 
1754.00, 
1755.00, 
1756.00, 
1757.00, 
1758.00, 
1759.00, 
1760.00, 
1761.00, 
1762.00, 
1763.00, 
1764.00, 
1765.00, 
1766.00, 
1767.00, 
1768.00, 
1769.00, 
1770.00, 
1771.00, 
1772.00, 
1773.00, 
1774.00, 
1775.00, 
1776.00, 
1777.00, 
1778.00, 
1779.00, 
1780.00, 
1781.00, 
1782.00, 
1783.00, 
1784.00, 
1785.00, 
1786.00, 
1787.00, 
1788.00, 
1789.00, 
1790.00, 
1791.00, 
1792.00, 
1793.00, 
1794.00, 
1795.00, 
1796.00, 
1797.00, 
1798.00, 
1799.00, 
1800.00, 
1801.00, 
1802.00, 
1803.00, 
1804.00, 
1805.00, 
1806.00, 
1807.00, 
1808.00, 
1809.00, 
1810.00, 
1811.00, 
1812.00, 
1813.00, 
1814.00, 
1815.00, 
1816.00, 
1817.00, 
1818.00, 
1819.00, 
1820.00, 
1821.00, 
1822.00, 
1823.00, 
1824.00, 
1825.00, 
1826.00, 
1827.00, 
1828.00, 
1829.00, 
1830.00, 
1831.00, 
1832.00, 
1833.00, 
1834.00, 
1835.00, 
1836.00, 
1837.00, 
1838.00, 
1839.00, 
1840.00, 
1841.00, 
1842.00, 
1843.00, 
1844.00, 
1845.00, 
1846.00, 
1847.00, 
1848.00, 
1849.00, 
1850.00, 
1851.00, 
1852.00, 
1853.00, 
1854.00, 
1855.00, 
1856.00, 
1857.00, 
1858.00, 
1859.00, 
1860.00, 
1861.00, 
1862.00, 
1863.00, 
1864.00, 
1865.00, 
1866.00, 
1867.00, 
1868.00, 
1869.00, 
1870.00, 
1871.00, 
1872.00, 
1873.00, 
1874.00, 
1875.00, 
1876.00, 
1877.00, 
1878.00, 
1879.00, 
1880.00, 
1881.00, 
1882.00, 
1883.00, 
1884.00, 
1885.00, 
1886.00, 
1887.00, 
1888.00, 
1889.00, 
1890.00, 
1891.00, 
1892.00, 
1893.00, 
1894.00, 
1895.00, 
1896.00, 
1897.00, 
1898.00, 
1899.00, 
1900.00, 
1901.00, 
1902.00, 
1903.00, 
1904.00, 
1905.00, 
1906.00, 
1907.00, 
1908.00, 
1909.00, 
1910.00, 
1911.00, 
1912.00, 
1913.00, 
1914.00, 
1915.00, 
1916.00, 
1917.00, 
1918.00, 
1919.00, 
1920.00, 
1921.00, 
1922.00, 
1923.00, 
1924.00, 
1925.00, 
1926.00, 
1927.00, 
1928.00, 
1929.00, 
1930.00, 
1931.00, 
1932.00, 
1933.00, 
1934.00, 
1935.00, 
1936.00, 
1937.00, 
1938.00, 
1939.00, 
1940.00, 
1941.00, 
1942.00, 
1943.00, 
1944.00, 
1945.00, 
1946.00, 
1947.00, 
1948.00, 
1949.00, 
1950.00, 
1951.00, 
1952.00, 
1953.00, 
1954.00, 
1955.00, 
1956.00, 
1957.00, 
1958.00, 
1959.00, 
1960.00, 
1961.00, 
1962.00, 
1963.00, 
1964.00, 
1965.00, 
1966.00, 
1967.00, 
1968.00, 
1969.00, 
1970.00, 
1971.00, 
1972.00, 
1973.00, 
1974.00, 
1975.00, 
1976.00, 
1977.00, 
1978.00, 
1979.00, 
1980.00, 
1981.00, 
1982.00, 
1983.00, 
1984.00, 
1985.00, 
1986.00, 
1987.00, 
1988.00, 
1989.00, 
1990.00, 
1991.00, 
1992.00, 
1993.00, 
1994.00, 
1995.00, 
1996.00, 
1997.00, 
1998.00, 
1999.00, 
2000.00, 
2001.00, 
2002.00, 
2003.00, 
2004.00, 
2005.00, 
2006.00, 
2007.00, 
2008.00, 
2009.00, 
2010.00, 
2011.00, 
2012.00, 
2013.00, 
2014.00, 
2015.00, 
2016.00, 
2017.00, 
2018.00, 
2019.00, 
2020.00, 
2021.00, 
2022.00, 
2023.00, 
2024.00, 
2025.00, 
2026.00, 
2027.00, 
2028.00, 
2029.00, 
2030.00, 
2031.00, 
2032.00, 
2033.00, 
2034.00, 
2035.00, 
2036.00, 
2037.00, 
2038.00, 
2039.00, 
2040.00, 
2041.00, 
2042.00, 
2043.00, 
2044.00, 
2045.00, 
2046.00, 
2047.00, 
2048.00, 
2049.00, 
2050.00, 
2051.00, 
2052.00, 
2053.00, 
2054.00, 
2055.00, 
2056.00, 
2057.00, 
2058.00, 
2059.00, 
2060.00, 
2061.00, 
2062.00, 
2063.00, 
2064.00, 
2065.00, 
2066.00, 
2067.00, 
2068.00, 
2069.00, 
2070.00, 
2071.00, 
2072.00, 
2073.00, 
2074.00, 
2075.00, 
2076.00, 
2077.00, 
2078.00, 
2079.00, 
2080.00, 
2081.00, 
2082.00, 
2083.00, 
2084.00, 
2085.00, 
2086.00, 
2087.00, 
2088.00, 
2089.00, 
2090.00, 
2091.00, 
2092.00, 
2093.00, 
2094.00, 
2095.00, 
2096.00, 
2097.00, 
2098.00, 
2099.00, 
2100.00, 
2101.00, 
2102.00, 
2103.00, 
2104.00, 
2105.00, 
2106.00, 
2107.00, 
2108.00, 
2109.00, 
2110.00, 
2111.00, 
2112.00, 
2113.00, 
2114.00, 
2115.00, 
2116.00, 
2117.00, 
2118.00, 
2119.00, 
2120.00, 
2121.00, 
2122.00, 
2123.00, 
2124.00, 
2125.00, 
2126.00, 
2127.00, 
2128.00, 
2129.00, 
2130.00, 
2131.00, 
2132.00, 
2133.00, 
2134.00, 
2135.00, 
2136.00, 
2137.00, 
2138.00, 
2139.00, 
2140.00, 
2141.00, 
2142.00, 
2143.00, 
2144.00, 
2145.00, 
2146.00, 
2147.00, 
2148.00, 
2149.00, 
2150.00, 
2151.00, 
2152.00, 
2153.00, 
2154.00, 
2155.00, 
2156.00, 
2157.00, 
2158.00, 
2159.00, 
2160.00, 
2161.00, 
2162.00, 
2163.00, 
2164.00, 
2165.00, 
2166.00, 
2167.00, 
2168.00, 
2169.00, 
2170.00, 
2171.00, 
2172.00, 
2173.00, 
2174.00, 
2175.00, 
2176.00, 
2177.00, 
2178.00, 
2179.00, 
2180.00, 
2181.00, 
2182.00, 
2183.00, 
2184.00, 
2185.00, 
2186.00, 
2187.00, 
2188.00, 
2189.00, 
2190.00, 
2191.00, 
2192.00, 
2193.00, 
2194.00, 
2195.00, 
2196.00, 
2197.00, 
2198.00, 
2199.00, 
2200.00, 
2201.00, 
2202.00, 
2203.00, 
2204.00, 
2205.00, 
2206.00, 
2207.00, 
2208.00, 
2209.00, 
2210.00, 
2211.00, 
2212.00, 
2213.00, 
2214.00, 
2215.00, 
2216.00, 
2217.00, 
2218.00, 
2219.00, 
2220.00, 
2221.00, 
2222.00, 
2223.00, 
2224.00, 
2225.00, 
2226.00, 
2227.00, 
2228.00, 
2229.00, 
2230.00, 
2231.00, 
2232.00, 
2233.00, 
2234.00, 
2235.00, 
2236.00, 
2237.00, 
2238.00, 
2239.00, 
2240.00, 
2241.00, 
2242.00, 
2243.00, 
2244.00, 
2245.00, 
2246.00, 
2247.00, 
2248.00, 
2249.00, 
2250.00, 
2251.00, 
2252.00, 
2253.00, 
2254.00, 
2255.00, 
2256.00, 
2257.00, 
2258.00, 
2259.00, 
2260.00, 
2261.00, 
2262.00, 
2263.00, 
2264.00, 
2265.00, 
2266.00, 
2267.00, 
2268.00, 
2269.00, 
2270.00, 
2271.00, 
2272.00, 
2273.00, 
2274.00, 
2275.00, 
2276.00, 
2277.00, 
2278.00, 
2279.00, 
2280.00, 
2281.00, 
2282.00, 
2283.00, 
2284.00, 
2285.00, 
2286.00, 
2287.00, 
2288.00, 
2289.00, 
2290.00, 
2291.00, 
2292.00, 
2293.00, 
2294.00, 
2295.00, 
2296.00, 
2297.00, 
2298.00, 
2299.00, 
2300.00, 
2301.00, 
2302.00, 
2303.00, 
2304.00, 
2305.00, 
2306.00, 
2307.00, 
2308.00, 
2309.00, 
2310.00, 
2311.00, 
2312.00, 
2313.00, 
2314.00, 
2315.00, 
2316.00, 
2317.00, 
2318.00, 
2319.00, 
2320.00, 
2321.00, 
2322.00, 
2323.00, 
2324.00, 
2325.00, 
2326.00, 
2327.00, 
2328.00, 
2329.00, 
2330.00, 
2331.00, 
2332.00, 
2333.00, 
2334.00, 
2335.00, 
2336.00, 
2337.00, 
2338.00, 
2339.00, 
2340.00, 
2341.00, 
2342.00, 
2343.00, 
2344.00, 
2345.00, 
2346.00, 
2347.00, 
2348.00, 
2349.00, 
2350.00, 
2351.00, 
2352.00, 
2353.00, 
2354.00, 
2355.00, 
2356.00, 
2357.00, 
2358.00, 
2359.00, 
2360.00, 
2361.00, 
2362.00, 
2363.00, 
2364.00, 
2365.00, 
2366.00, 
2367.00, 
2368.00, 
2369.00, 
2370.00, 
2371.00, 
2372.00, 
2373.00, 
2374.00, 
2375.00, 
2376.00, 
2377.00, 
2378.00, 
2379.00, 
2380.00, 
2381.00, 
2382.00, 
2383.00, 
2384.00, 
2385.00, 
2386.00, 
2387.00, 
2388.00, 
2389.00, 
2390.00, 
2391.00, 
2392.00, 
2393.00, 
2394.00, 
2395.00, 
2396.00, 
2397.00, 
2398.00, 
2399.00, 
2400.00, 
2401.00, 
2402.00, 
2403.00, 
2404.00, 
2405.00, 
2406.00, 
2407.00, 
2408.00, 
2409.00, 
2410.00, 
2411.00, 
2412.00, 
2413.00, 
2414.00, 
2415.00, 
2416.00, 
2417.00, 
2418.00, 
2419.00, 
2420.00, 
2421.00, 
2422.00, 
2423.00, 
2424.00, 
2425.00, 
2426.00, 
2427.00, 
2428.00, 
2429.00, 
2430.00, 
2431.00, 
2432.00, 
2433.00, 
2434.00, 
2435.00, 
2436.00, 
2437.00, 
2438.00, 
2439.00, 
2440.00, 
2441.00, 
2442.00, 
2443.00, 
2444.00, 
2445.00, 
2446.00, 
2447.00, 
2448.00, 
2449.00, 
2450.00, 
2451.00, 
2452.00, 
2453.00, 
2454.00, 
2455.00, 
2456.00, 
2457.00, 
2458.00, 
2459.00, 
2460.00, 
2461.00, 
2462.00, 
2463.00, 
2464.00, 
2465.00, 
2466.00, 
2467.00, 
2468.00, 
2469.00, 
2470.00, 
2471.00, 
2472.00, 
2473.00, 
2474.00, 
2475.00, 
2476.00, 
2477.00, 
2478.00, 
2479.00, 
2480.00, 
2481.00, 
2482.00, 
2483.00, 
2484.00, 
2485.00, 
2486.00, 
2487.00, 
2488.00, 
2489.00, 
2490.00, 
2491.00, 
2492.00, 
2493.00, 
2494.00, 
2495.00, 
2496.00, 
2497.00, 
2498.00, 
2499.00, 
2500.00, 
2501.00, 
2502.00, 
2503.00, 
2504.00, 
2505.00, 
2506.00, 
2507.00, 
2508.00, 
2509.00, 
2510.00, 
2511.00, 
2512.00, 
2513.00, 
2514.00, 
2515.00, 
2516.00, 
2517.00, 
2518.00, 
2519.00, 
2520.00, 
2521.00, 
2522.00, 
2523.00, 
2524.00, 
2525.00, 
2526.00, 
2527.00, 
2528.00, 
2529.00, 
2530.00, 
2531.00, 
2532.00, 
2533.00, 
2534.00, 
2535.00, 
2536.00, 
2537.00, 
2538.00, 
2539.00, 
2540.00, 
2541.00, 
2542.00, 
2543.00, 
2544.00, 
2545.00, 
2546.00, 
2547.00, 
2548.00, 
2549.00, 
2550.00, 
2551.00, 
2552.00, 
2553.00, 
2554.00, 
2555.00, 
2556.00, 
2557.00, 
2558.00, 
2559.00, 
2560.00, 
2561.00, 
2562.00, 
2563.00, 
2564.00, 
2565.00, 
2566.00, 
2567.00, 
2568.00, 
2569.00, 
2570.00, 
2571.00, 
2572.00, 
2573.00, 
2574.00, 
2575.00, 
2576.00, 
2577.00, 
2578.00, 
2579.00, 
2580.00, 
2581.00, 
2582.00, 
2583.00, 
2584.00, 
2585.00, 
2586.00, 
2587.00, 
2588.00, 
2589.00, 
2590.00, 
2591.00, 
2592.00, 
2593.00, 
2594.00, 
2595.00, 
2596.00, 
2597.00, 
2598.00, 
2599.00, 
2600.00, 
