"1cP5 - RawData"
"Wavelength nm.","T%"
200.00,0.002
201.00,0.001
202.00,0.002
203.00,-0.000
204.00,-0.003
205.00,0.002
206.00,0.001
207.00,0.000
208.00,0.003
209.00,0.002
210.00,0.001
211.00,0.001
212.00,0.002
213.00,0.001
214.00,-0.000
215.00,-0.000
216.00,0.002
217.00,0.002
218.00,0.003
219.00,0.000
220.00,-0.001
221.00,-0.000
222.00,0.002
223.00,-0.001
224.00,-0.000
225.00,0.002
226.00,0.004
227.00,0.001
228.00,0.001
229.00,0.000
230.00,-0.000
231.00,0.002
232.00,0.003
233.00,-0.000
234.00,-0.000
235.00,0.002
236.00,0.001
237.00,0.002
238.00,-0.001
239.00,-0.001
240.00,0.000
241.00,0.001
242.00,-0.001
243.00,0.000
244.00,-0.001
245.00,0.002
246.00,0.001
247.00,0.001
248.00,-0.000
249.00,0.000
250.00,0.001
251.00,0.001
252.00,-0.000
253.00,-0.001
254.00,0.002
255.00,-0.001
256.00,0.000
257.00,0.000
258.00,0.000
259.00,0.001
260.00,0.000
261.00,0.000
262.00,-0.002
263.00,-0.000
264.00,-0.001
265.00,-0.001
266.00,0.001
267.00,-0.000
268.00,-0.002
269.00,-0.001
270.00,-0.000
271.00,-0.001
272.00,0.001
273.00,0.000
274.00,-0.001
275.00,0.002
276.00,0.000
277.00,-0.000
278.00,-0.000
279.00,0.001
280.00,-0.001
281.00,0.001
282.00,0.000
283.00,-0.000
284.00,0.000
285.00,0.001
286.00,0.000
287.00,0.000
288.00,0.002
289.00,-0.000
290.00,0.002
291.00,-0.000
292.00,0.000
293.00,0.001
294.00,0.000
295.00,-0.000
296.00,0.001
297.00,0.000
298.00,-0.001
299.00,0.001
300.00,0.001
301.00,0.001
302.00,0.000
303.00,0.001
304.00,0.000
305.00,0.001
306.00,0.001
307.00,0.002
308.00,0.006
309.00,0.010
310.00,0.018
311.00,0.027
312.00,0.041
313.00,0.068
314.00,0.098
315.00,0.135
316.00,0.199
317.00,0.283
318.00,0.387
319.00,0.530
320.00,0.701
321.00,0.914
322.00,1.162
323.00,1.467
324.00,1.797
325.00,2.157
326.00,2.568
327.00,3.051
328.00,3.576
329.00,4.122
330.00,4.710
331.00,5.331
332.00,5.960
333.00,6.679
334.00,7.305
335.00,8.067
336.00,8.749
337.00,9.539
338.00,10.288
339.00,10.983
340.00,11.710
341.00,12.404
342.00,13.082
343.00,13.704
344.00,14.350
345.00,15.024
346.00,15.562
347.00,16.094
348.00,16.635
349.00,17.116
350.00,17.615
351.00,18.023
352.00,18.426
353.00,18.823
354.00,19.208
355.00,19.552
356.00,19.836
357.00,20.114
358.00,20.437
359.00,20.751
360.00,20.994
361.00,21.143
362.00,21.370
363.00,21.558
364.00,21.633
365.00,21.771
366.00,21.892
367.00,21.993
368.00,22.100
369.00,22.141
370.00,22.147
371.00,22.163
372.00,22.156
373.00,22.145
374.00,22.113
375.00,22.119
376.00,22.052
377.00,21.943
378.00,21.854
379.00,21.743
380.00,21.725
381.00,21.713
382.00,21.743
383.00,21.754
384.00,21.792
385.00,21.872
386.00,21.857
387.00,21.991
388.00,22.069
389.00,22.088
390.00,22.182
391.00,22.190
392.00,22.274
393.00,22.264
394.00,22.310
395.00,22.340
396.00,22.331
397.00,22.357
398.00,22.379
399.00,22.344
400.00,22.331
401.00,22.373
402.00,22.341
403.00,22.354
404.00,22.351
405.00,22.260
406.00,22.303
407.00,22.210
408.00,22.261
409.00,22.203
410.00,22.144
411.00,22.180
412.00,22.096
413.00,22.139
414.00,22.094
415.00,22.105
416.00,22.134
417.00,22.097
418.00,22.143
419.00,22.255
420.00,22.278
421.00,22.292
422.00,22.292
423.00,22.327
424.00,22.387
425.00,22.412
426.00,22.413
427.00,22.504
428.00,22.510
429.00,22.565
430.00,22.612
431.00,22.690
432.00,22.727
433.00,22.763
434.00,22.810
435.00,22.887
436.00,22.926
437.00,23.035
438.00,23.095
439.00,23.129
440.00,23.233
441.00,23.287
442.00,23.415
443.00,23.461
444.00,23.582
445.00,23.631
446.00,23.753
447.00,23.828
448.00,23.932
449.00,24.057
450.00,24.151
451.00,24.250
452.00,24.351
453.00,24.452
454.00,24.559
455.00,24.676
456.00,24.812
457.00,24.911
458.00,24.994
459.00,25.172
460.00,25.262
461.00,25.481
462.00,25.551
463.00,25.658
464.00,25.743
465.00,26.019
466.00,26.014
467.00,26.264
468.00,26.357
469.00,26.466
470.00,26.558
471.00,26.659
472.00,26.799
473.00,26.869
474.00,26.970
475.00,27.087
476.00,27.202
477.00,27.342
478.00,27.448
479.00,27.642
480.00,27.761
481.00,27.872
482.00,28.025
483.00,28.176
484.00,28.377
485.00,28.512
486.00,28.683
487.00,28.835
488.00,28.959
489.00,29.108
490.00,29.273
491.00,29.403
492.00,29.648
493.00,29.778
494.00,29.749
495.00,29.935
496.00,30.065
497.00,30.126
498.00,30.281
499.00,30.475
500.00,30.602
501.00,30.657
502.00,30.857
503.00,30.968
504.00,31.002
505.00,31.122
506.00,31.287
507.00,31.369
508.00,31.490
509.00,31.696
510.00,31.789
511.00,31.877
512.00,32.062
513.00,32.213
514.00,32.288
515.00,32.465
516.00,32.560
517.00,32.678
518.00,32.854
519.00,32.867
520.00,32.922
521.00,32.992
522.00,33.131
523.00,33.135
524.00,33.248
525.00,33.398
526.00,33.504
527.00,33.530
528.00,33.657
529.00,33.830
530.00,33.938
531.00,34.075
532.00,34.174
533.00,34.221
534.00,34.296
535.00,34.423
536.00,34.461
537.00,34.570
538.00,34.642
539.00,34.712
540.00,34.775
541.00,34.818
542.00,34.915
543.00,35.011
544.00,35.022
545.00,35.081
546.00,35.150
547.00,35.274
548.00,35.314
549.00,35.423
550.00,35.449
551.00,35.589
552.00,35.649
553.00,35.682
554.00,35.752
555.00,35.811
556.00,35.884
557.00,35.957
558.00,36.014
559.00,36.051
560.00,36.122
561.00,36.185
562.00,36.228
563.00,36.288
564.00,36.358
565.00,36.391
566.00,36.399
567.00,36.422
568.00,36.454
569.00,36.509
570.00,36.542
571.00,36.618
572.00,36.627
573.00,36.555
574.00,36.606
575.00,36.612
576.00,36.643
577.00,36.660
578.00,36.799
579.00,36.888
580.00,36.874
581.00,37.045
582.00,37.098
583.00,37.046
584.00,37.191
585.00,37.259
586.00,37.281
587.00,37.320
588.00,37.306
589.00,37.251
590.00,37.415
591.00,37.473
592.00,37.390
593.00,37.524
594.00,37.509
595.00,37.506
596.00,37.684
597.00,37.696
598.00,37.845
599.00,37.825
600.00,37.853
601.00,37.879
602.00,37.813
603.00,37.887
604.00,37.939
605.00,38.018
606.00,38.037
607.00,38.089
608.00,38.236
609.00,38.312
610.00,38.117
611.00,38.224
612.00,38.295
613.00,38.344
614.00,38.398
615.00,38.453
616.00,38.575
617.00,38.488
618.00,38.482
619.00,38.588
620.00,38.649
621.00,38.750
622.00,38.887
623.00,38.868
624.00,38.954
625.00,39.020
626.00,39.019
627.00,39.062
628.00,39.090
629.00,39.141
630.00,39.142
631.00,39.208
632.00,39.362
633.00,39.373
634.00,39.470
635.00,39.554
636.00,39.479
637.00,39.528
638.00,39.766
639.00,39.941
640.00,39.869
641.00,39.929
642.00,40.005
643.00,40.031
644.00,40.193
645.00,40.171
646.00,40.322
647.00,40.418
648.00,40.458
649.00,40.478
650.00,40.457
651.00,40.663
652.00,40.757
653.00,40.755
654.00,40.791
655.00,41.028
656.00,41.287
657.00,41.230
658.00,41.263
659.00,41.371
660.00,41.413
661.00,41.333
662.00,41.491
663.00,41.553
664.00,41.835
665.00,41.995
666.00,42.004
667.00,42.048
668.00,41.937
669.00,42.247
670.00,42.557
671.00,42.426
672.00,42.585
673.00,42.641
674.00,42.681
675.00,42.684
676.00,42.901
677.00,43.110
678.00,42.945
679.00,43.135
680.00,43.194
681.00,43.368
682.00,43.391
683.00,43.423
684.00,43.532
685.00,43.705
686.00,43.642
687.00,43.711
688.00,43.808
689.00,43.794
690.00,44.061
691.00,44.338
692.00,44.093
693.00,44.139
694.00,44.408
695.00,44.511
696.00,44.591
697.00,44.519
698.00,44.581
699.00,44.800
700.00,45.065
701.00,44.951
702.00,45.058
703.00,45.208
704.00,45.241
705.00,45.140
706.00,45.192
707.00,45.317
708.00,45.264
709.00,45.594
710.00,45.997
711.00,45.634
712.00,45.634
713.00,45.903
714.00,45.960
715.00,45.942
716.00,46.015
717.00,46.140
718.00,46.327
719.00,46.172
720.00,46.200
721.00,50.729
722.00,50.767
723.00,50.720
724.00,50.774
725.00,50.775
726.00,50.788
727.00,50.788
728.00,50.855
729.00,50.847
730.00,50.796
731.00,50.871
732.00,50.959
733.00,50.999
734.00,51.048
735.00,51.083
736.00,51.139
737.00,51.088
738.00,51.238
739.00,51.121
740.00,51.210
741.00,51.282
742.00,51.305
743.00,51.311
744.00,51.251
745.00,51.309
746.00,51.407
747.00,51.362
748.00,51.350
749.00,51.338
750.00,51.310
751.00,51.294
752.00,51.372
753.00,51.329
754.00,51.382
755.00,51.346
756.00,51.392
757.00,51.355
758.00,51.396
759.00,51.391
760.00,51.344
761.00,51.391
762.00,51.393
763.00,51.560
764.00,51.423
765.00,51.453
766.00,51.491
767.00,51.508
768.00,51.478
769.00,51.514
770.00,51.588
771.00,51.434
772.00,51.534
773.00,51.525
774.00,51.552
775.00,51.557
776.00,51.490
777.00,51.619
778.00,51.591
779.00,51.642
780.00,51.554
781.00,51.588
782.00,51.583
783.00,51.562
784.00,51.566
785.00,51.492
786.00,51.566
787.00,51.561
788.00,51.550
789.00,51.491
790.00,51.398
791.00,51.486
792.00,51.466
793.00,51.443
794.00,51.453
795.00,51.481
796.00,51.433
797.00,51.285
798.00,51.350
799.00,51.323
800.00,51.328
801.00,51.349
802.00,51.340
803.00,51.340
804.00,51.344
805.00,51.323
806.00,51.280
807.00,51.229
808.00,51.376
809.00,51.269
810.00,51.206
811.00,51.233
812.00,51.238
813.00,51.165
814.00,51.218
815.00,51.191
816.00,51.225
817.00,51.123
818.00,51.104
819.00,51.092
820.00,51.051
821.00,51.043
822.00,51.095
823.00,51.042
824.00,51.077
825.00,50.876
826.00,50.978
827.00,51.015
828.00,51.001
829.00,50.983
830.00,51.046
831.00,53.344
832.00,53.323
833.00,53.259
834.00,53.260
835.00,53.251
836.00,53.236
837.00,53.210
838.00,53.181
839.00,53.185
840.00,53.138
841.00,53.137
842.00,53.089
843.00,53.176
844.00,53.095
845.00,53.055
846.00,53.053
847.00,53.036
848.00,53.019
849.00,52.952
850.00,52.978
851.00,52.942
852.00,52.894
853.00,52.841
854.00,52.826
855.00,52.758
856.00,52.757
857.00,52.748
858.00,52.726
859.00,52.696
860.00,52.694
861.00,52.676
862.00,52.650
863.00,52.648
864.00,52.630
865.00,52.651
866.00,52.627
867.00,52.586
868.00,52.470
869.00,52.567
870.00,52.584
871.00,52.531
872.00,52.551
873.00,52.541
874.00,52.548
875.00,52.496
876.00,52.517
877.00,52.473
878.00,52.484
879.00,52.429
880.00,52.448
881.00,52.427
882.00,52.441
883.00,52.402
884.00,52.362
885.00,52.374
886.00,52.340
887.00,52.316
888.00,52.298
889.00,52.292
890.00,52.282
891.00,52.237
892.00,52.231
893.00,52.185
894.00,52.205
895.00,52.166
896.00,52.151
897.00,52.121
898.00,52.106
899.00,52.099
900.00,52.075
901.00,52.075
902.00,52.080
903.00,52.022
904.00,52.030
905.00,52.012
906.00,52.009
907.00,51.979
908.00,51.939
909.00,51.939
910.00,51.879
911.00,51.900
912.00,51.914
913.00,51.850
914.00,51.861
915.00,51.852
916.00,51.798
917.00,51.755
918.00,51.768
919.00,51.712
920.00,51.696
921.00,51.722
922.00,51.720
923.00,51.641
924.00,51.711
925.00,51.637
926.00,51.628
927.00,51.599
928.00,51.557
929.00,51.572
930.00,51.549
931.00,51.507
932.00,51.479
933.00,51.505
934.00,51.471
935.00,51.450
936.00,51.429
937.00,51.402
938.00,51.372
939.00,51.383
940.00,51.361
941.00,51.368
942.00,51.316
943.00,51.320
944.00,51.266
945.00,51.280
946.00,51.264
947.00,51.211
948.00,51.204
949.00,51.180
950.00,51.172
951.00,51.135
952.00,51.116
953.00,51.081
954.00,51.067
955.00,51.038
956.00,51.022
957.00,51.013
958.00,51.014
959.00,50.951
960.00,50.951
961.00,50.944
962.00,50.942
963.00,50.900
964.00,50.893
965.00,50.884
966.00,50.868
967.00,50.850
968.00,50.838
969.00,50.864
970.00,50.831
971.00,50.842
972.00,50.798
973.00,50.850
974.00,50.801
975.00,50.827
976.00,50.846
977.00,50.848
978.00,50.866
979.00,50.797
980.00,50.857
981.00,50.849
982.00,50.829
983.00,50.805
984.00,50.794
985.00,50.860
986.00,50.796
987.00,50.812
988.00,50.817
989.00,50.804
990.00,50.790
991.00,50.767
992.00,50.784
993.00,50.734
994.00,50.715
995.00,50.705
996.00,50.698
997.00,50.678
998.00,50.669
999.00,50.666
1000.00,50.624
1001.00,50.635
1002.00,50.631
1003.00,50.620
1004.00,50.594
1005.00,50.545
1006.00,50.590
1007.00,50.557
1008.00,50.540
1009.00,50.515
1010.00,50.512
1011.00,50.512
1012.00,50.487
1013.00,50.481
1014.00,50.446
1015.00,50.482
1016.00,50.433
1017.00,50.428
1018.00,50.426
1019.00,50.379
1020.00,50.388
1021.00,50.355
1022.00,50.355
1023.00,50.314
1024.00,50.304
1025.00,50.305
1026.00,50.290
1027.00,50.263
1028.00,50.256
1029.00,50.246
1030.00,50.204
1031.00,50.220
1032.00,50.184
1033.00,50.175
1034.00,50.166
1035.00,50.127
1036.00,50.096
1037.00,50.080
1038.00,50.059
1039.00,50.049
1040.00,50.054
1041.00,50.013
1042.00,50.013
1043.00,49.979
1044.00,50.015
1045.00,50.011
1046.00,49.990
1047.00,50.008
1048.00,50.027
1049.00,50.016
1050.00,50.022
1051.00,50.071
1052.00,50.066
1053.00,50.082
1054.00,50.062
1055.00,50.069
1056.00,50.094
1057.00,50.084
1058.00,50.075
1059.00,50.069
1060.00,50.131
1061.00,50.099
1062.00,50.053
1063.00,50.065
1064.00,50.070
1065.00,50.057
1066.00,50.043
1067.00,50.055
1068.00,50.054
1069.00,50.018
1070.00,49.999
1071.00,49.968
1072.00,50.012
1073.00,49.993
1074.00,49.983
1075.00,49.954
1076.00,49.955
1077.00,49.944
1078.00,49.930
1079.00,49.932
1080.00,49.934
1081.00,49.930
1082.00,49.905
1083.00,49.900
1084.00,49.899
1085.00,49.879
1086.00,49.883
1087.00,49.878
1088.00,49.863
1089.00,49.872
1090.00,49.870
1091.00,49.883
1092.00,49.862
1093.00,49.847
1094.00,49.822
1095.00,49.800
1096.00,49.782
1097.00,49.783
1098.00,49.771
1099.00,49.749
1100.00,49.770
1101.00,49.764
1102.00,49.754
1103.00,49.742
1104.00,49.718
1105.00,49.720
1106.00,49.717
1107.00,49.718
1108.00,49.717
1109.00,49.700
1110.00,49.690
1111.00,49.695
1112.00,49.683
1113.00,49.677
1114.00,49.670
1115.00,49.669
1116.00,49.661
1117.00,49.651
1118.00,49.631
1119.00,49.642
1120.00,49.630
1121.00,49.620
1122.00,49.593
1123.00,49.609
1124.00,49.603
1125.00,49.605
1126.00,49.593
1127.00,49.584
1128.00,49.582
1129.00,49.556
1130.00,49.554
1131.00,49.557
1132.00,49.533
1133.00,49.541
1134.00,49.513
1135.00,49.511
1136.00,49.505
1137.00,49.507
1138.00,49.521
1139.00,49.532
1140.00,49.511
1141.00,49.507
1142.00,49.502
1143.00,49.501
1144.00,49.489
1145.00,49.493
1146.00,49.485
1147.00,49.495
1148.00,49.476
1149.00,49.506
1150.00,49.510
1151.00,49.495
1152.00,49.483
1153.00,49.484
1154.00,49.474
1155.00,49.487
1156.00,49.468
1157.00,49.486
1158.00,49.478
1159.00,49.469
1160.00,49.453
1161.00,49.474
1162.00,49.459
1163.00,49.463
1164.00,49.468
1165.00,49.462
1166.00,49.475
1167.00,49.455
1168.00,49.495
1169.00,49.478
1170.00,49.465
1171.00,49.452
1172.00,49.465
1173.00,49.459
1174.00,49.469
1175.00,49.464
1176.00,49.456
1177.00,49.459
1178.00,49.451
1179.00,49.466
1180.00,49.457
1181.00,49.467
1182.00,49.460
1183.00,49.457
1184.00,49.448
1185.00,49.467
1186.00,49.437
1187.00,49.441
1188.00,49.443
1189.00,49.450
1190.00,49.436
1191.00,49.437
1192.00,49.460
1193.00,49.442
1194.00,49.448
1195.00,49.414
1196.00,49.454
1197.00,49.453
1198.00,49.432
1199.00,49.448
1200.00,49.444
1201.00,49.460
1202.00,49.435
1203.00,49.437
1204.00,49.429
1205.00,49.455
1206.00,49.441
1207.00,49.440
1208.00,49.420
1209.00,49.436
1210.00,49.457
1211.00,49.440
1212.00,49.459
1213.00,49.422
1214.00,49.438
1215.00,49.430
1216.00,49.452
1217.00,49.445
1218.00,49.431
1219.00,49.447
1220.00,49.426
1221.00,49.464
1222.00,49.440
1223.00,49.465
1224.00,49.462
1225.00,49.440
1226.00,49.457
1227.00,49.461
1228.00,49.461
1229.00,49.461
1230.00,49.485
1231.00,49.472
1232.00,49.505
1233.00,49.497
1234.00,49.514
1235.00,49.511
1236.00,49.498
1237.00,49.506
1238.00,49.495
1239.00,49.497
1240.00,49.480
1241.00,49.503
1242.00,49.496
1243.00,49.528
1244.00,49.510
1245.00,49.541
1246.00,49.553
1247.00,49.540
1248.00,49.568
1249.00,49.581
1250.00,49.586
1251.00,49.558
1252.00,49.572
1253.00,49.567
1254.00,49.609
1255.00,49.591
1256.00,49.548
1257.00,49.565
1258.00,49.587
1259.00,49.583
1260.00,49.645
1261.00,49.618
1262.00,49.633
1263.00,49.618
1264.00,49.623
1265.00,49.642
1266.00,49.622
1267.00,49.649
1268.00,49.652
1269.00,49.652
1270.00,49.669
1271.00,49.677
1272.00,49.684
1273.00,49.706
1274.00,49.720
1275.00,49.720
1276.00,49.715
1277.00,49.708
1278.00,49.720
1279.00,49.720
1280.00,49.711
1281.00,49.742
1282.00,49.736
1283.00,49.742
1284.00,49.735
1285.00,49.713
1286.00,49.730
1287.00,49.764
1288.00,49.785
1289.00,49.767
1290.00,49.802
1291.00,49.779
1292.00,49.782
1293.00,49.790
1294.00,49.795
1295.00,49.810
1296.00,49.801
1297.00,49.816
1298.00,49.863
1299.00,49.822
1300.00,49.842
1301.00,49.834
1302.00,49.869
1303.00,49.861
1304.00,49.859
1305.00,49.890
1306.00,49.891
1307.00,49.899
1308.00,49.897
1309.00,49.924
1310.00,49.899
1311.00,49.890
1312.00,49.901
1313.00,49.902
1314.00,49.925
1315.00,49.955
1316.00,49.956
1317.00,49.969
1318.00,49.958
1319.00,49.962
1320.00,49.983
1321.00,50.158
1322.00,50.130
1323.00,50.134
1324.00,50.125
1325.00,50.105
1326.00,50.148
1327.00,50.138
1328.00,50.112
1329.00,50.145
1330.00,50.138
1331.00,50.142
1332.00,50.135
1333.00,50.161
1334.00,50.169
1335.00,50.199
1336.00,50.209
1337.00,50.259
1338.00,50.312
1339.00,50.351
1340.00,50.426
1341.00,50.487
1342.00,50.551
1343.00,50.593
1344.00,50.643
1345.00,50.697
1346.00,50.736
1347.00,50.737
1348.00,50.789
1349.00,50.803
1350.00,50.810
1351.00,50.841
1352.00,50.865
1353.00,50.860
1354.00,50.868
1355.00,50.824
1356.00,50.882
1357.00,50.888
1358.00,50.928
1359.00,50.950
1360.00,50.878
1361.00,50.874
1362.00,50.900
1363.00,50.943
1364.00,50.921
1365.00,50.907
1366.00,50.967
1367.00,50.897
1368.00,50.963
1369.00,50.924
1370.00,50.938
1371.00,50.898
1372.00,50.903
1373.00,50.922
1374.00,50.932
1375.00,50.918
1376.00,50.898
1377.00,50.921
1378.00,50.942
1379.00,50.969
1380.00,51.036
1381.00,50.904
1382.00,50.913
1383.00,50.905
1384.00,50.887
1385.00,50.926
1386.00,50.912
1387.00,50.863
1388.00,50.869
1389.00,50.908
1390.00,50.900
1391.00,50.904
1392.00,50.872
1393.00,50.876
1394.00,50.937
1395.00,50.832
1396.00,50.863
1397.00,50.919
1398.00,50.960
1399.00,50.899
1400.00,51.021
1401.00,50.903
1402.00,50.977
1403.00,50.935
1404.00,50.934
1405.00,50.950
1406.00,50.975
1407.00,50.949
1408.00,50.988
1409.00,50.965
1410.00,50.987
1411.00,50.977
1412.00,51.078
1413.00,50.961
1414.00,50.968
1415.00,51.023
1416.00,51.050
1417.00,51.079
1418.00,51.071
1419.00,51.046
1420.00,51.072
1421.00,51.128
1422.00,51.123
1423.00,51.132
1424.00,51.131
1425.00,51.179
1426.00,51.132
1427.00,51.179
1428.00,51.205
1429.00,51.224
1430.00,51.217
1431.00,51.269
1432.00,51.266
1433.00,51.283
1434.00,51.278
1435.00,51.327
1436.00,51.339
1437.00,51.330
1438.00,51.350
1439.00,51.402
1440.00,51.406
1441.00,51.418
1442.00,51.440
1443.00,51.451
1444.00,51.530
1445.00,51.499
1446.00,51.497
1447.00,51.537
1448.00,51.573
1449.00,51.563
1450.00,51.582
1451.00,51.602
1452.00,51.621
1453.00,51.630
1454.00,51.632
1455.00,51.673
1456.00,51.699
1457.00,51.687
1458.00,51.735
1459.00,51.739
1460.00,51.760
1461.00,51.766
1462.00,51.805
1463.00,51.799
1464.00,51.812
1465.00,51.816
1466.00,51.844
1467.00,51.848
1468.00,51.904
1469.00,51.884
1470.00,51.925
1471.00,51.935
1472.00,51.939
1473.00,51.961
1474.00,51.984
1475.00,52.006
1476.00,52.013
1477.00,51.996
1478.00,52.033
1479.00,52.038
1480.00,52.061
1481.00,52.073
1482.00,52.090
1483.00,52.121
1484.00,52.139
1485.00,52.137
1486.00,52.161
1487.00,52.175
1488.00,52.204
1489.00,52.174
1490.00,52.194
1491.00,52.215
1492.00,52.244
1493.00,52.238
1494.00,52.310
1495.00,52.282
1496.00,52.305
1497.00,52.285
1498.00,52.298
1499.00,52.329
1500.00,52.350
1501.00, 
1502.00, 
1503.00, 
1504.00, 
1505.00, 
1506.00, 
1507.00, 
1508.00, 
1509.00, 
1510.00, 
1511.00, 
1512.00, 
1513.00, 
1514.00, 
1515.00, 
1516.00, 
1517.00, 
1518.00, 
1519.00, 
1520.00, 
1521.00, 
1522.00, 
1523.00, 
1524.00, 
1525.00, 
1526.00, 
1527.00, 
1528.00, 
1529.00, 
1530.00, 
1531.00, 
1532.00, 
1533.00, 
1534.00, 
1535.00, 
1536.00, 
1537.00, 
1538.00, 
1539.00, 
1540.00, 
1541.00, 
1542.00, 
1543.00, 
1544.00, 
1545.00, 
1546.00, 
1547.00, 
1548.00, 
1549.00, 
1550.00, 
1551.00, 
1552.00, 
1553.00, 
1554.00, 
1555.00, 
1556.00, 
1557.00, 
1558.00, 
1559.00, 
1560.00, 
1561.00, 
1562.00, 
1563.00, 
1564.00, 
1565.00, 
1566.00, 
1567.00, 
1568.00, 
1569.00, 
1570.00, 
1571.00, 
1572.00, 
1573.00, 
1574.00, 
1575.00, 
1576.00, 
1577.00, 
1578.00, 
1579.00, 
1580.00, 
1581.00, 
1582.00, 
1583.00, 
1584.00, 
1585.00, 
1586.00, 
1587.00, 
1588.00, 
1589.00, 
1590.00, 
1591.00, 
1592.00, 
1593.00, 
1594.00, 
1595.00, 
1596.00, 
1597.00, 
1598.00, 
1599.00, 
1600.00, 
1601.00, 
1602.00, 
1603.00, 
1604.00, 
1605.00, 
1606.00, 
1607.00, 
1608.00, 
1609.00, 
1610.00, 
1611.00, 
1612.00, 
1613.00, 
1614.00, 
1615.00, 
1616.00, 
1617.00, 
1618.00, 
1619.00, 
1620.00, 
1621.00, 
1622.00, 
1623.00, 
1624.00, 
1625.00, 
1626.00, 
1627.00, 
1628.00, 
1629.00, 
1630.00, 
1631.00, 
1632.00, 
1633.00, 
1634.00, 
1635.00, 
1636.00, 
1637.00, 
1638.00, 
1639.00, 
1640.00, 
1641.00, 
1642.00, 
1643.00, 
1644.00, 
1645.00, 
1646.00, 
1647.00, 
1648.00, 
1649.00, 
1650.00, 
1651.00, 
1652.00, 
1653.00, 
1654.00, 
1655.00, 
1656.00, 
1657.00, 
1658.00, 
1659.00, 
1660.00, 
1661.00, 
1662.00, 
1663.00, 
1664.00, 
1665.00, 
1666.00, 
1667.00, 
1668.00, 
1669.00, 
1670.00, 
1671.00, 
1672.00, 
1673.00, 
1674.00, 
1675.00, 
1676.00, 
1677.00, 
1678.00, 
1679.00, 
1680.00, 
1681.00, 
1682.00, 
1683.00, 
1684.00, 
1685.00, 
1686.00, 
1687.00, 
1688.00, 
1689.00, 
1690.00, 
1691.00, 
1692.00, 
1693.00, 
1694.00, 
1695.00, 
1696.00, 
1697.00, 
1698.00, 
1699.00, 
1700.00, 
1701.00, 
1702.00, 
1703.00, 
1704.00, 
1705.00, 
1706.00, 
1707.00, 
1708.00, 
1709.00, 
1710.00, 
1711.00, 
1712.00, 
1713.00, 
1714.00, 
1715.00, 
1716.00, 
1717.00, 
1718.00, 
1719.00, 
1720.00, 
1721.00, 
1722.00, 
1723.00, 
1724.00, 
1725.00, 
1726.00, 
1727.00, 
1728.00, 
1729.00, 
1730.00, 
1731.00, 
1732.00, 
1733.00, 
1734.00, 
1735.00, 
1736.00, 
1737.00, 
1738.00, 
1739.00, 
1740.00, 
1741.00, 
1742.00, 
1743.00, 
1744.00, 
1745.00, 
1746.00, 
1747.00, 
1748.00, 
1749.00, 
1750.00, 
1751.00, 
1752.00, 
1753.00, 
1754.00, 
1755.00, 
1756.00, 
1757.00, 
1758.00, 
1759.00, 
1760.00, 
1761.00, 
1762.00, 
1763.00, 
1764.00, 
1765.00, 
1766.00, 
1767.00, 
1768.00, 
1769.00, 
1770.00, 
1771.00, 
1772.00, 
1773.00, 
1774.00, 
1775.00, 
1776.00, 
1777.00, 
1778.00, 
1779.00, 
1780.00, 
1781.00, 
1782.00, 
1783.00, 
1784.00, 
1785.00, 
1786.00, 
1787.00, 
1788.00, 
1789.00, 
1790.00, 
1791.00, 
1792.00, 
1793.00, 
1794.00, 
1795.00, 
1796.00, 
1797.00, 
1798.00, 
1799.00, 
1800.00, 
1801.00, 
1802.00, 
1803.00, 
1804.00, 
1805.00, 
1806.00, 
1807.00, 
1808.00, 
1809.00, 
1810.00, 
1811.00, 
1812.00, 
1813.00, 
1814.00, 
1815.00, 
1816.00, 
1817.00, 
1818.00, 
1819.00, 
1820.00, 
1821.00, 
1822.00, 
1823.00, 
1824.00, 
1825.00, 
1826.00, 
1827.00, 
1828.00, 
1829.00, 
1830.00, 
1831.00, 
1832.00, 
1833.00, 
1834.00, 
1835.00, 
1836.00, 
1837.00, 
1838.00, 
1839.00, 
1840.00, 
1841.00, 
1842.00, 
1843.00, 
1844.00, 
1845.00, 
1846.00, 
1847.00, 
1848.00, 
1849.00, 
1850.00, 
1851.00, 
1852.00, 
1853.00, 
1854.00, 
1855.00, 
1856.00, 
1857.00, 
1858.00, 
1859.00, 
1860.00, 
1861.00, 
1862.00, 
1863.00, 
1864.00, 
1865.00, 
1866.00, 
1867.00, 
1868.00, 
1869.00, 
1870.00, 
1871.00, 
1872.00, 
1873.00, 
1874.00, 
1875.00, 
1876.00, 
1877.00, 
1878.00, 
1879.00, 
1880.00, 
1881.00, 
1882.00, 
1883.00, 
1884.00, 
1885.00, 
1886.00, 
1887.00, 
1888.00, 
1889.00, 
1890.00, 
1891.00, 
1892.00, 
1893.00, 
1894.00, 
1895.00, 
1896.00, 
1897.00, 
1898.00, 
1899.00, 
1900.00, 
1901.00, 
1902.00, 
1903.00, 
1904.00, 
1905.00, 
1906.00, 
1907.00, 
1908.00, 
1909.00, 
1910.00, 
1911.00, 
1912.00, 
1913.00, 
1914.00, 
1915.00, 
1916.00, 
1917.00, 
1918.00, 
1919.00, 
1920.00, 
1921.00, 
1922.00, 
1923.00, 
1924.00, 
1925.00, 
1926.00, 
1927.00, 
1928.00, 
1929.00, 
1930.00, 
1931.00, 
1932.00, 
1933.00, 
1934.00, 
1935.00, 
1936.00, 
1937.00, 
1938.00, 
1939.00, 
1940.00, 
1941.00, 
1942.00, 
1943.00, 
1944.00, 
1945.00, 
1946.00, 
1947.00, 
1948.00, 
1949.00, 
1950.00, 
1951.00, 
1952.00, 
1953.00, 
1954.00, 
1955.00, 
1956.00, 
1957.00, 
1958.00, 
1959.00, 
1960.00, 
1961.00, 
1962.00, 
1963.00, 
1964.00, 
1965.00, 
1966.00, 
1967.00, 
1968.00, 
1969.00, 
1970.00, 
1971.00, 
1972.00, 
1973.00, 
1974.00, 
1975.00, 
1976.00, 
1977.00, 
1978.00, 
1979.00, 
1980.00, 
1981.00, 
1982.00, 
1983.00, 
1984.00, 
1985.00, 
1986.00, 
1987.00, 
1988.00, 
1989.00, 
1990.00, 
1991.00, 
1992.00, 
1993.00, 
1994.00, 
1995.00, 
1996.00, 
1997.00, 
1998.00, 
1999.00, 
2000.00, 
2001.00, 
2002.00, 
2003.00, 
2004.00, 
2005.00, 
2006.00, 
2007.00, 
2008.00, 
2009.00, 
2010.00, 
2011.00, 
2012.00, 
2013.00, 
2014.00, 
2015.00, 
2016.00, 
2017.00, 
2018.00, 
2019.00, 
2020.00, 
2021.00, 
2022.00, 
2023.00, 
2024.00, 
2025.00, 
2026.00, 
2027.00, 
2028.00, 
2029.00, 
2030.00, 
2031.00, 
2032.00, 
2033.00, 
2034.00, 
2035.00, 
2036.00, 
2037.00, 
2038.00, 
2039.00, 
2040.00, 
2041.00, 
2042.00, 
2043.00, 
2044.00, 
2045.00, 
2046.00, 
2047.00, 
2048.00, 
2049.00, 
2050.00, 
2051.00, 
2052.00, 
2053.00, 
2054.00, 
2055.00, 
2056.00, 
2057.00, 
2058.00, 
2059.00, 
2060.00, 
2061.00, 
2062.00, 
2063.00, 
2064.00, 
2065.00, 
2066.00, 
2067.00, 
2068.00, 
2069.00, 
2070.00, 
2071.00, 
2072.00, 
2073.00, 
2074.00, 
2075.00, 
2076.00, 
2077.00, 
2078.00, 
2079.00, 
2080.00, 
2081.00, 
2082.00, 
2083.00, 
2084.00, 
2085.00, 
2086.00, 
2087.00, 
2088.00, 
2089.00, 
2090.00, 
2091.00, 
2092.00, 
2093.00, 
2094.00, 
2095.00, 
2096.00, 
2097.00, 
2098.00, 
2099.00, 
2100.00, 
2101.00, 
2102.00, 
2103.00, 
2104.00, 
2105.00, 
2106.00, 
2107.00, 
2108.00, 
2109.00, 
2110.00, 
2111.00, 
2112.00, 
2113.00, 
2114.00, 
2115.00, 
2116.00, 
2117.00, 
2118.00, 
2119.00, 
2120.00, 
2121.00, 
2122.00, 
2123.00, 
2124.00, 
2125.00, 
2126.00, 
2127.00, 
2128.00, 
2129.00, 
2130.00, 
2131.00, 
2132.00, 
2133.00, 
2134.00, 
2135.00, 
2136.00, 
2137.00, 
2138.00, 
2139.00, 
2140.00, 
2141.00, 
2142.00, 
2143.00, 
2144.00, 
2145.00, 
2146.00, 
2147.00, 
2148.00, 
2149.00, 
2150.00, 
2151.00, 
2152.00, 
2153.00, 
2154.00, 
2155.00, 
2156.00, 
2157.00, 
2158.00, 
2159.00, 
2160.00, 
2161.00, 
2162.00, 
2163.00, 
2164.00, 
2165.00, 
2166.00, 
2167.00, 
2168.00, 
2169.00, 
2170.00, 
2171.00, 
2172.00, 
2173.00, 
2174.00, 
2175.00, 
2176.00, 
2177.00, 
2178.00, 
2179.00, 
2180.00, 
2181.00, 
2182.00, 
2183.00, 
2184.00, 
2185.00, 
2186.00, 
2187.00, 
2188.00, 
2189.00, 
2190.00, 
2191.00, 
2192.00, 
2193.00, 
2194.00, 
2195.00, 
2196.00, 
2197.00, 
2198.00, 
2199.00, 
2200.00, 
2201.00, 
2202.00, 
2203.00, 
2204.00, 
2205.00, 
2206.00, 
2207.00, 
2208.00, 
2209.00, 
2210.00, 
2211.00, 
2212.00, 
2213.00, 
2214.00, 
2215.00, 
2216.00, 
2217.00, 
2218.00, 
2219.00, 
2220.00, 
2221.00, 
2222.00, 
2223.00, 
2224.00, 
2225.00, 
2226.00, 
2227.00, 
2228.00, 
2229.00, 
2230.00, 
2231.00, 
2232.00, 
2233.00, 
2234.00, 
2235.00, 
2236.00, 
2237.00, 
2238.00, 
2239.00, 
2240.00, 
2241.00, 
2242.00, 
2243.00, 
2244.00, 
2245.00, 
2246.00, 
2247.00, 
2248.00, 
2249.00, 
2250.00, 
2251.00, 
2252.00, 
2253.00, 
2254.00, 
2255.00, 
2256.00, 
2257.00, 
2258.00, 
2259.00, 
2260.00, 
2261.00, 
2262.00, 
2263.00, 
2264.00, 
2265.00, 
2266.00, 
2267.00, 
2268.00, 
2269.00, 
2270.00, 
2271.00, 
2272.00, 
2273.00, 
2274.00, 
2275.00, 
2276.00, 
2277.00, 
2278.00, 
2279.00, 
2280.00, 
2281.00, 
2282.00, 
2283.00, 
2284.00, 
2285.00, 
2286.00, 
2287.00, 
2288.00, 
2289.00, 
2290.00, 
2291.00, 
2292.00, 
2293.00, 
2294.00, 
2295.00, 
2296.00, 
2297.00, 
2298.00, 
2299.00, 
2300.00, 
2301.00, 
2302.00, 
2303.00, 
2304.00, 
2305.00, 
2306.00, 
2307.00, 
2308.00, 
2309.00, 
2310.00, 
2311.00, 
2312.00, 
2313.00, 
2314.00, 
2315.00, 
2316.00, 
2317.00, 
2318.00, 
2319.00, 
2320.00, 
2321.00, 
2322.00, 
2323.00, 
2324.00, 
2325.00, 
2326.00, 
2327.00, 
2328.00, 
2329.00, 
2330.00, 
2331.00, 
2332.00, 
2333.00, 
2334.00, 
2335.00, 
2336.00, 
2337.00, 
2338.00, 
2339.00, 
2340.00, 
2341.00, 
2342.00, 
2343.00, 
2344.00, 
2345.00, 
2346.00, 
2347.00, 
2348.00, 
2349.00, 
2350.00, 
2351.00, 
2352.00, 
2353.00, 
2354.00, 
2355.00, 
2356.00, 
2357.00, 
2358.00, 
2359.00, 
2360.00, 
2361.00, 
2362.00, 
2363.00, 
2364.00, 
2365.00, 
2366.00, 
2367.00, 
2368.00, 
2369.00, 
2370.00, 
2371.00, 
2372.00, 
2373.00, 
2374.00, 
2375.00, 
2376.00, 
2377.00, 
2378.00, 
2379.00, 
2380.00, 
2381.00, 
2382.00, 
2383.00, 
2384.00, 
2385.00, 
2386.00, 
2387.00, 
2388.00, 
2389.00, 
2390.00, 
2391.00, 
2392.00, 
2393.00, 
2394.00, 
2395.00, 
2396.00, 
2397.00, 
2398.00, 
2399.00, 
2400.00, 
2401.00, 
2402.00, 
2403.00, 
2404.00, 
2405.00, 
2406.00, 
2407.00, 
2408.00, 
2409.00, 
2410.00, 
2411.00, 
2412.00, 
2413.00, 
2414.00, 
2415.00, 
2416.00, 
2417.00, 
2418.00, 
2419.00, 
2420.00, 
2421.00, 
2422.00, 
2423.00, 
2424.00, 
2425.00, 
2426.00, 
2427.00, 
2428.00, 
2429.00, 
2430.00, 
2431.00, 
2432.00, 
2433.00, 
2434.00, 
2435.00, 
2436.00, 
2437.00, 
2438.00, 
2439.00, 
2440.00, 
2441.00, 
2442.00, 
2443.00, 
2444.00, 
2445.00, 
2446.00, 
2447.00, 
2448.00, 
2449.00, 
2450.00, 
2451.00, 
2452.00, 
2453.00, 
2454.00, 
2455.00, 
2456.00, 
2457.00, 
2458.00, 
2459.00, 
2460.00, 
2461.00, 
2462.00, 
2463.00, 
2464.00, 
2465.00, 
2466.00, 
2467.00, 
2468.00, 
2469.00, 
2470.00, 
2471.00, 
2472.00, 
2473.00, 
2474.00, 
2475.00, 
2476.00, 
2477.00, 
2478.00, 
2479.00, 
2480.00, 
2481.00, 
2482.00, 
2483.00, 
2484.00, 
2485.00, 
2486.00, 
2487.00, 
2488.00, 
2489.00, 
2490.00, 
2491.00, 
2492.00, 
2493.00, 
2494.00, 
2495.00, 
2496.00, 
2497.00, 
2498.00, 
2499.00, 
2500.00, 
2501.00, 
2502.00, 
2503.00, 
2504.00, 
2505.00, 
2506.00, 
2507.00, 
2508.00, 
2509.00, 
2510.00, 
2511.00, 
2512.00, 
2513.00, 
2514.00, 
2515.00, 
2516.00, 
2517.00, 
2518.00, 
2519.00, 
2520.00, 
2521.00, 
2522.00, 
2523.00, 
2524.00, 
2525.00, 
2526.00, 
2527.00, 
2528.00, 
2529.00, 
2530.00, 
2531.00, 
2532.00, 
2533.00, 
2534.00, 
2535.00, 
2536.00, 
2537.00, 
2538.00, 
2539.00, 
2540.00, 
2541.00, 
2542.00, 
2543.00, 
2544.00, 
2545.00, 
2546.00, 
2547.00, 
2548.00, 
2549.00, 
2550.00, 
2551.00, 
2552.00, 
2553.00, 
2554.00, 
2555.00, 
2556.00, 
2557.00, 
2558.00, 
2559.00, 
2560.00, 
2561.00, 
2562.00, 
2563.00, 
2564.00, 
2565.00, 
2566.00, 
2567.00, 
2568.00, 
2569.00, 
2570.00, 
2571.00, 
2572.00, 
2573.00, 
2574.00, 
2575.00, 
2576.00, 
2577.00, 
2578.00, 
2579.00, 
2580.00, 
2581.00, 
2582.00, 
2583.00, 
2584.00, 
2585.00, 
2586.00, 
2587.00, 
2588.00, 
2589.00, 
2590.00, 
2591.00, 
2592.00, 
2593.00, 
2594.00, 
2595.00, 
2596.00, 
2597.00, 
2598.00, 
2599.00, 
2600.00, 
