"2aP2 - RawData"
"Wavelength nm.","T%"
200.00,0.003
201.00,0.003
202.00,-0.000
203.00,0.001
204.00,0.003
205.00,0.002
206.00,-0.000
207.00,0.001
208.00,0.001
209.00,0.001
210.00,0.001
211.00,0.001
212.00,0.001
213.00,0.001
214.00,-0.000
215.00,0.002
216.00,0.000
217.00,-0.001
218.00,0.001
219.00,0.002
220.00,0.001
221.00,0.003
222.00,0.002
223.00,0.001
224.00,-0.001
225.00,0.002
226.00,0.002
227.00,0.002
228.00,0.001
229.00,0.001
230.00,0.002
231.00,-0.000
232.00,0.002
233.00,0.002
234.00,0.001
235.00,0.002
236.00,0.001
237.00,0.001
238.00,0.001
239.00,0.002
240.00,0.001
241.00,0.001
242.00,0.003
243.00,0.002
244.00,0.002
245.00,-0.000
246.00,0.001
247.00,0.001
248.00,0.002
249.00,0.001
250.00,0.002
251.00,0.002
252.00,0.001
253.00,0.001
254.00,0.000
255.00,0.001
256.00,0.001
257.00,0.001
258.00,0.000
259.00,0.002
260.00,0.000
261.00,0.002
262.00,0.001
263.00,0.001
264.00,0.000
265.00,0.001
266.00,0.000
267.00,0.000
268.00,-0.001
269.00,0.001
270.00,0.001
271.00,-0.001
272.00,0.001
273.00,0.001
274.00,-0.000
275.00,0.002
276.00,-0.000
277.00,0.000
278.00,0.001
279.00,-0.000
280.00,0.002
281.00,0.001
282.00,0.001
283.00,0.002
284.00,-0.002
285.00,-0.001
286.00,0.003
287.00,-0.000
288.00,-0.001
289.00,0.000
290.00,-0.002
291.00,0.001
292.00,0.001
293.00,0.002
294.00,-0.000
295.00,-0.000
296.00,0.000
297.00,0.000
298.00,0.000
299.00,0.002
300.00,0.001
301.00,0.005
302.00,0.004
303.00,0.008
304.00,0.011
305.00,0.016
306.00,0.027
307.00,0.040
308.00,0.060
309.00,0.095
310.00,0.129
311.00,0.178
312.00,0.241
313.00,0.329
314.00,0.438
315.00,0.556
316.00,0.687
317.00,0.911
318.00,1.112
319.00,1.368
320.00,1.652
321.00,1.972
322.00,2.330
323.00,2.761
324.00,3.193
325.00,3.627
326.00,4.076
327.00,4.611
328.00,5.146
329.00,5.705
330.00,6.272
331.00,6.827
332.00,7.407
333.00,8.030
334.00,8.595
335.00,9.249
336.00,9.840
337.00,10.441
338.00,11.014
339.00,11.508
340.00,12.095
341.00,12.635
342.00,13.186
343.00,13.643
344.00,14.112
345.00,14.602
346.00,15.003
347.00,15.375
348.00,15.798
349.00,16.129
350.00,16.453
351.00,16.738
352.00,17.028
353.00,17.287
354.00,17.576
355.00,17.835
356.00,18.058
357.00,18.241
358.00,18.433
359.00,18.666
360.00,18.869
361.00,18.990
362.00,19.149
363.00,19.256
364.00,19.297
365.00,19.401
366.00,19.503
367.00,19.561
368.00,19.630
369.00,19.648
370.00,19.691
371.00,19.732
372.00,19.714
373.00,19.669
374.00,19.686
375.00,19.680
376.00,19.628
377.00,19.613
378.00,19.536
379.00,19.455
380.00,19.479
381.00,19.431
382.00,19.473
383.00,19.466
384.00,19.464
385.00,19.518
386.00,19.436
387.00,19.536
388.00,19.519
389.00,19.590
390.00,19.639
391.00,19.566
392.00,19.625
393.00,19.576
394.00,19.659
395.00,19.659
396.00,19.641
397.00,19.680
398.00,19.646
399.00,19.667
400.00,19.645
401.00,19.635
402.00,19.626
403.00,19.651
404.00,19.649
405.00,19.631
406.00,19.609
407.00,19.554
408.00,19.582
409.00,19.534
410.00,19.490
411.00,19.524
412.00,19.476
413.00,19.501
414.00,19.472
415.00,19.499
416.00,19.531
417.00,19.535
418.00,19.567
419.00,19.663
420.00,19.668
421.00,19.710
422.00,19.715
423.00,19.765
424.00,19.801
425.00,19.844
426.00,19.870
427.00,19.953
428.00,19.958
429.00,20.027
430.00,20.072
431.00,20.117
432.00,20.175
433.00,20.217
434.00,20.294
435.00,20.346
436.00,20.426
437.00,20.469
438.00,20.563
439.00,20.632
440.00,20.707
441.00,20.793
442.00,20.854
443.00,20.934
444.00,21.073
445.00,21.133
446.00,21.262
447.00,21.342
448.00,21.449
449.00,21.553
450.00,21.696
451.00,21.761
452.00,21.874
453.00,21.981
454.00,22.072
455.00,22.185
456.00,22.335
457.00,22.445
458.00,22.538
459.00,22.695
460.00,22.823
461.00,22.970
462.00,23.116
463.00,23.205
464.00,23.331
465.00,23.514
466.00,23.614
467.00,23.789
468.00,23.870
469.00,24.019
470.00,24.111
471.00,24.206
472.00,24.366
473.00,24.440
474.00,24.562
475.00,24.679
476.00,24.796
477.00,24.934
478.00,25.055
479.00,25.244
480.00,25.371
481.00,25.458
482.00,25.637
483.00,25.757
484.00,25.989
485.00,26.134
486.00,26.291
487.00,26.441
488.00,26.622
489.00,26.805
490.00,26.937
491.00,27.055
492.00,27.286
493.00,27.442
494.00,27.458
495.00,27.637
496.00,27.764
497.00,27.869
498.00,28.032
499.00,28.148
500.00,28.294
501.00,28.407
502.00,28.594
503.00,28.737
504.00,28.793
505.00,28.934
506.00,29.062
507.00,29.149
508.00,29.274
509.00,29.474
510.00,29.604
511.00,29.672
512.00,29.868
513.00,30.022
514.00,30.104
515.00,30.237
516.00,30.354
517.00,30.464
518.00,30.643
519.00,30.680
520.00,30.719
521.00,30.857
522.00,30.946
523.00,31.003
524.00,31.105
525.00,31.250
526.00,31.348
527.00,31.409
528.00,31.496
529.00,31.662
530.00,31.813
531.00,31.927
532.00,32.017
533.00,32.100
534.00,32.197
535.00,32.290
536.00,32.394
537.00,32.460
538.00,32.499
539.00,32.595
540.00,32.693
541.00,32.724
542.00,32.829
543.00,32.924
544.00,32.936
545.00,33.005
546.00,33.063
547.00,33.214
548.00,33.271
549.00,33.303
550.00,33.418
551.00,33.506
552.00,33.567
553.00,33.608
554.00,33.715
555.00,33.736
556.00,33.817
557.00,33.917
558.00,33.953
559.00,34.040
560.00,34.107
561.00,34.175
562.00,34.202
563.00,34.223
564.00,34.316
565.00,34.336
566.00,34.369
567.00,34.402
568.00,34.422
569.00,34.499
570.00,34.505
571.00,34.619
572.00,34.617
573.00,34.598
574.00,34.674
575.00,34.664
576.00,34.690
577.00,34.773
578.00,34.908
579.00,34.951
580.00,35.003
581.00,35.150
582.00,35.189
583.00,35.167
584.00,35.279
585.00,35.373
586.00,35.448
587.00,35.519
588.00,35.548
589.00,35.481
590.00,35.596
591.00,35.676
592.00,35.618
593.00,35.701
594.00,35.777
595.00,35.841
596.00,35.884
597.00,35.962
598.00,36.046
599.00,36.029
600.00,36.100
601.00,36.172
602.00,36.158
603.00,36.198
604.00,36.252
605.00,36.269
606.00,36.276
607.00,36.381
608.00,36.510
609.00,36.701
610.00,36.475
611.00,36.583
612.00,36.646
613.00,36.659
614.00,36.724
615.00,36.823
616.00,36.882
617.00,36.863
618.00,36.897
619.00,36.951
620.00,37.002
621.00,37.017
622.00,37.078
623.00,37.194
624.00,37.431
625.00,37.482
626.00,37.520
627.00,37.589
628.00,37.623
629.00,37.648
630.00,37.727
631.00,37.814
632.00,37.910
633.00,38.040
634.00,38.120
635.00,38.236
636.00,38.326
637.00,38.348
638.00,38.417
639.00,38.559
640.00,38.559
641.00,38.607
642.00,38.762
643.00,38.814
644.00,38.901
645.00,38.961
646.00,39.106
647.00,39.217
648.00,39.258
649.00,39.318
650.00,39.350
651.00,39.539
652.00,39.620
653.00,39.660
654.00,39.774
655.00,39.963
656.00,40.221
657.00,40.293
658.00,40.281
659.00,40.405
660.00,40.455
661.00,40.470
662.00,40.615
663.00,40.699
664.00,40.888
665.00,41.065
666.00,40.954
667.00,41.119
668.00,41.151
669.00,41.394
670.00,41.637
671.00,41.591
672.00,41.675
673.00,41.785
674.00,41.900
675.00,41.991
676.00,42.194
677.00,42.409
678.00,42.232
679.00,42.333
680.00,42.547
681.00,42.731
682.00,42.764
683.00,42.848
684.00,42.992
685.00,43.131
686.00,43.016
687.00,43.218
688.00,43.345
689.00,43.386
690.00,43.651
691.00,43.892
692.00,43.579
693.00,43.707
694.00,43.892
695.00,43.978
696.00,44.304
697.00,44.257
698.00,44.233
699.00,44.541
700.00,44.691
701.00,44.585
702.00,44.778
703.00,45.009
704.00,45.030
705.00,45.024
706.00,45.124
707.00,45.245
708.00,45.153
709.00,45.496
710.00,45.907
711.00,45.533
712.00,45.599
713.00,45.818
714.00,45.949
715.00,45.977
716.00,45.962
717.00,46.051
718.00,46.327
719.00,46.246
720.00,46.340
721.00,50.817
722.00,50.925
723.00,50.883
724.00,50.898
725.00,51.014
726.00,51.036
727.00,51.032
728.00,51.108
729.00,51.079
730.00,51.192
731.00,51.187
732.00,51.308
733.00,51.346
734.00,51.393
735.00,51.465
736.00,51.527
737.00,51.466
738.00,51.663
739.00,51.585
740.00,51.635
741.00,51.709
742.00,51.759
743.00,51.826
744.00,51.747
745.00,51.890
746.00,51.972
747.00,51.871
748.00,51.918
749.00,51.963
750.00,51.894
751.00,51.983
752.00,52.038
753.00,51.968
754.00,52.059
755.00,52.050
756.00,52.066
757.00,52.062
758.00,52.168
759.00,52.086
760.00,52.101
761.00,52.208
762.00,52.245
763.00,52.287
764.00,52.249
765.00,52.271
766.00,52.272
767.00,52.336
768.00,52.386
769.00,52.328
770.00,52.428
771.00,52.387
772.00,52.498
773.00,52.474
774.00,52.488
775.00,52.474
776.00,52.462
777.00,52.541
778.00,52.529
779.00,52.560
780.00,52.588
781.00,52.602
782.00,52.631
783.00,52.593
784.00,52.679
785.00,52.621
786.00,52.637
787.00,52.712
788.00,52.665
789.00,52.693
790.00,52.532
791.00,52.642
792.00,52.578
793.00,52.548
794.00,52.641
795.00,52.651
796.00,52.640
797.00,52.502
798.00,52.600
799.00,52.495
800.00,52.654
801.00,52.584
802.00,52.571
803.00,52.568
804.00,52.569
805.00,52.598
806.00,52.577
807.00,52.558
808.00,52.644
809.00,52.538
810.00,52.497
811.00,52.513
812.00,52.558
813.00,52.470
814.00,52.521
815.00,52.505
816.00,52.513
817.00,52.486
818.00,52.500
819.00,52.390
820.00,52.346
821.00,52.389
822.00,52.385
823.00,52.345
824.00,52.428
825.00,52.274
826.00,52.350
827.00,52.371
828.00,52.386
829.00,52.414
830.00,52.444
831.00,54.540
832.00,54.536
833.00,54.470
834.00,54.468
835.00,54.467
836.00,54.470
837.00,54.442
838.00,54.438
839.00,54.411
840.00,54.408
841.00,54.383
842.00,54.394
843.00,54.383
844.00,54.422
845.00,54.333
846.00,54.307
847.00,54.288
848.00,54.278
849.00,54.263
850.00,54.264
851.00,54.198
852.00,54.157
853.00,54.119
854.00,54.148
855.00,54.062
856.00,54.036
857.00,54.143
858.00,54.012
859.00,54.000
860.00,53.985
861.00,53.984
862.00,53.961
863.00,53.985
864.00,53.968
865.00,54.011
866.00,53.934
867.00,53.922
868.00,53.880
869.00,53.919
870.00,53.909
871.00,53.898
872.00,53.887
873.00,53.893
874.00,53.877
875.00,53.840
876.00,53.843
877.00,53.820
878.00,53.836
879.00,53.775
880.00,53.788
881.00,53.777
882.00,53.790
883.00,53.769
884.00,53.761
885.00,53.725
886.00,53.705
887.00,53.748
888.00,53.668
889.00,53.645
890.00,53.649
891.00,53.593
892.00,53.582
893.00,53.573
894.00,53.597
895.00,53.558
896.00,53.532
897.00,53.534
898.00,53.509
899.00,53.480
900.00,53.474
901.00,53.474
902.00,53.466
903.00,53.419
904.00,53.432
905.00,53.397
906.00,53.403
907.00,53.369
908.00,53.368
909.00,53.354
910.00,53.293
911.00,53.294
912.00,53.312
913.00,53.250
914.00,53.248
915.00,53.227
916.00,53.216
917.00,53.164
918.00,53.151
919.00,53.116
920.00,53.103
921.00,53.114
922.00,53.076
923.00,53.083
924.00,53.048
925.00,53.034
926.00,53.035
927.00,53.015
928.00,52.950
929.00,52.993
930.00,52.964
931.00,52.944
932.00,52.915
933.00,52.902
934.00,52.893
935.00,52.888
936.00,52.855
937.00,52.842
938.00,52.841
939.00,52.818
940.00,52.779
941.00,52.771
942.00,52.721
943.00,52.745
944.00,52.681
945.00,52.709
946.00,52.686
947.00,52.654
948.00,52.644
949.00,52.626
950.00,52.620
951.00,52.596
952.00,52.579
953.00,52.526
954.00,52.516
955.00,52.462
956.00,52.464
957.00,52.429
958.00,52.438
959.00,52.391
960.00,52.400
961.00,52.364
962.00,52.378
963.00,52.329
964.00,52.320
965.00,52.317
966.00,52.294
967.00,52.295
968.00,52.281
969.00,52.295
970.00,52.279
971.00,52.295
972.00,52.226
973.00,52.317
974.00,52.226
975.00,52.267
976.00,52.298
977.00,52.254
978.00,52.298
979.00,52.257
980.00,52.272
981.00,52.265
982.00,52.268
983.00,52.250
984.00,52.239
985.00,52.271
986.00,52.203
987.00,52.224
988.00,52.237
989.00,52.222
990.00,52.203
991.00,52.162
992.00,52.200
993.00,52.153
994.00,52.143
995.00,52.133
996.00,52.119
997.00,52.110
998.00,52.076
999.00,52.108
1000.00,52.063
1001.00,52.076
1002.00,52.042
1003.00,52.050
1004.00,52.038
1005.00,51.988
1006.00,52.036
1007.00,51.992
1008.00,51.974
1009.00,51.963
1010.00,51.938
1011.00,51.946
1012.00,51.919
1013.00,51.927
1014.00,51.887
1015.00,51.927
1016.00,51.863
1017.00,51.865
1018.00,51.846
1019.00,51.798
1020.00,51.801
1021.00,51.760
1022.00,51.772
1023.00,51.728
1024.00,51.713
1025.00,51.708
1026.00,51.701
1027.00,51.657
1028.00,51.656
1029.00,51.649
1030.00,51.623
1031.00,51.646
1032.00,51.600
1033.00,51.596
1034.00,51.612
1035.00,51.544
1036.00,51.516
1037.00,51.501
1038.00,51.472
1039.00,51.444
1040.00,51.429
1041.00,51.391
1042.00,51.405
1043.00,51.379
1044.00,51.413
1045.00,51.400
1046.00,51.390
1047.00,51.399
1048.00,51.421
1049.00,51.442
1050.00,51.431
1051.00,51.467
1052.00,51.453
1053.00,51.483
1054.00,51.464
1055.00,51.490
1056.00,51.507
1057.00,51.502
1058.00,51.495
1059.00,51.468
1060.00,51.491
1061.00,51.469
1062.00,51.453
1063.00,51.459
1064.00,51.457
1065.00,51.444
1066.00,51.429
1067.00,51.427
1068.00,51.439
1069.00,51.402
1070.00,51.402
1071.00,51.359
1072.00,51.399
1073.00,51.356
1074.00,51.358
1075.00,51.345
1076.00,51.346
1077.00,51.334
1078.00,51.305
1079.00,51.304
1080.00,51.309
1081.00,51.298
1082.00,51.289
1083.00,51.286
1084.00,51.283
1085.00,51.276
1086.00,51.273
1087.00,51.255
1088.00,51.235
1089.00,51.243
1090.00,51.219
1091.00,51.224
1092.00,51.222
1093.00,51.190
1094.00,51.176
1095.00,51.201
1096.00,51.160
1097.00,51.169
1098.00,51.154
1099.00,51.147
1100.00,51.160
1101.00,51.132
1102.00,51.127
1103.00,51.132
1104.00,51.098
1105.00,51.088
1106.00,51.075
1107.00,51.065
1108.00,51.070
1109.00,51.060
1110.00,51.069
1111.00,51.061
1112.00,51.032
1113.00,51.027
1114.00,51.021
1115.00,51.011
1116.00,50.994
1117.00,50.988
1118.00,50.966
1119.00,50.986
1120.00,50.945
1121.00,50.942
1122.00,50.923
1123.00,50.928
1124.00,50.919
1125.00,50.927
1126.00,50.924
1127.00,50.920
1128.00,50.908
1129.00,50.887
1130.00,50.894
1131.00,50.886
1132.00,50.862
1133.00,50.872
1134.00,50.836
1135.00,50.838
1136.00,50.822
1137.00,50.818
1138.00,50.827
1139.00,50.839
1140.00,50.817
1141.00,50.813
1142.00,50.800
1143.00,50.808
1144.00,50.790
1145.00,50.795
1146.00,50.789
1147.00,50.794
1148.00,50.757
1149.00,50.777
1150.00,50.774
1151.00,50.764
1152.00,50.768
1153.00,50.748
1154.00,50.742
1155.00,50.771
1156.00,50.755
1157.00,50.767
1158.00,50.757
1159.00,50.758
1160.00,50.750
1161.00,50.761
1162.00,50.748
1163.00,50.745
1164.00,50.743
1165.00,50.748
1166.00,50.756
1167.00,50.716
1168.00,50.745
1169.00,50.736
1170.00,50.717
1171.00,50.703
1172.00,50.702
1173.00,50.704
1174.00,50.716
1175.00,50.715
1176.00,50.720
1177.00,50.721
1178.00,50.714
1179.00,50.734
1180.00,50.717
1181.00,50.712
1182.00,50.708
1183.00,50.694
1184.00,50.679
1185.00,50.709
1186.00,50.679
1187.00,50.693
1188.00,50.694
1189.00,50.686
1190.00,50.680
1191.00,50.679
1192.00,50.687
1193.00,50.674
1194.00,50.696
1195.00,50.654
1196.00,50.694
1197.00,50.681
1198.00,50.666
1199.00,50.672
1200.00,50.666
1201.00,50.690
1202.00,50.671
1203.00,50.669
1204.00,50.663
1205.00,50.680
1206.00,50.669
1207.00,50.671
1208.00,50.648
1209.00,50.653
1210.00,50.672
1211.00,50.644
1212.00,50.665
1213.00,50.633
1214.00,50.658
1215.00,50.636
1216.00,50.648
1217.00,50.653
1218.00,50.645
1219.00,50.656
1220.00,50.638
1221.00,50.664
1222.00,50.635
1223.00,50.653
1224.00,50.665
1225.00,50.634
1226.00,50.639
1227.00,50.636
1228.00,50.646
1229.00,50.663
1230.00,50.686
1231.00,50.688
1232.00,50.733
1233.00,50.712
1234.00,50.712
1235.00,50.712
1236.00,50.691
1237.00,50.697
1238.00,50.696
1239.00,50.699
1240.00,50.687
1241.00,50.693
1242.00,50.690
1243.00,50.713
1244.00,50.673
1245.00,50.723
1246.00,50.727
1247.00,50.706
1248.00,50.720
1249.00,50.706
1250.00,50.719
1251.00,50.716
1252.00,50.713
1253.00,50.696
1254.00,50.731
1255.00,50.714
1256.00,50.693
1257.00,50.690
1258.00,50.734
1259.00,50.730
1260.00,50.752
1261.00,50.740
1262.00,50.760
1263.00,50.741
1264.00,50.744
1265.00,50.756
1266.00,50.740
1267.00,50.777
1268.00,50.781
1269.00,50.769
1270.00,50.774
1271.00,50.786
1272.00,50.777
1273.00,50.806
1274.00,50.803
1275.00,50.805
1276.00,50.804
1277.00,50.787
1278.00,50.803
1279.00,50.813
1280.00,50.797
1281.00,50.825
1282.00,50.822
1283.00,50.833
1284.00,50.841
1285.00,50.812
1286.00,50.823
1287.00,50.835
1288.00,50.826
1289.00,50.820
1290.00,50.869
1291.00,50.857
1292.00,50.866
1293.00,50.863
1294.00,50.870
1295.00,50.902
1296.00,50.879
1297.00,50.895
1298.00,50.932
1299.00,50.889
1300.00,50.913
1301.00,50.910
1302.00,50.923
1303.00,50.916
1304.00,50.906
1305.00,50.935
1306.00,50.944
1307.00,50.942
1308.00,50.937
1309.00,50.955
1310.00,50.941
1311.00,50.947
1312.00,50.954
1313.00,50.957
1314.00,50.975
1315.00,50.980
1316.00,50.964
1317.00,51.004
1318.00,50.987
1319.00,50.978
1320.00,50.994
1321.00,51.170
1322.00,51.138
1323.00,51.145
1324.00,51.142
1325.00,51.143
1326.00,51.171
1327.00,51.166
1328.00,51.137
1329.00,51.145
1330.00,51.128
1331.00,51.141
1332.00,51.131
1333.00,51.120
1334.00,51.130
1335.00,51.175
1336.00,51.215
1337.00,51.218
1338.00,51.298
1339.00,51.322
1340.00,51.392
1341.00,51.467
1342.00,51.538
1343.00,51.568
1344.00,51.624
1345.00,51.682
1346.00,51.689
1347.00,51.722
1348.00,51.769
1349.00,51.772
1350.00,51.758
1351.00,51.794
1352.00,51.821
1353.00,51.805
1354.00,51.822
1355.00,51.773
1356.00,51.856
1357.00,51.832
1358.00,51.846
1359.00,51.876
1360.00,51.822
1361.00,51.885
1362.00,51.875
1363.00,51.894
1364.00,51.850
1365.00,51.831
1366.00,51.802
1367.00,51.684
1368.00,51.758
1369.00,51.855
1370.00,51.868
1371.00,51.782
1372.00,51.828
1373.00,51.838
1374.00,51.860
1375.00,51.824
1376.00,51.796
1377.00,51.802
1378.00,51.826
1379.00,51.842
1380.00,51.802
1381.00,51.827
1382.00,51.798
1383.00,51.816
1384.00,51.795
1385.00,51.799
1386.00,51.844
1387.00,51.816
1388.00,51.785
1389.00,51.780
1390.00,51.798
1391.00,51.845
1392.00,51.803
1393.00,51.761
1394.00,51.820
1395.00,51.817
1396.00,51.710
1397.00,51.878
1398.00,51.469
1399.00,51.827
1400.00,51.943
1401.00,51.819
1402.00,51.884
1403.00,51.818
1404.00,51.851
1405.00,51.844
1406.00,51.875
1407.00,51.855
1408.00,51.919
1409.00,51.853
1410.00,51.880
1411.00,51.866
1412.00,51.887
1413.00,51.867
1414.00,51.916
1415.00,51.901
1416.00,51.913
1417.00,51.948
1418.00,51.941
1419.00,51.945
1420.00,51.947
1421.00,51.986
1422.00,51.995
1423.00,52.017
1424.00,52.006
1425.00,52.034
1426.00,52.038
1427.00,52.053
1428.00,52.062
1429.00,52.068
1430.00,52.090
1431.00,52.127
1432.00,52.120
1433.00,52.140
1434.00,52.124
1435.00,52.169
1436.00,52.188
1437.00,52.183
1438.00,52.191
1439.00,52.212
1440.00,52.224
1441.00,52.222
1442.00,52.231
1443.00,52.247
1444.00,52.323
1445.00,52.276
1446.00,52.282
1447.00,52.335
1448.00,52.370
1449.00,52.350
1450.00,52.370
1451.00,52.378
1452.00,52.399
1453.00,52.394
1454.00,52.404
1455.00,52.456
1456.00,52.471
1457.00,52.468
1458.00,52.490
1459.00,52.494
1460.00,52.515
1461.00,52.512
1462.00,52.557
1463.00,52.548
1464.00,52.556
1465.00,52.557
1466.00,52.576
1467.00,52.607
1468.00,52.656
1469.00,52.630
1470.00,52.651
1471.00,52.662
1472.00,52.671
1473.00,52.689
1474.00,52.718
1475.00,52.730
1476.00,52.730
1477.00,52.709
1478.00,52.747
1479.00,52.737
1480.00,52.778
1481.00,52.790
1482.00,52.799
1483.00,52.818
1484.00,52.838
1485.00,52.843
1486.00,52.854
1487.00,52.872
1488.00,52.901
1489.00,52.880
1490.00,52.899
1491.00,52.919
1492.00,52.937
1493.00,52.919
1494.00,52.949
1495.00,52.939
1496.00,52.956
1497.00,52.950
1498.00,52.965
1499.00,52.989
1500.00,53.014
1501.00, 
1502.00, 
1503.00, 
1504.00, 
1505.00, 
1506.00, 
1507.00, 
1508.00, 
1509.00, 
1510.00, 
1511.00, 
1512.00, 
1513.00, 
1514.00, 
1515.00, 
1516.00, 
1517.00, 
1518.00, 
1519.00, 
1520.00, 
1521.00, 
1522.00, 
1523.00, 
1524.00, 
1525.00, 
1526.00, 
1527.00, 
1528.00, 
1529.00, 
1530.00, 
1531.00, 
1532.00, 
1533.00, 
1534.00, 
1535.00, 
1536.00, 
1537.00, 
1538.00, 
1539.00, 
1540.00, 
1541.00, 
1542.00, 
1543.00, 
1544.00, 
1545.00, 
1546.00, 
1547.00, 
1548.00, 
1549.00, 
1550.00, 
1551.00, 
1552.00, 
1553.00, 
1554.00, 
1555.00, 
1556.00, 
1557.00, 
1558.00, 
1559.00, 
1560.00, 
1561.00, 
1562.00, 
1563.00, 
1564.00, 
1565.00, 
1566.00, 
1567.00, 
1568.00, 
1569.00, 
1570.00, 
1571.00, 
1572.00, 
1573.00, 
1574.00, 
1575.00, 
1576.00, 
1577.00, 
1578.00, 
1579.00, 
1580.00, 
1581.00, 
1582.00, 
1583.00, 
1584.00, 
1585.00, 
1586.00, 
1587.00, 
1588.00, 
1589.00, 
1590.00, 
1591.00, 
1592.00, 
1593.00, 
1594.00, 
1595.00, 
1596.00, 
1597.00, 
1598.00, 
1599.00, 
1600.00, 
1601.00, 
1602.00, 
1603.00, 
1604.00, 
1605.00, 
1606.00, 
1607.00, 
1608.00, 
1609.00, 
1610.00, 
1611.00, 
1612.00, 
1613.00, 
1614.00, 
1615.00, 
1616.00, 
1617.00, 
1618.00, 
1619.00, 
1620.00, 
1621.00, 
1622.00, 
1623.00, 
1624.00, 
1625.00, 
1626.00, 
1627.00, 
1628.00, 
1629.00, 
1630.00, 
1631.00, 
1632.00, 
1633.00, 
1634.00, 
1635.00, 
1636.00, 
1637.00, 
1638.00, 
1639.00, 
1640.00, 
1641.00, 
1642.00, 
1643.00, 
1644.00, 
1645.00, 
1646.00, 
1647.00, 
1648.00, 
1649.00, 
1650.00, 
1651.00, 
1652.00, 
1653.00, 
1654.00, 
1655.00, 
1656.00, 
1657.00, 
1658.00, 
1659.00, 
1660.00, 
1661.00, 
1662.00, 
1663.00, 
1664.00, 
1665.00, 
1666.00, 
1667.00, 
1668.00, 
1669.00, 
1670.00, 
1671.00, 
1672.00, 
1673.00, 
1674.00, 
1675.00, 
1676.00, 
1677.00, 
1678.00, 
1679.00, 
1680.00, 
1681.00, 
1682.00, 
1683.00, 
1684.00, 
1685.00, 
1686.00, 
1687.00, 
1688.00, 
1689.00, 
1690.00, 
1691.00, 
1692.00, 
1693.00, 
1694.00, 
1695.00, 
1696.00, 
1697.00, 
1698.00, 
1699.00, 
1700.00, 
1701.00, 
1702.00, 
1703.00, 
1704.00, 
1705.00, 
1706.00, 
1707.00, 
1708.00, 
1709.00, 
1710.00, 
1711.00, 
1712.00, 
1713.00, 
1714.00, 
1715.00, 
1716.00, 
1717.00, 
1718.00, 
1719.00, 
1720.00, 
1721.00, 
1722.00, 
1723.00, 
1724.00, 
1725.00, 
1726.00, 
1727.00, 
1728.00, 
1729.00, 
1730.00, 
1731.00, 
1732.00, 
1733.00, 
1734.00, 
1735.00, 
1736.00, 
1737.00, 
1738.00, 
1739.00, 
1740.00, 
1741.00, 
1742.00, 
1743.00, 
1744.00, 
1745.00, 
1746.00, 
1747.00, 
1748.00, 
1749.00, 
1750.00, 
1751.00, 
1752.00, 
1753.00, 
1754.00, 
1755.00, 
1756.00, 
1757.00, 
1758.00, 
1759.00, 
1760.00, 
1761.00, 
1762.00, 
1763.00, 
1764.00, 
1765.00, 
1766.00, 
1767.00, 
1768.00, 
1769.00, 
1770.00, 
1771.00, 
1772.00, 
1773.00, 
1774.00, 
1775.00, 
1776.00, 
1777.00, 
1778.00, 
1779.00, 
1780.00, 
1781.00, 
1782.00, 
1783.00, 
1784.00, 
1785.00, 
1786.00, 
1787.00, 
1788.00, 
1789.00, 
1790.00, 
1791.00, 
1792.00, 
1793.00, 
1794.00, 
1795.00, 
1796.00, 
1797.00, 
1798.00, 
1799.00, 
1800.00, 
1801.00, 
1802.00, 
1803.00, 
1804.00, 
1805.00, 
1806.00, 
1807.00, 
1808.00, 
1809.00, 
1810.00, 
1811.00, 
1812.00, 
1813.00, 
1814.00, 
1815.00, 
1816.00, 
1817.00, 
1818.00, 
1819.00, 
1820.00, 
1821.00, 
1822.00, 
1823.00, 
1824.00, 
1825.00, 
1826.00, 
1827.00, 
1828.00, 
1829.00, 
1830.00, 
1831.00, 
1832.00, 
1833.00, 
1834.00, 
1835.00, 
1836.00, 
1837.00, 
1838.00, 
1839.00, 
1840.00, 
1841.00, 
1842.00, 
1843.00, 
1844.00, 
1845.00, 
1846.00, 
1847.00, 
1848.00, 
1849.00, 
1850.00, 
1851.00, 
1852.00, 
1853.00, 
1854.00, 
1855.00, 
1856.00, 
1857.00, 
1858.00, 
1859.00, 
1860.00, 
1861.00, 
1862.00, 
1863.00, 
1864.00, 
1865.00, 
1866.00, 
1867.00, 
1868.00, 
1869.00, 
1870.00, 
1871.00, 
1872.00, 
1873.00, 
1874.00, 
1875.00, 
1876.00, 
1877.00, 
1878.00, 
1879.00, 
1880.00, 
1881.00, 
1882.00, 
1883.00, 
1884.00, 
1885.00, 
1886.00, 
1887.00, 
1888.00, 
1889.00, 
1890.00, 
1891.00, 
1892.00, 
1893.00, 
1894.00, 
1895.00, 
1896.00, 
1897.00, 
1898.00, 
1899.00, 
1900.00, 
1901.00, 
1902.00, 
1903.00, 
1904.00, 
1905.00, 
1906.00, 
1907.00, 
1908.00, 
1909.00, 
1910.00, 
1911.00, 
1912.00, 
1913.00, 
1914.00, 
1915.00, 
1916.00, 
1917.00, 
1918.00, 
1919.00, 
1920.00, 
1921.00, 
1922.00, 
1923.00, 
1924.00, 
1925.00, 
1926.00, 
1927.00, 
1928.00, 
1929.00, 
1930.00, 
1931.00, 
1932.00, 
1933.00, 
1934.00, 
1935.00, 
1936.00, 
1937.00, 
1938.00, 
1939.00, 
1940.00, 
1941.00, 
1942.00, 
1943.00, 
1944.00, 
1945.00, 
1946.00, 
1947.00, 
1948.00, 
1949.00, 
1950.00, 
1951.00, 
1952.00, 
1953.00, 
1954.00, 
1955.00, 
1956.00, 
1957.00, 
1958.00, 
1959.00, 
1960.00, 
1961.00, 
1962.00, 
1963.00, 
1964.00, 
1965.00, 
1966.00, 
1967.00, 
1968.00, 
1969.00, 
1970.00, 
1971.00, 
1972.00, 
1973.00, 
1974.00, 
1975.00, 
1976.00, 
1977.00, 
1978.00, 
1979.00, 
1980.00, 
1981.00, 
1982.00, 
1983.00, 
1984.00, 
1985.00, 
1986.00, 
1987.00, 
1988.00, 
1989.00, 
1990.00, 
1991.00, 
1992.00, 
1993.00, 
1994.00, 
1995.00, 
1996.00, 
1997.00, 
1998.00, 
1999.00, 
2000.00, 
2001.00, 
2002.00, 
2003.00, 
2004.00, 
2005.00, 
2006.00, 
2007.00, 
2008.00, 
2009.00, 
2010.00, 
2011.00, 
2012.00, 
2013.00, 
2014.00, 
2015.00, 
2016.00, 
2017.00, 
2018.00, 
2019.00, 
2020.00, 
2021.00, 
2022.00, 
2023.00, 
2024.00, 
2025.00, 
2026.00, 
2027.00, 
2028.00, 
2029.00, 
2030.00, 
2031.00, 
2032.00, 
2033.00, 
2034.00, 
2035.00, 
2036.00, 
2037.00, 
2038.00, 
2039.00, 
2040.00, 
2041.00, 
2042.00, 
2043.00, 
2044.00, 
2045.00, 
2046.00, 
2047.00, 
2048.00, 
2049.00, 
2050.00, 
2051.00, 
2052.00, 
2053.00, 
2054.00, 
2055.00, 
2056.00, 
2057.00, 
2058.00, 
2059.00, 
2060.00, 
2061.00, 
2062.00, 
2063.00, 
2064.00, 
2065.00, 
2066.00, 
2067.00, 
2068.00, 
2069.00, 
2070.00, 
2071.00, 
2072.00, 
2073.00, 
2074.00, 
2075.00, 
2076.00, 
2077.00, 
2078.00, 
2079.00, 
2080.00, 
2081.00, 
2082.00, 
2083.00, 
2084.00, 
2085.00, 
2086.00, 
2087.00, 
2088.00, 
2089.00, 
2090.00, 
2091.00, 
2092.00, 
2093.00, 
2094.00, 
2095.00, 
2096.00, 
2097.00, 
2098.00, 
2099.00, 
2100.00, 
2101.00, 
2102.00, 
2103.00, 
2104.00, 
2105.00, 
2106.00, 
2107.00, 
2108.00, 
2109.00, 
2110.00, 
2111.00, 
2112.00, 
2113.00, 
2114.00, 
2115.00, 
2116.00, 
2117.00, 
2118.00, 
2119.00, 
2120.00, 
2121.00, 
2122.00, 
2123.00, 
2124.00, 
2125.00, 
2126.00, 
2127.00, 
2128.00, 
2129.00, 
2130.00, 
2131.00, 
2132.00, 
2133.00, 
2134.00, 
2135.00, 
2136.00, 
2137.00, 
2138.00, 
2139.00, 
2140.00, 
2141.00, 
2142.00, 
2143.00, 
2144.00, 
2145.00, 
2146.00, 
2147.00, 
2148.00, 
2149.00, 
2150.00, 
2151.00, 
2152.00, 
2153.00, 
2154.00, 
2155.00, 
2156.00, 
2157.00, 
2158.00, 
2159.00, 
2160.00, 
2161.00, 
2162.00, 
2163.00, 
2164.00, 
2165.00, 
2166.00, 
2167.00, 
2168.00, 
2169.00, 
2170.00, 
2171.00, 
2172.00, 
2173.00, 
2174.00, 
2175.00, 
2176.00, 
2177.00, 
2178.00, 
2179.00, 
2180.00, 
2181.00, 
2182.00, 
2183.00, 
2184.00, 
2185.00, 
2186.00, 
2187.00, 
2188.00, 
2189.00, 
2190.00, 
2191.00, 
2192.00, 
2193.00, 
2194.00, 
2195.00, 
2196.00, 
2197.00, 
2198.00, 
2199.00, 
2200.00, 
2201.00, 
2202.00, 
2203.00, 
2204.00, 
2205.00, 
2206.00, 
2207.00, 
2208.00, 
2209.00, 
2210.00, 
2211.00, 
2212.00, 
2213.00, 
2214.00, 
2215.00, 
2216.00, 
2217.00, 
2218.00, 
2219.00, 
2220.00, 
2221.00, 
2222.00, 
2223.00, 
2224.00, 
2225.00, 
2226.00, 
2227.00, 
2228.00, 
2229.00, 
2230.00, 
2231.00, 
2232.00, 
2233.00, 
2234.00, 
2235.00, 
2236.00, 
2237.00, 
2238.00, 
2239.00, 
2240.00, 
2241.00, 
2242.00, 
2243.00, 
2244.00, 
2245.00, 
2246.00, 
2247.00, 
2248.00, 
2249.00, 
2250.00, 
2251.00, 
2252.00, 
2253.00, 
2254.00, 
2255.00, 
2256.00, 
2257.00, 
2258.00, 
2259.00, 
2260.00, 
2261.00, 
2262.00, 
2263.00, 
2264.00, 
2265.00, 
2266.00, 
2267.00, 
2268.00, 
2269.00, 
2270.00, 
2271.00, 
2272.00, 
2273.00, 
2274.00, 
2275.00, 
2276.00, 
2277.00, 
2278.00, 
2279.00, 
2280.00, 
2281.00, 
2282.00, 
2283.00, 
2284.00, 
2285.00, 
2286.00, 
2287.00, 
2288.00, 
2289.00, 
2290.00, 
2291.00, 
2292.00, 
2293.00, 
2294.00, 
2295.00, 
2296.00, 
2297.00, 
2298.00, 
2299.00, 
2300.00, 
2301.00, 
2302.00, 
2303.00, 
2304.00, 
2305.00, 
2306.00, 
2307.00, 
2308.00, 
2309.00, 
2310.00, 
2311.00, 
2312.00, 
2313.00, 
2314.00, 
2315.00, 
2316.00, 
2317.00, 
2318.00, 
2319.00, 
2320.00, 
2321.00, 
2322.00, 
2323.00, 
2324.00, 
2325.00, 
2326.00, 
2327.00, 
2328.00, 
2329.00, 
2330.00, 
2331.00, 
2332.00, 
2333.00, 
2334.00, 
2335.00, 
2336.00, 
2337.00, 
2338.00, 
2339.00, 
2340.00, 
2341.00, 
2342.00, 
2343.00, 
2344.00, 
2345.00, 
2346.00, 
2347.00, 
2348.00, 
2349.00, 
2350.00, 
2351.00, 
2352.00, 
2353.00, 
2354.00, 
2355.00, 
2356.00, 
2357.00, 
2358.00, 
2359.00, 
2360.00, 
2361.00, 
2362.00, 
2363.00, 
2364.00, 
2365.00, 
2366.00, 
2367.00, 
2368.00, 
2369.00, 
2370.00, 
2371.00, 
2372.00, 
2373.00, 
2374.00, 
2375.00, 
2376.00, 
2377.00, 
2378.00, 
2379.00, 
2380.00, 
2381.00, 
2382.00, 
2383.00, 
2384.00, 
2385.00, 
2386.00, 
2387.00, 
2388.00, 
2389.00, 
2390.00, 
2391.00, 
2392.00, 
2393.00, 
2394.00, 
2395.00, 
2396.00, 
2397.00, 
2398.00, 
2399.00, 
2400.00, 
2401.00, 
2402.00, 
2403.00, 
2404.00, 
2405.00, 
2406.00, 
2407.00, 
2408.00, 
2409.00, 
2410.00, 
2411.00, 
2412.00, 
2413.00, 
2414.00, 
2415.00, 
2416.00, 
2417.00, 
2418.00, 
2419.00, 
2420.00, 
2421.00, 
2422.00, 
2423.00, 
2424.00, 
2425.00, 
2426.00, 
2427.00, 
2428.00, 
2429.00, 
2430.00, 
2431.00, 
2432.00, 
2433.00, 
2434.00, 
2435.00, 
2436.00, 
2437.00, 
2438.00, 
2439.00, 
2440.00, 
2441.00, 
2442.00, 
2443.00, 
2444.00, 
2445.00, 
2446.00, 
2447.00, 
2448.00, 
2449.00, 
2450.00, 
2451.00, 
2452.00, 
2453.00, 
2454.00, 
2455.00, 
2456.00, 
2457.00, 
2458.00, 
2459.00, 
2460.00, 
2461.00, 
2462.00, 
2463.00, 
2464.00, 
2465.00, 
2466.00, 
2467.00, 
2468.00, 
2469.00, 
2470.00, 
2471.00, 
2472.00, 
2473.00, 
2474.00, 
2475.00, 
2476.00, 
2477.00, 
2478.00, 
2479.00, 
2480.00, 
2481.00, 
2482.00, 
2483.00, 
2484.00, 
2485.00, 
2486.00, 
2487.00, 
2488.00, 
2489.00, 
2490.00, 
2491.00, 
2492.00, 
2493.00, 
2494.00, 
2495.00, 
2496.00, 
2497.00, 
2498.00, 
2499.00, 
2500.00, 
2501.00, 
2502.00, 
2503.00, 
2504.00, 
2505.00, 
2506.00, 
2507.00, 
2508.00, 
2509.00, 
2510.00, 
2511.00, 
2512.00, 
2513.00, 
2514.00, 
2515.00, 
2516.00, 
2517.00, 
2518.00, 
2519.00, 
2520.00, 
2521.00, 
2522.00, 
2523.00, 
2524.00, 
2525.00, 
2526.00, 
2527.00, 
2528.00, 
2529.00, 
2530.00, 
2531.00, 
2532.00, 
2533.00, 
2534.00, 
2535.00, 
2536.00, 
2537.00, 
2538.00, 
2539.00, 
2540.00, 
2541.00, 
2542.00, 
2543.00, 
2544.00, 
2545.00, 
2546.00, 
2547.00, 
2548.00, 
2549.00, 
2550.00, 
2551.00, 
2552.00, 
2553.00, 
2554.00, 
2555.00, 
2556.00, 
2557.00, 
2558.00, 
2559.00, 
2560.00, 
2561.00, 
2562.00, 
2563.00, 
2564.00, 
2565.00, 
2566.00, 
2567.00, 
2568.00, 
2569.00, 
2570.00, 
2571.00, 
2572.00, 
2573.00, 
2574.00, 
2575.00, 
2576.00, 
2577.00, 
2578.00, 
2579.00, 
2580.00, 
2581.00, 
2582.00, 
2583.00, 
2584.00, 
2585.00, 
2586.00, 
2587.00, 
2588.00, 
2589.00, 
2590.00, 
2591.00, 
2592.00, 
2593.00, 
2594.00, 
2595.00, 
2596.00, 
2597.00, 
2598.00, 
2599.00, 
2600.00, 
