"2cP2 - RawData"
"Wavelength nm.","T%"
200.00,0.002
201.00,0.000
202.00,0.004
203.00,0.003
204.00,-0.001
205.00,0.002
206.00,0.001
207.00,0.005
208.00,0.003
209.00,-0.002
210.00,0.001
211.00,0.002
212.00,0.001
213.00,0.002
214.00,-0.001
215.00,0.001
216.00,0.003
217.00,0.000
218.00,0.002
219.00,0.003
220.00,-0.000
221.00,0.003
222.00,0.003
223.00,-0.001
224.00,-0.001
225.00,0.003
226.00,0.000
227.00,0.002
228.00,-0.001
229.00,0.002
230.00,0.001
231.00,0.001
232.00,0.002
233.00,0.000
234.00,0.001
235.00,0.001
236.00,-0.001
237.00,-0.000
238.00,0.001
239.00,0.001
240.00,0.001
241.00,-0.000
242.00,0.002
243.00,0.000
244.00,-0.001
245.00,0.002
246.00,0.000
247.00,0.002
248.00,0.001
249.00,0.002
250.00,-0.000
251.00,0.001
252.00,0.000
253.00,0.001
254.00,-0.001
255.00,0.001
256.00,0.001
257.00,0.001
258.00,0.001
259.00,-0.000
260.00,-0.001
261.00,0.000
262.00,0.000
263.00,-0.001
264.00,0.000
265.00,0.000
266.00,0.002
267.00,0.000
268.00,0.001
269.00,0.001
270.00,-0.000
271.00,-0.001
272.00,-0.001
273.00,0.001
274.00,-0.001
275.00,0.001
276.00,-0.000
277.00,-0.001
278.00,0.002
279.00,0.000
280.00,-0.001
281.00,-0.000
282.00,0.003
283.00,0.000
284.00,0.000
285.00,0.001
286.00,-0.001
287.00,-0.001
288.00,-0.001
289.00,0.001
290.00,0.001
291.00,-0.003
292.00,-0.000
293.00,0.001
294.00,-0.000
295.00,0.001
296.00,0.002
297.00,0.001
298.00,-0.000
299.00,0.002
300.00,0.003
301.00,0.005
302.00,0.009
303.00,0.015
304.00,0.024
305.00,0.032
306.00,0.051
307.00,0.077
308.00,0.116
309.00,0.181
310.00,0.261
311.00,0.351
312.00,0.485
313.00,0.664
314.00,0.866
315.00,1.132
316.00,1.432
317.00,1.829
318.00,2.244
319.00,2.770
320.00,3.377
321.00,4.069
322.00,4.805
323.00,5.659
324.00,6.545
325.00,7.460
326.00,8.380
327.00,9.478
328.00,10.622
329.00,11.751
330.00,12.974
331.00,14.244
332.00,15.423
333.00,16.655
334.00,17.877
335.00,19.232
336.00,20.430
337.00,21.667
338.00,22.958
339.00,24.115
340.00,25.296
341.00,26.397
342.00,27.493
343.00,28.521
344.00,29.611
345.00,30.592
346.00,31.411
347.00,32.332
348.00,33.143
349.00,34.040
350.00,34.737
351.00,35.438
352.00,36.129
353.00,36.801
354.00,37.392
355.00,37.911
356.00,38.543
357.00,39.020
358.00,39.504
359.00,40.007
360.00,40.441
361.00,40.704
362.00,41.005
363.00,41.548
364.00,41.885
365.00,42.181
366.00,42.457
367.00,42.667
368.00,42.946
369.00,43.115
370.00,43.260
371.00,43.403
372.00,43.483
373.00,43.583
374.00,43.607
375.00,43.662
376.00,43.656
377.00,43.691
378.00,43.636
379.00,43.598
380.00,43.675
381.00,43.658
382.00,43.845
383.00,43.921
384.00,44.007
385.00,44.238
386.00,44.237
387.00,44.421
388.00,44.544
389.00,44.753
390.00,44.936
391.00,45.007
392.00,45.135
393.00,45.194
394.00,45.319
395.00,45.430
396.00,45.470
397.00,45.603
398.00,45.638
399.00,45.679
400.00,45.686
401.00,45.791
402.00,45.792
403.00,45.854
404.00,45.922
405.00,45.923
406.00,45.898
407.00,45.851
408.00,45.854
409.00,45.813
410.00,45.769
411.00,45.790
412.00,45.684
413.00,45.745
414.00,45.686
415.00,45.741
416.00,45.741
417.00,45.699
418.00,45.762
419.00,45.863
420.00,45.778
421.00,45.997
422.00,45.979
423.00,45.983
424.00,45.979
425.00,46.021
426.00,46.056
427.00,46.111
428.00,46.101
429.00,46.090
430.00,46.118
431.00,46.104
432.00,46.129
433.00,46.221
434.00,46.162
435.00,46.216
436.00,46.286
437.00,46.354
438.00,46.382
439.00,46.361
440.00,46.398
441.00,46.490
442.00,46.498
443.00,46.464
444.00,46.550
445.00,46.553
446.00,46.581
447.00,46.558
448.00,46.790
449.00,46.862
450.00,46.884
451.00,46.970
452.00,46.995
453.00,47.037
454.00,47.059
455.00,47.071
456.00,47.161
457.00,47.258
458.00,47.242
459.00,47.345
460.00,47.404
461.00,47.465
462.00,47.518
463.00,47.542
464.00,47.636
465.00,47.695
466.00,47.687
467.00,47.770
468.00,47.797
469.00,47.826
470.00,47.801
471.00,47.811
472.00,47.840
473.00,47.829
474.00,47.850
475.00,47.871
476.00,47.829
477.00,47.902
478.00,47.877
479.00,48.103
480.00,48.146
481.00,48.201
482.00,48.267
483.00,48.343
484.00,48.440
485.00,48.552
486.00,48.566
487.00,48.665
488.00,48.719
489.00,48.806
490.00,48.855
491.00,48.856
492.00,49.004
493.00,49.017
494.00,48.987
495.00,49.094
496.00,49.115
497.00,49.086
498.00,49.198
499.00,49.256
500.00,49.191
501.00,49.280
502.00,49.384
503.00,49.432
504.00,49.419
505.00,49.452
506.00,49.546
507.00,49.577
508.00,49.637
509.00,49.715
510.00,49.740
511.00,49.770
512.00,49.798
513.00,49.864
514.00,49.972
515.00,49.897
516.00,50.052
517.00,50.048
518.00,50.160
519.00,50.079
520.00,50.092
521.00,50.069
522.00,50.104
523.00,50.158
524.00,50.151
525.00,50.233
526.00,50.271
527.00,50.291
528.00,50.353
529.00,50.331
530.00,50.365
531.00,50.491
532.00,50.552
533.00,50.355
534.00,50.643
535.00,50.631
536.00,50.723
537.00,50.733
538.00,50.765
539.00,50.798
540.00,50.803
541.00,50.821
542.00,50.824
543.00,50.965
544.00,50.862
545.00,50.888
546.00,50.881
547.00,50.903
548.00,50.884
549.00,51.023
550.00,51.134
551.00,51.058
552.00,51.170
553.00,51.197
554.00,51.247
555.00,51.267
556.00,51.255
557.00,51.328
558.00,51.336
559.00,51.315
560.00,51.398
561.00,51.422
562.00,51.312
563.00,51.369
564.00,51.423
565.00,51.436
566.00,51.424
567.00,51.451
568.00,51.362
569.00,51.419
570.00,51.403
571.00,51.415
572.00,51.421
573.00,51.418
574.00,51.498
575.00,51.398
576.00,51.414
577.00,51.447
578.00,51.432
579.00,51.594
580.00,51.672
581.00,51.698
582.00,51.701
583.00,51.793
584.00,51.880
585.00,51.823
586.00,51.914
587.00,51.946
588.00,51.909
589.00,51.877
590.00,51.925
591.00,51.976
592.00,51.828
593.00,51.910
594.00,51.880
595.00,51.970
596.00,51.980
597.00,52.056
598.00,52.091
599.00,52.081
600.00,52.172
601.00,52.135
602.00,52.052
603.00,52.057
604.00,52.073
605.00,51.938
606.00,51.983
607.00,51.986
608.00,52.183
609.00,52.171
610.00,52.156
611.00,52.182
612.00,52.218
613.00,52.141
614.00,52.173
615.00,52.174
616.00,52.269
617.00,52.199
618.00,52.194
619.00,52.191
620.00,52.199
621.00,52.179
622.00,52.295
623.00,52.299
624.00,52.271
625.00,52.230
626.00,52.262
627.00,52.264
628.00,52.230
629.00,52.183
630.00,52.267
631.00,52.317
632.00,52.238
633.00,52.305
634.00,52.253
635.00,52.291
636.00,52.412
637.00,52.360
638.00,52.375
639.00,52.347
640.00,52.312
641.00,52.381
642.00,52.323
643.00,52.314
644.00,52.383
645.00,52.333
646.00,52.394
647.00,52.362
648.00,52.384
649.00,52.436
650.00,52.301
651.00,52.352
652.00,52.364
653.00,52.377
654.00,52.392
655.00,52.418
656.00,52.433
657.00,52.564
658.00,52.490
659.00,52.537
660.00,52.432
661.00,52.303
662.00,52.512
663.00,52.436
664.00,52.470
665.00,52.402
666.00,52.413
667.00,52.435
668.00,52.505
669.00,52.416
670.00,52.544
671.00,52.498
672.00,52.375
673.00,52.486
674.00,52.521
675.00,52.445
676.00,52.436
677.00,52.411
678.00,52.380
679.00,52.374
680.00,52.419
681.00,52.457
682.00,52.368
683.00,52.438
684.00,52.458
685.00,52.366
686.00,52.416
687.00,52.408
688.00,52.399
689.00,52.287
690.00,52.349
691.00,52.417
692.00,52.250
693.00,52.344
694.00,52.360
695.00,52.387
696.00,52.404
697.00,52.364
698.00,52.289
699.00,52.253
700.00,52.478
701.00,52.278
702.00,52.343
703.00,52.387
704.00,52.271
705.00,52.126
706.00,52.127
707.00,52.313
708.00,52.060
709.00,52.159
710.00,52.423
711.00,51.868
712.00,51.911
713.00,52.277
714.00,52.145
715.00,52.044
716.00,52.206
717.00,52.038
718.00,52.125
719.00,51.993
720.00,51.950
721.00,56.429
722.00,56.393
723.00,56.178
724.00,56.160
725.00,56.127
726.00,56.062
727.00,55.933
728.00,55.965
729.00,55.798
730.00,55.802
731.00,55.777
732.00,55.761
733.00,55.725
734.00,55.680
735.00,55.627
736.00,55.622
737.00,55.488
738.00,55.497
739.00,55.430
740.00,55.436
741.00,55.374
742.00,55.272
743.00,55.216
744.00,55.172
745.00,55.193
746.00,55.191
747.00,54.924
748.00,54.950
749.00,54.925
750.00,54.859
751.00,54.813
752.00,54.858
753.00,54.783
754.00,54.689
755.00,54.581
756.00,54.553
757.00,54.469
758.00,54.443
759.00,54.466
760.00,54.316
761.00,54.365
762.00,54.365
763.00,54.326
764.00,54.291
765.00,54.224
766.00,54.192
767.00,54.102
768.00,54.130
769.00,54.037
770.00,54.061
771.00,54.047
772.00,54.022
773.00,54.013
774.00,53.899
775.00,53.853
776.00,53.809
777.00,53.909
778.00,53.780
779.00,53.739
780.00,53.725
781.00,53.706
782.00,53.616
783.00,53.559
784.00,53.610
785.00,53.556
786.00,53.447
787.00,53.509
788.00,53.410
789.00,53.446
790.00,53.298
791.00,53.283
792.00,53.296
793.00,53.166
794.00,53.196
795.00,53.138
796.00,53.117
797.00,53.051
798.00,53.015
799.00,52.946
800.00,52.944
801.00,52.863
802.00,52.892
803.00,52.873
804.00,52.858
805.00,52.771
806.00,52.773
807.00,52.719
808.00,52.757
809.00,52.629
810.00,52.660
811.00,52.605
812.00,52.541
813.00,52.526
814.00,52.489
815.00,52.437
816.00,52.447
817.00,52.347
818.00,52.357
819.00,52.307
820.00,52.216
821.00,52.210
822.00,52.174
823.00,52.226
824.00,52.130
825.00,52.051
826.00,52.147
827.00,52.076
828.00,52.045
829.00,52.043
830.00,52.062
831.00,54.613
832.00,54.601
833.00,54.528
834.00,54.516
835.00,54.468
836.00,54.427
837.00,54.428
838.00,54.345
839.00,54.329
840.00,54.279
841.00,54.275
842.00,54.255
843.00,54.224
844.00,54.203
845.00,54.108
846.00,54.126
847.00,54.128
848.00,54.076
849.00,54.002
850.00,53.982
851.00,54.022
852.00,53.883
853.00,53.829
854.00,53.834
855.00,53.771
856.00,53.738
857.00,53.698
858.00,53.678
859.00,53.656
860.00,53.627
861.00,53.569
862.00,53.564
863.00,53.562
864.00,53.521
865.00,53.522
866.00,53.636
867.00,53.422
868.00,53.426
869.00,53.400
870.00,53.387
871.00,53.371
872.00,53.350
873.00,53.326
874.00,53.320
875.00,53.320
876.00,53.287
877.00,53.263
878.00,53.255
879.00,53.181
880.00,53.213
881.00,53.168
882.00,53.166
883.00,53.141
884.00,53.100
885.00,53.071
886.00,53.056
887.00,53.034
888.00,53.007
889.00,52.974
890.00,52.959
891.00,52.932
892.00,52.916
893.00,52.874
894.00,52.873
895.00,52.837
896.00,52.825
897.00,52.786
898.00,52.763
899.00,52.774
900.00,52.716
901.00,52.734
902.00,52.716
903.00,52.673
904.00,52.675
905.00,52.616
906.00,52.611
907.00,52.596
908.00,52.573
909.00,52.472
910.00,52.629
911.00,52.493
912.00,52.502
913.00,52.419
914.00,52.429
915.00,52.406
916.00,52.398
917.00,52.338
918.00,52.333
919.00,52.299
920.00,52.247
921.00,52.299
922.00,52.232
923.00,52.226
924.00,52.197
925.00,52.170
926.00,52.142
927.00,52.130
928.00,52.093
929.00,52.090
930.00,52.054
931.00,52.065
932.00,52.004
933.00,52.005
934.00,51.993
935.00,51.989
936.00,51.957
937.00,51.937
938.00,51.903
939.00,51.896
940.00,51.860
941.00,51.849
942.00,51.802
943.00,51.822
944.00,51.757
945.00,51.777
946.00,51.890
947.00,51.730
948.00,51.710
949.00,51.681
950.00,51.657
951.00,51.641
952.00,51.613
953.00,51.573
954.00,51.548
955.00,51.506
956.00,51.495
957.00,51.457
958.00,51.471
959.00,51.463
960.00,51.421
961.00,51.379
962.00,51.405
963.00,51.353
964.00,51.357
965.00,51.328
966.00,51.313
967.00,51.338
968.00,51.287
969.00,51.296
970.00,51.263
971.00,51.271
972.00,51.246
973.00,51.278
974.00,51.206
975.00,51.257
976.00,51.276
977.00,51.271
978.00,51.303
979.00,51.291
980.00,51.282
981.00,51.334
982.00,51.237
983.00,51.253
984.00,51.237
985.00,51.251
986.00,51.211
987.00,51.205
988.00,51.216
989.00,51.195
990.00,51.191
991.00,51.170
992.00,51.201
993.00,51.157
994.00,51.142
995.00,51.123
996.00,51.102
997.00,51.113
998.00,51.071
999.00,51.092
1000.00,51.039
1001.00,51.046
1002.00,51.019
1003.00,51.024
1004.00,51.008
1005.00,50.964
1006.00,50.997
1007.00,50.963
1008.00,50.963
1009.00,50.930
1010.00,50.909
1011.00,50.921
1012.00,50.918
1013.00,50.894
1014.00,50.849
1015.00,50.874
1016.00,50.819
1017.00,50.820
1018.00,50.808
1019.00,50.770
1020.00,50.756
1021.00,50.733
1022.00,50.754
1023.00,50.711
1024.00,50.708
1025.00,50.708
1026.00,50.681
1027.00,50.637
1028.00,50.664
1029.00,50.626
1030.00,50.599
1031.00,50.594
1032.00,50.562
1033.00,50.566
1034.00,50.538
1035.00,50.504
1036.00,50.480
1037.00,50.457
1038.00,50.449
1039.00,50.429
1040.00,50.421
1041.00,50.379
1042.00,50.375
1043.00,50.336
1044.00,50.372
1045.00,50.354
1046.00,50.340
1047.00,50.351
1048.00,50.376
1049.00,50.375
1050.00,50.380
1051.00,50.404
1052.00,50.420
1053.00,50.444
1054.00,50.421
1055.00,50.443
1056.00,50.443
1057.00,50.447
1058.00,50.457
1059.00,50.428
1060.00,50.431
1061.00,50.421
1062.00,50.406
1063.00,50.429
1064.00,50.405
1065.00,50.399
1066.00,50.388
1067.00,50.373
1068.00,50.383
1069.00,50.364
1070.00,50.343
1071.00,50.321
1072.00,50.346
1073.00,50.325
1074.00,50.318
1075.00,50.299
1076.00,50.274
1077.00,50.275
1078.00,50.273
1079.00,50.252
1080.00,50.257
1081.00,50.239
1082.00,50.226
1083.00,50.223
1084.00,50.214
1085.00,50.203
1086.00,50.216
1087.00,50.190
1088.00,50.199
1089.00,50.211
1090.00,50.170
1091.00,50.167
1092.00,50.159
1093.00,50.141
1094.00,50.128
1095.00,50.112
1096.00,50.105
1097.00,50.104
1098.00,50.095
1099.00,50.078
1100.00,50.065
1101.00,50.036
1102.00,50.046
1103.00,50.033
1104.00,50.022
1105.00,50.000
1106.00,49.999
1107.00,49.996
1108.00,50.001
1109.00,49.988
1110.00,49.996
1111.00,49.982
1112.00,49.966
1113.00,49.962
1114.00,49.961
1115.00,49.946
1116.00,49.942
1117.00,49.914
1118.00,49.921
1119.00,49.914
1120.00,49.900
1121.00,49.882
1122.00,49.860
1123.00,49.883
1124.00,49.875
1125.00,49.860
1126.00,49.872
1127.00,49.871
1128.00,49.856
1129.00,49.832
1130.00,49.832
1131.00,49.816
1132.00,49.813
1133.00,49.810
1134.00,49.820
1135.00,49.797
1136.00,49.789
1137.00,49.782
1138.00,49.791
1139.00,49.792
1140.00,49.782
1141.00,49.763
1142.00,49.762
1143.00,49.773
1144.00,49.751
1145.00,49.747
1146.00,49.754
1147.00,49.743
1148.00,49.728
1149.00,49.776
1150.00,49.762
1151.00,49.732
1152.00,49.722
1153.00,49.718
1154.00,49.714
1155.00,49.722
1156.00,49.711
1157.00,49.719
1158.00,49.716
1159.00,49.699
1160.00,49.692
1161.00,49.702
1162.00,49.699
1163.00,49.701
1164.00,49.681
1165.00,49.682
1166.00,49.673
1167.00,49.669
1168.00,49.692
1169.00,49.673
1170.00,49.677
1171.00,49.648
1172.00,49.663
1173.00,49.671
1174.00,49.679
1175.00,49.668
1176.00,49.658
1177.00,49.657
1178.00,49.655
1179.00,49.674
1180.00,49.653
1181.00,49.662
1182.00,49.663
1183.00,49.652
1184.00,49.645
1185.00,49.666
1186.00,49.640
1187.00,49.655
1188.00,49.648
1189.00,49.642
1190.00,49.635
1191.00,49.633
1192.00,49.632
1193.00,49.640
1194.00,49.643
1195.00,49.623
1196.00,49.644
1197.00,49.621
1198.00,49.619
1199.00,49.619
1200.00,49.620
1201.00,49.630
1202.00,49.612
1203.00,49.621
1204.00,49.615
1205.00,49.622
1206.00,49.623
1207.00,49.621
1208.00,49.601
1209.00,49.614
1210.00,49.639
1211.00,49.614
1212.00,49.616
1213.00,49.580
1214.00,49.611
1215.00,49.604
1216.00,49.601
1217.00,49.619
1218.00,49.599
1219.00,49.615
1220.00,49.602
1221.00,49.614
1222.00,49.594
1223.00,49.609
1224.00,49.614
1225.00,49.598
1226.00,49.604
1227.00,49.583
1228.00,49.605
1229.00,49.611
1230.00,49.652
1231.00,49.648
1232.00,49.660
1233.00,49.657
1234.00,49.669
1235.00,49.661
1236.00,49.662
1237.00,49.640
1238.00,49.650
1239.00,49.658
1240.00,49.643
1241.00,49.663
1242.00,49.649
1243.00,49.676
1244.00,49.641
1245.00,49.679
1246.00,49.681
1247.00,49.682
1248.00,49.689
1249.00,49.677
1250.00,49.690
1251.00,49.681
1252.00,49.680
1253.00,49.669
1254.00,49.697
1255.00,49.699
1256.00,49.687
1257.00,49.655
1258.00,49.711
1259.00,49.698
1260.00,49.718
1261.00,49.721
1262.00,49.720
1263.00,49.700
1264.00,49.727
1265.00,49.723
1266.00,49.736
1267.00,49.737
1268.00,49.765
1269.00,49.754
1270.00,49.748
1271.00,49.757
1272.00,49.761
1273.00,49.766
1274.00,49.763
1275.00,49.764
1276.00,49.772
1277.00,49.769
1278.00,49.788
1279.00,49.778
1280.00,49.783
1281.00,49.788
1282.00,49.782
1283.00,49.793
1284.00,49.781
1285.00,49.770
1286.00,49.789
1287.00,49.794
1288.00,49.792
1289.00,49.788
1290.00,49.824
1291.00,49.829
1292.00,49.841
1293.00,49.826
1294.00,49.850
1295.00,49.860
1296.00,49.848
1297.00,49.872
1298.00,49.875
1299.00,49.860
1300.00,49.886
1301.00,49.891
1302.00,49.896
1303.00,49.894
1304.00,49.875
1305.00,49.901
1306.00,49.904
1307.00,49.907
1308.00,49.906
1309.00,49.909
1310.00,49.917
1311.00,49.922
1312.00,49.912
1313.00,49.900
1314.00,49.920
1315.00,49.932
1316.00,49.940
1317.00,49.952
1318.00,49.950
1319.00,49.967
1320.00,50.001
1321.00,50.138
1322.00,50.156
1323.00,50.137
1324.00,50.138
1325.00,50.118
1326.00,50.143
1327.00,50.145
1328.00,50.115
1329.00,50.122
1330.00,50.119
1331.00,50.112
1332.00,50.114
1333.00,50.127
1334.00,50.144
1335.00,50.174
1336.00,50.192
1337.00,50.235
1338.00,50.302
1339.00,50.344
1340.00,50.399
1341.00,50.470
1342.00,50.540
1343.00,50.581
1344.00,50.628
1345.00,50.670
1346.00,50.734
1347.00,50.727
1348.00,50.754
1349.00,50.788
1350.00,50.790
1351.00,50.828
1352.00,50.821
1353.00,50.856
1354.00,50.849
1355.00,50.788
1356.00,50.865
1357.00,50.860
1358.00,50.820
1359.00,50.915
1360.00,50.930
1361.00,51.301
1362.00,50.846
1363.00,50.923
1364.00,50.877
1365.00,50.873
1366.00,50.886
1367.00,50.808
1368.00,50.833
1369.00,50.889
1370.00,50.850
1371.00,50.791
1372.00,50.824
1373.00,50.834
1374.00,50.839
1375.00,50.840
1376.00,50.866
1377.00,50.641
1378.00,50.837
1379.00,50.843
1380.00,50.849
1381.00,50.785
1382.00,50.756
1383.00,50.826
1384.00,50.798
1385.00,50.786
1386.00,50.843
1387.00,50.785
1388.00,50.764
1389.00,50.748
1390.00,50.841
1391.00,50.781
1392.00,50.796
1393.00,50.799
1394.00,50.794
1395.00,50.736
1396.00,50.765
1397.00,50.805
1398.00,50.898
1399.00,50.790
1400.00,50.902
1401.00,50.845
1402.00,50.871
1403.00,50.828
1404.00,50.820
1405.00,50.863
1406.00,50.842
1407.00,50.789
1408.00,50.889
1409.00,50.831
1410.00,50.888
1411.00,50.891
1412.00,50.924
1413.00,50.826
1414.00,50.872
1415.00,50.930
1416.00,50.929
1417.00,50.944
1418.00,50.962
1419.00,50.927
1420.00,50.960
1421.00,51.007
1422.00,50.995
1423.00,50.975
1424.00,51.001
1425.00,50.984
1426.00,51.035
1427.00,51.026
1428.00,51.051
1429.00,51.077
1430.00,51.081
1431.00,51.105
1432.00,51.106
1433.00,51.132
1434.00,51.120
1435.00,51.155
1436.00,51.163
1437.00,51.176
1438.00,51.181
1439.00,51.213
1440.00,51.238
1441.00,51.225
1442.00,51.237
1443.00,51.280
1444.00,51.285
1445.00,51.281
1446.00,51.285
1447.00,51.320
1448.00,51.360
1449.00,51.344
1450.00,51.351
1451.00,51.369
1452.00,51.382
1453.00,51.380
1454.00,51.416
1455.00,51.432
1456.00,51.466
1457.00,51.454
1458.00,51.470
1459.00,51.494
1460.00,51.494
1461.00,51.512
1462.00,51.538
1463.00,51.540
1464.00,51.554
1465.00,51.557
1466.00,51.566
1467.00,51.588
1468.00,51.639
1469.00,51.632
1470.00,51.652
1471.00,51.666
1472.00,51.667
1473.00,51.683
1474.00,51.694
1475.00,51.709
1476.00,51.723
1477.00,51.713
1478.00,51.742
1479.00,51.751
1480.00,51.751
1481.00,51.773
1482.00,51.788
1483.00,51.809
1484.00,51.816
1485.00,51.827
1486.00,51.833
1487.00,51.853
1488.00,51.854
1489.00,51.865
1490.00,51.865
1491.00,51.871
1492.00,51.904
1493.00,51.898
1494.00,51.911
1495.00,51.923
1496.00,51.927
1497.00,51.938
1498.00,51.930
1499.00,51.951
1500.00,51.979
1501.00, 
1502.00, 
1503.00, 
1504.00, 
1505.00, 
1506.00, 
1507.00, 
1508.00, 
1509.00, 
1510.00, 
1511.00, 
1512.00, 
1513.00, 
1514.00, 
1515.00, 
1516.00, 
1517.00, 
1518.00, 
1519.00, 
1520.00, 
1521.00, 
1522.00, 
1523.00, 
1524.00, 
1525.00, 
1526.00, 
1527.00, 
1528.00, 
1529.00, 
1530.00, 
1531.00, 
1532.00, 
1533.00, 
1534.00, 
1535.00, 
1536.00, 
1537.00, 
1538.00, 
1539.00, 
1540.00, 
1541.00, 
1542.00, 
1543.00, 
1544.00, 
1545.00, 
1546.00, 
1547.00, 
1548.00, 
1549.00, 
1550.00, 
1551.00, 
1552.00, 
1553.00, 
1554.00, 
1555.00, 
1556.00, 
1557.00, 
1558.00, 
1559.00, 
1560.00, 
1561.00, 
1562.00, 
1563.00, 
1564.00, 
1565.00, 
1566.00, 
1567.00, 
1568.00, 
1569.00, 
1570.00, 
1571.00, 
1572.00, 
1573.00, 
1574.00, 
1575.00, 
1576.00, 
1577.00, 
1578.00, 
1579.00, 
1580.00, 
1581.00, 
1582.00, 
1583.00, 
1584.00, 
1585.00, 
1586.00, 
1587.00, 
1588.00, 
1589.00, 
1590.00, 
1591.00, 
1592.00, 
1593.00, 
1594.00, 
1595.00, 
1596.00, 
1597.00, 
1598.00, 
1599.00, 
1600.00, 
1601.00, 
1602.00, 
1603.00, 
1604.00, 
1605.00, 
1606.00, 
1607.00, 
1608.00, 
1609.00, 
1610.00, 
1611.00, 
1612.00, 
1613.00, 
1614.00, 
1615.00, 
1616.00, 
1617.00, 
1618.00, 
1619.00, 
1620.00, 
1621.00, 
1622.00, 
1623.00, 
1624.00, 
1625.00, 
1626.00, 
1627.00, 
1628.00, 
1629.00, 
1630.00, 
1631.00, 
1632.00, 
1633.00, 
1634.00, 
1635.00, 
1636.00, 
1637.00, 
1638.00, 
1639.00, 
1640.00, 
1641.00, 
1642.00, 
1643.00, 
1644.00, 
1645.00, 
1646.00, 
1647.00, 
1648.00, 
1649.00, 
1650.00, 
1651.00, 
1652.00, 
1653.00, 
1654.00, 
1655.00, 
1656.00, 
1657.00, 
1658.00, 
1659.00, 
1660.00, 
1661.00, 
1662.00, 
1663.00, 
1664.00, 
1665.00, 
1666.00, 
1667.00, 
1668.00, 
1669.00, 
1670.00, 
1671.00, 
1672.00, 
1673.00, 
1674.00, 
1675.00, 
1676.00, 
1677.00, 
1678.00, 
1679.00, 
1680.00, 
1681.00, 
1682.00, 
1683.00, 
1684.00, 
1685.00, 
1686.00, 
1687.00, 
1688.00, 
1689.00, 
1690.00, 
1691.00, 
1692.00, 
1693.00, 
1694.00, 
1695.00, 
1696.00, 
1697.00, 
1698.00, 
1699.00, 
1700.00, 
1701.00, 
1702.00, 
1703.00, 
1704.00, 
1705.00, 
1706.00, 
1707.00, 
1708.00, 
1709.00, 
1710.00, 
1711.00, 
1712.00, 
1713.00, 
1714.00, 
1715.00, 
1716.00, 
1717.00, 
1718.00, 
1719.00, 
1720.00, 
1721.00, 
1722.00, 
1723.00, 
1724.00, 
1725.00, 
1726.00, 
1727.00, 
1728.00, 
1729.00, 
1730.00, 
1731.00, 
1732.00, 
1733.00, 
1734.00, 
1735.00, 
1736.00, 
1737.00, 
1738.00, 
1739.00, 
1740.00, 
1741.00, 
1742.00, 
1743.00, 
1744.00, 
1745.00, 
1746.00, 
1747.00, 
1748.00, 
1749.00, 
1750.00, 
1751.00, 
1752.00, 
1753.00, 
1754.00, 
1755.00, 
1756.00, 
1757.00, 
1758.00, 
1759.00, 
1760.00, 
1761.00, 
1762.00, 
1763.00, 
1764.00, 
1765.00, 
1766.00, 
1767.00, 
1768.00, 
1769.00, 
1770.00, 
1771.00, 
1772.00, 
1773.00, 
1774.00, 
1775.00, 
1776.00, 
1777.00, 
1778.00, 
1779.00, 
1780.00, 
1781.00, 
1782.00, 
1783.00, 
1784.00, 
1785.00, 
1786.00, 
1787.00, 
1788.00, 
1789.00, 
1790.00, 
1791.00, 
1792.00, 
1793.00, 
1794.00, 
1795.00, 
1796.00, 
1797.00, 
1798.00, 
1799.00, 
1800.00, 
1801.00, 
1802.00, 
1803.00, 
1804.00, 
1805.00, 
1806.00, 
1807.00, 
1808.00, 
1809.00, 
1810.00, 
1811.00, 
1812.00, 
1813.00, 
1814.00, 
1815.00, 
1816.00, 
1817.00, 
1818.00, 
1819.00, 
1820.00, 
1821.00, 
1822.00, 
1823.00, 
1824.00, 
1825.00, 
1826.00, 
1827.00, 
1828.00, 
1829.00, 
1830.00, 
1831.00, 
1832.00, 
1833.00, 
1834.00, 
1835.00, 
1836.00, 
1837.00, 
1838.00, 
1839.00, 
1840.00, 
1841.00, 
1842.00, 
1843.00, 
1844.00, 
1845.00, 
1846.00, 
1847.00, 
1848.00, 
1849.00, 
1850.00, 
1851.00, 
1852.00, 
1853.00, 
1854.00, 
1855.00, 
1856.00, 
1857.00, 
1858.00, 
1859.00, 
1860.00, 
1861.00, 
1862.00, 
1863.00, 
1864.00, 
1865.00, 
1866.00, 
1867.00, 
1868.00, 
1869.00, 
1870.00, 
1871.00, 
1872.00, 
1873.00, 
1874.00, 
1875.00, 
1876.00, 
1877.00, 
1878.00, 
1879.00, 
1880.00, 
1881.00, 
1882.00, 
1883.00, 
1884.00, 
1885.00, 
1886.00, 
1887.00, 
1888.00, 
1889.00, 
1890.00, 
1891.00, 
1892.00, 
1893.00, 
1894.00, 
1895.00, 
1896.00, 
1897.00, 
1898.00, 
1899.00, 
1900.00, 
1901.00, 
1902.00, 
1903.00, 
1904.00, 
1905.00, 
1906.00, 
1907.00, 
1908.00, 
1909.00, 
1910.00, 
1911.00, 
1912.00, 
1913.00, 
1914.00, 
1915.00, 
1916.00, 
1917.00, 
1918.00, 
1919.00, 
1920.00, 
1921.00, 
1922.00, 
1923.00, 
1924.00, 
1925.00, 
1926.00, 
1927.00, 
1928.00, 
1929.00, 
1930.00, 
1931.00, 
1932.00, 
1933.00, 
1934.00, 
1935.00, 
1936.00, 
1937.00, 
1938.00, 
1939.00, 
1940.00, 
1941.00, 
1942.00, 
1943.00, 
1944.00, 
1945.00, 
1946.00, 
1947.00, 
1948.00, 
1949.00, 
1950.00, 
1951.00, 
1952.00, 
1953.00, 
1954.00, 
1955.00, 
1956.00, 
1957.00, 
1958.00, 
1959.00, 
1960.00, 
1961.00, 
1962.00, 
1963.00, 
1964.00, 
1965.00, 
1966.00, 
1967.00, 
1968.00, 
1969.00, 
1970.00, 
1971.00, 
1972.00, 
1973.00, 
1974.00, 
1975.00, 
1976.00, 
1977.00, 
1978.00, 
1979.00, 
1980.00, 
1981.00, 
1982.00, 
1983.00, 
1984.00, 
1985.00, 
1986.00, 
1987.00, 
1988.00, 
1989.00, 
1990.00, 
1991.00, 
1992.00, 
1993.00, 
1994.00, 
1995.00, 
1996.00, 
1997.00, 
1998.00, 
1999.00, 
2000.00, 
2001.00, 
2002.00, 
2003.00, 
2004.00, 
2005.00, 
2006.00, 
2007.00, 
2008.00, 
2009.00, 
2010.00, 
2011.00, 
2012.00, 
2013.00, 
2014.00, 
2015.00, 
2016.00, 
2017.00, 
2018.00, 
2019.00, 
2020.00, 
2021.00, 
2022.00, 
2023.00, 
2024.00, 
2025.00, 
2026.00, 
2027.00, 
2028.00, 
2029.00, 
2030.00, 
2031.00, 
2032.00, 
2033.00, 
2034.00, 
2035.00, 
2036.00, 
2037.00, 
2038.00, 
2039.00, 
2040.00, 
2041.00, 
2042.00, 
2043.00, 
2044.00, 
2045.00, 
2046.00, 
2047.00, 
2048.00, 
2049.00, 
2050.00, 
2051.00, 
2052.00, 
2053.00, 
2054.00, 
2055.00, 
2056.00, 
2057.00, 
2058.00, 
2059.00, 
2060.00, 
2061.00, 
2062.00, 
2063.00, 
2064.00, 
2065.00, 
2066.00, 
2067.00, 
2068.00, 
2069.00, 
2070.00, 
2071.00, 
2072.00, 
2073.00, 
2074.00, 
2075.00, 
2076.00, 
2077.00, 
2078.00, 
2079.00, 
2080.00, 
2081.00, 
2082.00, 
2083.00, 
2084.00, 
2085.00, 
2086.00, 
2087.00, 
2088.00, 
2089.00, 
2090.00, 
2091.00, 
2092.00, 
2093.00, 
2094.00, 
2095.00, 
2096.00, 
2097.00, 
2098.00, 
2099.00, 
2100.00, 
2101.00, 
2102.00, 
2103.00, 
2104.00, 
2105.00, 
2106.00, 
2107.00, 
2108.00, 
2109.00, 
2110.00, 
2111.00, 
2112.00, 
2113.00, 
2114.00, 
2115.00, 
2116.00, 
2117.00, 
2118.00, 
2119.00, 
2120.00, 
2121.00, 
2122.00, 
2123.00, 
2124.00, 
2125.00, 
2126.00, 
2127.00, 
2128.00, 
2129.00, 
2130.00, 
2131.00, 
2132.00, 
2133.00, 
2134.00, 
2135.00, 
2136.00, 
2137.00, 
2138.00, 
2139.00, 
2140.00, 
2141.00, 
2142.00, 
2143.00, 
2144.00, 
2145.00, 
2146.00, 
2147.00, 
2148.00, 
2149.00, 
2150.00, 
2151.00, 
2152.00, 
2153.00, 
2154.00, 
2155.00, 
2156.00, 
2157.00, 
2158.00, 
2159.00, 
2160.00, 
2161.00, 
2162.00, 
2163.00, 
2164.00, 
2165.00, 
2166.00, 
2167.00, 
2168.00, 
2169.00, 
2170.00, 
2171.00, 
2172.00, 
2173.00, 
2174.00, 
2175.00, 
2176.00, 
2177.00, 
2178.00, 
2179.00, 
2180.00, 
2181.00, 
2182.00, 
2183.00, 
2184.00, 
2185.00, 
2186.00, 
2187.00, 
2188.00, 
2189.00, 
2190.00, 
2191.00, 
2192.00, 
2193.00, 
2194.00, 
2195.00, 
2196.00, 
2197.00, 
2198.00, 
2199.00, 
2200.00, 
2201.00, 
2202.00, 
2203.00, 
2204.00, 
2205.00, 
2206.00, 
2207.00, 
2208.00, 
2209.00, 
2210.00, 
2211.00, 
2212.00, 
2213.00, 
2214.00, 
2215.00, 
2216.00, 
2217.00, 
2218.00, 
2219.00, 
2220.00, 
2221.00, 
2222.00, 
2223.00, 
2224.00, 
2225.00, 
2226.00, 
2227.00, 
2228.00, 
2229.00, 
2230.00, 
2231.00, 
2232.00, 
2233.00, 
2234.00, 
2235.00, 
2236.00, 
2237.00, 
2238.00, 
2239.00, 
2240.00, 
2241.00, 
2242.00, 
2243.00, 
2244.00, 
2245.00, 
2246.00, 
2247.00, 
2248.00, 
2249.00, 
2250.00, 
2251.00, 
2252.00, 
2253.00, 
2254.00, 
2255.00, 
2256.00, 
2257.00, 
2258.00, 
2259.00, 
2260.00, 
2261.00, 
2262.00, 
2263.00, 
2264.00, 
2265.00, 
2266.00, 
2267.00, 
2268.00, 
2269.00, 
2270.00, 
2271.00, 
2272.00, 
2273.00, 
2274.00, 
2275.00, 
2276.00, 
2277.00, 
2278.00, 
2279.00, 
2280.00, 
2281.00, 
2282.00, 
2283.00, 
2284.00, 
2285.00, 
2286.00, 
2287.00, 
2288.00, 
2289.00, 
2290.00, 
2291.00, 
2292.00, 
2293.00, 
2294.00, 
2295.00, 
2296.00, 
2297.00, 
2298.00, 
2299.00, 
2300.00, 
2301.00, 
2302.00, 
2303.00, 
2304.00, 
2305.00, 
2306.00, 
2307.00, 
2308.00, 
2309.00, 
2310.00, 
2311.00, 
2312.00, 
2313.00, 
2314.00, 
2315.00, 
2316.00, 
2317.00, 
2318.00, 
2319.00, 
2320.00, 
2321.00, 
2322.00, 
2323.00, 
2324.00, 
2325.00, 
2326.00, 
2327.00, 
2328.00, 
2329.00, 
2330.00, 
2331.00, 
2332.00, 
2333.00, 
2334.00, 
2335.00, 
2336.00, 
2337.00, 
2338.00, 
2339.00, 
2340.00, 
2341.00, 
2342.00, 
2343.00, 
2344.00, 
2345.00, 
2346.00, 
2347.00, 
2348.00, 
2349.00, 
2350.00, 
2351.00, 
2352.00, 
2353.00, 
2354.00, 
2355.00, 
2356.00, 
2357.00, 
2358.00, 
2359.00, 
2360.00, 
2361.00, 
2362.00, 
2363.00, 
2364.00, 
2365.00, 
2366.00, 
2367.00, 
2368.00, 
2369.00, 
2370.00, 
2371.00, 
2372.00, 
2373.00, 
2374.00, 
2375.00, 
2376.00, 
2377.00, 
2378.00, 
2379.00, 
2380.00, 
2381.00, 
2382.00, 
2383.00, 
2384.00, 
2385.00, 
2386.00, 
2387.00, 
2388.00, 
2389.00, 
2390.00, 
2391.00, 
2392.00, 
2393.00, 
2394.00, 
2395.00, 
2396.00, 
2397.00, 
2398.00, 
2399.00, 
2400.00, 
2401.00, 
2402.00, 
2403.00, 
2404.00, 
2405.00, 
2406.00, 
2407.00, 
2408.00, 
2409.00, 
2410.00, 
2411.00, 
2412.00, 
2413.00, 
2414.00, 
2415.00, 
2416.00, 
2417.00, 
2418.00, 
2419.00, 
2420.00, 
2421.00, 
2422.00, 
2423.00, 
2424.00, 
2425.00, 
2426.00, 
2427.00, 
2428.00, 
2429.00, 
2430.00, 
2431.00, 
2432.00, 
2433.00, 
2434.00, 
2435.00, 
2436.00, 
2437.00, 
2438.00, 
2439.00, 
2440.00, 
2441.00, 
2442.00, 
2443.00, 
2444.00, 
2445.00, 
2446.00, 
2447.00, 
2448.00, 
2449.00, 
2450.00, 
2451.00, 
2452.00, 
2453.00, 
2454.00, 
2455.00, 
2456.00, 
2457.00, 
2458.00, 
2459.00, 
2460.00, 
2461.00, 
2462.00, 
2463.00, 
2464.00, 
2465.00, 
2466.00, 
2467.00, 
2468.00, 
2469.00, 
2470.00, 
2471.00, 
2472.00, 
2473.00, 
2474.00, 
2475.00, 
2476.00, 
2477.00, 
2478.00, 
2479.00, 
2480.00, 
2481.00, 
2482.00, 
2483.00, 
2484.00, 
2485.00, 
2486.00, 
2487.00, 
2488.00, 
2489.00, 
2490.00, 
2491.00, 
2492.00, 
2493.00, 
2494.00, 
2495.00, 
2496.00, 
2497.00, 
2498.00, 
2499.00, 
2500.00, 
2501.00, 
2502.00, 
2503.00, 
2504.00, 
2505.00, 
2506.00, 
2507.00, 
2508.00, 
2509.00, 
2510.00, 
2511.00, 
2512.00, 
2513.00, 
2514.00, 
2515.00, 
2516.00, 
2517.00, 
2518.00, 
2519.00, 
2520.00, 
2521.00, 
2522.00, 
2523.00, 
2524.00, 
2525.00, 
2526.00, 
2527.00, 
2528.00, 
2529.00, 
2530.00, 
2531.00, 
2532.00, 
2533.00, 
2534.00, 
2535.00, 
2536.00, 
2537.00, 
2538.00, 
2539.00, 
2540.00, 
2541.00, 
2542.00, 
2543.00, 
2544.00, 
2545.00, 
2546.00, 
2547.00, 
2548.00, 
2549.00, 
2550.00, 
2551.00, 
2552.00, 
2553.00, 
2554.00, 
2555.00, 
2556.00, 
2557.00, 
2558.00, 
2559.00, 
2560.00, 
2561.00, 
2562.00, 
2563.00, 
2564.00, 
2565.00, 
2566.00, 
2567.00, 
2568.00, 
2569.00, 
2570.00, 
2571.00, 
2572.00, 
2573.00, 
2574.00, 
2575.00, 
2576.00, 
2577.00, 
2578.00, 
2579.00, 
2580.00, 
2581.00, 
2582.00, 
2583.00, 
2584.00, 
2585.00, 
2586.00, 
2587.00, 
2588.00, 
2589.00, 
2590.00, 
2591.00, 
2592.00, 
2593.00, 
2594.00, 
2595.00, 
2596.00, 
2597.00, 
2598.00, 
2599.00, 
2600.00, 
