"2cP3 - RawData"
"Wavelength nm.","T%"
200.00,0.002
201.00,0.000
202.00,0.003
203.00,0.002
204.00,0.003
205.00,0.002
206.00,0.000
207.00,0.001
208.00,-0.002
209.00,0.002
210.00,0.002
211.00,-0.001
212.00,0.000
213.00,0.001
214.00,0.005
215.00,0.001
216.00,-0.001
217.00,-0.001
218.00,0.000
219.00,-0.000
220.00,-0.000
221.00,0.001
222.00,-0.000
223.00,0.005
224.00,0.001
225.00,0.000
226.00,0.001
227.00,0.001
228.00,-0.001
229.00,0.000
230.00,0.001
231.00,-0.000
232.00,0.002
233.00,-0.001
234.00,0.002
235.00,0.000
236.00,0.001
237.00,0.002
238.00,-0.000
239.00,-0.000
240.00,0.001
241.00,0.001
242.00,0.000
243.00,-0.001
244.00,-0.001
245.00,-0.001
246.00,0.000
247.00,0.000
248.00,-0.002
249.00,0.002
250.00,0.000
251.00,-0.001
252.00,0.001
253.00,0.001
254.00,0.003
255.00,0.002
256.00,0.000
257.00,-0.001
258.00,0.001
259.00,-0.000
260.00,0.001
261.00,0.000
262.00,0.001
263.00,0.000
264.00,-0.001
265.00,-0.001
266.00,-0.001
267.00,-0.001
268.00,0.000
269.00,0.001
270.00,0.001
271.00,0.001
272.00,0.001
273.00,0.001
274.00,0.000
275.00,0.001
276.00,0.000
277.00,-0.000
278.00,-0.000
279.00,-0.001
280.00,0.000
281.00,0.000
282.00,-0.001
283.00,-0.000
284.00,-0.000
285.00,0.001
286.00,0.000
287.00,-0.000
288.00,0.000
289.00,0.002
290.00,-0.000
291.00,-0.001
292.00,-0.001
293.00,-0.000
294.00,-0.000
295.00,-0.001
296.00,0.000
297.00,0.000
298.00,0.002
299.00,0.001
300.00,0.002
301.00,0.004
302.00,0.007
303.00,0.008
304.00,0.014
305.00,0.021
306.00,0.033
307.00,0.052
308.00,0.080
309.00,0.128
310.00,0.174
311.00,0.235
312.00,0.317
313.00,0.438
314.00,0.574
315.00,0.759
316.00,0.971
317.00,1.230
318.00,1.511
319.00,1.856
320.00,2.259
321.00,2.726
322.00,3.219
323.00,3.785
324.00,4.387
325.00,4.988
326.00,5.662
327.00,6.381
328.00,7.137
329.00,7.904
330.00,8.724
331.00,9.540
332.00,10.362
333.00,11.237
334.00,12.062
335.00,12.994
336.00,13.801
337.00,14.672
338.00,15.519
339.00,16.275
340.00,17.084
341.00,17.873
342.00,18.614
343.00,19.356
344.00,20.039
345.00,20.679
346.00,21.301
347.00,21.910
348.00,22.480
349.00,23.030
350.00,23.539
351.00,24.020
352.00,24.478
353.00,24.924
354.00,25.308
355.00,25.715
356.00,26.079
357.00,26.388
358.00,26.754
359.00,27.094
360.00,27.341
361.00,27.534
362.00,27.828
363.00,28.064
364.00,28.254
365.00,28.445
366.00,28.626
367.00,28.754
368.00,28.931
369.00,28.994
370.00,29.089
371.00,29.178
372.00,29.203
373.00,29.235
374.00,29.261
375.00,29.255
376.00,29.312
377.00,29.298
378.00,29.200
379.00,29.172
380.00,29.184
381.00,29.155
382.00,29.238
383.00,29.283
384.00,29.373
385.00,29.403
386.00,29.474
387.00,29.450
388.00,29.625
389.00,29.690
390.00,29.770
391.00,29.840
392.00,29.908
393.00,29.907
394.00,29.995
395.00,29.992
396.00,30.020
397.00,30.058
398.00,30.092
399.00,30.122
400.00,30.126
401.00,30.168
402.00,30.136
403.00,30.225
404.00,30.209
405.00,30.172
406.00,30.211
407.00,30.146
408.00,30.126
409.00,30.063
410.00,30.045
411.00,30.073
412.00,29.998
413.00,30.060
414.00,30.033
415.00,30.038
416.00,30.069
417.00,30.088
418.00,30.133
419.00,30.150
420.00,30.153
421.00,30.282
422.00,30.291
423.00,30.310
424.00,30.329
425.00,30.366
426.00,30.416
427.00,30.462
428.00,30.488
429.00,30.539
430.00,30.506
431.00,30.600
432.00,30.662
433.00,30.707
434.00,30.723
435.00,30.793
436.00,30.842
437.00,30.947
438.00,31.005
439.00,31.040
440.00,31.070
441.00,31.171
442.00,31.206
443.00,31.256
444.00,31.360
445.00,31.371
446.00,31.513
447.00,31.598
448.00,31.715
449.00,31.786
450.00,31.868
451.00,31.964
452.00,32.050
453.00,32.123
454.00,32.212
455.00,32.266
456.00,32.368
457.00,32.482
458.00,32.556
459.00,32.665
460.00,32.744
461.00,32.868
462.00,33.012
463.00,33.067
464.00,33.186
465.00,33.276
466.00,33.353
467.00,33.436
468.00,33.584
469.00,33.731
470.00,33.732
471.00,33.858
472.00,33.959
473.00,33.989
474.00,34.080
475.00,34.170
476.00,34.241
477.00,34.357
478.00,34.448
479.00,34.575
480.00,34.701
481.00,34.829
482.00,34.920
483.00,35.051
484.00,35.178
485.00,35.347
486.00,35.433
487.00,35.572
488.00,35.705
489.00,35.835
490.00,35.983
491.00,36.067
492.00,36.264
493.00,36.327
494.00,36.330
495.00,36.498
496.00,36.568
497.00,36.633
498.00,36.784
499.00,36.876
500.00,36.950
501.00,37.059
502.00,37.184
503.00,37.291
504.00,37.364
505.00,37.473
506.00,37.621
507.00,37.649
508.00,37.770
509.00,37.907
510.00,37.979
511.00,38.098
512.00,38.180
513.00,38.277
514.00,38.385
515.00,38.457
516.00,38.599
517.00,38.699
518.00,38.832
519.00,38.853
520.00,38.896
521.00,38.944
522.00,39.042
523.00,39.109
524.00,39.167
525.00,39.302
526.00,39.407
527.00,39.436
528.00,39.553
529.00,39.621
530.00,39.723
531.00,39.751
532.00,39.904
533.00,40.011
534.00,40.088
535.00,40.155
536.00,40.271
537.00,40.289
538.00,40.389
539.00,40.456
540.00,40.493
541.00,40.569
542.00,40.635
543.00,40.764
544.00,40.735
545.00,40.773
546.00,40.812
547.00,40.963
548.00,40.974
549.00,41.040
550.00,41.135
551.00,41.156
552.00,41.230
553.00,41.285
554.00,41.371
555.00,41.374
556.00,41.467
557.00,41.483
558.00,41.466
559.00,41.506
560.00,41.668
561.00,41.668
562.00,41.895
563.00,41.912
564.00,42.002
565.00,41.999
566.00,42.026
567.00,42.094
568.00,42.042
569.00,42.097
570.00,42.070
571.00,42.136
572.00,42.198
573.00,42.229
574.00,42.285
575.00,42.280
576.00,42.291
577.00,42.321
578.00,42.497
579.00,42.577
580.00,42.642
581.00,42.745
582.00,42.797
583.00,42.800
584.00,42.952
585.00,43.008
586.00,43.002
587.00,43.093
588.00,43.143
589.00,43.141
590.00,43.181
591.00,43.180
592.00,43.144
593.00,43.308
594.00,43.316
595.00,43.355
596.00,43.393
597.00,43.447
598.00,43.538
599.00,43.577
600.00,43.601
601.00,43.667
602.00,43.668
603.00,43.682
604.00,43.769
605.00,43.791
606.00,43.814
607.00,43.832
608.00,44.026
609.00,43.997
610.00,43.921
611.00,43.963
612.00,44.048
613.00,44.065
614.00,44.087
615.00,44.093
616.00,44.242
617.00,44.216
618.00,44.296
619.00,44.290
620.00,44.366
621.00,44.401
622.00,44.410
623.00,44.518
624.00,44.571
625.00,44.550
626.00,44.617
627.00,44.654
628.00,44.619
629.00,44.765
630.00,44.785
631.00,44.813
632.00,44.842
633.00,44.916
634.00,44.964
635.00,45.106
636.00,45.120
637.00,45.192
638.00,45.212
639.00,45.298
640.00,45.282
641.00,45.288
642.00,45.370
643.00,45.394
644.00,45.513
645.00,45.491
646.00,45.594
647.00,45.605
648.00,45.696
649.00,45.763
650.00,45.740
651.00,45.830
652.00,45.916
653.00,45.907
654.00,45.999
655.00,45.974
656.00,46.065
657.00,46.378
658.00,46.288
659.00,46.387
660.00,46.417
661.00,46.349
662.00,46.520
663.00,46.482
664.00,46.644
665.00,46.612
666.00,46.582
667.00,46.758
668.00,46.779
669.00,46.829
670.00,46.957
671.00,46.962
672.00,46.974
673.00,47.099
674.00,47.071
675.00,47.173
676.00,47.255
677.00,47.178
678.00,47.133
679.00,47.438
680.00,47.297
681.00,47.428
682.00,47.487
683.00,47.527
684.00,47.603
685.00,47.717
686.00,47.644
687.00,47.689
688.00,47.753
689.00,47.803
690.00,47.891
691.00,47.984
692.00,47.813
693.00,47.888
694.00,47.994
695.00,48.095
696.00,48.098
697.00,48.109
698.00,48.235
699.00,48.280
700.00,48.509
701.00,48.356
702.00,48.366
703.00,48.567
704.00,48.496
705.00,48.473
706.00,48.564
707.00,48.698
708.00,48.589
709.00,48.720
710.00,48.925
711.00,48.711
712.00,48.694
713.00,48.852
714.00,48.899
715.00,48.858
716.00,49.003
717.00,48.904
718.00,48.960
719.00,48.990
720.00,48.987
721.00,53.265
722.00,53.350
723.00,53.216
724.00,53.192
725.00,53.268
726.00,53.249
727.00,53.150
728.00,53.232
729.00,53.147
730.00,53.197
731.00,53.174
732.00,53.182
733.00,53.227
734.00,53.202
735.00,53.189
736.00,53.197
737.00,53.144
738.00,53.259
739.00,53.262
740.00,53.199
741.00,53.130
742.00,53.141
743.00,53.186
744.00,53.153
745.00,53.137
746.00,53.204
747.00,53.096
748.00,53.110
749.00,53.018
750.00,52.976
751.00,52.968
752.00,52.966
753.00,52.963
754.00,52.977
755.00,52.895
756.00,52.952
757.00,52.905
758.00,52.889
759.00,52.834
760.00,52.794
761.00,52.878
762.00,52.875
763.00,52.843
764.00,52.850
765.00,52.862
766.00,52.774
767.00,52.778
768.00,52.827
769.00,52.805
770.00,52.808
771.00,52.738
772.00,52.816
773.00,52.783
774.00,52.796
775.00,52.793
776.00,52.699
777.00,52.761
778.00,52.720
779.00,52.783
780.00,52.688
781.00,52.740
782.00,52.683
783.00,52.688
784.00,52.676
785.00,52.620
786.00,52.586
787.00,52.631
788.00,52.530
789.00,52.567
790.00,52.466
791.00,52.466
792.00,52.420
793.00,52.404
794.00,52.454
795.00,52.455
796.00,52.335
797.00,52.340
798.00,52.343
799.00,52.238
800.00,52.313
801.00,52.290
802.00,52.235
803.00,52.208
804.00,52.245
805.00,52.241
806.00,52.171
807.00,52.153
808.00,52.182
809.00,52.055
810.00,52.068
811.00,52.052
812.00,52.011
813.00,52.007
814.00,52.027
815.00,52.058
816.00,52.051
817.00,51.888
818.00,51.891
819.00,51.886
820.00,51.891
821.00,51.785
822.00,51.867
823.00,51.752
824.00,51.738
825.00,51.633
826.00,51.726
827.00,51.770
828.00,51.676
829.00,51.765
830.00,51.705
831.00,54.277
832.00,54.235
833.00,54.167
834.00,54.188
835.00,54.150
836.00,54.134
837.00,54.110
838.00,54.072
839.00,54.063
840.00,54.030
841.00,54.004
842.00,53.990
843.00,53.986
844.00,53.954
845.00,53.873
846.00,53.914
847.00,53.879
848.00,53.818
849.00,53.788
850.00,53.780
851.00,53.749
852.00,53.685
853.00,53.651
854.00,53.625
855.00,53.576
856.00,53.567
857.00,53.533
858.00,53.525
859.00,53.492
860.00,53.497
861.00,53.432
862.00,53.408
863.00,53.413
864.00,53.417
865.00,53.415
866.00,53.344
867.00,53.324
868.00,53.279
869.00,53.309
870.00,53.287
871.00,53.273
872.00,53.282
873.00,53.267
874.00,53.226
875.00,53.263
876.00,53.219
877.00,53.232
878.00,53.207
879.00,53.163
880.00,53.270
881.00,53.121
882.00,53.118
883.00,53.124
884.00,53.071
885.00,53.052
886.00,53.050
887.00,53.020
888.00,52.983
889.00,52.979
890.00,52.981
891.00,52.932
892.00,52.892
893.00,52.882
894.00,52.888
895.00,52.861
896.00,52.808
897.00,52.806
898.00,52.784
899.00,52.754
900.00,52.758
901.00,52.749
902.00,52.736
903.00,52.713
904.00,52.684
905.00,52.668
906.00,52.650
907.00,52.600
908.00,52.605
909.00,52.582
910.00,52.529
911.00,52.556
912.00,52.565
913.00,52.443
914.00,52.612
915.00,52.461
916.00,52.455
917.00,52.419
918.00,52.394
919.00,52.388
920.00,52.341
921.00,52.321
922.00,52.302
923.00,52.310
924.00,52.250
925.00,52.221
926.00,52.222
927.00,52.213
928.00,52.196
929.00,52.196
930.00,52.187
931.00,52.153
932.00,52.160
933.00,52.173
934.00,52.288
935.00,52.074
936.00,52.053
937.00,52.028
938.00,51.999
939.00,51.988
940.00,51.962
941.00,51.958
942.00,51.906
943.00,51.917
944.00,51.858
945.00,51.884
946.00,51.861
947.00,51.838
948.00,51.828
949.00,51.799
950.00,51.776
951.00,51.757
952.00,51.711
953.00,51.691
954.00,51.669
955.00,51.633
956.00,51.618
957.00,51.588
958.00,51.592
959.00,51.544
960.00,51.543
961.00,51.508
962.00,51.531
963.00,51.482
964.00,51.483
965.00,51.447
966.00,51.444
967.00,51.445
968.00,51.418
969.00,51.440
970.00,51.406
971.00,51.420
972.00,51.395
973.00,51.433
974.00,51.370
975.00,51.407
976.00,51.416
977.00,51.402
978.00,51.454
979.00,51.386
980.00,51.415
981.00,51.420
982.00,51.422
983.00,51.397
984.00,51.403
985.00,51.424
986.00,51.362
987.00,51.362
988.00,51.380
989.00,51.371
990.00,51.349
991.00,51.310
992.00,51.349
993.00,51.305
994.00,51.284
995.00,51.289
996.00,51.262
997.00,51.256
998.00,51.226
999.00,51.248
1000.00,51.195
1001.00,51.199
1002.00,51.175
1003.00,51.174
1004.00,51.159
1005.00,51.117
1006.00,51.147
1007.00,51.111
1008.00,51.098
1009.00,51.090
1010.00,51.057
1011.00,51.074
1012.00,51.039
1013.00,51.037
1014.00,51.006
1015.00,51.028
1016.00,50.965
1017.00,50.973
1018.00,50.959
1019.00,50.927
1020.00,50.925
1021.00,50.900
1022.00,50.911
1023.00,50.862
1024.00,50.855
1025.00,50.851
1026.00,50.837
1027.00,50.797
1028.00,50.806
1029.00,50.781
1030.00,50.748
1031.00,50.752
1032.00,50.717
1033.00,50.724
1034.00,50.698
1035.00,50.664
1036.00,50.642
1037.00,50.622
1038.00,50.605
1039.00,50.582
1040.00,50.567
1041.00,50.515
1042.00,50.524
1043.00,50.473
1044.00,50.522
1045.00,50.506
1046.00,50.501
1047.00,50.533
1048.00,50.540
1049.00,50.538
1050.00,50.555
1051.00,50.573
1052.00,50.574
1053.00,50.598
1054.00,50.580
1055.00,50.606
1056.00,50.608
1057.00,50.600
1058.00,50.596
1059.00,50.588
1060.00,50.579
1061.00,50.579
1062.00,50.560
1063.00,50.571
1064.00,50.562
1065.00,50.554
1066.00,50.546
1067.00,50.540
1068.00,50.532
1069.00,50.532
1070.00,50.503
1071.00,50.461
1072.00,50.510
1073.00,50.469
1074.00,50.479
1075.00,50.467
1076.00,50.442
1077.00,50.453
1078.00,50.441
1079.00,50.421
1080.00,50.437
1081.00,50.408
1082.00,50.395
1083.00,50.392
1084.00,50.397
1085.00,50.376
1086.00,50.374
1087.00,50.369
1088.00,50.349
1089.00,50.339
1090.00,50.327
1091.00,50.326
1092.00,50.314
1093.00,50.282
1094.00,50.286
1095.00,50.259
1096.00,50.249
1097.00,50.239
1098.00,50.242
1099.00,50.220
1100.00,50.222
1101.00,50.192
1102.00,50.202
1103.00,50.194
1104.00,50.179
1105.00,50.176
1106.00,50.162
1107.00,50.144
1108.00,50.157
1109.00,50.137
1110.00,50.149
1111.00,50.143
1112.00,50.128
1113.00,50.114
1114.00,50.110
1115.00,50.093
1116.00,50.096
1117.00,50.065
1118.00,50.064
1119.00,50.059
1120.00,50.040
1121.00,50.037
1122.00,50.028
1123.00,50.039
1124.00,50.033
1125.00,50.016
1126.00,50.009
1127.00,50.008
1128.00,49.998
1129.00,49.976
1130.00,49.967
1131.00,49.955
1132.00,49.961
1133.00,49.946
1134.00,49.945
1135.00,49.934
1136.00,49.929
1137.00,49.913
1138.00,49.933
1139.00,49.934
1140.00,49.925
1141.00,49.911
1142.00,49.908
1143.00,49.934
1144.00,49.904
1145.00,49.894
1146.00,49.896
1147.00,49.893
1148.00,49.880
1149.00,49.886
1150.00,49.881
1151.00,49.874
1152.00,49.863
1153.00,49.843
1154.00,49.843
1155.00,49.846
1156.00,49.821
1157.00,49.841
1158.00,49.844
1159.00,49.842
1160.00,49.829
1161.00,49.844
1162.00,49.810
1163.00,49.816
1164.00,49.822
1165.00,49.798
1166.00,49.799
1167.00,49.778
1168.00,49.811
1169.00,49.791
1170.00,49.779
1171.00,49.773
1172.00,49.792
1173.00,49.805
1174.00,49.802
1175.00,49.786
1176.00,49.798
1177.00,49.791
1178.00,49.780
1179.00,49.807
1180.00,49.783
1181.00,49.789
1182.00,49.785
1183.00,49.779
1184.00,49.761
1185.00,49.787
1186.00,49.752
1187.00,49.776
1188.00,49.762
1189.00,49.754
1190.00,49.760
1191.00,49.759
1192.00,49.762
1193.00,49.753
1194.00,49.762
1195.00,49.721
1196.00,49.750
1197.00,49.743
1198.00,49.754
1199.00,49.756
1200.00,49.746
1201.00,49.768
1202.00,49.749
1203.00,49.733
1204.00,49.737
1205.00,49.749
1206.00,49.733
1207.00,49.739
1208.00,49.721
1209.00,49.739
1210.00,49.750
1211.00,49.710
1212.00,49.747
1213.00,49.706
1214.00,49.721
1215.00,49.717
1216.00,49.714
1217.00,49.717
1218.00,49.707
1219.00,49.716
1220.00,49.709
1221.00,49.728
1222.00,49.703
1223.00,49.728
1224.00,49.722
1225.00,49.696
1226.00,49.712
1227.00,49.690
1228.00,49.706
1229.00,49.726
1230.00,49.759
1231.00,49.751
1232.00,49.772
1233.00,49.753
1234.00,49.775
1235.00,49.765
1236.00,49.757
1237.00,49.758
1238.00,49.752
1239.00,49.760
1240.00,49.742
1241.00,49.744
1242.00,49.748
1243.00,49.779
1244.00,49.743
1245.00,49.779
1246.00,49.779
1247.00,49.775
1248.00,49.784
1249.00,49.799
1250.00,49.809
1251.00,49.790
1252.00,49.782
1253.00,49.790
1254.00,49.817
1255.00,49.808
1256.00,49.813
1257.00,49.764
1258.00,49.810
1259.00,49.817
1260.00,49.831
1261.00,49.815
1262.00,49.817
1263.00,49.802
1264.00,49.827
1265.00,49.832
1266.00,49.818
1267.00,49.843
1268.00,49.851
1269.00,49.833
1270.00,49.844
1271.00,49.835
1272.00,49.839
1273.00,49.862
1274.00,49.859
1275.00,49.869
1276.00,49.873
1277.00,49.854
1278.00,49.882
1279.00,49.881
1280.00,49.873
1281.00,49.893
1282.00,49.894
1283.00,49.896
1284.00,49.905
1285.00,49.877
1286.00,49.899
1287.00,49.892
1288.00,49.893
1289.00,49.904
1290.00,49.922
1291.00,49.908
1292.00,49.931
1293.00,49.912
1294.00,49.924
1295.00,49.946
1296.00,49.919
1297.00,49.935
1298.00,49.954
1299.00,49.931
1300.00,49.957
1301.00,49.958
1302.00,49.954
1303.00,49.980
1304.00,49.967
1305.00,49.978
1306.00,49.986
1307.00,49.983
1308.00,49.989
1309.00,49.999
1310.00,49.993
1311.00,50.007
1312.00,49.996
1313.00,49.983
1314.00,50.010
1315.00,50.016
1316.00,50.016
1317.00,50.034
1318.00,50.022
1319.00,50.038
1320.00,50.066
1321.00,50.191
1322.00,50.213
1323.00,50.200
1324.00,50.191
1325.00,50.184
1326.00,50.221
1327.00,50.208
1328.00,50.197
1329.00,50.209
1330.00,50.202
1331.00,50.196
1332.00,50.189
1333.00,50.199
1334.00,50.214
1335.00,50.232
1336.00,50.258
1337.00,50.295
1338.00,50.352
1339.00,50.397
1340.00,50.461
1341.00,50.516
1342.00,50.584
1343.00,50.623
1344.00,50.685
1345.00,50.731
1346.00,50.801
1347.00,50.879
1348.00,50.812
1349.00,50.836
1350.00,50.842
1351.00,50.865
1352.00,50.857
1353.00,50.884
1354.00,50.873
1355.00,50.830
1356.00,50.898
1357.00,50.894
1358.00,50.914
1359.00,50.935
1360.00,50.890
1361.00,50.863
1362.00,50.881
1363.00,50.665
1364.00,50.889
1365.00,50.888
1366.00,50.952
1367.00,50.871
1368.00,50.903
1369.00,50.946
1370.00,50.916
1371.00,50.845
1372.00,50.886
1373.00,50.884
1374.00,50.911
1375.00,50.872
1376.00,50.861
1377.00,50.873
1378.00,50.947
1379.00,50.890
1380.00,50.895
1381.00,50.909
1382.00,50.839
1383.00,50.869
1384.00,50.830
1385.00,50.810
1386.00,50.870
1387.00,50.812
1388.00,50.829
1389.00,50.800
1390.00,50.868
1391.00,50.822
1392.00,50.852
1393.00,50.857
1394.00,50.868
1395.00,50.785
1396.00,50.789
1397.00,50.834
1398.00,50.873
1399.00,50.864
1400.00,50.904
1401.00,50.880
1402.00,50.947
1403.00,50.843
1404.00,50.854
1405.00,50.904
1406.00,50.906
1407.00,50.916
1408.00,50.907
1409.00,50.877
1410.00,50.925
1411.00,50.910
1412.00,51.000
1413.00,50.906
1414.00,50.898
1415.00,50.949
1416.00,50.992
1417.00,51.005
1418.00,50.980
1419.00,50.948
1420.00,50.984
1421.00,51.007
1422.00,51.025
1423.00,51.025
1424.00,51.075
1425.00,51.044
1426.00,51.066
1427.00,51.083
1428.00,51.093
1429.00,51.118
1430.00,51.115
1431.00,51.135
1432.00,51.142
1433.00,51.168
1434.00,51.169
1435.00,51.204
1436.00,51.208
1437.00,51.207
1438.00,51.215
1439.00,51.248
1440.00,51.264
1441.00,51.263
1442.00,51.263
1443.00,51.311
1444.00,51.342
1445.00,51.322
1446.00,51.321
1447.00,51.378
1448.00,51.393
1449.00,51.395
1450.00,51.385
1451.00,51.413
1452.00,51.402
1453.00,51.424
1454.00,51.444
1455.00,51.462
1456.00,51.485
1457.00,51.482
1458.00,51.509
1459.00,51.527
1460.00,51.543
1461.00,51.549
1462.00,51.575
1463.00,51.583
1464.00,51.587
1465.00,51.607
1466.00,51.609
1467.00,51.618
1468.00,51.673
1469.00,51.675
1470.00,51.676
1471.00,51.690
1472.00,51.709
1473.00,51.722
1474.00,51.737
1475.00,51.738
1476.00,51.764
1477.00,51.754
1478.00,51.782
1479.00,51.793
1480.00,51.803
1481.00,51.795
1482.00,51.830
1483.00,51.845
1484.00,51.843
1485.00,51.859
1486.00,51.859
1487.00,51.894
1488.00,51.902
1489.00,51.886
1490.00,51.912
1491.00,51.923
1492.00,51.941
1493.00,51.948
1494.00,51.951
1495.00,51.956
1496.00,51.957
1497.00,51.962
1498.00,51.961
1499.00,51.990
1500.00,52.011
1501.00, 
1502.00, 
1503.00, 
1504.00, 
1505.00, 
1506.00, 
1507.00, 
1508.00, 
1509.00, 
1510.00, 
1511.00, 
1512.00, 
1513.00, 
1514.00, 
1515.00, 
1516.00, 
1517.00, 
1518.00, 
1519.00, 
1520.00, 
1521.00, 
1522.00, 
1523.00, 
1524.00, 
1525.00, 
1526.00, 
1527.00, 
1528.00, 
1529.00, 
1530.00, 
1531.00, 
1532.00, 
1533.00, 
1534.00, 
1535.00, 
1536.00, 
1537.00, 
1538.00, 
1539.00, 
1540.00, 
1541.00, 
1542.00, 
1543.00, 
1544.00, 
1545.00, 
1546.00, 
1547.00, 
1548.00, 
1549.00, 
1550.00, 
1551.00, 
1552.00, 
1553.00, 
1554.00, 
1555.00, 
1556.00, 
1557.00, 
1558.00, 
1559.00, 
1560.00, 
1561.00, 
1562.00, 
1563.00, 
1564.00, 
1565.00, 
1566.00, 
1567.00, 
1568.00, 
1569.00, 
1570.00, 
1571.00, 
1572.00, 
1573.00, 
1574.00, 
1575.00, 
1576.00, 
1577.00, 
1578.00, 
1579.00, 
1580.00, 
1581.00, 
1582.00, 
1583.00, 
1584.00, 
1585.00, 
1586.00, 
1587.00, 
1588.00, 
1589.00, 
1590.00, 
1591.00, 
1592.00, 
1593.00, 
1594.00, 
1595.00, 
1596.00, 
1597.00, 
1598.00, 
1599.00, 
1600.00, 
1601.00, 
1602.00, 
1603.00, 
1604.00, 
1605.00, 
1606.00, 
1607.00, 
1608.00, 
1609.00, 
1610.00, 
1611.00, 
1612.00, 
1613.00, 
1614.00, 
1615.00, 
1616.00, 
1617.00, 
1618.00, 
1619.00, 
1620.00, 
1621.00, 
1622.00, 
1623.00, 
1624.00, 
1625.00, 
1626.00, 
1627.00, 
1628.00, 
1629.00, 
1630.00, 
1631.00, 
1632.00, 
1633.00, 
1634.00, 
1635.00, 
1636.00, 
1637.00, 
1638.00, 
1639.00, 
1640.00, 
1641.00, 
1642.00, 
1643.00, 
1644.00, 
1645.00, 
1646.00, 
1647.00, 
1648.00, 
1649.00, 
1650.00, 
1651.00, 
1652.00, 
1653.00, 
1654.00, 
1655.00, 
1656.00, 
1657.00, 
1658.00, 
1659.00, 
1660.00, 
1661.00, 
1662.00, 
1663.00, 
1664.00, 
1665.00, 
1666.00, 
1667.00, 
1668.00, 
1669.00, 
1670.00, 
1671.00, 
1672.00, 
1673.00, 
1674.00, 
1675.00, 
1676.00, 
1677.00, 
1678.00, 
1679.00, 
1680.00, 
1681.00, 
1682.00, 
1683.00, 
1684.00, 
1685.00, 
1686.00, 
1687.00, 
1688.00, 
1689.00, 
1690.00, 
1691.00, 
1692.00, 
1693.00, 
1694.00, 
1695.00, 
1696.00, 
1697.00, 
1698.00, 
1699.00, 
1700.00, 
1701.00, 
1702.00, 
1703.00, 
1704.00, 
1705.00, 
1706.00, 
1707.00, 
1708.00, 
1709.00, 
1710.00, 
1711.00, 
1712.00, 
1713.00, 
1714.00, 
1715.00, 
1716.00, 
1717.00, 
1718.00, 
1719.00, 
1720.00, 
1721.00, 
1722.00, 
1723.00, 
1724.00, 
1725.00, 
1726.00, 
1727.00, 
1728.00, 
1729.00, 
1730.00, 
1731.00, 
1732.00, 
1733.00, 
1734.00, 
1735.00, 
1736.00, 
1737.00, 
1738.00, 
1739.00, 
1740.00, 
1741.00, 
1742.00, 
1743.00, 
1744.00, 
1745.00, 
1746.00, 
1747.00, 
1748.00, 
1749.00, 
1750.00, 
1751.00, 
1752.00, 
1753.00, 
1754.00, 
1755.00, 
1756.00, 
1757.00, 
1758.00, 
1759.00, 
1760.00, 
1761.00, 
1762.00, 
1763.00, 
1764.00, 
1765.00, 
1766.00, 
1767.00, 
1768.00, 
1769.00, 
1770.00, 
1771.00, 
1772.00, 
1773.00, 
1774.00, 
1775.00, 
1776.00, 
1777.00, 
1778.00, 
1779.00, 
1780.00, 
1781.00, 
1782.00, 
1783.00, 
1784.00, 
1785.00, 
1786.00, 
1787.00, 
1788.00, 
1789.00, 
1790.00, 
1791.00, 
1792.00, 
1793.00, 
1794.00, 
1795.00, 
1796.00, 
1797.00, 
1798.00, 
1799.00, 
1800.00, 
1801.00, 
1802.00, 
1803.00, 
1804.00, 
1805.00, 
1806.00, 
1807.00, 
1808.00, 
1809.00, 
1810.00, 
1811.00, 
1812.00, 
1813.00, 
1814.00, 
1815.00, 
1816.00, 
1817.00, 
1818.00, 
1819.00, 
1820.00, 
1821.00, 
1822.00, 
1823.00, 
1824.00, 
1825.00, 
1826.00, 
1827.00, 
1828.00, 
1829.00, 
1830.00, 
1831.00, 
1832.00, 
1833.00, 
1834.00, 
1835.00, 
1836.00, 
1837.00, 
1838.00, 
1839.00, 
1840.00, 
1841.00, 
1842.00, 
1843.00, 
1844.00, 
1845.00, 
1846.00, 
1847.00, 
1848.00, 
1849.00, 
1850.00, 
1851.00, 
1852.00, 
1853.00, 
1854.00, 
1855.00, 
1856.00, 
1857.00, 
1858.00, 
1859.00, 
1860.00, 
1861.00, 
1862.00, 
1863.00, 
1864.00, 
1865.00, 
1866.00, 
1867.00, 
1868.00, 
1869.00, 
1870.00, 
1871.00, 
1872.00, 
1873.00, 
1874.00, 
1875.00, 
1876.00, 
1877.00, 
1878.00, 
1879.00, 
1880.00, 
1881.00, 
1882.00, 
1883.00, 
1884.00, 
1885.00, 
1886.00, 
1887.00, 
1888.00, 
1889.00, 
1890.00, 
1891.00, 
1892.00, 
1893.00, 
1894.00, 
1895.00, 
1896.00, 
1897.00, 
1898.00, 
1899.00, 
1900.00, 
1901.00, 
1902.00, 
1903.00, 
1904.00, 
1905.00, 
1906.00, 
1907.00, 
1908.00, 
1909.00, 
1910.00, 
1911.00, 
1912.00, 
1913.00, 
1914.00, 
1915.00, 
1916.00, 
1917.00, 
1918.00, 
1919.00, 
1920.00, 
1921.00, 
1922.00, 
1923.00, 
1924.00, 
1925.00, 
1926.00, 
1927.00, 
1928.00, 
1929.00, 
1930.00, 
1931.00, 
1932.00, 
1933.00, 
1934.00, 
1935.00, 
1936.00, 
1937.00, 
1938.00, 
1939.00, 
1940.00, 
1941.00, 
1942.00, 
1943.00, 
1944.00, 
1945.00, 
1946.00, 
1947.00, 
1948.00, 
1949.00, 
1950.00, 
1951.00, 
1952.00, 
1953.00, 
1954.00, 
1955.00, 
1956.00, 
1957.00, 
1958.00, 
1959.00, 
1960.00, 
1961.00, 
1962.00, 
1963.00, 
1964.00, 
1965.00, 
1966.00, 
1967.00, 
1968.00, 
1969.00, 
1970.00, 
1971.00, 
1972.00, 
1973.00, 
1974.00, 
1975.00, 
1976.00, 
1977.00, 
1978.00, 
1979.00, 
1980.00, 
1981.00, 
1982.00, 
1983.00, 
1984.00, 
1985.00, 
1986.00, 
1987.00, 
1988.00, 
1989.00, 
1990.00, 
1991.00, 
1992.00, 
1993.00, 
1994.00, 
1995.00, 
1996.00, 
1997.00, 
1998.00, 
1999.00, 
2000.00, 
2001.00, 
2002.00, 
2003.00, 
2004.00, 
2005.00, 
2006.00, 
2007.00, 
2008.00, 
2009.00, 
2010.00, 
2011.00, 
2012.00, 
2013.00, 
2014.00, 
2015.00, 
2016.00, 
2017.00, 
2018.00, 
2019.00, 
2020.00, 
2021.00, 
2022.00, 
2023.00, 
2024.00, 
2025.00, 
2026.00, 
2027.00, 
2028.00, 
2029.00, 
2030.00, 
2031.00, 
2032.00, 
2033.00, 
2034.00, 
2035.00, 
2036.00, 
2037.00, 
2038.00, 
2039.00, 
2040.00, 
2041.00, 
2042.00, 
2043.00, 
2044.00, 
2045.00, 
2046.00, 
2047.00, 
2048.00, 
2049.00, 
2050.00, 
2051.00, 
2052.00, 
2053.00, 
2054.00, 
2055.00, 
2056.00, 
2057.00, 
2058.00, 
2059.00, 
2060.00, 
2061.00, 
2062.00, 
2063.00, 
2064.00, 
2065.00, 
2066.00, 
2067.00, 
2068.00, 
2069.00, 
2070.00, 
2071.00, 
2072.00, 
2073.00, 
2074.00, 
2075.00, 
2076.00, 
2077.00, 
2078.00, 
2079.00, 
2080.00, 
2081.00, 
2082.00, 
2083.00, 
2084.00, 
2085.00, 
2086.00, 
2087.00, 
2088.00, 
2089.00, 
2090.00, 
2091.00, 
2092.00, 
2093.00, 
2094.00, 
2095.00, 
2096.00, 
2097.00, 
2098.00, 
2099.00, 
2100.00, 
2101.00, 
2102.00, 
2103.00, 
2104.00, 
2105.00, 
2106.00, 
2107.00, 
2108.00, 
2109.00, 
2110.00, 
2111.00, 
2112.00, 
2113.00, 
2114.00, 
2115.00, 
2116.00, 
2117.00, 
2118.00, 
2119.00, 
2120.00, 
2121.00, 
2122.00, 
2123.00, 
2124.00, 
2125.00, 
2126.00, 
2127.00, 
2128.00, 
2129.00, 
2130.00, 
2131.00, 
2132.00, 
2133.00, 
2134.00, 
2135.00, 
2136.00, 
2137.00, 
2138.00, 
2139.00, 
2140.00, 
2141.00, 
2142.00, 
2143.00, 
2144.00, 
2145.00, 
2146.00, 
2147.00, 
2148.00, 
2149.00, 
2150.00, 
2151.00, 
2152.00, 
2153.00, 
2154.00, 
2155.00, 
2156.00, 
2157.00, 
2158.00, 
2159.00, 
2160.00, 
2161.00, 
2162.00, 
2163.00, 
2164.00, 
2165.00, 
2166.00, 
2167.00, 
2168.00, 
2169.00, 
2170.00, 
2171.00, 
2172.00, 
2173.00, 
2174.00, 
2175.00, 
2176.00, 
2177.00, 
2178.00, 
2179.00, 
2180.00, 
2181.00, 
2182.00, 
2183.00, 
2184.00, 
2185.00, 
2186.00, 
2187.00, 
2188.00, 
2189.00, 
2190.00, 
2191.00, 
2192.00, 
2193.00, 
2194.00, 
2195.00, 
2196.00, 
2197.00, 
2198.00, 
2199.00, 
2200.00, 
2201.00, 
2202.00, 
2203.00, 
2204.00, 
2205.00, 
2206.00, 
2207.00, 
2208.00, 
2209.00, 
2210.00, 
2211.00, 
2212.00, 
2213.00, 
2214.00, 
2215.00, 
2216.00, 
2217.00, 
2218.00, 
2219.00, 
2220.00, 
2221.00, 
2222.00, 
2223.00, 
2224.00, 
2225.00, 
2226.00, 
2227.00, 
2228.00, 
2229.00, 
2230.00, 
2231.00, 
2232.00, 
2233.00, 
2234.00, 
2235.00, 
2236.00, 
2237.00, 
2238.00, 
2239.00, 
2240.00, 
2241.00, 
2242.00, 
2243.00, 
2244.00, 
2245.00, 
2246.00, 
2247.00, 
2248.00, 
2249.00, 
2250.00, 
2251.00, 
2252.00, 
2253.00, 
2254.00, 
2255.00, 
2256.00, 
2257.00, 
2258.00, 
2259.00, 
2260.00, 
2261.00, 
2262.00, 
2263.00, 
2264.00, 
2265.00, 
2266.00, 
2267.00, 
2268.00, 
2269.00, 
2270.00, 
2271.00, 
2272.00, 
2273.00, 
2274.00, 
2275.00, 
2276.00, 
2277.00, 
2278.00, 
2279.00, 
2280.00, 
2281.00, 
2282.00, 
2283.00, 
2284.00, 
2285.00, 
2286.00, 
2287.00, 
2288.00, 
2289.00, 
2290.00, 
2291.00, 
2292.00, 
2293.00, 
2294.00, 
2295.00, 
2296.00, 
2297.00, 
2298.00, 
2299.00, 
2300.00, 
2301.00, 
2302.00, 
2303.00, 
2304.00, 
2305.00, 
2306.00, 
2307.00, 
2308.00, 
2309.00, 
2310.00, 
2311.00, 
2312.00, 
2313.00, 
2314.00, 
2315.00, 
2316.00, 
2317.00, 
2318.00, 
2319.00, 
2320.00, 
2321.00, 
2322.00, 
2323.00, 
2324.00, 
2325.00, 
2326.00, 
2327.00, 
2328.00, 
2329.00, 
2330.00, 
2331.00, 
2332.00, 
2333.00, 
2334.00, 
2335.00, 
2336.00, 
2337.00, 
2338.00, 
2339.00, 
2340.00, 
2341.00, 
2342.00, 
2343.00, 
2344.00, 
2345.00, 
2346.00, 
2347.00, 
2348.00, 
2349.00, 
2350.00, 
2351.00, 
2352.00, 
2353.00, 
2354.00, 
2355.00, 
2356.00, 
2357.00, 
2358.00, 
2359.00, 
2360.00, 
2361.00, 
2362.00, 
2363.00, 
2364.00, 
2365.00, 
2366.00, 
2367.00, 
2368.00, 
2369.00, 
2370.00, 
2371.00, 
2372.00, 
2373.00, 
2374.00, 
2375.00, 
2376.00, 
2377.00, 
2378.00, 
2379.00, 
2380.00, 
2381.00, 
2382.00, 
2383.00, 
2384.00, 
2385.00, 
2386.00, 
2387.00, 
2388.00, 
2389.00, 
2390.00, 
2391.00, 
2392.00, 
2393.00, 
2394.00, 
2395.00, 
2396.00, 
2397.00, 
2398.00, 
2399.00, 
2400.00, 
2401.00, 
2402.00, 
2403.00, 
2404.00, 
2405.00, 
2406.00, 
2407.00, 
2408.00, 
2409.00, 
2410.00, 
2411.00, 
2412.00, 
2413.00, 
2414.00, 
2415.00, 
2416.00, 
2417.00, 
2418.00, 
2419.00, 
2420.00, 
2421.00, 
2422.00, 
2423.00, 
2424.00, 
2425.00, 
2426.00, 
2427.00, 
2428.00, 
2429.00, 
2430.00, 
2431.00, 
2432.00, 
2433.00, 
2434.00, 
2435.00, 
2436.00, 
2437.00, 
2438.00, 
2439.00, 
2440.00, 
2441.00, 
2442.00, 
2443.00, 
2444.00, 
2445.00, 
2446.00, 
2447.00, 
2448.00, 
2449.00, 
2450.00, 
2451.00, 
2452.00, 
2453.00, 
2454.00, 
2455.00, 
2456.00, 
2457.00, 
2458.00, 
2459.00, 
2460.00, 
2461.00, 
2462.00, 
2463.00, 
2464.00, 
2465.00, 
2466.00, 
2467.00, 
2468.00, 
2469.00, 
2470.00, 
2471.00, 
2472.00, 
2473.00, 
2474.00, 
2475.00, 
2476.00, 
2477.00, 
2478.00, 
2479.00, 
2480.00, 
2481.00, 
2482.00, 
2483.00, 
2484.00, 
2485.00, 
2486.00, 
2487.00, 
2488.00, 
2489.00, 
2490.00, 
2491.00, 
2492.00, 
2493.00, 
2494.00, 
2495.00, 
2496.00, 
2497.00, 
2498.00, 
2499.00, 
2500.00, 
2501.00, 
2502.00, 
2503.00, 
2504.00, 
2505.00, 
2506.00, 
2507.00, 
2508.00, 
2509.00, 
2510.00, 
2511.00, 
2512.00, 
2513.00, 
2514.00, 
2515.00, 
2516.00, 
2517.00, 
2518.00, 
2519.00, 
2520.00, 
2521.00, 
2522.00, 
2523.00, 
2524.00, 
2525.00, 
2526.00, 
2527.00, 
2528.00, 
2529.00, 
2530.00, 
2531.00, 
2532.00, 
2533.00, 
2534.00, 
2535.00, 
2536.00, 
2537.00, 
2538.00, 
2539.00, 
2540.00, 
2541.00, 
2542.00, 
2543.00, 
2544.00, 
2545.00, 
2546.00, 
2547.00, 
2548.00, 
2549.00, 
2550.00, 
2551.00, 
2552.00, 
2553.00, 
2554.00, 
2555.00, 
2556.00, 
2557.00, 
2558.00, 
2559.00, 
2560.00, 
2561.00, 
2562.00, 
2563.00, 
2564.00, 
2565.00, 
2566.00, 
2567.00, 
2568.00, 
2569.00, 
2570.00, 
2571.00, 
2572.00, 
2573.00, 
2574.00, 
2575.00, 
2576.00, 
2577.00, 
2578.00, 
2579.00, 
2580.00, 
2581.00, 
2582.00, 
2583.00, 
2584.00, 
2585.00, 
2586.00, 
2587.00, 
2588.00, 
2589.00, 
2590.00, 
2591.00, 
2592.00, 
2593.00, 
2594.00, 
2595.00, 
2596.00, 
2597.00, 
2598.00, 
2599.00, 
2600.00, 
