"2cP4 - RawData"
"Wavelength nm.","T%"
200.00,0.001
201.00,0.002
202.00,0.001
203.00,0.003
204.00,-0.001
205.00,-0.002
206.00,0.002
207.00,0.002
208.00,0.005
209.00,-0.000
210.00,0.001
211.00,0.000
212.00,0.001
213.00,0.001
214.00,-0.002
215.00,0.002
216.00,0.000
217.00,0.002
218.00,0.004
219.00,0.001
220.00,0.002
221.00,0.002
222.00,0.003
223.00,0.003
224.00,0.000
225.00,0.002
226.00,0.002
227.00,-0.001
228.00,0.000
229.00,-0.001
230.00,-0.002
231.00,0.000
232.00,0.001
233.00,-0.001
234.00,0.000
235.00,-0.001
236.00,0.001
237.00,-0.001
238.00,0.000
239.00,-0.001
240.00,0.001
241.00,0.002
242.00,0.001
243.00,0.002
244.00,-0.000
245.00,0.000
246.00,-0.001
247.00,0.001
248.00,-0.001
249.00,0.001
250.00,0.002
251.00,0.000
252.00,0.000
253.00,-0.002
254.00,-0.001
255.00,0.001
256.00,0.000
257.00,0.002
258.00,0.001
259.00,-0.001
260.00,-0.000
261.00,0.001
262.00,0.000
263.00,0.001
264.00,-0.001
265.00,-0.000
266.00,0.000
267.00,-0.001
268.00,0.002
269.00,0.001
270.00,0.000
271.00,0.001
272.00,0.000
273.00,-0.000
274.00,0.001
275.00,-0.000
276.00,0.001
277.00,-0.000
278.00,-0.000
279.00,-0.001
280.00,0.000
281.00,-0.002
282.00,0.001
283.00,-0.000
284.00,0.002
285.00,0.001
286.00,0.000
287.00,0.001
288.00,-0.001
289.00,-0.001
290.00,-0.000
291.00,-0.002
292.00,0.001
293.00,0.001
294.00,-0.001
295.00,0.001
296.00,-0.000
297.00,-0.000
298.00,-0.000
299.00,0.002
300.00,0.004
301.00,0.001
302.00,0.004
303.00,0.006
304.00,0.012
305.00,0.018
306.00,0.027
307.00,0.042
308.00,0.063
309.00,0.101
310.00,0.139
311.00,0.187
312.00,0.260
313.00,0.357
314.00,0.466
315.00,0.611
316.00,0.775
317.00,0.983
318.00,1.208
319.00,1.479
320.00,1.809
321.00,2.144
322.00,2.570
323.00,3.029
324.00,3.483
325.00,3.969
326.00,4.468
327.00,5.049
328.00,5.637
329.00,6.236
330.00,6.846
331.00,7.514
332.00,8.129
333.00,8.862
334.00,9.485
335.00,10.175
336.00,10.813
337.00,11.462
338.00,12.106
339.00,12.700
340.00,13.324
341.00,13.944
342.00,14.509
343.00,15.071
344.00,15.594
345.00,16.106
346.00,16.547
347.00,16.992
348.00,17.438
349.00,17.836
350.00,18.203
351.00,18.538
352.00,18.891
353.00,19.249
354.00,19.491
355.00,19.766
356.00,20.026
357.00,20.273
358.00,20.509
359.00,20.733
360.00,20.914
361.00,21.058
362.00,21.208
363.00,21.387
364.00,21.514
365.00,21.619
366.00,21.742
367.00,21.854
368.00,21.923
369.00,21.968
370.00,22.011
371.00,22.032
372.00,22.061
373.00,22.060
374.00,22.003
375.00,22.022
376.00,22.019
377.00,21.976
378.00,21.909
379.00,21.876
380.00,21.852
381.00,21.864
382.00,21.846
383.00,21.858
384.00,21.871
385.00,21.925
386.00,21.913
387.00,21.985
388.00,22.028
389.00,22.063
390.00,22.119
391.00,22.093
392.00,22.121
393.00,22.143
394.00,22.177
395.00,22.178
396.00,22.176
397.00,22.226
398.00,22.225
399.00,22.215
400.00,22.199
401.00,22.207
402.00,22.220
403.00,22.234
404.00,22.244
405.00,22.262
406.00,22.233
407.00,22.198
408.00,22.183
409.00,22.147
410.00,22.119
411.00,22.142
412.00,22.092
413.00,22.126
414.00,22.107
415.00,22.112
416.00,22.138
417.00,22.178
418.00,22.205
419.00,22.292
420.00,22.281
421.00,22.377
422.00,22.370
423.00,22.427
424.00,22.450
425.00,22.481
426.00,22.541
427.00,22.519
428.00,22.646
429.00,22.683
430.00,22.716
431.00,22.774
432.00,22.844
433.00,22.887
434.00,22.939
435.00,23.008
436.00,23.078
437.00,23.171
438.00,23.233
439.00,23.300
440.00,23.385
441.00,23.454
442.00,23.551
443.00,23.631
444.00,23.745
445.00,23.823
446.00,23.925
447.00,24.029
448.00,24.121
449.00,24.235
450.00,24.351
451.00,24.436
452.00,24.591
453.00,24.663
454.00,24.763
455.00,24.854
456.00,24.996
457.00,25.090
458.00,25.224
459.00,25.360
460.00,25.472
461.00,25.599
462.00,25.741
463.00,25.854
464.00,25.959
465.00,26.113
466.00,26.231
467.00,26.367
468.00,26.513
469.00,26.627
470.00,26.702
471.00,26.801
472.00,26.922
473.00,26.980
474.00,27.174
475.00,27.274
476.00,27.404
477.00,27.530
478.00,27.666
479.00,27.799
480.00,27.930
481.00,28.053
482.00,28.213
483.00,28.362
484.00,28.510
485.00,28.695
486.00,28.817
487.00,28.983
488.00,29.096
489.00,29.322
490.00,29.454
491.00,29.577
492.00,29.798
493.00,29.909
494.00,29.919
495.00,30.077
496.00,30.215
497.00,30.297
498.00,30.461
499.00,30.508
500.00,30.682
501.00,30.841
502.00,30.985
503.00,31.125
504.00,31.228
505.00,31.317
506.00,31.490
507.00,31.562
508.00,31.703
509.00,31.831
510.00,31.936
511.00,32.034
512.00,32.152
513.00,32.341
514.00,32.441
515.00,32.526
516.00,32.663
517.00,32.812
518.00,32.948
519.00,32.985
520.00,33.086
521.00,33.147
522.00,33.209
523.00,33.309
524.00,33.366
525.00,33.455
526.00,33.597
527.00,33.684
528.00,33.789
529.00,33.892
530.00,33.987
531.00,34.141
532.00,34.242
533.00,34.297
534.00,34.390
535.00,34.484
536.00,34.590
537.00,34.601
538.00,34.704
539.00,34.777
540.00,34.868
541.00,34.904
542.00,35.005
543.00,35.106
544.00,35.078
545.00,35.165
546.00,35.262
547.00,35.314
548.00,35.371
549.00,35.463
550.00,35.561
551.00,35.629
552.00,35.685
553.00,35.776
554.00,35.843
555.00,35.872
556.00,35.965
557.00,36.044
558.00,36.049
559.00,36.112
560.00,36.217
561.00,36.225
562.00,36.290
563.00,36.326
564.00,36.383
565.00,36.409
566.00,36.430
567.00,36.519
568.00,36.421
569.00,36.572
570.00,36.602
571.00,36.560
572.00,36.689
573.00,36.641
574.00,36.665
575.00,36.762
576.00,36.797
577.00,36.878
578.00,36.928
579.00,37.017
580.00,37.066
581.00,37.170
582.00,37.261
583.00,37.209
584.00,37.426
585.00,37.433
586.00,37.430
587.00,37.536
588.00,37.518
589.00,37.464
590.00,37.657
591.00,37.690
592.00,37.685
593.00,37.787
594.00,37.746
595.00,37.854
596.00,37.885
597.00,37.933
598.00,38.058
599.00,38.017
600.00,38.151
601.00,38.213
602.00,38.184
603.00,38.212
604.00,38.302
605.00,38.364
606.00,38.453
607.00,38.496
608.00,38.582
609.00,38.593
610.00,38.531
611.00,38.618
612.00,38.647
613.00,38.712
614.00,38.708
615.00,38.761
616.00,38.920
617.00,38.935
618.00,38.972
619.00,39.071
620.00,39.065
621.00,39.091
622.00,39.242
623.00,39.288
624.00,39.339
625.00,39.439
626.00,39.455
627.00,39.528
628.00,39.560
629.00,39.573
630.00,39.662
631.00,39.723
632.00,39.836
633.00,39.895
634.00,40.009
635.00,40.133
636.00,40.168
637.00,40.277
638.00,40.294
639.00,40.362
640.00,40.391
641.00,40.504
642.00,40.553
643.00,40.612
644.00,40.763
645.00,40.736
646.00,40.912
647.00,40.966
648.00,41.017
649.00,41.141
650.00,41.151
651.00,41.269
652.00,41.307
653.00,41.478
654.00,41.584
655.00,41.592
656.00,41.702
657.00,41.401
658.00,42.037
659.00,42.189
660.00,42.135
661.00,42.152
662.00,42.370
663.00,42.358
664.00,42.508
665.00,42.550
666.00,42.593
667.00,42.692
668.00,42.860
669.00,42.967
670.00,43.087
671.00,43.110
672.00,43.150
673.00,43.353
674.00,43.473
675.00,43.537
676.00,43.672
677.00,43.734
678.00,43.595
679.00,43.800
680.00,43.907
681.00,43.976
682.00,44.098
683.00,44.314
684.00,44.292
685.00,44.378
686.00,44.481
687.00,44.572
688.00,44.585
689.00,44.670
690.00,44.744
691.00,45.010
692.00,44.926
693.00,45.011
694.00,45.207
695.00,45.308
696.00,45.428
697.00,45.464
698.00,45.503
699.00,45.646
700.00,45.872
701.00,45.827
702.00,45.946
703.00,46.097
704.00,46.093
705.00,46.142
706.00,46.214
707.00,46.389
708.00,46.366
709.00,46.504
710.00,46.727
711.00,46.570
712.00,46.641
713.00,46.809
714.00,46.871
715.00,46.878
716.00,47.071
717.00,46.925
718.00,47.104
719.00,47.181
720.00,47.175
721.00,51.498
722.00,51.556
723.00,51.550
724.00,51.519
725.00,51.545
726.00,51.602
727.00,51.600
728.00,51.681
729.00,51.651
730.00,51.687
731.00,51.662
732.00,51.836
733.00,51.837
734.00,51.860
735.00,51.927
736.00,51.958
737.00,51.891
738.00,51.979
739.00,51.998
740.00,52.035
741.00,52.090
742.00,52.074
743.00,52.137
744.00,52.088
745.00,52.154
746.00,52.243
747.00,52.129
748.00,52.147
749.00,52.159
750.00,52.095
751.00,52.096
752.00,52.195
753.00,52.170
754.00,52.239
755.00,52.167
756.00,52.137
757.00,52.239
758.00,52.273
759.00,52.233
760.00,52.168
761.00,52.250
762.00,52.276
763.00,52.390
764.00,52.380
765.00,52.327
766.00,52.350
767.00,52.315
768.00,52.403
769.00,52.314
770.00,52.427
771.00,52.353
772.00,52.474
773.00,52.412
774.00,52.451
775.00,52.451
776.00,52.437
777.00,52.484
778.00,52.472
779.00,52.523
780.00,52.532
781.00,52.484
782.00,52.513
783.00,52.495
784.00,52.505
785.00,52.472
786.00,52.419
787.00,52.534
788.00,52.442
789.00,52.450
790.00,52.370
791.00,52.427
792.00,52.398
793.00,52.407
794.00,52.455
795.00,52.455
796.00,52.413
797.00,52.394
798.00,52.384
799.00,52.342
800.00,52.357
801.00,52.344
802.00,52.342
803.00,52.322
804.00,52.314
805.00,52.296
806.00,52.306
807.00,52.239
808.00,52.284
809.00,52.182
810.00,52.194
811.00,52.182
812.00,52.187
813.00,52.186
814.00,52.194
815.00,52.234
816.00,52.173
817.00,52.083
818.00,52.135
819.00,52.074
820.00,52.063
821.00,52.097
822.00,52.037
823.00,52.066
824.00,52.070
825.00,51.914
826.00,51.985
827.00,52.048
828.00,51.946
829.00,52.062
830.00,51.949
831.00,54.193
832.00,54.196
833.00,54.134
834.00,54.133
835.00,54.134
836.00,54.091
837.00,54.094
838.00,54.052
839.00,54.049
840.00,54.007
841.00,53.987
842.00,53.985
843.00,53.970
844.00,53.955
845.00,53.888
846.00,53.914
847.00,53.893
848.00,53.856
849.00,53.820
850.00,53.808
851.00,53.783
852.00,53.721
853.00,53.699
854.00,53.706
855.00,53.651
856.00,53.626
857.00,53.621
858.00,53.590
859.00,53.570
860.00,53.571
861.00,53.570
862.00,53.531
863.00,53.524
864.00,53.515
865.00,53.497
866.00,53.475
867.00,53.441
868.00,53.425
869.00,53.451
870.00,53.406
871.00,53.409
872.00,53.412
873.00,53.399
874.00,53.380
875.00,53.391
876.00,53.380
877.00,53.346
878.00,53.374
879.00,53.299
880.00,53.340
881.00,53.268
882.00,53.295
883.00,53.279
884.00,53.228
885.00,53.250
886.00,53.233
887.00,53.200
888.00,53.166
889.00,53.149
890.00,53.139
891.00,53.114
892.00,53.081
893.00,53.057
894.00,53.066
895.00,53.018
896.00,52.995
897.00,52.983
898.00,52.953
899.00,52.944
900.00,52.935
901.00,52.952
902.00,52.927
903.00,52.898
904.00,52.906
905.00,52.861
906.00,52.856
907.00,52.832
908.00,52.815
909.00,52.796
910.00,52.735
911.00,52.740
912.00,52.768
913.00,52.737
914.00,52.721
915.00,52.665
916.00,52.731
917.00,52.635
918.00,52.645
919.00,52.594
920.00,52.579
921.00,52.559
922.00,52.561
923.00,52.548
924.00,52.495
925.00,52.483
926.00,52.473
927.00,52.454
928.00,52.422
929.00,52.447
930.00,52.401
931.00,52.382
932.00,52.363
933.00,52.348
934.00,52.362
935.00,52.326
936.00,52.296
937.00,52.284
938.00,52.264
939.00,52.244
940.00,52.232
941.00,52.215
942.00,52.186
943.00,52.196
944.00,52.159
945.00,52.164
946.00,52.137
947.00,52.098
948.00,52.100
949.00,52.074
950.00,52.054
951.00,52.042
952.00,52.005
953.00,51.964
954.00,51.952
955.00,51.909
956.00,51.916
957.00,51.873
958.00,51.883
959.00,51.837
960.00,51.839
961.00,51.801
962.00,51.811
963.00,51.762
964.00,51.754
965.00,51.731
966.00,51.727
967.00,51.729
968.00,51.715
969.00,51.734
970.00,51.699
971.00,51.718
972.00,51.674
973.00,51.718
974.00,51.664
975.00,51.694
976.00,51.715
977.00,51.678
978.00,51.739
979.00,51.682
980.00,51.708
981.00,51.704
982.00,51.698
983.00,51.673
984.00,51.681
985.00,51.710
986.00,51.653
987.00,51.650
988.00,51.662
989.00,51.659
990.00,51.637
991.00,51.594
992.00,51.651
993.00,51.595
994.00,51.578
995.00,51.590
996.00,51.560
997.00,51.552
998.00,51.520
999.00,51.535
1000.00,51.484
1001.00,51.493
1002.00,51.463
1003.00,51.466
1004.00,51.452
1005.00,51.438
1006.00,51.464
1007.00,51.426
1008.00,51.415
1009.00,51.395
1010.00,51.367
1011.00,51.381
1012.00,51.342
1013.00,51.335
1014.00,51.306
1015.00,51.328
1016.00,51.279
1017.00,51.290
1018.00,51.277
1019.00,51.243
1020.00,51.254
1021.00,51.220
1022.00,51.244
1023.00,51.187
1024.00,51.186
1025.00,51.184
1026.00,51.167
1027.00,51.136
1028.00,51.126
1029.00,51.115
1030.00,51.090
1031.00,51.078
1032.00,51.039
1033.00,51.041
1034.00,51.015
1035.00,50.977
1036.00,50.968
1037.00,50.946
1038.00,50.915
1039.00,50.887
1040.00,50.880
1041.00,50.835
1042.00,50.830
1043.00,50.792
1044.00,50.834
1045.00,50.822
1046.00,50.815
1047.00,50.840
1048.00,50.850
1049.00,50.845
1050.00,50.869
1051.00,50.895
1052.00,50.895
1053.00,50.910
1054.00,50.898
1055.00,50.927
1056.00,50.926
1057.00,50.920
1058.00,50.913
1059.00,50.897
1060.00,50.902
1061.00,50.899
1062.00,50.876
1063.00,50.881
1064.00,50.879
1065.00,50.877
1066.00,50.862
1067.00,50.855
1068.00,50.893
1069.00,50.871
1070.00,50.829
1071.00,50.795
1072.00,50.823
1073.00,50.778
1074.00,50.792
1075.00,50.772
1076.00,50.751
1077.00,50.746
1078.00,50.741
1079.00,50.732
1080.00,50.742
1081.00,50.733
1082.00,50.725
1083.00,50.710
1084.00,50.703
1085.00,50.692
1086.00,50.687
1087.00,50.662
1088.00,50.660
1089.00,50.656
1090.00,50.651
1091.00,50.657
1092.00,50.641
1093.00,50.615
1094.00,50.612
1095.00,50.591
1096.00,50.575
1097.00,50.578
1098.00,50.559
1099.00,50.546
1100.00,50.557
1101.00,50.526
1102.00,50.526
1103.00,50.522
1104.00,50.504
1105.00,50.502
1106.00,50.488
1107.00,50.477
1108.00,50.477
1109.00,50.464
1110.00,50.472
1111.00,50.472
1112.00,50.443
1113.00,50.443
1114.00,50.441
1115.00,50.403
1116.00,50.411
1117.00,50.385
1118.00,50.380
1119.00,50.383
1120.00,50.351
1121.00,50.362
1122.00,50.340
1123.00,50.348
1124.00,50.353
1125.00,50.337
1126.00,50.332
1127.00,50.327
1128.00,50.321
1129.00,50.313
1130.00,50.328
1131.00,50.264
1132.00,50.248
1133.00,50.259
1134.00,50.253
1135.00,50.262
1136.00,50.243
1137.00,50.238
1138.00,50.258
1139.00,50.246
1140.00,50.225
1141.00,50.237
1142.00,50.211
1143.00,50.228
1144.00,50.209
1145.00,50.200
1146.00,50.202
1147.00,50.202
1148.00,50.169
1149.00,50.187
1150.00,50.184
1151.00,50.189
1152.00,50.182
1153.00,50.177
1154.00,50.176
1155.00,50.182
1156.00,50.161
1157.00,50.188
1158.00,50.172
1159.00,50.160
1160.00,50.157
1161.00,50.167
1162.00,50.146
1163.00,50.143
1164.00,50.128
1165.00,50.140
1166.00,50.144
1167.00,50.126
1168.00,50.162
1169.00,50.147
1170.00,50.136
1171.00,50.114
1172.00,50.130
1173.00,50.116
1174.00,50.124
1175.00,50.117
1176.00,50.119
1177.00,50.118
1178.00,50.094
1179.00,50.117
1180.00,50.097
1181.00,50.112
1182.00,50.115
1183.00,50.101
1184.00,50.094
1185.00,50.121
1186.00,50.088
1187.00,50.098
1188.00,50.085
1189.00,50.079
1190.00,50.095
1191.00,50.098
1192.00,50.096
1193.00,50.087
1194.00,50.102
1195.00,50.066
1196.00,50.106
1197.00,50.085
1198.00,50.087
1199.00,50.092
1200.00,50.085
1201.00,50.112
1202.00,50.080
1203.00,50.078
1204.00,50.070
1205.00,50.074
1206.00,50.052
1207.00,50.053
1208.00,50.033
1209.00,50.045
1210.00,50.061
1211.00,50.029
1212.00,50.063
1213.00,50.039
1214.00,50.056
1215.00,50.062
1216.00,50.057
1217.00,50.060
1218.00,50.049
1219.00,50.052
1220.00,50.049
1221.00,50.066
1222.00,50.037
1223.00,50.060
1224.00,50.064
1225.00,50.042
1226.00,50.059
1227.00,50.053
1228.00,50.066
1229.00,50.072
1230.00,50.087
1231.00,50.095
1232.00,50.110
1233.00,50.087
1234.00,50.108
1235.00,50.104
1236.00,50.104
1237.00,50.096
1238.00,50.086
1239.00,50.088
1240.00,50.078
1241.00,50.092
1242.00,50.097
1243.00,50.104
1244.00,50.077
1245.00,50.119
1246.00,50.123
1247.00,50.120
1248.00,50.123
1249.00,50.128
1250.00,50.121
1251.00,50.121
1252.00,50.141
1253.00,50.121
1254.00,50.146
1255.00,50.123
1256.00,50.115
1257.00,50.106
1258.00,50.138
1259.00,50.130
1260.00,50.149
1261.00,50.143
1262.00,50.158
1263.00,50.139
1264.00,50.154
1265.00,50.153
1266.00,50.150
1267.00,50.167
1268.00,50.178
1269.00,50.164
1270.00,50.182
1271.00,50.188
1272.00,50.182
1273.00,50.195
1274.00,50.180
1275.00,50.195
1276.00,50.206
1277.00,50.194
1278.00,50.222
1279.00,50.223
1280.00,50.214
1281.00,50.232
1282.00,50.242
1283.00,50.222
1284.00,50.219
1285.00,50.206
1286.00,50.222
1287.00,50.222
1288.00,50.219
1289.00,50.225
1290.00,50.242
1291.00,50.237
1292.00,50.257
1293.00,50.244
1294.00,50.242
1295.00,50.259
1296.00,50.257
1297.00,50.260
1298.00,50.282
1299.00,50.256
1300.00,50.280
1301.00,50.280
1302.00,50.288
1303.00,50.308
1304.00,50.286
1305.00,50.304
1306.00,50.330
1307.00,50.344
1308.00,50.338
1309.00,50.343
1310.00,50.331
1311.00,50.352
1312.00,50.349
1313.00,50.340
1314.00,50.364
1315.00,50.367
1316.00,50.370
1317.00,50.384
1318.00,50.377
1319.00,50.390
1320.00,50.412
1321.00,50.521
1322.00,50.538
1323.00,50.528
1324.00,50.525
1325.00,50.512
1326.00,50.551
1327.00,50.554
1328.00,50.531
1329.00,50.535
1330.00,50.541
1331.00,50.552
1332.00,50.557
1333.00,50.556
1334.00,50.584
1335.00,50.596
1336.00,50.622
1337.00,50.658
1338.00,50.712
1339.00,50.742
1340.00,50.805
1341.00,50.869
1342.00,50.934
1343.00,50.959
1344.00,51.020
1345.00,51.058
1346.00,51.104
1347.00,51.124
1348.00,51.148
1349.00,51.169
1350.00,51.184
1351.00,51.217
1352.00,51.217
1353.00,51.174
1354.00,51.227
1355.00,51.199
1356.00,51.242
1357.00,51.231
1358.00,51.247
1359.00,51.270
1360.00,51.221
1361.00,51.270
1362.00,51.240
1363.00,51.301
1364.00,51.277
1365.00,51.254
1366.00,51.264
1367.00,51.231
1368.00,51.224
1369.00,51.268
1370.00,51.230
1371.00,51.104
1372.00,51.175
1373.00,51.219
1374.00,51.234
1375.00,51.209
1376.00,51.187
1377.00,51.189
1378.00,51.210
1379.00,51.237
1380.00,51.226
1381.00,51.232
1382.00,51.210
1383.00,51.224
1384.00,51.194
1385.00,51.153
1386.00,51.187
1387.00,51.172
1388.00,51.180
1389.00,51.130
1390.00,51.159
1391.00,51.184
1392.00,51.179
1393.00,51.181
1394.00,51.198
1395.00,51.112
1396.00,51.138
1397.00,51.162
1398.00,51.240
1399.00,51.208
1400.00,51.269
1401.00,51.189
1402.00,51.223
1403.00,51.220
1404.00,51.198
1405.00,51.245
1406.00,51.231
1407.00,51.243
1408.00,51.270
1409.00,51.214
1410.00,51.256
1411.00,51.241
1412.00,51.306
1413.00,51.245
1414.00,51.242
1415.00,51.287
1416.00,51.321
1417.00,51.396
1418.00,51.390
1419.00,51.304
1420.00,51.328
1421.00,51.381
1422.00,51.371
1423.00,51.366
1424.00,51.396
1425.00,51.411
1426.00,51.445
1427.00,51.451
1428.00,51.453
1429.00,51.483
1430.00,51.472
1431.00,51.501
1432.00,51.501
1433.00,51.520
1434.00,51.519
1435.00,51.564
1436.00,51.572
1437.00,51.576
1438.00,51.591
1439.00,51.621
1440.00,51.636
1441.00,51.627
1442.00,51.630
1443.00,51.658
1444.00,51.697
1445.00,51.685
1446.00,51.668
1447.00,51.706
1448.00,51.762
1449.00,51.715
1450.00,51.736
1451.00,51.767
1452.00,51.774
1453.00,51.791
1454.00,51.818
1455.00,51.834
1456.00,51.858
1457.00,51.845
1458.00,51.873
1459.00,51.888
1460.00,51.902
1461.00,51.906
1462.00,51.934
1463.00,51.938
1464.00,51.945
1465.00,51.955
1466.00,51.962
1467.00,51.971
1468.00,52.033
1469.00,52.026
1470.00,52.037
1471.00,52.040
1472.00,52.047
1473.00,52.078
1474.00,52.092
1475.00,52.106
1476.00,52.135
1477.00,52.120
1478.00,52.145
1479.00,52.158
1480.00,52.169
1481.00,52.171
1482.00,52.191
1483.00,52.205
1484.00,52.213
1485.00,52.217
1486.00,52.221
1487.00,52.250
1488.00,52.263
1489.00,52.249
1490.00,52.274
1491.00,52.281
1492.00,52.299
1493.00,52.297
1494.00,52.317
1495.00,52.317
1496.00,52.322
1497.00,52.326
1498.00,52.331
1499.00,52.358
1500.00,52.378
1501.00, 
1502.00, 
1503.00, 
1504.00, 
1505.00, 
1506.00, 
1507.00, 
1508.00, 
1509.00, 
1510.00, 
1511.00, 
1512.00, 
1513.00, 
1514.00, 
1515.00, 
1516.00, 
1517.00, 
1518.00, 
1519.00, 
1520.00, 
1521.00, 
1522.00, 
1523.00, 
1524.00, 
1525.00, 
1526.00, 
1527.00, 
1528.00, 
1529.00, 
1530.00, 
1531.00, 
1532.00, 
1533.00, 
1534.00, 
1535.00, 
1536.00, 
1537.00, 
1538.00, 
1539.00, 
1540.00, 
1541.00, 
1542.00, 
1543.00, 
1544.00, 
1545.00, 
1546.00, 
1547.00, 
1548.00, 
1549.00, 
1550.00, 
1551.00, 
1552.00, 
1553.00, 
1554.00, 
1555.00, 
1556.00, 
1557.00, 
1558.00, 
1559.00, 
1560.00, 
1561.00, 
1562.00, 
1563.00, 
1564.00, 
1565.00, 
1566.00, 
1567.00, 
1568.00, 
1569.00, 
1570.00, 
1571.00, 
1572.00, 
1573.00, 
1574.00, 
1575.00, 
1576.00, 
1577.00, 
1578.00, 
1579.00, 
1580.00, 
1581.00, 
1582.00, 
1583.00, 
1584.00, 
1585.00, 
1586.00, 
1587.00, 
1588.00, 
1589.00, 
1590.00, 
1591.00, 
1592.00, 
1593.00, 
1594.00, 
1595.00, 
1596.00, 
1597.00, 
1598.00, 
1599.00, 
1600.00, 
1601.00, 
1602.00, 
1603.00, 
1604.00, 
1605.00, 
1606.00, 
1607.00, 
1608.00, 
1609.00, 
1610.00, 
1611.00, 
1612.00, 
1613.00, 
1614.00, 
1615.00, 
1616.00, 
1617.00, 
1618.00, 
1619.00, 
1620.00, 
1621.00, 
1622.00, 
1623.00, 
1624.00, 
1625.00, 
1626.00, 
1627.00, 
1628.00, 
1629.00, 
1630.00, 
1631.00, 
1632.00, 
1633.00, 
1634.00, 
1635.00, 
1636.00, 
1637.00, 
1638.00, 
1639.00, 
1640.00, 
1641.00, 
1642.00, 
1643.00, 
1644.00, 
1645.00, 
1646.00, 
1647.00, 
1648.00, 
1649.00, 
1650.00, 
1651.00, 
1652.00, 
1653.00, 
1654.00, 
1655.00, 
1656.00, 
1657.00, 
1658.00, 
1659.00, 
1660.00, 
1661.00, 
1662.00, 
1663.00, 
1664.00, 
1665.00, 
1666.00, 
1667.00, 
1668.00, 
1669.00, 
1670.00, 
1671.00, 
1672.00, 
1673.00, 
1674.00, 
1675.00, 
1676.00, 
1677.00, 
1678.00, 
1679.00, 
1680.00, 
1681.00, 
1682.00, 
1683.00, 
1684.00, 
1685.00, 
1686.00, 
1687.00, 
1688.00, 
1689.00, 
1690.00, 
1691.00, 
1692.00, 
1693.00, 
1694.00, 
1695.00, 
1696.00, 
1697.00, 
1698.00, 
1699.00, 
1700.00, 
1701.00, 
1702.00, 
1703.00, 
1704.00, 
1705.00, 
1706.00, 
1707.00, 
1708.00, 
1709.00, 
1710.00, 
1711.00, 
1712.00, 
1713.00, 
1714.00, 
1715.00, 
1716.00, 
1717.00, 
1718.00, 
1719.00, 
1720.00, 
1721.00, 
1722.00, 
1723.00, 
1724.00, 
1725.00, 
1726.00, 
1727.00, 
1728.00, 
1729.00, 
1730.00, 
1731.00, 
1732.00, 
1733.00, 
1734.00, 
1735.00, 
1736.00, 
1737.00, 
1738.00, 
1739.00, 
1740.00, 
1741.00, 
1742.00, 
1743.00, 
1744.00, 
1745.00, 
1746.00, 
1747.00, 
1748.00, 
1749.00, 
1750.00, 
1751.00, 
1752.00, 
1753.00, 
1754.00, 
1755.00, 
1756.00, 
1757.00, 
1758.00, 
1759.00, 
1760.00, 
1761.00, 
1762.00, 
1763.00, 
1764.00, 
1765.00, 
1766.00, 
1767.00, 
1768.00, 
1769.00, 
1770.00, 
1771.00, 
1772.00, 
1773.00, 
1774.00, 
1775.00, 
1776.00, 
1777.00, 
1778.00, 
1779.00, 
1780.00, 
1781.00, 
1782.00, 
1783.00, 
1784.00, 
1785.00, 
1786.00, 
1787.00, 
1788.00, 
1789.00, 
1790.00, 
1791.00, 
1792.00, 
1793.00, 
1794.00, 
1795.00, 
1796.00, 
1797.00, 
1798.00, 
1799.00, 
1800.00, 
1801.00, 
1802.00, 
1803.00, 
1804.00, 
1805.00, 
1806.00, 
1807.00, 
1808.00, 
1809.00, 
1810.00, 
1811.00, 
1812.00, 
1813.00, 
1814.00, 
1815.00, 
1816.00, 
1817.00, 
1818.00, 
1819.00, 
1820.00, 
1821.00, 
1822.00, 
1823.00, 
1824.00, 
1825.00, 
1826.00, 
1827.00, 
1828.00, 
1829.00, 
1830.00, 
1831.00, 
1832.00, 
1833.00, 
1834.00, 
1835.00, 
1836.00, 
1837.00, 
1838.00, 
1839.00, 
1840.00, 
1841.00, 
1842.00, 
1843.00, 
1844.00, 
1845.00, 
1846.00, 
1847.00, 
1848.00, 
1849.00, 
1850.00, 
1851.00, 
1852.00, 
1853.00, 
1854.00, 
1855.00, 
1856.00, 
1857.00, 
1858.00, 
1859.00, 
1860.00, 
1861.00, 
1862.00, 
1863.00, 
1864.00, 
1865.00, 
1866.00, 
1867.00, 
1868.00, 
1869.00, 
1870.00, 
1871.00, 
1872.00, 
1873.00, 
1874.00, 
1875.00, 
1876.00, 
1877.00, 
1878.00, 
1879.00, 
1880.00, 
1881.00, 
1882.00, 
1883.00, 
1884.00, 
1885.00, 
1886.00, 
1887.00, 
1888.00, 
1889.00, 
1890.00, 
1891.00, 
1892.00, 
1893.00, 
1894.00, 
1895.00, 
1896.00, 
1897.00, 
1898.00, 
1899.00, 
1900.00, 
1901.00, 
1902.00, 
1903.00, 
1904.00, 
1905.00, 
1906.00, 
1907.00, 
1908.00, 
1909.00, 
1910.00, 
1911.00, 
1912.00, 
1913.00, 
1914.00, 
1915.00, 
1916.00, 
1917.00, 
1918.00, 
1919.00, 
1920.00, 
1921.00, 
1922.00, 
1923.00, 
1924.00, 
1925.00, 
1926.00, 
1927.00, 
1928.00, 
1929.00, 
1930.00, 
1931.00, 
1932.00, 
1933.00, 
1934.00, 
1935.00, 
1936.00, 
1937.00, 
1938.00, 
1939.00, 
1940.00, 
1941.00, 
1942.00, 
1943.00, 
1944.00, 
1945.00, 
1946.00, 
1947.00, 
1948.00, 
1949.00, 
1950.00, 
1951.00, 
1952.00, 
1953.00, 
1954.00, 
1955.00, 
1956.00, 
1957.00, 
1958.00, 
1959.00, 
1960.00, 
1961.00, 
1962.00, 
1963.00, 
1964.00, 
1965.00, 
1966.00, 
1967.00, 
1968.00, 
1969.00, 
1970.00, 
1971.00, 
1972.00, 
1973.00, 
1974.00, 
1975.00, 
1976.00, 
1977.00, 
1978.00, 
1979.00, 
1980.00, 
1981.00, 
1982.00, 
1983.00, 
1984.00, 
1985.00, 
1986.00, 
1987.00, 
1988.00, 
1989.00, 
1990.00, 
1991.00, 
1992.00, 
1993.00, 
1994.00, 
1995.00, 
1996.00, 
1997.00, 
1998.00, 
1999.00, 
2000.00, 
2001.00, 
2002.00, 
2003.00, 
2004.00, 
2005.00, 
2006.00, 
2007.00, 
2008.00, 
2009.00, 
2010.00, 
2011.00, 
2012.00, 
2013.00, 
2014.00, 
2015.00, 
2016.00, 
2017.00, 
2018.00, 
2019.00, 
2020.00, 
2021.00, 
2022.00, 
2023.00, 
2024.00, 
2025.00, 
2026.00, 
2027.00, 
2028.00, 
2029.00, 
2030.00, 
2031.00, 
2032.00, 
2033.00, 
2034.00, 
2035.00, 
2036.00, 
2037.00, 
2038.00, 
2039.00, 
2040.00, 
2041.00, 
2042.00, 
2043.00, 
2044.00, 
2045.00, 
2046.00, 
2047.00, 
2048.00, 
2049.00, 
2050.00, 
2051.00, 
2052.00, 
2053.00, 
2054.00, 
2055.00, 
2056.00, 
2057.00, 
2058.00, 
2059.00, 
2060.00, 
2061.00, 
2062.00, 
2063.00, 
2064.00, 
2065.00, 
2066.00, 
2067.00, 
2068.00, 
2069.00, 
2070.00, 
2071.00, 
2072.00, 
2073.00, 
2074.00, 
2075.00, 
2076.00, 
2077.00, 
2078.00, 
2079.00, 
2080.00, 
2081.00, 
2082.00, 
2083.00, 
2084.00, 
2085.00, 
2086.00, 
2087.00, 
2088.00, 
2089.00, 
2090.00, 
2091.00, 
2092.00, 
2093.00, 
2094.00, 
2095.00, 
2096.00, 
2097.00, 
2098.00, 
2099.00, 
2100.00, 
2101.00, 
2102.00, 
2103.00, 
2104.00, 
2105.00, 
2106.00, 
2107.00, 
2108.00, 
2109.00, 
2110.00, 
2111.00, 
2112.00, 
2113.00, 
2114.00, 
2115.00, 
2116.00, 
2117.00, 
2118.00, 
2119.00, 
2120.00, 
2121.00, 
2122.00, 
2123.00, 
2124.00, 
2125.00, 
2126.00, 
2127.00, 
2128.00, 
2129.00, 
2130.00, 
2131.00, 
2132.00, 
2133.00, 
2134.00, 
2135.00, 
2136.00, 
2137.00, 
2138.00, 
2139.00, 
2140.00, 
2141.00, 
2142.00, 
2143.00, 
2144.00, 
2145.00, 
2146.00, 
2147.00, 
2148.00, 
2149.00, 
2150.00, 
2151.00, 
2152.00, 
2153.00, 
2154.00, 
2155.00, 
2156.00, 
2157.00, 
2158.00, 
2159.00, 
2160.00, 
2161.00, 
2162.00, 
2163.00, 
2164.00, 
2165.00, 
2166.00, 
2167.00, 
2168.00, 
2169.00, 
2170.00, 
2171.00, 
2172.00, 
2173.00, 
2174.00, 
2175.00, 
2176.00, 
2177.00, 
2178.00, 
2179.00, 
2180.00, 
2181.00, 
2182.00, 
2183.00, 
2184.00, 
2185.00, 
2186.00, 
2187.00, 
2188.00, 
2189.00, 
2190.00, 
2191.00, 
2192.00, 
2193.00, 
2194.00, 
2195.00, 
2196.00, 
2197.00, 
2198.00, 
2199.00, 
2200.00, 
2201.00, 
2202.00, 
2203.00, 
2204.00, 
2205.00, 
2206.00, 
2207.00, 
2208.00, 
2209.00, 
2210.00, 
2211.00, 
2212.00, 
2213.00, 
2214.00, 
2215.00, 
2216.00, 
2217.00, 
2218.00, 
2219.00, 
2220.00, 
2221.00, 
2222.00, 
2223.00, 
2224.00, 
2225.00, 
2226.00, 
2227.00, 
2228.00, 
2229.00, 
2230.00, 
2231.00, 
2232.00, 
2233.00, 
2234.00, 
2235.00, 
2236.00, 
2237.00, 
2238.00, 
2239.00, 
2240.00, 
2241.00, 
2242.00, 
2243.00, 
2244.00, 
2245.00, 
2246.00, 
2247.00, 
2248.00, 
2249.00, 
2250.00, 
2251.00, 
2252.00, 
2253.00, 
2254.00, 
2255.00, 
2256.00, 
2257.00, 
2258.00, 
2259.00, 
2260.00, 
2261.00, 
2262.00, 
2263.00, 
2264.00, 
2265.00, 
2266.00, 
2267.00, 
2268.00, 
2269.00, 
2270.00, 
2271.00, 
2272.00, 
2273.00, 
2274.00, 
2275.00, 
2276.00, 
2277.00, 
2278.00, 
2279.00, 
2280.00, 
2281.00, 
2282.00, 
2283.00, 
2284.00, 
2285.00, 
2286.00, 
2287.00, 
2288.00, 
2289.00, 
2290.00, 
2291.00, 
2292.00, 
2293.00, 
2294.00, 
2295.00, 
2296.00, 
2297.00, 
2298.00, 
2299.00, 
2300.00, 
2301.00, 
2302.00, 
2303.00, 
2304.00, 
2305.00, 
2306.00, 
2307.00, 
2308.00, 
2309.00, 
2310.00, 
2311.00, 
2312.00, 
2313.00, 
2314.00, 
2315.00, 
2316.00, 
2317.00, 
2318.00, 
2319.00, 
2320.00, 
2321.00, 
2322.00, 
2323.00, 
2324.00, 
2325.00, 
2326.00, 
2327.00, 
2328.00, 
2329.00, 
2330.00, 
2331.00, 
2332.00, 
2333.00, 
2334.00, 
2335.00, 
2336.00, 
2337.00, 
2338.00, 
2339.00, 
2340.00, 
2341.00, 
2342.00, 
2343.00, 
2344.00, 
2345.00, 
2346.00, 
2347.00, 
2348.00, 
2349.00, 
2350.00, 
2351.00, 
2352.00, 
2353.00, 
2354.00, 
2355.00, 
2356.00, 
2357.00, 
2358.00, 
2359.00, 
2360.00, 
2361.00, 
2362.00, 
2363.00, 
2364.00, 
2365.00, 
2366.00, 
2367.00, 
2368.00, 
2369.00, 
2370.00, 
2371.00, 
2372.00, 
2373.00, 
2374.00, 
2375.00, 
2376.00, 
2377.00, 
2378.00, 
2379.00, 
2380.00, 
2381.00, 
2382.00, 
2383.00, 
2384.00, 
2385.00, 
2386.00, 
2387.00, 
2388.00, 
2389.00, 
2390.00, 
2391.00, 
2392.00, 
2393.00, 
2394.00, 
2395.00, 
2396.00, 
2397.00, 
2398.00, 
2399.00, 
2400.00, 
2401.00, 
2402.00, 
2403.00, 
2404.00, 
2405.00, 
2406.00, 
2407.00, 
2408.00, 
2409.00, 
2410.00, 
2411.00, 
2412.00, 
2413.00, 
2414.00, 
2415.00, 
2416.00, 
2417.00, 
2418.00, 
2419.00, 
2420.00, 
2421.00, 
2422.00, 
2423.00, 
2424.00, 
2425.00, 
2426.00, 
2427.00, 
2428.00, 
2429.00, 
2430.00, 
2431.00, 
2432.00, 
2433.00, 
2434.00, 
2435.00, 
2436.00, 
2437.00, 
2438.00, 
2439.00, 
2440.00, 
2441.00, 
2442.00, 
2443.00, 
2444.00, 
2445.00, 
2446.00, 
2447.00, 
2448.00, 
2449.00, 
2450.00, 
2451.00, 
2452.00, 
2453.00, 
2454.00, 
2455.00, 
2456.00, 
2457.00, 
2458.00, 
2459.00, 
2460.00, 
2461.00, 
2462.00, 
2463.00, 
2464.00, 
2465.00, 
2466.00, 
2467.00, 
2468.00, 
2469.00, 
2470.00, 
2471.00, 
2472.00, 
2473.00, 
2474.00, 
2475.00, 
2476.00, 
2477.00, 
2478.00, 
2479.00, 
2480.00, 
2481.00, 
2482.00, 
2483.00, 
2484.00, 
2485.00, 
2486.00, 
2487.00, 
2488.00, 
2489.00, 
2490.00, 
2491.00, 
2492.00, 
2493.00, 
2494.00, 
2495.00, 
2496.00, 
2497.00, 
2498.00, 
2499.00, 
2500.00, 
2501.00, 
2502.00, 
2503.00, 
2504.00, 
2505.00, 
2506.00, 
2507.00, 
2508.00, 
2509.00, 
2510.00, 
2511.00, 
2512.00, 
2513.00, 
2514.00, 
2515.00, 
2516.00, 
2517.00, 
2518.00, 
2519.00, 
2520.00, 
2521.00, 
2522.00, 
2523.00, 
2524.00, 
2525.00, 
2526.00, 
2527.00, 
2528.00, 
2529.00, 
2530.00, 
2531.00, 
2532.00, 
2533.00, 
2534.00, 
2535.00, 
2536.00, 
2537.00, 
2538.00, 
2539.00, 
2540.00, 
2541.00, 
2542.00, 
2543.00, 
2544.00, 
2545.00, 
2546.00, 
2547.00, 
2548.00, 
2549.00, 
2550.00, 
2551.00, 
2552.00, 
2553.00, 
2554.00, 
2555.00, 
2556.00, 
2557.00, 
2558.00, 
2559.00, 
2560.00, 
2561.00, 
2562.00, 
2563.00, 
2564.00, 
2565.00, 
2566.00, 
2567.00, 
2568.00, 
2569.00, 
2570.00, 
2571.00, 
2572.00, 
2573.00, 
2574.00, 
2575.00, 
2576.00, 
2577.00, 
2578.00, 
2579.00, 
2580.00, 
2581.00, 
2582.00, 
2583.00, 
2584.00, 
2585.00, 
2586.00, 
2587.00, 
2588.00, 
2589.00, 
2590.00, 
2591.00, 
2592.00, 
2593.00, 
2594.00, 
2595.00, 
2596.00, 
2597.00, 
2598.00, 
2599.00, 
2600.00, 
