"2cP5 - RawData"
"Wavelength nm.","T%"
200.00,0.002
201.00,-0.001
202.00,0.001
203.00,0.001
204.00,0.003
205.00,-0.000
206.00,0.002
207.00,0.000
208.00,0.001
209.00,0.002
210.00,0.003
211.00,0.002
212.00,0.002
213.00,0.002
214.00,0.002
215.00,0.002
216.00,-0.001
217.00,-0.003
218.00,0.001
219.00,0.003
220.00,0.002
221.00,0.001
222.00,0.001
223.00,0.001
224.00,0.002
225.00,0.003
226.00,0.000
227.00,0.001
228.00,0.000
229.00,-0.000
230.00,0.000
231.00,0.002
232.00,0.002
233.00,0.001
234.00,0.001
235.00,-0.001
236.00,0.000
237.00,0.001
238.00,0.002
239.00,0.002
240.00,0.000
241.00,-0.000
242.00,-0.001
243.00,-0.001
244.00,-0.000
245.00,-0.000
246.00,-0.000
247.00,-0.001
248.00,-0.000
249.00,-0.000
250.00,0.001
251.00,0.001
252.00,-0.001
253.00,0.001
254.00,0.001
255.00,0.000
256.00,-0.000
257.00,-0.001
258.00,0.002
259.00,-0.001
260.00,0.001
261.00,0.000
262.00,0.000
263.00,-0.000
264.00,0.002
265.00,0.001
266.00,0.001
267.00,-0.000
268.00,-0.001
269.00,0.001
270.00,-0.000
271.00,-0.001
272.00,0.001
273.00,0.001
274.00,0.000
275.00,-0.000
276.00,-0.000
277.00,-0.001
278.00,0.002
279.00,-0.000
280.00,-0.000
281.00,-0.001
282.00,0.000
283.00,0.000
284.00,0.001
285.00,0.001
286.00,0.000
287.00,-0.000
288.00,0.001
289.00,0.001
290.00,-0.001
291.00,0.001
292.00,-0.000
293.00,0.000
294.00,-0.001
295.00,0.001
296.00,0.000
297.00,0.001
298.00,0.001
299.00,0.002
300.00,0.003
301.00,0.004
302.00,0.005
303.00,0.006
304.00,0.010
305.00,0.018
306.00,0.024
307.00,0.038
308.00,0.063
309.00,0.095
310.00,0.131
311.00,0.174
312.00,0.234
313.00,0.331
314.00,0.433
315.00,0.563
316.00,0.719
317.00,0.904
318.00,1.121
319.00,1.375
320.00,1.675
321.00,2.016
322.00,2.381
323.00,2.814
324.00,3.238
325.00,3.690
326.00,4.154
327.00,4.700
328.00,5.249
329.00,5.817
330.00,6.402
331.00,6.993
332.00,7.588
333.00,8.221
334.00,8.812
335.00,9.449
336.00,10.035
337.00,10.677
338.00,11.296
339.00,11.843
340.00,12.378
341.00,12.981
342.00,13.505
343.00,13.974
344.00,14.476
345.00,14.960
346.00,15.392
347.00,15.761
348.00,16.197
349.00,16.561
350.00,16.915
351.00,17.231
352.00,17.540
353.00,17.808
354.00,18.076
355.00,18.318
356.00,18.564
357.00,18.743
358.00,18.968
359.00,19.195
360.00,19.421
361.00,19.508
362.00,19.661
363.00,19.802
364.00,19.867
365.00,19.971
366.00,20.069
367.00,20.129
368.00,20.212
369.00,20.239
370.00,20.299
371.00,20.324
372.00,20.321
373.00,20.316
374.00,20.282
375.00,20.311
376.00,20.254
377.00,20.223
378.00,20.144
379.00,20.052
380.00,20.066
381.00,20.043
382.00,20.074
383.00,20.067
384.00,20.102
385.00,20.133
386.00,20.123
387.00,20.145
388.00,20.230
389.00,20.240
390.00,20.291
391.00,20.292
392.00,20.304
393.00,20.284
394.00,20.348
395.00,20.308
396.00,20.312
397.00,20.334
398.00,20.347
399.00,20.366
400.00,20.356
401.00,20.343
402.00,20.351
403.00,20.361
404.00,20.354
405.00,20.345
406.00,20.328
407.00,20.310
408.00,20.299
409.00,20.237
410.00,20.210
411.00,20.264
412.00,20.193
413.00,20.222
414.00,20.203
415.00,20.218
416.00,20.259
417.00,20.267
418.00,20.290
419.00,20.358
420.00,20.396
421.00,20.475
422.00,20.463
423.00,20.483
424.00,20.541
425.00,20.539
426.00,20.622
427.00,20.680
428.00,20.706
429.00,20.742
430.00,20.764
431.00,20.842
432.00,20.885
433.00,20.936
434.00,20.999
435.00,21.068
436.00,21.137
437.00,21.216
438.00,21.286
439.00,21.345
440.00,21.429
441.00,21.518
442.00,21.615
443.00,21.666
444.00,21.801
445.00,21.867
446.00,21.983
447.00,22.066
448.00,22.194
449.00,22.275
450.00,22.393
451.00,22.504
452.00,22.591
453.00,22.715
454.00,22.802
455.00,22.889
456.00,23.029
457.00,23.149
458.00,23.244
459.00,23.416
460.00,23.523
461.00,23.675
462.00,23.761
463.00,23.902
464.00,24.051
465.00,24.156
466.00,24.291
467.00,24.474
468.00,24.540
469.00,24.638
470.00,24.801
471.00,24.804
472.00,25.028
473.00,25.099
474.00,25.225
475.00,25.347
476.00,25.460
477.00,25.575
478.00,25.712
479.00,25.901
480.00,26.028
481.00,26.161
482.00,26.322
483.00,26.460
484.00,26.660
485.00,26.786
486.00,26.924
487.00,27.103
488.00,27.269
489.00,27.418
490.00,27.553
491.00,27.692
492.00,27.941
493.00,28.090
494.00,28.094
495.00,28.248
496.00,28.375
497.00,28.430
498.00,28.626
499.00,28.785
500.00,28.898
501.00,29.012
502.00,29.197
503.00,29.327
504.00,29.376
505.00,29.509
506.00,29.667
507.00,29.740
508.00,29.870
509.00,30.059
510.00,30.210
511.00,30.182
512.00,30.417
513.00,30.557
514.00,30.649
515.00,30.834
516.00,30.988
517.00,31.055
518.00,31.199
519.00,31.243
520.00,31.304
521.00,31.402
522.00,31.499
523.00,31.550
524.00,31.651
525.00,31.773
526.00,31.888
527.00,31.970
528.00,32.056
529.00,32.190
530.00,32.378
531.00,32.460
532.00,32.535
533.00,32.635
534.00,32.740
535.00,32.841
536.00,32.913
537.00,33.008
538.00,33.062
539.00,33.134
540.00,33.222
541.00,33.284
542.00,33.374
543.00,33.418
544.00,33.452
545.00,33.561
546.00,33.627
547.00,33.727
548.00,33.776
549.00,33.856
550.00,33.915
551.00,34.038
552.00,34.111
553.00,34.148
554.00,34.211
555.00,34.228
556.00,34.346
557.00,34.395
558.00,34.426
559.00,34.513
560.00,34.522
561.00,34.637
562.00,34.693
563.00,34.673
564.00,34.762
565.00,34.854
566.00,34.753
567.00,34.931
568.00,35.023
569.00,35.004
570.00,35.015
571.00,35.144
572.00,35.034
573.00,35.117
574.00,35.182
575.00,35.186
576.00,35.179
577.00,35.257
578.00,35.383
579.00,35.483
580.00,35.478
581.00,35.597
582.00,35.729
583.00,35.725
584.00,35.844
585.00,35.795
586.00,35.899
587.00,35.948
588.00,35.986
589.00,35.945
590.00,36.079
591.00,36.158
592.00,36.118
593.00,36.215
594.00,36.209
595.00,36.335
596.00,36.400
597.00,36.440
598.00,36.521
599.00,36.544
600.00,36.630
601.00,36.662
602.00,36.614
603.00,36.624
604.00,36.689
605.00,36.752
606.00,36.792
607.00,36.826
608.00,36.971
609.00,37.066
610.00,36.899
611.00,36.972
612.00,37.024
613.00,37.198
614.00,37.175
615.00,37.237
616.00,37.402
617.00,37.325
618.00,37.353
619.00,37.436
620.00,37.464
621.00,37.545
622.00,37.626
623.00,37.593
624.00,37.810
625.00,37.844
626.00,37.785
627.00,37.827
628.00,37.892
629.00,38.055
630.00,38.125
631.00,38.188
632.00,38.291
633.00,38.329
634.00,38.457
635.00,38.582
636.00,38.622
637.00,38.669
638.00,38.703
639.00,38.826
640.00,38.828
641.00,38.916
642.00,38.969
643.00,39.022
644.00,39.162
645.00,39.212
646.00,39.357
647.00,39.382
648.00,39.531
649.00,39.562
650.00,39.546
651.00,39.743
652.00,39.903
653.00,39.865
654.00,39.906
655.00,40.170
656.00,40.368
657.00,40.393
658.00,40.435
659.00,40.494
660.00,40.517
661.00,40.527
662.00,40.711
663.00,40.784
664.00,40.946
665.00,41.184
666.00,41.113
667.00,41.243
668.00,41.322
669.00,41.502
670.00,41.694
671.00,41.673
672.00,41.743
673.00,41.825
674.00,41.981
675.00,41.969
676.00,42.224
677.00,42.360
678.00,42.235
679.00,42.408
680.00,42.504
681.00,42.725
682.00,42.760
683.00,42.779
684.00,42.930
685.00,43.091
686.00,43.091
687.00,43.167
688.00,43.214
689.00,43.236
690.00,43.516
691.00,43.793
692.00,43.584
693.00,43.665
694.00,43.858
695.00,44.021
696.00,44.180
697.00,44.118
698.00,44.097
699.00,44.333
700.00,44.576
701.00,44.485
702.00,44.562
703.00,44.831
704.00,44.872
705.00,44.815
706.00,44.877
707.00,45.031
708.00,44.951
709.00,45.344
710.00,45.610
711.00,45.337
712.00,45.401
713.00,45.502
714.00,45.645
715.00,45.649
716.00,45.722
717.00,45.868
718.00,46.022
719.00,45.976
720.00,46.078
721.00,50.483
722.00,50.554
723.00,50.634
724.00,50.583
725.00,50.669
726.00,50.678
727.00,50.645
728.00,50.757
729.00,50.690
730.00,50.787
731.00,50.837
732.00,50.914
733.00,50.958
734.00,51.001
735.00,51.056
736.00,51.159
737.00,51.110
738.00,51.239
739.00,51.171
740.00,51.266
741.00,51.272
742.00,51.332
743.00,51.352
744.00,51.293
745.00,51.352
746.00,51.447
747.00,51.355
748.00,51.467
749.00,51.435
750.00,51.435
751.00,51.404
752.00,51.509
753.00,51.541
754.00,51.574
755.00,51.511
756.00,51.570
757.00,51.509
758.00,51.616
759.00,51.599
760.00,51.620
761.00,51.650
762.00,51.654
763.00,51.720
764.00,51.672
765.00,51.651
766.00,51.738
767.00,51.776
768.00,51.763
769.00,51.792
770.00,51.814
771.00,51.836
772.00,51.854
773.00,51.834
774.00,51.885
775.00,51.916
776.00,51.910
777.00,51.948
778.00,51.973
779.00,51.993
780.00,51.998
781.00,52.014
782.00,51.994
783.00,52.000
784.00,51.987
785.00,52.007
786.00,52.022
787.00,51.982
788.00,51.993
789.00,52.014
790.00,51.869
791.00,51.923
792.00,51.945
793.00,51.904
794.00,51.904
795.00,51.971
796.00,51.962
797.00,51.873
798.00,51.912
799.00,51.821
800.00,51.932
801.00,51.919
802.00,51.879
803.00,51.898
804.00,51.835
805.00,51.920
806.00,51.867
807.00,51.840
808.00,51.995
809.00,51.874
810.00,51.831
811.00,51.802
812.00,51.856
813.00,51.787
814.00,51.774
815.00,51.816
816.00,51.825
817.00,51.739
818.00,51.713
819.00,51.716
820.00,51.694
821.00,51.694
822.00,51.667
823.00,51.619
824.00,51.697
825.00,51.568
826.00,51.592
827.00,51.691
828.00,51.612
829.00,51.650
830.00,51.654
831.00,53.824
832.00,53.873
833.00,53.791
834.00,53.782
835.00,53.776
836.00,53.769
837.00,53.775
838.00,53.719
839.00,53.726
840.00,53.663
841.00,53.665
842.00,53.652
843.00,53.675
844.00,53.639
845.00,53.597
846.00,53.622
847.00,53.564
848.00,53.570
849.00,53.494
850.00,53.531
851.00,53.443
852.00,53.449
853.00,53.407
854.00,53.398
855.00,53.350
856.00,53.348
857.00,53.304
858.00,53.221
859.00,53.307
860.00,53.259
861.00,53.252
862.00,53.217
863.00,53.236
864.00,53.202
865.00,53.249
866.00,53.165
867.00,53.161
868.00,53.135
869.00,53.149
870.00,53.107
871.00,53.111
872.00,53.140
873.00,53.123
874.00,53.072
875.00,53.233
876.00,53.123
877.00,53.095
878.00,53.128
879.00,53.053
880.00,53.085
881.00,53.018
882.00,53.071
883.00,53.045
884.00,52.969
885.00,52.953
886.00,52.989
887.00,52.959
888.00,52.922
889.00,52.864
890.00,53.024
891.00,52.870
892.00,52.847
893.00,52.817
894.00,52.831
895.00,52.792
896.00,52.782
897.00,52.755
898.00,52.708
899.00,52.701
900.00,52.702
901.00,52.699
902.00,52.716
903.00,52.672
904.00,52.681
905.00,52.652
906.00,52.640
907.00,52.623
908.00,52.604
909.00,52.588
910.00,52.530
911.00,52.563
912.00,52.544
913.00,52.462
914.00,52.456
915.00,52.460
916.00,52.441
917.00,52.411
918.00,52.411
919.00,52.358
920.00,52.335
921.00,52.349
922.00,52.319
923.00,52.321
924.00,52.282
925.00,52.253
926.00,52.232
927.00,52.241
928.00,52.196
929.00,52.219
930.00,52.172
931.00,52.169
932.00,52.130
933.00,52.140
934.00,52.122
935.00,52.112
936.00,52.060
937.00,52.059
938.00,52.044
939.00,52.034
940.00,51.991
941.00,51.984
942.00,51.969
943.00,51.960
944.00,51.864
945.00,51.960
946.00,51.900
947.00,51.869
948.00,51.870
949.00,51.853
950.00,51.846
951.00,51.821
952.00,51.798
953.00,51.751
954.00,51.744
955.00,51.694
956.00,51.684
957.00,51.641
958.00,51.659
959.00,51.613
960.00,51.608
961.00,51.594
962.00,51.610
963.00,51.561
964.00,51.542
965.00,51.540
966.00,51.526
967.00,51.521
968.00,51.491
969.00,51.524
970.00,51.488
971.00,51.512
972.00,51.468
973.00,51.509
974.00,51.465
975.00,51.481
976.00,51.513
977.00,51.480
978.00,51.536
979.00,51.487
980.00,51.504
981.00,51.505
982.00,51.492
983.00,51.477
984.00,51.469
985.00,51.500
986.00,51.446
987.00,51.454
988.00,51.459
989.00,51.442
990.00,51.442
991.00,51.385
992.00,51.435
993.00,51.383
994.00,51.360
995.00,51.369
996.00,51.340
997.00,51.331
998.00,51.298
999.00,51.324
1000.00,51.299
1001.00,51.288
1002.00,51.268
1003.00,51.277
1004.00,51.245
1005.00,51.201
1006.00,51.314
1007.00,51.217
1008.00,51.203
1009.00,51.188
1010.00,51.159
1011.00,51.174
1012.00,51.134
1013.00,51.134
1014.00,51.102
1015.00,51.109
1016.00,51.063
1017.00,51.061
1018.00,51.063
1019.00,51.005
1020.00,51.020
1021.00,50.998
1022.00,51.010
1023.00,50.961
1024.00,50.954
1025.00,50.962
1026.00,50.927
1027.00,50.889
1028.00,50.912
1029.00,50.879
1030.00,50.838
1031.00,50.880
1032.00,50.814
1033.00,50.823
1034.00,50.810
1035.00,50.769
1036.00,50.763
1037.00,50.742
1038.00,50.709
1039.00,50.695
1040.00,50.685
1041.00,50.653
1042.00,50.631
1043.00,50.605
1044.00,50.654
1045.00,50.644
1046.00,50.609
1047.00,50.644
1048.00,50.669
1049.00,50.658
1050.00,50.659
1051.00,50.711
1052.00,50.690
1053.00,50.711
1054.00,50.700
1055.00,50.723
1056.00,50.727
1057.00,50.713
1058.00,50.723
1059.00,50.696
1060.00,50.710
1061.00,50.702
1062.00,50.680
1063.00,50.688
1064.00,50.681
1065.00,50.660
1066.00,50.689
1067.00,50.692
1068.00,50.664
1069.00,50.638
1070.00,50.625
1071.00,50.586
1072.00,50.620
1073.00,50.584
1074.00,50.589
1075.00,50.576
1076.00,50.559
1077.00,50.568
1078.00,50.540
1079.00,50.538
1080.00,50.544
1081.00,50.527
1082.00,50.520
1083.00,50.522
1084.00,50.511
1085.00,50.503
1086.00,50.493
1087.00,50.473
1088.00,50.456
1089.00,50.452
1090.00,50.436
1091.00,50.451
1092.00,50.436
1093.00,50.423
1094.00,50.412
1095.00,50.403
1096.00,50.385
1097.00,50.380
1098.00,50.369
1099.00,50.356
1100.00,50.357
1101.00,50.336
1102.00,50.338
1103.00,50.336
1104.00,50.311
1105.00,50.316
1106.00,50.295
1107.00,50.290
1108.00,50.288
1109.00,50.273
1110.00,50.277
1111.00,50.282
1112.00,50.262
1113.00,50.256
1114.00,50.249
1115.00,50.233
1116.00,50.234
1117.00,50.210
1118.00,50.191
1119.00,50.194
1120.00,50.168
1121.00,50.169
1122.00,50.142
1123.00,50.156
1124.00,50.170
1125.00,50.151
1126.00,50.134
1127.00,50.170
1128.00,50.155
1129.00,50.103
1130.00,50.099
1131.00,50.093
1132.00,50.074
1133.00,50.084
1134.00,50.074
1135.00,50.088
1136.00,50.057
1137.00,50.061
1138.00,50.089
1139.00,50.107
1140.00,50.096
1141.00,50.092
1142.00,50.034
1143.00,50.049
1144.00,50.031
1145.00,50.027
1146.00,50.033
1147.00,50.035
1148.00,50.012
1149.00,50.026
1150.00,50.019
1151.00,50.006
1152.00,49.996
1153.00,49.981
1154.00,49.986
1155.00,49.985
1156.00,49.968
1157.00,49.988
1158.00,49.981
1159.00,49.966
1160.00,49.972
1161.00,49.976
1162.00,49.961
1163.00,49.965
1164.00,49.956
1165.00,49.954
1166.00,49.964
1167.00,49.939
1168.00,49.979
1169.00,49.969
1170.00,49.955
1171.00,49.944
1172.00,49.950
1173.00,49.943
1174.00,49.945
1175.00,49.941
1176.00,49.943
1177.00,49.936
1178.00,49.929
1179.00,49.944
1180.00,49.925
1181.00,49.934
1182.00,49.941
1183.00,49.916
1184.00,49.907
1185.00,49.917
1186.00,49.899
1187.00,49.912
1188.00,49.921
1189.00,49.926
1190.00,49.908
1191.00,49.906
1192.00,49.914
1193.00,49.899
1194.00,49.906
1195.00,49.875
1196.00,49.911
1197.00,49.900
1198.00,49.890
1199.00,49.897
1200.00,49.884
1201.00,49.917
1202.00,49.900
1203.00,49.885
1204.00,49.880
1205.00,49.883
1206.00,49.879
1207.00,49.872
1208.00,49.861
1209.00,49.868
1210.00,49.870
1211.00,49.859
1212.00,49.891
1213.00,49.860
1214.00,49.867
1215.00,49.874
1216.00,49.882
1217.00,49.871
1218.00,49.861
1219.00,49.892
1220.00,49.874
1221.00,49.888
1222.00,49.867
1223.00,49.886
1224.00,49.884
1225.00,49.852
1226.00,49.863
1227.00,49.862
1228.00,49.868
1229.00,49.877
1230.00,49.882
1231.00,49.881
1232.00,49.894
1233.00,49.893
1234.00,49.917
1235.00,49.910
1236.00,49.899
1237.00,49.900
1238.00,49.895
1239.00,49.904
1240.00,49.886
1241.00,49.886
1242.00,49.904
1243.00,49.924
1244.00,49.895
1245.00,49.931
1246.00,49.943
1247.00,49.918
1248.00,49.934
1249.00,49.946
1250.00,49.952
1251.00,49.937
1252.00,49.938
1253.00,49.935
1254.00,49.952
1255.00,49.938
1256.00,49.919
1257.00,49.920
1258.00,49.956
1259.00,49.944
1260.00,49.961
1261.00,49.950
1262.00,49.953
1263.00,49.931
1264.00,49.956
1265.00,49.961
1266.00,49.951
1267.00,49.972
1268.00,49.979
1269.00,49.972
1270.00,49.993
1271.00,49.997
1272.00,49.992
1273.00,50.009
1274.00,49.992
1275.00,50.013
1276.00,50.018
1277.00,50.010
1278.00,50.026
1279.00,50.039
1280.00,50.035
1281.00,50.052
1282.00,50.041
1283.00,50.038
1284.00,50.032
1285.00,50.025
1286.00,50.051
1287.00,50.044
1288.00,50.036
1289.00,50.048
1290.00,50.071
1291.00,50.054
1292.00,50.057
1293.00,50.063
1294.00,50.078
1295.00,50.090
1296.00,50.072
1297.00,50.097
1298.00,50.122
1299.00,50.091
1300.00,50.124
1301.00,50.116
1302.00,50.114
1303.00,50.133
1304.00,50.113
1305.00,50.134
1306.00,50.144
1307.00,50.149
1308.00,50.154
1309.00,50.160
1310.00,50.150
1311.00,50.164
1312.00,50.164
1313.00,50.156
1314.00,50.186
1315.00,50.191
1316.00,50.194
1317.00,50.216
1318.00,50.204
1319.00,50.214
1320.00,50.223
1321.00,50.353
1322.00,50.360
1323.00,50.370
1324.00,50.348
1325.00,50.339
1326.00,50.352
1327.00,50.362
1328.00,50.332
1329.00,50.345
1330.00,50.325
1331.00,50.334
1332.00,50.321
1333.00,50.338
1334.00,50.346
1335.00,50.380
1336.00,50.398
1337.00,50.437
1338.00,50.493
1339.00,50.549
1340.00,50.605
1341.00,50.669
1342.00,50.725
1343.00,50.772
1344.00,50.823
1345.00,50.881
1346.00,50.911
1347.00,50.933
1348.00,50.966
1349.00,50.982
1350.00,50.995
1351.00,51.020
1352.00,51.020
1353.00,51.028
1354.00,51.019
1355.00,50.980
1356.00,51.050
1357.00,51.034
1358.00,51.043
1359.00,51.097
1360.00,50.991
1361.00,51.042
1362.00,51.065
1363.00,51.144
1364.00,51.117
1365.00,51.052
1366.00,51.057
1367.00,51.005
1368.00,51.000
1369.00,51.063
1370.00,51.038
1371.00,50.976
1372.00,51.008
1373.00,51.021
1374.00,51.029
1375.00,51.021
1376.00,50.982
1377.00,50.972
1378.00,51.026
1379.00,51.052
1380.00,51.024
1381.00,51.060
1382.00,50.994
1383.00,51.032
1384.00,50.980
1385.00,50.939
1386.00,51.031
1387.00,51.028
1388.00,50.977
1389.00,50.955
1390.00,51.005
1391.00,51.037
1392.00,51.020
1393.00,50.989
1394.00,51.005
1395.00,51.015
1396.00,50.952
1397.00,50.971
1398.00,51.079
1399.00,51.007
1400.00,51.022
1401.00,51.036
1402.00,51.052
1403.00,51.034
1404.00,51.031
1405.00,51.060
1406.00,51.051
1407.00,51.070
1408.00,51.116
1409.00,51.033
1410.00,51.085
1411.00,51.104
1412.00,51.149
1413.00,51.059
1414.00,51.068
1415.00,51.116
1416.00,51.137
1417.00,51.174
1418.00,51.145
1419.00,51.129
1420.00,51.149
1421.00,51.207
1422.00,51.197
1423.00,51.202
1424.00,51.215
1425.00,51.237
1426.00,51.239
1427.00,51.264
1428.00,51.276
1429.00,51.275
1430.00,51.278
1431.00,51.312
1432.00,51.304
1433.00,51.311
1434.00,51.311
1435.00,51.349
1436.00,51.379
1437.00,51.370
1438.00,51.382
1439.00,51.409
1440.00,51.417
1441.00,51.419
1442.00,51.434
1443.00,51.456
1444.00,51.502
1445.00,51.474
1446.00,51.486
1447.00,51.522
1448.00,51.543
1449.00,51.550
1450.00,51.553
1451.00,51.566
1452.00,51.571
1453.00,51.577
1454.00,51.604
1455.00,51.628
1456.00,51.652
1457.00,51.641
1458.00,51.663
1459.00,51.677
1460.00,51.695
1461.00,51.695
1462.00,51.740
1463.00,51.735
1464.00,51.730
1465.00,51.745
1466.00,51.751
1467.00,51.766
1468.00,51.832
1469.00,51.812
1470.00,51.829
1471.00,51.842
1472.00,51.846
1473.00,51.867
1474.00,51.881
1475.00,51.890
1476.00,51.909
1477.00,51.904
1478.00,51.922
1479.00,51.937
1480.00,51.940
1481.00,51.948
1482.00,51.973
1483.00,51.986
1484.00,51.997
1485.00,51.999
1486.00,52.001
1487.00,52.044
1488.00,52.063
1489.00,52.045
1490.00,52.063
1491.00,52.078
1492.00,52.097
1493.00,52.087
1494.00,52.112
1495.00,52.115
1496.00,52.118
1497.00,52.127
1498.00,52.128
1499.00,52.155
1500.00,52.183
1501.00, 
1502.00, 
1503.00, 
1504.00, 
1505.00, 
1506.00, 
1507.00, 
1508.00, 
1509.00, 
1510.00, 
1511.00, 
1512.00, 
1513.00, 
1514.00, 
1515.00, 
1516.00, 
1517.00, 
1518.00, 
1519.00, 
1520.00, 
1521.00, 
1522.00, 
1523.00, 
1524.00, 
1525.00, 
1526.00, 
1527.00, 
1528.00, 
1529.00, 
1530.00, 
1531.00, 
1532.00, 
1533.00, 
1534.00, 
1535.00, 
1536.00, 
1537.00, 
1538.00, 
1539.00, 
1540.00, 
1541.00, 
1542.00, 
1543.00, 
1544.00, 
1545.00, 
1546.00, 
1547.00, 
1548.00, 
1549.00, 
1550.00, 
1551.00, 
1552.00, 
1553.00, 
1554.00, 
1555.00, 
1556.00, 
1557.00, 
1558.00, 
1559.00, 
1560.00, 
1561.00, 
1562.00, 
1563.00, 
1564.00, 
1565.00, 
1566.00, 
1567.00, 
1568.00, 
1569.00, 
1570.00, 
1571.00, 
1572.00, 
1573.00, 
1574.00, 
1575.00, 
1576.00, 
1577.00, 
1578.00, 
1579.00, 
1580.00, 
1581.00, 
1582.00, 
1583.00, 
1584.00, 
1585.00, 
1586.00, 
1587.00, 
1588.00, 
1589.00, 
1590.00, 
1591.00, 
1592.00, 
1593.00, 
1594.00, 
1595.00, 
1596.00, 
1597.00, 
1598.00, 
1599.00, 
1600.00, 
1601.00, 
1602.00, 
1603.00, 
1604.00, 
1605.00, 
1606.00, 
1607.00, 
1608.00, 
1609.00, 
1610.00, 
1611.00, 
1612.00, 
1613.00, 
1614.00, 
1615.00, 
1616.00, 
1617.00, 
1618.00, 
1619.00, 
1620.00, 
1621.00, 
1622.00, 
1623.00, 
1624.00, 
1625.00, 
1626.00, 
1627.00, 
1628.00, 
1629.00, 
1630.00, 
1631.00, 
1632.00, 
1633.00, 
1634.00, 
1635.00, 
1636.00, 
1637.00, 
1638.00, 
1639.00, 
1640.00, 
1641.00, 
1642.00, 
1643.00, 
1644.00, 
1645.00, 
1646.00, 
1647.00, 
1648.00, 
1649.00, 
1650.00, 
1651.00, 
1652.00, 
1653.00, 
1654.00, 
1655.00, 
1656.00, 
1657.00, 
1658.00, 
1659.00, 
1660.00, 
1661.00, 
1662.00, 
1663.00, 
1664.00, 
1665.00, 
1666.00, 
1667.00, 
1668.00, 
1669.00, 
1670.00, 
1671.00, 
1672.00, 
1673.00, 
1674.00, 
1675.00, 
1676.00, 
1677.00, 
1678.00, 
1679.00, 
1680.00, 
1681.00, 
1682.00, 
1683.00, 
1684.00, 
1685.00, 
1686.00, 
1687.00, 
1688.00, 
1689.00, 
1690.00, 
1691.00, 
1692.00, 
1693.00, 
1694.00, 
1695.00, 
1696.00, 
1697.00, 
1698.00, 
1699.00, 
1700.00, 
1701.00, 
1702.00, 
1703.00, 
1704.00, 
1705.00, 
1706.00, 
1707.00, 
1708.00, 
1709.00, 
1710.00, 
1711.00, 
1712.00, 
1713.00, 
1714.00, 
1715.00, 
1716.00, 
1717.00, 
1718.00, 
1719.00, 
1720.00, 
1721.00, 
1722.00, 
1723.00, 
1724.00, 
1725.00, 
1726.00, 
1727.00, 
1728.00, 
1729.00, 
1730.00, 
1731.00, 
1732.00, 
1733.00, 
1734.00, 
1735.00, 
1736.00, 
1737.00, 
1738.00, 
1739.00, 
1740.00, 
1741.00, 
1742.00, 
1743.00, 
1744.00, 
1745.00, 
1746.00, 
1747.00, 
1748.00, 
1749.00, 
1750.00, 
1751.00, 
1752.00, 
1753.00, 
1754.00, 
1755.00, 
1756.00, 
1757.00, 
1758.00, 
1759.00, 
1760.00, 
1761.00, 
1762.00, 
1763.00, 
1764.00, 
1765.00, 
1766.00, 
1767.00, 
1768.00, 
1769.00, 
1770.00, 
1771.00, 
1772.00, 
1773.00, 
1774.00, 
1775.00, 
1776.00, 
1777.00, 
1778.00, 
1779.00, 
1780.00, 
1781.00, 
1782.00, 
1783.00, 
1784.00, 
1785.00, 
1786.00, 
1787.00, 
1788.00, 
1789.00, 
1790.00, 
1791.00, 
1792.00, 
1793.00, 
1794.00, 
1795.00, 
1796.00, 
1797.00, 
1798.00, 
1799.00, 
1800.00, 
1801.00, 
1802.00, 
1803.00, 
1804.00, 
1805.00, 
1806.00, 
1807.00, 
1808.00, 
1809.00, 
1810.00, 
1811.00, 
1812.00, 
1813.00, 
1814.00, 
1815.00, 
1816.00, 
1817.00, 
1818.00, 
1819.00, 
1820.00, 
1821.00, 
1822.00, 
1823.00, 
1824.00, 
1825.00, 
1826.00, 
1827.00, 
1828.00, 
1829.00, 
1830.00, 
1831.00, 
1832.00, 
1833.00, 
1834.00, 
1835.00, 
1836.00, 
1837.00, 
1838.00, 
1839.00, 
1840.00, 
1841.00, 
1842.00, 
1843.00, 
1844.00, 
1845.00, 
1846.00, 
1847.00, 
1848.00, 
1849.00, 
1850.00, 
1851.00, 
1852.00, 
1853.00, 
1854.00, 
1855.00, 
1856.00, 
1857.00, 
1858.00, 
1859.00, 
1860.00, 
1861.00, 
1862.00, 
1863.00, 
1864.00, 
1865.00, 
1866.00, 
1867.00, 
1868.00, 
1869.00, 
1870.00, 
1871.00, 
1872.00, 
1873.00, 
1874.00, 
1875.00, 
1876.00, 
1877.00, 
1878.00, 
1879.00, 
1880.00, 
1881.00, 
1882.00, 
1883.00, 
1884.00, 
1885.00, 
1886.00, 
1887.00, 
1888.00, 
1889.00, 
1890.00, 
1891.00, 
1892.00, 
1893.00, 
1894.00, 
1895.00, 
1896.00, 
1897.00, 
1898.00, 
1899.00, 
1900.00, 
1901.00, 
1902.00, 
1903.00, 
1904.00, 
1905.00, 
1906.00, 
1907.00, 
1908.00, 
1909.00, 
1910.00, 
1911.00, 
1912.00, 
1913.00, 
1914.00, 
1915.00, 
1916.00, 
1917.00, 
1918.00, 
1919.00, 
1920.00, 
1921.00, 
1922.00, 
1923.00, 
1924.00, 
1925.00, 
1926.00, 
1927.00, 
1928.00, 
1929.00, 
1930.00, 
1931.00, 
1932.00, 
1933.00, 
1934.00, 
1935.00, 
1936.00, 
1937.00, 
1938.00, 
1939.00, 
1940.00, 
1941.00, 
1942.00, 
1943.00, 
1944.00, 
1945.00, 
1946.00, 
1947.00, 
1948.00, 
1949.00, 
1950.00, 
1951.00, 
1952.00, 
1953.00, 
1954.00, 
1955.00, 
1956.00, 
1957.00, 
1958.00, 
1959.00, 
1960.00, 
1961.00, 
1962.00, 
1963.00, 
1964.00, 
1965.00, 
1966.00, 
1967.00, 
1968.00, 
1969.00, 
1970.00, 
1971.00, 
1972.00, 
1973.00, 
1974.00, 
1975.00, 
1976.00, 
1977.00, 
1978.00, 
1979.00, 
1980.00, 
1981.00, 
1982.00, 
1983.00, 
1984.00, 
1985.00, 
1986.00, 
1987.00, 
1988.00, 
1989.00, 
1990.00, 
1991.00, 
1992.00, 
1993.00, 
1994.00, 
1995.00, 
1996.00, 
1997.00, 
1998.00, 
1999.00, 
2000.00, 
2001.00, 
2002.00, 
2003.00, 
2004.00, 
2005.00, 
2006.00, 
2007.00, 
2008.00, 
2009.00, 
2010.00, 
2011.00, 
2012.00, 
2013.00, 
2014.00, 
2015.00, 
2016.00, 
2017.00, 
2018.00, 
2019.00, 
2020.00, 
2021.00, 
2022.00, 
2023.00, 
2024.00, 
2025.00, 
2026.00, 
2027.00, 
2028.00, 
2029.00, 
2030.00, 
2031.00, 
2032.00, 
2033.00, 
2034.00, 
2035.00, 
2036.00, 
2037.00, 
2038.00, 
2039.00, 
2040.00, 
2041.00, 
2042.00, 
2043.00, 
2044.00, 
2045.00, 
2046.00, 
2047.00, 
2048.00, 
2049.00, 
2050.00, 
2051.00, 
2052.00, 
2053.00, 
2054.00, 
2055.00, 
2056.00, 
2057.00, 
2058.00, 
2059.00, 
2060.00, 
2061.00, 
2062.00, 
2063.00, 
2064.00, 
2065.00, 
2066.00, 
2067.00, 
2068.00, 
2069.00, 
2070.00, 
2071.00, 
2072.00, 
2073.00, 
2074.00, 
2075.00, 
2076.00, 
2077.00, 
2078.00, 
2079.00, 
2080.00, 
2081.00, 
2082.00, 
2083.00, 
2084.00, 
2085.00, 
2086.00, 
2087.00, 
2088.00, 
2089.00, 
2090.00, 
2091.00, 
2092.00, 
2093.00, 
2094.00, 
2095.00, 
2096.00, 
2097.00, 
2098.00, 
2099.00, 
2100.00, 
2101.00, 
2102.00, 
2103.00, 
2104.00, 
2105.00, 
2106.00, 
2107.00, 
2108.00, 
2109.00, 
2110.00, 
2111.00, 
2112.00, 
2113.00, 
2114.00, 
2115.00, 
2116.00, 
2117.00, 
2118.00, 
2119.00, 
2120.00, 
2121.00, 
2122.00, 
2123.00, 
2124.00, 
2125.00, 
2126.00, 
2127.00, 
2128.00, 
2129.00, 
2130.00, 
2131.00, 
2132.00, 
2133.00, 
2134.00, 
2135.00, 
2136.00, 
2137.00, 
2138.00, 
2139.00, 
2140.00, 
2141.00, 
2142.00, 
2143.00, 
2144.00, 
2145.00, 
2146.00, 
2147.00, 
2148.00, 
2149.00, 
2150.00, 
2151.00, 
2152.00, 
2153.00, 
2154.00, 
2155.00, 
2156.00, 
2157.00, 
2158.00, 
2159.00, 
2160.00, 
2161.00, 
2162.00, 
2163.00, 
2164.00, 
2165.00, 
2166.00, 
2167.00, 
2168.00, 
2169.00, 
2170.00, 
2171.00, 
2172.00, 
2173.00, 
2174.00, 
2175.00, 
2176.00, 
2177.00, 
2178.00, 
2179.00, 
2180.00, 
2181.00, 
2182.00, 
2183.00, 
2184.00, 
2185.00, 
2186.00, 
2187.00, 
2188.00, 
2189.00, 
2190.00, 
2191.00, 
2192.00, 
2193.00, 
2194.00, 
2195.00, 
2196.00, 
2197.00, 
2198.00, 
2199.00, 
2200.00, 
2201.00, 
2202.00, 
2203.00, 
2204.00, 
2205.00, 
2206.00, 
2207.00, 
2208.00, 
2209.00, 
2210.00, 
2211.00, 
2212.00, 
2213.00, 
2214.00, 
2215.00, 
2216.00, 
2217.00, 
2218.00, 
2219.00, 
2220.00, 
2221.00, 
2222.00, 
2223.00, 
2224.00, 
2225.00, 
2226.00, 
2227.00, 
2228.00, 
2229.00, 
2230.00, 
2231.00, 
2232.00, 
2233.00, 
2234.00, 
2235.00, 
2236.00, 
2237.00, 
2238.00, 
2239.00, 
2240.00, 
2241.00, 
2242.00, 
2243.00, 
2244.00, 
2245.00, 
2246.00, 
2247.00, 
2248.00, 
2249.00, 
2250.00, 
2251.00, 
2252.00, 
2253.00, 
2254.00, 
2255.00, 
2256.00, 
2257.00, 
2258.00, 
2259.00, 
2260.00, 
2261.00, 
2262.00, 
2263.00, 
2264.00, 
2265.00, 
2266.00, 
2267.00, 
2268.00, 
2269.00, 
2270.00, 
2271.00, 
2272.00, 
2273.00, 
2274.00, 
2275.00, 
2276.00, 
2277.00, 
2278.00, 
2279.00, 
2280.00, 
2281.00, 
2282.00, 
2283.00, 
2284.00, 
2285.00, 
2286.00, 
2287.00, 
2288.00, 
2289.00, 
2290.00, 
2291.00, 
2292.00, 
2293.00, 
2294.00, 
2295.00, 
2296.00, 
2297.00, 
2298.00, 
2299.00, 
2300.00, 
2301.00, 
2302.00, 
2303.00, 
2304.00, 
2305.00, 
2306.00, 
2307.00, 
2308.00, 
2309.00, 
2310.00, 
2311.00, 
2312.00, 
2313.00, 
2314.00, 
2315.00, 
2316.00, 
2317.00, 
2318.00, 
2319.00, 
2320.00, 
2321.00, 
2322.00, 
2323.00, 
2324.00, 
2325.00, 
2326.00, 
2327.00, 
2328.00, 
2329.00, 
2330.00, 
2331.00, 
2332.00, 
2333.00, 
2334.00, 
2335.00, 
2336.00, 
2337.00, 
2338.00, 
2339.00, 
2340.00, 
2341.00, 
2342.00, 
2343.00, 
2344.00, 
2345.00, 
2346.00, 
2347.00, 
2348.00, 
2349.00, 
2350.00, 
2351.00, 
2352.00, 
2353.00, 
2354.00, 
2355.00, 
2356.00, 
2357.00, 
2358.00, 
2359.00, 
2360.00, 
2361.00, 
2362.00, 
2363.00, 
2364.00, 
2365.00, 
2366.00, 
2367.00, 
2368.00, 
2369.00, 
2370.00, 
2371.00, 
2372.00, 
2373.00, 
2374.00, 
2375.00, 
2376.00, 
2377.00, 
2378.00, 
2379.00, 
2380.00, 
2381.00, 
2382.00, 
2383.00, 
2384.00, 
2385.00, 
2386.00, 
2387.00, 
2388.00, 
2389.00, 
2390.00, 
2391.00, 
2392.00, 
2393.00, 
2394.00, 
2395.00, 
2396.00, 
2397.00, 
2398.00, 
2399.00, 
2400.00, 
2401.00, 
2402.00, 
2403.00, 
2404.00, 
2405.00, 
2406.00, 
2407.00, 
2408.00, 
2409.00, 
2410.00, 
2411.00, 
2412.00, 
2413.00, 
2414.00, 
2415.00, 
2416.00, 
2417.00, 
2418.00, 
2419.00, 
2420.00, 
2421.00, 
2422.00, 
2423.00, 
2424.00, 
2425.00, 
2426.00, 
2427.00, 
2428.00, 
2429.00, 
2430.00, 
2431.00, 
2432.00, 
2433.00, 
2434.00, 
2435.00, 
2436.00, 
2437.00, 
2438.00, 
2439.00, 
2440.00, 
2441.00, 
2442.00, 
2443.00, 
2444.00, 
2445.00, 
2446.00, 
2447.00, 
2448.00, 
2449.00, 
2450.00, 
2451.00, 
2452.00, 
2453.00, 
2454.00, 
2455.00, 
2456.00, 
2457.00, 
2458.00, 
2459.00, 
2460.00, 
2461.00, 
2462.00, 
2463.00, 
2464.00, 
2465.00, 
2466.00, 
2467.00, 
2468.00, 
2469.00, 
2470.00, 
2471.00, 
2472.00, 
2473.00, 
2474.00, 
2475.00, 
2476.00, 
2477.00, 
2478.00, 
2479.00, 
2480.00, 
2481.00, 
2482.00, 
2483.00, 
2484.00, 
2485.00, 
2486.00, 
2487.00, 
2488.00, 
2489.00, 
2490.00, 
2491.00, 
2492.00, 
2493.00, 
2494.00, 
2495.00, 
2496.00, 
2497.00, 
2498.00, 
2499.00, 
2500.00, 
2501.00, 
2502.00, 
2503.00, 
2504.00, 
2505.00, 
2506.00, 
2507.00, 
2508.00, 
2509.00, 
2510.00, 
2511.00, 
2512.00, 
2513.00, 
2514.00, 
2515.00, 
2516.00, 
2517.00, 
2518.00, 
2519.00, 
2520.00, 
2521.00, 
2522.00, 
2523.00, 
2524.00, 
2525.00, 
2526.00, 
2527.00, 
2528.00, 
2529.00, 
2530.00, 
2531.00, 
2532.00, 
2533.00, 
2534.00, 
2535.00, 
2536.00, 
2537.00, 
2538.00, 
2539.00, 
2540.00, 
2541.00, 
2542.00, 
2543.00, 
2544.00, 
2545.00, 
2546.00, 
2547.00, 
2548.00, 
2549.00, 
2550.00, 
2551.00, 
2552.00, 
2553.00, 
2554.00, 
2555.00, 
2556.00, 
2557.00, 
2558.00, 
2559.00, 
2560.00, 
2561.00, 
2562.00, 
2563.00, 
2564.00, 
2565.00, 
2566.00, 
2567.00, 
2568.00, 
2569.00, 
2570.00, 
2571.00, 
2572.00, 
2573.00, 
2574.00, 
2575.00, 
2576.00, 
2577.00, 
2578.00, 
2579.00, 
2580.00, 
2581.00, 
2582.00, 
2583.00, 
2584.00, 
2585.00, 
2586.00, 
2587.00, 
2588.00, 
2589.00, 
2590.00, 
2591.00, 
2592.00, 
2593.00, 
2594.00, 
2595.00, 
2596.00, 
2597.00, 
2598.00, 
2599.00, 
2600.00, 
