"1cP4 - RawData"
"Wavelength nm.","T%"
200.00,0.002
201.00,0.001
202.00,0.005
203.00,-0.000
204.00,-0.000
205.00,0.001
206.00,0.002
207.00,0.003
208.00,-0.001
209.00,0.004
210.00,0.000
211.00,0.002
212.00,0.000
213.00,-0.002
214.00,0.002
215.00,0.000
216.00,0.003
217.00,0.004
218.00,-0.001
219.00,0.001
220.00,0.001
221.00,0.004
222.00,0.001
223.00,0.001
224.00,-0.000
225.00,0.000
226.00,-0.002
227.00,-0.000
228.00,0.002
229.00,-0.000
230.00,-0.000
231.00,0.001
232.00,-0.001
233.00,0.001
234.00,-0.000
235.00,0.002
236.00,-0.001
237.00,-0.001
238.00,0.001
239.00,0.001
240.00,-0.001
241.00,0.001
242.00,-0.000
243.00,0.001
244.00,0.002
245.00,0.001
246.00,0.002
247.00,0.000
248.00,-0.001
249.00,0.000
250.00,-0.002
251.00,0.001
252.00,-0.000
253.00,-0.000
254.00,-0.001
255.00,-0.000
256.00,0.001
257.00,-0.002
258.00,0.000
259.00,0.002
260.00,-0.000
261.00,-0.000
262.00,0.000
263.00,-0.000
264.00,0.001
265.00,0.001
266.00,-0.000
267.00,-0.000
268.00,0.000
269.00,-0.001
270.00,-0.000
271.00,-0.001
272.00,0.000
273.00,0.001
274.00,-0.001
275.00,-0.002
276.00,0.001
277.00,0.000
278.00,0.001
279.00,-0.000
280.00,-0.000
281.00,0.001
282.00,-0.001
283.00,0.000
284.00,0.002
285.00,0.001
286.00,0.001
287.00,0.000
288.00,0.001
289.00,0.001
290.00,-0.000
291.00,0.001
292.00,-0.002
293.00,0.000
294.00,0.000
295.00,-0.000
296.00,-0.000
297.00,0.000
298.00,0.001
299.00,0.001
300.00,0.000
301.00,-0.000
302.00,-0.000
303.00,0.000
304.00,-0.000
305.00,0.002
306.00,0.003
307.00,0.004
308.00,0.006
309.00,0.012
310.00,0.018
311.00,0.026
312.00,0.042
313.00,0.064
314.00,0.099
315.00,0.137
316.00,0.204
317.00,0.283
318.00,0.391
319.00,0.517
320.00,0.694
321.00,0.901
322.00,1.150
323.00,1.460
324.00,1.798
325.00,2.166
326.00,2.574
327.00,2.990
328.00,3.569
329.00,4.118
330.00,4.692
331.00,5.306
332.00,5.968
333.00,6.705
334.00,7.359
335.00,8.066
336.00,8.838
337.00,9.598
338.00,10.327
339.00,11.010
340.00,11.723
341.00,12.502
342.00,13.022
343.00,13.806
344.00,14.396
345.00,15.080
346.00,15.653
347.00,16.169
348.00,16.725
349.00,17.176
350.00,17.657
351.00,18.101
352.00,18.470
353.00,18.877
354.00,19.241
355.00,19.596
356.00,19.894
357.00,20.192
358.00,20.513
359.00,20.806
360.00,21.067
361.00,21.205
362.00,21.418
363.00,21.585
364.00,21.694
365.00,21.838
366.00,21.946
367.00,22.025
368.00,22.097
369.00,22.168
370.00,22.255
371.00,22.269
372.00,22.233
373.00,22.256
374.00,22.251
375.00,22.220
376.00,22.071
377.00,22.021
378.00,21.933
379.00,21.800
380.00,21.809
381.00,21.825
382.00,21.826
383.00,21.849
384.00,21.869
385.00,21.951
386.00,21.940
387.00,22.097
388.00,22.196
389.00,22.226
390.00,22.256
391.00,22.282
392.00,22.354
393.00,22.344
394.00,22.390
395.00,22.434
396.00,22.406
397.00,22.453
398.00,22.462
399.00,22.465
400.00,22.478
401.00,22.442
402.00,22.468
403.00,22.440
404.00,22.449
405.00,22.401
406.00,22.421
407.00,22.380
408.00,22.352
409.00,22.295
410.00,22.251
411.00,22.276
412.00,22.218
413.00,22.280
414.00,22.201
415.00,22.212
416.00,22.294
417.00,22.257
418.00,22.282
419.00,22.376
420.00,22.389
421.00,22.406
422.00,22.382
423.00,22.445
424.00,22.514
425.00,22.549
426.00,22.561
427.00,22.650
428.00,22.674
429.00,22.710
430.00,22.827
431.00,22.835
432.00,22.823
433.00,22.873
434.00,22.949
435.00,23.024
436.00,23.086
437.00,23.124
438.00,23.204
439.00,23.257
440.00,23.348
441.00,23.447
442.00,23.503
443.00,23.569
444.00,23.700
445.00,23.775
446.00,23.890
447.00,23.940
448.00,24.088
449.00,24.178
450.00,24.315
451.00,24.388
452.00,24.486
453.00,24.616
454.00,24.710
455.00,24.810
456.00,24.938
457.00,25.058
458.00,25.158
459.00,25.323
460.00,25.446
461.00,25.576
462.00,25.694
463.00,25.823
464.00,25.946
465.00,26.063
466.00,26.184
467.00,26.346
468.00,26.459
469.00,26.580
470.00,26.686
471.00,26.744
472.00,26.888
473.00,26.969
474.00,27.092
475.00,27.211
476.00,27.292
477.00,27.412
478.00,27.559
479.00,27.735
480.00,27.827
481.00,27.949
482.00,28.084
483.00,28.275
484.00,28.440
485.00,28.587
486.00,28.735
487.00,28.925
488.00,29.056
489.00,29.229
490.00,29.353
491.00,29.491
492.00,29.723
493.00,29.879
494.00,29.843
495.00,30.013
496.00,30.154
497.00,30.273
498.00,30.412
499.00,30.546
500.00,30.674
501.00,30.803
502.00,30.917
503.00,31.078
504.00,31.129
505.00,31.219
506.00,31.313
507.00,31.451
508.00,31.614
509.00,31.752
510.00,31.856
511.00,31.953
512.00,32.096
513.00,32.269
514.00,32.457
515.00,32.502
516.00,32.593
517.00,32.681
518.00,32.847
519.00,32.899
520.00,32.900
521.00,33.095
522.00,33.115
523.00,33.154
524.00,33.237
525.00,33.394
526.00,33.506
527.00,33.582
528.00,33.674
529.00,33.821
530.00,34.005
531.00,34.081
532.00,34.127
533.00,34.241
534.00,34.336
535.00,34.408
536.00,34.530
537.00,34.585
538.00,34.640
539.00,34.687
540.00,34.811
541.00,34.816
542.00,34.842
543.00,34.932
544.00,35.038
545.00,35.068
546.00,35.147
547.00,35.283
548.00,35.258
549.00,35.329
550.00,35.473
551.00,35.566
552.00,35.672
553.00,35.661
554.00,35.771
555.00,35.751
556.00,35.812
557.00,35.951
558.00,35.933
559.00,36.082
560.00,36.099
561.00,36.058
562.00,36.206
563.00,36.301
564.00,36.292
565.00,36.401
566.00,36.421
567.00,36.443
568.00,36.500
569.00,36.526
570.00,36.556
571.00,36.546
572.00,36.621
573.00,36.586
574.00,36.626
575.00,36.604
576.00,36.593
577.00,36.675
578.00,36.783
579.00,36.943
580.00,36.920
581.00,37.001
582.00,37.049
583.00,37.113
584.00,37.208
585.00,37.311
586.00,37.354
587.00,37.389
588.00,37.397
589.00,37.368
590.00,37.412
591.00,37.501
592.00,37.451
593.00,37.485
594.00,37.614
595.00,37.649
596.00,37.763
597.00,37.786
598.00,37.840
599.00,37.890
600.00,37.926
601.00,37.996
602.00,37.996
603.00,38.002
604.00,38.034
605.00,38.104
606.00,38.074
607.00,38.172
608.00,38.289
609.00,38.408
610.00,38.253
611.00,38.309
612.00,38.332
613.00,38.455
614.00,38.520
615.00,38.568
616.00,38.729
617.00,38.642
618.00,38.638
619.00,38.736
620.00,38.757
621.00,38.757
622.00,38.847
623.00,38.874
624.00,39.047
625.00,39.128
626.00,39.073
627.00,39.075
628.00,39.241
629.00,39.296
630.00,39.285
631.00,39.415
632.00,39.504
633.00,39.558
634.00,39.639
635.00,39.763
636.00,39.843
637.00,39.881
638.00,39.894
639.00,40.032
640.00,40.076
641.00,40.060
642.00,40.215
643.00,40.238
644.00,40.308
645.00,40.416
646.00,40.602
647.00,40.596
648.00,40.575
649.00,40.696
650.00,40.705
651.00,40.857
652.00,40.949
653.00,40.975
654.00,41.045
655.00,41.232
656.00,41.510
657.00,41.459
658.00,41.521
659.00,41.534
660.00,41.560
661.00,41.660
662.00,41.676
663.00,41.827
664.00,42.041
665.00,42.274
666.00,42.192
667.00,42.271
668.00,42.300
669.00,42.578
670.00,42.750
671.00,42.573
672.00,42.751
673.00,42.715
674.00,42.895
675.00,43.037
676.00,43.295
677.00,43.399
678.00,43.118
679.00,43.392
680.00,43.386
681.00,43.509
682.00,43.599
683.00,43.563
684.00,43.853
685.00,43.854
686.00,43.721
687.00,43.929
688.00,44.022
689.00,44.068
690.00,44.381
691.00,44.621
692.00,44.284
693.00,44.359
694.00,44.626
695.00,44.772
696.00,44.864
697.00,44.811
698.00,44.885
699.00,45.045
700.00,45.081
701.00,45.137
702.00,45.271
703.00,45.446
704.00,45.530
705.00,45.401
706.00,45.498
707.00,45.611
708.00,45.437
709.00,45.801
710.00,46.249
711.00,45.985
712.00,45.904
713.00,46.076
714.00,46.172
715.00,46.056
716.00,46.126
717.00,46.265
718.00,46.468
719.00,46.431
720.00,46.438
721.00,50.920
722.00,50.931
723.00,50.926
724.00,50.956
725.00,50.972
726.00,51.067
727.00,50.992
728.00,51.037
729.00,51.139
730.00,51.071
731.00,51.166
732.00,51.106
733.00,51.227
734.00,51.201
735.00,51.300
736.00,51.259
737.00,51.356
738.00,51.323
739.00,51.351
740.00,51.379
741.00,51.400
742.00,51.395
743.00,51.407
744.00,51.365
745.00,51.550
746.00,51.484
747.00,51.476
748.00,51.431
749.00,51.472
750.00,51.542
751.00,51.495
752.00,51.530
753.00,51.476
754.00,51.491
755.00,51.502
756.00,51.573
757.00,51.544
758.00,51.488
759.00,51.499
760.00,51.580
761.00,51.567
762.00,51.616
763.00,51.574
764.00,51.609
765.00,51.619
766.00,51.619
767.00,51.602
768.00,51.657
769.00,51.616
770.00,51.680
771.00,51.671
772.00,51.652
773.00,51.631
774.00,51.666
775.00,51.710
776.00,51.662
777.00,51.684
778.00,51.660
779.00,51.779
780.00,51.680
781.00,51.703
782.00,51.701
783.00,51.634
784.00,51.760
785.00,51.603
786.00,51.749
787.00,51.679
788.00,51.629
789.00,51.628
790.00,51.512
791.00,51.658
792.00,51.545
793.00,51.556
794.00,51.641
795.00,51.598
796.00,51.542
797.00,51.521
798.00,51.580
799.00,51.459
800.00,51.508
801.00,51.455
802.00,51.479
803.00,51.432
804.00,51.415
805.00,51.460
806.00,51.389
807.00,51.380
808.00,51.355
809.00,51.404
810.00,51.263
811.00,51.382
812.00,51.378
813.00,51.256
814.00,51.310
815.00,51.297
816.00,51.306
817.00,51.348
818.00,51.224
819.00,51.269
820.00,51.148
821.00,51.111
822.00,51.179
823.00,51.090
824.00,51.152
825.00,51.067
826.00,51.206
827.00,51.119
828.00,51.143
829.00,51.058
830.00,50.990
831.00,53.401
832.00,53.390
833.00,53.356
834.00,53.344
835.00,53.296
836.00,53.326
837.00,53.266
838.00,53.258
839.00,53.303
840.00,53.178
841.00,53.199
842.00,53.179
843.00,53.171
844.00,53.191
845.00,53.142
846.00,53.140
847.00,53.107
848.00,53.099
849.00,53.022
850.00,53.035
851.00,52.961
852.00,52.958
853.00,52.888
854.00,52.875
855.00,52.826
856.00,52.854
857.00,52.841
858.00,52.782
859.00,52.776
860.00,52.809
861.00,52.801
862.00,52.739
863.00,52.769
864.00,52.661
865.00,52.725
866.00,52.691
867.00,52.677
868.00,52.683
869.00,52.623
870.00,52.657
871.00,52.628
872.00,52.659
873.00,52.612
874.00,52.651
875.00,52.594
876.00,52.633
877.00,52.571
878.00,52.585
879.00,52.602
880.00,52.565
881.00,52.514
882.00,52.569
883.00,52.483
884.00,52.418
885.00,52.429
886.00,52.446
887.00,52.416
888.00,52.351
889.00,52.364
890.00,52.373
891.00,52.319
892.00,52.286
893.00,52.299
894.00,52.310
895.00,52.263
896.00,52.222
897.00,52.212
898.00,52.168
899.00,52.166
900.00,52.127
901.00,52.153
902.00,52.147
903.00,52.101
904.00,52.109
905.00,51.996
906.00,52.061
907.00,52.051
908.00,51.994
909.00,51.979
910.00,51.967
911.00,51.956
912.00,51.928
913.00,51.881
914.00,51.907
915.00,51.896
916.00,51.853
917.00,51.795
918.00,52.000
919.00,51.802
920.00,51.795
921.00,51.817
922.00,51.805
923.00,51.700
924.00,51.774
925.00,51.723
926.00,51.686
927.00,51.673
928.00,51.630
929.00,51.666
930.00,51.591
931.00,51.586
932.00,51.536
933.00,51.578
934.00,51.531
935.00,51.508
936.00,51.510
937.00,51.491
938.00,51.422
939.00,51.468
940.00,51.424
941.00,51.424
942.00,51.388
943.00,51.357
944.00,51.325
945.00,51.332
946.00,51.296
947.00,51.252
948.00,51.251
949.00,51.235
950.00,51.242
951.00,51.208
952.00,51.170
953.00,51.155
954.00,51.142
955.00,51.074
956.00,51.083
957.00,51.048
958.00,51.048
959.00,50.994
960.00,51.001
961.00,51.011
962.00,50.999
963.00,50.954
964.00,50.945
965.00,50.947
966.00,50.915
967.00,50.917
968.00,50.895
969.00,50.944
970.00,50.934
971.00,50.903
972.00,50.867
973.00,50.916
974.00,50.910
975.00,50.883
976.00,50.902
977.00,50.891
978.00,50.909
979.00,50.880
980.00,50.912
981.00,50.911
982.00,50.867
983.00,50.899
984.00,50.857
985.00,50.937
986.00,50.869
987.00,50.859
988.00,50.818
989.00,50.817
990.00,50.815
991.00,50.798
992.00,50.813
993.00,50.770
994.00,50.778
995.00,50.752
996.00,50.728
997.00,50.737
998.00,50.696
999.00,50.729
1000.00,50.731
1001.00,50.681
1002.00,50.674
1003.00,50.670
1004.00,50.642
1005.00,50.618
1006.00,50.646
1007.00,50.608
1008.00,50.593
1009.00,50.553
1010.00,50.561
1011.00,50.565
1012.00,50.529
1013.00,50.530
1014.00,50.499
1015.00,50.505
1016.00,50.473
1017.00,50.454
1018.00,50.462
1019.00,50.429
1020.00,50.430
1021.00,50.398
1022.00,50.405
1023.00,50.353
1024.00,50.376
1025.00,50.358
1026.00,50.341
1027.00,50.328
1028.00,50.322
1029.00,50.299
1030.00,50.273
1031.00,50.283
1032.00,50.248
1033.00,50.243
1034.00,50.216
1035.00,50.185
1036.00,50.163
1037.00,50.140
1038.00,50.148
1039.00,50.108
1040.00,50.096
1041.00,50.068
1042.00,50.061
1043.00,50.031
1044.00,50.062
1045.00,50.042
1046.00,50.024
1047.00,50.057
1048.00,50.045
1049.00,50.062
1050.00,50.052
1051.00,50.105
1052.00,50.094
1053.00,50.098
1054.00,50.099
1055.00,50.139
1056.00,50.147
1057.00,50.151
1058.00,50.142
1059.00,50.136
1060.00,50.146
1061.00,50.115
1062.00,50.090
1063.00,50.104
1064.00,50.100
1065.00,50.102
1066.00,50.107
1067.00,50.099
1068.00,50.128
1069.00,50.097
1070.00,50.081
1071.00,50.077
1072.00,50.080
1073.00,50.036
1074.00,50.038
1075.00,50.018
1076.00,50.030
1077.00,50.011
1078.00,49.989
1079.00,50.003
1080.00,50.003
1081.00,49.990
1082.00,50.005
1083.00,49.998
1084.00,49.976
1085.00,49.979
1086.00,49.946
1087.00,49.954
1088.00,49.933
1089.00,49.921
1090.00,49.923
1091.00,49.934
1092.00,49.906
1093.00,49.901
1094.00,49.870
1095.00,49.866
1096.00,49.847
1097.00,49.850
1098.00,49.843
1099.00,49.845
1100.00,49.830
1101.00,49.841
1102.00,49.818
1103.00,49.816
1104.00,49.807
1105.00,49.795
1106.00,49.760
1107.00,49.772
1108.00,49.741
1109.00,49.757
1110.00,49.739
1111.00,49.732
1112.00,49.724
1113.00,49.729
1114.00,49.699
1115.00,49.726
1116.00,49.712
1117.00,49.698
1118.00,49.690
1119.00,49.675
1120.00,49.666
1121.00,49.683
1122.00,49.640
1123.00,49.652
1124.00,49.664
1125.00,49.651
1126.00,49.653
1127.00,49.696
1128.00,49.635
1129.00,49.632
1130.00,49.608
1131.00,49.622
1132.00,49.602
1133.00,49.583
1134.00,49.582
1135.00,49.580
1136.00,49.559
1137.00,49.581
1138.00,49.571
1139.00,49.571
1140.00,49.574
1141.00,49.587
1142.00,49.585
1143.00,49.595
1144.00,49.558
1145.00,49.548
1146.00,49.531
1147.00,49.544
1148.00,49.535
1149.00,49.557
1150.00,49.550
1151.00,49.556
1152.00,49.544
1153.00,49.538
1154.00,49.521
1155.00,49.527
1156.00,49.535
1157.00,49.543
1158.00,49.519
1159.00,49.536
1160.00,49.511
1161.00,49.516
1162.00,49.532
1163.00,49.511
1164.00,49.517
1165.00,49.513
1166.00,49.519
1167.00,49.501
1168.00,49.537
1169.00,49.520
1170.00,49.533
1171.00,49.501
1172.00,49.498
1173.00,49.507
1174.00,49.497
1175.00,49.496
1176.00,49.523
1177.00,49.502
1178.00,49.493
1179.00,49.513
1180.00,49.493
1181.00,49.530
1182.00,49.499
1183.00,49.491
1184.00,49.499
1185.00,49.500
1186.00,49.492
1187.00,49.497
1188.00,49.496
1189.00,49.507
1190.00,49.505
1191.00,49.482
1192.00,49.515
1193.00,49.492
1194.00,49.485
1195.00,49.476
1196.00,49.513
1197.00,49.504
1198.00,49.485
1199.00,49.495
1200.00,49.507
1201.00,49.525
1202.00,49.485
1203.00,49.510
1204.00,49.490
1205.00,49.502
1206.00,49.502
1207.00,49.483
1208.00,49.501
1209.00,49.519
1210.00,49.499
1211.00,49.502
1212.00,49.523
1213.00,49.467
1214.00,49.513
1215.00,49.490
1216.00,49.491
1217.00,49.511
1218.00,49.484
1219.00,49.494
1220.00,49.485
1221.00,49.509
1222.00,49.487
1223.00,49.525
1224.00,49.507
1225.00,49.496
1226.00,49.499
1227.00,49.488
1228.00,49.522
1229.00,49.506
1230.00,49.551
1231.00,49.534
1232.00,49.552
1233.00,49.559
1234.00,49.555
1235.00,49.558
1236.00,49.562
1237.00,49.581
1238.00,49.556
1239.00,49.580
1240.00,49.555
1241.00,49.588
1242.00,49.588
1243.00,49.594
1244.00,49.583
1245.00,49.613
1246.00,49.607
1247.00,49.604
1248.00,49.604
1249.00,49.608
1250.00,49.631
1251.00,49.600
1252.00,49.612
1253.00,49.610
1254.00,49.655
1255.00,49.621
1256.00,49.619
1257.00,49.597
1258.00,49.657
1259.00,49.652
1260.00,49.668
1261.00,49.669
1262.00,49.641
1263.00,49.651
1264.00,49.663
1265.00,49.660
1266.00,49.668
1267.00,49.685
1268.00,49.685
1269.00,49.703
1270.00,49.706
1271.00,49.712
1272.00,49.721
1273.00,49.731
1274.00,49.736
1275.00,49.755
1276.00,49.728
1277.00,49.745
1278.00,49.739
1279.00,49.740
1280.00,49.748
1281.00,49.769
1282.00,49.783
1283.00,49.786
1284.00,49.767
1285.00,49.784
1286.00,49.807
1287.00,49.799
1288.00,49.815
1289.00,49.817
1290.00,49.840
1291.00,49.836
1292.00,49.829
1293.00,49.843
1294.00,49.861
1295.00,49.850
1296.00,49.854
1297.00,49.859
1298.00,49.899
1299.00,49.879
1300.00,49.901
1301.00,49.884
1302.00,49.908
1303.00,49.900
1304.00,49.901
1305.00,49.935
1306.00,49.914
1307.00,49.970
1308.00,49.955
1309.00,49.954
1310.00,49.947
1311.00,49.938
1312.00,49.945
1313.00,49.980
1314.00,49.993
1315.00,50.001
1316.00,50.002
1317.00,50.030
1318.00,50.043
1319.00,50.042
1320.00,50.040
1321.00,50.203
1322.00,50.200
1323.00,50.160
1324.00,50.178
1325.00,50.162
1326.00,50.180
1327.00,50.180
1328.00,50.189
1329.00,50.175
1330.00,50.188
1331.00,50.192
1332.00,50.199
1333.00,50.208
1334.00,50.239
1335.00,50.257
1336.00,50.283
1337.00,50.296
1338.00,50.381
1339.00,50.421
1340.00,50.474
1341.00,50.545
1342.00,50.594
1343.00,50.621
1344.00,50.674
1345.00,50.733
1346.00,50.766
1347.00,50.794
1348.00,50.824
1349.00,50.839
1350.00,50.862
1351.00,50.859
1352.00,50.883
1353.00,50.892
1354.00,50.887
1355.00,50.857
1356.00,50.921
1357.00,50.909
1358.00,50.949
1359.00,50.945
1360.00,50.975
1361.00,50.942
1362.00,50.875
1363.00,51.032
1364.00,50.987
1365.00,50.968
1366.00,51.058
1367.00,50.964
1368.00,50.942
1369.00,51.007
1370.00,50.941
1371.00,50.899
1372.00,50.957
1373.00,50.981
1374.00,51.001
1375.00,50.961
1376.00,50.966
1377.00,50.977
1378.00,51.007
1379.00,50.982
1380.00,51.004
1381.00,50.981
1382.00,50.917
1383.00,50.988
1384.00,50.872
1385.00,50.938
1386.00,50.858
1387.00,50.931
1388.00,50.899
1389.00,50.942
1390.00,50.965
1391.00,50.924
1392.00,50.923
1393.00,50.899
1394.00,50.963
1395.00,50.902
1396.00,50.894
1397.00,50.962
1398.00,50.996
1399.00,50.938
1400.00,50.950
1401.00,50.946
1402.00,51.036
1403.00,50.980
1404.00,51.024
1405.00,51.017
1406.00,51.032
1407.00,51.024
1408.00,51.048
1409.00,51.023
1410.00,51.078
1411.00,51.053
1412.00,51.101
1413.00,51.026
1414.00,51.087
1415.00,51.103
1416.00,51.137
1417.00,51.195
1418.00,51.163
1419.00,51.127
1420.00,51.126
1421.00,51.201
1422.00,51.170
1423.00,51.219
1424.00,51.201
1425.00,51.243
1426.00,51.233
1427.00,51.261
1428.00,51.246
1429.00,51.279
1430.00,51.261
1431.00,51.303
1432.00,51.343
1433.00,51.353
1434.00,51.359
1435.00,51.402
1436.00,51.401
1437.00,51.416
1438.00,51.421
1439.00,51.454
1440.00,51.472
1441.00,51.483
1442.00,51.500
1443.00,51.532
1444.00,51.571
1445.00,51.536
1446.00,51.579
1447.00,51.582
1448.00,51.632
1449.00,51.619
1450.00,51.626
1451.00,51.663
1452.00,51.680
1453.00,51.663
1454.00,51.710
1455.00,51.735
1456.00,51.757
1457.00,51.740
1458.00,51.785
1459.00,51.788
1460.00,51.833
1461.00,51.804
1462.00,51.855
1463.00,51.863
1464.00,51.894
1465.00,51.914
1466.00,51.899
1467.00,51.930
1468.00,51.988
1469.00,51.944
1470.00,51.991
1471.00,51.989
1472.00,52.011
1473.00,52.027
1474.00,52.056
1475.00,52.058
1476.00,52.083
1477.00,52.064
1478.00,52.101
1479.00,52.115
1480.00,52.107
1481.00,52.125
1482.00,52.158
1483.00,52.168
1484.00,52.197
1485.00,52.194
1486.00,52.216
1487.00,52.231
1488.00,52.256
1489.00,52.246
1490.00,52.269
1491.00,52.263
1492.00,52.292
1493.00,52.303
1494.00,52.323
1495.00,52.335
1496.00,52.386
1497.00,52.335
1498.00,52.369
1499.00,52.369
1500.00,52.385
1501.00, 
1502.00, 
1503.00, 
1504.00, 
1505.00, 
1506.00, 
1507.00, 
1508.00, 
1509.00, 
1510.00, 
1511.00, 
1512.00, 
1513.00, 
1514.00, 
1515.00, 
1516.00, 
1517.00, 
1518.00, 
1519.00, 
1520.00, 
1521.00, 
1522.00, 
1523.00, 
1524.00, 
1525.00, 
1526.00, 
1527.00, 
1528.00, 
1529.00, 
1530.00, 
1531.00, 
1532.00, 
1533.00, 
1534.00, 
1535.00, 
1536.00, 
1537.00, 
1538.00, 
1539.00, 
1540.00, 
1541.00, 
1542.00, 
1543.00, 
1544.00, 
1545.00, 
1546.00, 
1547.00, 
1548.00, 
1549.00, 
1550.00, 
1551.00, 
1552.00, 
1553.00, 
1554.00, 
1555.00, 
1556.00, 
1557.00, 
1558.00, 
1559.00, 
1560.00, 
1561.00, 
1562.00, 
1563.00, 
1564.00, 
1565.00, 
1566.00, 
1567.00, 
1568.00, 
1569.00, 
1570.00, 
1571.00, 
1572.00, 
1573.00, 
1574.00, 
1575.00, 
1576.00, 
1577.00, 
1578.00, 
1579.00, 
1580.00, 
1581.00, 
1582.00, 
1583.00, 
1584.00, 
1585.00, 
1586.00, 
1587.00, 
1588.00, 
1589.00, 
1590.00, 
1591.00, 
1592.00, 
1593.00, 
1594.00, 
1595.00, 
1596.00, 
1597.00, 
1598.00, 
1599.00, 
1600.00, 
1601.00, 
1602.00, 
1603.00, 
1604.00, 
1605.00, 
1606.00, 
1607.00, 
1608.00, 
1609.00, 
1610.00, 
1611.00, 
1612.00, 
1613.00, 
1614.00, 
1615.00, 
1616.00, 
1617.00, 
1618.00, 
1619.00, 
1620.00, 
1621.00, 
1622.00, 
1623.00, 
1624.00, 
1625.00, 
1626.00, 
1627.00, 
1628.00, 
1629.00, 
1630.00, 
1631.00, 
1632.00, 
1633.00, 
1634.00, 
1635.00, 
1636.00, 
1637.00, 
1638.00, 
1639.00, 
1640.00, 
1641.00, 
1642.00, 
1643.00, 
1644.00, 
1645.00, 
1646.00, 
1647.00, 
1648.00, 
1649.00, 
1650.00, 
1651.00, 
1652.00, 
1653.00, 
1654.00, 
1655.00, 
1656.00, 
1657.00, 
1658.00, 
1659.00, 
1660.00, 
1661.00, 
1662.00, 
1663.00, 
1664.00, 
1665.00, 
1666.00, 
1667.00, 
1668.00, 
1669.00, 
1670.00, 
1671.00, 
1672.00, 
1673.00, 
1674.00, 
1675.00, 
1676.00, 
1677.00, 
1678.00, 
1679.00, 
1680.00, 
1681.00, 
1682.00, 
1683.00, 
1684.00, 
1685.00, 
1686.00, 
1687.00, 
1688.00, 
1689.00, 
1690.00, 
1691.00, 
1692.00, 
1693.00, 
1694.00, 
1695.00, 
1696.00, 
1697.00, 
1698.00, 
1699.00, 
1700.00, 
1701.00, 
1702.00, 
1703.00, 
1704.00, 
1705.00, 
1706.00, 
1707.00, 
1708.00, 
1709.00, 
1710.00, 
1711.00, 
1712.00, 
1713.00, 
1714.00, 
1715.00, 
1716.00, 
1717.00, 
1718.00, 
1719.00, 
1720.00, 
1721.00, 
1722.00, 
1723.00, 
1724.00, 
1725.00, 
1726.00, 
1727.00, 
1728.00, 
1729.00, 
1730.00, 
1731.00, 
1732.00, 
1733.00, 
1734.00, 
1735.00, 
1736.00, 
1737.00, 
1738.00, 
1739.00, 
1740.00, 
1741.00, 
1742.00, 
1743.00, 
1744.00, 
1745.00, 
1746.00, 
1747.00, 
1748.00, 
1749.00, 
1750.00, 
1751.00, 
1752.00, 
1753.00, 
1754.00, 
1755.00, 
1756.00, 
1757.00, 
1758.00, 
1759.00, 
1760.00, 
1761.00, 
1762.00, 
1763.00, 
1764.00, 
1765.00, 
1766.00, 
1767.00, 
1768.00, 
1769.00, 
1770.00, 
1771.00, 
1772.00, 
1773.00, 
1774.00, 
1775.00, 
1776.00, 
1777.00, 
1778.00, 
1779.00, 
1780.00, 
1781.00, 
1782.00, 
1783.00, 
1784.00, 
1785.00, 
1786.00, 
1787.00, 
1788.00, 
1789.00, 
1790.00, 
1791.00, 
1792.00, 
1793.00, 
1794.00, 
1795.00, 
1796.00, 
1797.00, 
1798.00, 
1799.00, 
1800.00, 
1801.00, 
1802.00, 
1803.00, 
1804.00, 
1805.00, 
1806.00, 
1807.00, 
1808.00, 
1809.00, 
1810.00, 
1811.00, 
1812.00, 
1813.00, 
1814.00, 
1815.00, 
1816.00, 
1817.00, 
1818.00, 
1819.00, 
1820.00, 
1821.00, 
1822.00, 
1823.00, 
1824.00, 
1825.00, 
1826.00, 
1827.00, 
1828.00, 
1829.00, 
1830.00, 
1831.00, 
1832.00, 
1833.00, 
1834.00, 
1835.00, 
1836.00, 
1837.00, 
1838.00, 
1839.00, 
1840.00, 
1841.00, 
1842.00, 
1843.00, 
1844.00, 
1845.00, 
1846.00, 
1847.00, 
1848.00, 
1849.00, 
1850.00, 
1851.00, 
1852.00, 
1853.00, 
1854.00, 
1855.00, 
1856.00, 
1857.00, 
1858.00, 
1859.00, 
1860.00, 
1861.00, 
1862.00, 
1863.00, 
1864.00, 
1865.00, 
1866.00, 
1867.00, 
1868.00, 
1869.00, 
1870.00, 
1871.00, 
1872.00, 
1873.00, 
1874.00, 
1875.00, 
1876.00, 
1877.00, 
1878.00, 
1879.00, 
1880.00, 
1881.00, 
1882.00, 
1883.00, 
1884.00, 
1885.00, 
1886.00, 
1887.00, 
1888.00, 
1889.00, 
1890.00, 
1891.00, 
1892.00, 
1893.00, 
1894.00, 
1895.00, 
1896.00, 
1897.00, 
1898.00, 
1899.00, 
1900.00, 
1901.00, 
1902.00, 
1903.00, 
1904.00, 
1905.00, 
1906.00, 
1907.00, 
1908.00, 
1909.00, 
1910.00, 
1911.00, 
1912.00, 
1913.00, 
1914.00, 
1915.00, 
1916.00, 
1917.00, 
1918.00, 
1919.00, 
1920.00, 
1921.00, 
1922.00, 
1923.00, 
1924.00, 
1925.00, 
1926.00, 
1927.00, 
1928.00, 
1929.00, 
1930.00, 
1931.00, 
1932.00, 
1933.00, 
1934.00, 
1935.00, 
1936.00, 
1937.00, 
1938.00, 
1939.00, 
1940.00, 
1941.00, 
1942.00, 
1943.00, 
1944.00, 
1945.00, 
1946.00, 
1947.00, 
1948.00, 
1949.00, 
1950.00, 
1951.00, 
1952.00, 
1953.00, 
1954.00, 
1955.00, 
1956.00, 
1957.00, 
1958.00, 
1959.00, 
1960.00, 
1961.00, 
1962.00, 
1963.00, 
1964.00, 
1965.00, 
1966.00, 
1967.00, 
1968.00, 
1969.00, 
1970.00, 
1971.00, 
1972.00, 
1973.00, 
1974.00, 
1975.00, 
1976.00, 
1977.00, 
1978.00, 
1979.00, 
1980.00, 
1981.00, 
1982.00, 
1983.00, 
1984.00, 
1985.00, 
1986.00, 
1987.00, 
1988.00, 
1989.00, 
1990.00, 
1991.00, 
1992.00, 
1993.00, 
1994.00, 
1995.00, 
1996.00, 
1997.00, 
1998.00, 
1999.00, 
2000.00, 
2001.00, 
2002.00, 
2003.00, 
2004.00, 
2005.00, 
2006.00, 
2007.00, 
2008.00, 
2009.00, 
2010.00, 
2011.00, 
2012.00, 
2013.00, 
2014.00, 
2015.00, 
2016.00, 
2017.00, 
2018.00, 
2019.00, 
2020.00, 
2021.00, 
2022.00, 
2023.00, 
2024.00, 
2025.00, 
2026.00, 
2027.00, 
2028.00, 
2029.00, 
2030.00, 
2031.00, 
2032.00, 
2033.00, 
2034.00, 
2035.00, 
2036.00, 
2037.00, 
2038.00, 
2039.00, 
2040.00, 
2041.00, 
2042.00, 
2043.00, 
2044.00, 
2045.00, 
2046.00, 
2047.00, 
2048.00, 
2049.00, 
2050.00, 
2051.00, 
2052.00, 
2053.00, 
2054.00, 
2055.00, 
2056.00, 
2057.00, 
2058.00, 
2059.00, 
2060.00, 
2061.00, 
2062.00, 
2063.00, 
2064.00, 
2065.00, 
2066.00, 
2067.00, 
2068.00, 
2069.00, 
2070.00, 
2071.00, 
2072.00, 
2073.00, 
2074.00, 
2075.00, 
2076.00, 
2077.00, 
2078.00, 
2079.00, 
2080.00, 
2081.00, 
2082.00, 
2083.00, 
2084.00, 
2085.00, 
2086.00, 
2087.00, 
2088.00, 
2089.00, 
2090.00, 
2091.00, 
2092.00, 
2093.00, 
2094.00, 
2095.00, 
2096.00, 
2097.00, 
2098.00, 
2099.00, 
2100.00, 
2101.00, 
2102.00, 
2103.00, 
2104.00, 
2105.00, 
2106.00, 
2107.00, 
2108.00, 
2109.00, 
2110.00, 
2111.00, 
2112.00, 
2113.00, 
2114.00, 
2115.00, 
2116.00, 
2117.00, 
2118.00, 
2119.00, 
2120.00, 
2121.00, 
2122.00, 
2123.00, 
2124.00, 
2125.00, 
2126.00, 
2127.00, 
2128.00, 
2129.00, 
2130.00, 
2131.00, 
2132.00, 
2133.00, 
2134.00, 
2135.00, 
2136.00, 
2137.00, 
2138.00, 
2139.00, 
2140.00, 
2141.00, 
2142.00, 
2143.00, 
2144.00, 
2145.00, 
2146.00, 
2147.00, 
2148.00, 
2149.00, 
2150.00, 
2151.00, 
2152.00, 
2153.00, 
2154.00, 
2155.00, 
2156.00, 
2157.00, 
2158.00, 
2159.00, 
2160.00, 
2161.00, 
2162.00, 
2163.00, 
2164.00, 
2165.00, 
2166.00, 
2167.00, 
2168.00, 
2169.00, 
2170.00, 
2171.00, 
2172.00, 
2173.00, 
2174.00, 
2175.00, 
2176.00, 
2177.00, 
2178.00, 
2179.00, 
2180.00, 
2181.00, 
2182.00, 
2183.00, 
2184.00, 
2185.00, 
2186.00, 
2187.00, 
2188.00, 
2189.00, 
2190.00, 
2191.00, 
2192.00, 
2193.00, 
2194.00, 
2195.00, 
2196.00, 
2197.00, 
2198.00, 
2199.00, 
2200.00, 
2201.00, 
2202.00, 
2203.00, 
2204.00, 
2205.00, 
2206.00, 
2207.00, 
2208.00, 
2209.00, 
2210.00, 
2211.00, 
2212.00, 
2213.00, 
2214.00, 
2215.00, 
2216.00, 
2217.00, 
2218.00, 
2219.00, 
2220.00, 
2221.00, 
2222.00, 
2223.00, 
2224.00, 
2225.00, 
2226.00, 
2227.00, 
2228.00, 
2229.00, 
2230.00, 
2231.00, 
2232.00, 
2233.00, 
2234.00, 
2235.00, 
2236.00, 
2237.00, 
2238.00, 
2239.00, 
2240.00, 
2241.00, 
2242.00, 
2243.00, 
2244.00, 
2245.00, 
2246.00, 
2247.00, 
2248.00, 
2249.00, 
2250.00, 
2251.00, 
2252.00, 
2253.00, 
2254.00, 
2255.00, 
2256.00, 
2257.00, 
2258.00, 
2259.00, 
2260.00, 
2261.00, 
2262.00, 
2263.00, 
2264.00, 
2265.00, 
2266.00, 
2267.00, 
2268.00, 
2269.00, 
2270.00, 
2271.00, 
2272.00, 
2273.00, 
2274.00, 
2275.00, 
2276.00, 
2277.00, 
2278.00, 
2279.00, 
2280.00, 
2281.00, 
2282.00, 
2283.00, 
2284.00, 
2285.00, 
2286.00, 
2287.00, 
2288.00, 
2289.00, 
2290.00, 
2291.00, 
2292.00, 
2293.00, 
2294.00, 
2295.00, 
2296.00, 
2297.00, 
2298.00, 
2299.00, 
2300.00, 
2301.00, 
2302.00, 
2303.00, 
2304.00, 
2305.00, 
2306.00, 
2307.00, 
2308.00, 
2309.00, 
2310.00, 
2311.00, 
2312.00, 
2313.00, 
2314.00, 
2315.00, 
2316.00, 
2317.00, 
2318.00, 
2319.00, 
2320.00, 
2321.00, 
2322.00, 
2323.00, 
2324.00, 
2325.00, 
2326.00, 
2327.00, 
2328.00, 
2329.00, 
2330.00, 
2331.00, 
2332.00, 
2333.00, 
2334.00, 
2335.00, 
2336.00, 
2337.00, 
2338.00, 
2339.00, 
2340.00, 
2341.00, 
2342.00, 
2343.00, 
2344.00, 
2345.00, 
2346.00, 
2347.00, 
2348.00, 
2349.00, 
2350.00, 
2351.00, 
2352.00, 
2353.00, 
2354.00, 
2355.00, 
2356.00, 
2357.00, 
2358.00, 
2359.00, 
2360.00, 
2361.00, 
2362.00, 
2363.00, 
2364.00, 
2365.00, 
2366.00, 
2367.00, 
2368.00, 
2369.00, 
2370.00, 
2371.00, 
2372.00, 
2373.00, 
2374.00, 
2375.00, 
2376.00, 
2377.00, 
2378.00, 
2379.00, 
2380.00, 
2381.00, 
2382.00, 
2383.00, 
2384.00, 
2385.00, 
2386.00, 
2387.00, 
2388.00, 
2389.00, 
2390.00, 
2391.00, 
2392.00, 
2393.00, 
2394.00, 
2395.00, 
2396.00, 
2397.00, 
2398.00, 
2399.00, 
2400.00, 
2401.00, 
2402.00, 
2403.00, 
2404.00, 
2405.00, 
2406.00, 
2407.00, 
2408.00, 
2409.00, 
2410.00, 
2411.00, 
2412.00, 
2413.00, 
2414.00, 
2415.00, 
2416.00, 
2417.00, 
2418.00, 
2419.00, 
2420.00, 
2421.00, 
2422.00, 
2423.00, 
2424.00, 
2425.00, 
2426.00, 
2427.00, 
2428.00, 
2429.00, 
2430.00, 
2431.00, 
2432.00, 
2433.00, 
2434.00, 
2435.00, 
2436.00, 
2437.00, 
2438.00, 
2439.00, 
2440.00, 
2441.00, 
2442.00, 
2443.00, 
2444.00, 
2445.00, 
2446.00, 
2447.00, 
2448.00, 
2449.00, 
2450.00, 
2451.00, 
2452.00, 
2453.00, 
2454.00, 
2455.00, 
2456.00, 
2457.00, 
2458.00, 
2459.00, 
2460.00, 
2461.00, 
2462.00, 
2463.00, 
2464.00, 
2465.00, 
2466.00, 
2467.00, 
2468.00, 
2469.00, 
2470.00, 
2471.00, 
2472.00, 
2473.00, 
2474.00, 
2475.00, 
2476.00, 
2477.00, 
2478.00, 
2479.00, 
2480.00, 
2481.00, 
2482.00, 
2483.00, 
2484.00, 
2485.00, 
2486.00, 
2487.00, 
2488.00, 
2489.00, 
2490.00, 
2491.00, 
2492.00, 
2493.00, 
2494.00, 
2495.00, 
2496.00, 
2497.00, 
2498.00, 
2499.00, 
2500.00, 
2501.00, 
2502.00, 
2503.00, 
2504.00, 
2505.00, 
2506.00, 
2507.00, 
2508.00, 
2509.00, 
2510.00, 
2511.00, 
2512.00, 
2513.00, 
2514.00, 
2515.00, 
2516.00, 
2517.00, 
2518.00, 
2519.00, 
2520.00, 
2521.00, 
2522.00, 
2523.00, 
2524.00, 
2525.00, 
2526.00, 
2527.00, 
2528.00, 
2529.00, 
2530.00, 
2531.00, 
2532.00, 
2533.00, 
2534.00, 
2535.00, 
2536.00, 
2537.00, 
2538.00, 
2539.00, 
2540.00, 
2541.00, 
2542.00, 
2543.00, 
2544.00, 
2545.00, 
2546.00, 
2547.00, 
2548.00, 
2549.00, 
2550.00, 
2551.00, 
2552.00, 
2553.00, 
2554.00, 
2555.00, 
2556.00, 
2557.00, 
2558.00, 
2559.00, 
2560.00, 
2561.00, 
2562.00, 
2563.00, 
2564.00, 
2565.00, 
2566.00, 
2567.00, 
2568.00, 
2569.00, 
2570.00, 
2571.00, 
2572.00, 
2573.00, 
2574.00, 
2575.00, 
2576.00, 
2577.00, 
2578.00, 
2579.00, 
2580.00, 
2581.00, 
2582.00, 
2583.00, 
2584.00, 
2585.00, 
2586.00, 
2587.00, 
2588.00, 
2589.00, 
2590.00, 
2591.00, 
2592.00, 
2593.00, 
2594.00, 
2595.00, 
2596.00, 
2597.00, 
2598.00, 
2599.00, 
2600.00, 
