"2cP3 - RawData"
"Wavelength nm.","T%"
200.00,0.001
201.00,0.002
202.00,0.005
203.00,0.003
204.00,0.001
205.00,0.001
206.00,-0.001
207.00,-0.001
208.00,0.003
209.00,0.002
210.00,0.006
211.00,0.002
212.00,0.003
213.00,0.001
214.00,0.000
215.00,0.002
216.00,0.005
217.00,0.003
218.00,-0.000
219.00,0.000
220.00,0.000
221.00,0.004
222.00,0.000
223.00,0.001
224.00,0.003
225.00,-0.002
226.00,0.001
227.00,-0.001
228.00,0.000
229.00,0.000
230.00,0.002
231.00,0.001
232.00,0.001
233.00,-0.000
234.00,-0.000
235.00,0.002
236.00,-0.001
237.00,0.002
238.00,0.001
239.00,-0.000
240.00,-0.001
241.00,0.001
242.00,-0.001
243.00,0.001
244.00,0.003
245.00,-0.001
246.00,0.001
247.00,-0.000
248.00,-0.000
249.00,0.000
250.00,0.001
251.00,0.002
252.00,-0.001
253.00,-0.000
254.00,-0.000
255.00,-0.000
256.00,0.000
257.00,0.000
258.00,-0.000
259.00,-0.000
260.00,0.000
261.00,0.001
262.00,-0.001
263.00,0.001
264.00,0.002
265.00,-0.000
266.00,0.001
267.00,-0.001
268.00,-0.002
269.00,-0.000
270.00,0.002
271.00,-0.001
272.00,-0.000
273.00,0.001
274.00,-0.001
275.00,-0.001
276.00,0.001
277.00,0.001
278.00,0.002
279.00,-0.001
280.00,0.001
281.00,0.000
282.00,0.000
283.00,0.001
284.00,-0.001
285.00,0.002
286.00,0.000
287.00,-0.001
288.00,-0.001
289.00,-0.001
290.00,0.001
291.00,0.001
292.00,0.000
293.00,0.001
294.00,-0.000
295.00,0.001
296.00,-0.000
297.00,0.001
298.00,0.001
299.00,0.003
300.00,0.003
301.00,0.004
302.00,0.006
303.00,0.008
304.00,0.012
305.00,0.021
306.00,0.031
307.00,0.047
308.00,0.075
309.00,0.119
310.00,0.167
311.00,0.214
312.00,0.303
313.00,0.410
314.00,0.522
315.00,0.707
316.00,0.903
317.00,1.131
318.00,1.400
319.00,1.737
320.00,2.097
321.00,2.521
322.00,2.983
323.00,3.438
324.00,4.101
325.00,4.651
326.00,5.268
327.00,5.961
328.00,6.685
329.00,7.355
330.00,8.139
331.00,8.871
332.00,9.667
333.00,10.474
334.00,11.210
335.00,12.027
336.00,12.859
337.00,13.648
338.00,14.443
339.00,15.170
340.00,15.930
341.00,16.669
342.00,17.326
343.00,18.007
344.00,18.671
345.00,19.313
346.00,19.832
347.00,20.443
348.00,20.976
349.00,21.471
350.00,21.917
351.00,22.358
352.00,22.771
353.00,23.174
354.00,23.498
355.00,23.875
356.00,24.195
357.00,24.565
358.00,24.825
359.00,25.145
360.00,25.356
361.00,25.598
362.00,25.795
363.00,26.029
364.00,26.142
365.00,26.348
366.00,26.536
367.00,26.644
368.00,26.732
369.00,26.835
370.00,26.903
371.00,26.993
372.00,27.044
373.00,27.060
374.00,27.048
375.00,27.047
376.00,27.070
377.00,27.019
378.00,27.002
379.00,26.956
380.00,26.908
381.00,26.973
382.00,26.980
383.00,27.031
384.00,27.053
385.00,27.137
386.00,27.149
387.00,27.227
388.00,27.280
389.00,27.368
390.00,27.371
391.00,27.434
392.00,27.425
393.00,27.553
394.00,27.600
395.00,27.622
396.00,27.624
397.00,27.628
398.00,27.669
399.00,27.663
400.00,27.687
401.00,27.693
402.00,27.695
403.00,27.700
404.00,27.719
405.00,27.688
406.00,27.700
407.00,27.645
408.00,27.650
409.00,27.632
410.00,27.613
411.00,27.612
412.00,27.550
413.00,27.591
414.00,27.545
415.00,27.597
416.00,27.606
417.00,27.638
418.00,27.636
419.00,27.682
420.00,27.664
421.00,27.823
422.00,27.805
423.00,27.836
424.00,27.830
425.00,27.889
426.00,27.954
427.00,27.985
428.00,28.000
429.00,28.051
430.00,28.150
431.00,28.102
432.00,28.169
433.00,28.174
434.00,28.243
435.00,28.326
436.00,28.343
437.00,28.398
438.00,28.437
439.00,28.536
440.00,28.619
441.00,28.659
442.00,28.749
443.00,28.816
444.00,28.900
445.00,28.944
446.00,29.052
447.00,29.127
448.00,29.212
449.00,29.325
450.00,29.428
451.00,29.524
452.00,29.590
453.00,29.683
454.00,29.758
455.00,29.857
456.00,29.987
457.00,30.060
458.00,30.172
459.00,30.281
460.00,30.380
461.00,30.496
462.00,30.590
463.00,30.691
464.00,30.800
465.00,30.896
466.00,30.985
467.00,31.125
468.00,31.220
469.00,31.329
470.00,31.415
471.00,31.487
472.00,31.611
473.00,31.659
474.00,31.745
475.00,31.845
476.00,31.932
477.00,32.034
478.00,32.169
479.00,32.284
480.00,32.396
481.00,32.522
482.00,32.661
483.00,32.770
484.00,32.925
485.00,33.087
486.00,33.174
487.00,33.326
488.00,33.458
489.00,33.594
490.00,33.732
491.00,33.844
492.00,34.031
493.00,34.097
494.00,34.137
495.00,34.275
496.00,34.366
497.00,34.493
498.00,34.626
499.00,34.746
500.00,34.844
501.00,34.977
502.00,35.058
503.00,35.182
504.00,35.284
505.00,35.313
506.00,35.477
507.00,35.584
508.00,35.632
509.00,35.763
510.00,35.813
511.00,35.912
512.00,36.124
513.00,36.279
514.00,36.431
515.00,36.361
516.00,36.534
517.00,36.663
518.00,36.663
519.00,36.737
520.00,36.776
521.00,36.906
522.00,37.057
523.00,37.138
524.00,37.216
525.00,37.288
526.00,37.414
527.00,37.492
528.00,37.557
529.00,37.669
530.00,37.766
531.00,37.902
532.00,37.969
533.00,38.066
534.00,38.162
535.00,38.227
536.00,38.286
537.00,38.336
538.00,38.381
539.00,38.553
540.00,38.612
541.00,38.674
542.00,38.716
543.00,38.740
544.00,38.904
545.00,38.937
546.00,39.043
547.00,39.102
548.00,39.134
549.00,39.214
550.00,39.281
551.00,39.374
552.00,39.425
553.00,39.444
554.00,39.519
555.00,39.555
556.00,39.611
557.00,39.636
558.00,39.729
559.00,39.821
560.00,40.028
561.00,39.999
562.00,40.133
563.00,40.162
564.00,40.236
565.00,40.307
566.00,40.266
567.00,40.312
568.00,40.302
569.00,40.357
570.00,40.365
571.00,40.434
572.00,40.507
573.00,40.503
574.00,40.572
575.00,40.589
576.00,40.585
577.00,40.702
578.00,40.749
579.00,40.852
580.00,40.900
581.00,41.015
582.00,41.117
583.00,41.101
584.00,41.256
585.00,41.290
586.00,41.270
587.00,41.370
588.00,41.352
589.00,41.337
590.00,41.543
591.00,41.585
592.00,41.585
593.00,41.596
594.00,41.624
595.00,41.688
596.00,41.751
597.00,41.808
598.00,41.885
599.00,41.953
600.00,42.012
601.00,42.037
602.00,42.049
603.00,42.042
604.00,42.103
605.00,42.222
606.00,42.266
607.00,42.327
608.00,42.376
609.00,42.327
610.00,42.378
611.00,42.446
612.00,42.394
613.00,42.457
614.00,42.545
615.00,42.575
616.00,42.678
617.00,42.655
618.00,42.741
619.00,42.766
620.00,42.783
621.00,42.809
622.00,42.902
623.00,43.000
624.00,42.990
625.00,43.021
626.00,43.085
627.00,43.098
628.00,43.139
629.00,43.115
630.00,43.129
631.00,43.322
632.00,43.404
633.00,43.439
634.00,43.482
635.00,43.649
636.00,43.652
637.00,43.739
638.00,43.755
639.00,43.866
640.00,43.873
641.00,43.902
642.00,43.940
643.00,44.024
644.00,44.098
645.00,44.137
646.00,44.252
647.00,44.238
648.00,44.272
649.00,44.391
650.00,44.440
651.00,44.527
652.00,44.612
653.00,44.632
654.00,44.676
655.00,44.716
656.00,44.766
657.00,45.004
658.00,44.914
659.00,44.944
660.00,45.052
661.00,45.114
662.00,45.306
663.00,45.259
664.00,45.331
665.00,45.390
666.00,45.491
667.00,45.562
668.00,45.625
669.00,45.724
670.00,45.764
671.00,45.689
672.00,45.845
673.00,45.953
674.00,45.992
675.00,45.977
676.00,46.134
677.00,46.216
678.00,46.148
679.00,46.240
680.00,46.268
681.00,46.259
682.00,46.262
683.00,46.467
684.00,46.616
685.00,46.629
686.00,46.655
687.00,46.701
688.00,46.756
689.00,46.763
690.00,46.799
691.00,47.059
692.00,46.953
693.00,47.068
694.00,47.136
695.00,47.212
696.00,47.191
697.00,47.200
698.00,47.382
699.00,47.506
700.00,47.599
701.00,47.489
702.00,47.598
703.00,47.797
704.00,47.713
705.00,47.755
706.00,47.882
707.00,47.862
708.00,47.823
709.00,47.985
710.00,48.145
711.00,48.035
712.00,47.962
713.00,48.162
714.00,48.046
715.00,48.135
716.00,48.266
717.00,48.231
718.00,48.310
719.00,48.321
720.00,48.369
721.00,52.538
722.00,52.536
723.00,52.395
724.00,52.540
725.00,52.454
726.00,52.563
727.00,52.462
728.00,52.506
729.00,52.571
730.00,52.472
731.00,52.533
732.00,52.474
733.00,52.490
734.00,52.528
735.00,52.585
736.00,52.622
737.00,52.528
738.00,52.566
739.00,52.591
740.00,52.596
741.00,52.624
742.00,52.627
743.00,52.576
744.00,52.613
745.00,52.547
746.00,52.564
747.00,52.564
748.00,52.383
749.00,52.510
750.00,52.514
751.00,52.447
752.00,52.517
753.00,52.439
754.00,52.441
755.00,52.429
756.00,52.383
757.00,52.486
758.00,52.403
759.00,52.396
760.00,52.411
761.00,52.427
762.00,52.412
763.00,52.378
764.00,52.425
765.00,52.337
766.00,52.395
767.00,52.341
768.00,52.433
769.00,52.369
770.00,52.427
771.00,52.408
772.00,52.372
773.00,52.405
774.00,52.383
775.00,52.412
776.00,52.252
777.00,52.332
778.00,52.382
779.00,52.325
780.00,52.412
781.00,52.361
782.00,52.414
783.00,52.231
784.00,52.334
785.00,52.256
786.00,52.290
787.00,52.310
788.00,52.240
789.00,52.215
790.00,52.144
791.00,52.171
792.00,52.146
793.00,52.062
794.00,52.204
795.00,52.082
796.00,52.065
797.00,52.039
798.00,52.057
799.00,52.028
800.00,51.978
801.00,52.019
802.00,51.948
803.00,51.941
804.00,51.973
805.00,51.888
806.00,51.865
807.00,51.887
808.00,51.864
809.00,51.845
810.00,51.732
811.00,51.839
812.00,51.830
813.00,51.747
814.00,51.804
815.00,51.754
816.00,51.789
817.00,51.732
818.00,51.684
819.00,51.617
820.00,51.621
821.00,51.526
822.00,51.559
823.00,51.580
824.00,51.578
825.00,51.489
826.00,51.631
827.00,51.563
828.00,51.491
829.00,51.540
830.00,51.469
831.00,54.054
832.00,54.025
833.00,53.907
834.00,53.980
835.00,53.905
836.00,53.924
837.00,53.873
838.00,53.871
839.00,53.850
840.00,53.797
841.00,53.819
842.00,53.780
843.00,53.769
844.00,53.795
845.00,53.720
846.00,53.733
847.00,53.689
848.00,53.672
849.00,53.580
850.00,53.561
851.00,53.537
852.00,53.493
853.00,53.473
854.00,53.430
855.00,53.382
856.00,53.388
857.00,53.353
858.00,53.331
859.00,53.268
860.00,53.350
861.00,53.274
862.00,53.208
863.00,53.242
864.00,53.196
865.00,53.196
866.00,53.137
867.00,53.140
868.00,53.153
869.00,53.118
870.00,53.118
871.00,53.126
872.00,53.124
873.00,53.093
874.00,53.072
875.00,53.108
876.00,53.070
877.00,53.026
878.00,53.054
879.00,53.036
880.00,53.040
881.00,52.958
882.00,52.999
883.00,52.952
884.00,52.894
885.00,52.875
886.00,52.865
887.00,52.857
888.00,52.815
889.00,52.793
890.00,52.793
891.00,52.761
892.00,52.742
893.00,52.712
894.00,52.703
895.00,52.690
896.00,52.647
897.00,52.649
898.00,52.605
899.00,52.611
900.00,52.597
901.00,52.586
902.00,52.572
903.00,52.558
904.00,52.560
905.00,52.427
906.00,52.497
907.00,52.479
908.00,52.456
909.00,52.432
910.00,52.407
911.00,52.420
912.00,52.402
913.00,52.352
914.00,52.307
915.00,52.322
916.00,52.288
917.00,52.258
918.00,52.256
919.00,52.218
920.00,52.198
921.00,52.193
922.00,52.171
923.00,52.155
924.00,52.114
925.00,52.122
926.00,52.097
927.00,52.065
928.00,52.038
929.00,52.071
930.00,52.030
931.00,52.069
932.00,51.965
933.00,51.979
934.00,51.963
935.00,51.916
936.00,51.882
937.00,51.875
938.00,51.848
939.00,51.846
940.00,51.826
941.00,51.817
942.00,51.788
943.00,51.775
944.00,51.698
945.00,51.734
946.00,51.725
947.00,51.702
948.00,51.663
949.00,51.649
950.00,51.638
951.00,51.615
952.00,51.589
953.00,51.557
954.00,51.556
955.00,51.510
956.00,51.504
957.00,51.461
958.00,51.467
959.00,51.410
960.00,51.405
961.00,51.401
962.00,51.395
963.00,51.348
964.00,51.340
965.00,51.332
966.00,51.304
967.00,51.311
968.00,51.286
969.00,51.309
970.00,51.263
971.00,51.295
972.00,51.263
973.00,51.297
974.00,51.312
975.00,51.280
976.00,51.309
977.00,51.298
978.00,51.318
979.00,51.268
980.00,51.311
981.00,51.307
982.00,51.272
983.00,51.271
984.00,51.269
985.00,51.279
986.00,51.247
987.00,51.238
988.00,51.219
989.00,51.200
990.00,51.211
991.00,51.185
992.00,51.195
993.00,51.156
994.00,51.157
995.00,51.158
996.00,51.117
997.00,51.122
998.00,51.096
999.00,51.126
1000.00,51.072
1001.00,51.086
1002.00,51.070
1003.00,51.058
1004.00,51.043
1005.00,51.011
1006.00,51.036
1007.00,50.990
1008.00,50.981
1009.00,50.960
1010.00,50.949
1011.00,50.934
1012.00,50.906
1013.00,50.922
1014.00,50.883
1015.00,50.886
1016.00,50.844
1017.00,50.853
1018.00,50.840
1019.00,50.818
1020.00,50.804
1021.00,50.767
1022.00,50.803
1023.00,50.729
1024.00,50.742
1025.00,50.720
1026.00,50.703
1027.00,50.686
1028.00,50.682
1029.00,50.668
1030.00,50.627
1031.00,50.627
1032.00,50.603
1033.00,50.599
1034.00,50.569
1035.00,50.532
1036.00,50.517
1037.00,50.484
1038.00,50.478
1039.00,50.445
1040.00,50.445
1041.00,50.408
1042.00,50.411
1043.00,50.379
1044.00,50.412
1045.00,50.397
1046.00,50.398
1047.00,50.430
1048.00,50.399
1049.00,50.406
1050.00,50.424
1051.00,50.449
1052.00,50.451
1053.00,50.462
1054.00,50.456
1055.00,50.479
1056.00,50.484
1057.00,50.497
1058.00,50.479
1059.00,50.464
1060.00,50.472
1061.00,50.466
1062.00,50.438
1063.00,50.453
1064.00,50.434
1065.00,50.435
1066.00,50.428
1067.00,50.418
1068.00,50.451
1069.00,50.388
1070.00,50.362
1071.00,50.359
1072.00,50.375
1073.00,50.333
1074.00,50.348
1075.00,50.333
1076.00,50.337
1077.00,50.319
1078.00,50.308
1079.00,50.286
1080.00,50.297
1081.00,50.275
1082.00,50.267
1083.00,50.293
1084.00,50.252
1085.00,50.253
1086.00,50.248
1087.00,50.237
1088.00,50.215
1089.00,50.192
1090.00,50.195
1091.00,50.187
1092.00,50.176
1093.00,50.160
1094.00,50.155
1095.00,50.144
1096.00,50.132
1097.00,50.117
1098.00,50.120
1099.00,50.111
1100.00,50.106
1101.00,50.092
1102.00,50.081
1103.00,50.066
1104.00,50.060
1105.00,50.051
1106.00,50.024
1107.00,50.034
1108.00,50.026
1109.00,50.031
1110.00,50.017
1111.00,50.012
1112.00,50.000
1113.00,49.980
1114.00,49.973
1115.00,49.975
1116.00,49.969
1117.00,49.947
1118.00,49.953
1119.00,49.932
1120.00,49.930
1121.00,49.936
1122.00,49.915
1123.00,49.906
1124.00,49.909
1125.00,49.895
1126.00,49.893
1127.00,49.901
1128.00,49.880
1129.00,49.860
1130.00,49.863
1131.00,49.855
1132.00,49.844
1133.00,49.834
1134.00,49.833
1135.00,49.829
1136.00,49.806
1137.00,49.801
1138.00,49.800
1139.00,49.798
1140.00,49.796
1141.00,49.787
1142.00,49.789
1143.00,49.796
1144.00,49.775
1145.00,49.778
1146.00,49.764
1147.00,49.757
1148.00,49.755
1149.00,49.763
1150.00,49.749
1151.00,49.759
1152.00,49.729
1153.00,49.731
1154.00,49.718
1155.00,49.726
1156.00,49.720
1157.00,49.722
1158.00,49.719
1159.00,49.714
1160.00,49.716
1161.00,49.720
1162.00,49.698
1163.00,49.700
1164.00,49.687
1165.00,49.688
1166.00,49.694
1167.00,49.683
1168.00,49.702
1169.00,49.690
1170.00,49.694
1171.00,49.660
1172.00,49.672
1173.00,49.665
1174.00,49.671
1175.00,49.674
1176.00,49.668
1177.00,49.671
1178.00,49.663
1179.00,49.681
1180.00,49.659
1181.00,49.675
1182.00,49.661
1183.00,49.660
1184.00,49.652
1185.00,49.655
1186.00,49.636
1187.00,49.643
1188.00,49.632
1189.00,49.643
1190.00,49.643
1191.00,49.633
1192.00,49.637
1193.00,49.635
1194.00,49.634
1195.00,49.607
1196.00,49.634
1197.00,49.621
1198.00,49.612
1199.00,49.618
1200.00,49.618
1201.00,49.618
1202.00,49.591
1203.00,49.621
1204.00,49.616
1205.00,49.611
1206.00,49.594
1207.00,49.597
1208.00,49.584
1209.00,49.578
1210.00,49.594
1211.00,49.585
1212.00,49.612
1213.00,49.571
1214.00,49.606
1215.00,49.597
1216.00,49.586
1217.00,49.602
1218.00,49.579
1219.00,49.591
1220.00,49.569
1221.00,49.602
1222.00,49.579
1223.00,49.597
1224.00,49.600
1225.00,49.578
1226.00,49.591
1227.00,49.575
1228.00,49.589
1229.00,49.591
1230.00,49.617
1231.00,49.612
1232.00,49.633
1233.00,49.635
1234.00,49.638
1235.00,49.631
1236.00,49.635
1237.00,49.652
1238.00,49.625
1239.00,49.632
1240.00,49.632
1241.00,49.643
1242.00,49.648
1243.00,49.663
1244.00,49.628
1245.00,49.656
1246.00,49.658
1247.00,49.663
1248.00,49.660
1249.00,49.651
1250.00,49.666
1251.00,49.654
1252.00,49.671
1253.00,49.659
1254.00,49.694
1255.00,49.671
1256.00,49.672
1257.00,49.653
1258.00,49.679
1259.00,49.676
1260.00,49.684
1261.00,49.679
1262.00,49.677
1263.00,49.689
1264.00,49.703
1265.00,49.694
1266.00,49.699
1267.00,49.696
1268.00,49.709
1269.00,49.690
1270.00,49.716
1271.00,49.716
1272.00,49.728
1273.00,49.730
1274.00,49.731
1275.00,49.738
1276.00,49.743
1277.00,49.737
1278.00,49.753
1279.00,49.745
1280.00,49.758
1281.00,49.771
1282.00,49.786
1283.00,49.736
1284.00,49.750
1285.00,49.755
1286.00,49.764
1287.00,49.766
1288.00,49.771
1289.00,49.780
1290.00,49.792
1291.00,49.784
1292.00,49.794
1293.00,49.780
1294.00,49.796
1295.00,49.804
1296.00,49.789
1297.00,49.811
1298.00,49.840
1299.00,49.812
1300.00,49.820
1301.00,49.828
1302.00,49.819
1303.00,49.850
1304.00,49.825
1305.00,49.853
1306.00,49.842
1307.00,49.878
1308.00,49.863
1309.00,49.870
1310.00,49.880
1311.00,49.844
1312.00,49.855
1313.00,49.893
1314.00,49.881
1315.00,49.886
1316.00,49.884
1317.00,49.906
1318.00,49.910
1319.00,49.905
1320.00,49.932
1321.00,50.077
1322.00,50.093
1323.00,50.069
1324.00,50.071
1325.00,50.054
1326.00,50.081
1327.00,50.054
1328.00,50.066
1329.00,50.062
1330.00,50.078
1331.00,50.078
1332.00,50.071
1333.00,50.076
1334.00,50.117
1335.00,50.110
1336.00,50.152
1337.00,50.173
1338.00,50.231
1339.00,50.280
1340.00,50.335
1341.00,50.389
1342.00,50.467
1343.00,50.499
1344.00,50.552
1345.00,50.625
1346.00,50.653
1347.00,50.681
1348.00,50.694
1349.00,50.717
1350.00,50.747
1351.00,50.744
1352.00,50.751
1353.00,50.774
1354.00,50.749
1355.00,50.727
1356.00,50.754
1357.00,50.758
1358.00,50.797
1359.00,50.809
1360.00,50.859
1361.00,50.789
1362.00,50.712
1363.00,50.879
1364.00,50.812
1365.00,50.787
1366.00,50.865
1367.00,50.808
1368.00,50.697
1369.00,50.804
1370.00,50.737
1371.00,50.684
1372.00,50.749
1373.00,50.756
1374.00,50.764
1375.00,50.751
1376.00,50.738
1377.00,50.719
1378.00,50.817
1379.00,50.775
1380.00,50.765
1381.00,50.800
1382.00,50.674
1383.00,50.734
1384.00,50.667
1385.00,50.666
1386.00,50.774
1387.00,50.683
1388.00,50.672
1389.00,50.679
1390.00,50.773
1391.00,50.647
1392.00,50.717
1393.00,50.744
1394.00,50.726
1395.00,50.650
1396.00,50.654
1397.00,50.722
1398.00,50.741
1399.00,50.737
1400.00,50.669
1401.00,50.705
1402.00,50.484
1403.00,50.744
1404.00,50.724
1405.00,50.774
1406.00,50.732
1407.00,50.777
1408.00,50.806
1409.00,50.743
1410.00,50.793
1411.00,50.778
1412.00,50.821
1413.00,50.773
1414.00,50.788
1415.00,50.801
1416.00,50.841
1417.00,50.863
1418.00,50.837
1419.00,50.845
1420.00,50.861
1421.00,50.924
1422.00,50.907
1423.00,50.910
1424.00,50.913
1425.00,50.919
1426.00,50.930
1427.00,50.975
1428.00,50.959
1429.00,50.981
1430.00,50.981
1431.00,50.989
1432.00,51.022
1433.00,51.039
1434.00,51.021
1435.00,51.072
1436.00,51.075
1437.00,51.080
1438.00,51.104
1439.00,51.124
1440.00,51.130
1441.00,51.144
1442.00,51.141
1443.00,51.180
1444.00,51.198
1445.00,51.177
1446.00,51.196
1447.00,51.236
1448.00,51.262
1449.00,51.277
1450.00,51.270
1451.00,51.293
1452.00,51.307
1453.00,51.296
1454.00,51.320
1455.00,51.354
1456.00,51.359
1457.00,51.364
1458.00,51.387
1459.00,51.386
1460.00,51.415
1461.00,51.431
1462.00,51.440
1463.00,51.465
1464.00,51.467
1465.00,51.498
1466.00,51.498
1467.00,51.504
1468.00,51.546
1469.00,51.538
1470.00,51.546
1471.00,51.573
1472.00,51.586
1473.00,51.578
1474.00,51.630
1475.00,51.614
1476.00,51.626
1477.00,51.626
1478.00,51.637
1479.00,51.664
1480.00,51.661
1481.00,51.665
1482.00,51.712
1483.00,51.709
1484.00,51.711
1485.00,51.748
1486.00,51.731
1487.00,51.766
1488.00,51.780
1489.00,51.761
1490.00,51.792
1491.00,51.796
1492.00,51.797
1493.00,51.802
1494.00,51.817
1495.00,51.832
1496.00,51.840
1497.00,51.839
1498.00,51.845
1499.00,51.872
1500.00,51.879
1501.00, 
1502.00, 
1503.00, 
1504.00, 
1505.00, 
1506.00, 
1507.00, 
1508.00, 
1509.00, 
1510.00, 
1511.00, 
1512.00, 
1513.00, 
1514.00, 
1515.00, 
1516.00, 
1517.00, 
1518.00, 
1519.00, 
1520.00, 
1521.00, 
1522.00, 
1523.00, 
1524.00, 
1525.00, 
1526.00, 
1527.00, 
1528.00, 
1529.00, 
1530.00, 
1531.00, 
1532.00, 
1533.00, 
1534.00, 
1535.00, 
1536.00, 
1537.00, 
1538.00, 
1539.00, 
1540.00, 
1541.00, 
1542.00, 
1543.00, 
1544.00, 
1545.00, 
1546.00, 
1547.00, 
1548.00, 
1549.00, 
1550.00, 
1551.00, 
1552.00, 
1553.00, 
1554.00, 
1555.00, 
1556.00, 
1557.00, 
1558.00, 
1559.00, 
1560.00, 
1561.00, 
1562.00, 
1563.00, 
1564.00, 
1565.00, 
1566.00, 
1567.00, 
1568.00, 
1569.00, 
1570.00, 
1571.00, 
1572.00, 
1573.00, 
1574.00, 
1575.00, 
1576.00, 
1577.00, 
1578.00, 
1579.00, 
1580.00, 
1581.00, 
1582.00, 
1583.00, 
1584.00, 
1585.00, 
1586.00, 
1587.00, 
1588.00, 
1589.00, 
1590.00, 
1591.00, 
1592.00, 
1593.00, 
1594.00, 
1595.00, 
1596.00, 
1597.00, 
1598.00, 
1599.00, 
1600.00, 
1601.00, 
1602.00, 
1603.00, 
1604.00, 
1605.00, 
1606.00, 
1607.00, 
1608.00, 
1609.00, 
1610.00, 
1611.00, 
1612.00, 
1613.00, 
1614.00, 
1615.00, 
1616.00, 
1617.00, 
1618.00, 
1619.00, 
1620.00, 
1621.00, 
1622.00, 
1623.00, 
1624.00, 
1625.00, 
1626.00, 
1627.00, 
1628.00, 
1629.00, 
1630.00, 
1631.00, 
1632.00, 
1633.00, 
1634.00, 
1635.00, 
1636.00, 
1637.00, 
1638.00, 
1639.00, 
1640.00, 
1641.00, 
1642.00, 
1643.00, 
1644.00, 
1645.00, 
1646.00, 
1647.00, 
1648.00, 
1649.00, 
1650.00, 
1651.00, 
1652.00, 
1653.00, 
1654.00, 
1655.00, 
1656.00, 
1657.00, 
1658.00, 
1659.00, 
1660.00, 
1661.00, 
1662.00, 
1663.00, 
1664.00, 
1665.00, 
1666.00, 
1667.00, 
1668.00, 
1669.00, 
1670.00, 
1671.00, 
1672.00, 
1673.00, 
1674.00, 
1675.00, 
1676.00, 
1677.00, 
1678.00, 
1679.00, 
1680.00, 
1681.00, 
1682.00, 
1683.00, 
1684.00, 
1685.00, 
1686.00, 
1687.00, 
1688.00, 
1689.00, 
1690.00, 
1691.00, 
1692.00, 
1693.00, 
1694.00, 
1695.00, 
1696.00, 
1697.00, 
1698.00, 
1699.00, 
1700.00, 
1701.00, 
1702.00, 
1703.00, 
1704.00, 
1705.00, 
1706.00, 
1707.00, 
1708.00, 
1709.00, 
1710.00, 
1711.00, 
1712.00, 
1713.00, 
1714.00, 
1715.00, 
1716.00, 
1717.00, 
1718.00, 
1719.00, 
1720.00, 
1721.00, 
1722.00, 
1723.00, 
1724.00, 
1725.00, 
1726.00, 
1727.00, 
1728.00, 
1729.00, 
1730.00, 
1731.00, 
1732.00, 
1733.00, 
1734.00, 
1735.00, 
1736.00, 
1737.00, 
1738.00, 
1739.00, 
1740.00, 
1741.00, 
1742.00, 
1743.00, 
1744.00, 
1745.00, 
1746.00, 
1747.00, 
1748.00, 
1749.00, 
1750.00, 
1751.00, 
1752.00, 
1753.00, 
1754.00, 
1755.00, 
1756.00, 
1757.00, 
1758.00, 
1759.00, 
1760.00, 
1761.00, 
1762.00, 
1763.00, 
1764.00, 
1765.00, 
1766.00, 
1767.00, 
1768.00, 
1769.00, 
1770.00, 
1771.00, 
1772.00, 
1773.00, 
1774.00, 
1775.00, 
1776.00, 
1777.00, 
1778.00, 
1779.00, 
1780.00, 
1781.00, 
1782.00, 
1783.00, 
1784.00, 
1785.00, 
1786.00, 
1787.00, 
1788.00, 
1789.00, 
1790.00, 
1791.00, 
1792.00, 
1793.00, 
1794.00, 
1795.00, 
1796.00, 
1797.00, 
1798.00, 
1799.00, 
1800.00, 
1801.00, 
1802.00, 
1803.00, 
1804.00, 
1805.00, 
1806.00, 
1807.00, 
1808.00, 
1809.00, 
1810.00, 
1811.00, 
1812.00, 
1813.00, 
1814.00, 
1815.00, 
1816.00, 
1817.00, 
1818.00, 
1819.00, 
1820.00, 
1821.00, 
1822.00, 
1823.00, 
1824.00, 
1825.00, 
1826.00, 
1827.00, 
1828.00, 
1829.00, 
1830.00, 
1831.00, 
1832.00, 
1833.00, 
1834.00, 
1835.00, 
1836.00, 
1837.00, 
1838.00, 
1839.00, 
1840.00, 
1841.00, 
1842.00, 
1843.00, 
1844.00, 
1845.00, 
1846.00, 
1847.00, 
1848.00, 
1849.00, 
1850.00, 
1851.00, 
1852.00, 
1853.00, 
1854.00, 
1855.00, 
1856.00, 
1857.00, 
1858.00, 
1859.00, 
1860.00, 
1861.00, 
1862.00, 
1863.00, 
1864.00, 
1865.00, 
1866.00, 
1867.00, 
1868.00, 
1869.00, 
1870.00, 
1871.00, 
1872.00, 
1873.00, 
1874.00, 
1875.00, 
1876.00, 
1877.00, 
1878.00, 
1879.00, 
1880.00, 
1881.00, 
1882.00, 
1883.00, 
1884.00, 
1885.00, 
1886.00, 
1887.00, 
1888.00, 
1889.00, 
1890.00, 
1891.00, 
1892.00, 
1893.00, 
1894.00, 
1895.00, 
1896.00, 
1897.00, 
1898.00, 
1899.00, 
1900.00, 
1901.00, 
1902.00, 
1903.00, 
1904.00, 
1905.00, 
1906.00, 
1907.00, 
1908.00, 
1909.00, 
1910.00, 
1911.00, 
1912.00, 
1913.00, 
1914.00, 
1915.00, 
1916.00, 
1917.00, 
1918.00, 
1919.00, 
1920.00, 
1921.00, 
1922.00, 
1923.00, 
1924.00, 
1925.00, 
1926.00, 
1927.00, 
1928.00, 
1929.00, 
1930.00, 
1931.00, 
1932.00, 
1933.00, 
1934.00, 
1935.00, 
1936.00, 
1937.00, 
1938.00, 
1939.00, 
1940.00, 
1941.00, 
1942.00, 
1943.00, 
1944.00, 
1945.00, 
1946.00, 
1947.00, 
1948.00, 
1949.00, 
1950.00, 
1951.00, 
1952.00, 
1953.00, 
1954.00, 
1955.00, 
1956.00, 
1957.00, 
1958.00, 
1959.00, 
1960.00, 
1961.00, 
1962.00, 
1963.00, 
1964.00, 
1965.00, 
1966.00, 
1967.00, 
1968.00, 
1969.00, 
1970.00, 
1971.00, 
1972.00, 
1973.00, 
1974.00, 
1975.00, 
1976.00, 
1977.00, 
1978.00, 
1979.00, 
1980.00, 
1981.00, 
1982.00, 
1983.00, 
1984.00, 
1985.00, 
1986.00, 
1987.00, 
1988.00, 
1989.00, 
1990.00, 
1991.00, 
1992.00, 
1993.00, 
1994.00, 
1995.00, 
1996.00, 
1997.00, 
1998.00, 
1999.00, 
2000.00, 
2001.00, 
2002.00, 
2003.00, 
2004.00, 
2005.00, 
2006.00, 
2007.00, 
2008.00, 
2009.00, 
2010.00, 
2011.00, 
2012.00, 
2013.00, 
2014.00, 
2015.00, 
2016.00, 
2017.00, 
2018.00, 
2019.00, 
2020.00, 
2021.00, 
2022.00, 
2023.00, 
2024.00, 
2025.00, 
2026.00, 
2027.00, 
2028.00, 
2029.00, 
2030.00, 
2031.00, 
2032.00, 
2033.00, 
2034.00, 
2035.00, 
2036.00, 
2037.00, 
2038.00, 
2039.00, 
2040.00, 
2041.00, 
2042.00, 
2043.00, 
2044.00, 
2045.00, 
2046.00, 
2047.00, 
2048.00, 
2049.00, 
2050.00, 
2051.00, 
2052.00, 
2053.00, 
2054.00, 
2055.00, 
2056.00, 
2057.00, 
2058.00, 
2059.00, 
2060.00, 
2061.00, 
2062.00, 
2063.00, 
2064.00, 
2065.00, 
2066.00, 
2067.00, 
2068.00, 
2069.00, 
2070.00, 
2071.00, 
2072.00, 
2073.00, 
2074.00, 
2075.00, 
2076.00, 
2077.00, 
2078.00, 
2079.00, 
2080.00, 
2081.00, 
2082.00, 
2083.00, 
2084.00, 
2085.00, 
2086.00, 
2087.00, 
2088.00, 
2089.00, 
2090.00, 
2091.00, 
2092.00, 
2093.00, 
2094.00, 
2095.00, 
2096.00, 
2097.00, 
2098.00, 
2099.00, 
2100.00, 
2101.00, 
2102.00, 
2103.00, 
2104.00, 
2105.00, 
2106.00, 
2107.00, 
2108.00, 
2109.00, 
2110.00, 
2111.00, 
2112.00, 
2113.00, 
2114.00, 
2115.00, 
2116.00, 
2117.00, 
2118.00, 
2119.00, 
2120.00, 
2121.00, 
2122.00, 
2123.00, 
2124.00, 
2125.00, 
2126.00, 
2127.00, 
2128.00, 
2129.00, 
2130.00, 
2131.00, 
2132.00, 
2133.00, 
2134.00, 
2135.00, 
2136.00, 
2137.00, 
2138.00, 
2139.00, 
2140.00, 
2141.00, 
2142.00, 
2143.00, 
2144.00, 
2145.00, 
2146.00, 
2147.00, 
2148.00, 
2149.00, 
2150.00, 
2151.00, 
2152.00, 
2153.00, 
2154.00, 
2155.00, 
2156.00, 
2157.00, 
2158.00, 
2159.00, 
2160.00, 
2161.00, 
2162.00, 
2163.00, 
2164.00, 
2165.00, 
2166.00, 
2167.00, 
2168.00, 
2169.00, 
2170.00, 
2171.00, 
2172.00, 
2173.00, 
2174.00, 
2175.00, 
2176.00, 
2177.00, 
2178.00, 
2179.00, 
2180.00, 
2181.00, 
2182.00, 
2183.00, 
2184.00, 
2185.00, 
2186.00, 
2187.00, 
2188.00, 
2189.00, 
2190.00, 
2191.00, 
2192.00, 
2193.00, 
2194.00, 
2195.00, 
2196.00, 
2197.00, 
2198.00, 
2199.00, 
2200.00, 
2201.00, 
2202.00, 
2203.00, 
2204.00, 
2205.00, 
2206.00, 
2207.00, 
2208.00, 
2209.00, 
2210.00, 
2211.00, 
2212.00, 
2213.00, 
2214.00, 
2215.00, 
2216.00, 
2217.00, 
2218.00, 
2219.00, 
2220.00, 
2221.00, 
2222.00, 
2223.00, 
2224.00, 
2225.00, 
2226.00, 
2227.00, 
2228.00, 
2229.00, 
2230.00, 
2231.00, 
2232.00, 
2233.00, 
2234.00, 
2235.00, 
2236.00, 
2237.00, 
2238.00, 
2239.00, 
2240.00, 
2241.00, 
2242.00, 
2243.00, 
2244.00, 
2245.00, 
2246.00, 
2247.00, 
2248.00, 
2249.00, 
2250.00, 
2251.00, 
2252.00, 
2253.00, 
2254.00, 
2255.00, 
2256.00, 
2257.00, 
2258.00, 
2259.00, 
2260.00, 
2261.00, 
2262.00, 
2263.00, 
2264.00, 
2265.00, 
2266.00, 
2267.00, 
2268.00, 
2269.00, 
2270.00, 
2271.00, 
2272.00, 
2273.00, 
2274.00, 
2275.00, 
2276.00, 
2277.00, 
2278.00, 
2279.00, 
2280.00, 
2281.00, 
2282.00, 
2283.00, 
2284.00, 
2285.00, 
2286.00, 
2287.00, 
2288.00, 
2289.00, 
2290.00, 
2291.00, 
2292.00, 
2293.00, 
2294.00, 
2295.00, 
2296.00, 
2297.00, 
2298.00, 
2299.00, 
2300.00, 
2301.00, 
2302.00, 
2303.00, 
2304.00, 
2305.00, 
2306.00, 
2307.00, 
2308.00, 
2309.00, 
2310.00, 
2311.00, 
2312.00, 
2313.00, 
2314.00, 
2315.00, 
2316.00, 
2317.00, 
2318.00, 
2319.00, 
2320.00, 
2321.00, 
2322.00, 
2323.00, 
2324.00, 
2325.00, 
2326.00, 
2327.00, 
2328.00, 
2329.00, 
2330.00, 
2331.00, 
2332.00, 
2333.00, 
2334.00, 
2335.00, 
2336.00, 
2337.00, 
2338.00, 
2339.00, 
2340.00, 
2341.00, 
2342.00, 
2343.00, 
2344.00, 
2345.00, 
2346.00, 
2347.00, 
2348.00, 
2349.00, 
2350.00, 
2351.00, 
2352.00, 
2353.00, 
2354.00, 
2355.00, 
2356.00, 
2357.00, 
2358.00, 
2359.00, 
2360.00, 
2361.00, 
2362.00, 
2363.00, 
2364.00, 
2365.00, 
2366.00, 
2367.00, 
2368.00, 
2369.00, 
2370.00, 
2371.00, 
2372.00, 
2373.00, 
2374.00, 
2375.00, 
2376.00, 
2377.00, 
2378.00, 
2379.00, 
2380.00, 
2381.00, 
2382.00, 
2383.00, 
2384.00, 
2385.00, 
2386.00, 
2387.00, 
2388.00, 
2389.00, 
2390.00, 
2391.00, 
2392.00, 
2393.00, 
2394.00, 
2395.00, 
2396.00, 
2397.00, 
2398.00, 
2399.00, 
2400.00, 
2401.00, 
2402.00, 
2403.00, 
2404.00, 
2405.00, 
2406.00, 
2407.00, 
2408.00, 
2409.00, 
2410.00, 
2411.00, 
2412.00, 
2413.00, 
2414.00, 
2415.00, 
2416.00, 
2417.00, 
2418.00, 
2419.00, 
2420.00, 
2421.00, 
2422.00, 
2423.00, 
2424.00, 
2425.00, 
2426.00, 
2427.00, 
2428.00, 
2429.00, 
2430.00, 
2431.00, 
2432.00, 
2433.00, 
2434.00, 
2435.00, 
2436.00, 
2437.00, 
2438.00, 
2439.00, 
2440.00, 
2441.00, 
2442.00, 
2443.00, 
2444.00, 
2445.00, 
2446.00, 
2447.00, 
2448.00, 
2449.00, 
2450.00, 
2451.00, 
2452.00, 
2453.00, 
2454.00, 
2455.00, 
2456.00, 
2457.00, 
2458.00, 
2459.00, 
2460.00, 
2461.00, 
2462.00, 
2463.00, 
2464.00, 
2465.00, 
2466.00, 
2467.00, 
2468.00, 
2469.00, 
2470.00, 
2471.00, 
2472.00, 
2473.00, 
2474.00, 
2475.00, 
2476.00, 
2477.00, 
2478.00, 
2479.00, 
2480.00, 
2481.00, 
2482.00, 
2483.00, 
2484.00, 
2485.00, 
2486.00, 
2487.00, 
2488.00, 
2489.00, 
2490.00, 
2491.00, 
2492.00, 
2493.00, 
2494.00, 
2495.00, 
2496.00, 
2497.00, 
2498.00, 
2499.00, 
2500.00, 
2501.00, 
2502.00, 
2503.00, 
2504.00, 
2505.00, 
2506.00, 
2507.00, 
2508.00, 
2509.00, 
2510.00, 
2511.00, 
2512.00, 
2513.00, 
2514.00, 
2515.00, 
2516.00, 
2517.00, 
2518.00, 
2519.00, 
2520.00, 
2521.00, 
2522.00, 
2523.00, 
2524.00, 
2525.00, 
2526.00, 
2527.00, 
2528.00, 
2529.00, 
2530.00, 
2531.00, 
2532.00, 
2533.00, 
2534.00, 
2535.00, 
2536.00, 
2537.00, 
2538.00, 
2539.00, 
2540.00, 
2541.00, 
2542.00, 
2543.00, 
2544.00, 
2545.00, 
2546.00, 
2547.00, 
2548.00, 
2549.00, 
2550.00, 
2551.00, 
2552.00, 
2553.00, 
2554.00, 
2555.00, 
2556.00, 
2557.00, 
2558.00, 
2559.00, 
2560.00, 
2561.00, 
2562.00, 
2563.00, 
2564.00, 
2565.00, 
2566.00, 
2567.00, 
2568.00, 
2569.00, 
2570.00, 
2571.00, 
2572.00, 
2573.00, 
2574.00, 
2575.00, 
2576.00, 
2577.00, 
2578.00, 
2579.00, 
2580.00, 
2581.00, 
2582.00, 
2583.00, 
2584.00, 
2585.00, 
2586.00, 
2587.00, 
2588.00, 
2589.00, 
2590.00, 
2591.00, 
2592.00, 
2593.00, 
2594.00, 
2595.00, 
2596.00, 
2597.00, 
2598.00, 
2599.00, 
2600.00, 
