"2cP5 - RawData"
"Wavelength nm.","T%"
200.00,-0.002
201.00,-0.002
202.00,0.002
203.00,0.002
204.00,-0.001
205.00,0.002
206.00,0.002
207.00,-0.002
208.00,0.005
209.00,0.003
210.00,-0.001
211.00,-0.002
212.00,0.001
213.00,0.000
214.00,0.002
215.00,0.000
216.00,0.003
217.00,0.003
218.00,-0.001
219.00,-0.000
220.00,0.000
221.00,-0.001
222.00,0.001
223.00,-0.000
224.00,0.002
225.00,0.003
226.00,0.000
227.00,-0.000
228.00,0.003
229.00,0.002
230.00,0.002
231.00,-0.000
232.00,-0.000
233.00,-0.000
234.00,0.002
235.00,0.001
236.00,-0.000
237.00,-0.000
238.00,0.002
239.00,-0.001
240.00,0.001
241.00,0.001
242.00,0.001
243.00,-0.001
244.00,0.002
245.00,-0.000
246.00,0.001
247.00,-0.001
248.00,0.002
249.00,-0.000
250.00,-0.002
251.00,-0.001
252.00,0.000
253.00,0.000
254.00,0.001
255.00,0.000
256.00,0.001
257.00,0.001
258.00,0.000
259.00,-0.000
260.00,-0.000
261.00,0.000
262.00,0.001
263.00,0.002
264.00,-0.001
265.00,-0.001
266.00,-0.001
267.00,0.000
268.00,0.002
269.00,-0.001
270.00,0.001
271.00,-0.000
272.00,0.001
273.00,0.002
274.00,-0.001
275.00,0.001
276.00,-0.000
277.00,0.001
278.00,0.001
279.00,0.000
280.00,-0.001
281.00,-0.000
282.00,-0.001
283.00,-0.000
284.00,-0.001
285.00,0.000
286.00,0.000
287.00,-0.001
288.00,-0.001
289.00,-0.001
290.00,0.001
291.00,-0.000
292.00,0.000
293.00,0.001
294.00,0.000
295.00,-0.001
296.00,0.001
297.00,-0.001
298.00,0.002
299.00,0.002
300.00,0.001
301.00,0.001
302.00,0.004
303.00,0.007
304.00,0.010
305.00,0.018
306.00,0.025
307.00,0.036
308.00,0.054
309.00,0.087
310.00,0.123
311.00,0.164
312.00,0.229
313.00,0.312
314.00,0.405
315.00,0.534
316.00,0.675
317.00,0.864
318.00,1.048
319.00,1.297
320.00,1.578
321.00,1.873
322.00,2.214
323.00,2.611
324.00,3.028
325.00,3.452
326.00,3.910
327.00,4.427
328.00,4.945
329.00,5.455
330.00,5.936
331.00,6.533
332.00,7.115
333.00,7.694
334.00,8.270
335.00,8.874
336.00,9.458
337.00,10.054
338.00,10.608
339.00,11.155
340.00,11.687
341.00,12.175
342.00,12.675
343.00,13.155
344.00,13.625
345.00,14.102
346.00,14.452
347.00,14.864
348.00,15.277
349.00,15.556
350.00,15.892
351.00,16.194
352.00,16.445
353.00,16.735
354.00,16.960
355.00,17.196
356.00,17.407
357.00,17.622
358.00,17.837
359.00,17.970
360.00,18.143
361.00,18.288
362.00,18.388
363.00,18.528
364.00,18.635
365.00,18.723
366.00,18.800
367.00,18.866
368.00,18.898
369.00,18.959
370.00,18.979
371.00,19.035
372.00,19.019
373.00,19.021
374.00,18.971
375.00,18.956
376.00,18.923
377.00,18.905
378.00,18.840
379.00,18.780
380.00,18.741
381.00,18.733
382.00,18.766
383.00,18.723
384.00,18.762
385.00,18.761
386.00,18.741
387.00,18.794
388.00,18.835
389.00,18.836
390.00,18.835
391.00,18.876
392.00,18.887
393.00,18.887
394.00,18.910
395.00,18.895
396.00,18.898
397.00,18.899
398.00,18.895
399.00,18.921
400.00,18.893
401.00,18.900
402.00,18.844
403.00,18.919
404.00,18.878
405.00,18.882
406.00,18.879
407.00,18.841
408.00,18.834
409.00,18.798
410.00,18.800
411.00,18.751
412.00,18.741
413.00,18.778
414.00,18.752
415.00,18.776
416.00,18.816
417.00,18.828
418.00,18.841
419.00,18.903
420.00,18.908
421.00,19.026
422.00,18.995
423.00,19.028
424.00,19.066
425.00,19.103
426.00,19.142
427.00,19.200
428.00,19.254
429.00,19.293
430.00,19.375
431.00,19.367
432.00,19.420
433.00,19.496
434.00,19.551
435.00,19.619
436.00,19.674
437.00,19.758
438.00,19.802
439.00,19.889
440.00,19.975
441.00,20.048
442.00,20.117
443.00,20.206
444.00,20.308
445.00,20.357
446.00,20.495
447.00,20.582
448.00,20.684
449.00,20.799
450.00,20.915
451.00,20.984
452.00,21.124
453.00,21.202
454.00,21.328
455.00,21.417
456.00,21.562
457.00,21.686
458.00,21.781
459.00,21.927
460.00,22.056
461.00,22.149
462.00,22.293
463.00,22.418
464.00,22.583
465.00,22.690
466.00,22.807
467.00,22.952
468.00,23.083
469.00,23.228
470.00,23.324
471.00,23.429
472.00,23.541
473.00,23.630
474.00,23.714
475.00,23.886
476.00,24.020
477.00,24.149
478.00,24.276
479.00,24.413
480.00,24.557
481.00,24.713
482.00,24.871
483.00,25.014
484.00,25.151
485.00,25.340
486.00,25.491
487.00,25.665
488.00,25.812
489.00,25.994
490.00,26.146
491.00,26.275
492.00,26.472
493.00,26.569
494.00,26.620
495.00,26.780
496.00,26.919
497.00,26.962
498.00,27.232
499.00,27.371
500.00,27.500
501.00,27.606
502.00,27.698
503.00,27.914
504.00,28.033
505.00,28.154
506.00,28.278
507.00,28.419
508.00,28.561
509.00,28.689
510.00,28.830
511.00,28.953
512.00,29.078
513.00,29.251
514.00,29.407
515.00,29.478
516.00,29.567
517.00,29.624
518.00,29.856
519.00,29.894
520.00,29.976
521.00,30.092
522.00,30.162
523.00,30.283
524.00,30.345
525.00,30.447
526.00,30.578
527.00,30.687
528.00,30.780
529.00,30.876
530.00,30.990
531.00,31.133
532.00,31.244
533.00,31.345
534.00,31.430
535.00,31.530
536.00,31.600
537.00,31.699
538.00,31.821
539.00,31.860
540.00,31.929
541.00,32.007
542.00,32.067
543.00,32.137
544.00,32.247
545.00,32.285
546.00,32.387
547.00,32.474
548.00,32.517
549.00,32.639
550.00,32.720
551.00,32.785
552.00,32.902
553.00,32.927
554.00,33.048
555.00,33.105
556.00,33.129
557.00,33.256
558.00,33.251
559.00,33.332
560.00,33.403
561.00,33.446
562.00,33.559
563.00,33.572
564.00,33.658
565.00,33.727
566.00,33.683
567.00,33.743
568.00,33.772
569.00,33.804
570.00,33.822
571.00,33.925
572.00,33.984
573.00,33.957
574.00,34.022
575.00,34.026
576.00,34.017
577.00,34.121
578.00,34.195
579.00,34.260
580.00,34.268
581.00,34.428
582.00,34.546
583.00,34.552
584.00,34.662
585.00,34.692
586.00,34.737
587.00,34.765
588.00,34.824
589.00,34.867
590.00,34.931
591.00,34.992
592.00,34.962
593.00,35.017
594.00,35.077
595.00,35.114
596.00,35.200
597.00,35.254
598.00,35.317
599.00,35.406
600.00,35.424
601.00,35.466
602.00,35.507
603.00,35.517
604.00,35.605
605.00,35.605
606.00,35.682
607.00,35.723
608.00,35.869
609.00,35.855
610.00,35.894
611.00,35.932
612.00,35.989
613.00,36.021
614.00,36.112
615.00,36.168
616.00,36.276
617.00,36.286
618.00,36.335
619.00,36.371
620.00,36.439
621.00,36.488
622.00,36.549
623.00,36.645
624.00,36.723
625.00,36.792
626.00,36.810
627.00,36.915
628.00,36.983
629.00,36.980
630.00,37.065
631.00,37.159
632.00,37.227
633.00,37.267
634.00,37.339
635.00,37.493
636.00,37.552
637.00,37.677
638.00,37.716
639.00,37.818
640.00,37.870
641.00,37.929
642.00,38.024
643.00,38.061
644.00,38.221
645.00,38.263
646.00,38.389
647.00,38.432
648.00,38.498
649.00,38.613
650.00,38.703
651.00,38.820
652.00,38.849
653.00,38.921
654.00,39.024
655.00,38.932
656.00,39.348
657.00,39.533
658.00,39.548
659.00,39.687
660.00,39.641
661.00,39.755
662.00,40.000
663.00,39.992
664.00,40.114
665.00,40.132
666.00,40.287
667.00,40.450
668.00,40.509
669.00,40.579
670.00,40.758
671.00,40.749
672.00,40.939
673.00,40.986
674.00,41.161
675.00,41.290
676.00,41.443
677.00,41.487
678.00,41.531
679.00,41.648
680.00,41.754
681.00,41.833
682.00,41.992
683.00,42.150
684.00,42.288
685.00,42.333
686.00,42.420
687.00,42.461
688.00,42.600
689.00,42.669
690.00,42.804
691.00,42.951
692.00,43.003
693.00,43.065
694.00,43.155
695.00,43.339
696.00,43.415
697.00,43.503
698.00,43.714
699.00,43.854
700.00,43.830
701.00,43.935
702.00,44.099
703.00,44.251
704.00,44.316
705.00,44.382
706.00,44.500
707.00,44.439
708.00,44.450
709.00,44.956
710.00,45.024
711.00,44.987
712.00,44.966
713.00,45.121
714.00,45.195
715.00,45.285
716.00,45.434
717.00,45.379
718.00,45.543
719.00,45.605
720.00,45.667
721.00,49.887
722.00,49.900
723.00,49.925
724.00,49.969
725.00,49.964
726.00,50.114
727.00,50.069
728.00,50.070
729.00,50.257
730.00,50.246
731.00,50.388
732.00,50.309
733.00,50.397
734.00,50.487
735.00,50.509
736.00,50.523
737.00,50.575
738.00,50.662
739.00,50.638
740.00,50.820
741.00,50.767
742.00,50.818
743.00,50.819
744.00,50.874
745.00,50.905
746.00,50.902
747.00,50.983
748.00,50.892
749.00,50.979
750.00,51.014
751.00,50.963
752.00,51.008
753.00,51.012
754.00,51.099
755.00,51.047
756.00,51.178
757.00,51.180
758.00,51.161
759.00,51.219
760.00,51.182
761.00,51.262
762.00,51.315
763.00,51.292
764.00,51.347
765.00,51.359
766.00,51.443
767.00,51.429
768.00,51.491
769.00,51.444
770.00,51.513
771.00,51.565
772.00,51.536
773.00,51.531
774.00,51.590
775.00,51.583
776.00,51.531
777.00,51.568
778.00,51.576
779.00,51.597
780.00,51.603
781.00,51.656
782.00,51.728
783.00,51.624
784.00,51.750
785.00,51.643
786.00,51.732
787.00,51.760
788.00,51.656
789.00,51.661
790.00,51.613
791.00,51.691
792.00,51.736
793.00,51.641
794.00,51.827
795.00,51.661
796.00,51.685
797.00,51.698
798.00,51.757
799.00,51.625
800.00,51.637
801.00,51.663
802.00,51.700
803.00,51.679
804.00,51.623
805.00,51.641
806.00,51.608
807.00,51.627
808.00,51.602
809.00,51.602
810.00,51.532
811.00,51.585
812.00,51.598
813.00,51.507
814.00,51.642
815.00,51.648
816.00,51.575
817.00,51.572
818.00,51.489
819.00,51.490
820.00,51.496
821.00,51.434
822.00,51.392
823.00,51.370
824.00,51.485
825.00,51.352
826.00,51.482
827.00,51.534
828.00,51.498
829.00,51.461
830.00,51.479
831.00,53.659
832.00,53.640
833.00,53.581
834.00,53.611
835.00,53.561
836.00,53.599
837.00,53.550
838.00,53.502
839.00,53.546
840.00,53.464
841.00,53.454
842.00,53.468
843.00,53.461
844.00,53.461
845.00,53.409
846.00,53.433
847.00,53.441
848.00,53.388
849.00,53.337
850.00,53.347
851.00,53.262
852.00,53.287
853.00,53.257
854.00,53.225
855.00,53.160
856.00,53.195
857.00,53.156
858.00,53.143
859.00,53.106
860.00,53.109
861.00,53.103
862.00,53.043
863.00,53.083
864.00,53.016
865.00,53.061
866.00,53.032
867.00,53.026
868.00,53.019
869.00,52.985
870.00,52.996
871.00,52.978
872.00,52.986
873.00,52.974
874.00,52.989
875.00,52.936
876.00,52.937
877.00,52.908
878.00,52.919
879.00,52.925
880.00,52.889
881.00,52.851
882.00,52.912
883.00,52.864
884.00,52.839
885.00,52.835
886.00,52.822
887.00,52.795
888.00,52.755
889.00,52.752
890.00,52.722
891.00,52.718
892.00,52.708
893.00,52.610
894.00,52.723
895.00,52.622
896.00,52.616
897.00,52.582
898.00,52.552
899.00,52.559
900.00,52.560
901.00,52.546
902.00,52.573
903.00,52.519
904.00,52.543
905.00,52.399
906.00,52.491
907.00,52.470
908.00,52.441
909.00,52.427
910.00,52.401
911.00,52.400
912.00,52.405
913.00,52.321
914.00,52.332
915.00,52.302
916.00,52.294
917.00,52.284
918.00,52.269
919.00,52.221
920.00,52.215
921.00,52.230
922.00,52.204
923.00,52.194
924.00,52.147
925.00,52.158
926.00,52.114
927.00,52.097
928.00,52.071
929.00,52.101
930.00,52.028
931.00,52.042
932.00,51.984
933.00,52.010
934.00,51.978
935.00,51.948
936.00,51.917
937.00,51.946
938.00,51.906
939.00,51.922
940.00,51.881
941.00,51.884
942.00,51.834
943.00,51.838
944.00,51.782
945.00,51.811
946.00,51.785
947.00,51.772
948.00,51.755
949.00,51.740
950.00,51.738
951.00,51.692
952.00,51.672
953.00,51.644
954.00,51.648
955.00,51.585
956.00,51.586
957.00,51.528
958.00,51.548
959.00,51.496
960.00,51.474
961.00,51.458
962.00,51.454
963.00,51.405
964.00,51.411
965.00,51.410
966.00,51.375
967.00,51.386
968.00,51.372
969.00,51.424
970.00,51.354
971.00,51.389
972.00,51.354
973.00,51.384
974.00,51.406
975.00,51.366
976.00,51.394
977.00,51.376
978.00,51.411
979.00,51.353
980.00,51.399
981.00,51.402
982.00,51.355
983.00,51.368
984.00,51.344
985.00,51.355
986.00,51.343
987.00,51.334
988.00,51.318
989.00,51.318
990.00,51.311
991.00,51.289
992.00,51.308
993.00,51.257
994.00,51.262
995.00,51.248
996.00,51.223
997.00,51.221
998.00,51.187
999.00,51.228
1000.00,51.182
1001.00,51.188
1002.00,51.177
1003.00,51.163
1004.00,51.164
1005.00,51.127
1006.00,51.152
1007.00,51.099
1008.00,51.101
1009.00,51.078
1010.00,51.077
1011.00,51.069
1012.00,51.017
1013.00,51.042
1014.00,50.995
1015.00,51.004
1016.00,50.962
1017.00,50.970
1018.00,50.962
1019.00,50.930
1020.00,50.932
1021.00,50.898
1022.00,50.910
1023.00,50.847
1024.00,50.865
1025.00,50.883
1026.00,50.833
1027.00,50.831
1028.00,50.811
1029.00,50.787
1030.00,50.752
1031.00,50.751
1032.00,50.712
1033.00,50.722
1034.00,50.688
1035.00,50.651
1036.00,50.640
1037.00,50.609
1038.00,50.620
1039.00,50.593
1040.00,50.598
1041.00,50.566
1042.00,50.547
1043.00,50.517
1044.00,50.546
1045.00,50.524
1046.00,50.516
1047.00,50.543
1048.00,50.532
1049.00,50.543
1050.00,50.563
1051.00,50.578
1052.00,50.576
1053.00,50.612
1054.00,50.602
1055.00,50.644
1056.00,50.629
1057.00,50.644
1058.00,50.625
1059.00,50.604
1060.00,50.627
1061.00,50.599
1062.00,50.561
1063.00,50.578
1064.00,50.575
1065.00,50.556
1066.00,50.560
1067.00,50.540
1068.00,50.560
1069.00,50.527
1070.00,50.498
1071.00,50.508
1072.00,50.510
1073.00,50.467
1074.00,50.492
1075.00,50.461
1076.00,50.458
1077.00,50.437
1078.00,50.431
1079.00,50.428
1080.00,50.432
1081.00,50.418
1082.00,50.431
1083.00,50.423
1084.00,50.403
1085.00,50.411
1086.00,50.413
1087.00,50.376
1088.00,50.360
1089.00,50.340
1090.00,50.359
1091.00,50.358
1092.00,50.333
1093.00,50.321
1094.00,50.298
1095.00,50.285
1096.00,50.281
1097.00,50.281
1098.00,50.265
1099.00,50.263
1100.00,50.247
1101.00,50.252
1102.00,50.231
1103.00,50.225
1104.00,50.226
1105.00,50.209
1106.00,50.175
1107.00,50.186
1108.00,50.169
1109.00,50.164
1110.00,50.149
1111.00,50.143
1112.00,50.128
1113.00,50.129
1114.00,50.121
1115.00,50.138
1116.00,50.121
1117.00,50.095
1118.00,50.109
1119.00,50.094
1120.00,50.087
1121.00,50.081
1122.00,50.059
1123.00,50.057
1124.00,50.052
1125.00,50.050
1126.00,50.049
1127.00,50.053
1128.00,50.010
1129.00,50.002
1130.00,49.981
1131.00,49.983
1132.00,49.960
1133.00,49.955
1134.00,49.980
1135.00,49.982
1136.00,49.951
1137.00,49.976
1138.00,49.966
1139.00,49.960
1140.00,49.957
1141.00,49.947
1142.00,49.934
1143.00,49.949
1144.00,49.917
1145.00,49.911
1146.00,49.916
1147.00,49.904
1148.00,49.896
1149.00,49.908
1150.00,49.902
1151.00,49.909
1152.00,49.875
1153.00,49.877
1154.00,49.878
1155.00,49.883
1156.00,49.870
1157.00,49.880
1158.00,49.868
1159.00,49.872
1160.00,49.867
1161.00,49.867
1162.00,49.862
1163.00,49.855
1164.00,49.849
1165.00,49.848
1166.00,49.846
1167.00,49.837
1168.00,49.863
1169.00,49.847
1170.00,49.873
1171.00,49.834
1172.00,49.838
1173.00,49.840
1174.00,49.834
1175.00,49.826
1176.00,49.834
1177.00,49.828
1178.00,49.835
1179.00,49.849
1180.00,49.816
1181.00,49.848
1182.00,49.825
1183.00,49.814
1184.00,49.824
1185.00,49.819
1186.00,49.792
1187.00,49.822
1188.00,49.822
1189.00,49.796
1190.00,49.791
1191.00,49.788
1192.00,49.807
1193.00,49.788
1194.00,49.786
1195.00,49.768
1196.00,49.794
1197.00,49.777
1198.00,49.767
1199.00,49.769
1200.00,49.759
1201.00,49.781
1202.00,49.759
1203.00,49.786
1204.00,49.768
1205.00,49.770
1206.00,49.774
1207.00,49.779
1208.00,49.769
1209.00,49.775
1210.00,49.767
1211.00,49.768
1212.00,49.789
1213.00,49.730
1214.00,49.774
1215.00,49.750
1216.00,49.763
1217.00,49.767
1218.00,49.746
1219.00,49.764
1220.00,49.737
1221.00,49.763
1222.00,49.740
1223.00,49.768
1224.00,49.748
1225.00,49.733
1226.00,49.761
1227.00,49.741
1228.00,49.767
1229.00,49.754
1230.00,49.787
1231.00,49.769
1232.00,49.776
1233.00,49.780
1234.00,49.777
1235.00,49.776
1236.00,49.791
1237.00,49.792
1238.00,49.776
1239.00,49.798
1240.00,49.790
1241.00,49.793
1242.00,49.785
1243.00,49.805
1244.00,49.783
1245.00,49.802
1246.00,49.790
1247.00,49.795
1248.00,49.792
1249.00,49.796
1250.00,49.832
1251.00,49.803
1252.00,49.827
1253.00,49.825
1254.00,49.853
1255.00,49.832
1256.00,49.818
1257.00,49.796
1258.00,49.860
1259.00,49.848
1260.00,49.853
1261.00,49.862
1262.00,49.858
1263.00,49.867
1264.00,49.869
1265.00,49.855
1266.00,49.849
1267.00,49.864
1268.00,49.867
1269.00,49.876
1270.00,49.881
1271.00,49.873
1272.00,49.892
1273.00,49.908
1274.00,49.905
1275.00,49.920
1276.00,49.911
1277.00,49.916
1278.00,49.925
1279.00,49.913
1280.00,49.925
1281.00,49.926
1282.00,49.914
1283.00,49.903
1284.00,49.909
1285.00,49.907
1286.00,49.924
1287.00,49.921
1288.00,49.940
1289.00,49.939
1290.00,49.941
1291.00,49.945
1292.00,49.952
1293.00,49.940
1294.00,49.972
1295.00,49.947
1296.00,49.943
1297.00,49.951
1298.00,49.973
1299.00,49.966
1300.00,49.984
1301.00,49.990
1302.00,50.009
1303.00,50.017
1304.00,49.971
1305.00,50.005
1306.00,49.997
1307.00,50.021
1308.00,50.017
1309.00,50.003
1310.00,50.014
1311.00,50.015
1312.00,50.011
1313.00,50.039
1314.00,50.033
1315.00,50.031
1316.00,50.048
1317.00,50.080
1318.00,50.069
1319.00,50.076
1320.00,50.099
1321.00,50.232
1322.00,50.259
1323.00,50.232
1324.00,50.232
1325.00,50.212
1326.00,50.227
1327.00,50.230
1328.00,50.241
1329.00,50.226
1330.00,50.233
1331.00,50.234
1332.00,50.218
1333.00,50.235
1334.00,50.260
1335.00,50.265
1336.00,50.285
1337.00,50.310
1338.00,50.383
1339.00,50.419
1340.00,50.472
1341.00,50.554
1342.00,50.641
1343.00,50.670
1344.00,50.720
1345.00,50.767
1346.00,50.806
1347.00,50.842
1348.00,50.853
1349.00,50.879
1350.00,50.895
1351.00,50.892
1352.00,50.901
1353.00,50.911
1354.00,50.903
1355.00,50.881
1356.00,50.927
1357.00,50.920
1358.00,50.949
1359.00,50.967
1360.00,51.013
1361.00,50.912
1362.00,50.906
1363.00,51.034
1364.00,50.984
1365.00,50.932
1366.00,50.962
1367.00,50.901
1368.00,50.856
1369.00,50.917
1370.00,50.916
1371.00,50.770
1372.00,50.884
1373.00,50.873
1374.00,50.919
1375.00,50.911
1376.00,50.905
1377.00,50.900
1378.00,50.953
1379.00,50.940
1380.00,50.926
1381.00,50.960
1382.00,50.913
1383.00,50.919
1384.00,50.878
1385.00,50.879
1386.00,50.963
1387.00,50.885
1388.00,50.849
1389.00,50.870
1390.00,50.919
1391.00,50.886
1392.00,50.866
1393.00,50.882
1394.00,50.901
1395.00,50.922
1396.00,50.816
1397.00,50.875
1398.00,50.557
1399.00,50.944
1400.00,50.856
1401.00,50.853
1402.00,50.968
1403.00,50.923
1404.00,50.934
1405.00,50.949
1406.00,50.920
1407.00,50.959
1408.00,50.983
1409.00,50.911
1410.00,50.963
1411.00,50.946
1412.00,50.970
1413.00,50.933
1414.00,50.963
1415.00,50.950
1416.00,51.013
1417.00,51.018
1418.00,51.007
1419.00,51.023
1420.00,51.024
1421.00,51.075
1422.00,51.050
1423.00,51.071
1424.00,51.065
1425.00,51.079
1426.00,51.095
1427.00,51.127
1428.00,51.121
1429.00,51.145
1430.00,51.150
1431.00,51.165
1432.00,51.187
1433.00,51.202
1434.00,51.186
1435.00,51.243
1436.00,51.238
1437.00,51.243
1438.00,51.259
1439.00,51.299
1440.00,51.314
1441.00,51.317
1442.00,51.323
1443.00,51.354
1444.00,51.370
1445.00,51.352
1446.00,51.386
1447.00,51.414
1448.00,51.446
1449.00,51.448
1450.00,51.438
1451.00,51.464
1452.00,51.476
1453.00,51.468
1454.00,51.497
1455.00,51.512
1456.00,51.521
1457.00,51.523
1458.00,51.541
1459.00,51.562
1460.00,51.606
1461.00,51.573
1462.00,51.620
1463.00,51.636
1464.00,51.619
1465.00,51.657
1466.00,51.653
1467.00,51.668
1468.00,51.712
1469.00,51.693
1470.00,51.714
1471.00,51.719
1472.00,51.734
1473.00,51.752
1474.00,51.785
1475.00,51.777
1476.00,51.810
1477.00,51.796
1478.00,51.820
1479.00,51.836
1480.00,51.827
1481.00,51.855
1482.00,51.886
1483.00,51.863
1484.00,51.890
1485.00,51.913
1486.00,51.906
1487.00,51.937
1488.00,51.937
1489.00,51.932
1490.00,51.961
1491.00,51.965
1492.00,51.985
1493.00,51.977
1494.00,51.986
1495.00,52.006
1496.00,52.030
1497.00,52.011
1498.00,52.027
1499.00,52.042
1500.00,52.052
1501.00, 
1502.00, 
1503.00, 
1504.00, 
1505.00, 
1506.00, 
1507.00, 
1508.00, 
1509.00, 
1510.00, 
1511.00, 
1512.00, 
1513.00, 
1514.00, 
1515.00, 
1516.00, 
1517.00, 
1518.00, 
1519.00, 
1520.00, 
1521.00, 
1522.00, 
1523.00, 
1524.00, 
1525.00, 
1526.00, 
1527.00, 
1528.00, 
1529.00, 
1530.00, 
1531.00, 
1532.00, 
1533.00, 
1534.00, 
1535.00, 
1536.00, 
1537.00, 
1538.00, 
1539.00, 
1540.00, 
1541.00, 
1542.00, 
1543.00, 
1544.00, 
1545.00, 
1546.00, 
1547.00, 
1548.00, 
1549.00, 
1550.00, 
1551.00, 
1552.00, 
1553.00, 
1554.00, 
1555.00, 
1556.00, 
1557.00, 
1558.00, 
1559.00, 
1560.00, 
1561.00, 
1562.00, 
1563.00, 
1564.00, 
1565.00, 
1566.00, 
1567.00, 
1568.00, 
1569.00, 
1570.00, 
1571.00, 
1572.00, 
1573.00, 
1574.00, 
1575.00, 
1576.00, 
1577.00, 
1578.00, 
1579.00, 
1580.00, 
1581.00, 
1582.00, 
1583.00, 
1584.00, 
1585.00, 
1586.00, 
1587.00, 
1588.00, 
1589.00, 
1590.00, 
1591.00, 
1592.00, 
1593.00, 
1594.00, 
1595.00, 
1596.00, 
1597.00, 
1598.00, 
1599.00, 
1600.00, 
1601.00, 
1602.00, 
1603.00, 
1604.00, 
1605.00, 
1606.00, 
1607.00, 
1608.00, 
1609.00, 
1610.00, 
1611.00, 
1612.00, 
1613.00, 
1614.00, 
1615.00, 
1616.00, 
1617.00, 
1618.00, 
1619.00, 
1620.00, 
1621.00, 
1622.00, 
1623.00, 
1624.00, 
1625.00, 
1626.00, 
1627.00, 
1628.00, 
1629.00, 
1630.00, 
1631.00, 
1632.00, 
1633.00, 
1634.00, 
1635.00, 
1636.00, 
1637.00, 
1638.00, 
1639.00, 
1640.00, 
1641.00, 
1642.00, 
1643.00, 
1644.00, 
1645.00, 
1646.00, 
1647.00, 
1648.00, 
1649.00, 
1650.00, 
1651.00, 
1652.00, 
1653.00, 
1654.00, 
1655.00, 
1656.00, 
1657.00, 
1658.00, 
1659.00, 
1660.00, 
1661.00, 
1662.00, 
1663.00, 
1664.00, 
1665.00, 
1666.00, 
1667.00, 
1668.00, 
1669.00, 
1670.00, 
1671.00, 
1672.00, 
1673.00, 
1674.00, 
1675.00, 
1676.00, 
1677.00, 
1678.00, 
1679.00, 
1680.00, 
1681.00, 
1682.00, 
1683.00, 
1684.00, 
1685.00, 
1686.00, 
1687.00, 
1688.00, 
1689.00, 
1690.00, 
1691.00, 
1692.00, 
1693.00, 
1694.00, 
1695.00, 
1696.00, 
1697.00, 
1698.00, 
1699.00, 
1700.00, 
1701.00, 
1702.00, 
1703.00, 
1704.00, 
1705.00, 
1706.00, 
1707.00, 
1708.00, 
1709.00, 
1710.00, 
1711.00, 
1712.00, 
1713.00, 
1714.00, 
1715.00, 
1716.00, 
1717.00, 
1718.00, 
1719.00, 
1720.00, 
1721.00, 
1722.00, 
1723.00, 
1724.00, 
1725.00, 
1726.00, 
1727.00, 
1728.00, 
1729.00, 
1730.00, 
1731.00, 
1732.00, 
1733.00, 
1734.00, 
1735.00, 
1736.00, 
1737.00, 
1738.00, 
1739.00, 
1740.00, 
1741.00, 
1742.00, 
1743.00, 
1744.00, 
1745.00, 
1746.00, 
1747.00, 
1748.00, 
1749.00, 
1750.00, 
1751.00, 
1752.00, 
1753.00, 
1754.00, 
1755.00, 
1756.00, 
1757.00, 
1758.00, 
1759.00, 
1760.00, 
1761.00, 
1762.00, 
1763.00, 
1764.00, 
1765.00, 
1766.00, 
1767.00, 
1768.00, 
1769.00, 
1770.00, 
1771.00, 
1772.00, 
1773.00, 
1774.00, 
1775.00, 
1776.00, 
1777.00, 
1778.00, 
1779.00, 
1780.00, 
1781.00, 
1782.00, 
1783.00, 
1784.00, 
1785.00, 
1786.00, 
1787.00, 
1788.00, 
1789.00, 
1790.00, 
1791.00, 
1792.00, 
1793.00, 
1794.00, 
1795.00, 
1796.00, 
1797.00, 
1798.00, 
1799.00, 
1800.00, 
1801.00, 
1802.00, 
1803.00, 
1804.00, 
1805.00, 
1806.00, 
1807.00, 
1808.00, 
1809.00, 
1810.00, 
1811.00, 
1812.00, 
1813.00, 
1814.00, 
1815.00, 
1816.00, 
1817.00, 
1818.00, 
1819.00, 
1820.00, 
1821.00, 
1822.00, 
1823.00, 
1824.00, 
1825.00, 
1826.00, 
1827.00, 
1828.00, 
1829.00, 
1830.00, 
1831.00, 
1832.00, 
1833.00, 
1834.00, 
1835.00, 
1836.00, 
1837.00, 
1838.00, 
1839.00, 
1840.00, 
1841.00, 
1842.00, 
1843.00, 
1844.00, 
1845.00, 
1846.00, 
1847.00, 
1848.00, 
1849.00, 
1850.00, 
1851.00, 
1852.00, 
1853.00, 
1854.00, 
1855.00, 
1856.00, 
1857.00, 
1858.00, 
1859.00, 
1860.00, 
1861.00, 
1862.00, 
1863.00, 
1864.00, 
1865.00, 
1866.00, 
1867.00, 
1868.00, 
1869.00, 
1870.00, 
1871.00, 
1872.00, 
1873.00, 
1874.00, 
1875.00, 
1876.00, 
1877.00, 
1878.00, 
1879.00, 
1880.00, 
1881.00, 
1882.00, 
1883.00, 
1884.00, 
1885.00, 
1886.00, 
1887.00, 
1888.00, 
1889.00, 
1890.00, 
1891.00, 
1892.00, 
1893.00, 
1894.00, 
1895.00, 
1896.00, 
1897.00, 
1898.00, 
1899.00, 
1900.00, 
1901.00, 
1902.00, 
1903.00, 
1904.00, 
1905.00, 
1906.00, 
1907.00, 
1908.00, 
1909.00, 
1910.00, 
1911.00, 
1912.00, 
1913.00, 
1914.00, 
1915.00, 
1916.00, 
1917.00, 
1918.00, 
1919.00, 
1920.00, 
1921.00, 
1922.00, 
1923.00, 
1924.00, 
1925.00, 
1926.00, 
1927.00, 
1928.00, 
1929.00, 
1930.00, 
1931.00, 
1932.00, 
1933.00, 
1934.00, 
1935.00, 
1936.00, 
1937.00, 
1938.00, 
1939.00, 
1940.00, 
1941.00, 
1942.00, 
1943.00, 
1944.00, 
1945.00, 
1946.00, 
1947.00, 
1948.00, 
1949.00, 
1950.00, 
1951.00, 
1952.00, 
1953.00, 
1954.00, 
1955.00, 
1956.00, 
1957.00, 
1958.00, 
1959.00, 
1960.00, 
1961.00, 
1962.00, 
1963.00, 
1964.00, 
1965.00, 
1966.00, 
1967.00, 
1968.00, 
1969.00, 
1970.00, 
1971.00, 
1972.00, 
1973.00, 
1974.00, 
1975.00, 
1976.00, 
1977.00, 
1978.00, 
1979.00, 
1980.00, 
1981.00, 
1982.00, 
1983.00, 
1984.00, 
1985.00, 
1986.00, 
1987.00, 
1988.00, 
1989.00, 
1990.00, 
1991.00, 
1992.00, 
1993.00, 
1994.00, 
1995.00, 
1996.00, 
1997.00, 
1998.00, 
1999.00, 
2000.00, 
2001.00, 
2002.00, 
2003.00, 
2004.00, 
2005.00, 
2006.00, 
2007.00, 
2008.00, 
2009.00, 
2010.00, 
2011.00, 
2012.00, 
2013.00, 
2014.00, 
2015.00, 
2016.00, 
2017.00, 
2018.00, 
2019.00, 
2020.00, 
2021.00, 
2022.00, 
2023.00, 
2024.00, 
2025.00, 
2026.00, 
2027.00, 
2028.00, 
2029.00, 
2030.00, 
2031.00, 
2032.00, 
2033.00, 
2034.00, 
2035.00, 
2036.00, 
2037.00, 
2038.00, 
2039.00, 
2040.00, 
2041.00, 
2042.00, 
2043.00, 
2044.00, 
2045.00, 
2046.00, 
2047.00, 
2048.00, 
2049.00, 
2050.00, 
2051.00, 
2052.00, 
2053.00, 
2054.00, 
2055.00, 
2056.00, 
2057.00, 
2058.00, 
2059.00, 
2060.00, 
2061.00, 
2062.00, 
2063.00, 
2064.00, 
2065.00, 
2066.00, 
2067.00, 
2068.00, 
2069.00, 
2070.00, 
2071.00, 
2072.00, 
2073.00, 
2074.00, 
2075.00, 
2076.00, 
2077.00, 
2078.00, 
2079.00, 
2080.00, 
2081.00, 
2082.00, 
2083.00, 
2084.00, 
2085.00, 
2086.00, 
2087.00, 
2088.00, 
2089.00, 
2090.00, 
2091.00, 
2092.00, 
2093.00, 
2094.00, 
2095.00, 
2096.00, 
2097.00, 
2098.00, 
2099.00, 
2100.00, 
2101.00, 
2102.00, 
2103.00, 
2104.00, 
2105.00, 
2106.00, 
2107.00, 
2108.00, 
2109.00, 
2110.00, 
2111.00, 
2112.00, 
2113.00, 
2114.00, 
2115.00, 
2116.00, 
2117.00, 
2118.00, 
2119.00, 
2120.00, 
2121.00, 
2122.00, 
2123.00, 
2124.00, 
2125.00, 
2126.00, 
2127.00, 
2128.00, 
2129.00, 
2130.00, 
2131.00, 
2132.00, 
2133.00, 
2134.00, 
2135.00, 
2136.00, 
2137.00, 
2138.00, 
2139.00, 
2140.00, 
2141.00, 
2142.00, 
2143.00, 
2144.00, 
2145.00, 
2146.00, 
2147.00, 
2148.00, 
2149.00, 
2150.00, 
2151.00, 
2152.00, 
2153.00, 
2154.00, 
2155.00, 
2156.00, 
2157.00, 
2158.00, 
2159.00, 
2160.00, 
2161.00, 
2162.00, 
2163.00, 
2164.00, 
2165.00, 
2166.00, 
2167.00, 
2168.00, 
2169.00, 
2170.00, 
2171.00, 
2172.00, 
2173.00, 
2174.00, 
2175.00, 
2176.00, 
2177.00, 
2178.00, 
2179.00, 
2180.00, 
2181.00, 
2182.00, 
2183.00, 
2184.00, 
2185.00, 
2186.00, 
2187.00, 
2188.00, 
2189.00, 
2190.00, 
2191.00, 
2192.00, 
2193.00, 
2194.00, 
2195.00, 
2196.00, 
2197.00, 
2198.00, 
2199.00, 
2200.00, 
2201.00, 
2202.00, 
2203.00, 
2204.00, 
2205.00, 
2206.00, 
2207.00, 
2208.00, 
2209.00, 
2210.00, 
2211.00, 
2212.00, 
2213.00, 
2214.00, 
2215.00, 
2216.00, 
2217.00, 
2218.00, 
2219.00, 
2220.00, 
2221.00, 
2222.00, 
2223.00, 
2224.00, 
2225.00, 
2226.00, 
2227.00, 
2228.00, 
2229.00, 
2230.00, 
2231.00, 
2232.00, 
2233.00, 
2234.00, 
2235.00, 
2236.00, 
2237.00, 
2238.00, 
2239.00, 
2240.00, 
2241.00, 
2242.00, 
2243.00, 
2244.00, 
2245.00, 
2246.00, 
2247.00, 
2248.00, 
2249.00, 
2250.00, 
2251.00, 
2252.00, 
2253.00, 
2254.00, 
2255.00, 
2256.00, 
2257.00, 
2258.00, 
2259.00, 
2260.00, 
2261.00, 
2262.00, 
2263.00, 
2264.00, 
2265.00, 
2266.00, 
2267.00, 
2268.00, 
2269.00, 
2270.00, 
2271.00, 
2272.00, 
2273.00, 
2274.00, 
2275.00, 
2276.00, 
2277.00, 
2278.00, 
2279.00, 
2280.00, 
2281.00, 
2282.00, 
2283.00, 
2284.00, 
2285.00, 
2286.00, 
2287.00, 
2288.00, 
2289.00, 
2290.00, 
2291.00, 
2292.00, 
2293.00, 
2294.00, 
2295.00, 
2296.00, 
2297.00, 
2298.00, 
2299.00, 
2300.00, 
2301.00, 
2302.00, 
2303.00, 
2304.00, 
2305.00, 
2306.00, 
2307.00, 
2308.00, 
2309.00, 
2310.00, 
2311.00, 
2312.00, 
2313.00, 
2314.00, 
2315.00, 
2316.00, 
2317.00, 
2318.00, 
2319.00, 
2320.00, 
2321.00, 
2322.00, 
2323.00, 
2324.00, 
2325.00, 
2326.00, 
2327.00, 
2328.00, 
2329.00, 
2330.00, 
2331.00, 
2332.00, 
2333.00, 
2334.00, 
2335.00, 
2336.00, 
2337.00, 
2338.00, 
2339.00, 
2340.00, 
2341.00, 
2342.00, 
2343.00, 
2344.00, 
2345.00, 
2346.00, 
2347.00, 
2348.00, 
2349.00, 
2350.00, 
2351.00, 
2352.00, 
2353.00, 
2354.00, 
2355.00, 
2356.00, 
2357.00, 
2358.00, 
2359.00, 
2360.00, 
2361.00, 
2362.00, 
2363.00, 
2364.00, 
2365.00, 
2366.00, 
2367.00, 
2368.00, 
2369.00, 
2370.00, 
2371.00, 
2372.00, 
2373.00, 
2374.00, 
2375.00, 
2376.00, 
2377.00, 
2378.00, 
2379.00, 
2380.00, 
2381.00, 
2382.00, 
2383.00, 
2384.00, 
2385.00, 
2386.00, 
2387.00, 
2388.00, 
2389.00, 
2390.00, 
2391.00, 
2392.00, 
2393.00, 
2394.00, 
2395.00, 
2396.00, 
2397.00, 
2398.00, 
2399.00, 
2400.00, 
2401.00, 
2402.00, 
2403.00, 
2404.00, 
2405.00, 
2406.00, 
2407.00, 
2408.00, 
2409.00, 
2410.00, 
2411.00, 
2412.00, 
2413.00, 
2414.00, 
2415.00, 
2416.00, 
2417.00, 
2418.00, 
2419.00, 
2420.00, 
2421.00, 
2422.00, 
2423.00, 
2424.00, 
2425.00, 
2426.00, 
2427.00, 
2428.00, 
2429.00, 
2430.00, 
2431.00, 
2432.00, 
2433.00, 
2434.00, 
2435.00, 
2436.00, 
2437.00, 
2438.00, 
2439.00, 
2440.00, 
2441.00, 
2442.00, 
2443.00, 
2444.00, 
2445.00, 
2446.00, 
2447.00, 
2448.00, 
2449.00, 
2450.00, 
2451.00, 
2452.00, 
2453.00, 
2454.00, 
2455.00, 
2456.00, 
2457.00, 
2458.00, 
2459.00, 
2460.00, 
2461.00, 
2462.00, 
2463.00, 
2464.00, 
2465.00, 
2466.00, 
2467.00, 
2468.00, 
2469.00, 
2470.00, 
2471.00, 
2472.00, 
2473.00, 
2474.00, 
2475.00, 
2476.00, 
2477.00, 
2478.00, 
2479.00, 
2480.00, 
2481.00, 
2482.00, 
2483.00, 
2484.00, 
2485.00, 
2486.00, 
2487.00, 
2488.00, 
2489.00, 
2490.00, 
2491.00, 
2492.00, 
2493.00, 
2494.00, 
2495.00, 
2496.00, 
2497.00, 
2498.00, 
2499.00, 
2500.00, 
2501.00, 
2502.00, 
2503.00, 
2504.00, 
2505.00, 
2506.00, 
2507.00, 
2508.00, 
2509.00, 
2510.00, 
2511.00, 
2512.00, 
2513.00, 
2514.00, 
2515.00, 
2516.00, 
2517.00, 
2518.00, 
2519.00, 
2520.00, 
2521.00, 
2522.00, 
2523.00, 
2524.00, 
2525.00, 
2526.00, 
2527.00, 
2528.00, 
2529.00, 
2530.00, 
2531.00, 
2532.00, 
2533.00, 
2534.00, 
2535.00, 
2536.00, 
2537.00, 
2538.00, 
2539.00, 
2540.00, 
2541.00, 
2542.00, 
2543.00, 
2544.00, 
2545.00, 
2546.00, 
2547.00, 
2548.00, 
2549.00, 
2550.00, 
2551.00, 
2552.00, 
2553.00, 
2554.00, 
2555.00, 
2556.00, 
2557.00, 
2558.00, 
2559.00, 
2560.00, 
2561.00, 
2562.00, 
2563.00, 
2564.00, 
2565.00, 
2566.00, 
2567.00, 
2568.00, 
2569.00, 
2570.00, 
2571.00, 
2572.00, 
2573.00, 
2574.00, 
2575.00, 
2576.00, 
2577.00, 
2578.00, 
2579.00, 
2580.00, 
2581.00, 
2582.00, 
2583.00, 
2584.00, 
2585.00, 
2586.00, 
2587.00, 
2588.00, 
2589.00, 
2590.00, 
2591.00, 
2592.00, 
2593.00, 
2594.00, 
2595.00, 
2596.00, 
2597.00, 
2598.00, 
2599.00, 
2600.00, 
