"1cP1 - RawData"
"Wavelength nm.","T%"
200.00,0.005
201.00,0.009
202.00,0.006
203.00,0.002
204.00,-0.000
205.00,0.005
206.00,0.004
207.00,0.001
208.00,0.004
209.00,-0.003
210.00,0.001
211.00,0.001
212.00,0.002
213.00,0.005
214.00,0.001
215.00,-0.003
216.00,0.001
217.00,-0.002
218.00,-0.000
219.00,-0.000
220.00,0.002
221.00,0.003
222.00,0.000
223.00,0.001
224.00,-0.001
225.00,0.002
226.00,0.002
227.00,0.001
228.00,0.002
229.00,0.002
230.00,-0.000
231.00,-0.001
232.00,0.003
233.00,0.002
234.00,0.000
235.00,0.003
236.00,0.002
237.00,-0.000
238.00,-0.000
239.00,-0.000
240.00,0.002
241.00,-0.001
242.00,0.003
243.00,0.002
244.00,-0.001
245.00,-0.001
246.00,-0.000
247.00,0.001
248.00,0.001
249.00,0.001
250.00,-0.002
251.00,0.000
252.00,-0.001
253.00,0.002
254.00,-0.000
255.00,0.001
256.00,0.002
257.00,-0.001
258.00,0.001
259.00,0.002
260.00,0.001
261.00,0.000
262.00,0.003
263.00,-0.000
264.00,0.001
265.00,-0.000
266.00,0.001
267.00,-0.001
268.00,-0.001
269.00,0.001
270.00,0.002
271.00,0.000
272.00,0.002
273.00,0.001
274.00,0.002
275.00,0.003
276.00,0.000
277.00,-0.000
278.00,0.001
279.00,-0.002
280.00,0.000
281.00,0.003
282.00,-0.001
283.00,0.001
284.00,-0.000
285.00,-0.002
286.00,0.001
287.00,0.001
288.00,0.002
289.00,-0.001
290.00,0.001
291.00,0.000
292.00,0.001
293.00,0.002
294.00,-0.000
295.00,-0.001
296.00,0.000
297.00,-0.001
298.00,0.002
299.00,-0.001
300.00,-0.001
301.00,0.003
302.00,0.001
303.00,-0.001
304.00,0.001
305.00,0.002
306.00,0.003
307.00,0.005
308.00,0.007
309.00,0.017
310.00,0.023
311.00,0.041
312.00,0.056
313.00,0.082
314.00,0.129
315.00,0.172
316.00,0.275
317.00,0.390
318.00,0.532
319.00,0.723
320.00,0.966
321.00,1.225
322.00,1.582
323.00,2.029
324.00,2.540
325.00,3.025
326.00,3.623
327.00,4.284
328.00,5.065
329.00,5.874
330.00,6.725
331.00,7.558
332.00,8.504
333.00,9.538
334.00,10.496
335.00,11.546
336.00,12.529
337.00,13.652
338.00,14.744
339.00,15.772
340.00,16.757
341.00,17.784
342.00,18.862
343.00,19.834
344.00,20.767
345.00,21.640
346.00,22.479
347.00,23.299
348.00,24.118
349.00,24.898
350.00,25.549
351.00,26.222
352.00,26.929
353.00,27.540
354.00,28.081
355.00,28.620
356.00,29.123
357.00,29.672
358.00,30.079
359.00,30.477
360.00,30.971
361.00,31.235
362.00,31.613
363.00,31.935
364.00,32.212
365.00,32.441
366.00,32.548
367.00,32.747
368.00,32.894
369.00,33.105
370.00,33.117
371.00,33.323
372.00,33.338
373.00,33.403
374.00,33.447
375.00,33.330
376.00,33.385
377.00,33.400
378.00,33.155
379.00,33.079
380.00,33.109
381.00,33.147
382.00,33.152
383.00,33.191
384.00,33.417
385.00,33.584
386.00,33.725
387.00,33.882
388.00,34.016
389.00,34.133
390.00,34.241
391.00,34.368
392.00,34.483
393.00,34.504
394.00,34.713
395.00,34.618
396.00,34.741
397.00,34.783
398.00,34.824
399.00,34.934
400.00,34.996
401.00,35.074
402.00,35.194
403.00,35.254
404.00,35.104
405.00,35.120
406.00,35.178
407.00,35.119
408.00,35.112
409.00,35.035
410.00,34.984
411.00,34.877
412.00,34.805
413.00,34.822
414.00,34.908
415.00,34.921
416.00,34.991
417.00,34.960
418.00,35.076
419.00,35.151
420.00,35.265
421.00,35.014
422.00,35.027
423.00,35.087
424.00,35.137
425.00,35.132
426.00,35.230
427.00,35.220
428.00,35.370
429.00,35.287
430.00,35.309
431.00,35.300
432.00,35.391
433.00,35.432
434.00,35.486
435.00,35.499
436.00,35.526
437.00,35.612
438.00,35.680
439.00,35.728
440.00,35.829
441.00,35.848
442.00,35.954
443.00,35.971
444.00,36.148
445.00,36.145
446.00,36.160
447.00,36.301
448.00,36.327
449.00,36.523
450.00,36.526
451.00,36.631
452.00,36.726
453.00,36.697
454.00,36.904
455.00,36.923
456.00,37.102
457.00,37.163
458.00,37.229
459.00,37.295
460.00,37.462
461.00,37.506
462.00,37.634
463.00,37.771
464.00,37.825
465.00,37.955
466.00,38.030
467.00,38.143
468.00,38.167
469.00,38.201
470.00,38.277
471.00,38.342
472.00,38.429
473.00,38.450
474.00,38.460
475.00,38.526
476.00,38.564
477.00,38.717
478.00,38.783
479.00,38.842
480.00,38.967
481.00,39.082
482.00,39.183
483.00,39.290
484.00,39.470
485.00,39.638
486.00,39.720
487.00,39.889
488.00,40.049
489.00,40.087
490.00,40.351
491.00,40.469
492.00,40.238
493.00,40.391
494.00,40.395
495.00,40.560
496.00,40.694
497.00,40.742
498.00,40.778
499.00,41.026
500.00,41.071
501.00,41.113
502.00,41.193
503.00,41.246
504.00,41.307
505.00,41.536
506.00,41.388
507.00,41.541
508.00,41.675
509.00,41.739
510.00,41.782
511.00,41.914
512.00,42.006
513.00,42.033
514.00,42.131
515.00,42.257
516.00,42.248
517.00,42.391
518.00,42.402
519.00,42.353
520.00,42.440
521.00,42.533
522.00,42.534
523.00,42.594
524.00,42.768
525.00,42.912
526.00,42.963
527.00,43.080
528.00,43.166
529.00,43.363
530.00,43.482
531.00,43.442
532.00,43.491
533.00,43.511
534.00,43.510
535.00,43.595
536.00,43.725
537.00,43.687
538.00,43.785
539.00,43.831
540.00,43.872
541.00,43.877
542.00,43.920
543.00,43.941
544.00,44.035
545.00,44.014
546.00,44.158
547.00,44.161
548.00,44.174
549.00,44.346
550.00,44.455
551.00,44.472
552.00,44.405
553.00,44.536
554.00,44.581
555.00,44.640
556.00,44.676
557.00,44.673
558.00,44.708
559.00,44.829
560.00,44.983
561.00,44.953
562.00,44.778
563.00,45.047
564.00,45.010
565.00,44.950
566.00,45.050
567.00,45.011
568.00,45.064
569.00,45.091
570.00,45.080
571.00,45.135
572.00,45.088
573.00,45.176
574.00,45.006
575.00,44.992
576.00,45.135
577.00,45.120
578.00,45.212
579.00,45.293
580.00,45.319
581.00,45.462
582.00,45.552
583.00,45.681
584.00,45.630
585.00,45.570
586.00,45.725
587.00,45.744
588.00,45.654
589.00,45.649
590.00,45.661
591.00,45.642
592.00,45.682
593.00,45.790
594.00,45.810
595.00,45.857
596.00,45.998
597.00,46.179
598.00,46.144
599.00,46.005
600.00,46.226
601.00,46.422
602.00,46.037
603.00,46.063
604.00,46.063
605.00,46.103
606.00,46.171
607.00,46.293
608.00,46.267
609.00,46.311
610.00,46.435
611.00,46.191
612.00,46.205
613.00,46.310
614.00,46.387
615.00,46.367
616.00,46.430
617.00,46.376
618.00,46.094
619.00,46.165
620.00,46.556
621.00,46.632
622.00,46.547
623.00,46.612
624.00,46.640
625.00,46.702
626.00,46.756
627.00,46.721
628.00,46.659
629.00,46.625
630.00,46.755
631.00,46.720
632.00,46.869
633.00,46.977
634.00,46.876
635.00,46.925
636.00,46.920
637.00,46.888
638.00,46.874
639.00,46.943
640.00,46.964
641.00,47.075
642.00,47.113
643.00,47.148
644.00,47.141
645.00,47.192
646.00,47.337
647.00,47.445
648.00,47.253
649.00,47.352
650.00,47.278
651.00,47.354
652.00,47.516
653.00,47.389
654.00,47.434
655.00,47.638
656.00,47.982
657.00,47.820
658.00,47.932
659.00,47.741
660.00,47.829
661.00,47.500
662.00,48.079
663.00,47.898
664.00,48.110
665.00,47.944
666.00,47.759
667.00,48.054
668.00,48.368
669.00,47.847
670.00,47.922
671.00,48.210
672.00,48.313
673.00,48.121
674.00,48.199
675.00,48.326
676.00,48.256
677.00,48.415
678.00,48.288
679.00,48.543
680.00,48.771
681.00,48.266
682.00,48.553
683.00,48.325
684.00,48.304
685.00,48.382
686.00,48.221
687.00,48.265
688.00,48.421
689.00,48.669
690.00,48.454
691.00,48.681
692.00,48.949
693.00,48.472
694.00,48.536
695.00,48.472
696.00,48.399
697.00,48.586
698.00,48.785
699.00,48.665
700.00,48.609
701.00,48.719
702.00,48.899
703.00,48.988
704.00,48.958
705.00,49.121
706.00,49.485
707.00,48.980
708.00,48.814
709.00,48.939
710.00,48.862
711.00,48.813
712.00,49.028
713.00,49.214
714.00,49.028
715.00,49.060
716.00,49.060
717.00,49.012
718.00,49.131
719.00,48.960
720.00,49.151
721.00,54.011
722.00,53.946
723.00,54.111
724.00,53.855
725.00,53.969
726.00,53.777
727.00,53.936
728.00,53.819
729.00,53.848
730.00,53.840
731.00,53.797
732.00,53.751
733.00,53.742
734.00,53.705
735.00,53.687
736.00,53.624
737.00,53.733
738.00,53.820
739.00,53.782
740.00,53.660
741.00,53.585
742.00,53.565
743.00,53.630
744.00,53.394
745.00,53.474
746.00,53.512
747.00,53.287
748.00,53.372
749.00,53.122
750.00,53.336
751.00,53.255
752.00,53.175
753.00,53.130
754.00,53.072
755.00,53.096
756.00,53.208
757.00,53.022
758.00,52.888
759.00,53.104
760.00,53.012
761.00,53.071
762.00,52.808
763.00,52.901
764.00,52.988
765.00,52.834
766.00,53.003
767.00,52.872
768.00,52.815
769.00,52.673
770.00,52.820
771.00,52.827
772.00,52.698
773.00,52.833
774.00,52.685
775.00,52.683
776.00,52.564
777.00,52.774
778.00,52.632
779.00,52.577
780.00,52.554
781.00,52.413
782.00,52.580
783.00,52.576
784.00,52.468
785.00,52.378
786.00,52.435
787.00,52.418
788.00,52.296
789.00,52.441
790.00,52.320
791.00,52.336
792.00,52.267
793.00,52.107
794.00,52.113
795.00,52.142
796.00,52.197
797.00,52.018
798.00,52.031
799.00,52.044
800.00,51.909
801.00,51.880
802.00,51.761
803.00,51.744
804.00,51.848
805.00,51.784
806.00,51.743
807.00,51.519
808.00,51.805
809.00,51.538
810.00,51.603
811.00,51.564
812.00,51.437
813.00,51.588
814.00,51.447
815.00,51.491
816.00,51.442
817.00,51.533
818.00,51.507
819.00,51.488
820.00,51.313
821.00,51.340
822.00,51.355
823.00,51.265
824.00,51.299
825.00,51.119
826.00,51.243
827.00,51.164
828.00,51.261
829.00,51.108
830.00,50.990
831.00,53.315
832.00,53.385
833.00,53.445
834.00,53.224
835.00,53.322
836.00,53.393
837.00,53.330
838.00,53.293
839.00,53.347
840.00,53.190
841.00,53.275
842.00,53.202
843.00,53.139
844.00,53.174
845.00,53.051
846.00,52.989
847.00,52.966
848.00,53.037
849.00,52.955
850.00,52.910
851.00,52.935
852.00,52.834
853.00,52.761
854.00,52.715
855.00,52.770
856.00,52.634
857.00,52.717
858.00,52.600
859.00,52.589
860.00,52.636
861.00,52.602
862.00,52.570
863.00,52.528
864.00,52.484
865.00,52.385
866.00,52.517
867.00,52.433
868.00,52.444
869.00,52.406
870.00,52.444
871.00,52.399
872.00,52.387
873.00,52.396
874.00,52.416
875.00,52.338
876.00,52.359
877.00,52.336
878.00,52.309
879.00,52.150
880.00,52.206
881.00,52.187
882.00,52.199
883.00,52.191
884.00,52.083
885.00,52.131
886.00,52.146
887.00,52.090
888.00,52.005
889.00,52.045
890.00,52.038
891.00,51.993
892.00,51.968
893.00,51.992
894.00,51.940
895.00,51.884
896.00,51.868
897.00,51.881
898.00,51.812
899.00,51.840
900.00,51.802
901.00,51.810
902.00,51.832
903.00,51.766
904.00,51.741
905.00,51.696
906.00,51.729
907.00,51.637
908.00,51.624
909.00,51.618
910.00,51.621
911.00,51.597
912.00,51.553
913.00,51.547
914.00,51.541
915.00,51.478
916.00,51.443
917.00,51.458
918.00,51.460
919.00,51.433
920.00,51.362
921.00,51.385
922.00,51.354
923.00,51.344
924.00,51.271
925.00,51.327
926.00,51.320
927.00,51.268
928.00,51.186
929.00,51.246
930.00,51.200
931.00,51.145
932.00,51.143
933.00,51.132
934.00,51.080
935.00,51.090
936.00,51.069
937.00,51.085
938.00,51.043
939.00,51.049
940.00,51.011
941.00,50.995
942.00,50.969
943.00,50.887
944.00,50.900
945.00,50.860
946.00,50.908
947.00,50.840
948.00,50.810
949.00,50.880
950.00,50.826
951.00,50.748
952.00,50.742
953.00,50.714
954.00,50.716
955.00,50.673
956.00,50.641
957.00,50.637
958.00,50.625
959.00,50.596
960.00,50.531
961.00,50.558
962.00,50.551
963.00,50.507
964.00,50.498
965.00,50.527
966.00,50.482
967.00,50.485
968.00,50.463
969.00,50.485
970.00,50.466
971.00,50.437
972.00,50.442
973.00,50.425
974.00,50.459
975.00,50.433
976.00,50.433
977.00,50.445
978.00,50.447
979.00,50.456
980.00,50.403
981.00,50.446
982.00,50.397
983.00,50.414
984.00,50.395
985.00,50.404
986.00,50.344
987.00,50.385
988.00,50.393
989.00,50.336
990.00,50.362
991.00,50.338
992.00,50.334
993.00,50.293
994.00,50.288
995.00,50.300
996.00,50.246
997.00,50.258
998.00,50.254
999.00,50.237
1000.00,50.205
1001.00,50.207
1002.00,50.223
1003.00,50.170
1004.00,50.177
1005.00,50.148
1006.00,50.143
1007.00,50.141
1008.00,50.113
1009.00,50.119
1010.00,50.084
1011.00,50.112
1012.00,50.074
1013.00,50.047
1014.00,50.033
1015.00,50.023
1016.00,50.025
1017.00,49.971
1018.00,49.976
1019.00,49.955
1020.00,49.967
1021.00,49.942
1022.00,49.896
1023.00,49.926
1024.00,49.900
1025.00,49.873
1026.00,49.864
1027.00,49.841
1028.00,49.807
1029.00,49.824
1030.00,49.767
1031.00,49.789
1032.00,49.793
1033.00,49.754
1034.00,49.727
1035.00,49.702
1036.00,49.704
1037.00,49.663
1038.00,49.621
1039.00,49.609
1040.00,49.592
1041.00,49.561
1042.00,49.579
1043.00,49.543
1044.00,49.554
1045.00,49.571
1046.00,49.561
1047.00,49.598
1048.00,49.583
1049.00,49.595
1050.00,49.590
1051.00,49.638
1052.00,49.627
1053.00,49.629
1054.00,49.641
1055.00,49.634
1056.00,49.650
1057.00,49.663
1058.00,49.645
1059.00,49.630
1060.00,49.653
1061.00,49.655
1062.00,49.647
1063.00,49.610
1064.00,49.634
1065.00,49.605
1066.00,49.596
1067.00,49.588
1068.00,49.609
1069.00,49.561
1070.00,49.561
1071.00,49.552
1072.00,49.539
1073.00,49.529
1074.00,49.518
1075.00,49.531
1076.00,49.507
1077.00,49.503
1078.00,49.502
1079.00,49.491
1080.00,49.496
1081.00,49.467
1082.00,49.451
1083.00,49.460
1084.00,49.468
1085.00,49.450
1086.00,49.444
1087.00,49.450
1088.00,49.400
1089.00,49.435
1090.00,49.437
1091.00,49.428
1092.00,49.409
1093.00,49.405
1094.00,49.390
1095.00,49.394
1096.00,49.352
1097.00,49.350
1098.00,49.364
1099.00,49.332
1100.00,49.321
1101.00,49.324
1102.00,49.302
1103.00,49.289
1104.00,49.282
1105.00,49.283
1106.00,49.271
1107.00,49.257
1108.00,49.262
1109.00,49.257
1110.00,49.251
1111.00,49.248
1112.00,49.221
1113.00,49.232
1114.00,49.213
1115.00,49.231
1116.00,49.202
1117.00,49.208
1118.00,49.193
1119.00,49.185
1120.00,49.199
1121.00,49.172
1122.00,49.183
1123.00,49.142
1124.00,49.143
1125.00,49.128
1126.00,49.126
1127.00,49.114
1128.00,49.122
1129.00,49.085
1130.00,49.107
1131.00,49.098
1132.00,49.100
1133.00,49.095
1134.00,49.049
1135.00,49.053
1136.00,49.057
1137.00,49.054
1138.00,49.060
1139.00,49.074
1140.00,49.049
1141.00,49.064
1142.00,49.065
1143.00,49.063
1144.00,49.025
1145.00,49.066
1146.00,49.059
1147.00,49.020
1148.00,49.018
1149.00,49.020
1150.00,49.047
1151.00,49.010
1152.00,48.990
1153.00,49.023
1154.00,48.999
1155.00,49.029
1156.00,49.026
1157.00,49.027
1158.00,49.012
1159.00,49.002
1160.00,49.017
1161.00,49.028
1162.00,49.027
1163.00,49.007
1164.00,49.020
1165.00,49.003
1166.00,49.001
1167.00,48.987
1168.00,48.998
1169.00,48.993
1170.00,49.007
1171.00,48.988
1172.00,48.995
1173.00,49.001
1174.00,48.996
1175.00,49.012
1176.00,48.994
1177.00,49.004
1178.00,48.984
1179.00,49.008
1180.00,48.987
1181.00,49.004
1182.00,48.984
1183.00,49.013
1184.00,48.978
1185.00,48.977
1186.00,48.978
1187.00,48.955
1188.00,48.990
1189.00,48.959
1190.00,48.965
1191.00,48.930
1192.00,48.974
1193.00,48.990
1194.00,48.982
1195.00,48.962
1196.00,48.956
1197.00,49.002
1198.00,48.965
1199.00,49.008
1200.00,49.008
1201.00,49.006
1202.00,48.995
1203.00,48.998
1204.00,48.998
1205.00,48.997
1206.00,48.977
1207.00,48.985
1208.00,48.992
1209.00,48.974
1210.00,48.999
1211.00,48.975
1212.00,48.977
1213.00,48.968
1214.00,48.996
1215.00,48.975
1216.00,48.957
1217.00,48.989
1218.00,48.999
1219.00,48.989
1220.00,48.973
1221.00,49.038
1222.00,49.003
1223.00,49.015
1224.00,49.047
1225.00,48.990
1226.00,49.033
1227.00,49.011
1228.00,49.018
1229.00,49.018
1230.00,49.071
1231.00,49.049
1232.00,49.055
1233.00,49.070
1234.00,49.052
1235.00,49.081
1236.00,49.051
1237.00,49.079
1238.00,49.066
1239.00,49.065
1240.00,49.043
1241.00,49.076
1242.00,49.086
1243.00,49.061
1244.00,49.073
1245.00,49.085
1246.00,49.094
1247.00,49.086
1248.00,49.112
1249.00,49.107
1250.00,49.123
1251.00,49.112
1252.00,49.114
1253.00,49.091
1254.00,49.136
1255.00,49.117
1256.00,49.107
1257.00,49.077
1258.00,49.128
1259.00,49.132
1260.00,49.134
1261.00,49.138
1262.00,49.147
1263.00,49.160
1264.00,49.155
1265.00,49.198
1266.00,49.162
1267.00,49.179
1268.00,49.195
1269.00,49.212
1270.00,49.233
1271.00,49.231
1272.00,49.213
1273.00,49.255
1274.00,49.219
1275.00,49.236
1276.00,49.251
1277.00,49.255
1278.00,49.240
1279.00,49.261
1280.00,49.250
1281.00,49.258
1282.00,49.255
1283.00,49.246
1284.00,49.281
1285.00,49.276
1286.00,49.258
1287.00,49.288
1288.00,49.284
1289.00,49.275
1290.00,49.307
1291.00,49.306
1292.00,49.290
1293.00,49.316
1294.00,49.338
1295.00,49.322
1296.00,49.324
1297.00,49.319
1298.00,49.368
1299.00,49.356
1300.00,49.359
1301.00,49.384
1302.00,49.413
1303.00,49.386
1304.00,49.421
1305.00,49.393
1306.00,49.402
1307.00,49.423
1308.00,49.409
1309.00,49.415
1310.00,49.408
1311.00,49.402
1312.00,49.411
1313.00,49.422
1314.00,49.428
1315.00,49.443
1316.00,49.454
1317.00,49.476
1318.00,49.520
1319.00,49.533
1320.00,49.495
1321.00,49.693
1322.00,49.663
1323.00,49.660
1324.00,49.656
1325.00,49.682
1326.00,49.672
1327.00,49.659
1328.00,49.643
1329.00,49.664
1330.00,49.648
1331.00,49.658
1332.00,49.663
1333.00,49.661
1334.00,49.698
1335.00,49.705
1336.00,49.730
1337.00,49.775
1338.00,49.873
1339.00,49.889
1340.00,49.936
1341.00,50.006
1342.00,50.070
1343.00,50.140
1344.00,50.162
1345.00,50.297
1346.00,50.330
1347.00,50.274
1348.00,50.313
1349.00,50.309
1350.00,50.378
1351.00,50.349
1352.00,50.326
1353.00,50.397
1354.00,50.405
1355.00,50.378
1356.00,50.321
1357.00,50.401
1358.00,50.452
1359.00,50.454
1360.00,50.724
1361.00,50.568
1362.00,50.484
1363.00,50.418
1364.00,50.298
1365.00,50.442
1366.00,50.643
1367.00,50.496
1368.00,50.567
1369.00,50.859
1370.00,50.367
1371.00,50.462
1372.00,50.417
1373.00,50.416
1374.00,50.443
1375.00,50.552
1376.00,50.437
1377.00,50.311
1378.00,50.673
1379.00,50.026
1380.00,50.798
1381.00,49.948
1382.00,50.430
1383.00,50.452
1384.00,50.441
1385.00,50.499
1386.00,50.508
1387.00,50.399
1388.00,50.423
1389.00,50.396
1390.00,50.519
1391.00,50.059
1392.00,50.369
1393.00,50.559
1394.00,50.580
1395.00,50.224
1396.00,50.409
1397.00,50.518
1398.00,50.583
1399.00,50.427
1400.00,50.382
1401.00,50.527
1402.00,50.689
1403.00,50.562
1404.00,50.543
1405.00,50.405
1406.00,50.468
1407.00,50.528
1408.00,50.397
1409.00,50.510
1410.00,50.573
1411.00,50.442
1412.00,50.660
1413.00,50.539
1414.00,50.505
1415.00,50.460
1416.00,50.547
1417.00,50.657
1418.00,50.555
1419.00,50.580
1420.00,50.600
1421.00,50.651
1422.00,50.594
1423.00,50.678
1424.00,50.623
1425.00,50.668
1426.00,50.663
1427.00,50.676
1428.00,50.698
1429.00,50.731
1430.00,50.755
1431.00,50.724
1432.00,50.802
1433.00,50.727
1434.00,50.856
1435.00,50.843
1436.00,50.935
1437.00,50.839
1438.00,50.853
1439.00,50.912
1440.00,50.902
1441.00,50.951
1442.00,50.971
1443.00,50.940
1444.00,51.075
1445.00,50.982
1446.00,51.028
1447.00,51.043
1448.00,51.117
1449.00,51.096
1450.00,51.117
1451.00,51.132
1452.00,51.143
1453.00,51.175
1454.00,51.135
1455.00,51.199
1456.00,51.182
1457.00,51.200
1458.00,51.207
1459.00,51.219
1460.00,51.246
1461.00,51.272
1462.00,51.248
1463.00,51.293
1464.00,51.324
1465.00,51.333
1466.00,51.357
1467.00,51.327
1468.00,51.378
1469.00,51.369
1470.00,51.411
1471.00,51.381
1472.00,51.416
1473.00,51.430
1474.00,51.474
1475.00,51.470
1476.00,51.475
1477.00,51.500
1478.00,51.539
1479.00,51.520
1480.00,51.554
1481.00,51.561
1482.00,51.583
1483.00,51.598
1484.00,51.606
1485.00,51.613
1486.00,51.623
1487.00,51.667
1488.00,51.665
1489.00,51.682
1490.00,51.686
1491.00,51.692
1492.00,51.720
1493.00,51.735
1494.00,51.759
1495.00,51.744
1496.00,51.765
1497.00,51.776
1498.00,51.774
1499.00,51.783
1500.00,51.802
1501.00, 
1502.00, 
1503.00, 
1504.00, 
1505.00, 
1506.00, 
1507.00, 
1508.00, 
1509.00, 
1510.00, 
1511.00, 
1512.00, 
1513.00, 
1514.00, 
1515.00, 
1516.00, 
1517.00, 
1518.00, 
1519.00, 
1520.00, 
1521.00, 
1522.00, 
1523.00, 
1524.00, 
1525.00, 
1526.00, 
1527.00, 
1528.00, 
1529.00, 
1530.00, 
1531.00, 
1532.00, 
1533.00, 
1534.00, 
1535.00, 
1536.00, 
1537.00, 
1538.00, 
1539.00, 
1540.00, 
1541.00, 
1542.00, 
1543.00, 
1544.00, 
1545.00, 
1546.00, 
1547.00, 
1548.00, 
1549.00, 
1550.00, 
1551.00, 
1552.00, 
1553.00, 
1554.00, 
1555.00, 
1556.00, 
1557.00, 
1558.00, 
1559.00, 
1560.00, 
1561.00, 
1562.00, 
1563.00, 
1564.00, 
1565.00, 
1566.00, 
1567.00, 
1568.00, 
1569.00, 
1570.00, 
1571.00, 
1572.00, 
1573.00, 
1574.00, 
1575.00, 
1576.00, 
1577.00, 
1578.00, 
1579.00, 
1580.00, 
1581.00, 
1582.00, 
1583.00, 
1584.00, 
1585.00, 
1586.00, 
1587.00, 
1588.00, 
1589.00, 
1590.00, 
1591.00, 
1592.00, 
1593.00, 
1594.00, 
1595.00, 
1596.00, 
1597.00, 
1598.00, 
1599.00, 
1600.00, 
1601.00, 
1602.00, 
1603.00, 
1604.00, 
1605.00, 
1606.00, 
1607.00, 
1608.00, 
1609.00, 
1610.00, 
1611.00, 
1612.00, 
1613.00, 
1614.00, 
1615.00, 
1616.00, 
1617.00, 
1618.00, 
1619.00, 
1620.00, 
1621.00, 
1622.00, 
1623.00, 
1624.00, 
1625.00, 
1626.00, 
1627.00, 
1628.00, 
1629.00, 
1630.00, 
1631.00, 
1632.00, 
1633.00, 
1634.00, 
1635.00, 
1636.00, 
1637.00, 
1638.00, 
1639.00, 
1640.00, 
1641.00, 
1642.00, 
1643.00, 
1644.00, 
1645.00, 
1646.00, 
1647.00, 
1648.00, 
1649.00, 
1650.00, 
1651.00, 
1652.00, 
1653.00, 
1654.00, 
1655.00, 
1656.00, 
1657.00, 
1658.00, 
1659.00, 
1660.00, 
1661.00, 
1662.00, 
1663.00, 
1664.00, 
1665.00, 
1666.00, 
1667.00, 
1668.00, 
1669.00, 
1670.00, 
1671.00, 
1672.00, 
1673.00, 
1674.00, 
1675.00, 
1676.00, 
1677.00, 
1678.00, 
1679.00, 
1680.00, 
1681.00, 
1682.00, 
1683.00, 
1684.00, 
1685.00, 
1686.00, 
1687.00, 
1688.00, 
1689.00, 
1690.00, 
1691.00, 
1692.00, 
1693.00, 
1694.00, 
1695.00, 
1696.00, 
1697.00, 
1698.00, 
1699.00, 
1700.00, 
1701.00, 
1702.00, 
1703.00, 
1704.00, 
1705.00, 
1706.00, 
1707.00, 
1708.00, 
1709.00, 
1710.00, 
1711.00, 
1712.00, 
1713.00, 
1714.00, 
1715.00, 
1716.00, 
1717.00, 
1718.00, 
1719.00, 
1720.00, 
1721.00, 
1722.00, 
1723.00, 
1724.00, 
1725.00, 
1726.00, 
1727.00, 
1728.00, 
1729.00, 
1730.00, 
1731.00, 
1732.00, 
1733.00, 
1734.00, 
1735.00, 
1736.00, 
1737.00, 
1738.00, 
1739.00, 
1740.00, 
1741.00, 
1742.00, 
1743.00, 
1744.00, 
1745.00, 
1746.00, 
1747.00, 
1748.00, 
1749.00, 
1750.00, 
1751.00, 
1752.00, 
1753.00, 
1754.00, 
1755.00, 
1756.00, 
1757.00, 
1758.00, 
1759.00, 
1760.00, 
1761.00, 
1762.00, 
1763.00, 
1764.00, 
1765.00, 
1766.00, 
1767.00, 
1768.00, 
1769.00, 
1770.00, 
1771.00, 
1772.00, 
1773.00, 
1774.00, 
1775.00, 
1776.00, 
1777.00, 
1778.00, 
1779.00, 
1780.00, 
1781.00, 
1782.00, 
1783.00, 
1784.00, 
1785.00, 
1786.00, 
1787.00, 
1788.00, 
1789.00, 
1790.00, 
1791.00, 
1792.00, 
1793.00, 
1794.00, 
1795.00, 
1796.00, 
1797.00, 
1798.00, 
1799.00, 
1800.00, 
1801.00, 
1802.00, 
1803.00, 
1804.00, 
1805.00, 
1806.00, 
1807.00, 
1808.00, 
1809.00, 
1810.00, 
1811.00, 
1812.00, 
1813.00, 
1814.00, 
1815.00, 
1816.00, 
1817.00, 
1818.00, 
1819.00, 
1820.00, 
1821.00, 
1822.00, 
1823.00, 
1824.00, 
1825.00, 
1826.00, 
1827.00, 
1828.00, 
1829.00, 
1830.00, 
1831.00, 
1832.00, 
1833.00, 
1834.00, 
1835.00, 
1836.00, 
1837.00, 
1838.00, 
1839.00, 
1840.00, 
1841.00, 
1842.00, 
1843.00, 
1844.00, 
1845.00, 
1846.00, 
1847.00, 
1848.00, 
1849.00, 
1850.00, 
1851.00, 
1852.00, 
1853.00, 
1854.00, 
1855.00, 
1856.00, 
1857.00, 
1858.00, 
1859.00, 
1860.00, 
1861.00, 
1862.00, 
1863.00, 
1864.00, 
1865.00, 
1866.00, 
1867.00, 
1868.00, 
1869.00, 
1870.00, 
1871.00, 
1872.00, 
1873.00, 
1874.00, 
1875.00, 
1876.00, 
1877.00, 
1878.00, 
1879.00, 
1880.00, 
1881.00, 
1882.00, 
1883.00, 
1884.00, 
1885.00, 
1886.00, 
1887.00, 
1888.00, 
1889.00, 
1890.00, 
1891.00, 
1892.00, 
1893.00, 
1894.00, 
1895.00, 
1896.00, 
1897.00, 
1898.00, 
1899.00, 
1900.00, 
1901.00, 
1902.00, 
1903.00, 
1904.00, 
1905.00, 
1906.00, 
1907.00, 
1908.00, 
1909.00, 
1910.00, 
1911.00, 
1912.00, 
1913.00, 
1914.00, 
1915.00, 
1916.00, 
1917.00, 
1918.00, 
1919.00, 
1920.00, 
1921.00, 
1922.00, 
1923.00, 
1924.00, 
1925.00, 
1926.00, 
1927.00, 
1928.00, 
1929.00, 
1930.00, 
1931.00, 
1932.00, 
1933.00, 
1934.00, 
1935.00, 
1936.00, 
1937.00, 
1938.00, 
1939.00, 
1940.00, 
1941.00, 
1942.00, 
1943.00, 
1944.00, 
1945.00, 
1946.00, 
1947.00, 
1948.00, 
1949.00, 
1950.00, 
1951.00, 
1952.00, 
1953.00, 
1954.00, 
1955.00, 
1956.00, 
1957.00, 
1958.00, 
1959.00, 
1960.00, 
1961.00, 
1962.00, 
1963.00, 
1964.00, 
1965.00, 
1966.00, 
1967.00, 
1968.00, 
1969.00, 
1970.00, 
1971.00, 
1972.00, 
1973.00, 
1974.00, 
1975.00, 
1976.00, 
1977.00, 
1978.00, 
1979.00, 
1980.00, 
1981.00, 
1982.00, 
1983.00, 
1984.00, 
1985.00, 
1986.00, 
1987.00, 
1988.00, 
1989.00, 
1990.00, 
1991.00, 
1992.00, 
1993.00, 
1994.00, 
1995.00, 
1996.00, 
1997.00, 
1998.00, 
1999.00, 
2000.00, 
2001.00, 
2002.00, 
2003.00, 
2004.00, 
2005.00, 
2006.00, 
2007.00, 
2008.00, 
2009.00, 
2010.00, 
2011.00, 
2012.00, 
2013.00, 
2014.00, 
2015.00, 
2016.00, 
2017.00, 
2018.00, 
2019.00, 
2020.00, 
2021.00, 
2022.00, 
2023.00, 
2024.00, 
2025.00, 
2026.00, 
2027.00, 
2028.00, 
2029.00, 
2030.00, 
2031.00, 
2032.00, 
2033.00, 
2034.00, 
2035.00, 
2036.00, 
2037.00, 
2038.00, 
2039.00, 
2040.00, 
2041.00, 
2042.00, 
2043.00, 
2044.00, 
2045.00, 
2046.00, 
2047.00, 
2048.00, 
2049.00, 
2050.00, 
2051.00, 
2052.00, 
2053.00, 
2054.00, 
2055.00, 
2056.00, 
2057.00, 
2058.00, 
2059.00, 
2060.00, 
2061.00, 
2062.00, 
2063.00, 
2064.00, 
2065.00, 
2066.00, 
2067.00, 
2068.00, 
2069.00, 
2070.00, 
2071.00, 
2072.00, 
2073.00, 
2074.00, 
2075.00, 
2076.00, 
2077.00, 
2078.00, 
2079.00, 
2080.00, 
2081.00, 
2082.00, 
2083.00, 
2084.00, 
2085.00, 
2086.00, 
2087.00, 
2088.00, 
2089.00, 
2090.00, 
2091.00, 
2092.00, 
2093.00, 
2094.00, 
2095.00, 
2096.00, 
2097.00, 
2098.00, 
2099.00, 
2100.00, 
2101.00, 
2102.00, 
2103.00, 
2104.00, 
2105.00, 
2106.00, 
2107.00, 
2108.00, 
2109.00, 
2110.00, 
2111.00, 
2112.00, 
2113.00, 
2114.00, 
2115.00, 
2116.00, 
2117.00, 
2118.00, 
2119.00, 
2120.00, 
2121.00, 
2122.00, 
2123.00, 
2124.00, 
2125.00, 
2126.00, 
2127.00, 
2128.00, 
2129.00, 
2130.00, 
2131.00, 
2132.00, 
2133.00, 
2134.00, 
2135.00, 
2136.00, 
2137.00, 
2138.00, 
2139.00, 
2140.00, 
2141.00, 
2142.00, 
2143.00, 
2144.00, 
2145.00, 
2146.00, 
2147.00, 
2148.00, 
2149.00, 
2150.00, 
2151.00, 
2152.00, 
2153.00, 
2154.00, 
2155.00, 
2156.00, 
2157.00, 
2158.00, 
2159.00, 
2160.00, 
2161.00, 
2162.00, 
2163.00, 
2164.00, 
2165.00, 
2166.00, 
2167.00, 
2168.00, 
2169.00, 
2170.00, 
2171.00, 
2172.00, 
2173.00, 
2174.00, 
2175.00, 
2176.00, 
2177.00, 
2178.00, 
2179.00, 
2180.00, 
2181.00, 
2182.00, 
2183.00, 
2184.00, 
2185.00, 
2186.00, 
2187.00, 
2188.00, 
2189.00, 
2190.00, 
2191.00, 
2192.00, 
2193.00, 
2194.00, 
2195.00, 
2196.00, 
2197.00, 
2198.00, 
2199.00, 
2200.00, 
2201.00, 
2202.00, 
2203.00, 
2204.00, 
2205.00, 
2206.00, 
2207.00, 
2208.00, 
2209.00, 
2210.00, 
2211.00, 
2212.00, 
2213.00, 
2214.00, 
2215.00, 
2216.00, 
2217.00, 
2218.00, 
2219.00, 
2220.00, 
2221.00, 
2222.00, 
2223.00, 
2224.00, 
2225.00, 
2226.00, 
2227.00, 
2228.00, 
2229.00, 
2230.00, 
2231.00, 
2232.00, 
2233.00, 
2234.00, 
2235.00, 
2236.00, 
2237.00, 
2238.00, 
2239.00, 
2240.00, 
2241.00, 
2242.00, 
2243.00, 
2244.00, 
2245.00, 
2246.00, 
2247.00, 
2248.00, 
2249.00, 
2250.00, 
2251.00, 
2252.00, 
2253.00, 
2254.00, 
2255.00, 
2256.00, 
2257.00, 
2258.00, 
2259.00, 
2260.00, 
2261.00, 
2262.00, 
2263.00, 
2264.00, 
2265.00, 
2266.00, 
2267.00, 
2268.00, 
2269.00, 
2270.00, 
2271.00, 
2272.00, 
2273.00, 
2274.00, 
2275.00, 
2276.00, 
2277.00, 
2278.00, 
2279.00, 
2280.00, 
2281.00, 
2282.00, 
2283.00, 
2284.00, 
2285.00, 
2286.00, 
2287.00, 
2288.00, 
2289.00, 
2290.00, 
2291.00, 
2292.00, 
2293.00, 
2294.00, 
2295.00, 
2296.00, 
2297.00, 
2298.00, 
2299.00, 
2300.00, 
2301.00, 
2302.00, 
2303.00, 
2304.00, 
2305.00, 
2306.00, 
2307.00, 
2308.00, 
2309.00, 
2310.00, 
2311.00, 
2312.00, 
2313.00, 
2314.00, 
2315.00, 
2316.00, 
2317.00, 
2318.00, 
2319.00, 
2320.00, 
2321.00, 
2322.00, 
2323.00, 
2324.00, 
2325.00, 
2326.00, 
2327.00, 
2328.00, 
2329.00, 
2330.00, 
2331.00, 
2332.00, 
2333.00, 
2334.00, 
2335.00, 
2336.00, 
2337.00, 
2338.00, 
2339.00, 
2340.00, 
2341.00, 
2342.00, 
2343.00, 
2344.00, 
2345.00, 
2346.00, 
2347.00, 
2348.00, 
2349.00, 
2350.00, 
2351.00, 
2352.00, 
2353.00, 
2354.00, 
2355.00, 
2356.00, 
2357.00, 
2358.00, 
2359.00, 
2360.00, 
2361.00, 
2362.00, 
2363.00, 
2364.00, 
2365.00, 
2366.00, 
2367.00, 
2368.00, 
2369.00, 
2370.00, 
2371.00, 
2372.00, 
2373.00, 
2374.00, 
2375.00, 
2376.00, 
2377.00, 
2378.00, 
2379.00, 
2380.00, 
2381.00, 
2382.00, 
2383.00, 
2384.00, 
2385.00, 
2386.00, 
2387.00, 
2388.00, 
2389.00, 
2390.00, 
2391.00, 
2392.00, 
2393.00, 
2394.00, 
2395.00, 
2396.00, 
2397.00, 
2398.00, 
2399.00, 
2400.00, 
2401.00, 
2402.00, 
2403.00, 
2404.00, 
2405.00, 
2406.00, 
2407.00, 
2408.00, 
2409.00, 
2410.00, 
2411.00, 
2412.00, 
2413.00, 
2414.00, 
2415.00, 
2416.00, 
2417.00, 
2418.00, 
2419.00, 
2420.00, 
2421.00, 
2422.00, 
2423.00, 
2424.00, 
2425.00, 
2426.00, 
2427.00, 
2428.00, 
2429.00, 
2430.00, 
2431.00, 
2432.00, 
2433.00, 
2434.00, 
2435.00, 
2436.00, 
2437.00, 
2438.00, 
2439.00, 
2440.00, 
2441.00, 
2442.00, 
2443.00, 
2444.00, 
2445.00, 
2446.00, 
2447.00, 
2448.00, 
2449.00, 
2450.00, 
2451.00, 
2452.00, 
2453.00, 
2454.00, 
2455.00, 
2456.00, 
2457.00, 
2458.00, 
2459.00, 
2460.00, 
2461.00, 
2462.00, 
2463.00, 
2464.00, 
2465.00, 
2466.00, 
2467.00, 
2468.00, 
2469.00, 
2470.00, 
2471.00, 
2472.00, 
2473.00, 
2474.00, 
2475.00, 
2476.00, 
2477.00, 
2478.00, 
2479.00, 
2480.00, 
2481.00, 
2482.00, 
2483.00, 
2484.00, 
2485.00, 
2486.00, 
2487.00, 
2488.00, 
2489.00, 
2490.00, 
2491.00, 
2492.00, 
2493.00, 
2494.00, 
2495.00, 
2496.00, 
2497.00, 
2498.00, 
2499.00, 
2500.00, 
2501.00, 
2502.00, 
2503.00, 
2504.00, 
2505.00, 
2506.00, 
2507.00, 
2508.00, 
2509.00, 
2510.00, 
2511.00, 
2512.00, 
2513.00, 
2514.00, 
2515.00, 
2516.00, 
2517.00, 
2518.00, 
2519.00, 
2520.00, 
2521.00, 
2522.00, 
2523.00, 
2524.00, 
2525.00, 
2526.00, 
2527.00, 
2528.00, 
2529.00, 
2530.00, 
2531.00, 
2532.00, 
2533.00, 
2534.00, 
2535.00, 
2536.00, 
2537.00, 
2538.00, 
2539.00, 
2540.00, 
2541.00, 
2542.00, 
2543.00, 
2544.00, 
2545.00, 
2546.00, 
2547.00, 
2548.00, 
2549.00, 
2550.00, 
2551.00, 
2552.00, 
2553.00, 
2554.00, 
2555.00, 
2556.00, 
2557.00, 
2558.00, 
2559.00, 
2560.00, 
2561.00, 
2562.00, 
2563.00, 
2564.00, 
2565.00, 
2566.00, 
2567.00, 
2568.00, 
2569.00, 
2570.00, 
2571.00, 
2572.00, 
2573.00, 
2574.00, 
2575.00, 
2576.00, 
2577.00, 
2578.00, 
2579.00, 
2580.00, 
2581.00, 
2582.00, 
2583.00, 
2584.00, 
2585.00, 
2586.00, 
2587.00, 
2588.00, 
2589.00, 
2590.00, 
2591.00, 
2592.00, 
2593.00, 
2594.00, 
2595.00, 
2596.00, 
2597.00, 
2598.00, 
2599.00, 
2600.00, 
