"1cP2 - RawData"
"Wavelength nm.","T%"
200.00,0.000
201.00,0.003
202.00,0.004
203.00,0.007
204.00,0.004
205.00,0.004
206.00,-0.001
207.00,-0.002
208.00,0.002
209.00,0.006
210.00,0.002
211.00,-0.003
212.00,0.002
213.00,0.002
214.00,0.001
215.00,0.005
216.00,-0.001
217.00,0.000
218.00,0.003
219.00,0.000
220.00,-0.000
221.00,0.003
222.00,0.003
223.00,0.002
224.00,0.001
225.00,0.003
226.00,-0.001
227.00,-0.000
228.00,0.001
229.00,0.002
230.00,0.000
231.00,0.002
232.00,0.000
233.00,0.000
234.00,0.003
235.00,-0.000
236.00,0.001
237.00,-0.000
238.00,0.001
239.00,0.000
240.00,-0.001
241.00,0.002
242.00,0.001
243.00,0.000
244.00,0.002
245.00,0.002
246.00,0.002
247.00,0.001
248.00,0.001
249.00,-0.001
250.00,0.000
251.00,0.001
252.00,-0.001
253.00,-0.000
254.00,0.000
255.00,0.001
256.00,-0.001
257.00,0.002
258.00,-0.001
259.00,0.002
260.00,0.002
261.00,-0.000
262.00,0.001
263.00,0.001
264.00,0.001
265.00,0.000
266.00,0.002
267.00,0.002
268.00,0.001
269.00,0.001
270.00,0.000
271.00,0.000
272.00,-0.001
273.00,0.001
274.00,0.001
275.00,0.001
276.00,-0.001
277.00,0.000
278.00,-0.000
279.00,0.001
280.00,0.002
281.00,0.002
282.00,0.001
283.00,-0.002
284.00,0.001
285.00,0.001
286.00,0.000
287.00,0.002
288.00,-0.001
289.00,0.000
290.00,0.001
291.00,0.001
292.00,0.002
293.00,0.002
294.00,-0.001
295.00,0.000
296.00,-0.002
297.00,-0.001
298.00,0.001
299.00,-0.000
300.00,0.003
301.00,0.002
302.00,0.000
303.00,0.003
304.00,0.001
305.00,0.001
306.00,0.006
307.00,0.007
308.00,0.013
309.00,0.021
310.00,0.033
311.00,0.053
312.00,0.083
313.00,0.132
314.00,0.200
315.00,0.288
316.00,0.409
317.00,0.579
318.00,0.807
319.00,1.067
320.00,1.450
321.00,1.895
322.00,2.436
323.00,3.076
324.00,3.812
325.00,4.428
326.00,5.389
327.00,6.361
328.00,7.533
329.00,8.678
330.00,9.911
331.00,11.218
332.00,12.563
333.00,14.023
334.00,15.498
335.00,16.988
336.00,18.377
337.00,20.032
338.00,21.549
339.00,23.063
340.00,24.565
341.00,25.995
342.00,27.482
343.00,28.838
344.00,30.255
345.00,31.379
346.00,32.593
347.00,33.865
348.00,34.998
349.00,36.101
350.00,37.152
351.00,38.087
352.00,39.130
353.00,39.960
354.00,40.669
355.00,41.481
356.00,42.103
357.00,42.999
358.00,43.581
359.00,44.373
360.00,44.880
361.00,45.019
362.00,45.769
363.00,46.253
364.00,46.688
365.00,47.074
366.00,47.262
367.00,47.573
368.00,47.903
369.00,48.069
370.00,48.203
371.00,48.406
372.00,48.595
373.00,48.773
374.00,48.620
375.00,48.663
376.00,48.606
377.00,48.661
378.00,48.405
379.00,48.350
380.00,48.427
381.00,48.547
382.00,48.556
383.00,48.703
384.00,49.065
385.00,49.227
386.00,49.502
387.00,49.665
388.00,49.997
389.00,50.216
390.00,50.382
391.00,50.659
392.00,50.888
393.00,51.015
394.00,51.244
395.00,51.112
396.00,51.329
397.00,51.500
398.00,51.601
399.00,51.690
400.00,51.846
401.00,51.907
402.00,52.018
403.00,52.278
404.00,52.021
405.00,52.143
406.00,52.126
407.00,52.038
408.00,52.003
409.00,52.021
410.00,51.941
411.00,51.832
412.00,51.699
413.00,51.802
414.00,51.797
415.00,51.853
416.00,51.961
417.00,51.971
418.00,52.050
419.00,52.209
420.00,52.237
421.00,51.927
422.00,51.893
423.00,51.949
424.00,52.126
425.00,52.019
426.00,52.139
427.00,52.032
428.00,52.334
429.00,52.107
430.00,51.998
431.00,52.086
432.00,52.105
433.00,52.023
434.00,52.055
435.00,52.089
436.00,52.043
437.00,52.161
438.00,52.258
439.00,52.175
440.00,52.149
441.00,52.166
442.00,52.209
443.00,52.352
444.00,52.385
445.00,52.413
446.00,52.409
447.00,52.560
448.00,52.542
449.00,52.577
450.00,52.551
451.00,52.575
452.00,52.590
453.00,52.683
454.00,52.689
455.00,52.629
456.00,52.790
457.00,52.810
458.00,52.869
459.00,52.930
460.00,52.947
461.00,53.033
462.00,53.019
463.00,53.110
464.00,53.122
465.00,53.275
466.00,53.299
467.00,53.254
468.00,53.256
469.00,53.166
470.00,53.163
471.00,53.088
472.00,53.121
473.00,53.076
474.00,53.003
475.00,52.992
476.00,52.857
477.00,53.017
478.00,52.993
479.00,52.956
480.00,53.171
481.00,53.106
482.00,53.130
483.00,53.103
484.00,53.270
485.00,53.420
486.00,53.112
487.00,53.469
488.00,53.608
489.00,53.564
490.00,53.776
491.00,53.942
492.00,53.462
493.00,53.555
494.00,53.458
495.00,53.596
496.00,53.633
497.00,53.702
498.00,53.675
499.00,53.730
500.00,53.767
501.00,53.791
502.00,53.787
503.00,53.816
504.00,53.689
505.00,53.799
506.00,53.796
507.00,53.789
508.00,53.792
509.00,53.862
510.00,53.817
511.00,53.838
512.00,53.904
513.00,53.874
514.00,53.941
515.00,54.046
516.00,53.905
517.00,54.029
518.00,53.882
519.00,53.842
520.00,53.837
521.00,53.994
522.00,53.772
523.00,53.913
524.00,53.963
525.00,54.093
526.00,54.043
527.00,54.135
528.00,54.217
529.00,54.362
530.00,54.435
531.00,54.349
532.00,54.285
533.00,54.346
534.00,54.297
535.00,54.288
536.00,54.335
537.00,54.332
538.00,54.379
539.00,54.434
540.00,54.231
541.00,54.086
542.00,54.306
543.00,54.279
544.00,54.277
545.00,54.310
546.00,54.394
547.00,54.351
548.00,54.240
549.00,54.408
550.00,54.502
551.00,54.570
552.00,54.417
553.00,54.355
554.00,54.276
555.00,54.436
556.00,54.483
557.00,54.435
558.00,54.499
559.00,54.537
560.00,54.645
561.00,54.747
562.00,54.563
563.00,54.586
564.00,54.656
565.00,54.491
566.00,54.527
567.00,54.447
568.00,54.499
569.00,54.517
570.00,54.443
571.00,54.414
572.00,54.437
573.00,54.403
574.00,54.230
575.00,54.213
576.00,54.227
577.00,54.217
578.00,54.260
579.00,54.291
580.00,54.389
581.00,54.444
582.00,54.474
583.00,54.502
584.00,54.587
585.00,54.628
586.00,54.452
587.00,54.274
588.00,54.296
589.00,54.430
590.00,54.413
591.00,54.336
592.00,54.367
593.00,54.454
594.00,54.400
595.00,54.419
596.00,54.381
597.00,54.709
598.00,54.652
599.00,54.373
600.00,54.721
601.00,54.834
602.00,54.281
603.00,54.287
604.00,54.367
605.00,54.418
606.00,54.299
607.00,54.523
608.00,54.337
609.00,54.410
610.00,54.469
611.00,54.208
612.00,54.271
613.00,54.314
614.00,54.441
615.00,54.263
616.00,54.254
617.00,54.306
618.00,54.254
619.00,53.993
620.00,54.172
621.00,54.112
622.00,54.185
623.00,54.208
624.00,54.142
625.00,54.269
626.00,54.252
627.00,54.183
628.00,54.023
629.00,54.043
630.00,54.071
631.00,53.977
632.00,54.114
633.00,54.137
634.00,54.080
635.00,54.133
636.00,54.055
637.00,53.876
638.00,53.901
639.00,53.949
640.00,53.834
641.00,53.939
642.00,53.946
643.00,53.959
644.00,53.932
645.00,53.929
646.00,53.978
647.00,53.964
648.00,53.835
649.00,53.893
650.00,53.823
651.00,53.883
652.00,53.868
653.00,53.846
654.00,53.735
655.00,53.969
656.00,54.263
657.00,54.019
658.00,54.017
659.00,53.869
660.00,53.691
661.00,53.377
662.00,54.027
663.00,53.699
664.00,53.942
665.00,53.683
666.00,53.433
667.00,53.706
668.00,54.036
669.00,53.448
670.00,53.488
671.00,53.574
672.00,53.706
673.00,53.471
674.00,53.574
675.00,53.536
676.00,53.316
677.00,53.373
678.00,53.284
679.00,53.549
680.00,53.551
681.00,53.179
682.00,53.300
683.00,53.076
684.00,52.800
685.00,52.956
686.00,52.935
687.00,52.928
688.00,53.120
689.00,53.093
690.00,52.834
691.00,53.108
692.00,53.346
693.00,52.766
694.00,52.736
695.00,52.804
696.00,52.832
697.00,52.745
698.00,52.754
699.00,52.587
700.00,52.473
701.00,52.592
702.00,52.755
703.00,52.883
704.00,52.496
705.00,52.539
706.00,53.075
707.00,52.230
708.00,51.976
709.00,52.446
710.00,52.664
711.00,52.117
712.00,52.257
713.00,52.306
714.00,52.183
715.00,52.263
716.00,52.194
717.00,52.204
718.00,52.165
719.00,52.041
720.00,52.023
721.00,57.196
722.00,57.122
723.00,57.120
724.00,56.956
725.00,57.000
726.00,56.695
727.00,56.856
728.00,56.727
729.00,56.634
730.00,56.641
731.00,56.639
732.00,56.341
733.00,56.387
734.00,56.500
735.00,56.257
736.00,56.333
737.00,56.217
738.00,56.331
739.00,56.311
740.00,55.978
741.00,55.975
742.00,56.043
743.00,55.897
744.00,55.672
745.00,55.745
746.00,55.729
747.00,55.611
748.00,55.545
749.00,55.316
750.00,55.388
751.00,55.259
752.00,55.219
753.00,55.180
754.00,55.062
755.00,55.169
756.00,55.041
757.00,54.994
758.00,54.797
759.00,54.898
760.00,54.818
761.00,54.789
762.00,54.610
763.00,54.641
764.00,54.869
765.00,54.535
766.00,54.518
767.00,54.434
768.00,54.493
769.00,54.336
770.00,54.349
771.00,54.342
772.00,54.259
773.00,54.276
774.00,54.213
775.00,54.182
776.00,54.226
777.00,54.164
778.00,53.960
779.00,53.979
780.00,53.925
781.00,53.824
782.00,53.838
783.00,53.901
784.00,53.618
785.00,53.755
786.00,53.688
787.00,53.707
788.00,53.571
789.00,53.663
790.00,53.586
791.00,53.520
792.00,53.426
793.00,53.292
794.00,53.379
795.00,53.251
796.00,53.280
797.00,53.145
798.00,53.147
799.00,53.092
800.00,52.971
801.00,53.001
802.00,52.931
803.00,52.843
804.00,52.836
805.00,52.807
806.00,52.773
807.00,52.647
808.00,52.662
809.00,52.625
810.00,52.607
811.00,52.496
812.00,52.495
813.00,52.411
814.00,52.414
815.00,52.285
816.00,52.441
817.00,52.305
818.00,52.252
819.00,52.302
820.00,52.163
821.00,52.192
822.00,52.195
823.00,51.859
824.00,52.042
825.00,51.832
826.00,51.972
827.00,51.997
828.00,52.025
829.00,52.016
830.00,51.711
831.00,54.144
832.00,54.183
833.00,54.201
834.00,54.057
835.00,54.095
836.00,54.049
837.00,54.132
838.00,54.021
839.00,53.989
840.00,54.005
841.00,54.006
842.00,53.944
843.00,53.835
844.00,53.819
845.00,53.863
846.00,53.808
847.00,53.566
848.00,53.723
849.00,53.571
850.00,53.570
851.00,53.551
852.00,53.534
853.00,53.364
854.00,53.315
855.00,53.396
856.00,53.227
857.00,53.316
858.00,53.265
859.00,53.235
860.00,53.211
861.00,53.256
862.00,53.217
863.00,53.138
864.00,53.188
865.00,53.059
866.00,53.153
867.00,53.085
868.00,53.014
869.00,53.027
870.00,53.036
871.00,52.941
872.00,52.889
873.00,52.949
874.00,52.925
875.00,52.872
876.00,52.830
877.00,52.844
878.00,52.811
879.00,52.727
880.00,52.750
881.00,52.765
882.00,52.760
883.00,52.792
884.00,52.630
885.00,52.621
886.00,52.643
887.00,52.585
888.00,52.487
889.00,52.713
890.00,52.498
891.00,52.514
892.00,52.442
893.00,52.484
894.00,52.411
895.00,52.390
896.00,52.348
897.00,52.348
898.00,52.299
899.00,52.311
900.00,52.232
901.00,52.298
902.00,52.432
903.00,52.252
904.00,52.193
905.00,52.166
906.00,52.183
907.00,52.094
908.00,52.057
909.00,52.075
910.00,52.031
911.00,52.040
912.00,52.033
913.00,52.051
914.00,52.024
915.00,51.949
916.00,51.935
917.00,51.920
918.00,51.903
919.00,51.895
920.00,51.829
921.00,51.837
922.00,51.800
923.00,51.787
924.00,51.732
925.00,51.761
926.00,51.751
927.00,51.699
928.00,51.673
929.00,51.642
930.00,51.639
931.00,51.588
932.00,51.553
933.00,51.563
934.00,51.549
935.00,51.512
936.00,51.490
937.00,51.479
938.00,51.463
939.00,51.415
940.00,51.438
941.00,51.410
942.00,51.385
943.00,51.307
944.00,51.304
945.00,51.278
946.00,51.292
947.00,51.231
948.00,51.231
949.00,51.236
950.00,51.190
951.00,51.142
952.00,51.131
953.00,51.093
954.00,51.075
955.00,51.047
956.00,51.020
957.00,50.993
958.00,50.995
959.00,51.030
960.00,50.911
961.00,50.933
962.00,50.929
963.00,50.889
964.00,50.867
965.00,50.892
966.00,50.847
967.00,50.838
968.00,50.813
969.00,50.856
970.00,50.836
971.00,50.837
972.00,50.822
973.00,50.795
974.00,50.883
975.00,50.823
976.00,50.807
977.00,50.829
978.00,50.825
979.00,50.834
980.00,50.791
981.00,50.826
982.00,50.767
983.00,50.772
984.00,50.781
985.00,50.787
986.00,50.744
987.00,50.785
988.00,50.819
989.00,50.713
990.00,50.743
991.00,50.724
992.00,50.719
993.00,50.685
994.00,50.669
995.00,50.693
996.00,50.640
997.00,50.658
998.00,50.646
999.00,50.621
1000.00,50.601
1001.00,50.588
1002.00,50.599
1003.00,50.565
1004.00,50.566
1005.00,50.497
1006.00,50.534
1007.00,50.540
1008.00,50.494
1009.00,50.493
1010.00,50.469
1011.00,50.486
1012.00,50.430
1013.00,50.415
1014.00,50.437
1015.00,50.407
1016.00,50.374
1017.00,50.356
1018.00,50.357
1019.00,50.293
1020.00,50.363
1021.00,50.322
1022.00,50.283
1023.00,50.272
1024.00,50.280
1025.00,50.273
1026.00,50.241
1027.00,50.192
1028.00,50.191
1029.00,50.204
1030.00,50.123
1031.00,50.148
1032.00,50.161
1033.00,50.113
1034.00,50.105
1035.00,50.088
1036.00,50.090
1037.00,50.043
1038.00,50.018
1039.00,49.994
1040.00,50.000
1041.00,49.943
1042.00,49.955
1043.00,49.953
1044.00,49.941
1045.00,49.957
1046.00,49.945
1047.00,49.986
1048.00,49.980
1049.00,49.983
1050.00,50.000
1051.00,50.011
1052.00,50.019
1053.00,50.029
1054.00,50.040
1055.00,50.040
1056.00,50.058
1057.00,50.049
1058.00,50.039
1059.00,50.043
1060.00,50.038
1061.00,50.032
1062.00,50.044
1063.00,50.011
1064.00,50.014
1065.00,50.002
1066.00,49.984
1067.00,49.971
1068.00,49.986
1069.00,49.966
1070.00,49.964
1071.00,49.949
1072.00,49.928
1073.00,49.935
1074.00,49.907
1075.00,49.918
1076.00,49.911
1077.00,49.907
1078.00,49.906
1079.00,49.888
1080.00,49.922
1081.00,49.901
1082.00,49.837
1083.00,49.846
1084.00,49.841
1085.00,49.836
1086.00,49.831
1087.00,49.836
1088.00,49.809
1089.00,49.825
1090.00,49.807
1091.00,49.816
1092.00,49.807
1093.00,49.787
1094.00,49.783
1095.00,49.797
1096.00,49.770
1097.00,49.736
1098.00,49.740
1099.00,49.708
1100.00,49.689
1101.00,49.682
1102.00,49.688
1103.00,49.699
1104.00,49.674
1105.00,49.678
1106.00,49.664
1107.00,49.648
1108.00,49.642
1109.00,49.638
1110.00,49.663
1111.00,49.658
1112.00,49.616
1113.00,49.654
1114.00,49.639
1115.00,49.621
1116.00,49.619
1117.00,49.619
1118.00,49.594
1119.00,49.591
1120.00,49.609
1121.00,49.593
1122.00,49.605
1123.00,49.548
1124.00,49.572
1125.00,49.533
1126.00,49.533
1127.00,49.533
1128.00,49.528
1129.00,49.504
1130.00,49.527
1131.00,49.532
1132.00,49.512
1133.00,49.552
1134.00,49.488
1135.00,49.497
1136.00,49.510
1137.00,49.486
1138.00,49.493
1139.00,49.503
1140.00,49.483
1141.00,49.488
1142.00,49.472
1143.00,49.490
1144.00,49.464
1145.00,49.482
1146.00,49.476
1147.00,49.469
1148.00,49.456
1149.00,49.464
1150.00,49.491
1151.00,49.457
1152.00,49.458
1153.00,49.465
1154.00,49.459
1155.00,49.493
1156.00,49.447
1157.00,49.456
1158.00,49.461
1159.00,49.424
1160.00,49.453
1161.00,49.463
1162.00,49.468
1163.00,49.446
1164.00,49.469
1165.00,49.461
1166.00,49.462
1167.00,49.446
1168.00,49.455
1169.00,49.463
1170.00,49.451
1171.00,49.434
1172.00,49.441
1173.00,49.450
1174.00,49.442
1175.00,49.453
1176.00,49.451
1177.00,49.469
1178.00,49.432
1179.00,49.459
1180.00,49.465
1181.00,49.464
1182.00,49.442
1183.00,49.472
1184.00,49.455
1185.00,49.477
1186.00,49.471
1187.00,49.477
1188.00,49.515
1189.00,49.449
1190.00,49.469
1191.00,49.460
1192.00,49.478
1193.00,49.474
1194.00,49.475
1195.00,49.480
1196.00,49.461
1197.00,49.488
1198.00,49.476
1199.00,49.495
1200.00,49.467
1201.00,49.479
1202.00,49.471
1203.00,49.469
1204.00,49.449
1205.00,49.474
1206.00,49.478
1207.00,49.474
1208.00,49.476
1209.00,49.470
1210.00,49.511
1211.00,49.457
1212.00,49.489
1213.00,49.488
1214.00,49.467
1215.00,49.463
1216.00,49.441
1217.00,49.486
1218.00,49.482
1219.00,49.486
1220.00,49.479
1221.00,49.510
1222.00,49.488
1223.00,49.486
1224.00,49.522
1225.00,49.484
1226.00,49.527
1227.00,49.496
1228.00,49.491
1229.00,49.508
1230.00,49.557
1231.00,49.537
1232.00,49.550
1233.00,49.569
1234.00,49.544
1235.00,49.581
1236.00,49.549
1237.00,49.567
1238.00,49.568
1239.00,49.573
1240.00,49.560
1241.00,49.576
1242.00,49.586
1243.00,49.584
1244.00,49.585
1245.00,49.583
1246.00,49.627
1247.00,49.612
1248.00,49.607
1249.00,49.615
1250.00,49.643
1251.00,49.630
1252.00,49.645
1253.00,49.632
1254.00,49.672
1255.00,49.645
1256.00,49.633
1257.00,49.620
1258.00,49.644
1259.00,49.647
1260.00,49.669
1261.00,49.669
1262.00,49.684
1263.00,49.713
1264.00,49.703
1265.00,49.726
1266.00,49.703
1267.00,49.721
1268.00,49.724
1269.00,49.716
1270.00,49.730
1271.00,49.744
1272.00,49.735
1273.00,49.770
1274.00,49.740
1275.00,49.758
1276.00,49.772
1277.00,49.765
1278.00,49.760
1279.00,49.801
1280.00,49.767
1281.00,49.797
1282.00,49.812
1283.00,49.803
1284.00,49.819
1285.00,49.818
1286.00,49.789
1287.00,49.816
1288.00,49.807
1289.00,49.811
1290.00,49.863
1291.00,49.836
1292.00,49.832
1293.00,49.856
1294.00,49.869
1295.00,49.866
1296.00,49.883
1297.00,49.879
1298.00,49.915
1299.00,49.898
1300.00,49.914
1301.00,49.934
1302.00,49.940
1303.00,49.933
1304.00,49.971
1305.00,49.951
1306.00,49.970
1307.00,49.966
1308.00,49.986
1309.00,50.055
1310.00,49.950
1311.00,49.991
1312.00,49.997
1313.00,49.979
1314.00,49.998
1315.00,50.044
1316.00,50.048
1317.00,50.057
1318.00,50.095
1319.00,50.117
1320.00,50.102
1321.00,50.259
1322.00,50.237
1323.00,50.256
1324.00,50.210
1325.00,50.235
1326.00,50.242
1327.00,50.232
1328.00,50.218
1329.00,50.252
1330.00,50.225
1331.00,50.230
1332.00,50.241
1333.00,50.240
1334.00,50.281
1335.00,50.290
1336.00,50.329
1337.00,50.386
1338.00,50.427
1339.00,50.454
1340.00,50.511
1341.00,50.585
1342.00,50.658
1343.00,50.698
1344.00,50.741
1345.00,50.818
1346.00,50.910
1347.00,50.880
1348.00,50.920
1349.00,50.922
1350.00,50.980
1351.00,50.984
1352.00,50.927
1353.00,50.991
1354.00,51.035
1355.00,50.964
1356.00,50.907
1357.00,50.981
1358.00,51.106
1359.00,51.020
1360.00,51.103
1361.00,51.181
1362.00,51.144
1363.00,50.992
1364.00,50.984
1365.00,51.003
1366.00,51.219
1367.00,51.182
1368.00,51.162
1369.00,51.497
1370.00,51.014
1371.00,51.031
1372.00,51.022
1373.00,51.049
1374.00,51.046
1375.00,51.097
1376.00,51.057
1377.00,50.940
1378.00,51.465
1379.00,50.813
1380.00,51.296
1381.00,50.950
1382.00,51.001
1383.00,51.121
1384.00,50.952
1385.00,50.858
1386.00,51.116
1387.00,50.986
1388.00,51.039
1389.00,50.980
1390.00,51.128
1391.00,50.757
1392.00,50.966
1393.00,51.143
1394.00,51.172
1395.00,50.774
1396.00,51.029
1397.00,51.133
1398.00,51.208
1399.00,50.898
1400.00,50.998
1401.00,51.141
1402.00,51.355
1403.00,51.319
1404.00,51.138
1405.00,51.098
1406.00,51.076
1407.00,51.139
1408.00,50.936
1409.00,51.100
1410.00,51.202
1411.00,51.044
1412.00,51.317
1413.00,51.188
1414.00,51.155
1415.00,51.135
1416.00,51.154
1417.00,51.316
1418.00,51.177
1419.00,51.216
1420.00,51.238
1421.00,51.286
1422.00,51.248
1423.00,51.304
1424.00,51.273
1425.00,51.321
1426.00,51.292
1427.00,51.338
1428.00,51.354
1429.00,51.374
1430.00,51.387
1431.00,51.353
1432.00,51.447
1433.00,51.375
1434.00,51.450
1435.00,51.505
1436.00,51.517
1437.00,51.462
1438.00,51.511
1439.00,51.568
1440.00,51.547
1441.00,51.581
1442.00,51.609
1443.00,51.630
1444.00,51.812
1445.00,51.611
1446.00,51.728
1447.00,51.703
1448.00,51.731
1449.00,51.766
1450.00,51.773
1451.00,51.750
1452.00,51.790
1453.00,51.811
1454.00,51.760
1455.00,51.834
1456.00,51.834
1457.00,51.873
1458.00,51.863
1459.00,51.865
1460.00,51.920
1461.00,51.909
1462.00,51.898
1463.00,51.950
1464.00,51.987
1465.00,52.008
1466.00,52.025
1467.00,52.024
1468.00,52.067
1469.00,52.061
1470.00,52.090
1471.00,52.101
1472.00,52.121
1473.00,52.128
1474.00,52.186
1475.00,52.184
1476.00,52.188
1477.00,52.192
1478.00,52.234
1479.00,52.225
1480.00,52.252
1481.00,52.234
1482.00,52.270
1483.00,52.285
1484.00,52.270
1485.00,52.285
1486.00,52.309
1487.00,52.335
1488.00,52.334
1489.00,52.353
1490.00,52.378
1491.00,52.390
1492.00,52.379
1493.00,52.408
1494.00,52.439
1495.00,52.411
1496.00,52.435
1497.00,52.438
1498.00,52.433
1499.00,52.476
1500.00,52.489
1501.00, 
1502.00, 
1503.00, 
1504.00, 
1505.00, 
1506.00, 
1507.00, 
1508.00, 
1509.00, 
1510.00, 
1511.00, 
1512.00, 
1513.00, 
1514.00, 
1515.00, 
1516.00, 
1517.00, 
1518.00, 
1519.00, 
1520.00, 
1521.00, 
1522.00, 
1523.00, 
1524.00, 
1525.00, 
1526.00, 
1527.00, 
1528.00, 
1529.00, 
1530.00, 
1531.00, 
1532.00, 
1533.00, 
1534.00, 
1535.00, 
1536.00, 
1537.00, 
1538.00, 
1539.00, 
1540.00, 
1541.00, 
1542.00, 
1543.00, 
1544.00, 
1545.00, 
1546.00, 
1547.00, 
1548.00, 
1549.00, 
1550.00, 
1551.00, 
1552.00, 
1553.00, 
1554.00, 
1555.00, 
1556.00, 
1557.00, 
1558.00, 
1559.00, 
1560.00, 
1561.00, 
1562.00, 
1563.00, 
1564.00, 
1565.00, 
1566.00, 
1567.00, 
1568.00, 
1569.00, 
1570.00, 
1571.00, 
1572.00, 
1573.00, 
1574.00, 
1575.00, 
1576.00, 
1577.00, 
1578.00, 
1579.00, 
1580.00, 
1581.00, 
1582.00, 
1583.00, 
1584.00, 
1585.00, 
1586.00, 
1587.00, 
1588.00, 
1589.00, 
1590.00, 
1591.00, 
1592.00, 
1593.00, 
1594.00, 
1595.00, 
1596.00, 
1597.00, 
1598.00, 
1599.00, 
1600.00, 
1601.00, 
1602.00, 
1603.00, 
1604.00, 
1605.00, 
1606.00, 
1607.00, 
1608.00, 
1609.00, 
1610.00, 
1611.00, 
1612.00, 
1613.00, 
1614.00, 
1615.00, 
1616.00, 
1617.00, 
1618.00, 
1619.00, 
1620.00, 
1621.00, 
1622.00, 
1623.00, 
1624.00, 
1625.00, 
1626.00, 
1627.00, 
1628.00, 
1629.00, 
1630.00, 
1631.00, 
1632.00, 
1633.00, 
1634.00, 
1635.00, 
1636.00, 
1637.00, 
1638.00, 
1639.00, 
1640.00, 
1641.00, 
1642.00, 
1643.00, 
1644.00, 
1645.00, 
1646.00, 
1647.00, 
1648.00, 
1649.00, 
1650.00, 
1651.00, 
1652.00, 
1653.00, 
1654.00, 
1655.00, 
1656.00, 
1657.00, 
1658.00, 
1659.00, 
1660.00, 
1661.00, 
1662.00, 
1663.00, 
1664.00, 
1665.00, 
1666.00, 
1667.00, 
1668.00, 
1669.00, 
1670.00, 
1671.00, 
1672.00, 
1673.00, 
1674.00, 
1675.00, 
1676.00, 
1677.00, 
1678.00, 
1679.00, 
1680.00, 
1681.00, 
1682.00, 
1683.00, 
1684.00, 
1685.00, 
1686.00, 
1687.00, 
1688.00, 
1689.00, 
1690.00, 
1691.00, 
1692.00, 
1693.00, 
1694.00, 
1695.00, 
1696.00, 
1697.00, 
1698.00, 
1699.00, 
1700.00, 
1701.00, 
1702.00, 
1703.00, 
1704.00, 
1705.00, 
1706.00, 
1707.00, 
1708.00, 
1709.00, 
1710.00, 
1711.00, 
1712.00, 
1713.00, 
1714.00, 
1715.00, 
1716.00, 
1717.00, 
1718.00, 
1719.00, 
1720.00, 
1721.00, 
1722.00, 
1723.00, 
1724.00, 
1725.00, 
1726.00, 
1727.00, 
1728.00, 
1729.00, 
1730.00, 
1731.00, 
1732.00, 
1733.00, 
1734.00, 
1735.00, 
1736.00, 
1737.00, 
1738.00, 
1739.00, 
1740.00, 
1741.00, 
1742.00, 
1743.00, 
1744.00, 
1745.00, 
1746.00, 
1747.00, 
1748.00, 
1749.00, 
1750.00, 
1751.00, 
1752.00, 
1753.00, 
1754.00, 
1755.00, 
1756.00, 
1757.00, 
1758.00, 
1759.00, 
1760.00, 
1761.00, 
1762.00, 
1763.00, 
1764.00, 
1765.00, 
1766.00, 
1767.00, 
1768.00, 
1769.00, 
1770.00, 
1771.00, 
1772.00, 
1773.00, 
1774.00, 
1775.00, 
1776.00, 
1777.00, 
1778.00, 
1779.00, 
1780.00, 
1781.00, 
1782.00, 
1783.00, 
1784.00, 
1785.00, 
1786.00, 
1787.00, 
1788.00, 
1789.00, 
1790.00, 
1791.00, 
1792.00, 
1793.00, 
1794.00, 
1795.00, 
1796.00, 
1797.00, 
1798.00, 
1799.00, 
1800.00, 
1801.00, 
1802.00, 
1803.00, 
1804.00, 
1805.00, 
1806.00, 
1807.00, 
1808.00, 
1809.00, 
1810.00, 
1811.00, 
1812.00, 
1813.00, 
1814.00, 
1815.00, 
1816.00, 
1817.00, 
1818.00, 
1819.00, 
1820.00, 
1821.00, 
1822.00, 
1823.00, 
1824.00, 
1825.00, 
1826.00, 
1827.00, 
1828.00, 
1829.00, 
1830.00, 
1831.00, 
1832.00, 
1833.00, 
1834.00, 
1835.00, 
1836.00, 
1837.00, 
1838.00, 
1839.00, 
1840.00, 
1841.00, 
1842.00, 
1843.00, 
1844.00, 
1845.00, 
1846.00, 
1847.00, 
1848.00, 
1849.00, 
1850.00, 
1851.00, 
1852.00, 
1853.00, 
1854.00, 
1855.00, 
1856.00, 
1857.00, 
1858.00, 
1859.00, 
1860.00, 
1861.00, 
1862.00, 
1863.00, 
1864.00, 
1865.00, 
1866.00, 
1867.00, 
1868.00, 
1869.00, 
1870.00, 
1871.00, 
1872.00, 
1873.00, 
1874.00, 
1875.00, 
1876.00, 
1877.00, 
1878.00, 
1879.00, 
1880.00, 
1881.00, 
1882.00, 
1883.00, 
1884.00, 
1885.00, 
1886.00, 
1887.00, 
1888.00, 
1889.00, 
1890.00, 
1891.00, 
1892.00, 
1893.00, 
1894.00, 
1895.00, 
1896.00, 
1897.00, 
1898.00, 
1899.00, 
1900.00, 
1901.00, 
1902.00, 
1903.00, 
1904.00, 
1905.00, 
1906.00, 
1907.00, 
1908.00, 
1909.00, 
1910.00, 
1911.00, 
1912.00, 
1913.00, 
1914.00, 
1915.00, 
1916.00, 
1917.00, 
1918.00, 
1919.00, 
1920.00, 
1921.00, 
1922.00, 
1923.00, 
1924.00, 
1925.00, 
1926.00, 
1927.00, 
1928.00, 
1929.00, 
1930.00, 
1931.00, 
1932.00, 
1933.00, 
1934.00, 
1935.00, 
1936.00, 
1937.00, 
1938.00, 
1939.00, 
1940.00, 
1941.00, 
1942.00, 
1943.00, 
1944.00, 
1945.00, 
1946.00, 
1947.00, 
1948.00, 
1949.00, 
1950.00, 
1951.00, 
1952.00, 
1953.00, 
1954.00, 
1955.00, 
1956.00, 
1957.00, 
1958.00, 
1959.00, 
1960.00, 
1961.00, 
1962.00, 
1963.00, 
1964.00, 
1965.00, 
1966.00, 
1967.00, 
1968.00, 
1969.00, 
1970.00, 
1971.00, 
1972.00, 
1973.00, 
1974.00, 
1975.00, 
1976.00, 
1977.00, 
1978.00, 
1979.00, 
1980.00, 
1981.00, 
1982.00, 
1983.00, 
1984.00, 
1985.00, 
1986.00, 
1987.00, 
1988.00, 
1989.00, 
1990.00, 
1991.00, 
1992.00, 
1993.00, 
1994.00, 
1995.00, 
1996.00, 
1997.00, 
1998.00, 
1999.00, 
2000.00, 
2001.00, 
2002.00, 
2003.00, 
2004.00, 
2005.00, 
2006.00, 
2007.00, 
2008.00, 
2009.00, 
2010.00, 
2011.00, 
2012.00, 
2013.00, 
2014.00, 
2015.00, 
2016.00, 
2017.00, 
2018.00, 
2019.00, 
2020.00, 
2021.00, 
2022.00, 
2023.00, 
2024.00, 
2025.00, 
2026.00, 
2027.00, 
2028.00, 
2029.00, 
2030.00, 
2031.00, 
2032.00, 
2033.00, 
2034.00, 
2035.00, 
2036.00, 
2037.00, 
2038.00, 
2039.00, 
2040.00, 
2041.00, 
2042.00, 
2043.00, 
2044.00, 
2045.00, 
2046.00, 
2047.00, 
2048.00, 
2049.00, 
2050.00, 
2051.00, 
2052.00, 
2053.00, 
2054.00, 
2055.00, 
2056.00, 
2057.00, 
2058.00, 
2059.00, 
2060.00, 
2061.00, 
2062.00, 
2063.00, 
2064.00, 
2065.00, 
2066.00, 
2067.00, 
2068.00, 
2069.00, 
2070.00, 
2071.00, 
2072.00, 
2073.00, 
2074.00, 
2075.00, 
2076.00, 
2077.00, 
2078.00, 
2079.00, 
2080.00, 
2081.00, 
2082.00, 
2083.00, 
2084.00, 
2085.00, 
2086.00, 
2087.00, 
2088.00, 
2089.00, 
2090.00, 
2091.00, 
2092.00, 
2093.00, 
2094.00, 
2095.00, 
2096.00, 
2097.00, 
2098.00, 
2099.00, 
2100.00, 
2101.00, 
2102.00, 
2103.00, 
2104.00, 
2105.00, 
2106.00, 
2107.00, 
2108.00, 
2109.00, 
2110.00, 
2111.00, 
2112.00, 
2113.00, 
2114.00, 
2115.00, 
2116.00, 
2117.00, 
2118.00, 
2119.00, 
2120.00, 
2121.00, 
2122.00, 
2123.00, 
2124.00, 
2125.00, 
2126.00, 
2127.00, 
2128.00, 
2129.00, 
2130.00, 
2131.00, 
2132.00, 
2133.00, 
2134.00, 
2135.00, 
2136.00, 
2137.00, 
2138.00, 
2139.00, 
2140.00, 
2141.00, 
2142.00, 
2143.00, 
2144.00, 
2145.00, 
2146.00, 
2147.00, 
2148.00, 
2149.00, 
2150.00, 
2151.00, 
2152.00, 
2153.00, 
2154.00, 
2155.00, 
2156.00, 
2157.00, 
2158.00, 
2159.00, 
2160.00, 
2161.00, 
2162.00, 
2163.00, 
2164.00, 
2165.00, 
2166.00, 
2167.00, 
2168.00, 
2169.00, 
2170.00, 
2171.00, 
2172.00, 
2173.00, 
2174.00, 
2175.00, 
2176.00, 
2177.00, 
2178.00, 
2179.00, 
2180.00, 
2181.00, 
2182.00, 
2183.00, 
2184.00, 
2185.00, 
2186.00, 
2187.00, 
2188.00, 
2189.00, 
2190.00, 
2191.00, 
2192.00, 
2193.00, 
2194.00, 
2195.00, 
2196.00, 
2197.00, 
2198.00, 
2199.00, 
2200.00, 
2201.00, 
2202.00, 
2203.00, 
2204.00, 
2205.00, 
2206.00, 
2207.00, 
2208.00, 
2209.00, 
2210.00, 
2211.00, 
2212.00, 
2213.00, 
2214.00, 
2215.00, 
2216.00, 
2217.00, 
2218.00, 
2219.00, 
2220.00, 
2221.00, 
2222.00, 
2223.00, 
2224.00, 
2225.00, 
2226.00, 
2227.00, 
2228.00, 
2229.00, 
2230.00, 
2231.00, 
2232.00, 
2233.00, 
2234.00, 
2235.00, 
2236.00, 
2237.00, 
2238.00, 
2239.00, 
2240.00, 
2241.00, 
2242.00, 
2243.00, 
2244.00, 
2245.00, 
2246.00, 
2247.00, 
2248.00, 
2249.00, 
2250.00, 
2251.00, 
2252.00, 
2253.00, 
2254.00, 
2255.00, 
2256.00, 
2257.00, 
2258.00, 
2259.00, 
2260.00, 
2261.00, 
2262.00, 
2263.00, 
2264.00, 
2265.00, 
2266.00, 
2267.00, 
2268.00, 
2269.00, 
2270.00, 
2271.00, 
2272.00, 
2273.00, 
2274.00, 
2275.00, 
2276.00, 
2277.00, 
2278.00, 
2279.00, 
2280.00, 
2281.00, 
2282.00, 
2283.00, 
2284.00, 
2285.00, 
2286.00, 
2287.00, 
2288.00, 
2289.00, 
2290.00, 
2291.00, 
2292.00, 
2293.00, 
2294.00, 
2295.00, 
2296.00, 
2297.00, 
2298.00, 
2299.00, 
2300.00, 
2301.00, 
2302.00, 
2303.00, 
2304.00, 
2305.00, 
2306.00, 
2307.00, 
2308.00, 
2309.00, 
2310.00, 
2311.00, 
2312.00, 
2313.00, 
2314.00, 
2315.00, 
2316.00, 
2317.00, 
2318.00, 
2319.00, 
2320.00, 
2321.00, 
2322.00, 
2323.00, 
2324.00, 
2325.00, 
2326.00, 
2327.00, 
2328.00, 
2329.00, 
2330.00, 
2331.00, 
2332.00, 
2333.00, 
2334.00, 
2335.00, 
2336.00, 
2337.00, 
2338.00, 
2339.00, 
2340.00, 
2341.00, 
2342.00, 
2343.00, 
2344.00, 
2345.00, 
2346.00, 
2347.00, 
2348.00, 
2349.00, 
2350.00, 
2351.00, 
2352.00, 
2353.00, 
2354.00, 
2355.00, 
2356.00, 
2357.00, 
2358.00, 
2359.00, 
2360.00, 
2361.00, 
2362.00, 
2363.00, 
2364.00, 
2365.00, 
2366.00, 
2367.00, 
2368.00, 
2369.00, 
2370.00, 
2371.00, 
2372.00, 
2373.00, 
2374.00, 
2375.00, 
2376.00, 
2377.00, 
2378.00, 
2379.00, 
2380.00, 
2381.00, 
2382.00, 
2383.00, 
2384.00, 
2385.00, 
2386.00, 
2387.00, 
2388.00, 
2389.00, 
2390.00, 
2391.00, 
2392.00, 
2393.00, 
2394.00, 
2395.00, 
2396.00, 
2397.00, 
2398.00, 
2399.00, 
2400.00, 
2401.00, 
2402.00, 
2403.00, 
2404.00, 
2405.00, 
2406.00, 
2407.00, 
2408.00, 
2409.00, 
2410.00, 
2411.00, 
2412.00, 
2413.00, 
2414.00, 
2415.00, 
2416.00, 
2417.00, 
2418.00, 
2419.00, 
2420.00, 
2421.00, 
2422.00, 
2423.00, 
2424.00, 
2425.00, 
2426.00, 
2427.00, 
2428.00, 
2429.00, 
2430.00, 
2431.00, 
2432.00, 
2433.00, 
2434.00, 
2435.00, 
2436.00, 
2437.00, 
2438.00, 
2439.00, 
2440.00, 
2441.00, 
2442.00, 
2443.00, 
2444.00, 
2445.00, 
2446.00, 
2447.00, 
2448.00, 
2449.00, 
2450.00, 
2451.00, 
2452.00, 
2453.00, 
2454.00, 
2455.00, 
2456.00, 
2457.00, 
2458.00, 
2459.00, 
2460.00, 
2461.00, 
2462.00, 
2463.00, 
2464.00, 
2465.00, 
2466.00, 
2467.00, 
2468.00, 
2469.00, 
2470.00, 
2471.00, 
2472.00, 
2473.00, 
2474.00, 
2475.00, 
2476.00, 
2477.00, 
2478.00, 
2479.00, 
2480.00, 
2481.00, 
2482.00, 
2483.00, 
2484.00, 
2485.00, 
2486.00, 
2487.00, 
2488.00, 
2489.00, 
2490.00, 
2491.00, 
2492.00, 
2493.00, 
2494.00, 
2495.00, 
2496.00, 
2497.00, 
2498.00, 
2499.00, 
2500.00, 
2501.00, 
2502.00, 
2503.00, 
2504.00, 
2505.00, 
2506.00, 
2507.00, 
2508.00, 
2509.00, 
2510.00, 
2511.00, 
2512.00, 
2513.00, 
2514.00, 
2515.00, 
2516.00, 
2517.00, 
2518.00, 
2519.00, 
2520.00, 
2521.00, 
2522.00, 
2523.00, 
2524.00, 
2525.00, 
2526.00, 
2527.00, 
2528.00, 
2529.00, 
2530.00, 
2531.00, 
2532.00, 
2533.00, 
2534.00, 
2535.00, 
2536.00, 
2537.00, 
2538.00, 
2539.00, 
2540.00, 
2541.00, 
2542.00, 
2543.00, 
2544.00, 
2545.00, 
2546.00, 
2547.00, 
2548.00, 
2549.00, 
2550.00, 
2551.00, 
2552.00, 
2553.00, 
2554.00, 
2555.00, 
2556.00, 
2557.00, 
2558.00, 
2559.00, 
2560.00, 
2561.00, 
2562.00, 
2563.00, 
2564.00, 
2565.00, 
2566.00, 
2567.00, 
2568.00, 
2569.00, 
2570.00, 
2571.00, 
2572.00, 
2573.00, 
2574.00, 
2575.00, 
2576.00, 
2577.00, 
2578.00, 
2579.00, 
2580.00, 
2581.00, 
2582.00, 
2583.00, 
2584.00, 
2585.00, 
2586.00, 
2587.00, 
2588.00, 
2589.00, 
2590.00, 
2591.00, 
2592.00, 
2593.00, 
2594.00, 
2595.00, 
2596.00, 
2597.00, 
2598.00, 
2599.00, 
2600.00, 
