"1cP3 - RawData"
"Wavelength nm.","T%"
200.00,0.008
201.00,0.000
202.00,0.002
203.00,0.004
204.00,0.001
205.00,0.004
206.00,-0.000
207.00,0.004
208.00,-0.000
209.00,-0.001
210.00,0.002
211.00,0.001
212.00,-0.000
213.00,0.001
214.00,0.001
215.00,-0.001
216.00,0.000
217.00,-0.000
218.00,0.000
219.00,0.002
220.00,0.005
221.00,-0.000
222.00,0.001
223.00,0.002
224.00,-0.001
225.00,0.003
226.00,0.004
227.00,0.002
228.00,0.000
229.00,0.002
230.00,0.002
231.00,0.001
232.00,0.001
233.00,0.001
234.00,-0.000
235.00,0.001
236.00,0.002
237.00,0.001
238.00,-0.001
239.00,0.003
240.00,0.002
241.00,0.000
242.00,0.001
243.00,-0.001
244.00,-0.001
245.00,0.002
246.00,-0.000
247.00,0.000
248.00,0.002
249.00,0.003
250.00,0.002
251.00,-0.001
252.00,0.001
253.00,0.001
254.00,0.001
255.00,-0.000
256.00,0.001
257.00,0.002
258.00,0.001
259.00,-0.000
260.00,0.000
261.00,0.002
262.00,0.001
263.00,0.000
264.00,0.002
265.00,-0.000
266.00,-0.001
267.00,-0.000
268.00,0.001
269.00,0.001
270.00,0.002
271.00,0.000
272.00,-0.001
273.00,-0.001
274.00,-0.001
275.00,0.001
276.00,0.001
277.00,0.001
278.00,0.000
279.00,0.002
280.00,0.003
281.00,0.000
282.00,0.000
283.00,0.000
284.00,0.001
285.00,0.002
286.00,-0.000
287.00,0.002
288.00,0.001
289.00,-0.000
290.00,-0.000
291.00,0.000
292.00,0.002
293.00,-0.002
294.00,0.003
295.00,0.003
296.00,0.001
297.00,0.002
298.00,-0.001
299.00,0.001
300.00,-0.000
301.00,0.002
302.00,0.002
303.00,0.000
304.00,0.001
305.00,0.001
306.00,0.002
307.00,-0.001
308.00,0.010
309.00,0.016
310.00,0.025
311.00,0.041
312.00,0.062
313.00,0.088
314.00,0.142
315.00,0.215
316.00,0.316
317.00,0.437
318.00,0.570
319.00,0.811
320.00,1.089
321.00,1.406
322.00,1.829
323.00,2.299
324.00,2.849
325.00,3.447
326.00,4.128
327.00,4.855
328.00,5.710
329.00,6.627
330.00,7.607
331.00,8.550
332.00,9.648
333.00,10.782
334.00,11.939
335.00,13.097
336.00,14.296
337.00,15.567
338.00,16.805
339.00,17.960
340.00,19.068
341.00,20.319
342.00,21.461
343.00,22.616
344.00,23.579
345.00,24.691
346.00,25.591
347.00,26.618
348.00,27.566
349.00,28.443
350.00,29.323
351.00,30.122
352.00,30.919
353.00,31.540
354.00,32.136
355.00,32.778
356.00,33.438
357.00,34.102
358.00,34.509
359.00,35.162
360.00,35.653
361.00,35.970
362.00,36.324
363.00,36.721
364.00,37.049
365.00,37.308
366.00,37.549
367.00,37.840
368.00,38.011
369.00,38.157
370.00,38.367
371.00,38.525
372.00,38.626
373.00,38.692
374.00,38.669
375.00,38.637
376.00,38.686
377.00,38.660
378.00,38.479
379.00,38.379
380.00,38.463
381.00,38.475
382.00,38.588
383.00,38.563
384.00,38.862
385.00,39.073
386.00,39.205
387.00,39.514
388.00,39.648
389.00,39.729
390.00,39.932
391.00,40.041
392.00,40.218
393.00,40.270
394.00,40.466
395.00,40.497
396.00,40.549
397.00,40.693
398.00,40.659
399.00,40.875
400.00,40.904
401.00,40.974
402.00,41.124
403.00,41.249
404.00,41.079
405.00,41.144
406.00,41.169
407.00,41.038
408.00,41.066
409.00,41.051
410.00,40.974
411.00,40.888
412.00,40.752
413.00,40.817
414.00,40.933
415.00,40.982
416.00,41.001
417.00,41.037
418.00,41.039
419.00,41.173
420.00,41.304
421.00,41.104
422.00,41.045
423.00,41.116
424.00,41.145
425.00,41.110
426.00,41.360
427.00,41.224
428.00,41.403
429.00,41.258
430.00,41.305
431.00,41.279
432.00,41.369
433.00,41.441
434.00,41.360
435.00,41.441
436.00,41.401
437.00,41.584
438.00,41.634
439.00,41.638
440.00,41.695
441.00,41.685
442.00,41.826
443.00,41.915
444.00,41.956
445.00,42.017
446.00,42.044
447.00,42.158
448.00,42.224
449.00,42.329
450.00,42.320
451.00,42.401
452.00,42.462
453.00,42.542
454.00,42.652
455.00,42.647
456.00,42.764
457.00,42.896
458.00,42.963
459.00,43.077
460.00,43.064
461.00,43.203
462.00,43.265
463.00,43.398
464.00,43.382
465.00,43.588
466.00,43.664
467.00,43.680
468.00,43.742
469.00,43.774
470.00,43.826
471.00,43.779
472.00,43.822
473.00,43.926
474.00,43.824
475.00,43.878
476.00,43.979
477.00,44.104
478.00,44.096
479.00,44.049
480.00,44.260
481.00,44.288
482.00,44.456
483.00,44.477
484.00,44.656
485.00,44.799
486.00,44.852
487.00,45.087
488.00,45.197
489.00,45.220
490.00,45.478
491.00,45.571
492.00,45.275
493.00,45.390
494.00,45.382
495.00,45.566
496.00,45.700
497.00,45.720
498.00,45.725
499.00,45.896
500.00,45.978
501.00,45.953
502.00,46.104
503.00,46.089
504.00,46.081
505.00,46.233
506.00,46.280
507.00,46.325
508.00,46.482
509.00,46.481
510.00,46.486
511.00,46.678
512.00,46.732
513.00,46.765
514.00,46.835
515.00,46.906
516.00,46.818
517.00,47.018
518.00,47.081
519.00,46.984
520.00,47.019
521.00,47.129
522.00,47.041
523.00,47.136
524.00,47.373
525.00,47.482
526.00,47.517
527.00,47.611
528.00,47.736
529.00,47.864
530.00,47.958
531.00,47.884
532.00,47.953
533.00,48.058
534.00,48.031
535.00,48.055
536.00,48.177
537.00,48.159
538.00,48.199
539.00,48.263
540.00,48.248
541.00,48.314
542.00,48.326
543.00,48.322
544.00,48.456
545.00,48.445
546.00,48.538
547.00,48.570
548.00,48.523
549.00,48.716
550.00,48.758
551.00,48.839
552.00,48.784
553.00,48.862
554.00,48.816
555.00,48.979
556.00,49.001
557.00,48.934
558.00,49.033
559.00,49.053
560.00,49.251
561.00,49.360
562.00,49.131
563.00,49.239
564.00,49.330
565.00,49.195
566.00,49.263
567.00,49.286
568.00,49.260
569.00,49.251
570.00,49.347
571.00,49.320
572.00,49.317
573.00,49.276
574.00,49.213
575.00,49.177
576.00,49.336
577.00,49.337
578.00,49.264
579.00,49.346
580.00,49.616
581.00,49.567
582.00,49.723
583.00,49.765
584.00,49.732
585.00,49.730
586.00,49.894
587.00,49.878
588.00,49.801
589.00,49.736
590.00,49.750
591.00,49.804
592.00,49.778
593.00,49.900
594.00,49.862
595.00,49.868
596.00,49.993
597.00,50.178
598.00,50.136
599.00,50.018
600.00,50.335
601.00,50.444
602.00,49.981
603.00,50.027
604.00,50.077
605.00,49.957
606.00,49.970
607.00,50.307
608.00,50.290
609.00,50.287
610.00,50.285
611.00,50.086
612.00,50.132
613.00,50.215
614.00,50.480
615.00,50.227
616.00,50.239
617.00,50.256
618.00,50.241
619.00,50.244
620.00,50.288
621.00,50.180
622.00,50.431
623.00,50.443
624.00,50.524
625.00,50.595
626.00,50.640
627.00,50.480
628.00,50.540
629.00,50.464
630.00,50.453
631.00,50.437
632.00,50.611
633.00,50.682
634.00,50.530
635.00,50.721
636.00,50.669
637.00,50.519
638.00,50.606
639.00,50.590
640.00,50.628
641.00,50.676
642.00,50.719
643.00,50.761
644.00,50.733
645.00,50.859
646.00,50.892
647.00,50.963
648.00,50.785
649.00,50.851
650.00,50.857
651.00,50.874
652.00,50.957
653.00,50.835
654.00,50.909
655.00,51.145
656.00,51.390
657.00,51.287
658.00,51.286
659.00,51.142
660.00,51.247
661.00,50.764
662.00,51.513
663.00,51.218
664.00,51.501
665.00,51.253
666.00,50.957
667.00,51.406
668.00,51.664
669.00,50.760
670.00,50.982
671.00,51.615
672.00,51.576
673.00,51.189
674.00,51.350
675.00,51.350
676.00,51.188
677.00,51.321
678.00,51.332
679.00,51.618
680.00,51.754
681.00,51.183
682.00,51.510
683.00,51.251
684.00,51.055
685.00,51.287
686.00,51.167
687.00,51.199
688.00,51.433
689.00,51.478
690.00,51.278
691.00,51.636
692.00,51.786
693.00,51.243
694.00,51.242
695.00,51.385
696.00,51.380
697.00,51.280
698.00,51.388
699.00,51.341
700.00,51.150
701.00,51.425
702.00,51.587
703.00,51.506
704.00,51.447
705.00,51.607
706.00,51.977
707.00,51.475
708.00,51.209
709.00,51.379
710.00,51.307
711.00,51.091
712.00,51.475
713.00,51.595
714.00,51.294
715.00,51.345
716.00,51.292
717.00,51.405
718.00,51.445
719.00,51.358
720.00,51.441
721.00,56.476
722.00,56.420
723.00,56.537
724.00,56.311
725.00,56.282
726.00,56.004
727.00,56.204
728.00,56.231
729.00,56.035
730.00,56.154
731.00,56.066
732.00,55.944
733.00,55.931
734.00,56.030
735.00,55.934
736.00,55.940
737.00,55.922
738.00,55.994
739.00,55.930
740.00,55.709
741.00,55.871
742.00,55.883
743.00,55.674
744.00,55.640
745.00,55.597
746.00,55.622
747.00,55.432
748.00,55.483
749.00,55.304
750.00,55.383
751.00,55.319
752.00,55.353
753.00,55.233
754.00,55.082
755.00,55.254
756.00,55.149
757.00,55.119
758.00,54.927
759.00,55.053
760.00,55.014
761.00,54.884
762.00,54.724
763.00,54.910
764.00,54.865
765.00,54.665
766.00,54.787
767.00,54.637
768.00,54.583
769.00,54.706
770.00,54.636
771.00,54.638
772.00,54.602
773.00,54.585
774.00,54.507
775.00,54.516
776.00,54.387
777.00,54.471
778.00,54.404
779.00,54.365
780.00,54.363
781.00,54.281
782.00,54.359
783.00,54.219
784.00,54.100
785.00,54.162
786.00,54.235
787.00,54.217
788.00,54.025
789.00,54.134
790.00,53.928
791.00,54.039
792.00,53.887
793.00,53.764
794.00,53.875
795.00,53.834
796.00,53.982
797.00,53.736
798.00,53.725
799.00,53.584
800.00,53.595
801.00,53.550
802.00,53.518
803.00,53.433
804.00,53.530
805.00,53.407
806.00,53.440
807.00,53.253
808.00,53.388
809.00,53.165
810.00,53.328
811.00,53.255
812.00,53.093
813.00,53.214
814.00,53.055
815.00,53.040
816.00,53.203
817.00,53.108
818.00,53.031
819.00,53.124
820.00,53.015
821.00,52.906
822.00,52.908
823.00,52.814
824.00,52.764
825.00,52.740
826.00,52.865
827.00,52.874
828.00,52.795
829.00,52.824
830.00,52.537
831.00,55.041
832.00,55.039
833.00,54.998
834.00,54.922
835.00,54.961
836.00,54.982
837.00,54.861
838.00,54.901
839.00,54.875
840.00,54.892
841.00,54.721
842.00,54.866
843.00,54.759
844.00,54.837
845.00,54.725
846.00,54.655
847.00,54.596
848.00,54.654
849.00,54.555
850.00,54.547
851.00,54.539
852.00,54.485
853.00,54.369
854.00,54.325
855.00,54.380
856.00,54.201
857.00,54.306
858.00,54.172
859.00,54.197
860.00,54.236
861.00,54.153
862.00,54.082
863.00,54.137
864.00,54.104
865.00,54.001
866.00,54.005
867.00,54.046
868.00,54.028
869.00,53.974
870.00,53.961
871.00,53.972
872.00,53.945
873.00,53.871
874.00,53.925
875.00,53.876
876.00,53.883
877.00,53.864
878.00,53.798
879.00,53.752
880.00,53.795
881.00,53.775
882.00,53.783
883.00,53.749
884.00,53.624
885.00,53.699
886.00,53.624
887.00,53.564
888.00,53.530
889.00,53.600
890.00,53.530
891.00,53.546
892.00,53.485
893.00,53.498
894.00,53.455
895.00,53.388
896.00,53.381
897.00,53.385
898.00,53.287
899.00,53.341
900.00,53.280
901.00,53.301
902.00,53.287
903.00,53.275
904.00,53.218
905.00,53.208
906.00,53.251
907.00,53.131
908.00,53.104
909.00,53.118
910.00,53.083
911.00,53.095
912.00,53.026
913.00,53.030
914.00,53.041
915.00,52.990
916.00,52.951
917.00,52.944
918.00,52.949
919.00,52.919
920.00,52.848
921.00,52.846
922.00,52.863
923.00,52.783
924.00,52.748
925.00,52.766
926.00,52.729
927.00,52.739
928.00,52.717
929.00,52.708
930.00,52.679
931.00,52.630
932.00,52.592
933.00,52.593
934.00,52.594
935.00,52.548
936.00,52.494
937.00,52.527
938.00,52.504
939.00,52.471
940.00,52.468
941.00,52.440
942.00,52.423
943.00,52.392
944.00,52.382
945.00,52.345
946.00,52.335
947.00,52.286
948.00,52.276
949.00,52.272
950.00,52.235
951.00,52.191
952.00,52.165
953.00,52.144
954.00,52.131
955.00,52.086
956.00,52.067
957.00,52.054
958.00,52.026
959.00,52.018
960.00,51.946
961.00,51.983
962.00,52.002
963.00,51.932
964.00,51.902
965.00,51.935
966.00,51.894
967.00,51.887
968.00,51.858
969.00,51.887
970.00,51.881
971.00,51.850
972.00,51.848
973.00,51.854
974.00,51.870
975.00,51.848
976.00,51.817
977.00,51.862
978.00,51.842
979.00,51.834
980.00,51.810
981.00,51.849
982.00,51.779
983.00,51.886
984.00,51.805
985.00,51.805
986.00,51.754
987.00,51.795
988.00,51.797
989.00,51.741
990.00,51.761
991.00,51.737
992.00,51.732
993.00,51.685
994.00,51.671
995.00,51.690
996.00,51.624
997.00,51.631
998.00,51.664
999.00,51.606
1000.00,51.576
1001.00,51.575
1002.00,51.596
1003.00,51.564
1004.00,51.558
1005.00,51.514
1006.00,51.544
1007.00,51.521
1008.00,51.497
1009.00,51.475
1010.00,51.459
1011.00,51.485
1012.00,51.440
1013.00,51.438
1014.00,51.478
1015.00,51.389
1016.00,51.381
1017.00,51.335
1018.00,51.340
1019.00,51.307
1020.00,51.322
1021.00,51.296
1022.00,51.277
1023.00,51.257
1024.00,51.260
1025.00,51.250
1026.00,51.234
1027.00,51.213
1028.00,51.169
1029.00,51.174
1030.00,51.106
1031.00,51.121
1032.00,51.133
1033.00,51.106
1034.00,51.089
1035.00,51.042
1036.00,51.072
1037.00,51.047
1038.00,51.016
1039.00,50.978
1040.00,50.959
1041.00,50.927
1042.00,50.931
1043.00,50.953
1044.00,50.958
1045.00,50.946
1046.00,50.934
1047.00,50.975
1048.00,50.965
1049.00,50.960
1050.00,50.959
1051.00,50.973
1052.00,50.976
1053.00,50.982
1054.00,50.997
1055.00,51.015
1056.00,51.039
1057.00,51.050
1058.00,51.056
1059.00,51.080
1060.00,51.033
1061.00,51.029
1062.00,51.013
1063.00,50.986
1064.00,50.990
1065.00,50.990
1066.00,50.976
1067.00,50.960
1068.00,50.974
1069.00,50.938
1070.00,50.943
1071.00,50.933
1072.00,50.907
1073.00,50.883
1074.00,50.872
1075.00,50.865
1076.00,50.849
1077.00,50.856
1078.00,50.860
1079.00,50.850
1080.00,50.866
1081.00,50.848
1082.00,50.811
1083.00,50.833
1084.00,50.834
1085.00,50.815
1086.00,50.802
1087.00,50.794
1088.00,50.782
1089.00,50.809
1090.00,50.805
1091.00,50.788
1092.00,50.770
1093.00,50.756
1094.00,50.748
1095.00,50.749
1096.00,50.710
1097.00,50.707
1098.00,50.722
1099.00,50.686
1100.00,50.676
1101.00,50.679
1102.00,50.679
1103.00,50.656
1104.00,50.639
1105.00,50.679
1106.00,50.633
1107.00,50.620
1108.00,50.618
1109.00,50.636
1110.00,50.625
1111.00,50.617
1112.00,50.584
1113.00,50.601
1114.00,50.581
1115.00,50.595
1116.00,50.589
1117.00,50.560
1118.00,50.555
1119.00,50.549
1120.00,50.554
1121.00,50.538
1122.00,50.556
1123.00,50.507
1124.00,50.521
1125.00,50.508
1126.00,50.480
1127.00,50.486
1128.00,50.473
1129.00,50.439
1130.00,50.447
1131.00,50.461
1132.00,50.448
1133.00,50.461
1134.00,50.392
1135.00,50.433
1136.00,50.422
1137.00,50.416
1138.00,50.427
1139.00,50.434
1140.00,50.392
1141.00,50.403
1142.00,50.413
1143.00,50.441
1144.00,50.400
1145.00,50.399
1146.00,50.412
1147.00,50.382
1148.00,50.370
1149.00,50.396
1150.00,50.402
1151.00,50.371
1152.00,50.348
1153.00,50.390
1154.00,50.372
1155.00,50.388
1156.00,50.378
1157.00,50.382
1158.00,50.388
1159.00,50.355
1160.00,50.381
1161.00,50.389
1162.00,50.386
1163.00,50.395
1164.00,50.399
1165.00,50.393
1166.00,50.403
1167.00,50.365
1168.00,50.385
1169.00,50.374
1170.00,50.376
1171.00,50.353
1172.00,50.358
1173.00,50.355
1174.00,50.341
1175.00,50.356
1176.00,50.357
1177.00,50.369
1178.00,50.353
1179.00,50.385
1180.00,50.369
1181.00,50.360
1182.00,50.337
1183.00,50.354
1184.00,50.330
1185.00,50.337
1186.00,50.341
1187.00,50.336
1188.00,50.379
1189.00,50.340
1190.00,50.358
1191.00,50.330
1192.00,50.353
1193.00,50.360
1194.00,50.344
1195.00,50.345
1196.00,50.339
1197.00,50.376
1198.00,50.337
1199.00,50.365
1200.00,50.340
1201.00,50.348
1202.00,50.339
1203.00,50.347
1204.00,50.351
1205.00,50.361
1206.00,50.356
1207.00,50.374
1208.00,50.375
1209.00,50.352
1210.00,50.387
1211.00,50.341
1212.00,50.357
1213.00,50.338
1214.00,50.335
1215.00,50.332
1216.00,50.308
1217.00,50.350
1218.00,50.351
1219.00,50.365
1220.00,50.341
1221.00,50.375
1222.00,50.362
1223.00,50.350
1224.00,50.383
1225.00,50.341
1226.00,50.402
1227.00,50.372
1228.00,50.348
1229.00,50.366
1230.00,50.436
1231.00,50.424
1232.00,50.401
1233.00,50.456
1234.00,50.432
1235.00,50.446
1236.00,50.418
1237.00,50.452
1238.00,50.430
1239.00,50.413
1240.00,50.401
1241.00,50.449
1242.00,50.454
1243.00,50.435
1244.00,50.439
1245.00,50.443
1246.00,50.458
1247.00,50.455
1248.00,50.470
1249.00,50.464
1250.00,50.490
1251.00,50.472
1252.00,50.487
1253.00,50.479
1254.00,50.506
1255.00,50.479
1256.00,50.493
1257.00,50.473
1258.00,50.488
1259.00,50.500
1260.00,50.512
1261.00,50.510
1262.00,50.509
1263.00,50.530
1264.00,50.532
1265.00,50.547
1266.00,50.538
1267.00,50.563
1268.00,50.548
1269.00,50.550
1270.00,50.581
1271.00,50.588
1272.00,50.571
1273.00,50.616
1274.00,50.603
1275.00,50.611
1276.00,50.609
1277.00,50.619
1278.00,50.630
1279.00,50.637
1280.00,50.618
1281.00,50.644
1282.00,50.621
1283.00,50.604
1284.00,50.644
1285.00,50.654
1286.00,50.648
1287.00,50.685
1288.00,50.663
1289.00,50.657
1290.00,50.701
1291.00,50.689
1292.00,50.693
1293.00,50.710
1294.00,50.731
1295.00,50.719
1296.00,50.751
1297.00,50.732
1298.00,50.753
1299.00,50.765
1300.00,50.754
1301.00,50.750
1302.00,50.801
1303.00,50.795
1304.00,50.823
1305.00,50.799
1306.00,50.836
1307.00,50.849
1308.00,50.823
1309.00,50.846
1310.00,50.850
1311.00,50.831
1312.00,50.821
1313.00,50.849
1314.00,50.852
1315.00,50.861
1316.00,50.876
1317.00,50.888
1318.00,50.921
1319.00,50.924
1320.00,50.904
1321.00,51.026
1322.00,50.993
1323.00,51.004
1324.00,50.997
1325.00,51.025
1326.00,51.007
1327.00,51.048
1328.00,50.999
1329.00,51.013
1330.00,51.018
1331.00,51.063
1332.00,50.990
1333.00,51.025
1334.00,51.085
1335.00,51.084
1336.00,51.109
1337.00,51.171
1338.00,51.223
1339.00,51.252
1340.00,51.298
1341.00,51.376
1342.00,51.447
1343.00,51.481
1344.00,51.510
1345.00,51.587
1346.00,51.694
1347.00,51.640
1348.00,51.630
1349.00,51.683
1350.00,51.722
1351.00,51.709
1352.00,51.656
1353.00,51.762
1354.00,51.780
1355.00,51.713
1356.00,51.689
1357.00,51.753
1358.00,51.891
1359.00,51.810
1360.00,51.922
1361.00,52.076
1362.00,51.867
1363.00,51.733
1364.00,51.596
1365.00,51.751
1366.00,51.996
1367.00,51.803
1368.00,51.966
1369.00,52.266
1370.00,51.792
1371.00,51.820
1372.00,51.799
1373.00,51.747
1374.00,51.829
1375.00,51.793
1376.00,51.936
1377.00,51.652
1378.00,52.152
1379.00,51.472
1380.00,52.091
1381.00,51.549
1382.00,51.773
1383.00,51.884
1384.00,51.811
1385.00,51.778
1386.00,51.895
1387.00,51.778
1388.00,51.812
1389.00,51.781
1390.00,51.917
1391.00,51.462
1392.00,51.740
1393.00,51.960
1394.00,51.973
1395.00,51.611
1396.00,51.814
1397.00,51.993
1398.00,52.014
1399.00,51.800
1400.00,51.742
1401.00,51.938
1402.00,52.166
1403.00,51.986
1404.00,51.991
1405.00,51.877
1406.00,51.882
1407.00,51.937
1408.00,51.855
1409.00,51.901
1410.00,51.962
1411.00,51.873
1412.00,52.140
1413.00,51.936
1414.00,51.928
1415.00,52.021
1416.00,51.955
1417.00,52.116
1418.00,51.983
1419.00,52.026
1420.00,52.047
1421.00,52.118
1422.00,52.058
1423.00,52.114
1424.00,52.080
1425.00,52.116
1426.00,52.112
1427.00,52.144
1428.00,52.147
1429.00,52.174
1430.00,52.210
1431.00,52.180
1432.00,52.280
1433.00,52.189
1434.00,52.292
1435.00,52.302
1436.00,52.315
1437.00,52.276
1438.00,52.382
1439.00,52.301
1440.00,52.369
1441.00,52.404
1442.00,52.411
1443.00,52.390
1444.00,52.573
1445.00,52.448
1446.00,52.492
1447.00,52.497
1448.00,52.566
1449.00,52.538
1450.00,52.561
1451.00,52.545
1452.00,52.585
1453.00,52.607
1454.00,52.576
1455.00,52.652
1456.00,52.646
1457.00,52.693
1458.00,52.689
1459.00,52.714
1460.00,52.722
1461.00,52.769
1462.00,52.719
1463.00,52.765
1464.00,52.794
1465.00,52.815
1466.00,52.818
1467.00,52.829
1468.00,52.879
1469.00,52.899
1470.00,52.882
1471.00,52.877
1472.00,52.929
1473.00,52.925
1474.00,52.977
1475.00,52.991
1476.00,53.002
1477.00,52.990
1478.00,53.032
1479.00,53.023
1480.00,53.068
1481.00,53.062
1482.00,53.085
1483.00,53.113
1484.00,53.101
1485.00,53.118
1486.00,53.120
1487.00,53.178
1488.00,53.148
1489.00,53.164
1490.00,53.191
1491.00,53.226
1492.00,53.222
1493.00,53.241
1494.00,53.268
1495.00,53.264
1496.00,53.280
1497.00,53.286
1498.00,53.287
1499.00,53.339
1500.00,53.320
1501.00, 
1502.00, 
1503.00, 
1504.00, 
1505.00, 
1506.00, 
1507.00, 
1508.00, 
1509.00, 
1510.00, 
1511.00, 
1512.00, 
1513.00, 
1514.00, 
1515.00, 
1516.00, 
1517.00, 
1518.00, 
1519.00, 
1520.00, 
1521.00, 
1522.00, 
1523.00, 
1524.00, 
1525.00, 
1526.00, 
1527.00, 
1528.00, 
1529.00, 
1530.00, 
1531.00, 
1532.00, 
1533.00, 
1534.00, 
1535.00, 
1536.00, 
1537.00, 
1538.00, 
1539.00, 
1540.00, 
1541.00, 
1542.00, 
1543.00, 
1544.00, 
1545.00, 
1546.00, 
1547.00, 
1548.00, 
1549.00, 
1550.00, 
1551.00, 
1552.00, 
1553.00, 
1554.00, 
1555.00, 
1556.00, 
1557.00, 
1558.00, 
1559.00, 
1560.00, 
1561.00, 
1562.00, 
1563.00, 
1564.00, 
1565.00, 
1566.00, 
1567.00, 
1568.00, 
1569.00, 
1570.00, 
1571.00, 
1572.00, 
1573.00, 
1574.00, 
1575.00, 
1576.00, 
1577.00, 
1578.00, 
1579.00, 
1580.00, 
1581.00, 
1582.00, 
1583.00, 
1584.00, 
1585.00, 
1586.00, 
1587.00, 
1588.00, 
1589.00, 
1590.00, 
1591.00, 
1592.00, 
1593.00, 
1594.00, 
1595.00, 
1596.00, 
1597.00, 
1598.00, 
1599.00, 
1600.00, 
1601.00, 
1602.00, 
1603.00, 
1604.00, 
1605.00, 
1606.00, 
1607.00, 
1608.00, 
1609.00, 
1610.00, 
1611.00, 
1612.00, 
1613.00, 
1614.00, 
1615.00, 
1616.00, 
1617.00, 
1618.00, 
1619.00, 
1620.00, 
1621.00, 
1622.00, 
1623.00, 
1624.00, 
1625.00, 
1626.00, 
1627.00, 
1628.00, 
1629.00, 
1630.00, 
1631.00, 
1632.00, 
1633.00, 
1634.00, 
1635.00, 
1636.00, 
1637.00, 
1638.00, 
1639.00, 
1640.00, 
1641.00, 
1642.00, 
1643.00, 
1644.00, 
1645.00, 
1646.00, 
1647.00, 
1648.00, 
1649.00, 
1650.00, 
1651.00, 
1652.00, 
1653.00, 
1654.00, 
1655.00, 
1656.00, 
1657.00, 
1658.00, 
1659.00, 
1660.00, 
1661.00, 
1662.00, 
1663.00, 
1664.00, 
1665.00, 
1666.00, 
1667.00, 
1668.00, 
1669.00, 
1670.00, 
1671.00, 
1672.00, 
1673.00, 
1674.00, 
1675.00, 
1676.00, 
1677.00, 
1678.00, 
1679.00, 
1680.00, 
1681.00, 
1682.00, 
1683.00, 
1684.00, 
1685.00, 
1686.00, 
1687.00, 
1688.00, 
1689.00, 
1690.00, 
1691.00, 
1692.00, 
1693.00, 
1694.00, 
1695.00, 
1696.00, 
1697.00, 
1698.00, 
1699.00, 
1700.00, 
1701.00, 
1702.00, 
1703.00, 
1704.00, 
1705.00, 
1706.00, 
1707.00, 
1708.00, 
1709.00, 
1710.00, 
1711.00, 
1712.00, 
1713.00, 
1714.00, 
1715.00, 
1716.00, 
1717.00, 
1718.00, 
1719.00, 
1720.00, 
1721.00, 
1722.00, 
1723.00, 
1724.00, 
1725.00, 
1726.00, 
1727.00, 
1728.00, 
1729.00, 
1730.00, 
1731.00, 
1732.00, 
1733.00, 
1734.00, 
1735.00, 
1736.00, 
1737.00, 
1738.00, 
1739.00, 
1740.00, 
1741.00, 
1742.00, 
1743.00, 
1744.00, 
1745.00, 
1746.00, 
1747.00, 
1748.00, 
1749.00, 
1750.00, 
1751.00, 
1752.00, 
1753.00, 
1754.00, 
1755.00, 
1756.00, 
1757.00, 
1758.00, 
1759.00, 
1760.00, 
1761.00, 
1762.00, 
1763.00, 
1764.00, 
1765.00, 
1766.00, 
1767.00, 
1768.00, 
1769.00, 
1770.00, 
1771.00, 
1772.00, 
1773.00, 
1774.00, 
1775.00, 
1776.00, 
1777.00, 
1778.00, 
1779.00, 
1780.00, 
1781.00, 
1782.00, 
1783.00, 
1784.00, 
1785.00, 
1786.00, 
1787.00, 
1788.00, 
1789.00, 
1790.00, 
1791.00, 
1792.00, 
1793.00, 
1794.00, 
1795.00, 
1796.00, 
1797.00, 
1798.00, 
1799.00, 
1800.00, 
1801.00, 
1802.00, 
1803.00, 
1804.00, 
1805.00, 
1806.00, 
1807.00, 
1808.00, 
1809.00, 
1810.00, 
1811.00, 
1812.00, 
1813.00, 
1814.00, 
1815.00, 
1816.00, 
1817.00, 
1818.00, 
1819.00, 
1820.00, 
1821.00, 
1822.00, 
1823.00, 
1824.00, 
1825.00, 
1826.00, 
1827.00, 
1828.00, 
1829.00, 
1830.00, 
1831.00, 
1832.00, 
1833.00, 
1834.00, 
1835.00, 
1836.00, 
1837.00, 
1838.00, 
1839.00, 
1840.00, 
1841.00, 
1842.00, 
1843.00, 
1844.00, 
1845.00, 
1846.00, 
1847.00, 
1848.00, 
1849.00, 
1850.00, 
1851.00, 
1852.00, 
1853.00, 
1854.00, 
1855.00, 
1856.00, 
1857.00, 
1858.00, 
1859.00, 
1860.00, 
1861.00, 
1862.00, 
1863.00, 
1864.00, 
1865.00, 
1866.00, 
1867.00, 
1868.00, 
1869.00, 
1870.00, 
1871.00, 
1872.00, 
1873.00, 
1874.00, 
1875.00, 
1876.00, 
1877.00, 
1878.00, 
1879.00, 
1880.00, 
1881.00, 
1882.00, 
1883.00, 
1884.00, 
1885.00, 
1886.00, 
1887.00, 
1888.00, 
1889.00, 
1890.00, 
1891.00, 
1892.00, 
1893.00, 
1894.00, 
1895.00, 
1896.00, 
1897.00, 
1898.00, 
1899.00, 
1900.00, 
1901.00, 
1902.00, 
1903.00, 
1904.00, 
1905.00, 
1906.00, 
1907.00, 
1908.00, 
1909.00, 
1910.00, 
1911.00, 
1912.00, 
1913.00, 
1914.00, 
1915.00, 
1916.00, 
1917.00, 
1918.00, 
1919.00, 
1920.00, 
1921.00, 
1922.00, 
1923.00, 
1924.00, 
1925.00, 
1926.00, 
1927.00, 
1928.00, 
1929.00, 
1930.00, 
1931.00, 
1932.00, 
1933.00, 
1934.00, 
1935.00, 
1936.00, 
1937.00, 
1938.00, 
1939.00, 
1940.00, 
1941.00, 
1942.00, 
1943.00, 
1944.00, 
1945.00, 
1946.00, 
1947.00, 
1948.00, 
1949.00, 
1950.00, 
1951.00, 
1952.00, 
1953.00, 
1954.00, 
1955.00, 
1956.00, 
1957.00, 
1958.00, 
1959.00, 
1960.00, 
1961.00, 
1962.00, 
1963.00, 
1964.00, 
1965.00, 
1966.00, 
1967.00, 
1968.00, 
1969.00, 
1970.00, 
1971.00, 
1972.00, 
1973.00, 
1974.00, 
1975.00, 
1976.00, 
1977.00, 
1978.00, 
1979.00, 
1980.00, 
1981.00, 
1982.00, 
1983.00, 
1984.00, 
1985.00, 
1986.00, 
1987.00, 
1988.00, 
1989.00, 
1990.00, 
1991.00, 
1992.00, 
1993.00, 
1994.00, 
1995.00, 
1996.00, 
1997.00, 
1998.00, 
1999.00, 
2000.00, 
2001.00, 
2002.00, 
2003.00, 
2004.00, 
2005.00, 
2006.00, 
2007.00, 
2008.00, 
2009.00, 
2010.00, 
2011.00, 
2012.00, 
2013.00, 
2014.00, 
2015.00, 
2016.00, 
2017.00, 
2018.00, 
2019.00, 
2020.00, 
2021.00, 
2022.00, 
2023.00, 
2024.00, 
2025.00, 
2026.00, 
2027.00, 
2028.00, 
2029.00, 
2030.00, 
2031.00, 
2032.00, 
2033.00, 
2034.00, 
2035.00, 
2036.00, 
2037.00, 
2038.00, 
2039.00, 
2040.00, 
2041.00, 
2042.00, 
2043.00, 
2044.00, 
2045.00, 
2046.00, 
2047.00, 
2048.00, 
2049.00, 
2050.00, 
2051.00, 
2052.00, 
2053.00, 
2054.00, 
2055.00, 
2056.00, 
2057.00, 
2058.00, 
2059.00, 
2060.00, 
2061.00, 
2062.00, 
2063.00, 
2064.00, 
2065.00, 
2066.00, 
2067.00, 
2068.00, 
2069.00, 
2070.00, 
2071.00, 
2072.00, 
2073.00, 
2074.00, 
2075.00, 
2076.00, 
2077.00, 
2078.00, 
2079.00, 
2080.00, 
2081.00, 
2082.00, 
2083.00, 
2084.00, 
2085.00, 
2086.00, 
2087.00, 
2088.00, 
2089.00, 
2090.00, 
2091.00, 
2092.00, 
2093.00, 
2094.00, 
2095.00, 
2096.00, 
2097.00, 
2098.00, 
2099.00, 
2100.00, 
2101.00, 
2102.00, 
2103.00, 
2104.00, 
2105.00, 
2106.00, 
2107.00, 
2108.00, 
2109.00, 
2110.00, 
2111.00, 
2112.00, 
2113.00, 
2114.00, 
2115.00, 
2116.00, 
2117.00, 
2118.00, 
2119.00, 
2120.00, 
2121.00, 
2122.00, 
2123.00, 
2124.00, 
2125.00, 
2126.00, 
2127.00, 
2128.00, 
2129.00, 
2130.00, 
2131.00, 
2132.00, 
2133.00, 
2134.00, 
2135.00, 
2136.00, 
2137.00, 
2138.00, 
2139.00, 
2140.00, 
2141.00, 
2142.00, 
2143.00, 
2144.00, 
2145.00, 
2146.00, 
2147.00, 
2148.00, 
2149.00, 
2150.00, 
2151.00, 
2152.00, 
2153.00, 
2154.00, 
2155.00, 
2156.00, 
2157.00, 
2158.00, 
2159.00, 
2160.00, 
2161.00, 
2162.00, 
2163.00, 
2164.00, 
2165.00, 
2166.00, 
2167.00, 
2168.00, 
2169.00, 
2170.00, 
2171.00, 
2172.00, 
2173.00, 
2174.00, 
2175.00, 
2176.00, 
2177.00, 
2178.00, 
2179.00, 
2180.00, 
2181.00, 
2182.00, 
2183.00, 
2184.00, 
2185.00, 
2186.00, 
2187.00, 
2188.00, 
2189.00, 
2190.00, 
2191.00, 
2192.00, 
2193.00, 
2194.00, 
2195.00, 
2196.00, 
2197.00, 
2198.00, 
2199.00, 
2200.00, 
2201.00, 
2202.00, 
2203.00, 
2204.00, 
2205.00, 
2206.00, 
2207.00, 
2208.00, 
2209.00, 
2210.00, 
2211.00, 
2212.00, 
2213.00, 
2214.00, 
2215.00, 
2216.00, 
2217.00, 
2218.00, 
2219.00, 
2220.00, 
2221.00, 
2222.00, 
2223.00, 
2224.00, 
2225.00, 
2226.00, 
2227.00, 
2228.00, 
2229.00, 
2230.00, 
2231.00, 
2232.00, 
2233.00, 
2234.00, 
2235.00, 
2236.00, 
2237.00, 
2238.00, 
2239.00, 
2240.00, 
2241.00, 
2242.00, 
2243.00, 
2244.00, 
2245.00, 
2246.00, 
2247.00, 
2248.00, 
2249.00, 
2250.00, 
2251.00, 
2252.00, 
2253.00, 
2254.00, 
2255.00, 
2256.00, 
2257.00, 
2258.00, 
2259.00, 
2260.00, 
2261.00, 
2262.00, 
2263.00, 
2264.00, 
2265.00, 
2266.00, 
2267.00, 
2268.00, 
2269.00, 
2270.00, 
2271.00, 
2272.00, 
2273.00, 
2274.00, 
2275.00, 
2276.00, 
2277.00, 
2278.00, 
2279.00, 
2280.00, 
2281.00, 
2282.00, 
2283.00, 
2284.00, 
2285.00, 
2286.00, 
2287.00, 
2288.00, 
2289.00, 
2290.00, 
2291.00, 
2292.00, 
2293.00, 
2294.00, 
2295.00, 
2296.00, 
2297.00, 
2298.00, 
2299.00, 
2300.00, 
2301.00, 
2302.00, 
2303.00, 
2304.00, 
2305.00, 
2306.00, 
2307.00, 
2308.00, 
2309.00, 
2310.00, 
2311.00, 
2312.00, 
2313.00, 
2314.00, 
2315.00, 
2316.00, 
2317.00, 
2318.00, 
2319.00, 
2320.00, 
2321.00, 
2322.00, 
2323.00, 
2324.00, 
2325.00, 
2326.00, 
2327.00, 
2328.00, 
2329.00, 
2330.00, 
2331.00, 
2332.00, 
2333.00, 
2334.00, 
2335.00, 
2336.00, 
2337.00, 
2338.00, 
2339.00, 
2340.00, 
2341.00, 
2342.00, 
2343.00, 
2344.00, 
2345.00, 
2346.00, 
2347.00, 
2348.00, 
2349.00, 
2350.00, 
2351.00, 
2352.00, 
2353.00, 
2354.00, 
2355.00, 
2356.00, 
2357.00, 
2358.00, 
2359.00, 
2360.00, 
2361.00, 
2362.00, 
2363.00, 
2364.00, 
2365.00, 
2366.00, 
2367.00, 
2368.00, 
2369.00, 
2370.00, 
2371.00, 
2372.00, 
2373.00, 
2374.00, 
2375.00, 
2376.00, 
2377.00, 
2378.00, 
2379.00, 
2380.00, 
2381.00, 
2382.00, 
2383.00, 
2384.00, 
2385.00, 
2386.00, 
2387.00, 
2388.00, 
2389.00, 
2390.00, 
2391.00, 
2392.00, 
2393.00, 
2394.00, 
2395.00, 
2396.00, 
2397.00, 
2398.00, 
2399.00, 
2400.00, 
2401.00, 
2402.00, 
2403.00, 
2404.00, 
2405.00, 
2406.00, 
2407.00, 
2408.00, 
2409.00, 
2410.00, 
2411.00, 
2412.00, 
2413.00, 
2414.00, 
2415.00, 
2416.00, 
2417.00, 
2418.00, 
2419.00, 
2420.00, 
2421.00, 
2422.00, 
2423.00, 
2424.00, 
2425.00, 
2426.00, 
2427.00, 
2428.00, 
2429.00, 
2430.00, 
2431.00, 
2432.00, 
2433.00, 
2434.00, 
2435.00, 
2436.00, 
2437.00, 
2438.00, 
2439.00, 
2440.00, 
2441.00, 
2442.00, 
2443.00, 
2444.00, 
2445.00, 
2446.00, 
2447.00, 
2448.00, 
2449.00, 
2450.00, 
2451.00, 
2452.00, 
2453.00, 
2454.00, 
2455.00, 
2456.00, 
2457.00, 
2458.00, 
2459.00, 
2460.00, 
2461.00, 
2462.00, 
2463.00, 
2464.00, 
2465.00, 
2466.00, 
2467.00, 
2468.00, 
2469.00, 
2470.00, 
2471.00, 
2472.00, 
2473.00, 
2474.00, 
2475.00, 
2476.00, 
2477.00, 
2478.00, 
2479.00, 
2480.00, 
2481.00, 
2482.00, 
2483.00, 
2484.00, 
2485.00, 
2486.00, 
2487.00, 
2488.00, 
2489.00, 
2490.00, 
2491.00, 
2492.00, 
2493.00, 
2494.00, 
2495.00, 
2496.00, 
2497.00, 
2498.00, 
2499.00, 
2500.00, 
2501.00, 
2502.00, 
2503.00, 
2504.00, 
2505.00, 
2506.00, 
2507.00, 
2508.00, 
2509.00, 
2510.00, 
2511.00, 
2512.00, 
2513.00, 
2514.00, 
2515.00, 
2516.00, 
2517.00, 
2518.00, 
2519.00, 
2520.00, 
2521.00, 
2522.00, 
2523.00, 
2524.00, 
2525.00, 
2526.00, 
2527.00, 
2528.00, 
2529.00, 
2530.00, 
2531.00, 
2532.00, 
2533.00, 
2534.00, 
2535.00, 
2536.00, 
2537.00, 
2538.00, 
2539.00, 
2540.00, 
2541.00, 
2542.00, 
2543.00, 
2544.00, 
2545.00, 
2546.00, 
2547.00, 
2548.00, 
2549.00, 
2550.00, 
2551.00, 
2552.00, 
2553.00, 
2554.00, 
2555.00, 
2556.00, 
2557.00, 
2558.00, 
2559.00, 
2560.00, 
2561.00, 
2562.00, 
2563.00, 
2564.00, 
2565.00, 
2566.00, 
2567.00, 
2568.00, 
2569.00, 
2570.00, 
2571.00, 
2572.00, 
2573.00, 
2574.00, 
2575.00, 
2576.00, 
2577.00, 
2578.00, 
2579.00, 
2580.00, 
2581.00, 
2582.00, 
2583.00, 
2584.00, 
2585.00, 
2586.00, 
2587.00, 
2588.00, 
2589.00, 
2590.00, 
2591.00, 
2592.00, 
2593.00, 
2594.00, 
2595.00, 
2596.00, 
2597.00, 
2598.00, 
2599.00, 
2600.00, 
