"1cP4 - RawData"
"Wavelength nm.","T%"
200.00,-0.000
201.00,-0.004
202.00,0.008
203.00,-0.000
204.00,-0.007
205.00,0.001
206.00,0.006
207.00,0.001
208.00,-0.000
209.00,0.001
210.00,0.002
211.00,0.005
212.00,0.001
213.00,-0.001
214.00,-0.002
215.00,-0.000
216.00,-0.000
217.00,0.001
218.00,-0.001
219.00,0.002
220.00,0.002
221.00,-0.001
222.00,-0.000
223.00,0.000
224.00,0.002
225.00,-0.000
226.00,-0.001
227.00,0.001
228.00,-0.001
229.00,0.002
230.00,0.002
231.00,0.001
232.00,-0.000
233.00,0.001
234.00,0.000
235.00,0.001
236.00,0.002
237.00,0.001
238.00,0.001
239.00,0.000
240.00,-0.001
241.00,0.001
242.00,-0.000
243.00,0.001
244.00,0.000
245.00,0.002
246.00,-0.001
247.00,-0.001
248.00,0.001
249.00,0.001
250.00,0.001
251.00,0.001
252.00,0.003
253.00,0.001
254.00,-0.001
255.00,0.001
256.00,0.002
257.00,-0.000
258.00,-0.002
259.00,0.001
260.00,0.002
261.00,0.001
262.00,-0.001
263.00,0.002
264.00,0.001
265.00,0.000
266.00,-0.000
267.00,-0.002
268.00,-0.000
269.00,0.002
270.00,-0.001
271.00,0.001
272.00,0.000
273.00,-0.000
274.00,0.001
275.00,0.000
276.00,0.000
277.00,0.001
278.00,-0.002
279.00,0.001
280.00,0.001
281.00,-0.001
282.00,-0.001
283.00,0.003
284.00,0.001
285.00,0.001
286.00,0.000
287.00,0.000
288.00,-0.002
289.00,0.002
290.00,-0.000
291.00,0.000
292.00,0.002
293.00,0.001
294.00,0.001
295.00,0.001
296.00,-0.001
297.00,0.001
298.00,-0.002
299.00,0.003
300.00,0.001
301.00,0.003
302.00,-0.001
303.00,0.002
304.00,0.003
305.00,-0.000
306.00,0.003
307.00,0.006
308.00,0.007
309.00,0.013
310.00,0.021
311.00,0.030
312.00,0.051
313.00,0.079
314.00,0.118
315.00,0.182
316.00,0.266
317.00,0.370
318.00,0.512
319.00,0.688
320.00,0.916
321.00,1.172
322.00,1.518
323.00,1.923
324.00,2.382
325.00,2.868
326.00,3.423
327.00,4.071
328.00,4.760
329.00,5.526
330.00,6.329
331.00,7.123
332.00,7.974
333.00,8.945
334.00,9.858
335.00,10.842
336.00,11.795
337.00,12.805
338.00,13.811
339.00,14.767
340.00,15.673
341.00,16.620
342.00,17.580
343.00,18.556
344.00,19.381
345.00,20.159
346.00,20.906
347.00,21.649
348.00,22.385
349.00,23.158
350.00,23.812
351.00,24.377
352.00,25.035
353.00,25.553
354.00,26.031
355.00,26.503
356.00,26.923
357.00,27.458
358.00,27.896
359.00,28.239
360.00,28.651
361.00,28.832
362.00,29.156
363.00,29.472
364.00,29.746
365.00,29.832
366.00,30.038
367.00,30.269
368.00,30.336
369.00,30.527
370.00,30.551
371.00,30.651
372.00,30.737
373.00,30.664
374.00,30.683
375.00,30.611
376.00,30.636
377.00,30.635
378.00,30.418
379.00,30.306
380.00,30.392
381.00,30.391
382.00,30.424
383.00,30.406
384.00,30.583
385.00,30.694
386.00,30.860
387.00,31.047
388.00,31.071
389.00,31.171
390.00,31.312
391.00,31.372
392.00,31.569
393.00,31.506
394.00,31.623
395.00,31.601
396.00,31.734
397.00,31.751
398.00,31.808
399.00,31.913
400.00,31.911
401.00,31.948
402.00,32.051
403.00,32.158
404.00,31.987
405.00,32.048
406.00,32.083
407.00,31.970
408.00,31.978
409.00,31.916
410.00,31.911
411.00,31.827
412.00,31.779
413.00,31.785
414.00,31.811
415.00,31.932
416.00,31.994
417.00,31.992
418.00,32.051
419.00,32.150
420.00,32.212
421.00,32.028
422.00,32.015
423.00,32.080
424.00,32.173
425.00,32.210
426.00,32.298
427.00,32.284
428.00,32.440
429.00,32.313
430.00,32.352
431.00,32.398
432.00,32.501
433.00,32.530
434.00,32.518
435.00,32.664
436.00,32.655
437.00,32.769
438.00,32.861
439.00,32.836
440.00,32.959
441.00,33.049
442.00,33.171
443.00,33.219
444.00,33.311
445.00,33.446
446.00,33.464
447.00,33.652
448.00,33.675
449.00,33.789
450.00,33.846
451.00,33.944
452.00,34.052
453.00,34.140
454.00,34.259
455.00,34.291
456.00,34.484
457.00,34.630
458.00,34.708
459.00,34.788
460.00,34.917
461.00,35.094
462.00,35.195
463.00,35.273
464.00,35.364
465.00,35.547
466.00,35.641
467.00,35.721
468.00,35.786
469.00,35.902
470.00,35.979
471.00,35.999
472.00,36.171
473.00,36.177
474.00,36.182
475.00,36.314
476.00,36.357
477.00,36.526
478.00,36.615
479.00,36.681
480.00,36.883
481.00,36.932
482.00,37.053
483.00,37.176
484.00,37.264
485.00,37.542
486.00,37.629
487.00,37.817
488.00,38.038
489.00,38.071
490.00,38.339
491.00,38.489
492.00,38.251
493.00,38.376
494.00,38.440
495.00,38.592
496.00,38.705
497.00,38.776
498.00,38.913
499.00,38.997
500.00,39.202
501.00,39.248
502.00,39.373
503.00,39.370
504.00,39.459
505.00,39.565
506.00,39.666
507.00,39.801
508.00,39.836
509.00,39.870
510.00,39.985
511.00,40.055
512.00,40.234
513.00,40.331
514.00,40.470
515.00,40.521
516.00,40.559
517.00,40.646
518.00,40.660
519.00,40.678
520.00,40.740
521.00,40.819
522.00,40.938
523.00,40.991
524.00,41.135
525.00,41.282
526.00,41.325
527.00,41.438
528.00,41.496
529.00,41.677
530.00,41.877
531.00,41.817
532.00,41.858
533.00,41.878
534.00,41.931
535.00,42.043
536.00,42.112
537.00,42.144
538.00,42.215
539.00,42.288
540.00,42.288
541.00,42.312
542.00,42.286
543.00,42.357
544.00,42.412
545.00,42.419
546.00,42.532
547.00,42.605
548.00,42.605
549.00,42.712
550.00,42.864
551.00,42.983
552.00,42.786
553.00,42.850
554.00,43.052
555.00,43.176
556.00,43.112
557.00,43.137
558.00,43.194
559.00,43.241
560.00,43.410
561.00,43.569
562.00,43.448
563.00,43.447
564.00,43.471
565.00,43.497
566.00,43.503
567.00,43.523
568.00,43.543
569.00,43.560
570.00,43.630
571.00,43.497
572.00,43.585
573.00,43.605
574.00,43.598
575.00,43.497
576.00,43.588
577.00,43.635
578.00,43.716
579.00,43.802
580.00,43.924
581.00,43.984
582.00,43.973
583.00,44.141
584.00,44.125
585.00,44.089
586.00,44.210
587.00,44.168
588.00,44.094
589.00,44.177
590.00,44.198
591.00,44.141
592.00,44.227
593.00,44.324
594.00,44.267
595.00,44.394
596.00,44.447
597.00,44.580
598.00,44.547
599.00,44.478
600.00,44.689
601.00,44.932
602.00,44.589
603.00,44.572
604.00,44.612
605.00,44.582
606.00,44.619
607.00,44.928
608.00,44.908
609.00,44.850
610.00,44.787
611.00,44.626
612.00,44.709
613.00,44.916
614.00,45.061
615.00,44.939
616.00,44.956
617.00,45.061
618.00,44.980
619.00,44.979
620.00,45.103
621.00,45.100
622.00,45.252
623.00,45.326
624.00,45.324
625.00,45.307
626.00,45.404
627.00,45.415
628.00,45.404
629.00,45.424
630.00,45.405
631.00,45.493
632.00,45.594
633.00,45.677
634.00,45.636
635.00,45.687
636.00,45.735
637.00,45.789
638.00,45.825
639.00,45.869
640.00,45.788
641.00,45.895
642.00,46.071
643.00,46.104
644.00,46.090
645.00,46.143
646.00,46.187
647.00,46.200
648.00,46.328
649.00,46.297
650.00,46.354
651.00,46.479
652.00,46.559
653.00,46.436
654.00,46.479
655.00,46.759
656.00,46.982
657.00,46.969
658.00,46.995
659.00,46.894
660.00,46.986
661.00,46.649
662.00,47.276
663.00,47.103
664.00,47.352
665.00,47.149
666.00,46.951
667.00,47.320
668.00,47.674
669.00,47.119
670.00,47.350
671.00,47.638
672.00,47.709
673.00,47.568
674.00,47.575
675.00,47.650
676.00,47.564
677.00,47.776
678.00,47.706
679.00,48.066
680.00,48.180
681.00,47.783
682.00,48.028
683.00,47.890
684.00,47.748
685.00,47.880
686.00,47.818
687.00,47.872
688.00,48.068
689.00,48.241
690.00,48.101
691.00,48.316
692.00,48.713
693.00,47.991
694.00,48.148
695.00,48.428
696.00,48.370
697.00,48.407
698.00,48.499
699.00,48.508
700.00,48.412
701.00,48.531
702.00,48.796
703.00,48.768
704.00,48.601
705.00,48.848
706.00,49.301
707.00,48.758
708.00,48.663
709.00,48.801
710.00,48.719
711.00,48.754
712.00,48.982
713.00,49.142
714.00,48.954
715.00,49.065
716.00,48.970
717.00,48.982
718.00,49.028
719.00,49.194
720.00,49.213
721.00,54.058
722.00,54.055
723.00,54.047
724.00,53.931
725.00,53.994
726.00,53.724
727.00,53.900
728.00,53.918
729.00,53.927
730.00,53.980
731.00,54.002
732.00,53.738
733.00,53.768
734.00,53.881
735.00,53.920
736.00,53.892
737.00,53.893
738.00,54.036
739.00,54.011
740.00,53.793
741.00,53.772
742.00,53.942
743.00,53.862
744.00,53.784
745.00,53.756
746.00,53.802
747.00,53.618
748.00,53.633
749.00,53.586
750.00,53.600
751.00,53.651
752.00,53.521
753.00,53.472
754.00,53.368
755.00,53.567
756.00,53.465
757.00,53.461
758.00,53.294
759.00,53.434
760.00,53.351
761.00,53.408
762.00,53.252
763.00,53.483
764.00,53.473
765.00,53.243
766.00,53.362
767.00,53.295
768.00,53.306
769.00,53.230
770.00,53.413
771.00,53.148
772.00,53.132
773.00,53.200
774.00,53.155
775.00,53.196
776.00,53.051
777.00,53.206
778.00,53.082
779.00,53.098
780.00,53.091
781.00,53.009
782.00,53.027
783.00,53.021
784.00,52.963
785.00,52.932
786.00,53.048
787.00,53.057
788.00,52.947
789.00,52.986
790.00,52.908
791.00,52.913
792.00,52.870
793.00,52.780
794.00,52.735
795.00,52.748
796.00,52.816
797.00,52.574
798.00,52.646
799.00,52.643
800.00,52.503
801.00,52.541
802.00,52.525
803.00,52.349
804.00,52.472
805.00,52.382
806.00,52.360
807.00,52.278
808.00,52.386
809.00,52.252
810.00,52.374
811.00,52.126
812.00,52.192
813.00,52.459
814.00,52.082
815.00,52.008
816.00,52.178
817.00,52.112
818.00,52.103
819.00,52.116
820.00,51.926
821.00,52.009
822.00,52.058
823.00,51.939
824.00,51.996
825.00,51.883
826.00,51.943
827.00,51.934
828.00,51.941
829.00,51.785
830.00,51.613
831.00,54.034
832.00,54.117
833.00,54.149
834.00,54.019
835.00,54.050
836.00,53.972
837.00,53.943
838.00,53.874
839.00,53.896
840.00,53.844
841.00,53.826
842.00,53.797
843.00,53.777
844.00,53.909
845.00,53.762
846.00,53.730
847.00,53.733
848.00,53.794
849.00,53.670
850.00,53.620
851.00,53.529
852.00,53.506
853.00,53.515
854.00,53.391
855.00,53.406
856.00,53.362
857.00,53.431
858.00,53.376
859.00,53.324
860.00,53.363
861.00,53.287
862.00,53.271
863.00,53.253
864.00,53.260
865.00,53.182
866.00,53.255
867.00,53.111
868.00,53.206
869.00,53.149
870.00,53.163
871.00,53.152
872.00,53.152
873.00,53.083
874.00,53.132
875.00,53.123
876.00,53.063
877.00,53.052
878.00,53.017
879.00,52.947
880.00,52.957
881.00,52.896
882.00,52.947
883.00,52.912
884.00,52.899
885.00,52.867
886.00,52.822
887.00,52.837
888.00,52.730
889.00,52.769
890.00,52.745
891.00,52.771
892.00,52.675
893.00,52.786
894.00,52.684
895.00,52.619
896.00,52.615
897.00,52.609
898.00,52.547
899.00,52.625
900.00,52.514
901.00,52.542
902.00,52.657
903.00,52.493
904.00,52.464
905.00,52.451
906.00,52.495
907.00,52.448
908.00,52.421
909.00,52.417
910.00,52.379
911.00,52.356
912.00,52.325
913.00,52.311
914.00,52.293
915.00,52.281
916.00,52.239
917.00,52.251
918.00,52.148
919.00,52.254
920.00,52.120
921.00,52.163
922.00,52.142
923.00,52.109
924.00,52.087
925.00,52.073
926.00,52.069
927.00,52.053
928.00,52.005
929.00,51.989
930.00,51.974
931.00,51.943
932.00,51.906
933.00,51.920
934.00,51.899
935.00,51.877
936.00,51.832
937.00,51.841
938.00,51.839
939.00,51.790
940.00,51.773
941.00,51.763
942.00,51.741
943.00,51.687
944.00,51.674
945.00,51.655
946.00,51.668
947.00,51.603
948.00,51.606
949.00,51.643
950.00,51.579
951.00,51.532
952.00,51.528
953.00,51.490
954.00,51.459
955.00,51.432
956.00,51.417
957.00,51.404
958.00,51.384
959.00,51.380
960.00,51.321
961.00,51.336
962.00,51.327
963.00,51.315
964.00,51.276
965.00,51.372
966.00,51.272
967.00,51.266
968.00,51.239
969.00,51.254
970.00,51.261
971.00,51.228
972.00,51.241
973.00,51.209
974.00,51.259
975.00,51.238
976.00,51.196
977.00,51.240
978.00,51.223
979.00,51.212
980.00,51.195
981.00,51.230
982.00,51.188
983.00,51.197
984.00,51.179
985.00,51.190
986.00,51.143
987.00,51.172
988.00,51.171
989.00,51.138
990.00,51.156
991.00,51.129
992.00,51.133
993.00,51.132
994.00,51.109
995.00,51.082
996.00,51.030
997.00,51.043
998.00,51.035
999.00,51.021
1000.00,50.994
1001.00,50.989
1002.00,51.016
1003.00,50.985
1004.00,50.976
1005.00,50.935
1006.00,50.941
1007.00,50.938
1008.00,50.898
1009.00,50.895
1010.00,50.868
1011.00,50.895
1012.00,50.859
1013.00,50.824
1014.00,50.818
1015.00,50.800
1016.00,50.788
1017.00,50.767
1018.00,50.758
1019.00,50.726
1020.00,50.799
1021.00,50.737
1022.00,50.717
1023.00,50.725
1024.00,50.673
1025.00,50.661
1026.00,50.677
1027.00,50.629
1028.00,50.584
1029.00,50.593
1030.00,50.565
1031.00,50.583
1032.00,50.574
1033.00,50.540
1034.00,50.516
1035.00,50.466
1036.00,50.483
1037.00,50.446
1038.00,50.421
1039.00,50.377
1040.00,50.386
1041.00,50.353
1042.00,50.339
1043.00,50.340
1044.00,50.349
1045.00,50.354
1046.00,50.337
1047.00,50.391
1048.00,50.386
1049.00,50.383
1050.00,50.380
1051.00,50.405
1052.00,50.410
1053.00,50.420
1054.00,50.434
1055.00,50.440
1056.00,50.447
1057.00,50.455
1058.00,50.462
1059.00,50.444
1060.00,50.446
1061.00,50.446
1062.00,50.453
1063.00,50.407
1064.00,50.422
1065.00,50.415
1066.00,50.395
1067.00,50.386
1068.00,50.404
1069.00,50.373
1070.00,50.371
1071.00,50.358
1072.00,50.353
1073.00,50.348
1074.00,50.312
1075.00,50.320
1076.00,50.310
1077.00,50.312
1078.00,50.297
1079.00,50.298
1080.00,50.313
1081.00,50.282
1082.00,50.258
1083.00,50.279
1084.00,50.278
1085.00,50.254
1086.00,50.268
1087.00,50.279
1088.00,50.227
1089.00,50.235
1090.00,50.216
1091.00,50.229
1092.00,50.197
1093.00,50.158
1094.00,50.158
1095.00,50.164
1096.00,50.133
1097.00,50.126
1098.00,50.150
1099.00,50.127
1100.00,50.126
1101.00,50.134
1102.00,50.146
1103.00,50.098
1104.00,50.074
1105.00,50.079
1106.00,50.067
1107.00,50.040
1108.00,50.052
1109.00,50.053
1110.00,50.056
1111.00,50.047
1112.00,50.021
1113.00,50.031
1114.00,50.012
1115.00,50.027
1116.00,50.018
1117.00,50.006
1118.00,49.985
1119.00,49.981
1120.00,50.012
1121.00,49.975
1122.00,49.988
1123.00,49.932
1124.00,49.953
1125.00,49.928
1126.00,49.917
1127.00,49.932
1128.00,49.925
1129.00,49.895
1130.00,49.919
1131.00,49.930
1132.00,49.913
1133.00,49.915
1134.00,49.853
1135.00,49.875
1136.00,49.883
1137.00,49.873
1138.00,49.869
1139.00,49.886
1140.00,49.851
1141.00,49.850
1142.00,49.871
1143.00,49.896
1144.00,49.858
1145.00,49.859
1146.00,49.860
1147.00,49.839
1148.00,49.824
1149.00,49.839
1150.00,49.853
1151.00,49.824
1152.00,49.803
1153.00,49.850
1154.00,49.840
1155.00,49.847
1156.00,49.832
1157.00,49.834
1158.00,49.832
1159.00,49.791
1160.00,49.825
1161.00,49.826
1162.00,49.827
1163.00,49.821
1164.00,49.844
1165.00,49.832
1166.00,49.826
1167.00,49.807
1168.00,49.827
1169.00,49.815
1170.00,49.812
1171.00,49.799
1172.00,49.813
1173.00,49.817
1174.00,49.792
1175.00,49.810
1176.00,49.801
1177.00,49.819
1178.00,49.803
1179.00,49.835
1180.00,49.813
1181.00,49.804
1182.00,49.798
1183.00,49.829
1184.00,49.800
1185.00,49.811
1186.00,49.825
1187.00,49.806
1188.00,49.834
1189.00,49.793
1190.00,49.817
1191.00,49.792
1192.00,49.810
1193.00,49.806
1194.00,49.798
1195.00,49.788
1196.00,49.780
1197.00,49.828
1198.00,49.803
1199.00,49.833
1200.00,49.797
1201.00,49.816
1202.00,49.804
1203.00,49.795
1204.00,49.788
1205.00,49.800
1206.00,49.788
1207.00,49.789
1208.00,49.812
1209.00,49.804
1210.00,49.832
1211.00,49.786
1212.00,49.804
1213.00,49.804
1214.00,49.802
1215.00,49.805
1216.00,49.790
1217.00,49.831
1218.00,49.828
1219.00,49.814
1220.00,49.795
1221.00,49.826
1222.00,49.814
1223.00,49.796
1224.00,49.822
1225.00,49.792
1226.00,49.828
1227.00,49.799
1228.00,49.806
1229.00,49.820
1230.00,49.864
1231.00,49.853
1232.00,49.840
1233.00,49.877
1234.00,49.862
1235.00,49.886
1236.00,49.865
1237.00,49.897
1238.00,49.885
1239.00,49.896
1240.00,49.864
1241.00,49.905
1242.00,49.911
1243.00,49.880
1244.00,49.894
1245.00,49.903
1246.00,49.934
1247.00,49.916
1248.00,49.931
1249.00,49.919
1250.00,49.937
1251.00,49.916
1252.00,49.931
1253.00,49.938
1254.00,49.989
1255.00,49.963
1256.00,49.948
1257.00,49.940
1258.00,49.956
1259.00,49.963
1260.00,49.964
1261.00,49.975
1262.00,49.967
1263.00,49.982
1264.00,50.007
1265.00,50.028
1266.00,50.029
1267.00,50.043
1268.00,50.029
1269.00,50.015
1270.00,50.040
1271.00,50.041
1272.00,50.033
1273.00,50.079
1274.00,50.046
1275.00,50.064
1276.00,50.062
1277.00,50.060
1278.00,50.071
1279.00,50.097
1280.00,50.069
1281.00,50.096
1282.00,50.095
1283.00,50.060
1284.00,50.099
1285.00,50.107
1286.00,50.091
1287.00,50.095
1288.00,50.110
1289.00,50.121
1290.00,50.149
1291.00,50.138
1292.00,50.152
1293.00,50.160
1294.00,50.168
1295.00,50.151
1296.00,50.164
1297.00,50.156
1298.00,50.178
1299.00,50.196
1300.00,50.236
1301.00,50.196
1302.00,50.230
1303.00,50.230
1304.00,50.252
1305.00,50.227
1306.00,50.245
1307.00,50.273
1308.00,50.247
1309.00,50.259
1310.00,50.262
1311.00,50.248
1312.00,50.245
1313.00,50.258
1314.00,50.288
1315.00,50.303
1316.00,50.301
1317.00,50.326
1318.00,50.369
1319.00,50.371
1320.00,50.343
1321.00,50.544
1322.00,50.499
1323.00,50.495
1324.00,50.503
1325.00,50.516
1326.00,50.494
1327.00,50.516
1328.00,50.521
1329.00,50.543
1330.00,50.466
1331.00,50.518
1332.00,50.508
1333.00,50.490
1334.00,50.533
1335.00,50.566
1336.00,50.599
1337.00,50.621
1338.00,50.692
1339.00,50.735
1340.00,50.768
1341.00,50.847
1342.00,50.919
1343.00,50.985
1344.00,51.014
1345.00,51.076
1346.00,51.170
1347.00,51.148
1348.00,51.161
1349.00,51.148
1350.00,51.224
1351.00,51.190
1352.00,51.173
1353.00,51.190
1354.00,51.263
1355.00,51.218
1356.00,51.145
1357.00,51.218
1358.00,51.387
1359.00,51.272
1360.00,51.315
1361.00,51.630
1362.00,51.349
1363.00,51.185
1364.00,51.121
1365.00,51.251
1366.00,51.482
1367.00,51.401
1368.00,51.449
1369.00,51.772
1370.00,51.249
1371.00,51.297
1372.00,51.278
1373.00,51.255
1374.00,51.300
1375.00,51.299
1376.00,51.342
1377.00,51.090
1378.00,51.595
1379.00,50.836
1380.00,51.618
1381.00,50.950
1382.00,51.273
1383.00,51.250
1384.00,51.266
1385.00,51.275
1386.00,51.327
1387.00,51.231
1388.00,51.284
1389.00,51.210
1390.00,51.315
1391.00,50.744
1392.00,50.861
1393.00,51.408
1394.00,51.431
1395.00,51.036
1396.00,51.242
1397.00,51.406
1398.00,51.431
1399.00,51.265
1400.00,51.227
1401.00,51.356
1402.00,51.535
1403.00,51.518
1404.00,51.331
1405.00,51.364
1406.00,51.211
1407.00,51.117
1408.00,51.203
1409.00,51.313
1410.00,51.469
1411.00,51.259
1412.00,51.594
1413.00,51.388
1414.00,51.377
1415.00,51.463
1416.00,51.399
1417.00,51.543
1418.00,51.416
1419.00,51.455
1420.00,51.473
1421.00,51.539
1422.00,51.583
1423.00,51.532
1424.00,51.497
1425.00,51.544
1426.00,51.545
1427.00,51.565
1428.00,51.572
1429.00,51.584
1430.00,51.617
1431.00,51.573
1432.00,51.694
1433.00,51.618
1434.00,51.706
1435.00,51.731
1436.00,51.755
1437.00,51.708
1438.00,51.747
1439.00,51.773
1440.00,51.778
1441.00,51.827
1442.00,51.825
1443.00,51.832
1444.00,51.955
1445.00,51.851
1446.00,51.909
1447.00,51.922
1448.00,51.968
1449.00,51.983
1450.00,51.997
1451.00,51.979
1452.00,52.026
1453.00,51.989
1454.00,52.022
1455.00,52.070
1456.00,52.059
1457.00,52.100
1458.00,52.092
1459.00,52.108
1460.00,52.126
1461.00,52.157
1462.00,52.108
1463.00,52.169
1464.00,52.194
1465.00,52.216
1466.00,52.224
1467.00,52.238
1468.00,52.303
1469.00,52.308
1470.00,52.303
1471.00,52.298
1472.00,52.344
1473.00,52.312
1474.00,52.403
1475.00,52.392
1476.00,52.406
1477.00,52.391
1478.00,52.438
1479.00,52.423
1480.00,52.460
1481.00,52.464
1482.00,52.478
1483.00,52.495
1484.00,52.496
1485.00,52.525
1486.00,52.533
1487.00,52.592
1488.00,52.544
1489.00,52.579
1490.00,52.594
1491.00,52.623
1492.00,52.602
1493.00,52.640
1494.00,52.653
1495.00,52.650
1496.00,52.648
1497.00,52.687
1498.00,52.677
1499.00,52.714
1500.00,52.700
1501.00, 
1502.00, 
1503.00, 
1504.00, 
1505.00, 
1506.00, 
1507.00, 
1508.00, 
1509.00, 
1510.00, 
1511.00, 
1512.00, 
1513.00, 
1514.00, 
1515.00, 
1516.00, 
1517.00, 
1518.00, 
1519.00, 
1520.00, 
1521.00, 
1522.00, 
1523.00, 
1524.00, 
1525.00, 
1526.00, 
1527.00, 
1528.00, 
1529.00, 
1530.00, 
1531.00, 
1532.00, 
1533.00, 
1534.00, 
1535.00, 
1536.00, 
1537.00, 
1538.00, 
1539.00, 
1540.00, 
1541.00, 
1542.00, 
1543.00, 
1544.00, 
1545.00, 
1546.00, 
1547.00, 
1548.00, 
1549.00, 
1550.00, 
1551.00, 
1552.00, 
1553.00, 
1554.00, 
1555.00, 
1556.00, 
1557.00, 
1558.00, 
1559.00, 
1560.00, 
1561.00, 
1562.00, 
1563.00, 
1564.00, 
1565.00, 
1566.00, 
1567.00, 
1568.00, 
1569.00, 
1570.00, 
1571.00, 
1572.00, 
1573.00, 
1574.00, 
1575.00, 
1576.00, 
1577.00, 
1578.00, 
1579.00, 
1580.00, 
1581.00, 
1582.00, 
1583.00, 
1584.00, 
1585.00, 
1586.00, 
1587.00, 
1588.00, 
1589.00, 
1590.00, 
1591.00, 
1592.00, 
1593.00, 
1594.00, 
1595.00, 
1596.00, 
1597.00, 
1598.00, 
1599.00, 
1600.00, 
1601.00, 
1602.00, 
1603.00, 
1604.00, 
1605.00, 
1606.00, 
1607.00, 
1608.00, 
1609.00, 
1610.00, 
1611.00, 
1612.00, 
1613.00, 
1614.00, 
1615.00, 
1616.00, 
1617.00, 
1618.00, 
1619.00, 
1620.00, 
1621.00, 
1622.00, 
1623.00, 
1624.00, 
1625.00, 
1626.00, 
1627.00, 
1628.00, 
1629.00, 
1630.00, 
1631.00, 
1632.00, 
1633.00, 
1634.00, 
1635.00, 
1636.00, 
1637.00, 
1638.00, 
1639.00, 
1640.00, 
1641.00, 
1642.00, 
1643.00, 
1644.00, 
1645.00, 
1646.00, 
1647.00, 
1648.00, 
1649.00, 
1650.00, 
1651.00, 
1652.00, 
1653.00, 
1654.00, 
1655.00, 
1656.00, 
1657.00, 
1658.00, 
1659.00, 
1660.00, 
1661.00, 
1662.00, 
1663.00, 
1664.00, 
1665.00, 
1666.00, 
1667.00, 
1668.00, 
1669.00, 
1670.00, 
1671.00, 
1672.00, 
1673.00, 
1674.00, 
1675.00, 
1676.00, 
1677.00, 
1678.00, 
1679.00, 
1680.00, 
1681.00, 
1682.00, 
1683.00, 
1684.00, 
1685.00, 
1686.00, 
1687.00, 
1688.00, 
1689.00, 
1690.00, 
1691.00, 
1692.00, 
1693.00, 
1694.00, 
1695.00, 
1696.00, 
1697.00, 
1698.00, 
1699.00, 
1700.00, 
1701.00, 
1702.00, 
1703.00, 
1704.00, 
1705.00, 
1706.00, 
1707.00, 
1708.00, 
1709.00, 
1710.00, 
1711.00, 
1712.00, 
1713.00, 
1714.00, 
1715.00, 
1716.00, 
1717.00, 
1718.00, 
1719.00, 
1720.00, 
1721.00, 
1722.00, 
1723.00, 
1724.00, 
1725.00, 
1726.00, 
1727.00, 
1728.00, 
1729.00, 
1730.00, 
1731.00, 
1732.00, 
1733.00, 
1734.00, 
1735.00, 
1736.00, 
1737.00, 
1738.00, 
1739.00, 
1740.00, 
1741.00, 
1742.00, 
1743.00, 
1744.00, 
1745.00, 
1746.00, 
1747.00, 
1748.00, 
1749.00, 
1750.00, 
1751.00, 
1752.00, 
1753.00, 
1754.00, 
1755.00, 
1756.00, 
1757.00, 
1758.00, 
1759.00, 
1760.00, 
1761.00, 
1762.00, 
1763.00, 
1764.00, 
1765.00, 
1766.00, 
1767.00, 
1768.00, 
1769.00, 
1770.00, 
1771.00, 
1772.00, 
1773.00, 
1774.00, 
1775.00, 
1776.00, 
1777.00, 
1778.00, 
1779.00, 
1780.00, 
1781.00, 
1782.00, 
1783.00, 
1784.00, 
1785.00, 
1786.00, 
1787.00, 
1788.00, 
1789.00, 
1790.00, 
1791.00, 
1792.00, 
1793.00, 
1794.00, 
1795.00, 
1796.00, 
1797.00, 
1798.00, 
1799.00, 
1800.00, 
1801.00, 
1802.00, 
1803.00, 
1804.00, 
1805.00, 
1806.00, 
1807.00, 
1808.00, 
1809.00, 
1810.00, 
1811.00, 
1812.00, 
1813.00, 
1814.00, 
1815.00, 
1816.00, 
1817.00, 
1818.00, 
1819.00, 
1820.00, 
1821.00, 
1822.00, 
1823.00, 
1824.00, 
1825.00, 
1826.00, 
1827.00, 
1828.00, 
1829.00, 
1830.00, 
1831.00, 
1832.00, 
1833.00, 
1834.00, 
1835.00, 
1836.00, 
1837.00, 
1838.00, 
1839.00, 
1840.00, 
1841.00, 
1842.00, 
1843.00, 
1844.00, 
1845.00, 
1846.00, 
1847.00, 
1848.00, 
1849.00, 
1850.00, 
1851.00, 
1852.00, 
1853.00, 
1854.00, 
1855.00, 
1856.00, 
1857.00, 
1858.00, 
1859.00, 
1860.00, 
1861.00, 
1862.00, 
1863.00, 
1864.00, 
1865.00, 
1866.00, 
1867.00, 
1868.00, 
1869.00, 
1870.00, 
1871.00, 
1872.00, 
1873.00, 
1874.00, 
1875.00, 
1876.00, 
1877.00, 
1878.00, 
1879.00, 
1880.00, 
1881.00, 
1882.00, 
1883.00, 
1884.00, 
1885.00, 
1886.00, 
1887.00, 
1888.00, 
1889.00, 
1890.00, 
1891.00, 
1892.00, 
1893.00, 
1894.00, 
1895.00, 
1896.00, 
1897.00, 
1898.00, 
1899.00, 
1900.00, 
1901.00, 
1902.00, 
1903.00, 
1904.00, 
1905.00, 
1906.00, 
1907.00, 
1908.00, 
1909.00, 
1910.00, 
1911.00, 
1912.00, 
1913.00, 
1914.00, 
1915.00, 
1916.00, 
1917.00, 
1918.00, 
1919.00, 
1920.00, 
1921.00, 
1922.00, 
1923.00, 
1924.00, 
1925.00, 
1926.00, 
1927.00, 
1928.00, 
1929.00, 
1930.00, 
1931.00, 
1932.00, 
1933.00, 
1934.00, 
1935.00, 
1936.00, 
1937.00, 
1938.00, 
1939.00, 
1940.00, 
1941.00, 
1942.00, 
1943.00, 
1944.00, 
1945.00, 
1946.00, 
1947.00, 
1948.00, 
1949.00, 
1950.00, 
1951.00, 
1952.00, 
1953.00, 
1954.00, 
1955.00, 
1956.00, 
1957.00, 
1958.00, 
1959.00, 
1960.00, 
1961.00, 
1962.00, 
1963.00, 
1964.00, 
1965.00, 
1966.00, 
1967.00, 
1968.00, 
1969.00, 
1970.00, 
1971.00, 
1972.00, 
1973.00, 
1974.00, 
1975.00, 
1976.00, 
1977.00, 
1978.00, 
1979.00, 
1980.00, 
1981.00, 
1982.00, 
1983.00, 
1984.00, 
1985.00, 
1986.00, 
1987.00, 
1988.00, 
1989.00, 
1990.00, 
1991.00, 
1992.00, 
1993.00, 
1994.00, 
1995.00, 
1996.00, 
1997.00, 
1998.00, 
1999.00, 
2000.00, 
2001.00, 
2002.00, 
2003.00, 
2004.00, 
2005.00, 
2006.00, 
2007.00, 
2008.00, 
2009.00, 
2010.00, 
2011.00, 
2012.00, 
2013.00, 
2014.00, 
2015.00, 
2016.00, 
2017.00, 
2018.00, 
2019.00, 
2020.00, 
2021.00, 
2022.00, 
2023.00, 
2024.00, 
2025.00, 
2026.00, 
2027.00, 
2028.00, 
2029.00, 
2030.00, 
2031.00, 
2032.00, 
2033.00, 
2034.00, 
2035.00, 
2036.00, 
2037.00, 
2038.00, 
2039.00, 
2040.00, 
2041.00, 
2042.00, 
2043.00, 
2044.00, 
2045.00, 
2046.00, 
2047.00, 
2048.00, 
2049.00, 
2050.00, 
2051.00, 
2052.00, 
2053.00, 
2054.00, 
2055.00, 
2056.00, 
2057.00, 
2058.00, 
2059.00, 
2060.00, 
2061.00, 
2062.00, 
2063.00, 
2064.00, 
2065.00, 
2066.00, 
2067.00, 
2068.00, 
2069.00, 
2070.00, 
2071.00, 
2072.00, 
2073.00, 
2074.00, 
2075.00, 
2076.00, 
2077.00, 
2078.00, 
2079.00, 
2080.00, 
2081.00, 
2082.00, 
2083.00, 
2084.00, 
2085.00, 
2086.00, 
2087.00, 
2088.00, 
2089.00, 
2090.00, 
2091.00, 
2092.00, 
2093.00, 
2094.00, 
2095.00, 
2096.00, 
2097.00, 
2098.00, 
2099.00, 
2100.00, 
2101.00, 
2102.00, 
2103.00, 
2104.00, 
2105.00, 
2106.00, 
2107.00, 
2108.00, 
2109.00, 
2110.00, 
2111.00, 
2112.00, 
2113.00, 
2114.00, 
2115.00, 
2116.00, 
2117.00, 
2118.00, 
2119.00, 
2120.00, 
2121.00, 
2122.00, 
2123.00, 
2124.00, 
2125.00, 
2126.00, 
2127.00, 
2128.00, 
2129.00, 
2130.00, 
2131.00, 
2132.00, 
2133.00, 
2134.00, 
2135.00, 
2136.00, 
2137.00, 
2138.00, 
2139.00, 
2140.00, 
2141.00, 
2142.00, 
2143.00, 
2144.00, 
2145.00, 
2146.00, 
2147.00, 
2148.00, 
2149.00, 
2150.00, 
2151.00, 
2152.00, 
2153.00, 
2154.00, 
2155.00, 
2156.00, 
2157.00, 
2158.00, 
2159.00, 
2160.00, 
2161.00, 
2162.00, 
2163.00, 
2164.00, 
2165.00, 
2166.00, 
2167.00, 
2168.00, 
2169.00, 
2170.00, 
2171.00, 
2172.00, 
2173.00, 
2174.00, 
2175.00, 
2176.00, 
2177.00, 
2178.00, 
2179.00, 
2180.00, 
2181.00, 
2182.00, 
2183.00, 
2184.00, 
2185.00, 
2186.00, 
2187.00, 
2188.00, 
2189.00, 
2190.00, 
2191.00, 
2192.00, 
2193.00, 
2194.00, 
2195.00, 
2196.00, 
2197.00, 
2198.00, 
2199.00, 
2200.00, 
2201.00, 
2202.00, 
2203.00, 
2204.00, 
2205.00, 
2206.00, 
2207.00, 
2208.00, 
2209.00, 
2210.00, 
2211.00, 
2212.00, 
2213.00, 
2214.00, 
2215.00, 
2216.00, 
2217.00, 
2218.00, 
2219.00, 
2220.00, 
2221.00, 
2222.00, 
2223.00, 
2224.00, 
2225.00, 
2226.00, 
2227.00, 
2228.00, 
2229.00, 
2230.00, 
2231.00, 
2232.00, 
2233.00, 
2234.00, 
2235.00, 
2236.00, 
2237.00, 
2238.00, 
2239.00, 
2240.00, 
2241.00, 
2242.00, 
2243.00, 
2244.00, 
2245.00, 
2246.00, 
2247.00, 
2248.00, 
2249.00, 
2250.00, 
2251.00, 
2252.00, 
2253.00, 
2254.00, 
2255.00, 
2256.00, 
2257.00, 
2258.00, 
2259.00, 
2260.00, 
2261.00, 
2262.00, 
2263.00, 
2264.00, 
2265.00, 
2266.00, 
2267.00, 
2268.00, 
2269.00, 
2270.00, 
2271.00, 
2272.00, 
2273.00, 
2274.00, 
2275.00, 
2276.00, 
2277.00, 
2278.00, 
2279.00, 
2280.00, 
2281.00, 
2282.00, 
2283.00, 
2284.00, 
2285.00, 
2286.00, 
2287.00, 
2288.00, 
2289.00, 
2290.00, 
2291.00, 
2292.00, 
2293.00, 
2294.00, 
2295.00, 
2296.00, 
2297.00, 
2298.00, 
2299.00, 
2300.00, 
2301.00, 
2302.00, 
2303.00, 
2304.00, 
2305.00, 
2306.00, 
2307.00, 
2308.00, 
2309.00, 
2310.00, 
2311.00, 
2312.00, 
2313.00, 
2314.00, 
2315.00, 
2316.00, 
2317.00, 
2318.00, 
2319.00, 
2320.00, 
2321.00, 
2322.00, 
2323.00, 
2324.00, 
2325.00, 
2326.00, 
2327.00, 
2328.00, 
2329.00, 
2330.00, 
2331.00, 
2332.00, 
2333.00, 
2334.00, 
2335.00, 
2336.00, 
2337.00, 
2338.00, 
2339.00, 
2340.00, 
2341.00, 
2342.00, 
2343.00, 
2344.00, 
2345.00, 
2346.00, 
2347.00, 
2348.00, 
2349.00, 
2350.00, 
2351.00, 
2352.00, 
2353.00, 
2354.00, 
2355.00, 
2356.00, 
2357.00, 
2358.00, 
2359.00, 
2360.00, 
2361.00, 
2362.00, 
2363.00, 
2364.00, 
2365.00, 
2366.00, 
2367.00, 
2368.00, 
2369.00, 
2370.00, 
2371.00, 
2372.00, 
2373.00, 
2374.00, 
2375.00, 
2376.00, 
2377.00, 
2378.00, 
2379.00, 
2380.00, 
2381.00, 
2382.00, 
2383.00, 
2384.00, 
2385.00, 
2386.00, 
2387.00, 
2388.00, 
2389.00, 
2390.00, 
2391.00, 
2392.00, 
2393.00, 
2394.00, 
2395.00, 
2396.00, 
2397.00, 
2398.00, 
2399.00, 
2400.00, 
2401.00, 
2402.00, 
2403.00, 
2404.00, 
2405.00, 
2406.00, 
2407.00, 
2408.00, 
2409.00, 
2410.00, 
2411.00, 
2412.00, 
2413.00, 
2414.00, 
2415.00, 
2416.00, 
2417.00, 
2418.00, 
2419.00, 
2420.00, 
2421.00, 
2422.00, 
2423.00, 
2424.00, 
2425.00, 
2426.00, 
2427.00, 
2428.00, 
2429.00, 
2430.00, 
2431.00, 
2432.00, 
2433.00, 
2434.00, 
2435.00, 
2436.00, 
2437.00, 
2438.00, 
2439.00, 
2440.00, 
2441.00, 
2442.00, 
2443.00, 
2444.00, 
2445.00, 
2446.00, 
2447.00, 
2448.00, 
2449.00, 
2450.00, 
2451.00, 
2452.00, 
2453.00, 
2454.00, 
2455.00, 
2456.00, 
2457.00, 
2458.00, 
2459.00, 
2460.00, 
2461.00, 
2462.00, 
2463.00, 
2464.00, 
2465.00, 
2466.00, 
2467.00, 
2468.00, 
2469.00, 
2470.00, 
2471.00, 
2472.00, 
2473.00, 
2474.00, 
2475.00, 
2476.00, 
2477.00, 
2478.00, 
2479.00, 
2480.00, 
2481.00, 
2482.00, 
2483.00, 
2484.00, 
2485.00, 
2486.00, 
2487.00, 
2488.00, 
2489.00, 
2490.00, 
2491.00, 
2492.00, 
2493.00, 
2494.00, 
2495.00, 
2496.00, 
2497.00, 
2498.00, 
2499.00, 
2500.00, 
2501.00, 
2502.00, 
2503.00, 
2504.00, 
2505.00, 
2506.00, 
2507.00, 
2508.00, 
2509.00, 
2510.00, 
2511.00, 
2512.00, 
2513.00, 
2514.00, 
2515.00, 
2516.00, 
2517.00, 
2518.00, 
2519.00, 
2520.00, 
2521.00, 
2522.00, 
2523.00, 
2524.00, 
2525.00, 
2526.00, 
2527.00, 
2528.00, 
2529.00, 
2530.00, 
2531.00, 
2532.00, 
2533.00, 
2534.00, 
2535.00, 
2536.00, 
2537.00, 
2538.00, 
2539.00, 
2540.00, 
2541.00, 
2542.00, 
2543.00, 
2544.00, 
2545.00, 
2546.00, 
2547.00, 
2548.00, 
2549.00, 
2550.00, 
2551.00, 
2552.00, 
2553.00, 
2554.00, 
2555.00, 
2556.00, 
2557.00, 
2558.00, 
2559.00, 
2560.00, 
2561.00, 
2562.00, 
2563.00, 
2564.00, 
2565.00, 
2566.00, 
2567.00, 
2568.00, 
2569.00, 
2570.00, 
2571.00, 
2572.00, 
2573.00, 
2574.00, 
2575.00, 
2576.00, 
2577.00, 
2578.00, 
2579.00, 
2580.00, 
2581.00, 
2582.00, 
2583.00, 
2584.00, 
2585.00, 
2586.00, 
2587.00, 
2588.00, 
2589.00, 
2590.00, 
2591.00, 
2592.00, 
2593.00, 
2594.00, 
2595.00, 
2596.00, 
2597.00, 
2598.00, 
2599.00, 
2600.00, 
