"1cP5 - RawData"
"Wavelength nm.","T%"
200.00,-0.000
201.00,0.000
202.00,0.003
203.00,0.002
204.00,0.001
205.00,0.008
206.00,0.005
207.00,0.004
208.00,0.007
209.00,-0.000
210.00,0.004
211.00,0.002
212.00,-0.000
213.00,0.002
214.00,0.004
215.00,0.001
216.00,0.003
217.00,-0.000
218.00,0.002
219.00,-0.001
220.00,-0.001
221.00,0.002
222.00,0.000
223.00,0.001
224.00,-0.001
225.00,0.001
226.00,0.001
227.00,0.000
228.00,0.001
229.00,-0.001
230.00,0.001
231.00,-0.001
232.00,0.001
233.00,0.001
234.00,0.002
235.00,0.001
236.00,0.000
237.00,0.002
238.00,0.001
239.00,0.001
240.00,0.001
241.00,0.002
242.00,-0.001
243.00,-0.001
244.00,0.001
245.00,0.001
246.00,0.001
247.00,0.001
248.00,-0.001
249.00,-0.002
250.00,0.001
251.00,-0.000
252.00,0.001
253.00,0.000
254.00,-0.001
255.00,-0.001
256.00,0.002
257.00,0.001
258.00,0.001
259.00,0.000
260.00,0.000
261.00,-0.000
262.00,0.000
263.00,0.001
264.00,0.000
265.00,0.001
266.00,0.000
267.00,0.001
268.00,-0.003
269.00,0.002
270.00,0.003
271.00,0.000
272.00,-0.001
273.00,0.000
274.00,0.002
275.00,-0.000
276.00,0.001
277.00,0.002
278.00,-0.000
279.00,-0.000
280.00,0.002
281.00,0.001
282.00,-0.001
283.00,0.002
284.00,-0.001
285.00,0.002
286.00,0.000
287.00,0.001
288.00,0.001
289.00,-0.000
290.00,-0.002
291.00,0.001
292.00,-0.000
293.00,-0.001
294.00,0.002
295.00,0.001
296.00,0.000
297.00,-0.000
298.00,0.000
299.00,0.001
300.00,0.000
301.00,0.001
302.00,-0.001
303.00,0.001
304.00,0.000
305.00,0.002
306.00,0.001
307.00,0.001
308.00,0.008
309.00,0.013
310.00,0.022
311.00,0.031
312.00,0.044
313.00,0.072
314.00,0.115
315.00,0.161
316.00,0.244
317.00,0.329
318.00,0.462
319.00,0.640
320.00,0.847
321.00,1.102
322.00,1.429
323.00,1.782
324.00,2.202
325.00,2.664
326.00,3.199
327.00,3.780
328.00,4.406
329.00,5.126
330.00,5.849
331.00,6.591
332.00,7.410
333.00,8.271
334.00,9.144
335.00,9.987
336.00,10.866
337.00,11.818
338.00,12.799
339.00,13.600
340.00,14.486
341.00,15.353
342.00,16.235
343.00,16.955
344.00,17.871
345.00,18.601
346.00,19.281
347.00,20.038
348.00,20.674
349.00,21.337
350.00,21.977
351.00,22.439
352.00,23.068
353.00,23.566
354.00,23.949
355.00,24.408
356.00,24.821
357.00,25.252
358.00,25.604
359.00,25.994
360.00,26.337
361.00,26.513
362.00,26.789
363.00,27.079
364.00,27.266
365.00,27.418
366.00,27.507
367.00,27.656
368.00,27.798
369.00,27.893
370.00,27.950
371.00,28.083
372.00,28.097
373.00,28.117
374.00,28.069
375.00,27.946
376.00,28.002
377.00,27.980
378.00,27.753
379.00,27.648
380.00,27.703
381.00,27.673
382.00,27.684
383.00,27.761
384.00,27.839
385.00,27.962
386.00,28.098
387.00,28.248
388.00,28.277
389.00,28.343
390.00,28.458
391.00,28.500
392.00,28.617
393.00,28.601
394.00,28.740
395.00,28.704
396.00,28.757
397.00,28.817
398.00,28.813
399.00,28.925
400.00,28.928
401.00,28.935
402.00,29.055
403.00,29.114
404.00,28.876
405.00,29.061
406.00,28.950
407.00,28.961
408.00,28.914
409.00,28.886
410.00,28.878
411.00,28.875
412.00,28.734
413.00,28.661
414.00,28.764
415.00,28.796
416.00,28.919
417.00,28.948
418.00,28.980
419.00,29.052
420.00,29.147
421.00,28.986
422.00,28.980
423.00,29.036
424.00,29.164
425.00,29.099
426.00,29.205
427.00,29.224
428.00,29.375
429.00,29.233
430.00,29.370
431.00,29.381
432.00,29.415
433.00,29.490
434.00,29.465
435.00,29.581
436.00,29.588
437.00,29.726
438.00,29.820
439.00,29.856
440.00,29.949
441.00,30.022
442.00,30.160
443.00,30.158
444.00,30.314
445.00,30.379
446.00,30.463
447.00,30.556
448.00,30.628
449.00,30.733
450.00,30.846
451.00,30.922
452.00,31.055
453.00,31.148
454.00,31.288
455.00,31.350
456.00,31.538
457.00,31.602
458.00,31.722
459.00,31.823
460.00,31.973
461.00,32.075
462.00,32.214
463.00,32.366
464.00,32.422
465.00,32.561
466.00,32.704
467.00,32.797
468.00,32.935
469.00,32.970
470.00,33.103
471.00,33.123
472.00,33.259
473.00,33.314
474.00,33.401
475.00,33.486
476.00,33.540
477.00,33.717
478.00,33.812
479.00,33.914
480.00,34.090
481.00,34.137
482.00,34.290
483.00,34.407
484.00,34.585
485.00,34.819
486.00,34.902
487.00,35.061
488.00,35.342
489.00,35.341
490.00,35.567
491.00,35.783
492.00,35.635
493.00,35.748
494.00,35.797
495.00,35.986
496.00,36.136
497.00,36.204
498.00,36.335
499.00,36.513
500.00,36.570
501.00,36.684
502.00,36.821
503.00,36.848
504.00,36.897
505.00,37.065
506.00,37.073
507.00,37.207
508.00,37.393
509.00,37.515
510.00,37.550
511.00,37.697
512.00,37.827
513.00,37.882
514.00,38.009
515.00,38.172
516.00,38.103
517.00,38.312
518.00,38.329
519.00,38.337
520.00,38.461
521.00,38.590
522.00,38.581
523.00,38.612
524.00,38.856
525.00,39.024
526.00,39.046
527.00,39.149
528.00,39.268
529.00,39.466
530.00,39.595
531.00,39.563
532.00,39.510
533.00,39.687
534.00,39.693
535.00,39.824
536.00,39.919
537.00,39.914
538.00,39.995
539.00,40.065
540.00,40.066
541.00,40.058
542.00,40.115
543.00,40.178
544.00,40.279
545.00,40.359
546.00,40.431
547.00,40.465
548.00,40.460
549.00,40.547
550.00,40.656
551.00,40.765
552.00,40.743
553.00,40.811
554.00,40.845
555.00,40.943
556.00,41.000
557.00,40.986
558.00,41.060
559.00,41.166
560.00,41.332
561.00,41.379
562.00,41.229
563.00,41.349
564.00,41.413
565.00,41.367
566.00,41.397
567.00,41.410
568.00,41.396
569.00,41.508
570.00,41.521
571.00,41.448
572.00,41.511
573.00,41.579
574.00,41.490
575.00,41.525
576.00,41.585
577.00,41.552
578.00,41.494
579.00,41.675
580.00,41.822
581.00,41.874
582.00,41.949
583.00,42.043
584.00,42.007
585.00,41.986
586.00,42.128
587.00,42.168
588.00,42.134
589.00,42.149
590.00,42.106
591.00,42.181
592.00,42.137
593.00,42.253
594.00,42.265
595.00,42.295
596.00,42.363
597.00,42.564
598.00,42.557
599.00,42.418
600.00,42.728
601.00,42.838
602.00,42.478
603.00,42.442
604.00,42.520
605.00,42.542
606.00,42.614
607.00,42.752
608.00,42.728
609.00,42.853
610.00,42.860
611.00,42.696
612.00,42.710
613.00,42.759
614.00,43.045
615.00,42.891
616.00,42.968
617.00,43.106
618.00,42.907
619.00,42.805
620.00,43.059
621.00,43.137
622.00,43.162
623.00,43.266
624.00,43.247
625.00,43.415
626.00,43.392
627.00,43.430
628.00,43.399
629.00,43.381
630.00,43.477
631.00,43.477
632.00,43.621
633.00,43.696
634.00,43.677
635.00,43.689
636.00,43.786
637.00,43.724
638.00,43.815
639.00,43.797
640.00,43.862
641.00,43.959
642.00,44.093
643.00,44.112
644.00,44.167
645.00,44.274
646.00,44.340
647.00,44.352
648.00,44.349
649.00,44.398
650.00,44.460
651.00,44.599
652.00,44.617
653.00,44.530
654.00,44.635
655.00,44.911
656.00,45.164
657.00,45.164
658.00,45.095
659.00,45.159
660.00,45.181
661.00,44.743
662.00,45.458
663.00,45.244
664.00,45.508
665.00,45.312
666.00,45.252
667.00,45.534
668.00,45.748
669.00,45.472
670.00,45.666
671.00,45.805
672.00,46.029
673.00,45.766
674.00,45.926
675.00,45.987
676.00,45.982
677.00,46.021
678.00,46.026
679.00,46.352
680.00,46.506
681.00,46.135
682.00,46.395
683.00,46.236
684.00,46.110
685.00,46.323
686.00,46.429
687.00,46.451
688.00,46.662
689.00,46.719
690.00,46.559
691.00,46.897
692.00,47.239
693.00,46.680
694.00,46.735
695.00,46.924
696.00,46.928
697.00,47.040
698.00,47.127
699.00,46.995
700.00,46.931
701.00,47.305
702.00,47.534
703.00,47.476
704.00,47.202
705.00,47.538
706.00,47.956
707.00,47.401
708.00,47.419
709.00,47.481
710.00,47.525
711.00,47.385
712.00,47.697
713.00,47.826
714.00,47.774
715.00,47.835
716.00,47.773
717.00,47.796
718.00,47.996
719.00,48.039
720.00,47.973
721.00,52.889
722.00,52.931
723.00,52.969
724.00,52.845
725.00,52.886
726.00,52.746
727.00,52.875
728.00,52.803
729.00,52.878
730.00,53.073
731.00,52.817
732.00,52.807
733.00,52.863
734.00,52.825
735.00,52.960
736.00,52.828
737.00,53.065
738.00,52.957
739.00,53.058
740.00,52.928
741.00,52.896
742.00,53.160
743.00,53.006
744.00,52.869
745.00,52.851
746.00,52.898
747.00,52.799
748.00,52.781
749.00,52.788
750.00,52.761
751.00,52.813
752.00,52.693
753.00,52.721
754.00,52.648
755.00,52.809
756.00,52.793
757.00,52.605
758.00,52.592
759.00,52.725
760.00,52.663
761.00,52.697
762.00,52.639
763.00,52.760
764.00,52.789
765.00,52.634
766.00,52.691
767.00,52.608
768.00,52.672
769.00,52.541
770.00,52.546
771.00,52.617
772.00,52.571
773.00,52.677
774.00,52.532
775.00,52.609
776.00,52.545
777.00,52.762
778.00,52.455
779.00,52.512
780.00,52.573
781.00,52.479
782.00,52.466
783.00,52.494
784.00,52.463
785.00,52.422
786.00,52.433
787.00,52.444
788.00,52.298
789.00,52.509
790.00,52.307
791.00,52.381
792.00,52.305
793.00,52.218
794.00,52.273
795.00,52.263
796.00,52.298
797.00,52.187
798.00,52.229
799.00,52.201
800.00,51.989
801.00,52.071
802.00,51.996
803.00,51.902
804.00,51.918
805.00,51.920
806.00,51.922
807.00,51.844
808.00,51.942
809.00,51.757
810.00,51.900
811.00,51.797
812.00,51.760
813.00,51.888
814.00,51.564
815.00,51.742
816.00,51.706
817.00,51.677
818.00,51.623
819.00,51.610
820.00,51.576
821.00,51.613
822.00,51.715
823.00,51.582
824.00,51.703
825.00,51.442
826.00,51.475
827.00,51.538
828.00,51.422
829.00,51.519
830.00,51.323
831.00,53.681
832.00,53.725
833.00,53.806
834.00,53.571
835.00,53.628
836.00,53.659
837.00,53.583
838.00,53.535
839.00,53.621
840.00,53.705
841.00,53.510
842.00,53.515
843.00,53.533
844.00,53.497
845.00,53.338
846.00,53.469
847.00,53.385
848.00,53.373
849.00,53.248
850.00,53.314
851.00,53.194
852.00,53.270
853.00,53.218
854.00,53.103
855.00,53.148
856.00,53.018
857.00,53.066
858.00,53.011
859.00,52.938
860.00,52.968
861.00,53.013
862.00,52.996
863.00,52.952
864.00,52.968
865.00,52.928
866.00,52.956
867.00,52.891
868.00,52.930
869.00,52.836
870.00,52.839
871.00,52.766
872.00,52.855
873.00,52.852
874.00,52.840
875.00,52.782
876.00,52.781
877.00,52.753
878.00,52.784
879.00,52.690
880.00,52.703
881.00,52.667
882.00,52.717
883.00,52.646
884.00,52.582
885.00,52.631
886.00,52.581
887.00,52.530
888.00,52.476
889.00,52.569
890.00,52.514
891.00,52.491
892.00,52.452
893.00,52.495
894.00,52.434
895.00,52.386
896.00,52.366
897.00,52.347
898.00,52.307
899.00,52.314
900.00,52.268
901.00,52.337
902.00,52.336
903.00,52.263
904.00,52.281
905.00,52.234
906.00,52.270
907.00,52.169
908.00,52.153
909.00,52.173
910.00,52.058
911.00,52.135
912.00,52.073
913.00,52.050
914.00,52.025
915.00,52.019
916.00,51.974
917.00,52.000
918.00,51.970
919.00,51.924
920.00,51.976
921.00,51.921
922.00,51.900
923.00,51.855
924.00,51.812
925.00,51.835
926.00,51.818
927.00,51.769
928.00,51.777
929.00,51.761
930.00,51.750
931.00,51.702
932.00,51.674
933.00,51.674
934.00,51.652
935.00,51.623
936.00,51.587
937.00,51.593
938.00,51.568
939.00,51.544
940.00,51.539
941.00,51.531
942.00,51.529
943.00,51.453
944.00,51.473
945.00,51.436
946.00,51.431
947.00,51.377
948.00,51.375
949.00,51.363
950.00,51.325
951.00,51.309
952.00,51.298
953.00,51.257
954.00,51.231
955.00,51.219
956.00,51.194
957.00,51.175
958.00,51.149
959.00,51.136
960.00,51.070
961.00,51.092
962.00,51.089
963.00,51.081
964.00,51.028
965.00,51.079
966.00,51.027
967.00,51.019
968.00,51.028
969.00,51.025
970.00,51.015
971.00,50.975
972.00,50.970
973.00,50.976
974.00,51.025
975.00,50.983
976.00,50.979
977.00,51.018
978.00,51.013
979.00,51.000
980.00,50.978
981.00,50.985
982.00,50.947
983.00,50.972
984.00,50.961
985.00,50.976
986.00,50.918
987.00,50.949
988.00,50.960
989.00,50.894
990.00,50.919
991.00,50.913
992.00,50.900
993.00,50.872
994.00,50.853
995.00,50.856
996.00,50.821
997.00,50.837
998.00,50.832
999.00,50.802
1000.00,50.775
1001.00,50.762
1002.00,50.794
1003.00,50.743
1004.00,50.751
1005.00,50.701
1006.00,50.705
1007.00,50.708
1008.00,50.678
1009.00,50.692
1010.00,50.654
1011.00,50.685
1012.00,50.647
1013.00,50.636
1014.00,50.615
1015.00,50.615
1016.00,50.604
1017.00,50.549
1018.00,50.575
1019.00,50.513
1020.00,50.518
1021.00,50.495
1022.00,50.473
1023.00,50.443
1024.00,50.441
1025.00,50.426
1026.00,50.414
1027.00,50.400
1028.00,50.378
1029.00,50.400
1030.00,50.333
1031.00,50.343
1032.00,50.354
1033.00,50.316
1034.00,50.287
1035.00,50.265
1036.00,50.268
1037.00,50.232
1038.00,50.210
1039.00,50.179
1040.00,50.187
1041.00,50.134
1042.00,50.131
1043.00,50.144
1044.00,50.153
1045.00,50.148
1046.00,50.137
1047.00,50.174
1048.00,50.179
1049.00,50.177
1050.00,50.173
1051.00,50.204
1052.00,50.215
1053.00,50.204
1054.00,50.227
1055.00,50.232
1056.00,50.247
1057.00,50.266
1058.00,50.240
1059.00,50.252
1060.00,50.285
1061.00,50.235
1062.00,50.250
1063.00,50.202
1064.00,50.206
1065.00,50.184
1066.00,50.154
1067.00,50.150
1068.00,50.167
1069.00,50.131
1070.00,50.144
1071.00,50.128
1072.00,50.111
1073.00,50.103
1074.00,50.080
1075.00,50.094
1076.00,50.091
1077.00,50.085
1078.00,50.082
1079.00,50.078
1080.00,50.081
1081.00,50.063
1082.00,50.042
1083.00,50.049
1084.00,50.054
1085.00,50.039
1086.00,50.033
1087.00,50.037
1088.00,50.010
1089.00,50.009
1090.00,50.006
1091.00,49.997
1092.00,49.980
1093.00,49.975
1094.00,49.949
1095.00,49.957
1096.00,49.908
1097.00,49.926
1098.00,49.923
1099.00,49.898
1100.00,49.892
1101.00,49.887
1102.00,49.884
1103.00,49.876
1104.00,49.865
1105.00,49.891
1106.00,49.883
1107.00,49.817
1108.00,49.838
1109.00,49.834
1110.00,49.824
1111.00,49.838
1112.00,49.815
1113.00,49.821
1114.00,49.803
1115.00,49.820
1116.00,49.796
1117.00,49.787
1118.00,49.783
1119.00,49.781
1120.00,49.812
1121.00,49.817
1122.00,49.768
1123.00,49.740
1124.00,49.745
1125.00,49.716
1126.00,49.714
1127.00,49.706
1128.00,49.715
1129.00,49.679
1130.00,49.709
1131.00,49.714
1132.00,49.682
1133.00,49.691
1134.00,49.619
1135.00,49.653
1136.00,49.663
1137.00,49.681
1138.00,49.673
1139.00,49.671
1140.00,49.637
1141.00,49.655
1142.00,49.656
1143.00,49.662
1144.00,49.647
1145.00,49.667
1146.00,49.648
1147.00,49.632
1148.00,49.623
1149.00,49.616
1150.00,49.653
1151.00,49.626
1152.00,49.612
1153.00,49.641
1154.00,49.605
1155.00,49.622
1156.00,49.616
1157.00,49.615
1158.00,49.619
1159.00,49.602
1160.00,49.620
1161.00,49.636
1162.00,49.628
1163.00,49.617
1164.00,49.632
1165.00,49.607
1166.00,49.609
1167.00,49.606
1168.00,49.608
1169.00,49.591
1170.00,49.607
1171.00,49.598
1172.00,49.598
1173.00,49.587
1174.00,49.584
1175.00,49.597
1176.00,49.586
1177.00,49.602
1178.00,49.599
1179.00,49.614
1180.00,49.591
1181.00,49.627
1182.00,49.592
1183.00,49.612
1184.00,49.578
1185.00,49.587
1186.00,49.596
1187.00,49.570
1188.00,49.602
1189.00,49.585
1190.00,49.577
1191.00,49.546
1192.00,49.596
1193.00,49.601
1194.00,49.614
1195.00,49.593
1196.00,49.572
1197.00,49.615
1198.00,49.575
1199.00,49.606
1200.00,49.605
1201.00,49.598
1202.00,49.563
1203.00,49.581
1204.00,49.585
1205.00,49.596
1206.00,49.578
1207.00,49.601
1208.00,49.614
1209.00,49.583
1210.00,49.609
1211.00,49.580
1212.00,49.594
1213.00,49.582
1214.00,49.585
1215.00,49.580
1216.00,49.554
1217.00,49.585
1218.00,49.602
1219.00,49.607
1220.00,49.581
1221.00,49.624
1222.00,49.627
1223.00,49.597
1224.00,49.621
1225.00,49.597
1226.00,49.627
1227.00,49.610
1228.00,49.603
1229.00,49.635
1230.00,49.678
1231.00,49.657
1232.00,49.651
1233.00,49.695
1234.00,49.668
1235.00,49.698
1236.00,49.680
1237.00,49.681
1238.00,49.674
1239.00,49.646
1240.00,49.641
1241.00,49.692
1242.00,49.686
1243.00,49.684
1244.00,49.690
1245.00,49.690
1246.00,49.714
1247.00,49.707
1248.00,49.726
1249.00,49.729
1250.00,49.721
1251.00,49.713
1252.00,49.747
1253.00,49.722
1254.00,49.766
1255.00,49.759
1256.00,49.724
1257.00,49.714
1258.00,49.722
1259.00,49.728
1260.00,49.740
1261.00,49.729
1262.00,49.745
1263.00,49.764
1264.00,49.762
1265.00,49.801
1266.00,49.791
1267.00,49.790
1268.00,49.789
1269.00,49.784
1270.00,49.823
1271.00,49.838
1272.00,49.806
1273.00,49.871
1274.00,49.839
1275.00,49.848
1276.00,49.850
1277.00,49.861
1278.00,49.872
1279.00,49.896
1280.00,49.874
1281.00,49.904
1282.00,49.913
1283.00,49.875
1284.00,49.894
1285.00,49.916
1286.00,49.882
1287.00,49.904
1288.00,49.901
1289.00,49.891
1290.00,49.928
1291.00,49.920
1292.00,49.919
1293.00,49.947
1294.00,49.944
1295.00,49.944
1296.00,49.961
1297.00,49.936
1298.00,49.965
1299.00,49.979
1300.00,49.954
1301.00,49.995
1302.00,50.032
1303.00,49.992
1304.00,50.028
1305.00,49.987
1306.00,50.035
1307.00,50.054
1308.00,50.026
1309.00,50.051
1310.00,50.052
1311.00,50.027
1312.00,50.027
1313.00,50.053
1314.00,50.071
1315.00,50.098
1316.00,50.080
1317.00,50.095
1318.00,50.138
1319.00,50.135
1320.00,50.126
1321.00,50.333
1322.00,50.285
1323.00,50.277
1324.00,50.269
1325.00,50.276
1326.00,50.273
1327.00,50.292
1328.00,50.274
1329.00,50.311
1330.00,50.266
1331.00,50.299
1332.00,50.311
1333.00,50.303
1334.00,50.344
1335.00,50.355
1336.00,50.380
1337.00,50.428
1338.00,50.478
1339.00,50.498
1340.00,50.571
1341.00,50.631
1342.00,50.704
1343.00,50.759
1344.00,50.791
1345.00,50.853
1346.00,50.973
1347.00,50.919
1348.00,50.913
1349.00,50.947
1350.00,50.996
1351.00,50.982
1352.00,50.912
1353.00,50.940
1354.00,51.038
1355.00,51.003
1356.00,50.932
1357.00,51.002
1358.00,51.126
1359.00,51.046
1360.00,51.152
1361.00,51.319
1362.00,51.229
1363.00,50.971
1364.00,50.939
1365.00,51.094
1366.00,51.208
1367.00,51.118
1368.00,51.286
1369.00,51.483
1370.00,51.044
1371.00,51.090
1372.00,51.036
1373.00,51.079
1374.00,51.069
1375.00,51.086
1376.00,51.063
1377.00,51.023
1378.00,50.512
1379.00,50.775
1380.00,51.206
1381.00,50.855
1382.00,51.060
1383.00,51.176
1384.00,51.052
1385.00,50.894
1386.00,51.085
1387.00,50.950
1388.00,51.058
1389.00,50.962
1390.00,51.235
1391.00,50.677
1392.00,50.973
1393.00,51.346
1394.00,51.276
1395.00,50.831
1396.00,51.052
1397.00,51.155
1398.00,51.211
1399.00,51.048
1400.00,51.021
1401.00,51.157
1402.00,51.433
1403.00,51.259
1404.00,51.180
1405.00,51.157
1406.00,51.061
1407.00,51.160
1408.00,50.986
1409.00,51.094
1410.00,51.203
1411.00,51.017
1412.00,51.332
1413.00,51.202
1414.00,51.131
1415.00,51.238
1416.00,51.144
1417.00,51.357
1418.00,51.171
1419.00,51.238
1420.00,51.247
1421.00,51.276
1422.00,51.286
1423.00,51.337
1424.00,51.390
1425.00,51.318
1426.00,51.316
1427.00,51.326
1428.00,51.360
1429.00,51.369
1430.00,51.389
1431.00,51.358
1432.00,51.435
1433.00,51.370
1434.00,51.465
1435.00,51.438
1436.00,51.523
1437.00,51.456
1438.00,51.559
1439.00,51.491
1440.00,51.583
1441.00,51.589
1442.00,51.609
1443.00,51.594
1444.00,51.797
1445.00,51.664
1446.00,51.670
1447.00,51.706
1448.00,51.744
1449.00,51.737
1450.00,51.778
1451.00,51.737
1452.00,51.792
1453.00,51.808
1454.00,51.769
1455.00,51.806
1456.00,51.811
1457.00,51.845
1458.00,51.856
1459.00,51.878
1460.00,51.869
1461.00,51.928
1462.00,51.880
1463.00,51.952
1464.00,51.965
1465.00,51.971
1466.00,51.985
1467.00,52.007
1468.00,52.033
1469.00,52.049
1470.00,52.088
1471.00,52.050
1472.00,52.095
1473.00,52.088
1474.00,52.153
1475.00,52.148
1476.00,52.144
1477.00,52.156
1478.00,52.200
1479.00,52.174
1480.00,52.225
1481.00,52.217
1482.00,52.250
1483.00,52.271
1484.00,52.260
1485.00,52.276
1486.00,52.284
1487.00,52.326
1488.00,52.308
1489.00,52.348
1490.00,52.338
1491.00,52.387
1492.00,52.375
1493.00,52.410
1494.00,52.439
1495.00,52.411
1496.00,52.411
1497.00,52.455
1498.00,52.425
1499.00,52.478
1500.00,52.466
1501.00, 
1502.00, 
1503.00, 
1504.00, 
1505.00, 
1506.00, 
1507.00, 
1508.00, 
1509.00, 
1510.00, 
1511.00, 
1512.00, 
1513.00, 
1514.00, 
1515.00, 
1516.00, 
1517.00, 
1518.00, 
1519.00, 
1520.00, 
1521.00, 
1522.00, 
1523.00, 
1524.00, 
1525.00, 
1526.00, 
1527.00, 
1528.00, 
1529.00, 
1530.00, 
1531.00, 
1532.00, 
1533.00, 
1534.00, 
1535.00, 
1536.00, 
1537.00, 
1538.00, 
1539.00, 
1540.00, 
1541.00, 
1542.00, 
1543.00, 
1544.00, 
1545.00, 
1546.00, 
1547.00, 
1548.00, 
1549.00, 
1550.00, 
1551.00, 
1552.00, 
1553.00, 
1554.00, 
1555.00, 
1556.00, 
1557.00, 
1558.00, 
1559.00, 
1560.00, 
1561.00, 
1562.00, 
1563.00, 
1564.00, 
1565.00, 
1566.00, 
1567.00, 
1568.00, 
1569.00, 
1570.00, 
1571.00, 
1572.00, 
1573.00, 
1574.00, 
1575.00, 
1576.00, 
1577.00, 
1578.00, 
1579.00, 
1580.00, 
1581.00, 
1582.00, 
1583.00, 
1584.00, 
1585.00, 
1586.00, 
1587.00, 
1588.00, 
1589.00, 
1590.00, 
1591.00, 
1592.00, 
1593.00, 
1594.00, 
1595.00, 
1596.00, 
1597.00, 
1598.00, 
1599.00, 
1600.00, 
1601.00, 
1602.00, 
1603.00, 
1604.00, 
1605.00, 
1606.00, 
1607.00, 
1608.00, 
1609.00, 
1610.00, 
1611.00, 
1612.00, 
1613.00, 
1614.00, 
1615.00, 
1616.00, 
1617.00, 
1618.00, 
1619.00, 
1620.00, 
1621.00, 
1622.00, 
1623.00, 
1624.00, 
1625.00, 
1626.00, 
1627.00, 
1628.00, 
1629.00, 
1630.00, 
1631.00, 
1632.00, 
1633.00, 
1634.00, 
1635.00, 
1636.00, 
1637.00, 
1638.00, 
1639.00, 
1640.00, 
1641.00, 
1642.00, 
1643.00, 
1644.00, 
1645.00, 
1646.00, 
1647.00, 
1648.00, 
1649.00, 
1650.00, 
1651.00, 
1652.00, 
1653.00, 
1654.00, 
1655.00, 
1656.00, 
1657.00, 
1658.00, 
1659.00, 
1660.00, 
1661.00, 
1662.00, 
1663.00, 
1664.00, 
1665.00, 
1666.00, 
1667.00, 
1668.00, 
1669.00, 
1670.00, 
1671.00, 
1672.00, 
1673.00, 
1674.00, 
1675.00, 
1676.00, 
1677.00, 
1678.00, 
1679.00, 
1680.00, 
1681.00, 
1682.00, 
1683.00, 
1684.00, 
1685.00, 
1686.00, 
1687.00, 
1688.00, 
1689.00, 
1690.00, 
1691.00, 
1692.00, 
1693.00, 
1694.00, 
1695.00, 
1696.00, 
1697.00, 
1698.00, 
1699.00, 
1700.00, 
1701.00, 
1702.00, 
1703.00, 
1704.00, 
1705.00, 
1706.00, 
1707.00, 
1708.00, 
1709.00, 
1710.00, 
1711.00, 
1712.00, 
1713.00, 
1714.00, 
1715.00, 
1716.00, 
1717.00, 
1718.00, 
1719.00, 
1720.00, 
1721.00, 
1722.00, 
1723.00, 
1724.00, 
1725.00, 
1726.00, 
1727.00, 
1728.00, 
1729.00, 
1730.00, 
1731.00, 
1732.00, 
1733.00, 
1734.00, 
1735.00, 
1736.00, 
1737.00, 
1738.00, 
1739.00, 
1740.00, 
1741.00, 
1742.00, 
1743.00, 
1744.00, 
1745.00, 
1746.00, 
1747.00, 
1748.00, 
1749.00, 
1750.00, 
1751.00, 
1752.00, 
1753.00, 
1754.00, 
1755.00, 
1756.00, 
1757.00, 
1758.00, 
1759.00, 
1760.00, 
1761.00, 
1762.00, 
1763.00, 
1764.00, 
1765.00, 
1766.00, 
1767.00, 
1768.00, 
1769.00, 
1770.00, 
1771.00, 
1772.00, 
1773.00, 
1774.00, 
1775.00, 
1776.00, 
1777.00, 
1778.00, 
1779.00, 
1780.00, 
1781.00, 
1782.00, 
1783.00, 
1784.00, 
1785.00, 
1786.00, 
1787.00, 
1788.00, 
1789.00, 
1790.00, 
1791.00, 
1792.00, 
1793.00, 
1794.00, 
1795.00, 
1796.00, 
1797.00, 
1798.00, 
1799.00, 
1800.00, 
1801.00, 
1802.00, 
1803.00, 
1804.00, 
1805.00, 
1806.00, 
1807.00, 
1808.00, 
1809.00, 
1810.00, 
1811.00, 
1812.00, 
1813.00, 
1814.00, 
1815.00, 
1816.00, 
1817.00, 
1818.00, 
1819.00, 
1820.00, 
1821.00, 
1822.00, 
1823.00, 
1824.00, 
1825.00, 
1826.00, 
1827.00, 
1828.00, 
1829.00, 
1830.00, 
1831.00, 
1832.00, 
1833.00, 
1834.00, 
1835.00, 
1836.00, 
1837.00, 
1838.00, 
1839.00, 
1840.00, 
1841.00, 
1842.00, 
1843.00, 
1844.00, 
1845.00, 
1846.00, 
1847.00, 
1848.00, 
1849.00, 
1850.00, 
1851.00, 
1852.00, 
1853.00, 
1854.00, 
1855.00, 
1856.00, 
1857.00, 
1858.00, 
1859.00, 
1860.00, 
1861.00, 
1862.00, 
1863.00, 
1864.00, 
1865.00, 
1866.00, 
1867.00, 
1868.00, 
1869.00, 
1870.00, 
1871.00, 
1872.00, 
1873.00, 
1874.00, 
1875.00, 
1876.00, 
1877.00, 
1878.00, 
1879.00, 
1880.00, 
1881.00, 
1882.00, 
1883.00, 
1884.00, 
1885.00, 
1886.00, 
1887.00, 
1888.00, 
1889.00, 
1890.00, 
1891.00, 
1892.00, 
1893.00, 
1894.00, 
1895.00, 
1896.00, 
1897.00, 
1898.00, 
1899.00, 
1900.00, 
1901.00, 
1902.00, 
1903.00, 
1904.00, 
1905.00, 
1906.00, 
1907.00, 
1908.00, 
1909.00, 
1910.00, 
1911.00, 
1912.00, 
1913.00, 
1914.00, 
1915.00, 
1916.00, 
1917.00, 
1918.00, 
1919.00, 
1920.00, 
1921.00, 
1922.00, 
1923.00, 
1924.00, 
1925.00, 
1926.00, 
1927.00, 
1928.00, 
1929.00, 
1930.00, 
1931.00, 
1932.00, 
1933.00, 
1934.00, 
1935.00, 
1936.00, 
1937.00, 
1938.00, 
1939.00, 
1940.00, 
1941.00, 
1942.00, 
1943.00, 
1944.00, 
1945.00, 
1946.00, 
1947.00, 
1948.00, 
1949.00, 
1950.00, 
1951.00, 
1952.00, 
1953.00, 
1954.00, 
1955.00, 
1956.00, 
1957.00, 
1958.00, 
1959.00, 
1960.00, 
1961.00, 
1962.00, 
1963.00, 
1964.00, 
1965.00, 
1966.00, 
1967.00, 
1968.00, 
1969.00, 
1970.00, 
1971.00, 
1972.00, 
1973.00, 
1974.00, 
1975.00, 
1976.00, 
1977.00, 
1978.00, 
1979.00, 
1980.00, 
1981.00, 
1982.00, 
1983.00, 
1984.00, 
1985.00, 
1986.00, 
1987.00, 
1988.00, 
1989.00, 
1990.00, 
1991.00, 
1992.00, 
1993.00, 
1994.00, 
1995.00, 
1996.00, 
1997.00, 
1998.00, 
1999.00, 
2000.00, 
2001.00, 
2002.00, 
2003.00, 
2004.00, 
2005.00, 
2006.00, 
2007.00, 
2008.00, 
2009.00, 
2010.00, 
2011.00, 
2012.00, 
2013.00, 
2014.00, 
2015.00, 
2016.00, 
2017.00, 
2018.00, 
2019.00, 
2020.00, 
2021.00, 
2022.00, 
2023.00, 
2024.00, 
2025.00, 
2026.00, 
2027.00, 
2028.00, 
2029.00, 
2030.00, 
2031.00, 
2032.00, 
2033.00, 
2034.00, 
2035.00, 
2036.00, 
2037.00, 
2038.00, 
2039.00, 
2040.00, 
2041.00, 
2042.00, 
2043.00, 
2044.00, 
2045.00, 
2046.00, 
2047.00, 
2048.00, 
2049.00, 
2050.00, 
2051.00, 
2052.00, 
2053.00, 
2054.00, 
2055.00, 
2056.00, 
2057.00, 
2058.00, 
2059.00, 
2060.00, 
2061.00, 
2062.00, 
2063.00, 
2064.00, 
2065.00, 
2066.00, 
2067.00, 
2068.00, 
2069.00, 
2070.00, 
2071.00, 
2072.00, 
2073.00, 
2074.00, 
2075.00, 
2076.00, 
2077.00, 
2078.00, 
2079.00, 
2080.00, 
2081.00, 
2082.00, 
2083.00, 
2084.00, 
2085.00, 
2086.00, 
2087.00, 
2088.00, 
2089.00, 
2090.00, 
2091.00, 
2092.00, 
2093.00, 
2094.00, 
2095.00, 
2096.00, 
2097.00, 
2098.00, 
2099.00, 
2100.00, 
2101.00, 
2102.00, 
2103.00, 
2104.00, 
2105.00, 
2106.00, 
2107.00, 
2108.00, 
2109.00, 
2110.00, 
2111.00, 
2112.00, 
2113.00, 
2114.00, 
2115.00, 
2116.00, 
2117.00, 
2118.00, 
2119.00, 
2120.00, 
2121.00, 
2122.00, 
2123.00, 
2124.00, 
2125.00, 
2126.00, 
2127.00, 
2128.00, 
2129.00, 
2130.00, 
2131.00, 
2132.00, 
2133.00, 
2134.00, 
2135.00, 
2136.00, 
2137.00, 
2138.00, 
2139.00, 
2140.00, 
2141.00, 
2142.00, 
2143.00, 
2144.00, 
2145.00, 
2146.00, 
2147.00, 
2148.00, 
2149.00, 
2150.00, 
2151.00, 
2152.00, 
2153.00, 
2154.00, 
2155.00, 
2156.00, 
2157.00, 
2158.00, 
2159.00, 
2160.00, 
2161.00, 
2162.00, 
2163.00, 
2164.00, 
2165.00, 
2166.00, 
2167.00, 
2168.00, 
2169.00, 
2170.00, 
2171.00, 
2172.00, 
2173.00, 
2174.00, 
2175.00, 
2176.00, 
2177.00, 
2178.00, 
2179.00, 
2180.00, 
2181.00, 
2182.00, 
2183.00, 
2184.00, 
2185.00, 
2186.00, 
2187.00, 
2188.00, 
2189.00, 
2190.00, 
2191.00, 
2192.00, 
2193.00, 
2194.00, 
2195.00, 
2196.00, 
2197.00, 
2198.00, 
2199.00, 
2200.00, 
2201.00, 
2202.00, 
2203.00, 
2204.00, 
2205.00, 
2206.00, 
2207.00, 
2208.00, 
2209.00, 
2210.00, 
2211.00, 
2212.00, 
2213.00, 
2214.00, 
2215.00, 
2216.00, 
2217.00, 
2218.00, 
2219.00, 
2220.00, 
2221.00, 
2222.00, 
2223.00, 
2224.00, 
2225.00, 
2226.00, 
2227.00, 
2228.00, 
2229.00, 
2230.00, 
2231.00, 
2232.00, 
2233.00, 
2234.00, 
2235.00, 
2236.00, 
2237.00, 
2238.00, 
2239.00, 
2240.00, 
2241.00, 
2242.00, 
2243.00, 
2244.00, 
2245.00, 
2246.00, 
2247.00, 
2248.00, 
2249.00, 
2250.00, 
2251.00, 
2252.00, 
2253.00, 
2254.00, 
2255.00, 
2256.00, 
2257.00, 
2258.00, 
2259.00, 
2260.00, 
2261.00, 
2262.00, 
2263.00, 
2264.00, 
2265.00, 
2266.00, 
2267.00, 
2268.00, 
2269.00, 
2270.00, 
2271.00, 
2272.00, 
2273.00, 
2274.00, 
2275.00, 
2276.00, 
2277.00, 
2278.00, 
2279.00, 
2280.00, 
2281.00, 
2282.00, 
2283.00, 
2284.00, 
2285.00, 
2286.00, 
2287.00, 
2288.00, 
2289.00, 
2290.00, 
2291.00, 
2292.00, 
2293.00, 
2294.00, 
2295.00, 
2296.00, 
2297.00, 
2298.00, 
2299.00, 
2300.00, 
2301.00, 
2302.00, 
2303.00, 
2304.00, 
2305.00, 
2306.00, 
2307.00, 
2308.00, 
2309.00, 
2310.00, 
2311.00, 
2312.00, 
2313.00, 
2314.00, 
2315.00, 
2316.00, 
2317.00, 
2318.00, 
2319.00, 
2320.00, 
2321.00, 
2322.00, 
2323.00, 
2324.00, 
2325.00, 
2326.00, 
2327.00, 
2328.00, 
2329.00, 
2330.00, 
2331.00, 
2332.00, 
2333.00, 
2334.00, 
2335.00, 
2336.00, 
2337.00, 
2338.00, 
2339.00, 
2340.00, 
2341.00, 
2342.00, 
2343.00, 
2344.00, 
2345.00, 
2346.00, 
2347.00, 
2348.00, 
2349.00, 
2350.00, 
2351.00, 
2352.00, 
2353.00, 
2354.00, 
2355.00, 
2356.00, 
2357.00, 
2358.00, 
2359.00, 
2360.00, 
2361.00, 
2362.00, 
2363.00, 
2364.00, 
2365.00, 
2366.00, 
2367.00, 
2368.00, 
2369.00, 
2370.00, 
2371.00, 
2372.00, 
2373.00, 
2374.00, 
2375.00, 
2376.00, 
2377.00, 
2378.00, 
2379.00, 
2380.00, 
2381.00, 
2382.00, 
2383.00, 
2384.00, 
2385.00, 
2386.00, 
2387.00, 
2388.00, 
2389.00, 
2390.00, 
2391.00, 
2392.00, 
2393.00, 
2394.00, 
2395.00, 
2396.00, 
2397.00, 
2398.00, 
2399.00, 
2400.00, 
2401.00, 
2402.00, 
2403.00, 
2404.00, 
2405.00, 
2406.00, 
2407.00, 
2408.00, 
2409.00, 
2410.00, 
2411.00, 
2412.00, 
2413.00, 
2414.00, 
2415.00, 
2416.00, 
2417.00, 
2418.00, 
2419.00, 
2420.00, 
2421.00, 
2422.00, 
2423.00, 
2424.00, 
2425.00, 
2426.00, 
2427.00, 
2428.00, 
2429.00, 
2430.00, 
2431.00, 
2432.00, 
2433.00, 
2434.00, 
2435.00, 
2436.00, 
2437.00, 
2438.00, 
2439.00, 
2440.00, 
2441.00, 
2442.00, 
2443.00, 
2444.00, 
2445.00, 
2446.00, 
2447.00, 
2448.00, 
2449.00, 
2450.00, 
2451.00, 
2452.00, 
2453.00, 
2454.00, 
2455.00, 
2456.00, 
2457.00, 
2458.00, 
2459.00, 
2460.00, 
2461.00, 
2462.00, 
2463.00, 
2464.00, 
2465.00, 
2466.00, 
2467.00, 
2468.00, 
2469.00, 
2470.00, 
2471.00, 
2472.00, 
2473.00, 
2474.00, 
2475.00, 
2476.00, 
2477.00, 
2478.00, 
2479.00, 
2480.00, 
2481.00, 
2482.00, 
2483.00, 
2484.00, 
2485.00, 
2486.00, 
2487.00, 
2488.00, 
2489.00, 
2490.00, 
2491.00, 
2492.00, 
2493.00, 
2494.00, 
2495.00, 
2496.00, 
2497.00, 
2498.00, 
2499.00, 
2500.00, 
2501.00, 
2502.00, 
2503.00, 
2504.00, 
2505.00, 
2506.00, 
2507.00, 
2508.00, 
2509.00, 
2510.00, 
2511.00, 
2512.00, 
2513.00, 
2514.00, 
2515.00, 
2516.00, 
2517.00, 
2518.00, 
2519.00, 
2520.00, 
2521.00, 
2522.00, 
2523.00, 
2524.00, 
2525.00, 
2526.00, 
2527.00, 
2528.00, 
2529.00, 
2530.00, 
2531.00, 
2532.00, 
2533.00, 
2534.00, 
2535.00, 
2536.00, 
2537.00, 
2538.00, 
2539.00, 
2540.00, 
2541.00, 
2542.00, 
2543.00, 
2544.00, 
2545.00, 
2546.00, 
2547.00, 
2548.00, 
2549.00, 
2550.00, 
2551.00, 
2552.00, 
2553.00, 
2554.00, 
2555.00, 
2556.00, 
2557.00, 
2558.00, 
2559.00, 
2560.00, 
2561.00, 
2562.00, 
2563.00, 
2564.00, 
2565.00, 
2566.00, 
2567.00, 
2568.00, 
2569.00, 
2570.00, 
2571.00, 
2572.00, 
2573.00, 
2574.00, 
2575.00, 
2576.00, 
2577.00, 
2578.00, 
2579.00, 
2580.00, 
2581.00, 
2582.00, 
2583.00, 
2584.00, 
2585.00, 
2586.00, 
2587.00, 
2588.00, 
2589.00, 
2590.00, 
2591.00, 
2592.00, 
2593.00, 
2594.00, 
2595.00, 
2596.00, 
2597.00, 
2598.00, 
2599.00, 
2600.00, 
