"2bP2 - RawData"
"Wavelength nm.","T%"
200.00,0.001
201.00,0.003
202.00,-0.002
203.00,0.003
204.00,0.010
205.00,0.000
206.00,0.001
207.00,0.002
208.00,0.006
209.00,0.000
210.00,0.001
211.00,0.003
212.00,-0.002
213.00,0.005
214.00,0.003
215.00,0.000
216.00,0.001
217.00,0.004
218.00,0.001
219.00,-0.002
220.00,0.002
221.00,-0.001
222.00,-0.000
223.00,0.002
224.00,0.000
225.00,0.001
226.00,0.003
227.00,0.002
228.00,0.003
229.00,0.003
230.00,0.002
231.00,0.002
232.00,-0.000
233.00,-0.000
234.00,0.001
235.00,0.001
236.00,-0.000
237.00,0.001
238.00,0.000
239.00,-0.001
240.00,0.002
241.00,0.002
242.00,-0.000
243.00,0.000
244.00,-0.001
245.00,0.000
246.00,-0.000
247.00,0.000
248.00,-0.001
249.00,-0.000
250.00,-0.000
251.00,-0.001
252.00,-0.001
253.00,0.000
254.00,0.001
255.00,0.002
256.00,0.001
257.00,-0.000
258.00,0.001
259.00,0.000
260.00,0.001
261.00,0.002
262.00,-0.001
263.00,0.000
264.00,-0.000
265.00,0.001
266.00,0.001
267.00,0.001
268.00,0.002
269.00,0.001
270.00,-0.001
271.00,0.001
272.00,0.001
273.00,0.001
274.00,-0.000
275.00,-0.002
276.00,0.001
277.00,-0.000
278.00,0.001
279.00,0.001
280.00,0.001
281.00,0.001
282.00,0.000
283.00,0.003
284.00,0.002
285.00,0.001
286.00,0.001
287.00,0.002
288.00,0.000
289.00,0.001
290.00,-0.000
291.00,0.000
292.00,-0.000
293.00,0.001
294.00,0.001
295.00,0.002
296.00,0.001
297.00,-0.000
298.00,0.000
299.00,0.003
300.00,0.003
301.00,0.003
302.00,0.006
303.00,0.011
304.00,0.018
305.00,0.027
306.00,0.043
307.00,0.071
308.00,0.106
309.00,0.163
310.00,0.221
311.00,0.303
312.00,0.401
313.00,0.541
314.00,0.741
315.00,0.943
316.00,1.210
317.00,1.536
318.00,1.865
319.00,2.289
320.00,2.763
321.00,3.280
322.00,3.909
323.00,4.561
324.00,5.272
325.00,5.937
326.00,6.704
327.00,7.575
328.00,8.418
329.00,9.365
330.00,10.238
331.00,11.151
332.00,12.020
333.00,13.021
334.00,13.925
335.00,14.926
336.00,15.808
337.00,16.789
338.00,17.700
339.00,18.483
340.00,19.380
341.00,20.182
342.00,20.996
343.00,21.847
344.00,22.558
345.00,23.312
346.00,23.896
347.00,24.504
348.00,25.174
349.00,25.604
350.00,26.340
351.00,26.864
352.00,27.310
353.00,27.715
354.00,28.111
355.00,28.599
356.00,28.996
357.00,29.323
358.00,29.696
359.00,29.932
360.00,30.299
361.00,30.480
362.00,30.660
363.00,30.849
364.00,31.140
365.00,31.363
366.00,31.438
367.00,31.590
368.00,31.702
369.00,31.820
370.00,31.865
371.00,32.014
372.00,31.995
373.00,32.069
374.00,32.081
375.00,32.104
376.00,32.099
377.00,32.177
378.00,31.967
379.00,31.938
380.00,32.005
381.00,31.941
382.00,31.942
383.00,31.985
384.00,32.018
385.00,32.117
386.00,32.224
387.00,32.343
388.00,32.298
389.00,32.377
390.00,32.446
391.00,32.515
392.00,32.527
393.00,32.572
394.00,32.662
395.00,32.607
396.00,32.716
397.00,32.678
398.00,32.695
399.00,32.803
400.00,32.826
401.00,32.916
402.00,32.960
403.00,33.034
404.00,32.806
405.00,32.904
406.00,32.928
407.00,32.823
408.00,32.844
409.00,32.830
410.00,32.761
411.00,32.702
412.00,32.588
413.00,32.722
414.00,32.750
415.00,32.676
416.00,32.743
417.00,32.843
418.00,32.855
419.00,32.941
420.00,33.020
421.00,32.915
422.00,32.899
423.00,32.921
424.00,32.965
425.00,33.026
426.00,33.156
427.00,33.115
428.00,33.233
429.00,33.143
430.00,33.218
431.00,33.235
432.00,33.297
433.00,33.324
434.00,33.350
435.00,33.430
436.00,33.486
437.00,33.590
438.00,33.673
439.00,33.678
440.00,33.814
441.00,33.852
442.00,33.993
443.00,34.023
444.00,34.134
445.00,34.193
446.00,34.231
447.00,34.342
448.00,34.476
449.00,34.544
450.00,34.545
451.00,34.704
452.00,34.750
453.00,34.806
454.00,35.007
455.00,35.022
456.00,35.182
457.00,35.307
458.00,35.339
459.00,35.460
460.00,35.533
461.00,35.664
462.00,35.740
463.00,35.904
464.00,35.975
465.00,36.119
466.00,36.209
467.00,36.277
468.00,36.396
469.00,36.454
470.00,36.507
471.00,36.570
472.00,36.706
473.00,36.768
474.00,36.771
475.00,36.880
476.00,36.936
477.00,37.042
478.00,37.167
479.00,37.217
480.00,37.472
481.00,37.483
482.00,37.574
483.00,37.712
484.00,37.849
485.00,38.051
486.00,38.176
487.00,38.289
488.00,38.537
489.00,38.560
490.00,38.763
491.00,38.980
492.00,38.828
493.00,38.981
494.00,38.968
495.00,39.031
496.00,39.200
497.00,39.182
498.00,39.492
499.00,39.597
500.00,39.586
501.00,39.649
502.00,39.721
503.00,39.772
504.00,39.929
505.00,40.135
506.00,40.138
507.00,40.193
508.00,40.347
509.00,40.384
510.00,40.416
511.00,40.703
512.00,40.681
513.00,40.607
514.00,40.828
515.00,40.921
516.00,40.888
517.00,41.196
518.00,41.164
519.00,41.095
520.00,41.234
521.00,41.353
522.00,41.320
523.00,41.462
524.00,41.580
525.00,41.692
526.00,41.781
527.00,41.897
528.00,41.931
529.00,42.133
530.00,42.268
531.00,42.349
532.00,42.332
533.00,42.369
534.00,42.382
535.00,42.526
536.00,42.640
537.00,42.627
538.00,42.719
539.00,42.760
540.00,42.794
541.00,42.806
542.00,42.842
543.00,42.820
544.00,42.910
545.00,42.906
546.00,43.042
547.00,43.103
548.00,43.096
549.00,43.235
550.00,43.314
551.00,43.390
552.00,43.411
553.00,43.467
554.00,43.512
555.00,43.494
556.00,43.508
557.00,43.655
558.00,43.755
559.00,43.620
560.00,43.751
561.00,44.009
562.00,43.743
563.00,43.900
564.00,44.006
565.00,43.932
566.00,44.036
567.00,43.977
568.00,44.028
569.00,44.090
570.00,44.071
571.00,44.105
572.00,44.106
573.00,44.133
574.00,44.082
575.00,44.062
576.00,44.180
577.00,44.181
578.00,44.201
579.00,44.292
580.00,44.425
581.00,44.459
582.00,44.500
583.00,44.710
584.00,44.694
585.00,44.648
586.00,44.810
587.00,44.815
588.00,44.756
589.00,44.763
590.00,44.756
591.00,44.692
592.00,44.733
593.00,44.894
594.00,44.880
595.00,44.947
596.00,45.003
597.00,45.205
598.00,45.183
599.00,45.068
600.00,45.366
601.00,45.434
602.00,45.201
603.00,45.157
604.00,45.221
605.00,45.224
606.00,45.174
607.00,45.449
608.00,45.401
609.00,45.482
610.00,45.547
611.00,45.340
612.00,45.393
613.00,45.562
614.00,45.648
615.00,45.612
616.00,45.599
617.00,45.733
618.00,45.632
619.00,45.619
620.00,45.720
621.00,45.775
622.00,45.835
623.00,45.813
624.00,45.971
625.00,46.064
626.00,46.009
627.00,46.074
628.00,46.012
629.00,45.998
630.00,46.065
631.00,46.026
632.00,46.235
633.00,46.302
634.00,46.292
635.00,46.354
636.00,46.386
637.00,46.355
638.00,46.412
639.00,46.333
640.00,46.396
641.00,46.492
642.00,46.607
643.00,46.574
644.00,46.709
645.00,46.783
646.00,46.785
647.00,46.835
648.00,46.891
649.00,46.958
650.00,47.033
651.00,47.070
652.00,47.209
653.00,47.178
654.00,47.093
655.00,47.389
656.00,47.618
657.00,47.593
658.00,47.625
659.00,47.492
660.00,47.678
661.00,47.257
662.00,47.860
663.00,47.713
664.00,47.960
665.00,47.784
666.00,47.622
667.00,47.973
668.00,48.220
669.00,47.783
670.00,47.966
671.00,48.254
672.00,48.355
673.00,48.107
674.00,48.260
675.00,48.360
676.00,48.213
677.00,48.397
678.00,48.261
679.00,48.656
680.00,48.754
681.00,48.435
682.00,48.711
683.00,48.419
684.00,48.299
685.00,48.559
686.00,48.456
687.00,48.397
688.00,48.621
689.00,48.786
690.00,48.796
691.00,49.027
692.00,49.241
693.00,48.834
694.00,48.882
695.00,48.919
696.00,48.819
697.00,49.032
698.00,49.335
699.00,49.098
700.00,49.130
701.00,49.164
702.00,49.518
703.00,49.543
704.00,49.265
705.00,49.481
706.00,49.977
707.00,49.447
708.00,49.303
709.00,49.432
710.00,49.340
711.00,49.352
712.00,49.754
713.00,49.911
714.00,49.754
715.00,49.836
716.00,49.681
717.00,49.607
718.00,49.855
719.00,49.880
720.00,49.770
721.00,54.718
722.00,54.779
723.00,54.721
724.00,54.657
725.00,54.632
726.00,54.477
727.00,54.666
728.00,54.743
729.00,54.599
730.00,54.759
731.00,54.732
732.00,54.573
733.00,54.581
734.00,54.632
735.00,54.679
736.00,54.593
737.00,54.765
738.00,54.890
739.00,54.884
740.00,54.622
741.00,54.616
742.00,54.757
743.00,54.619
744.00,54.577
745.00,54.587
746.00,54.573
747.00,54.536
748.00,54.531
749.00,54.432
750.00,54.364
751.00,54.481
752.00,54.404
753.00,54.275
754.00,54.265
755.00,54.432
756.00,54.397
757.00,54.338
758.00,54.246
759.00,54.453
760.00,54.355
761.00,54.264
762.00,54.273
763.00,54.322
764.00,54.389
765.00,54.273
766.00,54.176
767.00,54.150
768.00,54.266
769.00,54.179
770.00,54.248
771.00,54.259
772.00,54.154
773.00,54.185
774.00,54.194
775.00,54.255
776.00,54.162
777.00,54.196
778.00,54.137
779.00,54.117
780.00,54.197
781.00,54.044
782.00,54.071
783.00,54.167
784.00,53.977
785.00,53.971
786.00,54.044
787.00,54.059
788.00,53.867
789.00,53.990
790.00,53.780
791.00,53.979
792.00,53.802
793.00,53.798
794.00,53.911
795.00,53.674
796.00,53.807
797.00,53.682
798.00,53.829
799.00,53.691
800.00,53.635
801.00,53.689
802.00,53.583
803.00,53.540
804.00,53.625
805.00,53.589
806.00,53.430
807.00,53.488
808.00,53.550
809.00,53.314
810.00,53.427
811.00,53.322
812.00,53.191
813.00,53.396
814.00,53.316
815.00,53.339
816.00,53.277
817.00,53.264
818.00,53.390
819.00,53.257
820.00,53.234
821.00,53.210
822.00,53.160
823.00,53.101
824.00,53.106
825.00,53.143
826.00,52.986
827.00,53.075
828.00,53.088
829.00,53.158
830.00,53.021
831.00,55.222
832.00,55.363
833.00,55.495
834.00,55.367
835.00,55.360
836.00,55.400
837.00,55.248
838.00,55.187
839.00,55.285
840.00,55.228
841.00,55.188
842.00,55.185
843.00,55.185
844.00,55.244
845.00,55.066
846.00,55.099
847.00,55.094
848.00,55.000
849.00,55.054
850.00,55.021
851.00,54.961
852.00,54.891
853.00,54.827
854.00,54.776
855.00,54.809
856.00,54.616
857.00,54.786
858.00,54.705
859.00,54.713
860.00,54.661
861.00,54.675
862.00,54.660
863.00,54.572
864.00,54.613
865.00,54.579
866.00,54.570
867.00,54.495
868.00,54.524
869.00,54.497
870.00,54.568
871.00,54.494
872.00,54.547
873.00,54.525
874.00,54.516
875.00,54.463
876.00,54.489
877.00,54.278
878.00,54.394
879.00,54.318
880.00,54.359
881.00,54.324
882.00,54.316
883.00,54.312
884.00,54.247
885.00,54.301
886.00,54.258
887.00,54.244
888.00,54.177
889.00,54.198
890.00,54.178
891.00,54.169
892.00,54.084
893.00,54.295
894.00,54.054
895.00,54.038
896.00,54.013
897.00,54.026
898.00,53.984
899.00,54.027
900.00,53.922
901.00,53.967
902.00,53.978
903.00,53.933
904.00,53.876
905.00,53.841
906.00,53.915
907.00,53.831
908.00,53.825
909.00,53.852
910.00,53.762
911.00,53.760
912.00,53.779
913.00,53.727
914.00,53.757
915.00,53.706
916.00,53.639
917.00,53.680
918.00,53.641
919.00,53.655
920.00,53.551
921.00,53.589
922.00,53.566
923.00,53.522
924.00,53.505
925.00,53.505
926.00,53.464
927.00,53.494
928.00,53.435
929.00,53.401
930.00,53.432
931.00,53.364
932.00,53.294
933.00,53.382
934.00,53.335
935.00,53.298
936.00,53.301
937.00,53.307
938.00,53.288
939.00,53.262
940.00,53.241
941.00,53.213
942.00,53.183
943.00,53.143
944.00,53.135
945.00,53.104
946.00,53.133
947.00,53.070
948.00,53.051
949.00,53.069
950.00,53.046
951.00,52.992
952.00,52.986
953.00,52.955
954.00,52.932
955.00,52.899
956.00,52.887
957.00,52.876
958.00,52.861
959.00,52.831
960.00,52.785
961.00,52.779
962.00,52.769
963.00,52.761
964.00,52.689
965.00,52.743
966.00,52.717
967.00,52.700
968.00,52.668
969.00,52.691
970.00,52.703
971.00,52.672
972.00,52.651
973.00,52.652
974.00,52.687
975.00,52.656
976.00,52.657
977.00,52.645
978.00,52.684
979.00,52.675
980.00,52.628
981.00,52.665
982.00,52.611
983.00,52.625
984.00,52.612
985.00,52.618
986.00,52.569
987.00,52.614
988.00,52.609
989.00,52.562
990.00,52.607
991.00,52.587
992.00,52.585
993.00,52.581
994.00,52.552
995.00,52.538
996.00,52.478
997.00,52.492
998.00,52.491
999.00,52.493
1000.00,52.468
1001.00,52.455
1002.00,52.463
1003.00,52.425
1004.00,52.442
1005.00,52.374
1006.00,52.383
1007.00,52.379
1008.00,52.341
1009.00,52.350
1010.00,52.317
1011.00,52.342
1012.00,52.294
1013.00,52.282
1014.00,52.281
1015.00,52.279
1016.00,52.256
1017.00,52.217
1018.00,52.247
1019.00,52.195
1020.00,52.217
1021.00,52.178
1022.00,52.159
1023.00,52.153
1024.00,52.120
1025.00,52.110
1026.00,52.094
1027.00,52.086
1028.00,52.054
1029.00,52.079
1030.00,52.001
1031.00,52.022
1032.00,52.038
1033.00,51.998
1034.00,51.985
1035.00,51.923
1036.00,51.952
1037.00,51.913
1038.00,51.861
1039.00,51.832
1040.00,51.841
1041.00,51.788
1042.00,51.793
1043.00,51.790
1044.00,51.790
1045.00,51.806
1046.00,51.791
1047.00,51.833
1048.00,51.822
1049.00,51.819
1050.00,51.798
1051.00,51.835
1052.00,51.831
1053.00,51.851
1054.00,51.866
1055.00,51.871
1056.00,51.903
1057.00,51.900
1058.00,51.886
1059.00,51.895
1060.00,51.911
1061.00,51.867
1062.00,51.884
1063.00,51.841
1064.00,51.852
1065.00,51.828
1066.00,51.821
1067.00,51.847
1068.00,51.822
1069.00,51.764
1070.00,51.817
1071.00,51.774
1072.00,51.745
1073.00,51.749
1074.00,51.740
1075.00,51.742
1076.00,51.725
1077.00,51.727
1078.00,51.725
1079.00,51.703
1080.00,51.720
1081.00,51.702
1082.00,51.669
1083.00,51.695
1084.00,51.685
1085.00,51.665
1086.00,51.669
1087.00,51.657
1088.00,51.637
1089.00,51.639
1090.00,51.621
1091.00,51.617
1092.00,51.594
1093.00,51.587
1094.00,51.568
1095.00,51.585
1096.00,51.544
1097.00,51.547
1098.00,51.553
1099.00,51.525
1100.00,51.540
1101.00,51.528
1102.00,51.511
1103.00,51.512
1104.00,51.478
1105.00,51.476
1106.00,51.458
1107.00,51.438
1108.00,51.445
1109.00,51.438
1110.00,51.432
1111.00,51.444
1112.00,51.405
1113.00,51.415
1114.00,51.412
1115.00,51.410
1116.00,51.386
1117.00,51.383
1118.00,51.369
1119.00,51.364
1120.00,51.364
1121.00,51.331
1122.00,51.348
1123.00,51.340
1124.00,51.310
1125.00,51.319
1126.00,51.301
1127.00,51.292
1128.00,51.293
1129.00,51.258
1130.00,51.276
1131.00,51.296
1132.00,51.260
1133.00,51.265
1134.00,51.238
1135.00,51.241
1136.00,51.255
1137.00,51.234
1138.00,51.227
1139.00,51.243
1140.00,51.202
1141.00,51.217
1142.00,51.219
1143.00,51.232
1144.00,51.213
1145.00,51.221
1146.00,51.210
1147.00,51.215
1148.00,51.191
1149.00,51.190
1150.00,51.216
1151.00,51.178
1152.00,51.165
1153.00,51.190
1154.00,51.166
1155.00,51.187
1156.00,51.181
1157.00,51.171
1158.00,51.175
1159.00,51.163
1160.00,51.173
1161.00,51.169
1162.00,51.160
1163.00,51.156
1164.00,51.177
1165.00,51.142
1166.00,51.155
1167.00,51.119
1168.00,51.139
1169.00,51.155
1170.00,51.159
1171.00,51.141
1172.00,51.149
1173.00,51.142
1174.00,51.123
1175.00,51.131
1176.00,51.123
1177.00,51.132
1178.00,51.107
1179.00,51.133
1180.00,51.116
1181.00,51.114
1182.00,51.099
1183.00,51.133
1184.00,51.122
1185.00,51.124
1186.00,51.130
1187.00,51.112
1188.00,51.141
1189.00,51.119
1190.00,51.116
1191.00,51.099
1192.00,51.126
1193.00,51.097
1194.00,51.100
1195.00,51.087
1196.00,51.081
1197.00,51.113
1198.00,51.096
1199.00,51.127
1200.00,51.092
1201.00,51.106
1202.00,51.097
1203.00,51.089
1204.00,51.084
1205.00,51.090
1206.00,51.080
1207.00,51.089
1208.00,51.104
1209.00,51.083
1210.00,51.136
1211.00,51.091
1212.00,51.103
1213.00,51.105
1214.00,51.102
1215.00,51.082
1216.00,51.056
1217.00,51.083
1218.00,51.070
1219.00,51.069
1220.00,51.058
1221.00,51.088
1222.00,51.082
1223.00,51.079
1224.00,51.111
1225.00,51.074
1226.00,51.109
1227.00,51.087
1228.00,51.075
1229.00,51.085
1230.00,51.126
1231.00,51.108
1232.00,51.105
1233.00,51.123
1234.00,51.110
1235.00,51.142
1236.00,51.127
1237.00,51.164
1238.00,51.136
1239.00,51.109
1240.00,51.103
1241.00,51.154
1242.00,51.157
1243.00,51.136
1244.00,51.122
1245.00,51.132
1246.00,51.175
1247.00,51.138
1248.00,51.135
1249.00,51.137
1250.00,51.142
1251.00,51.142
1252.00,51.174
1253.00,51.161
1254.00,51.185
1255.00,51.159
1256.00,51.160
1257.00,51.145
1258.00,51.170
1259.00,51.169
1260.00,51.192
1261.00,51.172
1262.00,51.174
1263.00,51.189
1264.00,51.198
1265.00,51.228
1266.00,51.196
1267.00,51.215
1268.00,51.226
1269.00,51.212
1270.00,51.206
1271.00,51.226
1272.00,51.191
1273.00,51.239
1274.00,51.220
1275.00,51.234
1276.00,51.246
1277.00,51.235
1278.00,51.257
1279.00,51.283
1280.00,51.261
1281.00,51.283
1282.00,51.272
1283.00,51.234
1284.00,51.268
1285.00,51.283
1286.00,51.263
1287.00,51.280
1288.00,51.275
1289.00,51.264
1290.00,51.312
1291.00,51.292
1292.00,51.283
1293.00,51.322
1294.00,51.307
1295.00,51.311
1296.00,51.310
1297.00,51.331
1298.00,51.388
1299.00,51.338
1300.00,51.335
1301.00,51.352
1302.00,51.370
1303.00,51.359
1304.00,51.390
1305.00,51.357
1306.00,51.382
1307.00,51.398
1308.00,51.385
1309.00,51.411
1310.00,51.401
1311.00,51.391
1312.00,51.391
1313.00,51.382
1314.00,51.385
1315.00,51.403
1316.00,51.387
1317.00,51.406
1318.00,51.448
1319.00,51.457
1320.00,51.437
1321.00,51.634
1322.00,51.607
1323.00,51.603
1324.00,51.572
1325.00,51.596
1326.00,51.625
1327.00,51.584
1328.00,51.559
1329.00,51.592
1330.00,51.575
1331.00,51.588
1332.00,51.592
1333.00,51.588
1334.00,51.641
1335.00,51.633
1336.00,51.647
1337.00,51.723
1338.00,51.753
1339.00,51.793
1340.00,51.858
1341.00,51.915
1342.00,52.008
1343.00,52.080
1344.00,52.065
1345.00,52.130
1346.00,52.224
1347.00,52.185
1348.00,52.201
1349.00,52.194
1350.00,52.246
1351.00,52.253
1352.00,52.193
1353.00,52.256
1354.00,52.297
1355.00,52.315
1356.00,52.238
1357.00,52.271
1358.00,52.567
1359.00,52.354
1360.00,52.383
1361.00,52.296
1362.00,52.364
1363.00,52.242
1364.00,52.200
1365.00,52.350
1366.00,52.469
1367.00,52.318
1368.00,52.424
1369.00,52.716
1370.00,52.306
1371.00,52.338
1372.00,52.255
1373.00,52.251
1374.00,52.328
1375.00,52.249
1376.00,52.342
1377.00,52.102
1378.00,52.641
1379.00,51.800
1380.00,52.483
1381.00,51.797
1382.00,52.230
1383.00,52.172
1384.00,52.237
1385.00,52.416
1386.00,52.373
1387.00,52.258
1388.00,52.236
1389.00,52.268
1390.00,52.236
1391.00,52.023
1392.00,52.177
1393.00,52.301
1394.00,52.331
1395.00,52.070
1396.00,52.232
1397.00,52.336
1398.00,52.429
1399.00,52.266
1400.00,52.251
1401.00,52.356
1402.00,52.551
1403.00,52.426
1404.00,52.415
1405.00,52.189
1406.00,52.420
1407.00,52.241
1408.00,52.240
1409.00,52.302
1410.00,52.346
1411.00,52.333
1412.00,52.434
1413.00,52.342
1414.00,52.314
1415.00,52.376
1416.00,52.375
1417.00,52.368
1418.00,52.302
1419.00,52.410
1420.00,52.400
1421.00,52.438
1422.00,52.415
1423.00,52.482
1424.00,52.449
1425.00,52.492
1426.00,52.469
1427.00,52.484
1428.00,52.478
1429.00,52.500
1430.00,52.521
1431.00,52.516
1432.00,52.563
1433.00,52.535
1434.00,52.577
1435.00,52.616
1436.00,52.613
1437.00,52.597
1438.00,52.620
1439.00,52.673
1440.00,52.642
1441.00,52.692
1442.00,52.705
1443.00,52.729
1444.00,52.728
1445.00,52.742
1446.00,52.770
1447.00,52.811
1448.00,52.833
1449.00,52.797
1450.00,52.860
1451.00,52.814
1452.00,52.871
1453.00,52.892
1454.00,52.853
1455.00,52.907
1456.00,52.898
1457.00,52.912
1458.00,52.944
1459.00,52.938
1460.00,52.945
1461.00,52.990
1462.00,52.937
1463.00,53.012
1464.00,53.013
1465.00,53.036
1466.00,53.032
1467.00,53.075
1468.00,53.075
1469.00,53.091
1470.00,53.117
1471.00,53.090
1472.00,53.131
1473.00,53.109
1474.00,53.160
1475.00,53.165
1476.00,53.166
1477.00,53.170
1478.00,53.219
1479.00,53.177
1480.00,53.269
1481.00,53.208
1482.00,53.245
1483.00,53.259
1484.00,53.245
1485.00,53.276
1486.00,53.286
1487.00,53.313
1488.00,53.291
1489.00,53.316
1490.00,53.303
1491.00,53.340
1492.00,53.328
1493.00,53.354
1494.00,53.368
1495.00,53.355
1496.00,53.352
1497.00,53.403
1498.00,53.362
1499.00,53.421
1500.00,53.400
1501.00, 
1502.00, 
1503.00, 
1504.00, 
1505.00, 
1506.00, 
1507.00, 
1508.00, 
1509.00, 
1510.00, 
1511.00, 
1512.00, 
1513.00, 
1514.00, 
1515.00, 
1516.00, 
1517.00, 
1518.00, 
1519.00, 
1520.00, 
1521.00, 
1522.00, 
1523.00, 
1524.00, 
1525.00, 
1526.00, 
1527.00, 
1528.00, 
1529.00, 
1530.00, 
1531.00, 
1532.00, 
1533.00, 
1534.00, 
1535.00, 
1536.00, 
1537.00, 
1538.00, 
1539.00, 
1540.00, 
1541.00, 
1542.00, 
1543.00, 
1544.00, 
1545.00, 
1546.00, 
1547.00, 
1548.00, 
1549.00, 
1550.00, 
1551.00, 
1552.00, 
1553.00, 
1554.00, 
1555.00, 
1556.00, 
1557.00, 
1558.00, 
1559.00, 
1560.00, 
1561.00, 
1562.00, 
1563.00, 
1564.00, 
1565.00, 
1566.00, 
1567.00, 
1568.00, 
1569.00, 
1570.00, 
1571.00, 
1572.00, 
1573.00, 
1574.00, 
1575.00, 
1576.00, 
1577.00, 
1578.00, 
1579.00, 
1580.00, 
1581.00, 
1582.00, 
1583.00, 
1584.00, 
1585.00, 
1586.00, 
1587.00, 
1588.00, 
1589.00, 
1590.00, 
1591.00, 
1592.00, 
1593.00, 
1594.00, 
1595.00, 
1596.00, 
1597.00, 
1598.00, 
1599.00, 
1600.00, 
1601.00, 
1602.00, 
1603.00, 
1604.00, 
1605.00, 
1606.00, 
1607.00, 
1608.00, 
1609.00, 
1610.00, 
1611.00, 
1612.00, 
1613.00, 
1614.00, 
1615.00, 
1616.00, 
1617.00, 
1618.00, 
1619.00, 
1620.00, 
1621.00, 
1622.00, 
1623.00, 
1624.00, 
1625.00, 
1626.00, 
1627.00, 
1628.00, 
1629.00, 
1630.00, 
1631.00, 
1632.00, 
1633.00, 
1634.00, 
1635.00, 
1636.00, 
1637.00, 
1638.00, 
1639.00, 
1640.00, 
1641.00, 
1642.00, 
1643.00, 
1644.00, 
1645.00, 
1646.00, 
1647.00, 
1648.00, 
1649.00, 
1650.00, 
1651.00, 
1652.00, 
1653.00, 
1654.00, 
1655.00, 
1656.00, 
1657.00, 
1658.00, 
1659.00, 
1660.00, 
1661.00, 
1662.00, 
1663.00, 
1664.00, 
1665.00, 
1666.00, 
1667.00, 
1668.00, 
1669.00, 
1670.00, 
1671.00, 
1672.00, 
1673.00, 
1674.00, 
1675.00, 
1676.00, 
1677.00, 
1678.00, 
1679.00, 
1680.00, 
1681.00, 
1682.00, 
1683.00, 
1684.00, 
1685.00, 
1686.00, 
1687.00, 
1688.00, 
1689.00, 
1690.00, 
1691.00, 
1692.00, 
1693.00, 
1694.00, 
1695.00, 
1696.00, 
1697.00, 
1698.00, 
1699.00, 
1700.00, 
1701.00, 
1702.00, 
1703.00, 
1704.00, 
1705.00, 
1706.00, 
1707.00, 
1708.00, 
1709.00, 
1710.00, 
1711.00, 
1712.00, 
1713.00, 
1714.00, 
1715.00, 
1716.00, 
1717.00, 
1718.00, 
1719.00, 
1720.00, 
1721.00, 
1722.00, 
1723.00, 
1724.00, 
1725.00, 
1726.00, 
1727.00, 
1728.00, 
1729.00, 
1730.00, 
1731.00, 
1732.00, 
1733.00, 
1734.00, 
1735.00, 
1736.00, 
1737.00, 
1738.00, 
1739.00, 
1740.00, 
1741.00, 
1742.00, 
1743.00, 
1744.00, 
1745.00, 
1746.00, 
1747.00, 
1748.00, 
1749.00, 
1750.00, 
1751.00, 
1752.00, 
1753.00, 
1754.00, 
1755.00, 
1756.00, 
1757.00, 
1758.00, 
1759.00, 
1760.00, 
1761.00, 
1762.00, 
1763.00, 
1764.00, 
1765.00, 
1766.00, 
1767.00, 
1768.00, 
1769.00, 
1770.00, 
1771.00, 
1772.00, 
1773.00, 
1774.00, 
1775.00, 
1776.00, 
1777.00, 
1778.00, 
1779.00, 
1780.00, 
1781.00, 
1782.00, 
1783.00, 
1784.00, 
1785.00, 
1786.00, 
1787.00, 
1788.00, 
1789.00, 
1790.00, 
1791.00, 
1792.00, 
1793.00, 
1794.00, 
1795.00, 
1796.00, 
1797.00, 
1798.00, 
1799.00, 
1800.00, 
1801.00, 
1802.00, 
1803.00, 
1804.00, 
1805.00, 
1806.00, 
1807.00, 
1808.00, 
1809.00, 
1810.00, 
1811.00, 
1812.00, 
1813.00, 
1814.00, 
1815.00, 
1816.00, 
1817.00, 
1818.00, 
1819.00, 
1820.00, 
1821.00, 
1822.00, 
1823.00, 
1824.00, 
1825.00, 
1826.00, 
1827.00, 
1828.00, 
1829.00, 
1830.00, 
1831.00, 
1832.00, 
1833.00, 
1834.00, 
1835.00, 
1836.00, 
1837.00, 
1838.00, 
1839.00, 
1840.00, 
1841.00, 
1842.00, 
1843.00, 
1844.00, 
1845.00, 
1846.00, 
1847.00, 
1848.00, 
1849.00, 
1850.00, 
1851.00, 
1852.00, 
1853.00, 
1854.00, 
1855.00, 
1856.00, 
1857.00, 
1858.00, 
1859.00, 
1860.00, 
1861.00, 
1862.00, 
1863.00, 
1864.00, 
1865.00, 
1866.00, 
1867.00, 
1868.00, 
1869.00, 
1870.00, 
1871.00, 
1872.00, 
1873.00, 
1874.00, 
1875.00, 
1876.00, 
1877.00, 
1878.00, 
1879.00, 
1880.00, 
1881.00, 
1882.00, 
1883.00, 
1884.00, 
1885.00, 
1886.00, 
1887.00, 
1888.00, 
1889.00, 
1890.00, 
1891.00, 
1892.00, 
1893.00, 
1894.00, 
1895.00, 
1896.00, 
1897.00, 
1898.00, 
1899.00, 
1900.00, 
1901.00, 
1902.00, 
1903.00, 
1904.00, 
1905.00, 
1906.00, 
1907.00, 
1908.00, 
1909.00, 
1910.00, 
1911.00, 
1912.00, 
1913.00, 
1914.00, 
1915.00, 
1916.00, 
1917.00, 
1918.00, 
1919.00, 
1920.00, 
1921.00, 
1922.00, 
1923.00, 
1924.00, 
1925.00, 
1926.00, 
1927.00, 
1928.00, 
1929.00, 
1930.00, 
1931.00, 
1932.00, 
1933.00, 
1934.00, 
1935.00, 
1936.00, 
1937.00, 
1938.00, 
1939.00, 
1940.00, 
1941.00, 
1942.00, 
1943.00, 
1944.00, 
1945.00, 
1946.00, 
1947.00, 
1948.00, 
1949.00, 
1950.00, 
1951.00, 
1952.00, 
1953.00, 
1954.00, 
1955.00, 
1956.00, 
1957.00, 
1958.00, 
1959.00, 
1960.00, 
1961.00, 
1962.00, 
1963.00, 
1964.00, 
1965.00, 
1966.00, 
1967.00, 
1968.00, 
1969.00, 
1970.00, 
1971.00, 
1972.00, 
1973.00, 
1974.00, 
1975.00, 
1976.00, 
1977.00, 
1978.00, 
1979.00, 
1980.00, 
1981.00, 
1982.00, 
1983.00, 
1984.00, 
1985.00, 
1986.00, 
1987.00, 
1988.00, 
1989.00, 
1990.00, 
1991.00, 
1992.00, 
1993.00, 
1994.00, 
1995.00, 
1996.00, 
1997.00, 
1998.00, 
1999.00, 
2000.00, 
2001.00, 
2002.00, 
2003.00, 
2004.00, 
2005.00, 
2006.00, 
2007.00, 
2008.00, 
2009.00, 
2010.00, 
2011.00, 
2012.00, 
2013.00, 
2014.00, 
2015.00, 
2016.00, 
2017.00, 
2018.00, 
2019.00, 
2020.00, 
2021.00, 
2022.00, 
2023.00, 
2024.00, 
2025.00, 
2026.00, 
2027.00, 
2028.00, 
2029.00, 
2030.00, 
2031.00, 
2032.00, 
2033.00, 
2034.00, 
2035.00, 
2036.00, 
2037.00, 
2038.00, 
2039.00, 
2040.00, 
2041.00, 
2042.00, 
2043.00, 
2044.00, 
2045.00, 
2046.00, 
2047.00, 
2048.00, 
2049.00, 
2050.00, 
2051.00, 
2052.00, 
2053.00, 
2054.00, 
2055.00, 
2056.00, 
2057.00, 
2058.00, 
2059.00, 
2060.00, 
2061.00, 
2062.00, 
2063.00, 
2064.00, 
2065.00, 
2066.00, 
2067.00, 
2068.00, 
2069.00, 
2070.00, 
2071.00, 
2072.00, 
2073.00, 
2074.00, 
2075.00, 
2076.00, 
2077.00, 
2078.00, 
2079.00, 
2080.00, 
2081.00, 
2082.00, 
2083.00, 
2084.00, 
2085.00, 
2086.00, 
2087.00, 
2088.00, 
2089.00, 
2090.00, 
2091.00, 
2092.00, 
2093.00, 
2094.00, 
2095.00, 
2096.00, 
2097.00, 
2098.00, 
2099.00, 
2100.00, 
2101.00, 
2102.00, 
2103.00, 
2104.00, 
2105.00, 
2106.00, 
2107.00, 
2108.00, 
2109.00, 
2110.00, 
2111.00, 
2112.00, 
2113.00, 
2114.00, 
2115.00, 
2116.00, 
2117.00, 
2118.00, 
2119.00, 
2120.00, 
2121.00, 
2122.00, 
2123.00, 
2124.00, 
2125.00, 
2126.00, 
2127.00, 
2128.00, 
2129.00, 
2130.00, 
2131.00, 
2132.00, 
2133.00, 
2134.00, 
2135.00, 
2136.00, 
2137.00, 
2138.00, 
2139.00, 
2140.00, 
2141.00, 
2142.00, 
2143.00, 
2144.00, 
2145.00, 
2146.00, 
2147.00, 
2148.00, 
2149.00, 
2150.00, 
2151.00, 
2152.00, 
2153.00, 
2154.00, 
2155.00, 
2156.00, 
2157.00, 
2158.00, 
2159.00, 
2160.00, 
2161.00, 
2162.00, 
2163.00, 
2164.00, 
2165.00, 
2166.00, 
2167.00, 
2168.00, 
2169.00, 
2170.00, 
2171.00, 
2172.00, 
2173.00, 
2174.00, 
2175.00, 
2176.00, 
2177.00, 
2178.00, 
2179.00, 
2180.00, 
2181.00, 
2182.00, 
2183.00, 
2184.00, 
2185.00, 
2186.00, 
2187.00, 
2188.00, 
2189.00, 
2190.00, 
2191.00, 
2192.00, 
2193.00, 
2194.00, 
2195.00, 
2196.00, 
2197.00, 
2198.00, 
2199.00, 
2200.00, 
2201.00, 
2202.00, 
2203.00, 
2204.00, 
2205.00, 
2206.00, 
2207.00, 
2208.00, 
2209.00, 
2210.00, 
2211.00, 
2212.00, 
2213.00, 
2214.00, 
2215.00, 
2216.00, 
2217.00, 
2218.00, 
2219.00, 
2220.00, 
2221.00, 
2222.00, 
2223.00, 
2224.00, 
2225.00, 
2226.00, 
2227.00, 
2228.00, 
2229.00, 
2230.00, 
2231.00, 
2232.00, 
2233.00, 
2234.00, 
2235.00, 
2236.00, 
2237.00, 
2238.00, 
2239.00, 
2240.00, 
2241.00, 
2242.00, 
2243.00, 
2244.00, 
2245.00, 
2246.00, 
2247.00, 
2248.00, 
2249.00, 
2250.00, 
2251.00, 
2252.00, 
2253.00, 
2254.00, 
2255.00, 
2256.00, 
2257.00, 
2258.00, 
2259.00, 
2260.00, 
2261.00, 
2262.00, 
2263.00, 
2264.00, 
2265.00, 
2266.00, 
2267.00, 
2268.00, 
2269.00, 
2270.00, 
2271.00, 
2272.00, 
2273.00, 
2274.00, 
2275.00, 
2276.00, 
2277.00, 
2278.00, 
2279.00, 
2280.00, 
2281.00, 
2282.00, 
2283.00, 
2284.00, 
2285.00, 
2286.00, 
2287.00, 
2288.00, 
2289.00, 
2290.00, 
2291.00, 
2292.00, 
2293.00, 
2294.00, 
2295.00, 
2296.00, 
2297.00, 
2298.00, 
2299.00, 
2300.00, 
2301.00, 
2302.00, 
2303.00, 
2304.00, 
2305.00, 
2306.00, 
2307.00, 
2308.00, 
2309.00, 
2310.00, 
2311.00, 
2312.00, 
2313.00, 
2314.00, 
2315.00, 
2316.00, 
2317.00, 
2318.00, 
2319.00, 
2320.00, 
2321.00, 
2322.00, 
2323.00, 
2324.00, 
2325.00, 
2326.00, 
2327.00, 
2328.00, 
2329.00, 
2330.00, 
2331.00, 
2332.00, 
2333.00, 
2334.00, 
2335.00, 
2336.00, 
2337.00, 
2338.00, 
2339.00, 
2340.00, 
2341.00, 
2342.00, 
2343.00, 
2344.00, 
2345.00, 
2346.00, 
2347.00, 
2348.00, 
2349.00, 
2350.00, 
2351.00, 
2352.00, 
2353.00, 
2354.00, 
2355.00, 
2356.00, 
2357.00, 
2358.00, 
2359.00, 
2360.00, 
2361.00, 
2362.00, 
2363.00, 
2364.00, 
2365.00, 
2366.00, 
2367.00, 
2368.00, 
2369.00, 
2370.00, 
2371.00, 
2372.00, 
2373.00, 
2374.00, 
2375.00, 
2376.00, 
2377.00, 
2378.00, 
2379.00, 
2380.00, 
2381.00, 
2382.00, 
2383.00, 
2384.00, 
2385.00, 
2386.00, 
2387.00, 
2388.00, 
2389.00, 
2390.00, 
2391.00, 
2392.00, 
2393.00, 
2394.00, 
2395.00, 
2396.00, 
2397.00, 
2398.00, 
2399.00, 
2400.00, 
2401.00, 
2402.00, 
2403.00, 
2404.00, 
2405.00, 
2406.00, 
2407.00, 
2408.00, 
2409.00, 
2410.00, 
2411.00, 
2412.00, 
2413.00, 
2414.00, 
2415.00, 
2416.00, 
2417.00, 
2418.00, 
2419.00, 
2420.00, 
2421.00, 
2422.00, 
2423.00, 
2424.00, 
2425.00, 
2426.00, 
2427.00, 
2428.00, 
2429.00, 
2430.00, 
2431.00, 
2432.00, 
2433.00, 
2434.00, 
2435.00, 
2436.00, 
2437.00, 
2438.00, 
2439.00, 
2440.00, 
2441.00, 
2442.00, 
2443.00, 
2444.00, 
2445.00, 
2446.00, 
2447.00, 
2448.00, 
2449.00, 
2450.00, 
2451.00, 
2452.00, 
2453.00, 
2454.00, 
2455.00, 
2456.00, 
2457.00, 
2458.00, 
2459.00, 
2460.00, 
2461.00, 
2462.00, 
2463.00, 
2464.00, 
2465.00, 
2466.00, 
2467.00, 
2468.00, 
2469.00, 
2470.00, 
2471.00, 
2472.00, 
2473.00, 
2474.00, 
2475.00, 
2476.00, 
2477.00, 
2478.00, 
2479.00, 
2480.00, 
2481.00, 
2482.00, 
2483.00, 
2484.00, 
2485.00, 
2486.00, 
2487.00, 
2488.00, 
2489.00, 
2490.00, 
2491.00, 
2492.00, 
2493.00, 
2494.00, 
2495.00, 
2496.00, 
2497.00, 
2498.00, 
2499.00, 
2500.00, 
2501.00, 
2502.00, 
2503.00, 
2504.00, 
2505.00, 
2506.00, 
2507.00, 
2508.00, 
2509.00, 
2510.00, 
2511.00, 
2512.00, 
2513.00, 
2514.00, 
2515.00, 
2516.00, 
2517.00, 
2518.00, 
2519.00, 
2520.00, 
2521.00, 
2522.00, 
2523.00, 
2524.00, 
2525.00, 
2526.00, 
2527.00, 
2528.00, 
2529.00, 
2530.00, 
2531.00, 
2532.00, 
2533.00, 
2534.00, 
2535.00, 
2536.00, 
2537.00, 
2538.00, 
2539.00, 
2540.00, 
2541.00, 
2542.00, 
2543.00, 
2544.00, 
2545.00, 
2546.00, 
2547.00, 
2548.00, 
2549.00, 
2550.00, 
2551.00, 
2552.00, 
2553.00, 
2554.00, 
2555.00, 
2556.00, 
2557.00, 
2558.00, 
2559.00, 
2560.00, 
2561.00, 
2562.00, 
2563.00, 
2564.00, 
2565.00, 
2566.00, 
2567.00, 
2568.00, 
2569.00, 
2570.00, 
2571.00, 
2572.00, 
2573.00, 
2574.00, 
2575.00, 
2576.00, 
2577.00, 
2578.00, 
2579.00, 
2580.00, 
2581.00, 
2582.00, 
2583.00, 
2584.00, 
2585.00, 
2586.00, 
2587.00, 
2588.00, 
2589.00, 
2590.00, 
2591.00, 
2592.00, 
2593.00, 
2594.00, 
2595.00, 
2596.00, 
2597.00, 
2598.00, 
2599.00, 
2600.00, 
