"2cP1 - RawData"
"Wavelength nm.","T%"
200.00,0.004
201.00,0.002
202.00,0.002
203.00,0.005
204.00,0.001
205.00,0.000
206.00,0.001
207.00,-0.001
208.00,0.001
209.00,0.003
210.00,-0.001
211.00,0.000
212.00,-0.001
213.00,-0.001
214.00,0.003
215.00,0.001
216.00,0.002
217.00,0.001
218.00,0.002
219.00,0.003
220.00,-0.002
221.00,0.000
222.00,0.002
223.00,0.001
224.00,0.000
225.00,0.001
226.00,0.003
227.00,0.001
228.00,0.002
229.00,0.001
230.00,0.002
231.00,0.002
232.00,0.002
233.00,-0.000
234.00,-0.000
235.00,-0.001
236.00,0.001
237.00,0.001
238.00,-0.002
239.00,0.002
240.00,0.001
241.00,0.003
242.00,0.001
243.00,0.001
244.00,-0.000
245.00,0.001
246.00,-0.001
247.00,0.000
248.00,0.001
249.00,0.001
250.00,-0.001
251.00,-0.002
252.00,-0.000
253.00,0.001
254.00,0.002
255.00,0.001
256.00,0.001
257.00,0.003
258.00,0.001
259.00,-0.001
260.00,0.002
261.00,0.001
262.00,-0.003
263.00,-0.000
264.00,0.001
265.00,0.002
266.00,0.002
267.00,-0.001
268.00,0.000
269.00,0.000
270.00,0.002
271.00,-0.002
272.00,0.002
273.00,-0.001
274.00,-0.000
275.00,-0.001
276.00,0.001
277.00,0.001
278.00,0.000
279.00,0.001
280.00,0.001
281.00,0.000
282.00,0.001
283.00,0.000
284.00,-0.001
285.00,0.002
286.00,0.001
287.00,0.001
288.00,0.001
289.00,-0.000
290.00,0.001
291.00,-0.000
292.00,0.000
293.00,0.001
294.00,-0.001
295.00,0.001
296.00,0.001
297.00,0.000
298.00,0.002
299.00,0.002
300.00,0.002
301.00,0.003
302.00,0.006
303.00,0.010
304.00,0.016
305.00,0.025
306.00,0.037
307.00,0.059
308.00,0.086
309.00,0.138
310.00,0.197
311.00,0.270
312.00,0.359
313.00,0.494
314.00,0.642
315.00,0.847
316.00,1.102
317.00,1.408
318.00,1.756
319.00,2.160
320.00,2.603
321.00,3.115
322.00,3.747
323.00,4.415
324.00,5.133
325.00,5.761
326.00,6.605
327.00,7.473
328.00,8.357
329.00,9.297
330.00,10.238
331.00,11.198
332.00,12.144
333.00,13.127
334.00,14.129
335.00,15.139
336.00,16.108
337.00,17.240
338.00,18.120
339.00,19.130
340.00,20.022
341.00,20.864
342.00,21.826
343.00,22.612
344.00,23.429
345.00,24.149
346.00,24.894
347.00,25.577
348.00,26.259
349.00,26.934
350.00,27.520
351.00,28.066
352.00,28.611
353.00,29.043
354.00,29.626
355.00,30.132
356.00,30.477
357.00,30.890
358.00,31.296
359.00,31.634
360.00,31.936
361.00,32.307
362.00,32.635
363.00,32.843
364.00,33.227
365.00,33.446
366.00,33.480
367.00,33.688
368.00,33.922
369.00,34.038
370.00,34.117
371.00,34.327
372.00,34.367
373.00,34.406
374.00,34.454
375.00,34.379
376.00,34.471
377.00,34.456
378.00,34.460
379.00,34.438
380.00,34.466
381.00,34.432
382.00,34.555
383.00,34.567
384.00,34.699
385.00,34.838
386.00,34.863
387.00,35.023
388.00,35.125
389.00,35.177
390.00,35.310
391.00,35.384
392.00,35.430
393.00,35.504
394.00,35.626
395.00,35.540
396.00,35.588
397.00,35.630
398.00,35.664
399.00,35.708
400.00,35.915
401.00,35.924
402.00,35.973
403.00,35.990
404.00,35.967
405.00,36.024
406.00,36.024
407.00,36.042
408.00,36.063
409.00,35.964
410.00,35.978
411.00,35.884
412.00,35.850
413.00,35.882
414.00,35.859
415.00,35.930
416.00,35.933
417.00,35.971
418.00,35.994
419.00,35.972
420.00,36.017
421.00,36.096
422.00,36.067
423.00,36.155
424.00,36.233
425.00,36.260
426.00,36.279
427.00,36.336
428.00,36.452
429.00,36.301
430.00,36.353
431.00,36.366
432.00,36.463
433.00,36.508
434.00,36.513
435.00,36.562
436.00,36.600
437.00,36.647
438.00,36.858
439.00,36.803
440.00,36.871
441.00,36.883
442.00,36.997
443.00,37.019
444.00,37.120
445.00,37.212
446.00,37.310
447.00,37.339
448.00,37.383
449.00,37.505
450.00,37.589
451.00,37.636
452.00,37.673
453.00,37.782
454.00,37.874
455.00,37.937
456.00,38.032
457.00,38.108
458.00,38.169
459.00,38.276
460.00,38.353
461.00,38.421
462.00,38.500
463.00,38.574
464.00,38.737
465.00,38.771
466.00,38.904
467.00,39.022
468.00,39.041
469.00,39.072
470.00,39.204
471.00,39.226
472.00,39.321
473.00,39.362
474.00,39.447
475.00,39.451
476.00,39.479
477.00,39.711
478.00,39.730
479.00,39.796
480.00,39.990
481.00,40.105
482.00,40.108
483.00,40.267
484.00,40.281
485.00,40.556
486.00,40.575
487.00,40.766
488.00,40.902
489.00,40.922
490.00,41.144
491.00,41.250
492.00,41.139
493.00,41.267
494.00,41.345
495.00,41.431
496.00,41.501
497.00,41.591
498.00,41.636
499.00,41.706
500.00,41.853
501.00,41.955
502.00,41.897
503.00,41.978
504.00,41.997
505.00,42.208
506.00,42.309
507.00,42.479
508.00,42.514
509.00,42.569
510.00,42.630
511.00,42.784
512.00,42.827
513.00,42.894
514.00,43.045
515.00,43.048
516.00,43.133
517.00,43.244
518.00,43.250
519.00,43.316
520.00,43.302
521.00,43.411
522.00,43.417
523.00,43.566
524.00,43.582
525.00,43.714
526.00,43.639
527.00,43.812
528.00,43.835
529.00,43.868
530.00,43.931
531.00,44.217
532.00,44.179
533.00,44.301
534.00,44.332
535.00,44.380
536.00,44.459
537.00,44.504
538.00,44.602
539.00,44.665
540.00,44.636
541.00,44.658
542.00,44.818
543.00,44.783
544.00,44.868
545.00,44.901
546.00,44.911
547.00,44.913
548.00,44.938
549.00,45.117
550.00,45.127
551.00,45.315
552.00,45.312
553.00,45.355
554.00,45.424
555.00,45.407
556.00,45.440
557.00,45.554
558.00,45.548
559.00,45.560
560.00,45.633
561.00,45.790
562.00,45.662
563.00,45.733
564.00,45.816
565.00,45.758
566.00,45.752
567.00,45.760
568.00,45.801
569.00,45.826
570.00,45.862
571.00,45.894
572.00,45.942
573.00,46.035
574.00,45.948
575.00,45.982
576.00,46.041
577.00,46.063
578.00,46.130
579.00,46.161
580.00,46.287
581.00,46.262
582.00,46.478
583.00,46.535
584.00,46.495
585.00,46.541
586.00,46.700
587.00,46.683
588.00,46.653
589.00,46.725
590.00,46.670
591.00,46.688
592.00,46.637
593.00,46.702
594.00,46.715
595.00,46.842
596.00,46.836
597.00,47.091
598.00,47.018
599.00,47.073
600.00,47.156
601.00,47.068
602.00,47.093
603.00,47.101
604.00,47.076
605.00,47.129
606.00,47.292
607.00,47.262
608.00,47.226
609.00,47.333
610.00,47.312
611.00,47.251
612.00,47.403
613.00,47.412
614.00,47.438
615.00,47.405
616.00,47.442
617.00,47.586
618.00,47.529
619.00,47.532
620.00,47.624
621.00,47.543
622.00,47.584
623.00,47.726
624.00,47.732
625.00,47.760
626.00,47.800
627.00,47.792
628.00,47.885
629.00,47.848
630.00,47.830
631.00,47.870
632.00,47.936
633.00,47.925
634.00,47.910
635.00,47.929
636.00,47.917
637.00,48.116
638.00,48.113
639.00,48.229
640.00,48.115
641.00,48.176
642.00,48.241
643.00,48.245
644.00,48.298
645.00,48.279
646.00,48.283
647.00,48.395
648.00,48.401
649.00,48.477
650.00,48.507
651.00,48.527
652.00,48.529
653.00,48.556
654.00,48.532
655.00,48.640
656.00,48.722
657.00,48.713
658.00,48.757
659.00,48.931
660.00,48.857
661.00,48.094
662.00,49.196
663.00,48.852
664.00,48.943
665.00,48.836
666.00,48.893
667.00,49.030
668.00,49.013
669.00,48.780
670.00,49.522
671.00,49.149
672.00,49.173
673.00,49.288
674.00,49.303
675.00,49.402
676.00,49.215
677.00,49.376
678.00,49.379
679.00,49.536
680.00,49.481
681.00,49.460
682.00,49.464
683.00,49.347
684.00,49.541
685.00,49.556
686.00,49.512
687.00,49.586
688.00,49.736
689.00,49.578
690.00,49.597
691.00,49.750
692.00,49.647
693.00,49.745
694.00,49.638
695.00,49.784
696.00,49.795
697.00,49.829
698.00,49.878
699.00,49.944
700.00,49.829
701.00,49.806
702.00,49.932
703.00,50.058
704.00,49.880
705.00,50.047
706.00,50.063
707.00,49.854
708.00,49.945
709.00,50.093
710.00,50.023
711.00,49.901
712.00,50.065
713.00,50.108
714.00,50.130
715.00,50.377
716.00,50.070
717.00,50.138
718.00,50.182
719.00,49.910
720.00,50.354
721.00,54.340
722.00,54.432
723.00,54.402
724.00,54.331
725.00,54.363
726.00,54.063
727.00,54.264
728.00,54.159
729.00,54.131
730.00,54.173
731.00,54.103
732.00,54.040
733.00,54.048
734.00,54.045
735.00,54.117
736.00,53.975
737.00,54.193
738.00,54.251
739.00,54.253
740.00,53.856
741.00,53.839
742.00,54.083
743.00,53.952
744.00,53.957
745.00,53.895
746.00,53.883
747.00,53.764
748.00,53.696
749.00,53.624
750.00,53.620
751.00,53.645
752.00,53.534
753.00,53.560
754.00,53.454
755.00,53.613
756.00,53.457
757.00,53.515
758.00,53.428
759.00,53.467
760.00,53.393
761.00,53.299
762.00,53.357
763.00,53.366
764.00,53.447
765.00,53.333
766.00,53.278
767.00,53.233
768.00,53.220
769.00,53.216
770.00,53.248
771.00,53.254
772.00,53.224
773.00,53.170
774.00,53.082
775.00,53.152
776.00,53.055
777.00,53.192
778.00,53.145
779.00,52.987
780.00,53.156
781.00,52.950
782.00,53.010
783.00,52.963
784.00,52.819
785.00,52.899
786.00,52.998
787.00,52.963
788.00,52.885
789.00,52.846
790.00,52.768
791.00,52.818
792.00,52.798
793.00,52.698
794.00,52.618
795.00,52.645
796.00,52.718
797.00,52.410
798.00,52.647
799.00,52.527
800.00,52.486
801.00,52.449
802.00,52.432
803.00,52.365
804.00,52.385
805.00,52.344
806.00,52.434
807.00,52.303
808.00,52.294
809.00,52.278
810.00,52.243
811.00,52.111
812.00,52.011
813.00,52.250
814.00,52.011
815.00,52.023
816.00,52.167
817.00,51.990
818.00,52.070
819.00,52.026
820.00,51.961
821.00,51.885
822.00,51.936
823.00,51.852
824.00,51.928
825.00,51.639
826.00,51.792
827.00,51.844
828.00,51.770
829.00,51.731
830.00,51.680
831.00,54.107
832.00,54.298
833.00,54.284
834.00,54.236
835.00,54.185
836.00,54.227
837.00,54.228
838.00,54.204
839.00,54.209
840.00,54.219
841.00,54.088
842.00,53.989
843.00,54.039
844.00,54.032
845.00,53.959
846.00,53.935
847.00,53.885
848.00,53.860
849.00,53.827
850.00,53.774
851.00,53.750
852.00,53.641
853.00,53.656
854.00,53.464
855.00,53.672
856.00,53.474
857.00,53.566
858.00,53.481
859.00,53.497
860.00,53.489
861.00,53.507
862.00,53.434
863.00,53.411
864.00,53.517
865.00,53.307
866.00,53.335
867.00,53.307
868.00,53.334
869.00,53.257
870.00,53.276
871.00,53.266
872.00,53.236
873.00,53.244
874.00,53.237
875.00,53.190
876.00,53.157
877.00,53.174
878.00,53.079
879.00,53.109
880.00,53.125
881.00,53.000
882.00,53.057
883.00,53.022
884.00,53.007
885.00,53.040
886.00,52.998
887.00,52.921
888.00,52.944
889.00,52.877
890.00,52.879
891.00,52.925
892.00,52.858
893.00,52.798
894.00,52.873
895.00,52.764
896.00,52.719
897.00,52.728
898.00,52.671
899.00,52.688
900.00,52.678
901.00,52.679
902.00,52.660
903.00,52.635
904.00,52.592
905.00,52.570
906.00,52.605
907.00,52.535
908.00,52.601
909.00,52.495
910.00,52.456
911.00,52.473
912.00,52.445
913.00,52.381
914.00,52.415
915.00,52.355
916.00,52.364
917.00,52.326
918.00,52.286
919.00,52.318
920.00,52.253
921.00,52.224
922.00,52.242
923.00,52.184
924.00,52.180
925.00,52.181
926.00,52.177
927.00,52.149
928.00,52.112
929.00,52.083
930.00,52.086
931.00,52.052
932.00,51.990
933.00,52.001
934.00,51.995
935.00,51.977
936.00,51.936
937.00,51.944
938.00,51.909
939.00,51.880
940.00,51.864
941.00,51.856
942.00,51.836
943.00,51.773
944.00,51.795
945.00,51.753
946.00,51.758
947.00,51.693
948.00,51.677
949.00,51.694
950.00,51.670
951.00,51.600
952.00,51.598
953.00,51.568
954.00,51.584
955.00,51.526
956.00,51.520
957.00,51.494
958.00,51.469
959.00,51.465
960.00,51.414
961.00,51.393
962.00,51.384
963.00,51.377
964.00,51.330
965.00,51.450
966.00,51.323
967.00,51.338
968.00,51.316
969.00,51.308
970.00,51.339
971.00,51.304
972.00,51.310
973.00,51.290
974.00,51.313
975.00,51.290
976.00,51.293
977.00,51.286
978.00,51.300
979.00,51.300
980.00,51.243
981.00,51.309
982.00,51.263
983.00,51.292
984.00,51.258
985.00,51.272
986.00,51.247
987.00,51.232
988.00,51.255
989.00,51.209
990.00,51.233
991.00,51.196
992.00,51.207
993.00,51.222
994.00,51.146
995.00,51.167
996.00,51.125
997.00,51.134
998.00,51.101
999.00,51.097
1000.00,51.089
1001.00,51.056
1002.00,51.075
1003.00,51.039
1004.00,51.060
1005.00,51.018
1006.00,51.024
1007.00,51.015
1008.00,50.980
1009.00,50.992
1010.00,50.936
1011.00,50.974
1012.00,50.922
1013.00,50.896
1014.00,50.902
1015.00,50.877
1016.00,50.871
1017.00,50.838
1018.00,50.832
1019.00,50.792
1020.00,50.803
1021.00,50.790
1022.00,50.772
1023.00,50.758
1024.00,50.729
1025.00,50.736
1026.00,50.705
1027.00,50.694
1028.00,50.669
1029.00,50.664
1030.00,50.624
1031.00,50.623
1032.00,50.635
1033.00,50.609
1034.00,50.594
1035.00,50.536
1036.00,50.569
1037.00,50.519
1038.00,50.489
1039.00,50.443
1040.00,50.446
1041.00,50.419
1042.00,50.394
1043.00,50.396
1044.00,50.410
1045.00,50.419
1046.00,50.402
1047.00,50.436
1048.00,50.433
1049.00,50.448
1050.00,50.435
1051.00,50.453
1052.00,50.483
1053.00,50.475
1054.00,50.481
1055.00,50.490
1056.00,50.502
1057.00,50.500
1058.00,50.497
1059.00,50.496
1060.00,50.498
1061.00,50.476
1062.00,50.488
1063.00,50.469
1064.00,50.471
1065.00,50.433
1066.00,50.434
1067.00,50.409
1068.00,50.411
1069.00,50.402
1070.00,50.407
1071.00,50.388
1072.00,50.357
1073.00,50.351
1074.00,50.336
1075.00,50.319
1076.00,50.295
1077.00,50.300
1078.00,50.296
1079.00,50.260
1080.00,50.284
1081.00,50.271
1082.00,50.263
1083.00,50.277
1084.00,50.268
1085.00,50.243
1086.00,50.239
1087.00,50.240
1088.00,50.215
1089.00,50.224
1090.00,50.208
1091.00,50.198
1092.00,50.189
1093.00,50.172
1094.00,50.153
1095.00,50.151
1096.00,50.140
1097.00,50.111
1098.00,50.104
1099.00,50.124
1100.00,50.103
1101.00,50.089
1102.00,50.086
1103.00,50.088
1104.00,50.067
1105.00,50.054
1106.00,50.048
1107.00,50.027
1108.00,50.009
1109.00,50.004
1110.00,49.998
1111.00,50.013
1112.00,49.981
1113.00,49.987
1114.00,49.995
1115.00,49.981
1116.00,49.966
1117.00,49.952
1118.00,49.961
1119.00,49.943
1120.00,49.942
1121.00,49.921
1122.00,49.918
1123.00,49.936
1124.00,49.912
1125.00,49.890
1126.00,49.874
1127.00,49.882
1128.00,49.880
1129.00,49.851
1130.00,49.863
1131.00,49.866
1132.00,49.870
1133.00,49.799
1134.00,49.804
1135.00,49.833
1136.00,49.802
1137.00,49.817
1138.00,49.795
1139.00,49.805
1140.00,49.792
1141.00,49.796
1142.00,49.789
1143.00,49.814
1144.00,49.787
1145.00,49.789
1146.00,49.796
1147.00,49.783
1148.00,49.744
1149.00,49.751
1150.00,49.754
1151.00,49.761
1152.00,49.712
1153.00,49.744
1154.00,49.729
1155.00,49.740
1156.00,49.708
1157.00,49.715
1158.00,49.724
1159.00,49.707
1160.00,49.709
1161.00,49.707
1162.00,49.704
1163.00,49.697
1164.00,49.714
1165.00,49.703
1166.00,49.709
1167.00,49.686
1168.00,49.700
1169.00,49.700
1170.00,49.699
1171.00,49.685
1172.00,49.696
1173.00,49.700
1174.00,49.688
1175.00,49.687
1176.00,49.687
1177.00,49.689
1178.00,49.667
1179.00,49.697
1180.00,49.678
1181.00,49.687
1182.00,49.672
1183.00,49.684
1184.00,49.677
1185.00,49.686
1186.00,49.679
1187.00,49.659
1188.00,49.690
1189.00,49.655
1190.00,49.662
1191.00,49.653
1192.00,49.649
1193.00,49.644
1194.00,49.653
1195.00,49.668
1196.00,49.641
1197.00,49.659
1198.00,49.650
1199.00,49.673
1200.00,49.640
1201.00,49.652
1202.00,49.645
1203.00,49.631
1204.00,49.641
1205.00,49.638
1206.00,49.626
1207.00,49.640
1208.00,49.642
1209.00,49.641
1210.00,49.648
1211.00,49.610
1212.00,49.635
1213.00,49.641
1214.00,49.618
1215.00,49.613
1216.00,49.579
1217.00,49.616
1218.00,49.611
1219.00,49.618
1220.00,49.618
1221.00,49.628
1222.00,49.620
1223.00,49.618
1224.00,49.654
1225.00,49.606
1226.00,49.652
1227.00,49.610
1228.00,49.623
1229.00,49.629
1230.00,49.671
1231.00,49.685
1232.00,49.663
1233.00,49.659
1234.00,49.656
1235.00,49.671
1236.00,49.641
1237.00,49.653
1238.00,49.652
1239.00,49.652
1240.00,49.651
1241.00,49.643
1242.00,49.673
1243.00,49.669
1244.00,49.656
1245.00,49.664
1246.00,49.677
1247.00,49.659
1248.00,49.674
1249.00,49.670
1250.00,49.689
1251.00,49.661
1252.00,49.695
1253.00,49.688
1254.00,49.717
1255.00,49.703
1256.00,49.692
1257.00,49.655
1258.00,49.699
1259.00,49.687
1260.00,49.697
1261.00,49.710
1262.00,49.699
1263.00,49.698
1264.00,49.732
1265.00,49.718
1266.00,49.717
1267.00,49.744
1268.00,49.746
1269.00,49.728
1270.00,49.730
1271.00,49.743
1272.00,49.748
1273.00,49.760
1274.00,49.754
1275.00,49.770
1276.00,49.782
1277.00,49.762
1278.00,49.773
1279.00,49.784
1280.00,49.777
1281.00,49.786
1282.00,49.774
1283.00,49.755
1284.00,49.781
1285.00,49.776
1286.00,49.795
1287.00,49.769
1288.00,49.786
1289.00,49.794
1290.00,49.809
1291.00,49.800
1292.00,49.824
1293.00,49.810
1294.00,49.846
1295.00,49.838
1296.00,49.847
1297.00,49.852
1298.00,49.866
1299.00,49.851
1300.00,49.860
1301.00,49.865
1302.00,49.869
1303.00,49.877
1304.00,49.877
1305.00,49.891
1306.00,49.883
1307.00,49.925
1308.00,49.903
1309.00,49.908
1310.00,49.905
1311.00,49.920
1312.00,49.911
1313.00,49.894
1314.00,49.901
1315.00,49.909
1316.00,49.975
1317.00,49.921
1318.00,49.936
1319.00,49.955
1320.00,49.984
1321.00,50.136
1322.00,50.157
1323.00,50.140
1324.00,50.124
1325.00,50.142
1326.00,50.142
1327.00,50.115
1328.00,50.113
1329.00,50.119
1330.00,50.113
1331.00,50.092
1332.00,50.118
1333.00,50.109
1334.00,50.165
1335.00,50.153
1336.00,50.178
1337.00,50.234
1338.00,50.295
1339.00,50.344
1340.00,50.382
1341.00,50.437
1342.00,50.507
1343.00,50.585
1344.00,50.606
1345.00,50.749
1346.00,50.741
1347.00,50.734
1348.00,50.741
1349.00,50.786
1350.00,50.789
1351.00,50.798
1352.00,50.768
1353.00,50.902
1354.00,50.824
1355.00,50.737
1356.00,50.849
1357.00,50.804
1358.00,50.876
1359.00,50.821
1360.00,51.257
1361.00,50.887
1362.00,50.774
1363.00,50.901
1364.00,50.777
1365.00,50.887
1366.00,51.017
1367.00,50.875
1368.00,50.858
1369.00,51.273
1370.00,50.823
1371.00,50.812
1372.00,50.822
1373.00,50.821
1374.00,50.834
1375.00,50.853
1376.00,50.781
1377.00,50.823
1378.00,50.966
1379.00,50.761
1380.00,50.841
1381.00,50.863
1382.00,50.775
1383.00,50.902
1384.00,50.769
1385.00,50.674
1386.00,50.886
1387.00,50.660
1388.00,50.796
1389.00,50.718
1390.00,50.940
1391.00,50.539
1392.00,50.748
1393.00,51.002
1394.00,50.915
1395.00,50.637
1396.00,50.768
1397.00,50.864
1398.00,50.917
1399.00,50.722
1400.00,50.764
1401.00,50.875
1402.00,51.068
1403.00,50.909
1404.00,50.884
1405.00,50.665
1406.00,50.656
1407.00,50.801
1408.00,50.802
1409.00,50.809
1410.00,50.856
1411.00,50.828
1412.00,50.917
1413.00,50.857
1414.00,50.850
1415.00,50.882
1416.00,50.860
1417.00,50.953
1418.00,50.883
1419.00,50.908
1420.00,50.928
1421.00,50.977
1422.00,50.963
1423.00,50.973
1424.00,50.987
1425.00,50.996
1426.00,50.996
1427.00,51.006
1428.00,51.020
1429.00,51.050
1430.00,51.066
1431.00,51.042
1432.00,51.096
1433.00,51.080
1434.00,51.125
1435.00,51.170
1436.00,51.213
1437.00,51.130
1438.00,51.149
1439.00,51.178
1440.00,51.200
1441.00,51.214
1442.00,51.226
1443.00,51.260
1444.00,51.262
1445.00,51.263
1446.00,51.283
1447.00,51.322
1448.00,51.329
1449.00,51.332
1450.00,51.362
1451.00,51.372
1452.00,51.379
1453.00,51.402
1454.00,51.388
1455.00,51.413
1456.00,51.440
1457.00,51.436
1458.00,51.456
1459.00,51.460
1460.00,51.471
1461.00,51.499
1462.00,51.476
1463.00,51.513
1464.00,51.528
1465.00,51.539
1466.00,51.553
1467.00,51.548
1468.00,51.574
1469.00,51.616
1470.00,51.603
1471.00,51.605
1472.00,51.634
1473.00,51.630
1474.00,51.671
1475.00,51.675
1476.00,51.688
1477.00,51.698
1478.00,51.710
1479.00,51.708
1480.00,51.742
1481.00,51.721
1482.00,51.764
1483.00,51.744
1484.00,51.764
1485.00,51.782
1486.00,51.793
1487.00,51.815
1488.00,51.816
1489.00,51.821
1490.00,51.846
1491.00,51.840
1492.00,51.839
1493.00,51.864
1494.00,51.869
1495.00,51.906
1496.00,51.875
1497.00,51.899
1498.00,51.888
1499.00,51.917
1500.00,51.937
1501.00, 
1502.00, 
1503.00, 
1504.00, 
1505.00, 
1506.00, 
1507.00, 
1508.00, 
1509.00, 
1510.00, 
1511.00, 
1512.00, 
1513.00, 
1514.00, 
1515.00, 
1516.00, 
1517.00, 
1518.00, 
1519.00, 
1520.00, 
1521.00, 
1522.00, 
1523.00, 
1524.00, 
1525.00, 
1526.00, 
1527.00, 
1528.00, 
1529.00, 
1530.00, 
1531.00, 
1532.00, 
1533.00, 
1534.00, 
1535.00, 
1536.00, 
1537.00, 
1538.00, 
1539.00, 
1540.00, 
1541.00, 
1542.00, 
1543.00, 
1544.00, 
1545.00, 
1546.00, 
1547.00, 
1548.00, 
1549.00, 
1550.00, 
1551.00, 
1552.00, 
1553.00, 
1554.00, 
1555.00, 
1556.00, 
1557.00, 
1558.00, 
1559.00, 
1560.00, 
1561.00, 
1562.00, 
1563.00, 
1564.00, 
1565.00, 
1566.00, 
1567.00, 
1568.00, 
1569.00, 
1570.00, 
1571.00, 
1572.00, 
1573.00, 
1574.00, 
1575.00, 
1576.00, 
1577.00, 
1578.00, 
1579.00, 
1580.00, 
1581.00, 
1582.00, 
1583.00, 
1584.00, 
1585.00, 
1586.00, 
1587.00, 
1588.00, 
1589.00, 
1590.00, 
1591.00, 
1592.00, 
1593.00, 
1594.00, 
1595.00, 
1596.00, 
1597.00, 
1598.00, 
1599.00, 
1600.00, 
1601.00, 
1602.00, 
1603.00, 
1604.00, 
1605.00, 
1606.00, 
1607.00, 
1608.00, 
1609.00, 
1610.00, 
1611.00, 
1612.00, 
1613.00, 
1614.00, 
1615.00, 
1616.00, 
1617.00, 
1618.00, 
1619.00, 
1620.00, 
1621.00, 
1622.00, 
1623.00, 
1624.00, 
1625.00, 
1626.00, 
1627.00, 
1628.00, 
1629.00, 
1630.00, 
1631.00, 
1632.00, 
1633.00, 
1634.00, 
1635.00, 
1636.00, 
1637.00, 
1638.00, 
1639.00, 
1640.00, 
1641.00, 
1642.00, 
1643.00, 
1644.00, 
1645.00, 
1646.00, 
1647.00, 
1648.00, 
1649.00, 
1650.00, 
1651.00, 
1652.00, 
1653.00, 
1654.00, 
1655.00, 
1656.00, 
1657.00, 
1658.00, 
1659.00, 
1660.00, 
1661.00, 
1662.00, 
1663.00, 
1664.00, 
1665.00, 
1666.00, 
1667.00, 
1668.00, 
1669.00, 
1670.00, 
1671.00, 
1672.00, 
1673.00, 
1674.00, 
1675.00, 
1676.00, 
1677.00, 
1678.00, 
1679.00, 
1680.00, 
1681.00, 
1682.00, 
1683.00, 
1684.00, 
1685.00, 
1686.00, 
1687.00, 
1688.00, 
1689.00, 
1690.00, 
1691.00, 
1692.00, 
1693.00, 
1694.00, 
1695.00, 
1696.00, 
1697.00, 
1698.00, 
1699.00, 
1700.00, 
1701.00, 
1702.00, 
1703.00, 
1704.00, 
1705.00, 
1706.00, 
1707.00, 
1708.00, 
1709.00, 
1710.00, 
1711.00, 
1712.00, 
1713.00, 
1714.00, 
1715.00, 
1716.00, 
1717.00, 
1718.00, 
1719.00, 
1720.00, 
1721.00, 
1722.00, 
1723.00, 
1724.00, 
1725.00, 
1726.00, 
1727.00, 
1728.00, 
1729.00, 
1730.00, 
1731.00, 
1732.00, 
1733.00, 
1734.00, 
1735.00, 
1736.00, 
1737.00, 
1738.00, 
1739.00, 
1740.00, 
1741.00, 
1742.00, 
1743.00, 
1744.00, 
1745.00, 
1746.00, 
1747.00, 
1748.00, 
1749.00, 
1750.00, 
1751.00, 
1752.00, 
1753.00, 
1754.00, 
1755.00, 
1756.00, 
1757.00, 
1758.00, 
1759.00, 
1760.00, 
1761.00, 
1762.00, 
1763.00, 
1764.00, 
1765.00, 
1766.00, 
1767.00, 
1768.00, 
1769.00, 
1770.00, 
1771.00, 
1772.00, 
1773.00, 
1774.00, 
1775.00, 
1776.00, 
1777.00, 
1778.00, 
1779.00, 
1780.00, 
1781.00, 
1782.00, 
1783.00, 
1784.00, 
1785.00, 
1786.00, 
1787.00, 
1788.00, 
1789.00, 
1790.00, 
1791.00, 
1792.00, 
1793.00, 
1794.00, 
1795.00, 
1796.00, 
1797.00, 
1798.00, 
1799.00, 
1800.00, 
1801.00, 
1802.00, 
1803.00, 
1804.00, 
1805.00, 
1806.00, 
1807.00, 
1808.00, 
1809.00, 
1810.00, 
1811.00, 
1812.00, 
1813.00, 
1814.00, 
1815.00, 
1816.00, 
1817.00, 
1818.00, 
1819.00, 
1820.00, 
1821.00, 
1822.00, 
1823.00, 
1824.00, 
1825.00, 
1826.00, 
1827.00, 
1828.00, 
1829.00, 
1830.00, 
1831.00, 
1832.00, 
1833.00, 
1834.00, 
1835.00, 
1836.00, 
1837.00, 
1838.00, 
1839.00, 
1840.00, 
1841.00, 
1842.00, 
1843.00, 
1844.00, 
1845.00, 
1846.00, 
1847.00, 
1848.00, 
1849.00, 
1850.00, 
1851.00, 
1852.00, 
1853.00, 
1854.00, 
1855.00, 
1856.00, 
1857.00, 
1858.00, 
1859.00, 
1860.00, 
1861.00, 
1862.00, 
1863.00, 
1864.00, 
1865.00, 
1866.00, 
1867.00, 
1868.00, 
1869.00, 
1870.00, 
1871.00, 
1872.00, 
1873.00, 
1874.00, 
1875.00, 
1876.00, 
1877.00, 
1878.00, 
1879.00, 
1880.00, 
1881.00, 
1882.00, 
1883.00, 
1884.00, 
1885.00, 
1886.00, 
1887.00, 
1888.00, 
1889.00, 
1890.00, 
1891.00, 
1892.00, 
1893.00, 
1894.00, 
1895.00, 
1896.00, 
1897.00, 
1898.00, 
1899.00, 
1900.00, 
1901.00, 
1902.00, 
1903.00, 
1904.00, 
1905.00, 
1906.00, 
1907.00, 
1908.00, 
1909.00, 
1910.00, 
1911.00, 
1912.00, 
1913.00, 
1914.00, 
1915.00, 
1916.00, 
1917.00, 
1918.00, 
1919.00, 
1920.00, 
1921.00, 
1922.00, 
1923.00, 
1924.00, 
1925.00, 
1926.00, 
1927.00, 
1928.00, 
1929.00, 
1930.00, 
1931.00, 
1932.00, 
1933.00, 
1934.00, 
1935.00, 
1936.00, 
1937.00, 
1938.00, 
1939.00, 
1940.00, 
1941.00, 
1942.00, 
1943.00, 
1944.00, 
1945.00, 
1946.00, 
1947.00, 
1948.00, 
1949.00, 
1950.00, 
1951.00, 
1952.00, 
1953.00, 
1954.00, 
1955.00, 
1956.00, 
1957.00, 
1958.00, 
1959.00, 
1960.00, 
1961.00, 
1962.00, 
1963.00, 
1964.00, 
1965.00, 
1966.00, 
1967.00, 
1968.00, 
1969.00, 
1970.00, 
1971.00, 
1972.00, 
1973.00, 
1974.00, 
1975.00, 
1976.00, 
1977.00, 
1978.00, 
1979.00, 
1980.00, 
1981.00, 
1982.00, 
1983.00, 
1984.00, 
1985.00, 
1986.00, 
1987.00, 
1988.00, 
1989.00, 
1990.00, 
1991.00, 
1992.00, 
1993.00, 
1994.00, 
1995.00, 
1996.00, 
1997.00, 
1998.00, 
1999.00, 
2000.00, 
2001.00, 
2002.00, 
2003.00, 
2004.00, 
2005.00, 
2006.00, 
2007.00, 
2008.00, 
2009.00, 
2010.00, 
2011.00, 
2012.00, 
2013.00, 
2014.00, 
2015.00, 
2016.00, 
2017.00, 
2018.00, 
2019.00, 
2020.00, 
2021.00, 
2022.00, 
2023.00, 
2024.00, 
2025.00, 
2026.00, 
2027.00, 
2028.00, 
2029.00, 
2030.00, 
2031.00, 
2032.00, 
2033.00, 
2034.00, 
2035.00, 
2036.00, 
2037.00, 
2038.00, 
2039.00, 
2040.00, 
2041.00, 
2042.00, 
2043.00, 
2044.00, 
2045.00, 
2046.00, 
2047.00, 
2048.00, 
2049.00, 
2050.00, 
2051.00, 
2052.00, 
2053.00, 
2054.00, 
2055.00, 
2056.00, 
2057.00, 
2058.00, 
2059.00, 
2060.00, 
2061.00, 
2062.00, 
2063.00, 
2064.00, 
2065.00, 
2066.00, 
2067.00, 
2068.00, 
2069.00, 
2070.00, 
2071.00, 
2072.00, 
2073.00, 
2074.00, 
2075.00, 
2076.00, 
2077.00, 
2078.00, 
2079.00, 
2080.00, 
2081.00, 
2082.00, 
2083.00, 
2084.00, 
2085.00, 
2086.00, 
2087.00, 
2088.00, 
2089.00, 
2090.00, 
2091.00, 
2092.00, 
2093.00, 
2094.00, 
2095.00, 
2096.00, 
2097.00, 
2098.00, 
2099.00, 
2100.00, 
2101.00, 
2102.00, 
2103.00, 
2104.00, 
2105.00, 
2106.00, 
2107.00, 
2108.00, 
2109.00, 
2110.00, 
2111.00, 
2112.00, 
2113.00, 
2114.00, 
2115.00, 
2116.00, 
2117.00, 
2118.00, 
2119.00, 
2120.00, 
2121.00, 
2122.00, 
2123.00, 
2124.00, 
2125.00, 
2126.00, 
2127.00, 
2128.00, 
2129.00, 
2130.00, 
2131.00, 
2132.00, 
2133.00, 
2134.00, 
2135.00, 
2136.00, 
2137.00, 
2138.00, 
2139.00, 
2140.00, 
2141.00, 
2142.00, 
2143.00, 
2144.00, 
2145.00, 
2146.00, 
2147.00, 
2148.00, 
2149.00, 
2150.00, 
2151.00, 
2152.00, 
2153.00, 
2154.00, 
2155.00, 
2156.00, 
2157.00, 
2158.00, 
2159.00, 
2160.00, 
2161.00, 
2162.00, 
2163.00, 
2164.00, 
2165.00, 
2166.00, 
2167.00, 
2168.00, 
2169.00, 
2170.00, 
2171.00, 
2172.00, 
2173.00, 
2174.00, 
2175.00, 
2176.00, 
2177.00, 
2178.00, 
2179.00, 
2180.00, 
2181.00, 
2182.00, 
2183.00, 
2184.00, 
2185.00, 
2186.00, 
2187.00, 
2188.00, 
2189.00, 
2190.00, 
2191.00, 
2192.00, 
2193.00, 
2194.00, 
2195.00, 
2196.00, 
2197.00, 
2198.00, 
2199.00, 
2200.00, 
2201.00, 
2202.00, 
2203.00, 
2204.00, 
2205.00, 
2206.00, 
2207.00, 
2208.00, 
2209.00, 
2210.00, 
2211.00, 
2212.00, 
2213.00, 
2214.00, 
2215.00, 
2216.00, 
2217.00, 
2218.00, 
2219.00, 
2220.00, 
2221.00, 
2222.00, 
2223.00, 
2224.00, 
2225.00, 
2226.00, 
2227.00, 
2228.00, 
2229.00, 
2230.00, 
2231.00, 
2232.00, 
2233.00, 
2234.00, 
2235.00, 
2236.00, 
2237.00, 
2238.00, 
2239.00, 
2240.00, 
2241.00, 
2242.00, 
2243.00, 
2244.00, 
2245.00, 
2246.00, 
2247.00, 
2248.00, 
2249.00, 
2250.00, 
2251.00, 
2252.00, 
2253.00, 
2254.00, 
2255.00, 
2256.00, 
2257.00, 
2258.00, 
2259.00, 
2260.00, 
2261.00, 
2262.00, 
2263.00, 
2264.00, 
2265.00, 
2266.00, 
2267.00, 
2268.00, 
2269.00, 
2270.00, 
2271.00, 
2272.00, 
2273.00, 
2274.00, 
2275.00, 
2276.00, 
2277.00, 
2278.00, 
2279.00, 
2280.00, 
2281.00, 
2282.00, 
2283.00, 
2284.00, 
2285.00, 
2286.00, 
2287.00, 
2288.00, 
2289.00, 
2290.00, 
2291.00, 
2292.00, 
2293.00, 
2294.00, 
2295.00, 
2296.00, 
2297.00, 
2298.00, 
2299.00, 
2300.00, 
2301.00, 
2302.00, 
2303.00, 
2304.00, 
2305.00, 
2306.00, 
2307.00, 
2308.00, 
2309.00, 
2310.00, 
2311.00, 
2312.00, 
2313.00, 
2314.00, 
2315.00, 
2316.00, 
2317.00, 
2318.00, 
2319.00, 
2320.00, 
2321.00, 
2322.00, 
2323.00, 
2324.00, 
2325.00, 
2326.00, 
2327.00, 
2328.00, 
2329.00, 
2330.00, 
2331.00, 
2332.00, 
2333.00, 
2334.00, 
2335.00, 
2336.00, 
2337.00, 
2338.00, 
2339.00, 
2340.00, 
2341.00, 
2342.00, 
2343.00, 
2344.00, 
2345.00, 
2346.00, 
2347.00, 
2348.00, 
2349.00, 
2350.00, 
2351.00, 
2352.00, 
2353.00, 
2354.00, 
2355.00, 
2356.00, 
2357.00, 
2358.00, 
2359.00, 
2360.00, 
2361.00, 
2362.00, 
2363.00, 
2364.00, 
2365.00, 
2366.00, 
2367.00, 
2368.00, 
2369.00, 
2370.00, 
2371.00, 
2372.00, 
2373.00, 
2374.00, 
2375.00, 
2376.00, 
2377.00, 
2378.00, 
2379.00, 
2380.00, 
2381.00, 
2382.00, 
2383.00, 
2384.00, 
2385.00, 
2386.00, 
2387.00, 
2388.00, 
2389.00, 
2390.00, 
2391.00, 
2392.00, 
2393.00, 
2394.00, 
2395.00, 
2396.00, 
2397.00, 
2398.00, 
2399.00, 
2400.00, 
2401.00, 
2402.00, 
2403.00, 
2404.00, 
2405.00, 
2406.00, 
2407.00, 
2408.00, 
2409.00, 
2410.00, 
2411.00, 
2412.00, 
2413.00, 
2414.00, 
2415.00, 
2416.00, 
2417.00, 
2418.00, 
2419.00, 
2420.00, 
2421.00, 
2422.00, 
2423.00, 
2424.00, 
2425.00, 
2426.00, 
2427.00, 
2428.00, 
2429.00, 
2430.00, 
2431.00, 
2432.00, 
2433.00, 
2434.00, 
2435.00, 
2436.00, 
2437.00, 
2438.00, 
2439.00, 
2440.00, 
2441.00, 
2442.00, 
2443.00, 
2444.00, 
2445.00, 
2446.00, 
2447.00, 
2448.00, 
2449.00, 
2450.00, 
2451.00, 
2452.00, 
2453.00, 
2454.00, 
2455.00, 
2456.00, 
2457.00, 
2458.00, 
2459.00, 
2460.00, 
2461.00, 
2462.00, 
2463.00, 
2464.00, 
2465.00, 
2466.00, 
2467.00, 
2468.00, 
2469.00, 
2470.00, 
2471.00, 
2472.00, 
2473.00, 
2474.00, 
2475.00, 
2476.00, 
2477.00, 
2478.00, 
2479.00, 
2480.00, 
2481.00, 
2482.00, 
2483.00, 
2484.00, 
2485.00, 
2486.00, 
2487.00, 
2488.00, 
2489.00, 
2490.00, 
2491.00, 
2492.00, 
2493.00, 
2494.00, 
2495.00, 
2496.00, 
2497.00, 
2498.00, 
2499.00, 
2500.00, 
2501.00, 
2502.00, 
2503.00, 
2504.00, 
2505.00, 
2506.00, 
2507.00, 
2508.00, 
2509.00, 
2510.00, 
2511.00, 
2512.00, 
2513.00, 
2514.00, 
2515.00, 
2516.00, 
2517.00, 
2518.00, 
2519.00, 
2520.00, 
2521.00, 
2522.00, 
2523.00, 
2524.00, 
2525.00, 
2526.00, 
2527.00, 
2528.00, 
2529.00, 
2530.00, 
2531.00, 
2532.00, 
2533.00, 
2534.00, 
2535.00, 
2536.00, 
2537.00, 
2538.00, 
2539.00, 
2540.00, 
2541.00, 
2542.00, 
2543.00, 
2544.00, 
2545.00, 
2546.00, 
2547.00, 
2548.00, 
2549.00, 
2550.00, 
2551.00, 
2552.00, 
2553.00, 
2554.00, 
2555.00, 
2556.00, 
2557.00, 
2558.00, 
2559.00, 
2560.00, 
2561.00, 
2562.00, 
2563.00, 
2564.00, 
2565.00, 
2566.00, 
2567.00, 
2568.00, 
2569.00, 
2570.00, 
2571.00, 
2572.00, 
2573.00, 
2574.00, 
2575.00, 
2576.00, 
2577.00, 
2578.00, 
2579.00, 
2580.00, 
2581.00, 
2582.00, 
2583.00, 
2584.00, 
2585.00, 
2586.00, 
2587.00, 
2588.00, 
2589.00, 
2590.00, 
2591.00, 
2592.00, 
2593.00, 
2594.00, 
2595.00, 
2596.00, 
2597.00, 
2598.00, 
2599.00, 
2600.00, 
