"2cP2 - RawData"
"Wavelength nm.","T%"
200.00,-0.006
201.00,0.002
202.00,-0.007
203.00,-0.002
204.00,0.007
205.00,0.006
206.00,0.002
207.00,0.000
208.00,0.004
209.00,0.005
210.00,0.004
211.00,0.002
212.00,0.000
213.00,0.003
214.00,-0.001
215.00,0.003
216.00,0.003
217.00,0.001
218.00,0.001
219.00,0.002
220.00,0.004
221.00,0.003
222.00,0.001
223.00,0.001
224.00,-0.000
225.00,0.001
226.00,0.003
227.00,0.001
228.00,0.001
229.00,0.002
230.00,-0.000
231.00,-0.001
232.00,-0.000
233.00,0.002
234.00,-0.000
235.00,0.000
236.00,0.001
237.00,0.001
238.00,-0.000
239.00,0.002
240.00,0.001
241.00,0.001
242.00,-0.001
243.00,-0.001
244.00,-0.000
245.00,0.000
246.00,0.000
247.00,0.003
248.00,0.001
249.00,0.003
250.00,0.000
251.00,0.000
252.00,0.004
253.00,-0.001
254.00,0.001
255.00,0.000
256.00,-0.001
257.00,0.001
258.00,0.000
259.00,0.002
260.00,-0.001
261.00,0.001
262.00,-0.000
263.00,0.001
264.00,-0.001
265.00,0.001
266.00,0.000
267.00,-0.000
268.00,0.001
269.00,0.000
270.00,0.000
271.00,-0.000
272.00,0.000
273.00,0.000
274.00,-0.000
275.00,-0.000
276.00,-0.002
277.00,0.000
278.00,0.001
279.00,-0.000
280.00,0.002
281.00,0.001
282.00,0.000
283.00,-0.000
284.00,-0.001
285.00,0.000
286.00,0.002
287.00,-0.001
288.00,-0.001
289.00,0.001
290.00,0.001
291.00,-0.002
292.00,0.000
293.00,0.001
294.00,-0.002
295.00,0.002
296.00,-0.000
297.00,-0.001
298.00,0.003
299.00,0.001
300.00,0.008
301.00,0.006
302.00,0.009
303.00,0.017
304.00,0.025
305.00,0.039
306.00,0.067
307.00,0.095
308.00,0.148
309.00,0.237
310.00,0.328
311.00,0.454
312.00,0.613
313.00,0.846
314.00,1.104
315.00,1.422
316.00,1.827
317.00,2.339
318.00,2.873
319.00,3.537
320.00,4.240
321.00,5.088
322.00,6.025
323.00,7.045
324.00,8.166
325.00,9.271
326.00,10.360
327.00,11.689
328.00,13.133
329.00,14.539
330.00,15.933
331.00,17.265
332.00,18.818
333.00,20.327
334.00,21.746
335.00,23.285
336.00,24.628
337.00,26.106
338.00,27.520
339.00,28.891
340.00,30.176
341.00,31.439
342.00,32.691
343.00,33.951
344.00,35.042
345.00,36.120
346.00,37.056
347.00,38.053
348.00,39.045
349.00,40.034
350.00,40.789
351.00,41.380
352.00,42.297
353.00,42.894
354.00,43.702
355.00,44.203
356.00,44.847
357.00,45.550
358.00,46.031
359.00,46.550
360.00,46.989
361.00,47.461
362.00,47.636
363.00,48.199
364.00,48.762
365.00,48.900
366.00,49.110
367.00,49.360
368.00,49.616
369.00,49.820
370.00,49.915
371.00,50.156
372.00,50.359
373.00,50.458
374.00,50.432
375.00,50.431
376.00,50.531
377.00,50.550
378.00,50.466
379.00,50.381
380.00,50.470
381.00,50.583
382.00,50.638
383.00,50.783
384.00,50.851
385.00,51.054
386.00,51.355
387.00,51.451
388.00,51.624
389.00,51.603
390.00,52.025
391.00,52.093
392.00,52.265
393.00,52.373
394.00,52.505
395.00,52.509
396.00,52.633
397.00,52.749
398.00,52.706
399.00,52.899
400.00,53.137
401.00,53.153
402.00,53.291
403.00,53.380
404.00,53.280
405.00,53.242
406.00,53.386
407.00,53.292
408.00,53.378
409.00,53.346
410.00,53.315
411.00,53.216
412.00,53.084
413.00,53.103
414.00,53.147
415.00,53.199
416.00,53.231
417.00,53.245
418.00,53.287
419.00,53.366
420.00,53.350
421.00,53.345
422.00,53.240
423.00,53.423
424.00,53.443
425.00,53.364
426.00,53.495
427.00,53.480
428.00,53.605
429.00,53.530
430.00,53.498
431.00,53.430
432.00,53.477
433.00,53.555
434.00,53.569
435.00,53.578
436.00,53.519
437.00,53.591
438.00,53.681
439.00,53.629
440.00,53.669
441.00,53.663
442.00,53.731
443.00,53.757
444.00,53.812
445.00,53.857
446.00,53.872
447.00,53.890
448.00,53.808
449.00,53.903
450.00,53.946
451.00,53.994
452.00,53.919
453.00,54.031
454.00,53.989
455.00,53.992
456.00,54.062
457.00,54.131
458.00,54.119
459.00,54.181
460.00,54.127
461.00,54.251
462.00,54.223
463.00,54.286
464.00,54.207
465.00,54.280
466.00,54.342
467.00,54.290
468.00,54.297
469.00,54.289
470.00,54.285
471.00,54.246
472.00,54.206
473.00,54.179
474.00,54.045
475.00,54.165
476.00,54.096
477.00,54.199
478.00,54.207
479.00,54.170
480.00,54.279
481.00,54.243
482.00,54.275
483.00,54.342
484.00,54.326
485.00,54.485
486.00,54.469
487.00,54.557
488.00,54.702
489.00,54.666
490.00,54.819
491.00,54.884
492.00,54.588
493.00,54.599
494.00,54.587
495.00,54.739
496.00,54.726
497.00,54.726
498.00,54.685
499.00,54.807
500.00,54.830
501.00,54.793
502.00,54.789
503.00,54.908
504.00,54.736
505.00,54.872
506.00,54.848
507.00,54.810
508.00,54.847
509.00,54.784
510.00,54.892
511.00,54.789
512.00,54.826
513.00,54.916
514.00,54.838
515.00,54.886
516.00,54.928
517.00,54.938
518.00,54.963
519.00,55.010
520.00,54.863
521.00,54.958
522.00,54.874
523.00,54.848
524.00,54.934
525.00,55.031
526.00,54.938
527.00,55.038
528.00,55.014
529.00,54.981
530.00,55.023
531.00,55.227
532.00,55.129
533.00,55.200
534.00,55.245
535.00,55.239
536.00,55.242
537.00,55.227
538.00,55.301
539.00,55.265
540.00,55.186
541.00,55.304
542.00,55.213
543.00,55.139
544.00,55.195
545.00,55.170
546.00,55.214
547.00,55.192
548.00,55.146
549.00,55.276
550.00,55.261
551.00,55.307
552.00,55.261
553.00,55.309
554.00,55.345
555.00,55.399
556.00,55.198
557.00,55.269
558.00,55.268
559.00,55.150
560.00,55.264
561.00,55.560
562.00,55.258
563.00,55.384
564.00,55.333
565.00,55.243
566.00,55.320
567.00,55.243
568.00,55.259
569.00,55.056
570.00,55.167
571.00,55.240
572.00,55.058
573.00,55.126
574.00,55.087
575.00,54.914
576.00,55.153
577.00,55.104
578.00,55.198
579.00,55.219
580.00,55.283
581.00,55.353
582.00,55.440
583.00,55.445
584.00,55.315
585.00,55.468
586.00,55.528
587.00,55.462
588.00,55.495
589.00,55.398
590.00,55.340
591.00,55.354
592.00,55.267
593.00,55.407
594.00,55.305
595.00,55.364
596.00,55.397
597.00,55.460
598.00,55.356
599.00,55.381
600.00,55.589
601.00,55.534
602.00,55.415
603.00,55.403
604.00,55.198
605.00,55.410
606.00,55.356
607.00,55.488
608.00,55.417
609.00,55.428
610.00,55.344
611.00,55.253
612.00,55.290
613.00,55.289
614.00,55.258
615.00,55.221
616.00,55.253
617.00,55.434
618.00,55.178
619.00,55.214
620.00,55.216
621.00,55.147
622.00,55.254
623.00,55.259
624.00,55.227
625.00,55.201
626.00,55.278
627.00,55.227
628.00,55.183
629.00,55.145
630.00,55.129
631.00,55.042
632.00,55.051
633.00,55.117
634.00,55.085
635.00,55.011
636.00,55.149
637.00,55.050
638.00,55.011
639.00,54.993
640.00,54.900
641.00,54.858
642.00,54.933
643.00,54.934
644.00,54.887
645.00,54.913
646.00,54.843
647.00,54.822
648.00,54.944
649.00,54.860
650.00,54.826
651.00,54.780
652.00,54.793
653.00,54.664
654.00,54.717
655.00,54.745
656.00,54.791
657.00,55.177
658.00,54.761
659.00,54.606
660.00,54.499
661.00,54.245
662.00,55.139
663.00,54.581
664.00,54.613
665.00,54.499
666.00,54.445
667.00,54.557
668.00,54.658
669.00,54.540
670.00,54.431
671.00,54.391
672.00,54.428
673.00,54.409
674.00,54.365
675.00,54.450
676.00,54.297
677.00,54.248
678.00,54.294
679.00,54.471
680.00,54.227
681.00,53.813
682.00,54.155
683.00,53.865
684.00,53.970
685.00,54.130
686.00,53.898
687.00,53.948
688.00,54.105
689.00,53.948
690.00,53.896
691.00,53.890
692.00,53.951
693.00,53.759
694.00,53.660
695.00,53.805
696.00,53.784
697.00,53.761
698.00,53.658
699.00,53.549
700.00,53.563
701.00,53.575
702.00,53.637
703.00,53.586
704.00,53.404
705.00,53.438
706.00,53.471
707.00,53.308
708.00,53.171
709.00,53.045
710.00,53.367
711.00,53.513
712.00,53.293
713.00,53.428
714.00,53.259
715.00,53.431
716.00,53.126
717.00,53.083
718.00,53.147
719.00,52.915
720.00,53.152
721.00,57.313
722.00,57.318
723.00,57.381
724.00,57.059
725.00,57.128
726.00,56.904
727.00,56.912
728.00,56.763
729.00,56.876
730.00,56.673
731.00,56.703
732.00,56.535
733.00,56.465
734.00,56.432
735.00,56.372
736.00,56.290
737.00,56.457
738.00,56.527
739.00,56.264
740.00,56.106
741.00,56.171
742.00,56.174
743.00,55.969
744.00,55.906
745.00,55.831
746.00,55.931
747.00,55.692
748.00,55.663
749.00,55.593
750.00,55.419
751.00,55.603
752.00,55.337
753.00,55.221
754.00,55.119
755.00,55.267
756.00,55.156
757.00,55.116
758.00,55.004
759.00,55.025
760.00,55.026
761.00,54.847
762.00,54.915
763.00,54.978
764.00,54.916
765.00,54.846
766.00,54.755
767.00,54.682
768.00,54.661
769.00,54.458
770.00,54.549
771.00,54.462
772.00,54.371
773.00,54.428
774.00,54.388
775.00,54.201
776.00,54.257
777.00,54.323
778.00,54.217
779.00,54.107
780.00,54.121
781.00,54.080
782.00,53.992
783.00,54.089
784.00,53.890
785.00,53.928
786.00,53.876
787.00,54.002
788.00,53.838
789.00,53.804
790.00,53.635
791.00,53.622
792.00,53.647
793.00,53.474
794.00,53.512
795.00,53.517
796.00,53.506
797.00,53.344
798.00,53.412
799.00,53.376
800.00,53.227
801.00,53.229
802.00,53.275
803.00,53.041
804.00,53.057
805.00,53.098
806.00,53.138
807.00,52.804
808.00,52.841
809.00,52.860
810.00,52.830
811.00,52.759
812.00,52.667
813.00,52.794
814.00,52.656
815.00,52.657
816.00,52.620
817.00,52.555
818.00,52.540
819.00,52.633
820.00,52.556
821.00,52.465
822.00,52.501
823.00,52.338
824.00,52.425
825.00,52.180
826.00,52.281
827.00,52.349
828.00,52.194
829.00,52.283
830.00,52.079
831.00,54.615
832.00,54.689
833.00,54.633
834.00,54.725
835.00,54.692
836.00,54.654
837.00,54.640
838.00,54.472
839.00,54.448
840.00,54.514
841.00,54.379
842.00,54.416
843.00,54.425
844.00,54.356
845.00,54.411
846.00,54.384
847.00,54.237
848.00,54.207
849.00,54.318
850.00,54.108
851.00,54.026
852.00,54.059
853.00,53.959
854.00,53.862
855.00,53.987
856.00,53.817
857.00,53.873
858.00,53.826
859.00,53.754
860.00,53.836
861.00,53.832
862.00,53.747
863.00,53.648
864.00,53.701
865.00,53.611
866.00,53.614
867.00,53.549
868.00,53.570
869.00,53.507
870.00,53.487
871.00,53.443
872.00,53.517
873.00,53.499
874.00,53.497
875.00,53.450
876.00,53.449
877.00,53.425
878.00,53.385
879.00,53.319
880.00,53.324
881.00,53.241
882.00,53.302
883.00,53.259
884.00,53.204
885.00,53.221
886.00,53.170
887.00,53.129
888.00,53.120
889.00,53.076
890.00,53.106
891.00,53.037
892.00,53.004
893.00,53.015
894.00,53.007
895.00,52.938
896.00,52.946
897.00,52.896
898.00,52.835
899.00,52.850
900.00,52.835
901.00,52.858
902.00,52.885
903.00,52.785
904.00,52.807
905.00,52.697
906.00,52.761
907.00,52.690
908.00,52.707
909.00,52.657
910.00,52.625
911.00,52.644
912.00,52.601
913.00,52.578
914.00,52.578
915.00,52.487
916.00,52.493
917.00,52.477
918.00,52.468
919.00,52.453
920.00,52.373
921.00,52.398
922.00,52.368
923.00,52.351
924.00,52.310
925.00,52.297
926.00,52.276
927.00,52.231
928.00,52.253
929.00,52.212
930.00,52.153
931.00,52.164
932.00,52.132
933.00,52.139
934.00,52.150
935.00,52.115
936.00,52.099
937.00,52.095
938.00,52.046
939.00,52.023
940.00,52.008
941.00,51.977
942.00,51.974
943.00,51.941
944.00,51.920
945.00,51.858
946.00,51.981
947.00,51.849
948.00,51.828
949.00,51.837
950.00,51.794
951.00,51.753
952.00,51.726
953.00,51.688
954.00,51.688
955.00,51.628
956.00,51.653
957.00,51.617
958.00,51.591
959.00,51.604
960.00,51.526
961.00,51.570
962.00,51.528
963.00,51.514
964.00,51.464
965.00,51.508
966.00,51.445
967.00,51.469
968.00,51.422
969.00,51.445
970.00,51.464
971.00,51.443
972.00,51.422
973.00,51.416
974.00,51.457
975.00,51.411
976.00,51.415
977.00,51.422
978.00,51.422
979.00,51.452
980.00,51.384
981.00,51.428
982.00,51.375
983.00,51.414
984.00,51.384
985.00,51.409
986.00,51.356
987.00,51.354
988.00,51.378
989.00,51.329
990.00,51.347
991.00,51.326
992.00,51.331
993.00,51.320
994.00,51.272
995.00,51.310
996.00,51.267
997.00,51.269
998.00,51.241
999.00,51.234
1000.00,51.215
1001.00,51.189
1002.00,51.223
1003.00,51.186
1004.00,51.182
1005.00,51.130
1006.00,51.150
1007.00,51.151
1008.00,51.089
1009.00,51.110
1010.00,51.066
1011.00,51.092
1012.00,51.046
1013.00,51.028
1014.00,51.039
1015.00,51.021
1016.00,51.034
1017.00,50.974
1018.00,50.985
1019.00,50.932
1020.00,50.944
1021.00,50.916
1022.00,50.894
1023.00,50.887
1024.00,50.864
1025.00,50.857
1026.00,50.838
1027.00,50.824
1028.00,50.815
1029.00,50.822
1030.00,50.756
1031.00,50.767
1032.00,50.770
1033.00,50.749
1034.00,50.730
1035.00,50.672
1036.00,50.702
1037.00,50.661
1038.00,50.619
1039.00,50.577
1040.00,50.594
1041.00,50.565
1042.00,50.544
1043.00,50.532
1044.00,50.534
1045.00,50.546
1046.00,50.539
1047.00,50.572
1048.00,50.573
1049.00,50.576
1050.00,50.588
1051.00,50.627
1052.00,50.646
1053.00,50.627
1054.00,50.644
1055.00,50.632
1056.00,50.650
1057.00,50.647
1058.00,50.646
1059.00,50.654
1060.00,50.642
1061.00,50.635
1062.00,50.640
1063.00,50.621
1064.00,50.620
1065.00,50.585
1066.00,50.601
1067.00,50.582
1068.00,50.575
1069.00,50.560
1070.00,50.571
1071.00,50.547
1072.00,50.524
1073.00,50.522
1074.00,50.510
1075.00,50.510
1076.00,50.493
1077.00,50.494
1078.00,50.498
1079.00,50.468
1080.00,50.484
1081.00,50.466
1082.00,50.444
1083.00,50.457
1084.00,50.447
1085.00,50.431
1086.00,50.423
1087.00,50.419
1088.00,50.394
1089.00,50.402
1090.00,50.391
1091.00,50.384
1092.00,50.375
1093.00,50.358
1094.00,50.357
1095.00,50.357
1096.00,50.317
1097.00,50.316
1098.00,50.323
1099.00,50.305
1100.00,50.281
1101.00,50.270
1102.00,50.278
1103.00,50.281
1104.00,50.242
1105.00,50.252
1106.00,50.253
1107.00,50.226
1108.00,50.227
1109.00,50.207
1110.00,50.212
1111.00,50.213
1112.00,50.194
1113.00,50.227
1114.00,50.210
1115.00,50.194
1116.00,50.189
1117.00,50.183
1118.00,50.176
1119.00,50.164
1120.00,50.164
1121.00,50.128
1122.00,50.142
1123.00,50.163
1124.00,50.130
1125.00,50.120
1126.00,50.082
1127.00,50.105
1128.00,50.088
1129.00,50.079
1130.00,50.087
1131.00,50.078
1132.00,50.069
1133.00,50.055
1134.00,50.019
1135.00,50.042
1136.00,50.050
1137.00,50.028
1138.00,50.020
1139.00,50.052
1140.00,50.015
1141.00,50.018
1142.00,50.004
1143.00,50.043
1144.00,50.022
1145.00,50.026
1146.00,50.047
1147.00,50.019
1148.00,49.994
1149.00,50.010
1150.00,50.028
1151.00,50.017
1152.00,49.976
1153.00,50.003
1154.00,49.996
1155.00,49.999
1156.00,49.973
1157.00,49.995
1158.00,49.999
1159.00,49.982
1160.00,49.994
1161.00,49.986
1162.00,49.974
1163.00,49.959
1164.00,49.985
1165.00,49.960
1166.00,49.960
1167.00,49.947
1168.00,49.968
1169.00,49.958
1170.00,49.962
1171.00,49.959
1172.00,49.959
1173.00,49.971
1174.00,49.958
1175.00,49.965
1176.00,49.958
1177.00,49.968
1178.00,49.944
1179.00,49.974
1180.00,49.938
1181.00,49.945
1182.00,49.938
1183.00,49.953
1184.00,49.926
1185.00,49.943
1186.00,49.938
1187.00,49.929
1188.00,49.957
1189.00,49.917
1190.00,49.945
1191.00,49.926
1192.00,49.925
1193.00,49.939
1194.00,49.944
1195.00,49.949
1196.00,49.929
1197.00,49.939
1198.00,49.931
1199.00,49.963
1200.00,49.941
1201.00,49.947
1202.00,49.946
1203.00,49.927
1204.00,49.945
1205.00,49.955
1206.00,49.937
1207.00,49.936
1208.00,49.939
1209.00,49.927
1210.00,49.954
1211.00,49.913
1212.00,49.932
1213.00,49.936
1214.00,49.914
1215.00,49.923
1216.00,49.926
1217.00,49.928
1218.00,49.941
1219.00,49.945
1220.00,49.943
1221.00,49.958
1222.00,49.943
1223.00,49.945
1224.00,49.953
1225.00,49.924
1226.00,49.976
1227.00,49.942
1228.00,49.950
1229.00,49.947
1230.00,50.005
1231.00,50.016
1232.00,50.003
1233.00,49.991
1234.00,50.007
1235.00,50.024
1236.00,50.004
1237.00,50.013
1238.00,49.994
1239.00,49.990
1240.00,49.983
1241.00,49.993
1242.00,50.011
1243.00,50.012
1244.00,49.991
1245.00,50.000
1246.00,50.014
1247.00,49.997
1248.00,50.011
1249.00,50.026
1250.00,50.026
1251.00,50.009
1252.00,50.041
1253.00,50.031
1254.00,50.069
1255.00,50.041
1256.00,50.054
1257.00,50.005
1258.00,50.054
1259.00,50.054
1260.00,50.078
1261.00,50.066
1262.00,50.055
1263.00,50.069
1264.00,50.077
1265.00,50.100
1266.00,50.078
1267.00,50.108
1268.00,50.110
1269.00,50.094
1270.00,50.116
1271.00,50.128
1272.00,50.127
1273.00,50.132
1274.00,50.126
1275.00,50.150
1276.00,50.156
1277.00,50.127
1278.00,50.154
1279.00,50.170
1280.00,50.157
1281.00,50.188
1282.00,50.176
1283.00,50.145
1284.00,50.184
1285.00,50.168
1286.00,50.178
1287.00,50.171
1288.00,50.189
1289.00,50.194
1290.00,50.219
1291.00,50.199
1292.00,50.233
1293.00,50.226
1294.00,50.236
1295.00,50.223
1296.00,50.246
1297.00,50.246
1298.00,50.261
1299.00,50.251
1300.00,50.261
1301.00,50.268
1302.00,50.263
1303.00,50.282
1304.00,50.286
1305.00,50.291
1306.00,50.284
1307.00,50.316
1308.00,50.298
1309.00,50.316
1310.00,50.318
1311.00,50.345
1312.00,50.329
1313.00,50.317
1314.00,50.335
1315.00,50.354
1316.00,50.345
1317.00,50.352
1318.00,50.370
1319.00,50.385
1320.00,50.396
1321.00,50.564
1322.00,50.580
1323.00,50.551
1324.00,50.544
1325.00,50.561
1326.00,50.570
1327.00,50.539
1328.00,50.539
1329.00,50.562
1330.00,50.553
1331.00,50.559
1332.00,50.568
1333.00,50.548
1334.00,50.595
1335.00,50.599
1336.00,50.642
1337.00,50.671
1338.00,50.701
1339.00,50.773
1340.00,50.839
1341.00,50.917
1342.00,50.965
1343.00,51.012
1344.00,51.036
1345.00,51.108
1346.00,51.179
1347.00,51.161
1348.00,51.184
1349.00,51.214
1350.00,51.238
1351.00,51.259
1352.00,51.208
1353.00,51.315
1354.00,51.294
1355.00,51.172
1356.00,51.286
1357.00,51.270
1358.00,51.385
1359.00,51.265
1360.00,51.350
1361.00,51.443
1362.00,51.339
1363.00,51.344
1364.00,51.260
1365.00,51.339
1366.00,51.410
1367.00,51.285
1368.00,51.368
1369.00,51.702
1370.00,51.289
1371.00,51.188
1372.00,51.263
1373.00,51.272
1374.00,51.287
1375.00,51.277
1376.00,51.288
1377.00,51.235
1378.00,51.511
1379.00,51.061
1380.00,51.414
1381.00,51.225
1382.00,51.241
1383.00,51.377
1384.00,51.281
1385.00,51.323
1386.00,51.396
1387.00,50.941
1388.00,51.281
1389.00,51.233
1390.00,51.398
1391.00,50.965
1392.00,51.251
1393.00,51.473
1394.00,51.401
1395.00,51.133
1396.00,51.247
1397.00,51.360
1398.00,51.398
1399.00,51.211
1400.00,51.223
1401.00,51.347
1402.00,51.393
1403.00,51.300
1404.00,51.302
1405.00,51.300
1406.00,51.328
1407.00,51.320
1408.00,51.274
1409.00,51.305
1410.00,51.345
1411.00,51.356
1412.00,51.427
1413.00,51.403
1414.00,51.345
1415.00,51.384
1416.00,51.379
1417.00,51.468
1418.00,51.393
1419.00,51.410
1420.00,51.430
1421.00,51.461
1422.00,51.470
1423.00,51.482
1424.00,51.487
1425.00,51.523
1426.00,51.511
1427.00,51.542
1428.00,51.545
1429.00,51.558
1430.00,51.569
1431.00,51.548
1432.00,51.651
1433.00,51.617
1434.00,51.601
1435.00,51.652
1436.00,51.641
1437.00,51.646
1438.00,51.654
1439.00,51.731
1440.00,51.688
1441.00,51.740
1442.00,51.738
1443.00,51.758
1444.00,51.797
1445.00,51.763
1446.00,51.822
1447.00,51.823
1448.00,51.895
1449.00,51.840
1450.00,51.880
1451.00,51.867
1452.00,51.880
1453.00,51.927
1454.00,51.884
1455.00,51.931
1456.00,51.912
1457.00,51.947
1458.00,51.959
1459.00,51.968
1460.00,51.977
1461.00,52.008
1462.00,51.987
1463.00,52.038
1464.00,52.049
1465.00,52.063
1466.00,52.082
1467.00,52.070
1468.00,52.129
1469.00,52.132
1470.00,52.126
1471.00,52.124
1472.00,52.162
1473.00,52.145
1474.00,52.197
1475.00,52.188
1476.00,52.200
1477.00,52.208
1478.00,52.235
1479.00,52.250
1480.00,52.261
1481.00,52.238
1482.00,52.291
1483.00,52.287
1484.00,52.282
1485.00,52.306
1486.00,52.303
1487.00,52.321
1488.00,52.335
1489.00,52.336
1490.00,52.362
1491.00,52.373
1492.00,52.368
1493.00,52.412
1494.00,52.399
1495.00,52.422
1496.00,52.416
1497.00,52.431
1498.00,52.423
1499.00,52.460
1500.00,52.463
1501.00, 
1502.00, 
1503.00, 
1504.00, 
1505.00, 
1506.00, 
1507.00, 
1508.00, 
1509.00, 
1510.00, 
1511.00, 
1512.00, 
1513.00, 
1514.00, 
1515.00, 
1516.00, 
1517.00, 
1518.00, 
1519.00, 
1520.00, 
1521.00, 
1522.00, 
1523.00, 
1524.00, 
1525.00, 
1526.00, 
1527.00, 
1528.00, 
1529.00, 
1530.00, 
1531.00, 
1532.00, 
1533.00, 
1534.00, 
1535.00, 
1536.00, 
1537.00, 
1538.00, 
1539.00, 
1540.00, 
1541.00, 
1542.00, 
1543.00, 
1544.00, 
1545.00, 
1546.00, 
1547.00, 
1548.00, 
1549.00, 
1550.00, 
1551.00, 
1552.00, 
1553.00, 
1554.00, 
1555.00, 
1556.00, 
1557.00, 
1558.00, 
1559.00, 
1560.00, 
1561.00, 
1562.00, 
1563.00, 
1564.00, 
1565.00, 
1566.00, 
1567.00, 
1568.00, 
1569.00, 
1570.00, 
1571.00, 
1572.00, 
1573.00, 
1574.00, 
1575.00, 
1576.00, 
1577.00, 
1578.00, 
1579.00, 
1580.00, 
1581.00, 
1582.00, 
1583.00, 
1584.00, 
1585.00, 
1586.00, 
1587.00, 
1588.00, 
1589.00, 
1590.00, 
1591.00, 
1592.00, 
1593.00, 
1594.00, 
1595.00, 
1596.00, 
1597.00, 
1598.00, 
1599.00, 
1600.00, 
1601.00, 
1602.00, 
1603.00, 
1604.00, 
1605.00, 
1606.00, 
1607.00, 
1608.00, 
1609.00, 
1610.00, 
1611.00, 
1612.00, 
1613.00, 
1614.00, 
1615.00, 
1616.00, 
1617.00, 
1618.00, 
1619.00, 
1620.00, 
1621.00, 
1622.00, 
1623.00, 
1624.00, 
1625.00, 
1626.00, 
1627.00, 
1628.00, 
1629.00, 
1630.00, 
1631.00, 
1632.00, 
1633.00, 
1634.00, 
1635.00, 
1636.00, 
1637.00, 
1638.00, 
1639.00, 
1640.00, 
1641.00, 
1642.00, 
1643.00, 
1644.00, 
1645.00, 
1646.00, 
1647.00, 
1648.00, 
1649.00, 
1650.00, 
1651.00, 
1652.00, 
1653.00, 
1654.00, 
1655.00, 
1656.00, 
1657.00, 
1658.00, 
1659.00, 
1660.00, 
1661.00, 
1662.00, 
1663.00, 
1664.00, 
1665.00, 
1666.00, 
1667.00, 
1668.00, 
1669.00, 
1670.00, 
1671.00, 
1672.00, 
1673.00, 
1674.00, 
1675.00, 
1676.00, 
1677.00, 
1678.00, 
1679.00, 
1680.00, 
1681.00, 
1682.00, 
1683.00, 
1684.00, 
1685.00, 
1686.00, 
1687.00, 
1688.00, 
1689.00, 
1690.00, 
1691.00, 
1692.00, 
1693.00, 
1694.00, 
1695.00, 
1696.00, 
1697.00, 
1698.00, 
1699.00, 
1700.00, 
1701.00, 
1702.00, 
1703.00, 
1704.00, 
1705.00, 
1706.00, 
1707.00, 
1708.00, 
1709.00, 
1710.00, 
1711.00, 
1712.00, 
1713.00, 
1714.00, 
1715.00, 
1716.00, 
1717.00, 
1718.00, 
1719.00, 
1720.00, 
1721.00, 
1722.00, 
1723.00, 
1724.00, 
1725.00, 
1726.00, 
1727.00, 
1728.00, 
1729.00, 
1730.00, 
1731.00, 
1732.00, 
1733.00, 
1734.00, 
1735.00, 
1736.00, 
1737.00, 
1738.00, 
1739.00, 
1740.00, 
1741.00, 
1742.00, 
1743.00, 
1744.00, 
1745.00, 
1746.00, 
1747.00, 
1748.00, 
1749.00, 
1750.00, 
1751.00, 
1752.00, 
1753.00, 
1754.00, 
1755.00, 
1756.00, 
1757.00, 
1758.00, 
1759.00, 
1760.00, 
1761.00, 
1762.00, 
1763.00, 
1764.00, 
1765.00, 
1766.00, 
1767.00, 
1768.00, 
1769.00, 
1770.00, 
1771.00, 
1772.00, 
1773.00, 
1774.00, 
1775.00, 
1776.00, 
1777.00, 
1778.00, 
1779.00, 
1780.00, 
1781.00, 
1782.00, 
1783.00, 
1784.00, 
1785.00, 
1786.00, 
1787.00, 
1788.00, 
1789.00, 
1790.00, 
1791.00, 
1792.00, 
1793.00, 
1794.00, 
1795.00, 
1796.00, 
1797.00, 
1798.00, 
1799.00, 
1800.00, 
1801.00, 
1802.00, 
1803.00, 
1804.00, 
1805.00, 
1806.00, 
1807.00, 
1808.00, 
1809.00, 
1810.00, 
1811.00, 
1812.00, 
1813.00, 
1814.00, 
1815.00, 
1816.00, 
1817.00, 
1818.00, 
1819.00, 
1820.00, 
1821.00, 
1822.00, 
1823.00, 
1824.00, 
1825.00, 
1826.00, 
1827.00, 
1828.00, 
1829.00, 
1830.00, 
1831.00, 
1832.00, 
1833.00, 
1834.00, 
1835.00, 
1836.00, 
1837.00, 
1838.00, 
1839.00, 
1840.00, 
1841.00, 
1842.00, 
1843.00, 
1844.00, 
1845.00, 
1846.00, 
1847.00, 
1848.00, 
1849.00, 
1850.00, 
1851.00, 
1852.00, 
1853.00, 
1854.00, 
1855.00, 
1856.00, 
1857.00, 
1858.00, 
1859.00, 
1860.00, 
1861.00, 
1862.00, 
1863.00, 
1864.00, 
1865.00, 
1866.00, 
1867.00, 
1868.00, 
1869.00, 
1870.00, 
1871.00, 
1872.00, 
1873.00, 
1874.00, 
1875.00, 
1876.00, 
1877.00, 
1878.00, 
1879.00, 
1880.00, 
1881.00, 
1882.00, 
1883.00, 
1884.00, 
1885.00, 
1886.00, 
1887.00, 
1888.00, 
1889.00, 
1890.00, 
1891.00, 
1892.00, 
1893.00, 
1894.00, 
1895.00, 
1896.00, 
1897.00, 
1898.00, 
1899.00, 
1900.00, 
1901.00, 
1902.00, 
1903.00, 
1904.00, 
1905.00, 
1906.00, 
1907.00, 
1908.00, 
1909.00, 
1910.00, 
1911.00, 
1912.00, 
1913.00, 
1914.00, 
1915.00, 
1916.00, 
1917.00, 
1918.00, 
1919.00, 
1920.00, 
1921.00, 
1922.00, 
1923.00, 
1924.00, 
1925.00, 
1926.00, 
1927.00, 
1928.00, 
1929.00, 
1930.00, 
1931.00, 
1932.00, 
1933.00, 
1934.00, 
1935.00, 
1936.00, 
1937.00, 
1938.00, 
1939.00, 
1940.00, 
1941.00, 
1942.00, 
1943.00, 
1944.00, 
1945.00, 
1946.00, 
1947.00, 
1948.00, 
1949.00, 
1950.00, 
1951.00, 
1952.00, 
1953.00, 
1954.00, 
1955.00, 
1956.00, 
1957.00, 
1958.00, 
1959.00, 
1960.00, 
1961.00, 
1962.00, 
1963.00, 
1964.00, 
1965.00, 
1966.00, 
1967.00, 
1968.00, 
1969.00, 
1970.00, 
1971.00, 
1972.00, 
1973.00, 
1974.00, 
1975.00, 
1976.00, 
1977.00, 
1978.00, 
1979.00, 
1980.00, 
1981.00, 
1982.00, 
1983.00, 
1984.00, 
1985.00, 
1986.00, 
1987.00, 
1988.00, 
1989.00, 
1990.00, 
1991.00, 
1992.00, 
1993.00, 
1994.00, 
1995.00, 
1996.00, 
1997.00, 
1998.00, 
1999.00, 
2000.00, 
2001.00, 
2002.00, 
2003.00, 
2004.00, 
2005.00, 
2006.00, 
2007.00, 
2008.00, 
2009.00, 
2010.00, 
2011.00, 
2012.00, 
2013.00, 
2014.00, 
2015.00, 
2016.00, 
2017.00, 
2018.00, 
2019.00, 
2020.00, 
2021.00, 
2022.00, 
2023.00, 
2024.00, 
2025.00, 
2026.00, 
2027.00, 
2028.00, 
2029.00, 
2030.00, 
2031.00, 
2032.00, 
2033.00, 
2034.00, 
2035.00, 
2036.00, 
2037.00, 
2038.00, 
2039.00, 
2040.00, 
2041.00, 
2042.00, 
2043.00, 
2044.00, 
2045.00, 
2046.00, 
2047.00, 
2048.00, 
2049.00, 
2050.00, 
2051.00, 
2052.00, 
2053.00, 
2054.00, 
2055.00, 
2056.00, 
2057.00, 
2058.00, 
2059.00, 
2060.00, 
2061.00, 
2062.00, 
2063.00, 
2064.00, 
2065.00, 
2066.00, 
2067.00, 
2068.00, 
2069.00, 
2070.00, 
2071.00, 
2072.00, 
2073.00, 
2074.00, 
2075.00, 
2076.00, 
2077.00, 
2078.00, 
2079.00, 
2080.00, 
2081.00, 
2082.00, 
2083.00, 
2084.00, 
2085.00, 
2086.00, 
2087.00, 
2088.00, 
2089.00, 
2090.00, 
2091.00, 
2092.00, 
2093.00, 
2094.00, 
2095.00, 
2096.00, 
2097.00, 
2098.00, 
2099.00, 
2100.00, 
2101.00, 
2102.00, 
2103.00, 
2104.00, 
2105.00, 
2106.00, 
2107.00, 
2108.00, 
2109.00, 
2110.00, 
2111.00, 
2112.00, 
2113.00, 
2114.00, 
2115.00, 
2116.00, 
2117.00, 
2118.00, 
2119.00, 
2120.00, 
2121.00, 
2122.00, 
2123.00, 
2124.00, 
2125.00, 
2126.00, 
2127.00, 
2128.00, 
2129.00, 
2130.00, 
2131.00, 
2132.00, 
2133.00, 
2134.00, 
2135.00, 
2136.00, 
2137.00, 
2138.00, 
2139.00, 
2140.00, 
2141.00, 
2142.00, 
2143.00, 
2144.00, 
2145.00, 
2146.00, 
2147.00, 
2148.00, 
2149.00, 
2150.00, 
2151.00, 
2152.00, 
2153.00, 
2154.00, 
2155.00, 
2156.00, 
2157.00, 
2158.00, 
2159.00, 
2160.00, 
2161.00, 
2162.00, 
2163.00, 
2164.00, 
2165.00, 
2166.00, 
2167.00, 
2168.00, 
2169.00, 
2170.00, 
2171.00, 
2172.00, 
2173.00, 
2174.00, 
2175.00, 
2176.00, 
2177.00, 
2178.00, 
2179.00, 
2180.00, 
2181.00, 
2182.00, 
2183.00, 
2184.00, 
2185.00, 
2186.00, 
2187.00, 
2188.00, 
2189.00, 
2190.00, 
2191.00, 
2192.00, 
2193.00, 
2194.00, 
2195.00, 
2196.00, 
2197.00, 
2198.00, 
2199.00, 
2200.00, 
2201.00, 
2202.00, 
2203.00, 
2204.00, 
2205.00, 
2206.00, 
2207.00, 
2208.00, 
2209.00, 
2210.00, 
2211.00, 
2212.00, 
2213.00, 
2214.00, 
2215.00, 
2216.00, 
2217.00, 
2218.00, 
2219.00, 
2220.00, 
2221.00, 
2222.00, 
2223.00, 
2224.00, 
2225.00, 
2226.00, 
2227.00, 
2228.00, 
2229.00, 
2230.00, 
2231.00, 
2232.00, 
2233.00, 
2234.00, 
2235.00, 
2236.00, 
2237.00, 
2238.00, 
2239.00, 
2240.00, 
2241.00, 
2242.00, 
2243.00, 
2244.00, 
2245.00, 
2246.00, 
2247.00, 
2248.00, 
2249.00, 
2250.00, 
2251.00, 
2252.00, 
2253.00, 
2254.00, 
2255.00, 
2256.00, 
2257.00, 
2258.00, 
2259.00, 
2260.00, 
2261.00, 
2262.00, 
2263.00, 
2264.00, 
2265.00, 
2266.00, 
2267.00, 
2268.00, 
2269.00, 
2270.00, 
2271.00, 
2272.00, 
2273.00, 
2274.00, 
2275.00, 
2276.00, 
2277.00, 
2278.00, 
2279.00, 
2280.00, 
2281.00, 
2282.00, 
2283.00, 
2284.00, 
2285.00, 
2286.00, 
2287.00, 
2288.00, 
2289.00, 
2290.00, 
2291.00, 
2292.00, 
2293.00, 
2294.00, 
2295.00, 
2296.00, 
2297.00, 
2298.00, 
2299.00, 
2300.00, 
2301.00, 
2302.00, 
2303.00, 
2304.00, 
2305.00, 
2306.00, 
2307.00, 
2308.00, 
2309.00, 
2310.00, 
2311.00, 
2312.00, 
2313.00, 
2314.00, 
2315.00, 
2316.00, 
2317.00, 
2318.00, 
2319.00, 
2320.00, 
2321.00, 
2322.00, 
2323.00, 
2324.00, 
2325.00, 
2326.00, 
2327.00, 
2328.00, 
2329.00, 
2330.00, 
2331.00, 
2332.00, 
2333.00, 
2334.00, 
2335.00, 
2336.00, 
2337.00, 
2338.00, 
2339.00, 
2340.00, 
2341.00, 
2342.00, 
2343.00, 
2344.00, 
2345.00, 
2346.00, 
2347.00, 
2348.00, 
2349.00, 
2350.00, 
2351.00, 
2352.00, 
2353.00, 
2354.00, 
2355.00, 
2356.00, 
2357.00, 
2358.00, 
2359.00, 
2360.00, 
2361.00, 
2362.00, 
2363.00, 
2364.00, 
2365.00, 
2366.00, 
2367.00, 
2368.00, 
2369.00, 
2370.00, 
2371.00, 
2372.00, 
2373.00, 
2374.00, 
2375.00, 
2376.00, 
2377.00, 
2378.00, 
2379.00, 
2380.00, 
2381.00, 
2382.00, 
2383.00, 
2384.00, 
2385.00, 
2386.00, 
2387.00, 
2388.00, 
2389.00, 
2390.00, 
2391.00, 
2392.00, 
2393.00, 
2394.00, 
2395.00, 
2396.00, 
2397.00, 
2398.00, 
2399.00, 
2400.00, 
2401.00, 
2402.00, 
2403.00, 
2404.00, 
2405.00, 
2406.00, 
2407.00, 
2408.00, 
2409.00, 
2410.00, 
2411.00, 
2412.00, 
2413.00, 
2414.00, 
2415.00, 
2416.00, 
2417.00, 
2418.00, 
2419.00, 
2420.00, 
2421.00, 
2422.00, 
2423.00, 
2424.00, 
2425.00, 
2426.00, 
2427.00, 
2428.00, 
2429.00, 
2430.00, 
2431.00, 
2432.00, 
2433.00, 
2434.00, 
2435.00, 
2436.00, 
2437.00, 
2438.00, 
2439.00, 
2440.00, 
2441.00, 
2442.00, 
2443.00, 
2444.00, 
2445.00, 
2446.00, 
2447.00, 
2448.00, 
2449.00, 
2450.00, 
2451.00, 
2452.00, 
2453.00, 
2454.00, 
2455.00, 
2456.00, 
2457.00, 
2458.00, 
2459.00, 
2460.00, 
2461.00, 
2462.00, 
2463.00, 
2464.00, 
2465.00, 
2466.00, 
2467.00, 
2468.00, 
2469.00, 
2470.00, 
2471.00, 
2472.00, 
2473.00, 
2474.00, 
2475.00, 
2476.00, 
2477.00, 
2478.00, 
2479.00, 
2480.00, 
2481.00, 
2482.00, 
2483.00, 
2484.00, 
2485.00, 
2486.00, 
2487.00, 
2488.00, 
2489.00, 
2490.00, 
2491.00, 
2492.00, 
2493.00, 
2494.00, 
2495.00, 
2496.00, 
2497.00, 
2498.00, 
2499.00, 
2500.00, 
2501.00, 
2502.00, 
2503.00, 
2504.00, 
2505.00, 
2506.00, 
2507.00, 
2508.00, 
2509.00, 
2510.00, 
2511.00, 
2512.00, 
2513.00, 
2514.00, 
2515.00, 
2516.00, 
2517.00, 
2518.00, 
2519.00, 
2520.00, 
2521.00, 
2522.00, 
2523.00, 
2524.00, 
2525.00, 
2526.00, 
2527.00, 
2528.00, 
2529.00, 
2530.00, 
2531.00, 
2532.00, 
2533.00, 
2534.00, 
2535.00, 
2536.00, 
2537.00, 
2538.00, 
2539.00, 
2540.00, 
2541.00, 
2542.00, 
2543.00, 
2544.00, 
2545.00, 
2546.00, 
2547.00, 
2548.00, 
2549.00, 
2550.00, 
2551.00, 
2552.00, 
2553.00, 
2554.00, 
2555.00, 
2556.00, 
2557.00, 
2558.00, 
2559.00, 
2560.00, 
2561.00, 
2562.00, 
2563.00, 
2564.00, 
2565.00, 
2566.00, 
2567.00, 
2568.00, 
2569.00, 
2570.00, 
2571.00, 
2572.00, 
2573.00, 
2574.00, 
2575.00, 
2576.00, 
2577.00, 
2578.00, 
2579.00, 
2580.00, 
2581.00, 
2582.00, 
2583.00, 
2584.00, 
2585.00, 
2586.00, 
2587.00, 
2588.00, 
2589.00, 
2590.00, 
2591.00, 
2592.00, 
2593.00, 
2594.00, 
2595.00, 
2596.00, 
2597.00, 
2598.00, 
2599.00, 
2600.00, 
