"2cP3_3 - RawData"
"Wavelength nm.","T%"
200.00,0.002
201.00,0.001
202.00,-0.001
203.00,0.007
204.00,0.004
205.00,0.004
206.00,-0.001
207.00,0.001
208.00,0.002
209.00,-0.002
210.00,-0.001
211.00,0.003
212.00,0.004
213.00,0.003
214.00,0.002
215.00,0.003
216.00,0.005
217.00,0.004
218.00,0.002
219.00,0.000
220.00,0.001
221.00,0.000
222.00,0.000
223.00,0.000
224.00,-0.001
225.00,0.000
226.00,0.002
227.00,0.002
228.00,-0.001
229.00,0.001
230.00,-0.000
231.00,0.001
232.00,0.001
233.00,0.002
234.00,0.002
235.00,0.000
236.00,0.002
237.00,0.003
238.00,-0.001
239.00,0.001
240.00,0.002
241.00,0.001
242.00,-0.000
243.00,0.001
244.00,0.000
245.00,0.001
246.00,0.003
247.00,0.003
248.00,0.001
249.00,-0.000
250.00,0.000
251.00,0.002
252.00,0.003
253.00,-0.000
254.00,0.001
255.00,-0.001
256.00,0.001
257.00,0.002
258.00,-0.001
259.00,0.000
260.00,0.001
261.00,0.002
262.00,-0.000
263.00,0.001
264.00,0.001
265.00,-0.000
266.00,0.002
267.00,0.001
268.00,-0.001
269.00,0.000
270.00,0.001
271.00,0.001
272.00,0.000
273.00,0.001
274.00,0.002
275.00,0.001
276.00,-0.001
277.00,-0.001
278.00,0.000
279.00,0.002
280.00,0.001
281.00,0.000
282.00,0.000
283.00,0.000
284.00,0.001
285.00,-0.002
286.00,-0.002
287.00,0.003
288.00,0.002
289.00,-0.000
290.00,-0.001
291.00,-0.000
292.00,-0.000
293.00,0.001
294.00,0.001
295.00,0.001
296.00,-0.003
297.00,-0.000
298.00,0.002
299.00,0.002
300.00,0.001
301.00,0.005
302.00,0.005
303.00,0.011
304.00,0.015
305.00,0.027
306.00,0.040
307.00,0.063
308.00,0.096
309.00,0.156
310.00,0.230
311.00,0.317
312.00,0.404
313.00,0.571
314.00,0.743
315.00,0.955
316.00,1.233
317.00,1.576
318.00,1.967
319.00,2.425
320.00,2.905
321.00,3.506
322.00,4.203
323.00,4.944
324.00,5.729
325.00,6.519
326.00,7.379
327.00,8.320
328.00,9.382
329.00,10.373
330.00,11.360
331.00,12.516
332.00,13.634
333.00,14.731
334.00,15.825
335.00,16.950
336.00,18.012
337.00,19.249
338.00,20.350
339.00,21.444
340.00,22.479
341.00,23.440
342.00,24.553
343.00,25.455
344.00,26.351
345.00,27.243
346.00,27.958
347.00,29.010
348.00,29.632
349.00,30.398
350.00,31.144
351.00,31.797
352.00,32.361
353.00,33.055
354.00,33.653
355.00,34.162
356.00,34.708
357.00,35.143
358.00,35.715
359.00,36.084
360.00,36.521
361.00,36.838
362.00,37.135
363.00,37.436
364.00,37.799
365.00,38.067
366.00,38.281
367.00,38.439
368.00,38.548
369.00,38.821
370.00,38.952
371.00,39.075
372.00,39.268
373.00,39.290
374.00,39.383
375.00,39.473
376.00,39.486
377.00,39.534
378.00,39.428
379.00,39.454
380.00,39.547
381.00,39.584
382.00,39.698
383.00,39.789
384.00,39.931
385.00,40.054
386.00,40.028
387.00,40.268
388.00,40.464
389.00,40.548
390.00,40.734
391.00,40.825
392.00,40.849
393.00,40.939
394.00,41.033
395.00,41.145
396.00,41.217
397.00,41.313
398.00,41.238
399.00,41.347
400.00,41.358
401.00,41.426
402.00,41.576
403.00,41.421
404.00,41.675
405.00,41.596
406.00,41.665
407.00,41.678
408.00,41.605
409.00,41.610
410.00,41.637
411.00,41.647
412.00,41.507
413.00,41.567
414.00,41.655
415.00,41.618
416.00,41.661
417.00,41.681
418.00,41.727
419.00,41.715
420.00,41.875
421.00,41.734
422.00,41.626
423.00,41.774
424.00,41.776
425.00,41.910
426.00,41.859
427.00,41.880
428.00,41.981
429.00,41.920
430.00,41.911
431.00,41.991
432.00,42.050
433.00,42.032
434.00,42.121
435.00,42.100
436.00,42.074
437.00,42.153
438.00,42.332
439.00,42.333
440.00,42.376
441.00,42.432
442.00,42.554
443.00,42.602
444.00,42.678
445.00,42.700
446.00,42.801
447.00,42.834
448.00,42.842
449.00,42.807
450.00,42.948
451.00,43.018
452.00,43.021
453.00,43.134
454.00,43.207
455.00,43.294
456.00,43.420
457.00,43.439
458.00,43.541
459.00,43.619
460.00,43.683
461.00,43.814
462.00,43.845
463.00,43.935
464.00,43.948
465.00,43.995
466.00,44.112
467.00,44.226
468.00,44.175
469.00,44.234
470.00,44.314
471.00,44.391
472.00,44.417
473.00,44.366
474.00,44.464
475.00,44.538
476.00,44.600
477.00,44.656
478.00,44.769
479.00,44.854
480.00,44.928
481.00,44.975
482.00,45.090
483.00,45.040
484.00,45.285
485.00,45.421
486.00,45.437
487.00,45.501
488.00,45.639
489.00,45.737
490.00,45.769
491.00,45.789
492.00,45.825
493.00,45.917
494.00,45.973
495.00,46.169
496.00,46.151
497.00,46.208
498.00,46.346
499.00,46.365
500.00,46.485
501.00,46.487
502.00,46.588
503.00,46.659
504.00,46.764
505.00,46.755
506.00,46.805
507.00,46.814
508.00,46.945
509.00,47.026
510.00,47.052
511.00,47.209
512.00,47.214
513.00,47.376
514.00,47.401
515.00,47.476
516.00,47.500
517.00,47.585
518.00,47.591
519.00,47.644
520.00,47.689
521.00,47.697
522.00,47.764
523.00,47.877
524.00,47.909
525.00,47.988
526.00,48.028
527.00,48.109
528.00,48.130
529.00,48.164
530.00,48.285
531.00,48.325
532.00,48.388
533.00,48.297
534.00,48.421
535.00,48.528
536.00,48.492
537.00,48.556
538.00,48.642
539.00,48.701
540.00,48.782
541.00,48.760
542.00,48.836
543.00,48.774
544.00,48.864
545.00,48.911
546.00,48.912
547.00,48.903
548.00,49.048
549.00,49.046
550.00,49.137
551.00,49.138
552.00,49.125
553.00,49.230
554.00,49.303
555.00,49.320
556.00,49.392
557.00,49.365
558.00,49.363
559.00,49.535
560.00,49.495
561.00,49.573
562.00,49.493
563.00,49.593
564.00,49.597
565.00,49.672
566.00,49.647
567.00,49.612
568.00,49.710
569.00,49.653
570.00,49.709
571.00,49.974
572.00,49.737
573.00,49.801
574.00,49.840
575.00,49.849
576.00,49.949
577.00,49.815
578.00,49.886
579.00,49.959
580.00,50.154
581.00,50.062
582.00,50.139
583.00,50.249
584.00,50.192
585.00,50.499
586.00,50.646
587.00,50.457
588.00,50.426
589.00,50.513
590.00,50.491
591.00,50.536
592.00,50.640
593.00,50.571
594.00,50.580
595.00,50.750
596.00,50.669
597.00,50.652
598.00,50.821
599.00,50.720
600.00,50.817
601.00,50.705
602.00,50.756
603.00,50.747
604.00,50.727
605.00,50.775
606.00,50.843
607.00,50.840
608.00,50.861
609.00,50.867
610.00,50.936
611.00,50.959
612.00,51.044
613.00,50.965
614.00,51.020
615.00,51.044
616.00,51.025
617.00,51.169
618.00,51.088
619.00,51.149
620.00,51.120
621.00,51.094
622.00,51.146
623.00,51.164
624.00,51.103
625.00,51.234
626.00,51.279
627.00,51.169
628.00,51.397
629.00,51.331
630.00,51.336
631.00,51.356
632.00,51.451
633.00,51.411
634.00,51.554
635.00,51.275
636.00,51.415
637.00,51.444
638.00,51.398
639.00,51.503
640.00,51.575
641.00,51.551
642.00,51.598
643.00,51.577
644.00,51.587
645.00,51.671
646.00,51.672
647.00,51.739
648.00,51.694
649.00,51.843
650.00,51.690
651.00,51.777
652.00,51.915
653.00,51.676
654.00,51.780
655.00,51.731
656.00,51.804
657.00,51.873
658.00,51.661
659.00,51.800
660.00,51.667
661.00,51.780
662.00,51.910
663.00,51.845
664.00,52.046
665.00,51.912
666.00,51.968
667.00,51.943
668.00,52.245
669.00,52.220
670.00,51.898
671.00,51.989
672.00,52.174
673.00,52.022
674.00,52.049
675.00,52.067
676.00,52.289
677.00,52.081
678.00,52.209
679.00,52.258
680.00,52.104
681.00,52.101
682.00,52.084
683.00,52.212
684.00,52.378
685.00,52.203
686.00,52.127
687.00,52.247
688.00,52.165
689.00,52.416
690.00,52.176
691.00,51.993
692.00,52.130
693.00,52.098
694.00,52.138
695.00,52.289
696.00,52.219
697.00,52.061
698.00,52.366
699.00,52.250
700.00,52.211
701.00,52.310
702.00,52.279
703.00,52.444
704.00,52.284
705.00,52.351
706.00,52.360
707.00,52.247
708.00,52.142
709.00,52.225
710.00,52.118
711.00,52.242
712.00,52.236
713.00,52.319
714.00,52.326
715.00,52.293
716.00,52.394
717.00,52.266
718.00,52.205
719.00,52.449
720.00,52.267
721.00,57.068
722.00,56.919
723.00,56.955
724.00,56.858
725.00,56.887
726.00,56.834
727.00,56.733
728.00,56.704
729.00,56.684
730.00,56.709
731.00,56.633
732.00,56.506
733.00,56.565
734.00,56.420
735.00,56.463
736.00,56.447
737.00,56.480
738.00,56.415
739.00,56.373
740.00,56.438
741.00,56.519
742.00,56.289
743.00,56.230
744.00,56.285
745.00,56.336
746.00,56.144
747.00,56.149
748.00,55.997
749.00,55.986
750.00,55.937
751.00,55.861
752.00,55.863
753.00,55.571
754.00,55.657
755.00,55.775
756.00,55.657
757.00,55.670
758.00,55.549
759.00,55.605
760.00,55.452
761.00,55.556
762.00,55.567
763.00,55.456
764.00,55.523
765.00,55.500
766.00,55.476
767.00,55.353
768.00,55.213
769.00,55.396
770.00,55.261
771.00,55.226
772.00,55.331
773.00,55.316
774.00,55.189
775.00,55.279
776.00,55.153
777.00,55.263
778.00,55.097
779.00,55.137
780.00,55.084
781.00,54.982
782.00,55.003
783.00,54.922
784.00,54.938
785.00,54.866
786.00,54.926
787.00,54.875
788.00,54.804
789.00,54.726
790.00,54.595
791.00,54.613
792.00,54.567
793.00,54.548
794.00,54.559
795.00,54.578
796.00,54.534
797.00,54.373
798.00,54.335
799.00,54.579
800.00,54.212
801.00,54.346
802.00,54.325
803.00,54.261
804.00,54.293
805.00,54.376
806.00,54.187
807.00,54.183
808.00,54.256
809.00,54.134
810.00,54.096
811.00,53.921
812.00,54.123
813.00,54.098
814.00,53.945
815.00,53.893
816.00,53.895
817.00,53.963
818.00,53.766
819.00,53.780
820.00,53.802
821.00,53.794
822.00,53.774
823.00,53.727
824.00,53.639
825.00,53.705
826.00,53.718
827.00,53.622
828.00,53.407
829.00,53.538
830.00,53.618
831.00,56.029
832.00,55.983
833.00,56.026
834.00,56.014
835.00,55.907
836.00,55.915
837.00,55.863
838.00,55.901
839.00,55.845
840.00,55.784
841.00,55.807
842.00,55.674
843.00,55.727
844.00,55.772
845.00,55.694
846.00,55.569
847.00,55.483
848.00,55.569
849.00,55.503
850.00,55.455
851.00,55.479
852.00,55.465
853.00,55.435
854.00,55.301
855.00,55.270
856.00,55.161
857.00,55.215
858.00,55.210
859.00,55.178
860.00,55.128
861.00,55.092
862.00,55.244
863.00,55.106
864.00,55.080
865.00,55.076
866.00,55.045
867.00,55.100
868.00,55.018
869.00,54.981
870.00,55.038
871.00,54.920
872.00,54.936
873.00,54.851
874.00,54.939
875.00,54.831
876.00,54.783
877.00,54.995
878.00,54.756
879.00,54.811
880.00,54.772
881.00,54.704
882.00,54.751
883.00,54.723
884.00,54.696
885.00,54.666
886.00,54.638
887.00,54.616
888.00,54.564
889.00,54.510
890.00,54.532
891.00,54.459
892.00,54.549
893.00,54.467
894.00,54.439
895.00,54.411
896.00,54.373
897.00,54.347
898.00,54.328
899.00,54.300
900.00,54.294
901.00,54.281
902.00,54.271
903.00,54.276
904.00,54.192
905.00,54.181
906.00,54.209
907.00,54.152
908.00,54.139
909.00,54.134
910.00,54.076
911.00,54.040
912.00,54.044
913.00,54.046
914.00,54.016
915.00,53.956
916.00,53.895
917.00,54.032
918.00,53.908
919.00,53.887
920.00,53.839
921.00,53.860
922.00,53.817
923.00,53.779
924.00,53.776
925.00,53.740
926.00,53.740
927.00,53.720
928.00,53.708
929.00,53.690
930.00,53.645
931.00,53.641
932.00,53.713
933.00,53.572
934.00,53.581
935.00,53.544
936.00,53.508
937.00,53.481
938.00,53.475
939.00,53.464
940.00,53.422
941.00,53.419
942.00,53.402
943.00,53.400
944.00,53.351
945.00,53.333
946.00,53.348
947.00,53.304
948.00,53.296
949.00,53.251
950.00,53.253
951.00,53.201
952.00,53.143
953.00,53.126
954.00,53.144
955.00,53.088
956.00,53.068
957.00,53.048
958.00,53.061
959.00,53.006
960.00,53.017
961.00,52.975
962.00,52.967
963.00,52.962
964.00,52.930
965.00,52.905
966.00,52.880
967.00,52.903
968.00,52.857
969.00,52.886
970.00,52.872
971.00,52.892
972.00,52.885
973.00,52.849
974.00,52.873
975.00,52.864
976.00,52.865
977.00,52.809
978.00,52.859
979.00,52.828
980.00,52.826
981.00,52.816
982.00,52.826
983.00,52.837
984.00,52.804
985.00,52.814
986.00,52.759
987.00,52.771
988.00,52.757
989.00,52.732
990.00,52.761
991.00,52.723
992.00,52.742
993.00,52.702
994.00,52.689
995.00,52.670
996.00,52.633
997.00,52.670
998.00,52.617
999.00,52.626
1000.00,52.577
1001.00,52.609
1002.00,52.608
1003.00,52.582
1004.00,52.609
1005.00,52.520
1006.00,52.549
1007.00,52.501
1008.00,52.510
1009.00,52.544
1010.00,52.480
1011.00,52.519
1012.00,52.472
1013.00,52.472
1014.00,52.424
1015.00,52.441
1016.00,52.426
1017.00,52.393
1018.00,52.363
1019.00,52.348
1020.00,52.343
1021.00,52.292
1022.00,52.304
1023.00,52.271
1024.00,52.267
1025.00,52.241
1026.00,52.238
1027.00,52.212
1028.00,52.197
1029.00,52.210
1030.00,52.170
1031.00,52.171
1032.00,52.149
1033.00,52.119
1034.00,52.111
1035.00,52.069
1036.00,52.056
1037.00,52.039
1038.00,52.024
1039.00,51.961
1040.00,51.967
1041.00,51.936
1042.00,51.934
1043.00,51.909
1044.00,51.955
1045.00,51.920
1046.00,51.931
1047.00,51.952
1048.00,51.948
1049.00,51.963
1050.00,51.952
1051.00,51.976
1052.00,51.971
1053.00,52.007
1054.00,52.018
1055.00,52.029
1056.00,52.027
1057.00,52.024
1058.00,52.006
1059.00,52.008
1060.00,52.019
1061.00,52.021
1062.00,51.982
1063.00,51.994
1064.00,51.968
1065.00,51.943
1066.00,51.957
1067.00,51.935
1068.00,51.959
1069.00,51.935
1070.00,51.947
1071.00,51.917
1072.00,51.917
1073.00,51.895
1074.00,51.885
1075.00,51.882
1076.00,51.867
1077.00,51.849
1078.00,51.851
1079.00,51.832
1080.00,51.844
1081.00,51.817
1082.00,51.822
1083.00,51.812
1084.00,51.803
1085.00,51.785
1086.00,51.796
1087.00,51.796
1088.00,51.793
1089.00,51.769
1090.00,51.763
1091.00,51.760
1092.00,51.734
1093.00,51.715
1094.00,51.688
1095.00,51.668
1096.00,51.657
1097.00,51.640
1098.00,51.640
1099.00,51.659
1100.00,51.676
1101.00,51.645
1102.00,51.640
1103.00,51.638
1104.00,51.617
1105.00,51.601
1106.00,51.581
1107.00,51.578
1108.00,51.576
1109.00,51.544
1110.00,51.566
1111.00,51.555
1112.00,51.553
1113.00,51.531
1114.00,51.541
1115.00,51.547
1116.00,51.529
1117.00,51.502
1118.00,51.497
1119.00,51.481
1120.00,51.480
1121.00,51.462
1122.00,51.502
1123.00,51.486
1124.00,51.447
1125.00,51.452
1126.00,51.428
1127.00,51.441
1128.00,51.420
1129.00,51.399
1130.00,51.424
1131.00,51.387
1132.00,51.373
1133.00,51.389
1134.00,51.390
1135.00,51.372
1136.00,51.372
1137.00,51.350
1138.00,51.354
1139.00,51.356
1140.00,51.346
1141.00,51.328
1142.00,51.312
1143.00,51.331
1144.00,51.309
1145.00,51.302
1146.00,51.298
1147.00,51.312
1148.00,51.298
1149.00,51.297
1150.00,51.308
1151.00,51.289
1152.00,51.265
1153.00,51.278
1154.00,51.261
1155.00,51.288
1156.00,51.266
1157.00,51.267
1158.00,51.251
1159.00,51.259
1160.00,51.246
1161.00,51.247
1162.00,51.263
1163.00,51.270
1164.00,51.244
1165.00,51.254
1166.00,51.246
1167.00,51.242
1168.00,51.256
1169.00,51.249
1170.00,51.263
1171.00,51.238
1172.00,51.242
1173.00,51.249
1174.00,51.243
1175.00,51.234
1176.00,51.257
1177.00,51.239
1178.00,51.224
1179.00,51.233
1180.00,51.226
1181.00,51.228
1182.00,51.208
1183.00,51.222
1184.00,51.193
1185.00,51.215
1186.00,51.195
1187.00,51.221
1188.00,51.206
1189.00,51.214
1190.00,51.223
1191.00,51.203
1192.00,51.215
1193.00,51.193
1194.00,51.205
1195.00,51.178
1196.00,51.186
1197.00,51.189
1198.00,51.199
1199.00,51.200
1200.00,51.186
1201.00,51.182
1202.00,51.173
1203.00,51.194
1204.00,51.180
1205.00,51.185
1206.00,51.179
1207.00,51.182
1208.00,51.167
1209.00,51.181
1210.00,51.190
1211.00,51.143
1212.00,51.160
1213.00,51.152
1214.00,51.146
1215.00,51.147
1216.00,51.146
1217.00,51.168
1218.00,51.158
1219.00,51.169
1220.00,51.171
1221.00,51.169
1222.00,51.158
1223.00,51.166
1224.00,51.162
1225.00,51.148
1226.00,51.162
1227.00,51.154
1228.00,51.151
1229.00,51.140
1230.00,51.190
1231.00,51.206
1232.00,51.211
1233.00,51.196
1234.00,51.219
1235.00,51.205
1236.00,51.202
1237.00,51.207
1238.00,51.166
1239.00,51.187
1240.00,51.188
1241.00,51.189
1242.00,51.207
1243.00,51.222
1244.00,51.212
1245.00,51.218
1246.00,51.237
1247.00,51.238
1248.00,51.237
1249.00,51.246
1250.00,51.264
1251.00,51.252
1252.00,51.258
1253.00,51.254
1254.00,51.277
1255.00,51.255
1256.00,51.240
1257.00,51.257
1258.00,51.259
1259.00,51.237
1260.00,51.268
1261.00,51.257
1262.00,51.269
1263.00,51.259
1264.00,51.292
1265.00,51.268
1266.00,51.282
1267.00,51.272
1268.00,51.302
1269.00,51.292
1270.00,51.303
1271.00,51.290
1272.00,51.302
1273.00,51.310
1274.00,51.321
1275.00,51.332
1276.00,51.328
1277.00,51.343
1278.00,51.361
1279.00,51.327
1280.00,51.354
1281.00,51.339
1282.00,51.354
1283.00,51.332
1284.00,51.324
1285.00,51.329
1286.00,51.348
1287.00,51.331
1288.00,51.359
1289.00,51.339
1290.00,51.369
1291.00,51.382
1292.00,51.378
1293.00,51.384
1294.00,51.400
1295.00,51.421
1296.00,51.421
1297.00,51.442
1298.00,51.452
1299.00,51.425
1300.00,51.430
1301.00,51.442
1302.00,51.464
1303.00,51.467
1304.00,51.462
1305.00,51.450
1306.00,51.493
1307.00,51.494
1308.00,51.480
1309.00,51.464
1310.00,51.481
1311.00,51.505
1312.00,51.502
1313.00,51.512
1314.00,51.522
1315.00,51.530
1316.00,51.556
1317.00,51.572
1318.00,51.569
1319.00,51.593
1320.00,51.604
1321.00,51.683
1322.00,51.723
1323.00,51.682
1324.00,51.726
1325.00,51.690
1326.00,51.761
1327.00,51.726
1328.00,51.678
1329.00,51.698
1330.00,51.699
1331.00,51.695
1332.00,51.698
1333.00,51.684
1334.00,51.745
1335.00,51.759
1336.00,51.755
1337.00,51.816
1338.00,51.896
1339.00,51.923
1340.00,51.963
1341.00,52.022
1342.00,52.102
1343.00,52.152
1344.00,52.200
1345.00,52.246
1346.00,52.319
1347.00,52.310
1348.00,52.360
1349.00,52.306
1350.00,52.353
1351.00,52.347
1352.00,52.408
1353.00,52.381
1354.00,52.460
1355.00,52.410
1356.00,52.407
1357.00,52.407
1358.00,52.517
1359.00,52.379
1360.00,52.501
1361.00,52.436
1362.00,52.257
1363.00,52.491
1364.00,52.528
1365.00,52.760
1366.00,52.463
1367.00,52.397
1368.00,52.446
1369.00,52.478
1370.00,52.387
1371.00,52.434
1372.00,52.413
1373.00,52.433
1374.00,52.447
1375.00,52.439
1376.00,52.376
1377.00,52.580
1378.00,52.269
1379.00,52.525
1380.00,52.401
1381.00,52.385
1382.00,52.450
1383.00,52.480
1384.00,52.417
1385.00,52.477
1386.00,52.526
1387.00,52.096
1388.00,52.424
1389.00,52.406
1390.00,52.455
1391.00,52.186
1392.00,52.438
1393.00,52.711
1394.00,52.509
1395.00,52.220
1396.00,52.397
1397.00,52.373
1398.00,52.522
1399.00,52.330
1400.00,52.344
1401.00,52.452
1402.00,52.209
1403.00,52.300
1404.00,52.464
1405.00,52.557
1406.00,52.388
1407.00,52.438
1408.00,52.504
1409.00,52.499
1410.00,52.525
1411.00,52.503
1412.00,52.597
1413.00,52.556
1414.00,52.514
1415.00,52.530
1416.00,52.524
1417.00,52.608
1418.00,52.556
1419.00,52.560
1420.00,52.563
1421.00,52.604
1422.00,52.582
1423.00,52.652
1424.00,52.621
1425.00,52.662
1426.00,52.635
1427.00,52.642
1428.00,52.672
1429.00,52.683
1430.00,52.711
1431.00,52.724
1432.00,52.731
1433.00,52.760
1434.00,52.753
1435.00,52.744
1436.00,52.871
1437.00,52.778
1438.00,52.833
1439.00,52.824
1440.00,52.892
1441.00,52.842
1442.00,52.857
1443.00,52.894
1444.00,52.947
1445.00,52.924
1446.00,52.930
1447.00,52.976
1448.00,52.995
1449.00,53.011
1450.00,53.003
1451.00,53.048
1452.00,53.068
1453.00,53.096
1454.00,53.079
1455.00,53.098
1456.00,53.128
1457.00,53.115
1458.00,53.137
1459.00,53.155
1460.00,53.158
1461.00,53.150
1462.00,53.180
1463.00,53.200
1464.00,53.216
1465.00,53.212
1466.00,53.223
1467.00,53.248
1468.00,53.261
1469.00,53.278
1470.00,53.303
1471.00,53.304
1472.00,53.328
1473.00,53.352
1474.00,53.372
1475.00,53.378
1476.00,53.379
1477.00,53.381
1478.00,53.399
1479.00,53.396
1480.00,53.427
1481.00,53.421
1482.00,53.434
1483.00,53.453
1484.00,53.468
1485.00,53.474
1486.00,53.507
1487.00,53.536
1488.00,53.528
1489.00,53.532
1490.00,53.561
1491.00,53.546
1492.00,53.585
1493.00,53.577
1494.00,53.607
1495.00,53.613
1496.00,53.626
1497.00,53.652
1498.00,53.642
1499.00,53.664
1500.00,53.713
1501.00, 
1502.00, 
1503.00, 
1504.00, 
1505.00, 
1506.00, 
1507.00, 
1508.00, 
1509.00, 
1510.00, 
1511.00, 
1512.00, 
1513.00, 
1514.00, 
1515.00, 
1516.00, 
1517.00, 
1518.00, 
1519.00, 
1520.00, 
1521.00, 
1522.00, 
1523.00, 
1524.00, 
1525.00, 
1526.00, 
1527.00, 
1528.00, 
1529.00, 
1530.00, 
1531.00, 
1532.00, 
1533.00, 
1534.00, 
1535.00, 
1536.00, 
1537.00, 
1538.00, 
1539.00, 
1540.00, 
1541.00, 
1542.00, 
1543.00, 
1544.00, 
1545.00, 
1546.00, 
1547.00, 
1548.00, 
1549.00, 
1550.00, 
1551.00, 
1552.00, 
1553.00, 
1554.00, 
1555.00, 
1556.00, 
1557.00, 
1558.00, 
1559.00, 
1560.00, 
1561.00, 
1562.00, 
1563.00, 
1564.00, 
1565.00, 
1566.00, 
1567.00, 
1568.00, 
1569.00, 
1570.00, 
1571.00, 
1572.00, 
1573.00, 
1574.00, 
1575.00, 
1576.00, 
1577.00, 
1578.00, 
1579.00, 
1580.00, 
1581.00, 
1582.00, 
1583.00, 
1584.00, 
1585.00, 
1586.00, 
1587.00, 
1588.00, 
1589.00, 
1590.00, 
1591.00, 
1592.00, 
1593.00, 
1594.00, 
1595.00, 
1596.00, 
1597.00, 
1598.00, 
1599.00, 
1600.00, 
1601.00, 
1602.00, 
1603.00, 
1604.00, 
1605.00, 
1606.00, 
1607.00, 
1608.00, 
1609.00, 
1610.00, 
1611.00, 
1612.00, 
1613.00, 
1614.00, 
1615.00, 
1616.00, 
1617.00, 
1618.00, 
1619.00, 
1620.00, 
1621.00, 
1622.00, 
1623.00, 
1624.00, 
1625.00, 
1626.00, 
1627.00, 
1628.00, 
1629.00, 
1630.00, 
1631.00, 
1632.00, 
1633.00, 
1634.00, 
1635.00, 
1636.00, 
1637.00, 
1638.00, 
1639.00, 
1640.00, 
1641.00, 
1642.00, 
1643.00, 
1644.00, 
1645.00, 
1646.00, 
1647.00, 
1648.00, 
1649.00, 
1650.00, 
1651.00, 
1652.00, 
1653.00, 
1654.00, 
1655.00, 
1656.00, 
1657.00, 
1658.00, 
1659.00, 
1660.00, 
1661.00, 
1662.00, 
1663.00, 
1664.00, 
1665.00, 
1666.00, 
1667.00, 
1668.00, 
1669.00, 
1670.00, 
1671.00, 
1672.00, 
1673.00, 
1674.00, 
1675.00, 
1676.00, 
1677.00, 
1678.00, 
1679.00, 
1680.00, 
1681.00, 
1682.00, 
1683.00, 
1684.00, 
1685.00, 
1686.00, 
1687.00, 
1688.00, 
1689.00, 
1690.00, 
1691.00, 
1692.00, 
1693.00, 
1694.00, 
1695.00, 
1696.00, 
1697.00, 
1698.00, 
1699.00, 
1700.00, 
1701.00, 
1702.00, 
1703.00, 
1704.00, 
1705.00, 
1706.00, 
1707.00, 
1708.00, 
1709.00, 
1710.00, 
1711.00, 
1712.00, 
1713.00, 
1714.00, 
1715.00, 
1716.00, 
1717.00, 
1718.00, 
1719.00, 
1720.00, 
1721.00, 
1722.00, 
1723.00, 
1724.00, 
1725.00, 
1726.00, 
1727.00, 
1728.00, 
1729.00, 
1730.00, 
1731.00, 
1732.00, 
1733.00, 
1734.00, 
1735.00, 
1736.00, 
1737.00, 
1738.00, 
1739.00, 
1740.00, 
1741.00, 
1742.00, 
1743.00, 
1744.00, 
1745.00, 
1746.00, 
1747.00, 
1748.00, 
1749.00, 
1750.00, 
1751.00, 
1752.00, 
1753.00, 
1754.00, 
1755.00, 
1756.00, 
1757.00, 
1758.00, 
1759.00, 
1760.00, 
1761.00, 
1762.00, 
1763.00, 
1764.00, 
1765.00, 
1766.00, 
1767.00, 
1768.00, 
1769.00, 
1770.00, 
1771.00, 
1772.00, 
1773.00, 
1774.00, 
1775.00, 
1776.00, 
1777.00, 
1778.00, 
1779.00, 
1780.00, 
1781.00, 
1782.00, 
1783.00, 
1784.00, 
1785.00, 
1786.00, 
1787.00, 
1788.00, 
1789.00, 
1790.00, 
1791.00, 
1792.00, 
1793.00, 
1794.00, 
1795.00, 
1796.00, 
1797.00, 
1798.00, 
1799.00, 
1800.00, 
1801.00, 
1802.00, 
1803.00, 
1804.00, 
1805.00, 
1806.00, 
1807.00, 
1808.00, 
1809.00, 
1810.00, 
1811.00, 
1812.00, 
1813.00, 
1814.00, 
1815.00, 
1816.00, 
1817.00, 
1818.00, 
1819.00, 
1820.00, 
1821.00, 
1822.00, 
1823.00, 
1824.00, 
1825.00, 
1826.00, 
1827.00, 
1828.00, 
1829.00, 
1830.00, 
1831.00, 
1832.00, 
1833.00, 
1834.00, 
1835.00, 
1836.00, 
1837.00, 
1838.00, 
1839.00, 
1840.00, 
1841.00, 
1842.00, 
1843.00, 
1844.00, 
1845.00, 
1846.00, 
1847.00, 
1848.00, 
1849.00, 
1850.00, 
1851.00, 
1852.00, 
1853.00, 
1854.00, 
1855.00, 
1856.00, 
1857.00, 
1858.00, 
1859.00, 
1860.00, 
1861.00, 
1862.00, 
1863.00, 
1864.00, 
1865.00, 
1866.00, 
1867.00, 
1868.00, 
1869.00, 
1870.00, 
1871.00, 
1872.00, 
1873.00, 
1874.00, 
1875.00, 
1876.00, 
1877.00, 
1878.00, 
1879.00, 
1880.00, 
1881.00, 
1882.00, 
1883.00, 
1884.00, 
1885.00, 
1886.00, 
1887.00, 
1888.00, 
1889.00, 
1890.00, 
1891.00, 
1892.00, 
1893.00, 
1894.00, 
1895.00, 
1896.00, 
1897.00, 
1898.00, 
1899.00, 
1900.00, 
1901.00, 
1902.00, 
1903.00, 
1904.00, 
1905.00, 
1906.00, 
1907.00, 
1908.00, 
1909.00, 
1910.00, 
1911.00, 
1912.00, 
1913.00, 
1914.00, 
1915.00, 
1916.00, 
1917.00, 
1918.00, 
1919.00, 
1920.00, 
1921.00, 
1922.00, 
1923.00, 
1924.00, 
1925.00, 
1926.00, 
1927.00, 
1928.00, 
1929.00, 
1930.00, 
1931.00, 
1932.00, 
1933.00, 
1934.00, 
1935.00, 
1936.00, 
1937.00, 
1938.00, 
1939.00, 
1940.00, 
1941.00, 
1942.00, 
1943.00, 
1944.00, 
1945.00, 
1946.00, 
1947.00, 
1948.00, 
1949.00, 
1950.00, 
1951.00, 
1952.00, 
1953.00, 
1954.00, 
1955.00, 
1956.00, 
1957.00, 
1958.00, 
1959.00, 
1960.00, 
1961.00, 
1962.00, 
1963.00, 
1964.00, 
1965.00, 
1966.00, 
1967.00, 
1968.00, 
1969.00, 
1970.00, 
1971.00, 
1972.00, 
1973.00, 
1974.00, 
1975.00, 
1976.00, 
1977.00, 
1978.00, 
1979.00, 
1980.00, 
1981.00, 
1982.00, 
1983.00, 
1984.00, 
1985.00, 
1986.00, 
1987.00, 
1988.00, 
1989.00, 
1990.00, 
1991.00, 
1992.00, 
1993.00, 
1994.00, 
1995.00, 
1996.00, 
1997.00, 
1998.00, 
1999.00, 
2000.00, 
2001.00, 
2002.00, 
2003.00, 
2004.00, 
2005.00, 
2006.00, 
2007.00, 
2008.00, 
2009.00, 
2010.00, 
2011.00, 
2012.00, 
2013.00, 
2014.00, 
2015.00, 
2016.00, 
2017.00, 
2018.00, 
2019.00, 
2020.00, 
2021.00, 
2022.00, 
2023.00, 
2024.00, 
2025.00, 
2026.00, 
2027.00, 
2028.00, 
2029.00, 
2030.00, 
2031.00, 
2032.00, 
2033.00, 
2034.00, 
2035.00, 
2036.00, 
2037.00, 
2038.00, 
2039.00, 
2040.00, 
2041.00, 
2042.00, 
2043.00, 
2044.00, 
2045.00, 
2046.00, 
2047.00, 
2048.00, 
2049.00, 
2050.00, 
2051.00, 
2052.00, 
2053.00, 
2054.00, 
2055.00, 
2056.00, 
2057.00, 
2058.00, 
2059.00, 
2060.00, 
2061.00, 
2062.00, 
2063.00, 
2064.00, 
2065.00, 
2066.00, 
2067.00, 
2068.00, 
2069.00, 
2070.00, 
2071.00, 
2072.00, 
2073.00, 
2074.00, 
2075.00, 
2076.00, 
2077.00, 
2078.00, 
2079.00, 
2080.00, 
2081.00, 
2082.00, 
2083.00, 
2084.00, 
2085.00, 
2086.00, 
2087.00, 
2088.00, 
2089.00, 
2090.00, 
2091.00, 
2092.00, 
2093.00, 
2094.00, 
2095.00, 
2096.00, 
2097.00, 
2098.00, 
2099.00, 
2100.00, 
2101.00, 
2102.00, 
2103.00, 
2104.00, 
2105.00, 
2106.00, 
2107.00, 
2108.00, 
2109.00, 
2110.00, 
2111.00, 
2112.00, 
2113.00, 
2114.00, 
2115.00, 
2116.00, 
2117.00, 
2118.00, 
2119.00, 
2120.00, 
2121.00, 
2122.00, 
2123.00, 
2124.00, 
2125.00, 
2126.00, 
2127.00, 
2128.00, 
2129.00, 
2130.00, 
2131.00, 
2132.00, 
2133.00, 
2134.00, 
2135.00, 
2136.00, 
2137.00, 
2138.00, 
2139.00, 
2140.00, 
2141.00, 
2142.00, 
2143.00, 
2144.00, 
2145.00, 
2146.00, 
2147.00, 
2148.00, 
2149.00, 
2150.00, 
2151.00, 
2152.00, 
2153.00, 
2154.00, 
2155.00, 
2156.00, 
2157.00, 
2158.00, 
2159.00, 
2160.00, 
2161.00, 
2162.00, 
2163.00, 
2164.00, 
2165.00, 
2166.00, 
2167.00, 
2168.00, 
2169.00, 
2170.00, 
2171.00, 
2172.00, 
2173.00, 
2174.00, 
2175.00, 
2176.00, 
2177.00, 
2178.00, 
2179.00, 
2180.00, 
2181.00, 
2182.00, 
2183.00, 
2184.00, 
2185.00, 
2186.00, 
2187.00, 
2188.00, 
2189.00, 
2190.00, 
2191.00, 
2192.00, 
2193.00, 
2194.00, 
2195.00, 
2196.00, 
2197.00, 
2198.00, 
2199.00, 
2200.00, 
2201.00, 
2202.00, 
2203.00, 
2204.00, 
2205.00, 
2206.00, 
2207.00, 
2208.00, 
2209.00, 
2210.00, 
2211.00, 
2212.00, 
2213.00, 
2214.00, 
2215.00, 
2216.00, 
2217.00, 
2218.00, 
2219.00, 
2220.00, 
2221.00, 
2222.00, 
2223.00, 
2224.00, 
2225.00, 
2226.00, 
2227.00, 
2228.00, 
2229.00, 
2230.00, 
2231.00, 
2232.00, 
2233.00, 
2234.00, 
2235.00, 
2236.00, 
2237.00, 
2238.00, 
2239.00, 
2240.00, 
2241.00, 
2242.00, 
2243.00, 
2244.00, 
2245.00, 
2246.00, 
2247.00, 
2248.00, 
2249.00, 
2250.00, 
2251.00, 
2252.00, 
2253.00, 
2254.00, 
2255.00, 
2256.00, 
2257.00, 
2258.00, 
2259.00, 
2260.00, 
2261.00, 
2262.00, 
2263.00, 
2264.00, 
2265.00, 
2266.00, 
2267.00, 
2268.00, 
2269.00, 
2270.00, 
2271.00, 
2272.00, 
2273.00, 
2274.00, 
2275.00, 
2276.00, 
2277.00, 
2278.00, 
2279.00, 
2280.00, 
2281.00, 
2282.00, 
2283.00, 
2284.00, 
2285.00, 
2286.00, 
2287.00, 
2288.00, 
2289.00, 
2290.00, 
2291.00, 
2292.00, 
2293.00, 
2294.00, 
2295.00, 
2296.00, 
2297.00, 
2298.00, 
2299.00, 
2300.00, 
2301.00, 
2302.00, 
2303.00, 
2304.00, 
2305.00, 
2306.00, 
2307.00, 
2308.00, 
2309.00, 
2310.00, 
2311.00, 
2312.00, 
2313.00, 
2314.00, 
2315.00, 
2316.00, 
2317.00, 
2318.00, 
2319.00, 
2320.00, 
2321.00, 
2322.00, 
2323.00, 
2324.00, 
2325.00, 
2326.00, 
2327.00, 
2328.00, 
2329.00, 
2330.00, 
2331.00, 
2332.00, 
2333.00, 
2334.00, 
2335.00, 
2336.00, 
2337.00, 
2338.00, 
2339.00, 
2340.00, 
2341.00, 
2342.00, 
2343.00, 
2344.00, 
2345.00, 
2346.00, 
2347.00, 
2348.00, 
2349.00, 
2350.00, 
2351.00, 
2352.00, 
2353.00, 
2354.00, 
2355.00, 
2356.00, 
2357.00, 
2358.00, 
2359.00, 
2360.00, 
2361.00, 
2362.00, 
2363.00, 
2364.00, 
2365.00, 
2366.00, 
2367.00, 
2368.00, 
2369.00, 
2370.00, 
2371.00, 
2372.00, 
2373.00, 
2374.00, 
2375.00, 
2376.00, 
2377.00, 
2378.00, 
2379.00, 
2380.00, 
2381.00, 
2382.00, 
2383.00, 
2384.00, 
2385.00, 
2386.00, 
2387.00, 
2388.00, 
2389.00, 
2390.00, 
2391.00, 
2392.00, 
2393.00, 
2394.00, 
2395.00, 
2396.00, 
2397.00, 
2398.00, 
2399.00, 
2400.00, 
2401.00, 
2402.00, 
2403.00, 
2404.00, 
2405.00, 
2406.00, 
2407.00, 
2408.00, 
2409.00, 
2410.00, 
2411.00, 
2412.00, 
2413.00, 
2414.00, 
2415.00, 
2416.00, 
2417.00, 
2418.00, 
2419.00, 
2420.00, 
2421.00, 
2422.00, 
2423.00, 
2424.00, 
2425.00, 
2426.00, 
2427.00, 
2428.00, 
2429.00, 
2430.00, 
2431.00, 
2432.00, 
2433.00, 
2434.00, 
2435.00, 
2436.00, 
2437.00, 
2438.00, 
2439.00, 
2440.00, 
2441.00, 
2442.00, 
2443.00, 
2444.00, 
2445.00, 
2446.00, 
2447.00, 
2448.00, 
2449.00, 
2450.00, 
2451.00, 
2452.00, 
2453.00, 
2454.00, 
2455.00, 
2456.00, 
2457.00, 
2458.00, 
2459.00, 
2460.00, 
2461.00, 
2462.00, 
2463.00, 
2464.00, 
2465.00, 
2466.00, 
2467.00, 
2468.00, 
2469.00, 
2470.00, 
2471.00, 
2472.00, 
2473.00, 
2474.00, 
2475.00, 
2476.00, 
2477.00, 
2478.00, 
2479.00, 
2480.00, 
2481.00, 
2482.00, 
2483.00, 
2484.00, 
2485.00, 
2486.00, 
2487.00, 
2488.00, 
2489.00, 
2490.00, 
2491.00, 
2492.00, 
2493.00, 
2494.00, 
2495.00, 
2496.00, 
2497.00, 
2498.00, 
2499.00, 
2500.00, 
2501.00, 
2502.00, 
2503.00, 
2504.00, 
2505.00, 
2506.00, 
2507.00, 
2508.00, 
2509.00, 
2510.00, 
2511.00, 
2512.00, 
2513.00, 
2514.00, 
2515.00, 
2516.00, 
2517.00, 
2518.00, 
2519.00, 
2520.00, 
2521.00, 
2522.00, 
2523.00, 
2524.00, 
2525.00, 
2526.00, 
2527.00, 
2528.00, 
2529.00, 
2530.00, 
2531.00, 
2532.00, 
2533.00, 
2534.00, 
2535.00, 
2536.00, 
2537.00, 
2538.00, 
2539.00, 
2540.00, 
2541.00, 
2542.00, 
2543.00, 
2544.00, 
2545.00, 
2546.00, 
2547.00, 
2548.00, 
2549.00, 
2550.00, 
2551.00, 
2552.00, 
2553.00, 
2554.00, 
2555.00, 
2556.00, 
2557.00, 
2558.00, 
2559.00, 
2560.00, 
2561.00, 
2562.00, 
2563.00, 
2564.00, 
2565.00, 
2566.00, 
2567.00, 
2568.00, 
2569.00, 
2570.00, 
2571.00, 
2572.00, 
2573.00, 
2574.00, 
2575.00, 
2576.00, 
2577.00, 
2578.00, 
2579.00, 
2580.00, 
2581.00, 
2582.00, 
2583.00, 
2584.00, 
2585.00, 
2586.00, 
2587.00, 
2588.00, 
2589.00, 
2590.00, 
2591.00, 
2592.00, 
2593.00, 
2594.00, 
2595.00, 
2596.00, 
2597.00, 
2598.00, 
2599.00, 
2600.00, 
