"2cP4 - RawData"
"Wavelength nm.","T%"
200.00,0.003
201.00,0.007
202.00,0.006
203.00,-0.002
204.00,0.001
205.00,0.005
206.00,0.003
207.00,0.002
208.00,0.002
209.00,0.005
210.00,0.003
211.00,0.002
212.00,0.001
213.00,0.006
214.00,-0.002
215.00,0.002
216.00,0.005
217.00,0.001
218.00,-0.000
219.00,0.001
220.00,0.002
221.00,0.001
222.00,0.004
223.00,-0.000
224.00,-0.000
225.00,0.004
226.00,0.000
227.00,-0.000
228.00,-0.001
229.00,0.003
230.00,0.000
231.00,0.001
232.00,-0.000
233.00,0.002
234.00,0.001
235.00,0.001
236.00,0.002
237.00,0.002
238.00,0.000
239.00,-0.001
240.00,0.001
241.00,-0.000
242.00,0.000
243.00,-0.001
244.00,0.002
245.00,-0.000
246.00,-0.001
247.00,0.003
248.00,0.002
249.00,-0.001
250.00,0.001
251.00,0.000
252.00,0.001
253.00,-0.000
254.00,-0.002
255.00,0.000
256.00,-0.000
257.00,0.001
258.00,-0.000
259.00,0.000
260.00,-0.000
261.00,-0.001
262.00,-0.000
263.00,0.001
264.00,0.002
265.00,0.002
266.00,-0.000
267.00,-0.000
268.00,0.002
269.00,0.001
270.00,0.001
271.00,0.000
272.00,0.002
273.00,-0.000
274.00,0.002
275.00,0.000
276.00,0.002
277.00,0.001
278.00,0.000
279.00,-0.001
280.00,0.002
281.00,0.001
282.00,-0.002
283.00,0.000
284.00,0.002
285.00,0.000
286.00,0.001
287.00,0.002
288.00,-0.001
289.00,0.001
290.00,0.001
291.00,0.001
292.00,0.001
293.00,-0.001
294.00,-0.001
295.00,-0.000
296.00,0.000
297.00,-0.000
298.00,-0.000
299.00,0.001
300.00,0.002
301.00,0.003
302.00,0.006
303.00,0.010
304.00,0.017
305.00,0.022
306.00,0.032
307.00,0.056
308.00,0.079
309.00,0.129
310.00,0.185
311.00,0.245
312.00,0.337
313.00,0.450
314.00,0.605
315.00,0.790
316.00,1.015
317.00,1.275
318.00,1.612
319.00,1.955
320.00,2.385
321.00,2.839
322.00,3.395
323.00,3.985
324.00,4.608
325.00,5.240
326.00,5.972
327.00,6.713
328.00,7.577
329.00,8.361
330.00,9.175
331.00,10.037
332.00,10.839
333.00,11.812
334.00,12.524
335.00,13.519
336.00,14.408
337.00,15.366
338.00,16.231
339.00,17.029
340.00,17.798
341.00,18.553
342.00,19.392
343.00,20.120
344.00,20.826
345.00,21.472
346.00,22.134
347.00,22.703
348.00,23.303
349.00,23.861
350.00,24.473
351.00,24.980
352.00,25.436
353.00,25.800
354.00,26.196
355.00,26.555
356.00,27.005
357.00,27.348
358.00,27.573
359.00,28.030
360.00,28.287
361.00,28.498
362.00,28.795
363.00,28.997
364.00,29.300
365.00,29.307
366.00,29.448
367.00,29.583
368.00,29.742
369.00,29.877
370.00,29.917
371.00,30.085
372.00,30.113
373.00,30.118
374.00,30.248
375.00,30.160
376.00,30.193
377.00,30.188
378.00,30.137
379.00,30.084
380.00,30.116
381.00,30.135
382.00,30.085
383.00,30.144
384.00,30.232
385.00,30.364
386.00,30.407
387.00,30.516
388.00,30.643
389.00,30.605
390.00,30.767
391.00,30.761
392.00,30.849
393.00,30.826
394.00,30.936
395.00,30.902
396.00,30.989
397.00,31.023
398.00,31.055
399.00,31.167
400.00,31.179
401.00,31.222
402.00,31.326
403.00,31.372
404.00,31.227
405.00,31.279
406.00,31.316
407.00,31.240
408.00,31.327
409.00,31.235
410.00,31.251
411.00,31.165
412.00,31.122
413.00,31.145
414.00,31.178
415.00,31.250
416.00,31.285
417.00,31.338
418.00,31.412
419.00,31.497
420.00,31.543
421.00,31.344
422.00,31.344
423.00,31.393
424.00,31.532
425.00,31.548
426.00,31.735
427.00,31.709
428.00,31.886
429.00,31.796
430.00,31.832
431.00,31.853
432.00,31.955
433.00,31.995
434.00,32.054
435.00,32.122
436.00,32.165
437.00,32.296
438.00,32.405
439.00,32.412
440.00,32.523
441.00,32.546
442.00,32.690
443.00,32.778
444.00,32.811
445.00,32.916
446.00,33.021
447.00,33.166
448.00,33.201
449.00,33.297
450.00,33.399
451.00,33.466
452.00,33.498
453.00,33.649
454.00,33.779
455.00,33.775
456.00,33.957
457.00,34.119
458.00,34.168
459.00,34.330
460.00,34.374
461.00,34.528
462.00,34.655
463.00,34.750
464.00,34.773
465.00,35.003
466.00,35.133
467.00,35.174
468.00,35.256
469.00,35.334
470.00,35.434
471.00,35.391
472.00,35.607
473.00,35.690
474.00,35.729
475.00,35.790
476.00,35.891
477.00,36.006
478.00,36.111
479.00,36.194
480.00,36.403
481.00,36.481
482.00,36.555
483.00,36.630
484.00,36.859
485.00,37.025
486.00,37.114
487.00,37.290
488.00,37.507
489.00,37.557
490.00,37.801
491.00,37.976
492.00,37.769
493.00,37.987
494.00,37.950
495.00,38.053
496.00,38.249
497.00,38.230
498.00,38.454
499.00,38.557
500.00,38.687
501.00,38.794
502.00,38.862
503.00,38.915
504.00,38.998
505.00,39.138
506.00,39.117
507.00,39.292
508.00,39.414
509.00,39.468
510.00,39.537
511.00,39.599
512.00,39.760
513.00,39.840
514.00,39.910
515.00,40.022
516.00,40.031
517.00,40.160
518.00,40.191
519.00,40.255
520.00,40.284
521.00,40.439
522.00,40.413
523.00,40.417
524.00,40.628
525.00,40.702
526.00,40.779
527.00,40.852
528.00,41.047
529.00,41.121
530.00,41.310
531.00,41.334
532.00,41.322
533.00,41.511
534.00,41.412
535.00,41.530
536.00,41.701
537.00,41.720
538.00,41.765
539.00,41.784
540.00,41.833
541.00,41.841
542.00,41.882
543.00,41.955
544.00,42.022
545.00,42.052
546.00,42.084
547.00,42.204
548.00,42.107
549.00,42.238
550.00,42.356
551.00,42.402
552.00,42.430
553.00,42.551
554.00,42.620
555.00,42.634
556.00,42.682
557.00,42.652
558.00,42.775
559.00,42.796
560.00,42.976
561.00,43.046
562.00,42.945
563.00,42.968
564.00,43.045
565.00,43.050
566.00,43.084
567.00,43.062
568.00,43.131
569.00,43.208
570.00,43.190
571.00,43.199
572.00,43.174
573.00,43.271
574.00,43.196
575.00,43.138
576.00,43.286
577.00,43.353
578.00,43.411
579.00,43.402
580.00,43.555
581.00,43.562
582.00,43.641
583.00,43.801
584.00,43.851
585.00,43.786
586.00,43.874
587.00,43.893
588.00,43.909
589.00,43.988
590.00,43.938
591.00,43.919
592.00,43.893
593.00,44.010
594.00,44.024
595.00,44.067
596.00,44.146
597.00,44.379
598.00,44.345
599.00,44.345
600.00,44.563
601.00,44.598
602.00,44.334
603.00,44.329
604.00,44.292
605.00,44.382
606.00,44.454
607.00,44.649
608.00,44.552
609.00,44.613
610.00,44.760
611.00,44.576
612.00,44.633
613.00,44.725
614.00,44.819
615.00,44.748
616.00,44.786
617.00,44.890
618.00,44.919
619.00,44.800
620.00,44.927
621.00,45.028
622.00,44.989
623.00,45.222
624.00,45.244
625.00,45.111
626.00,45.077
627.00,45.314
628.00,45.464
629.00,45.365
630.00,45.387
631.00,45.364
632.00,45.465
633.00,45.663
634.00,45.594
635.00,45.631
636.00,45.662
637.00,45.640
638.00,45.662
639.00,45.770
640.00,45.733
641.00,45.865
642.00,45.996
643.00,46.010
644.00,46.090
645.00,46.139
646.00,46.265
647.00,46.310
648.00,46.182
649.00,46.382
650.00,46.374
651.00,46.534
652.00,46.643
653.00,46.484
654.00,46.555
655.00,46.779
656.00,47.126
657.00,46.992
658.00,46.984
659.00,46.841
660.00,47.013
661.00,46.725
662.00,47.351
663.00,47.147
664.00,47.405
665.00,47.147
666.00,47.002
667.00,47.448
668.00,47.697
669.00,47.268
670.00,47.477
671.00,47.668
672.00,47.794
673.00,47.599
674.00,47.849
675.00,47.835
676.00,47.647
677.00,47.912
678.00,47.897
679.00,48.158
680.00,48.295
681.00,48.101
682.00,47.996
683.00,47.720
684.00,47.966
685.00,48.165
686.00,48.141
687.00,48.238
688.00,48.274
689.00,48.336
690.00,48.370
691.00,48.564
692.00,48.886
693.00,48.378
694.00,48.292
695.00,48.667
696.00,48.819
697.00,48.696
698.00,48.819
699.00,48.665
700.00,48.625
701.00,48.758
702.00,49.248
703.00,49.152
704.00,48.935
705.00,49.224
706.00,49.625
707.00,49.047
708.00,49.175
709.00,49.178
710.00,49.233
711.00,48.998
712.00,49.220
713.00,49.298
714.00,49.486
715.00,49.465
716.00,49.476
717.00,49.485
718.00,49.607
719.00,49.528
720.00,49.483
721.00,54.447
722.00,54.487
723.00,54.404
724.00,54.326
725.00,54.353
726.00,54.275
727.00,54.327
728.00,54.349
729.00,54.357
730.00,54.407
731.00,54.351
732.00,54.242
733.00,54.205
734.00,54.276
735.00,54.304
736.00,54.313
737.00,54.522
738.00,54.534
739.00,54.496
740.00,54.173
741.00,54.304
742.00,54.394
743.00,54.334
744.00,54.298
745.00,54.269
746.00,54.304
747.00,54.309
748.00,54.167
749.00,54.041
750.00,54.181
751.00,54.190
752.00,54.117
753.00,54.115
754.00,53.930
755.00,54.102
756.00,54.074
757.00,54.031
758.00,53.952
759.00,54.126
760.00,54.040
761.00,53.987
762.00,53.897
763.00,54.024
764.00,54.042
765.00,53.957
766.00,53.976
767.00,54.000
768.00,53.909
769.00,53.952
770.00,54.019
771.00,53.941
772.00,53.789
773.00,53.886
774.00,53.744
775.00,53.864
776.00,53.810
777.00,53.879
778.00,53.783
779.00,53.816
780.00,53.849
781.00,53.721
782.00,53.802
783.00,53.938
784.00,53.739
785.00,53.650
786.00,53.782
787.00,53.701
788.00,53.649
789.00,53.771
790.00,53.596
791.00,53.763
792.00,53.607
793.00,53.542
794.00,53.565
795.00,53.591
796.00,53.563
797.00,53.399
798.00,53.517
799.00,53.404
800.00,53.320
801.00,53.323
802.00,53.387
803.00,53.302
804.00,53.317
805.00,53.315
806.00,53.173
807.00,53.132
808.00,53.319
809.00,53.006
810.00,53.145
811.00,53.125
812.00,52.954
813.00,53.147
814.00,53.018
815.00,53.027
816.00,53.128
817.00,52.854
818.00,52.971
819.00,52.984
820.00,52.872
821.00,52.834
822.00,52.791
823.00,52.662
824.00,52.758
825.00,52.765
826.00,52.547
827.00,52.822
828.00,52.842
829.00,52.790
830.00,52.498
831.00,54.792
832.00,54.799
833.00,55.012
834.00,54.785
835.00,54.824
836.00,54.770
837.00,54.821
838.00,54.678
839.00,54.735
840.00,54.714
841.00,54.635
842.00,54.623
843.00,54.614
844.00,54.629
845.00,54.648
846.00,54.590
847.00,54.505
848.00,54.594
849.00,54.397
850.00,54.461
851.00,54.405
852.00,54.412
853.00,54.293
854.00,54.229
855.00,54.260
856.00,54.144
857.00,54.319
858.00,54.145
859.00,54.088
860.00,54.175
861.00,54.106
862.00,54.157
863.00,54.073
864.00,54.111
865.00,53.954
866.00,54.028
867.00,53.997
868.00,53.999
869.00,53.964
870.00,54.022
871.00,53.937
872.00,53.949
873.00,53.945
874.00,53.959
875.00,53.904
876.00,53.917
877.00,53.835
878.00,53.856
879.00,53.783
880.00,53.813
881.00,53.757
882.00,53.783
883.00,53.761
884.00,53.772
885.00,53.753
886.00,53.726
887.00,53.739
888.00,53.643
889.00,53.642
890.00,53.649
891.00,53.635
892.00,53.557
893.00,53.560
894.00,53.526
895.00,53.526
896.00,53.483
897.00,53.489
898.00,53.445
899.00,53.439
900.00,53.418
901.00,53.437
902.00,53.380
903.00,53.476
904.00,53.344
905.00,53.289
906.00,53.352
907.00,53.265
908.00,53.237
909.00,53.247
910.00,53.238
911.00,53.210
912.00,53.211
913.00,53.176
914.00,53.186
915.00,53.125
916.00,53.060
917.00,53.123
918.00,53.080
919.00,53.085
920.00,53.008
921.00,53.020
922.00,52.994
923.00,52.945
924.00,52.935
925.00,52.896
926.00,52.879
927.00,52.885
928.00,52.857
929.00,52.840
930.00,52.831
931.00,52.781
932.00,52.806
933.00,52.757
934.00,52.747
935.00,52.750
936.00,52.676
937.00,52.677
938.00,52.667
939.00,52.647
940.00,52.636
941.00,52.634
942.00,52.593
943.00,52.557
944.00,52.553
945.00,52.522
946.00,52.524
947.00,52.477
948.00,52.451
949.00,52.473
950.00,52.416
951.00,52.386
952.00,52.385
953.00,52.338
954.00,52.336
955.00,52.305
956.00,52.287
957.00,52.264
958.00,52.242
959.00,52.238
960.00,52.191
961.00,52.193
962.00,52.177
963.00,52.155
964.00,52.107
965.00,52.152
966.00,52.112
967.00,52.101
968.00,52.090
969.00,52.119
970.00,52.114
971.00,52.094
972.00,52.094
973.00,52.063
974.00,52.102
975.00,52.080
976.00,52.073
977.00,52.066
978.00,52.103
979.00,52.089
980.00,52.044
981.00,52.069
982.00,52.021
983.00,52.050
984.00,52.037
985.00,52.054
986.00,52.011
987.00,52.029
988.00,52.036
989.00,51.983
990.00,52.008
991.00,51.990
992.00,51.978
993.00,51.919
994.00,51.948
995.00,51.936
996.00,51.885
997.00,51.926
998.00,51.891
999.00,51.877
1000.00,51.853
1001.00,51.868
1002.00,51.867
1003.00,51.829
1004.00,51.843
1005.00,51.801
1006.00,51.804
1007.00,51.804
1008.00,51.763
1009.00,51.748
1010.00,51.703
1011.00,51.743
1012.00,51.693
1013.00,51.664
1014.00,51.670
1015.00,51.659
1016.00,51.661
1017.00,51.624
1018.00,51.641
1019.00,51.576
1020.00,51.590
1021.00,51.553
1022.00,51.543
1023.00,51.529
1024.00,51.513
1025.00,51.489
1026.00,51.480
1027.00,51.485
1028.00,51.449
1029.00,51.471
1030.00,51.405
1031.00,51.408
1032.00,51.407
1033.00,51.357
1034.00,51.367
1035.00,51.315
1036.00,51.324
1037.00,51.302
1038.00,51.272
1039.00,51.257
1040.00,51.241
1041.00,51.199
1042.00,51.194
1043.00,51.200
1044.00,51.180
1045.00,51.201
1046.00,51.190
1047.00,51.216
1048.00,51.205
1049.00,51.218
1050.00,51.209
1051.00,51.257
1052.00,51.256
1053.00,51.271
1054.00,51.275
1055.00,51.265
1056.00,51.291
1057.00,51.284
1058.00,51.274
1059.00,51.280
1060.00,51.293
1061.00,51.256
1062.00,51.266
1063.00,51.227
1064.00,51.245
1065.00,51.199
1066.00,51.184
1067.00,51.186
1068.00,51.183
1069.00,51.164
1070.00,51.183
1071.00,51.165
1072.00,51.129
1073.00,51.131
1074.00,51.122
1075.00,51.121
1076.00,51.088
1077.00,51.094
1078.00,51.090
1079.00,51.083
1080.00,51.089
1081.00,51.076
1082.00,51.064
1083.00,51.074
1084.00,51.070
1085.00,51.042
1086.00,51.020
1087.00,51.006
1088.00,50.983
1089.00,51.005
1090.00,50.982
1091.00,50.983
1092.00,50.976
1093.00,50.982
1094.00,50.951
1095.00,50.966
1096.00,50.911
1097.00,50.903
1098.00,50.904
1099.00,50.887
1100.00,50.897
1101.00,50.882
1102.00,50.864
1103.00,50.862
1104.00,50.849
1105.00,50.842
1106.00,50.833
1107.00,50.826
1108.00,50.804
1109.00,50.797
1110.00,50.795
1111.00,50.812
1112.00,50.769
1113.00,50.774
1114.00,50.767
1115.00,50.766
1116.00,50.746
1117.00,50.760
1118.00,50.751
1119.00,50.742
1120.00,50.753
1121.00,50.699
1122.00,50.719
1123.00,50.733
1124.00,50.711
1125.00,50.738
1126.00,50.706
1127.00,50.683
1128.00,50.690
1129.00,50.655
1130.00,50.650
1131.00,50.645
1132.00,50.624
1133.00,50.639
1134.00,50.589
1135.00,50.614
1136.00,50.613
1137.00,50.615
1138.00,50.600
1139.00,50.615
1140.00,50.578
1141.00,50.585
1142.00,50.583
1143.00,50.588
1144.00,50.579
1145.00,50.596
1146.00,50.611
1147.00,50.569
1148.00,50.546
1149.00,50.549
1150.00,50.580
1151.00,50.554
1152.00,50.528
1153.00,50.566
1154.00,50.526
1155.00,50.547
1156.00,50.541
1157.00,50.527
1158.00,50.541
1159.00,50.513
1160.00,50.526
1161.00,50.529
1162.00,50.515
1163.00,50.501
1164.00,50.534
1165.00,50.504
1166.00,50.512
1167.00,50.493
1168.00,50.494
1169.00,50.503
1170.00,50.505
1171.00,50.483
1172.00,50.531
1173.00,50.512
1174.00,50.502
1175.00,50.528
1176.00,50.485
1177.00,50.505
1178.00,50.481
1179.00,50.508
1180.00,50.486
1181.00,50.493
1182.00,50.478
1183.00,50.509
1184.00,50.489
1185.00,50.484
1186.00,50.490
1187.00,50.464
1188.00,50.508
1189.00,50.478
1190.00,50.480
1191.00,50.458
1192.00,50.482
1193.00,50.474
1194.00,50.479
1195.00,50.472
1196.00,50.453
1197.00,50.480
1198.00,50.445
1199.00,50.479
1200.00,50.450
1201.00,50.458
1202.00,50.450
1203.00,50.448
1204.00,50.446
1205.00,50.460
1206.00,50.448
1207.00,50.453
1208.00,50.449
1209.00,50.421
1210.00,50.470
1211.00,50.426
1212.00,50.436
1213.00,50.447
1214.00,50.436
1215.00,50.427
1216.00,50.403
1217.00,50.428
1218.00,50.421
1219.00,50.435
1220.00,50.419
1221.00,50.451
1222.00,50.446
1223.00,50.418
1224.00,50.467
1225.00,50.438
1226.00,50.460
1227.00,50.426
1228.00,50.423
1229.00,50.434
1230.00,50.487
1231.00,50.466
1232.00,50.463
1233.00,50.488
1234.00,50.464
1235.00,50.504
1236.00,50.486
1237.00,50.499
1238.00,50.488
1239.00,50.478
1240.00,50.456
1241.00,50.477
1242.00,50.488
1243.00,50.470
1244.00,50.468
1245.00,50.478
1246.00,50.517
1247.00,50.516
1248.00,50.506
1249.00,50.506
1250.00,50.519
1251.00,50.493
1252.00,50.534
1253.00,50.499
1254.00,50.524
1255.00,50.498
1256.00,50.500
1257.00,50.477
1258.00,50.511
1259.00,50.509
1260.00,50.527
1261.00,50.522
1262.00,50.516
1263.00,50.527
1264.00,50.519
1265.00,50.549
1266.00,50.544
1267.00,50.562
1268.00,50.548
1269.00,50.544
1270.00,50.551
1271.00,50.583
1272.00,50.562
1273.00,50.584
1274.00,50.573
1275.00,50.585
1276.00,50.597
1277.00,50.584
1278.00,50.599
1279.00,50.618
1280.00,50.599
1281.00,50.636
1282.00,50.624
1283.00,50.593
1284.00,50.608
1285.00,50.621
1286.00,50.604
1287.00,50.624
1288.00,50.623
1289.00,50.624
1290.00,50.662
1291.00,50.650
1292.00,50.658
1293.00,50.681
1294.00,50.685
1295.00,50.666
1296.00,50.662
1297.00,50.657
1298.00,50.690
1299.00,50.686
1300.00,50.683
1301.00,50.703
1302.00,50.714
1303.00,50.692
1304.00,50.732
1305.00,50.712
1306.00,50.723
1307.00,50.753
1308.00,50.721
1309.00,50.748
1310.00,50.732
1311.00,50.726
1312.00,50.736
1313.00,50.740
1314.00,50.744
1315.00,50.778
1316.00,50.749
1317.00,50.762
1318.00,50.806
1319.00,50.810
1320.00,50.804
1321.00,50.978
1322.00,50.940
1323.00,50.951
1324.00,50.950
1325.00,50.966
1326.00,50.981
1327.00,50.961
1328.00,50.941
1329.00,50.966
1330.00,50.939
1331.00,50.931
1332.00,50.953
1333.00,50.925
1334.00,51.002
1335.00,50.995
1336.00,51.006
1337.00,51.068
1338.00,51.110
1339.00,51.140
1340.00,51.207
1341.00,51.254
1342.00,51.324
1343.00,51.388
1344.00,51.395
1345.00,51.478
1346.00,51.578
1347.00,51.525
1348.00,51.551
1349.00,51.582
1350.00,51.612
1351.00,51.623
1352.00,51.558
1353.00,51.670
1354.00,51.644
1355.00,51.597
1356.00,51.567
1357.00,51.636
1358.00,51.849
1359.00,51.653
1360.00,51.723
1361.00,51.716
1362.00,51.732
1363.00,51.604
1364.00,51.517
1365.00,51.699
1366.00,51.794
1367.00,51.703
1368.00,51.768
1369.00,52.053
1370.00,51.642
1371.00,51.667
1372.00,51.613
1373.00,51.625
1374.00,51.654
1375.00,51.619
1376.00,51.625
1377.00,51.481
1378.00,51.921
1379.00,51.307
1380.00,51.811
1381.00,51.363
1382.00,51.589
1383.00,51.668
1384.00,51.614
1385.00,51.582
1386.00,51.734
1387.00,51.557
1388.00,51.597
1389.00,51.583
1390.00,51.771
1391.00,51.309
1392.00,51.610
1393.00,51.803
1394.00,51.736
1395.00,51.451
1396.00,51.640
1397.00,51.731
1398.00,51.795
1399.00,51.625
1400.00,51.645
1401.00,51.741
1402.00,52.030
1403.00,51.677
1404.00,51.813
1405.00,51.475
1406.00,51.864
1407.00,51.591
1408.00,51.590
1409.00,51.671
1410.00,51.685
1411.00,51.693
1412.00,51.788
1413.00,51.728
1414.00,51.695
1415.00,51.750
1416.00,51.728
1417.00,51.807
1418.00,51.770
1419.00,51.748
1420.00,51.768
1421.00,51.826
1422.00,51.785
1423.00,51.823
1424.00,51.805
1425.00,51.867
1426.00,51.848
1427.00,51.870
1428.00,51.895
1429.00,51.887
1430.00,51.915
1431.00,51.914
1432.00,51.924
1433.00,51.910
1434.00,51.952
1435.00,52.004
1436.00,51.985
1437.00,52.005
1438.00,52.021
1439.00,52.063
1440.00,52.040
1441.00,52.074
1442.00,52.085
1443.00,52.066
1444.00,52.126
1445.00,52.111
1446.00,52.150
1447.00,52.168
1448.00,52.203
1449.00,52.195
1450.00,52.228
1451.00,52.196
1452.00,52.224
1453.00,52.255
1454.00,52.213
1455.00,52.289
1456.00,52.277
1457.00,52.281
1458.00,52.302
1459.00,52.312
1460.00,52.317
1461.00,52.367
1462.00,52.323
1463.00,52.367
1464.00,52.394
1465.00,52.372
1466.00,52.401
1467.00,52.403
1468.00,52.438
1469.00,52.460
1470.00,52.492
1471.00,52.459
1472.00,52.505
1473.00,52.498
1474.00,52.524
1475.00,52.529
1476.00,52.518
1477.00,52.546
1478.00,52.582
1479.00,52.565
1480.00,52.594
1481.00,52.601
1482.00,52.608
1483.00,52.628
1484.00,52.621
1485.00,52.631
1486.00,52.648
1487.00,52.675
1488.00,52.670
1489.00,52.690
1490.00,52.700
1491.00,52.724
1492.00,52.741
1493.00,52.751
1494.00,52.795
1495.00,52.766
1496.00,52.751
1497.00,52.778
1498.00,52.757
1499.00,52.799
1500.00,52.798
1501.00, 
1502.00, 
1503.00, 
1504.00, 
1505.00, 
1506.00, 
1507.00, 
1508.00, 
1509.00, 
1510.00, 
1511.00, 
1512.00, 
1513.00, 
1514.00, 
1515.00, 
1516.00, 
1517.00, 
1518.00, 
1519.00, 
1520.00, 
1521.00, 
1522.00, 
1523.00, 
1524.00, 
1525.00, 
1526.00, 
1527.00, 
1528.00, 
1529.00, 
1530.00, 
1531.00, 
1532.00, 
1533.00, 
1534.00, 
1535.00, 
1536.00, 
1537.00, 
1538.00, 
1539.00, 
1540.00, 
1541.00, 
1542.00, 
1543.00, 
1544.00, 
1545.00, 
1546.00, 
1547.00, 
1548.00, 
1549.00, 
1550.00, 
1551.00, 
1552.00, 
1553.00, 
1554.00, 
1555.00, 
1556.00, 
1557.00, 
1558.00, 
1559.00, 
1560.00, 
1561.00, 
1562.00, 
1563.00, 
1564.00, 
1565.00, 
1566.00, 
1567.00, 
1568.00, 
1569.00, 
1570.00, 
1571.00, 
1572.00, 
1573.00, 
1574.00, 
1575.00, 
1576.00, 
1577.00, 
1578.00, 
1579.00, 
1580.00, 
1581.00, 
1582.00, 
1583.00, 
1584.00, 
1585.00, 
1586.00, 
1587.00, 
1588.00, 
1589.00, 
1590.00, 
1591.00, 
1592.00, 
1593.00, 
1594.00, 
1595.00, 
1596.00, 
1597.00, 
1598.00, 
1599.00, 
1600.00, 
1601.00, 
1602.00, 
1603.00, 
1604.00, 
1605.00, 
1606.00, 
1607.00, 
1608.00, 
1609.00, 
1610.00, 
1611.00, 
1612.00, 
1613.00, 
1614.00, 
1615.00, 
1616.00, 
1617.00, 
1618.00, 
1619.00, 
1620.00, 
1621.00, 
1622.00, 
1623.00, 
1624.00, 
1625.00, 
1626.00, 
1627.00, 
1628.00, 
1629.00, 
1630.00, 
1631.00, 
1632.00, 
1633.00, 
1634.00, 
1635.00, 
1636.00, 
1637.00, 
1638.00, 
1639.00, 
1640.00, 
1641.00, 
1642.00, 
1643.00, 
1644.00, 
1645.00, 
1646.00, 
1647.00, 
1648.00, 
1649.00, 
1650.00, 
1651.00, 
1652.00, 
1653.00, 
1654.00, 
1655.00, 
1656.00, 
1657.00, 
1658.00, 
1659.00, 
1660.00, 
1661.00, 
1662.00, 
1663.00, 
1664.00, 
1665.00, 
1666.00, 
1667.00, 
1668.00, 
1669.00, 
1670.00, 
1671.00, 
1672.00, 
1673.00, 
1674.00, 
1675.00, 
1676.00, 
1677.00, 
1678.00, 
1679.00, 
1680.00, 
1681.00, 
1682.00, 
1683.00, 
1684.00, 
1685.00, 
1686.00, 
1687.00, 
1688.00, 
1689.00, 
1690.00, 
1691.00, 
1692.00, 
1693.00, 
1694.00, 
1695.00, 
1696.00, 
1697.00, 
1698.00, 
1699.00, 
1700.00, 
1701.00, 
1702.00, 
1703.00, 
1704.00, 
1705.00, 
1706.00, 
1707.00, 
1708.00, 
1709.00, 
1710.00, 
1711.00, 
1712.00, 
1713.00, 
1714.00, 
1715.00, 
1716.00, 
1717.00, 
1718.00, 
1719.00, 
1720.00, 
1721.00, 
1722.00, 
1723.00, 
1724.00, 
1725.00, 
1726.00, 
1727.00, 
1728.00, 
1729.00, 
1730.00, 
1731.00, 
1732.00, 
1733.00, 
1734.00, 
1735.00, 
1736.00, 
1737.00, 
1738.00, 
1739.00, 
1740.00, 
1741.00, 
1742.00, 
1743.00, 
1744.00, 
1745.00, 
1746.00, 
1747.00, 
1748.00, 
1749.00, 
1750.00, 
1751.00, 
1752.00, 
1753.00, 
1754.00, 
1755.00, 
1756.00, 
1757.00, 
1758.00, 
1759.00, 
1760.00, 
1761.00, 
1762.00, 
1763.00, 
1764.00, 
1765.00, 
1766.00, 
1767.00, 
1768.00, 
1769.00, 
1770.00, 
1771.00, 
1772.00, 
1773.00, 
1774.00, 
1775.00, 
1776.00, 
1777.00, 
1778.00, 
1779.00, 
1780.00, 
1781.00, 
1782.00, 
1783.00, 
1784.00, 
1785.00, 
1786.00, 
1787.00, 
1788.00, 
1789.00, 
1790.00, 
1791.00, 
1792.00, 
1793.00, 
1794.00, 
1795.00, 
1796.00, 
1797.00, 
1798.00, 
1799.00, 
1800.00, 
1801.00, 
1802.00, 
1803.00, 
1804.00, 
1805.00, 
1806.00, 
1807.00, 
1808.00, 
1809.00, 
1810.00, 
1811.00, 
1812.00, 
1813.00, 
1814.00, 
1815.00, 
1816.00, 
1817.00, 
1818.00, 
1819.00, 
1820.00, 
1821.00, 
1822.00, 
1823.00, 
1824.00, 
1825.00, 
1826.00, 
1827.00, 
1828.00, 
1829.00, 
1830.00, 
1831.00, 
1832.00, 
1833.00, 
1834.00, 
1835.00, 
1836.00, 
1837.00, 
1838.00, 
1839.00, 
1840.00, 
1841.00, 
1842.00, 
1843.00, 
1844.00, 
1845.00, 
1846.00, 
1847.00, 
1848.00, 
1849.00, 
1850.00, 
1851.00, 
1852.00, 
1853.00, 
1854.00, 
1855.00, 
1856.00, 
1857.00, 
1858.00, 
1859.00, 
1860.00, 
1861.00, 
1862.00, 
1863.00, 
1864.00, 
1865.00, 
1866.00, 
1867.00, 
1868.00, 
1869.00, 
1870.00, 
1871.00, 
1872.00, 
1873.00, 
1874.00, 
1875.00, 
1876.00, 
1877.00, 
1878.00, 
1879.00, 
1880.00, 
1881.00, 
1882.00, 
1883.00, 
1884.00, 
1885.00, 
1886.00, 
1887.00, 
1888.00, 
1889.00, 
1890.00, 
1891.00, 
1892.00, 
1893.00, 
1894.00, 
1895.00, 
1896.00, 
1897.00, 
1898.00, 
1899.00, 
1900.00, 
1901.00, 
1902.00, 
1903.00, 
1904.00, 
1905.00, 
1906.00, 
1907.00, 
1908.00, 
1909.00, 
1910.00, 
1911.00, 
1912.00, 
1913.00, 
1914.00, 
1915.00, 
1916.00, 
1917.00, 
1918.00, 
1919.00, 
1920.00, 
1921.00, 
1922.00, 
1923.00, 
1924.00, 
1925.00, 
1926.00, 
1927.00, 
1928.00, 
1929.00, 
1930.00, 
1931.00, 
1932.00, 
1933.00, 
1934.00, 
1935.00, 
1936.00, 
1937.00, 
1938.00, 
1939.00, 
1940.00, 
1941.00, 
1942.00, 
1943.00, 
1944.00, 
1945.00, 
1946.00, 
1947.00, 
1948.00, 
1949.00, 
1950.00, 
1951.00, 
1952.00, 
1953.00, 
1954.00, 
1955.00, 
1956.00, 
1957.00, 
1958.00, 
1959.00, 
1960.00, 
1961.00, 
1962.00, 
1963.00, 
1964.00, 
1965.00, 
1966.00, 
1967.00, 
1968.00, 
1969.00, 
1970.00, 
1971.00, 
1972.00, 
1973.00, 
1974.00, 
1975.00, 
1976.00, 
1977.00, 
1978.00, 
1979.00, 
1980.00, 
1981.00, 
1982.00, 
1983.00, 
1984.00, 
1985.00, 
1986.00, 
1987.00, 
1988.00, 
1989.00, 
1990.00, 
1991.00, 
1992.00, 
1993.00, 
1994.00, 
1995.00, 
1996.00, 
1997.00, 
1998.00, 
1999.00, 
2000.00, 
2001.00, 
2002.00, 
2003.00, 
2004.00, 
2005.00, 
2006.00, 
2007.00, 
2008.00, 
2009.00, 
2010.00, 
2011.00, 
2012.00, 
2013.00, 
2014.00, 
2015.00, 
2016.00, 
2017.00, 
2018.00, 
2019.00, 
2020.00, 
2021.00, 
2022.00, 
2023.00, 
2024.00, 
2025.00, 
2026.00, 
2027.00, 
2028.00, 
2029.00, 
2030.00, 
2031.00, 
2032.00, 
2033.00, 
2034.00, 
2035.00, 
2036.00, 
2037.00, 
2038.00, 
2039.00, 
2040.00, 
2041.00, 
2042.00, 
2043.00, 
2044.00, 
2045.00, 
2046.00, 
2047.00, 
2048.00, 
2049.00, 
2050.00, 
2051.00, 
2052.00, 
2053.00, 
2054.00, 
2055.00, 
2056.00, 
2057.00, 
2058.00, 
2059.00, 
2060.00, 
2061.00, 
2062.00, 
2063.00, 
2064.00, 
2065.00, 
2066.00, 
2067.00, 
2068.00, 
2069.00, 
2070.00, 
2071.00, 
2072.00, 
2073.00, 
2074.00, 
2075.00, 
2076.00, 
2077.00, 
2078.00, 
2079.00, 
2080.00, 
2081.00, 
2082.00, 
2083.00, 
2084.00, 
2085.00, 
2086.00, 
2087.00, 
2088.00, 
2089.00, 
2090.00, 
2091.00, 
2092.00, 
2093.00, 
2094.00, 
2095.00, 
2096.00, 
2097.00, 
2098.00, 
2099.00, 
2100.00, 
2101.00, 
2102.00, 
2103.00, 
2104.00, 
2105.00, 
2106.00, 
2107.00, 
2108.00, 
2109.00, 
2110.00, 
2111.00, 
2112.00, 
2113.00, 
2114.00, 
2115.00, 
2116.00, 
2117.00, 
2118.00, 
2119.00, 
2120.00, 
2121.00, 
2122.00, 
2123.00, 
2124.00, 
2125.00, 
2126.00, 
2127.00, 
2128.00, 
2129.00, 
2130.00, 
2131.00, 
2132.00, 
2133.00, 
2134.00, 
2135.00, 
2136.00, 
2137.00, 
2138.00, 
2139.00, 
2140.00, 
2141.00, 
2142.00, 
2143.00, 
2144.00, 
2145.00, 
2146.00, 
2147.00, 
2148.00, 
2149.00, 
2150.00, 
2151.00, 
2152.00, 
2153.00, 
2154.00, 
2155.00, 
2156.00, 
2157.00, 
2158.00, 
2159.00, 
2160.00, 
2161.00, 
2162.00, 
2163.00, 
2164.00, 
2165.00, 
2166.00, 
2167.00, 
2168.00, 
2169.00, 
2170.00, 
2171.00, 
2172.00, 
2173.00, 
2174.00, 
2175.00, 
2176.00, 
2177.00, 
2178.00, 
2179.00, 
2180.00, 
2181.00, 
2182.00, 
2183.00, 
2184.00, 
2185.00, 
2186.00, 
2187.00, 
2188.00, 
2189.00, 
2190.00, 
2191.00, 
2192.00, 
2193.00, 
2194.00, 
2195.00, 
2196.00, 
2197.00, 
2198.00, 
2199.00, 
2200.00, 
2201.00, 
2202.00, 
2203.00, 
2204.00, 
2205.00, 
2206.00, 
2207.00, 
2208.00, 
2209.00, 
2210.00, 
2211.00, 
2212.00, 
2213.00, 
2214.00, 
2215.00, 
2216.00, 
2217.00, 
2218.00, 
2219.00, 
2220.00, 
2221.00, 
2222.00, 
2223.00, 
2224.00, 
2225.00, 
2226.00, 
2227.00, 
2228.00, 
2229.00, 
2230.00, 
2231.00, 
2232.00, 
2233.00, 
2234.00, 
2235.00, 
2236.00, 
2237.00, 
2238.00, 
2239.00, 
2240.00, 
2241.00, 
2242.00, 
2243.00, 
2244.00, 
2245.00, 
2246.00, 
2247.00, 
2248.00, 
2249.00, 
2250.00, 
2251.00, 
2252.00, 
2253.00, 
2254.00, 
2255.00, 
2256.00, 
2257.00, 
2258.00, 
2259.00, 
2260.00, 
2261.00, 
2262.00, 
2263.00, 
2264.00, 
2265.00, 
2266.00, 
2267.00, 
2268.00, 
2269.00, 
2270.00, 
2271.00, 
2272.00, 
2273.00, 
2274.00, 
2275.00, 
2276.00, 
2277.00, 
2278.00, 
2279.00, 
2280.00, 
2281.00, 
2282.00, 
2283.00, 
2284.00, 
2285.00, 
2286.00, 
2287.00, 
2288.00, 
2289.00, 
2290.00, 
2291.00, 
2292.00, 
2293.00, 
2294.00, 
2295.00, 
2296.00, 
2297.00, 
2298.00, 
2299.00, 
2300.00, 
2301.00, 
2302.00, 
2303.00, 
2304.00, 
2305.00, 
2306.00, 
2307.00, 
2308.00, 
2309.00, 
2310.00, 
2311.00, 
2312.00, 
2313.00, 
2314.00, 
2315.00, 
2316.00, 
2317.00, 
2318.00, 
2319.00, 
2320.00, 
2321.00, 
2322.00, 
2323.00, 
2324.00, 
2325.00, 
2326.00, 
2327.00, 
2328.00, 
2329.00, 
2330.00, 
2331.00, 
2332.00, 
2333.00, 
2334.00, 
2335.00, 
2336.00, 
2337.00, 
2338.00, 
2339.00, 
2340.00, 
2341.00, 
2342.00, 
2343.00, 
2344.00, 
2345.00, 
2346.00, 
2347.00, 
2348.00, 
2349.00, 
2350.00, 
2351.00, 
2352.00, 
2353.00, 
2354.00, 
2355.00, 
2356.00, 
2357.00, 
2358.00, 
2359.00, 
2360.00, 
2361.00, 
2362.00, 
2363.00, 
2364.00, 
2365.00, 
2366.00, 
2367.00, 
2368.00, 
2369.00, 
2370.00, 
2371.00, 
2372.00, 
2373.00, 
2374.00, 
2375.00, 
2376.00, 
2377.00, 
2378.00, 
2379.00, 
2380.00, 
2381.00, 
2382.00, 
2383.00, 
2384.00, 
2385.00, 
2386.00, 
2387.00, 
2388.00, 
2389.00, 
2390.00, 
2391.00, 
2392.00, 
2393.00, 
2394.00, 
2395.00, 
2396.00, 
2397.00, 
2398.00, 
2399.00, 
2400.00, 
2401.00, 
2402.00, 
2403.00, 
2404.00, 
2405.00, 
2406.00, 
2407.00, 
2408.00, 
2409.00, 
2410.00, 
2411.00, 
2412.00, 
2413.00, 
2414.00, 
2415.00, 
2416.00, 
2417.00, 
2418.00, 
2419.00, 
2420.00, 
2421.00, 
2422.00, 
2423.00, 
2424.00, 
2425.00, 
2426.00, 
2427.00, 
2428.00, 
2429.00, 
2430.00, 
2431.00, 
2432.00, 
2433.00, 
2434.00, 
2435.00, 
2436.00, 
2437.00, 
2438.00, 
2439.00, 
2440.00, 
2441.00, 
2442.00, 
2443.00, 
2444.00, 
2445.00, 
2446.00, 
2447.00, 
2448.00, 
2449.00, 
2450.00, 
2451.00, 
2452.00, 
2453.00, 
2454.00, 
2455.00, 
2456.00, 
2457.00, 
2458.00, 
2459.00, 
2460.00, 
2461.00, 
2462.00, 
2463.00, 
2464.00, 
2465.00, 
2466.00, 
2467.00, 
2468.00, 
2469.00, 
2470.00, 
2471.00, 
2472.00, 
2473.00, 
2474.00, 
2475.00, 
2476.00, 
2477.00, 
2478.00, 
2479.00, 
2480.00, 
2481.00, 
2482.00, 
2483.00, 
2484.00, 
2485.00, 
2486.00, 
2487.00, 
2488.00, 
2489.00, 
2490.00, 
2491.00, 
2492.00, 
2493.00, 
2494.00, 
2495.00, 
2496.00, 
2497.00, 
2498.00, 
2499.00, 
2500.00, 
2501.00, 
2502.00, 
2503.00, 
2504.00, 
2505.00, 
2506.00, 
2507.00, 
2508.00, 
2509.00, 
2510.00, 
2511.00, 
2512.00, 
2513.00, 
2514.00, 
2515.00, 
2516.00, 
2517.00, 
2518.00, 
2519.00, 
2520.00, 
2521.00, 
2522.00, 
2523.00, 
2524.00, 
2525.00, 
2526.00, 
2527.00, 
2528.00, 
2529.00, 
2530.00, 
2531.00, 
2532.00, 
2533.00, 
2534.00, 
2535.00, 
2536.00, 
2537.00, 
2538.00, 
2539.00, 
2540.00, 
2541.00, 
2542.00, 
2543.00, 
2544.00, 
2545.00, 
2546.00, 
2547.00, 
2548.00, 
2549.00, 
2550.00, 
2551.00, 
2552.00, 
2553.00, 
2554.00, 
2555.00, 
2556.00, 
2557.00, 
2558.00, 
2559.00, 
2560.00, 
2561.00, 
2562.00, 
2563.00, 
2564.00, 
2565.00, 
2566.00, 
2567.00, 
2568.00, 
2569.00, 
2570.00, 
2571.00, 
2572.00, 
2573.00, 
2574.00, 
2575.00, 
2576.00, 
2577.00, 
2578.00, 
2579.00, 
2580.00, 
2581.00, 
2582.00, 
2583.00, 
2584.00, 
2585.00, 
2586.00, 
2587.00, 
2588.00, 
2589.00, 
2590.00, 
2591.00, 
2592.00, 
2593.00, 
2594.00, 
2595.00, 
2596.00, 
2597.00, 
2598.00, 
2599.00, 
2600.00, 
