"2cP5 - RawData"
"Wavelength nm.","T%"
200.00,0.006
201.00,-0.000
202.00,0.002
203.00,0.001
204.00,-0.002
205.00,0.004
206.00,0.002
207.00,-0.000
208.00,0.002
209.00,0.004
210.00,0.006
211.00,0.001
212.00,-0.001
213.00,0.004
214.00,0.001
215.00,-0.001
216.00,-0.001
217.00,0.000
218.00,0.001
219.00,0.002
220.00,0.001
221.00,0.002
222.00,0.003
223.00,0.004
224.00,0.002
225.00,0.000
226.00,-0.000
227.00,0.002
228.00,0.001
229.00,0.000
230.00,0.001
231.00,0.001
232.00,0.000
233.00,0.001
234.00,-0.000
235.00,0.001
236.00,0.002
237.00,0.000
238.00,-0.002
239.00,0.001
240.00,0.001
241.00,0.003
242.00,0.000
243.00,-0.000
244.00,0.001
245.00,0.001
246.00,0.003
247.00,0.002
248.00,-0.000
249.00,-0.002
250.00,0.001
251.00,0.000
252.00,0.000
253.00,0.001
254.00,0.000
255.00,0.000
256.00,-0.002
257.00,-0.002
258.00,-0.000
259.00,0.000
260.00,0.001
261.00,0.000
262.00,0.002
263.00,-0.000
264.00,0.001
265.00,0.001
266.00,0.001
267.00,0.001
268.00,0.002
269.00,0.000
270.00,0.002
271.00,0.002
272.00,0.001
273.00,-0.001
274.00,0.002
275.00,-0.000
276.00,0.001
277.00,-0.000
278.00,-0.000
279.00,-0.000
280.00,0.001
281.00,0.001
282.00,-0.002
283.00,-0.001
284.00,-0.001
285.00,0.000
286.00,0.002
287.00,0.002
288.00,0.001
289.00,0.000
290.00,-0.001
291.00,-0.002
292.00,0.000
293.00,-0.001
294.00,0.000
295.00,0.002
296.00,-0.000
297.00,-0.001
298.00,0.001
299.00,0.003
300.00,0.003
301.00,0.005
302.00,0.006
303.00,0.008
304.00,0.014
305.00,0.024
306.00,0.035
307.00,0.047
308.00,0.072
309.00,0.116
310.00,0.156
311.00,0.215
312.00,0.311
313.00,0.420
314.00,0.557
315.00,0.708
316.00,0.930
317.00,1.172
318.00,1.448
319.00,1.790
320.00,2.186
321.00,2.609
322.00,3.083
323.00,3.652
324.00,4.203
325.00,4.805
326.00,5.437
327.00,6.127
328.00,6.844
329.00,7.601
330.00,8.378
331.00,9.121
332.00,9.908
333.00,10.750
334.00,11.430
335.00,12.362
336.00,13.148
337.00,14.001
338.00,14.739
339.00,15.494
340.00,16.189
341.00,16.949
342.00,17.632
343.00,18.333
344.00,18.971
345.00,19.481
346.00,20.102
347.00,20.697
348.00,21.224
349.00,21.693
350.00,22.200
351.00,22.656
352.00,23.000
353.00,23.446
354.00,23.750
355.00,24.125
356.00,24.460
357.00,24.757
358.00,25.098
359.00,25.363
360.00,25.652
361.00,25.722
362.00,25.980
363.00,26.278
364.00,26.414
365.00,26.558
366.00,26.632
367.00,26.721
368.00,26.817
369.00,26.949
370.00,27.023
371.00,27.143
372.00,27.177
373.00,27.134
374.00,27.203
375.00,27.150
376.00,27.132
377.00,27.234
378.00,27.010
379.00,26.944
380.00,27.036
381.00,27.082
382.00,27.051
383.00,27.017
384.00,27.118
385.00,27.193
386.00,27.195
387.00,27.328
388.00,27.402
389.00,27.444
390.00,27.454
391.00,27.549
392.00,27.546
393.00,27.596
394.00,27.606
395.00,27.616
396.00,27.644
397.00,27.675
398.00,27.706
399.00,27.814
400.00,27.804
401.00,27.798
402.00,27.930
403.00,27.991
404.00,27.854
405.00,27.874
406.00,27.942
407.00,27.876
408.00,27.899
409.00,27.780
410.00,27.809
411.00,27.738
412.00,27.703
413.00,27.728
414.00,27.804
415.00,27.811
416.00,27.899
417.00,27.936
418.00,27.931
419.00,28.019
420.00,28.155
421.00,27.992
422.00,28.032
423.00,28.080
424.00,28.119
425.00,28.149
426.00,28.224
427.00,28.301
428.00,28.350
429.00,28.384
430.00,28.387
431.00,28.424
432.00,28.510
433.00,28.554
434.00,28.592
435.00,28.654
436.00,28.711
437.00,28.856
438.00,28.949
439.00,28.961
440.00,29.038
441.00,29.108
442.00,29.248
443.00,29.360
444.00,29.453
445.00,29.528
446.00,29.604
447.00,29.740
448.00,29.778
449.00,29.905
450.00,29.961
451.00,30.074
452.00,30.153
453.00,30.260
454.00,30.375
455.00,30.490
456.00,30.593
457.00,30.761
458.00,30.872
459.00,30.970
460.00,31.101
461.00,31.211
462.00,31.314
463.00,31.490
464.00,31.525
465.00,31.734
466.00,31.844
467.00,31.924
468.00,32.038
469.00,32.198
470.00,32.209
471.00,32.276
472.00,32.424
473.00,32.468
474.00,32.540
475.00,32.633
476.00,32.727
477.00,32.904
478.00,32.968
479.00,33.082
480.00,33.265
481.00,33.375
482.00,33.511
483.00,33.607
484.00,33.792
485.00,33.991
486.00,34.081
487.00,34.284
488.00,34.468
489.00,34.521
490.00,34.796
491.00,34.974
492.00,34.845
493.00,34.956
494.00,34.918
495.00,35.135
496.00,35.225
497.00,35.315
498.00,35.572
499.00,35.676
500.00,35.830
501.00,35.904
502.00,36.013
503.00,36.072
504.00,36.172
505.00,36.271
506.00,36.307
507.00,36.492
508.00,36.653
509.00,36.748
510.00,36.769
511.00,36.939
512.00,37.062
513.00,37.134
514.00,37.231
515.00,37.327
516.00,37.406
517.00,37.535
518.00,37.557
519.00,37.580
520.00,37.686
521.00,37.856
522.00,37.828
523.00,37.852
524.00,37.982
525.00,38.279
526.00,38.288
527.00,38.386
528.00,38.515
529.00,38.673
530.00,38.787
531.00,38.835
532.00,38.846
533.00,38.976
534.00,38.947
535.00,39.103
536.00,39.215
537.00,39.229
538.00,39.261
539.00,39.307
540.00,39.366
541.00,39.457
542.00,39.454
543.00,39.452
544.00,39.587
545.00,39.603
546.00,39.685
547.00,39.731
548.00,39.779
549.00,39.885
550.00,39.961
551.00,40.139
552.00,40.115
553.00,40.021
554.00,40.021
555.00,40.344
556.00,40.356
557.00,40.316
558.00,40.388
559.00,40.431
560.00,40.625
561.00,40.715
562.00,40.616
563.00,40.704
564.00,40.719
565.00,40.701
566.00,40.804
567.00,40.779
568.00,40.811
569.00,40.816
570.00,40.827
571.00,40.937
572.00,40.907
573.00,40.910
574.00,40.900
575.00,40.853
576.00,40.920
577.00,40.990
578.00,41.120
579.00,41.138
580.00,41.270
581.00,41.315
582.00,41.390
583.00,41.488
584.00,41.548
585.00,41.574
586.00,41.651
587.00,41.647
588.00,41.596
589.00,41.635
590.00,41.618
591.00,41.598
592.00,41.684
593.00,41.788
594.00,41.791
595.00,41.861
596.00,41.925
597.00,42.115
598.00,42.084
599.00,41.974
600.00,42.246
601.00,42.325
602.00,42.059
603.00,42.044
604.00,42.075
605.00,42.125
606.00,42.130
607.00,42.358
608.00,42.310
609.00,42.349
610.00,42.449
611.00,42.257
612.00,42.383
613.00,42.488
614.00,42.603
615.00,42.605
616.00,42.581
617.00,42.678
618.00,42.593
619.00,42.564
620.00,42.727
621.00,42.798
622.00,42.816
623.00,42.859
624.00,42.948
625.00,43.030
626.00,43.034
627.00,43.016
628.00,43.114
629.00,43.075
630.00,43.186
631.00,43.153
632.00,43.337
633.00,43.407
634.00,43.390
635.00,43.442
636.00,43.467
637.00,43.448
638.00,43.543
639.00,43.662
640.00,43.575
641.00,43.594
642.00,43.770
643.00,43.884
644.00,43.843
645.00,44.058
646.00,44.121
647.00,44.103
648.00,44.214
649.00,44.274
650.00,44.268
651.00,44.248
652.00,44.407
653.00,44.524
654.00,44.575
655.00,44.706
656.00,45.125
657.00,44.992
658.00,44.971
659.00,44.859
660.00,45.011
661.00,44.692
662.00,45.291
663.00,45.171
664.00,45.418
665.00,45.261
666.00,45.199
667.00,45.525
668.00,45.766
669.00,45.377
670.00,45.492
671.00,45.722
672.00,45.893
673.00,45.734
674.00,45.909
675.00,45.902
676.00,45.946
677.00,46.028
678.00,45.988
679.00,46.315
680.00,46.552
681.00,46.204
682.00,46.402
683.00,46.326
684.00,46.218
685.00,46.359
686.00,46.290
687.00,46.362
688.00,46.733
689.00,46.790
690.00,46.682
691.00,46.921
692.00,47.168
693.00,46.834
694.00,46.794
695.00,47.061
696.00,47.148
697.00,47.144
698.00,47.270
699.00,47.155
700.00,47.078
701.00,47.284
702.00,47.672
703.00,47.607
704.00,47.443
705.00,47.826
706.00,48.221
707.00,47.680
708.00,47.638
709.00,47.654
710.00,47.807
711.00,47.803
712.00,48.039
713.00,48.143
714.00,48.195
715.00,48.178
716.00,47.997
717.00,48.092
718.00,48.321
719.00,48.247
720.00,48.296
721.00,53.282
722.00,53.234
723.00,53.248
724.00,53.188
725.00,53.232
726.00,53.129
727.00,53.295
728.00,53.154
729.00,53.242
730.00,53.311
731.00,53.261
732.00,53.149
733.00,53.253
734.00,53.314
735.00,53.418
736.00,53.397
737.00,53.479
738.00,53.531
739.00,53.504
740.00,53.320
741.00,53.289
742.00,53.460
743.00,53.392
744.00,53.333
745.00,53.280
746.00,53.282
747.00,53.476
748.00,53.378
749.00,53.191
750.00,53.324
751.00,53.357
752.00,53.205
753.00,53.328
754.00,53.140
755.00,53.397
756.00,53.297
757.00,53.299
758.00,53.096
759.00,53.258
760.00,53.310
761.00,53.216
762.00,53.221
763.00,53.287
764.00,53.293
765.00,53.349
766.00,53.372
767.00,53.150
768.00,53.316
769.00,53.278
770.00,53.295
771.00,53.280
772.00,53.199
773.00,53.229
774.00,53.265
775.00,53.218
776.00,53.305
777.00,53.312
778.00,53.211
779.00,53.206
780.00,53.273
781.00,53.081
782.00,53.216
783.00,53.277
784.00,53.214
785.00,53.128
786.00,53.216
787.00,53.207
788.00,53.186
789.00,53.223
790.00,53.109
791.00,53.073
792.00,53.108
793.00,52.934
794.00,53.024
795.00,53.054
796.00,53.087
797.00,52.999
798.00,53.033
799.00,52.910
800.00,52.956
801.00,52.885
802.00,52.933
803.00,52.792
804.00,52.813
805.00,52.852
806.00,52.841
807.00,52.708
808.00,52.815
809.00,52.696
810.00,52.740
811.00,52.675
812.00,52.593
813.00,52.690
814.00,52.565
815.00,52.666
816.00,52.606
817.00,52.625
818.00,52.498
819.00,52.638
820.00,52.550
821.00,52.509
822.00,52.583
823.00,52.438
824.00,52.352
825.00,52.455
826.00,52.489
827.00,52.314
828.00,52.411
829.00,52.343
830.00,52.233
831.00,54.513
832.00,54.408
833.00,54.472
834.00,54.445
835.00,54.426
836.00,54.419
837.00,54.438
838.00,54.419
839.00,54.361
840.00,54.412
841.00,54.391
842.00,54.258
843.00,54.410
844.00,54.322
845.00,54.308
846.00,54.189
847.00,54.171
848.00,54.186
849.00,54.114
850.00,54.126
851.00,54.066
852.00,54.040
853.00,54.077
854.00,53.931
855.00,53.945
856.00,53.840
857.00,53.959
858.00,53.802
859.00,53.822
860.00,53.831
861.00,53.839
862.00,53.825
863.00,53.797
864.00,53.801
865.00,53.727
866.00,53.795
867.00,53.736
868.00,53.761
869.00,53.664
870.00,53.715
871.00,53.819
872.00,53.689
873.00,53.644
874.00,53.683
875.00,53.604
876.00,53.609
877.00,53.604
878.00,53.560
879.00,53.491
880.00,53.564
881.00,53.489
882.00,53.530
883.00,53.522
884.00,53.460
885.00,53.469
886.00,53.423
887.00,53.398
888.00,53.382
889.00,53.386
890.00,53.358
891.00,53.356
892.00,53.298
893.00,53.338
894.00,53.269
895.00,53.243
896.00,53.210
897.00,53.223
898.00,53.139
899.00,53.216
900.00,53.116
901.00,53.163
902.00,53.190
903.00,53.121
904.00,53.073
905.00,53.037
906.00,53.096
907.00,53.018
908.00,52.983
909.00,52.999
910.00,52.977
911.00,53.000
912.00,52.983
913.00,52.933
914.00,52.954
915.00,52.869
916.00,52.841
917.00,52.827
918.00,52.836
919.00,52.824
920.00,52.740
921.00,52.760
922.00,52.749
923.00,52.719
924.00,52.682
925.00,52.682
926.00,52.666
927.00,52.644
928.00,52.638
929.00,52.603
930.00,52.602
931.00,52.574
932.00,52.530
933.00,52.534
934.00,52.549
935.00,52.511
936.00,52.465
937.00,52.465
938.00,52.467
939.00,52.425
940.00,52.423
941.00,52.406
942.00,52.386
943.00,52.360
944.00,52.331
945.00,52.283
946.00,52.313
947.00,52.267
948.00,52.272
949.00,52.250
950.00,52.230
951.00,52.192
952.00,52.160
953.00,52.156
954.00,52.127
955.00,52.058
956.00,52.029
957.00,52.024
958.00,52.019
959.00,51.999
960.00,51.949
961.00,51.970
962.00,51.979
963.00,51.951
964.00,51.929
965.00,51.962
966.00,51.892
967.00,51.880
968.00,51.856
969.00,51.907
970.00,51.885
971.00,51.870
972.00,51.924
973.00,51.863
974.00,51.892
975.00,51.874
976.00,51.863
977.00,51.871
978.00,51.877
979.00,51.869
980.00,51.836
981.00,51.864
982.00,51.798
983.00,51.838
984.00,51.809
985.00,51.818
986.00,51.796
987.00,51.816
988.00,51.805
989.00,51.751
990.00,51.780
991.00,51.762
992.00,51.773
993.00,51.739
994.00,51.714
995.00,51.732
996.00,51.674
997.00,51.711
998.00,51.676
999.00,51.658
1000.00,51.635
1001.00,51.627
1002.00,51.639
1003.00,51.608
1004.00,51.619
1005.00,51.568
1006.00,51.595
1007.00,51.586
1008.00,51.547
1009.00,51.542
1010.00,51.499
1011.00,51.524
1012.00,51.465
1013.00,51.474
1014.00,51.477
1015.00,51.460
1016.00,51.454
1017.00,51.393
1018.00,51.418
1019.00,51.391
1020.00,51.410
1021.00,51.384
1022.00,51.354
1023.00,51.340
1024.00,51.326
1025.00,51.320
1026.00,51.288
1027.00,51.297
1028.00,51.248
1029.00,51.246
1030.00,51.220
1031.00,51.196
1032.00,51.197
1033.00,51.162
1034.00,51.153
1035.00,51.119
1036.00,51.125
1037.00,51.093
1038.00,51.064
1039.00,51.032
1040.00,51.022
1041.00,50.997
1042.00,50.978
1043.00,50.964
1044.00,50.978
1045.00,50.986
1046.00,50.985
1047.00,51.030
1048.00,51.018
1049.00,51.009
1050.00,51.002
1051.00,51.042
1052.00,51.037
1053.00,51.043
1054.00,51.055
1055.00,51.043
1056.00,51.067
1057.00,51.078
1058.00,51.076
1059.00,51.068
1060.00,51.087
1061.00,51.055
1062.00,51.063
1063.00,51.045
1064.00,51.053
1065.00,51.024
1066.00,51.007
1067.00,50.993
1068.00,51.001
1069.00,50.961
1070.00,50.977
1071.00,50.979
1072.00,50.957
1073.00,50.949
1074.00,50.950
1075.00,50.936
1076.00,50.922
1077.00,50.909
1078.00,50.900
1079.00,50.901
1080.00,50.890
1081.00,50.887
1082.00,50.865
1083.00,50.859
1084.00,50.851
1085.00,50.850
1086.00,50.846
1087.00,50.843
1088.00,50.825
1089.00,50.841
1090.00,50.829
1091.00,50.827
1092.00,50.796
1093.00,50.792
1094.00,50.780
1095.00,50.787
1096.00,50.728
1097.00,50.720
1098.00,50.735
1099.00,50.706
1100.00,50.705
1101.00,50.706
1102.00,50.685
1103.00,50.684
1104.00,50.675
1105.00,50.658
1106.00,50.653
1107.00,50.649
1108.00,50.639
1109.00,50.651
1110.00,50.628
1111.00,50.629
1112.00,50.609
1113.00,50.616
1114.00,50.596
1115.00,50.604
1116.00,50.578
1117.00,50.568
1118.00,50.564
1119.00,50.549
1120.00,50.548
1121.00,50.512
1122.00,50.533
1123.00,50.535
1124.00,50.490
1125.00,50.504
1126.00,50.492
1127.00,50.481
1128.00,50.474
1129.00,50.472
1130.00,50.466
1131.00,50.460
1132.00,50.440
1133.00,50.439
1134.00,50.420
1135.00,50.413
1136.00,50.411
1137.00,50.410
1138.00,50.416
1139.00,50.432
1140.00,50.402
1141.00,50.414
1142.00,50.408
1143.00,50.409
1144.00,50.385
1145.00,50.392
1146.00,50.378
1147.00,50.378
1148.00,50.358
1149.00,50.366
1150.00,50.372
1151.00,50.353
1152.00,50.341
1153.00,50.370
1154.00,50.339
1155.00,50.343
1156.00,50.329
1157.00,50.338
1158.00,50.348
1159.00,50.324
1160.00,50.341
1161.00,50.334
1162.00,50.344
1163.00,50.339
1164.00,50.353
1165.00,50.332
1166.00,50.320
1167.00,50.324
1168.00,50.328
1169.00,50.323
1170.00,50.348
1171.00,50.317
1172.00,50.316
1173.00,50.324
1174.00,50.304
1175.00,50.315
1176.00,50.283
1177.00,50.296
1178.00,50.285
1179.00,50.312
1180.00,50.285
1181.00,50.295
1182.00,50.286
1183.00,50.293
1184.00,50.299
1185.00,50.307
1186.00,50.294
1187.00,50.267
1188.00,50.295
1189.00,50.271
1190.00,50.284
1191.00,50.266
1192.00,50.285
1193.00,50.291
1194.00,50.278
1195.00,50.277
1196.00,50.271
1197.00,50.297
1198.00,50.268
1199.00,50.276
1200.00,50.273
1201.00,50.280
1202.00,50.262
1203.00,50.271
1204.00,50.263
1205.00,50.259
1206.00,50.257
1207.00,50.246
1208.00,50.266
1209.00,50.257
1210.00,50.280
1211.00,50.235
1212.00,50.242
1213.00,50.254
1214.00,50.249
1215.00,50.264
1216.00,50.237
1217.00,50.253
1218.00,50.239
1219.00,50.231
1220.00,50.225
1221.00,50.250
1222.00,50.246
1223.00,50.241
1224.00,50.269
1225.00,50.244
1226.00,50.283
1227.00,50.242
1228.00,50.249
1229.00,50.260
1230.00,50.291
1231.00,50.278
1232.00,50.265
1233.00,50.308
1234.00,50.273
1235.00,50.302
1236.00,50.287
1237.00,50.303
1238.00,50.299
1239.00,50.302
1240.00,50.270
1241.00,50.290
1242.00,50.296
1243.00,50.279
1244.00,50.290
1245.00,50.294
1246.00,50.328
1247.00,50.308
1248.00,50.324
1249.00,50.321
1250.00,50.346
1251.00,50.306
1252.00,50.321
1253.00,50.318
1254.00,50.352
1255.00,50.322
1256.00,50.322
1257.00,50.293
1258.00,50.330
1259.00,50.325
1260.00,50.338
1261.00,50.321
1262.00,50.314
1263.00,50.329
1264.00,50.326
1265.00,50.348
1266.00,50.341
1267.00,50.370
1268.00,50.358
1269.00,50.368
1270.00,50.374
1271.00,50.391
1272.00,50.387
1273.00,50.395
1274.00,50.399
1275.00,50.402
1276.00,50.412
1277.00,50.422
1278.00,50.407
1279.00,50.421
1280.00,50.407
1281.00,50.420
1282.00,50.414
1283.00,50.396
1284.00,50.421
1285.00,50.428
1286.00,50.422
1287.00,50.426
1288.00,50.431
1289.00,50.427
1290.00,50.466
1291.00,50.467
1292.00,50.462
1293.00,50.478
1294.00,50.497
1295.00,50.483
1296.00,50.482
1297.00,50.471
1298.00,50.486
1299.00,50.523
1300.00,50.505
1301.00,50.528
1302.00,50.576
1303.00,50.538
1304.00,50.559
1305.00,50.541
1306.00,50.545
1307.00,50.556
1308.00,50.533
1309.00,50.561
1310.00,50.563
1311.00,50.551
1312.00,50.544
1313.00,50.542
1314.00,50.569
1315.00,50.570
1316.00,50.571
1317.00,50.585
1318.00,50.602
1319.00,50.617
1320.00,50.593
1321.00,50.787
1322.00,50.745
1323.00,50.747
1324.00,50.740
1325.00,50.759
1326.00,50.759
1327.00,50.756
1328.00,50.746
1329.00,50.757
1330.00,50.733
1331.00,50.771
1332.00,50.759
1333.00,50.766
1334.00,50.777
1335.00,50.804
1336.00,50.867
1337.00,50.882
1338.00,50.944
1339.00,50.961
1340.00,51.010
1341.00,51.076
1342.00,51.149
1343.00,51.187
1344.00,51.217
1345.00,51.285
1346.00,51.378
1347.00,51.342
1348.00,51.360
1349.00,51.374
1350.00,51.440
1351.00,51.402
1352.00,51.375
1353.00,51.435
1354.00,51.453
1355.00,51.407
1356.00,51.413
1357.00,51.431
1358.00,51.559
1359.00,51.457
1360.00,51.531
1361.00,51.494
1362.00,51.466
1363.00,51.467
1364.00,51.417
1365.00,51.555
1366.00,51.825
1367.00,51.554
1368.00,51.532
1369.00,51.894
1370.00,51.422
1371.00,51.446
1372.00,51.415
1373.00,51.398
1374.00,51.481
1375.00,51.422
1376.00,51.527
1377.00,51.296
1378.00,51.714
1379.00,51.080
1380.00,51.702
1381.00,51.090
1382.00,51.396
1383.00,51.397
1384.00,51.415
1385.00,51.628
1386.00,51.539
1387.00,51.443
1388.00,51.414
1389.00,51.416
1390.00,51.390
1391.00,51.128
1392.00,51.393
1393.00,51.482
1394.00,51.509
1395.00,51.257
1396.00,51.430
1397.00,51.533
1398.00,51.563
1399.00,51.415
1400.00,51.422
1401.00,51.514
1402.00,51.660
1403.00,51.594
1404.00,51.514
1405.00,51.432
1406.00,51.545
1407.00,51.446
1408.00,51.448
1409.00,51.463
1410.00,51.500
1411.00,51.457
1412.00,51.591
1413.00,51.517
1414.00,51.491
1415.00,51.555
1416.00,51.523
1417.00,51.577
1418.00,51.558
1419.00,51.577
1420.00,51.597
1421.00,51.648
1422.00,51.580
1423.00,51.665
1424.00,51.622
1425.00,51.667
1426.00,51.665
1427.00,51.689
1428.00,51.692
1429.00,51.714
1430.00,51.718
1431.00,51.685
1432.00,51.748
1433.00,51.699
1434.00,51.766
1435.00,51.790
1436.00,51.767
1437.00,51.789
1438.00,51.798
1439.00,51.861
1440.00,51.851
1441.00,51.899
1442.00,51.890
1443.00,51.900
1444.00,51.955
1445.00,51.908
1446.00,51.956
1447.00,51.959
1448.00,52.024
1449.00,51.977
1450.00,52.017
1451.00,51.999
1452.00,52.034
1453.00,52.041
1454.00,51.994
1455.00,52.070
1456.00,52.044
1457.00,52.093
1458.00,52.098
1459.00,52.122
1460.00,52.115
1461.00,52.165
1462.00,52.131
1463.00,52.174
1464.00,52.185
1465.00,52.199
1466.00,52.203
1467.00,52.230
1468.00,52.261
1469.00,52.253
1470.00,52.295
1471.00,52.277
1472.00,52.299
1473.00,52.309
1474.00,52.330
1475.00,52.349
1476.00,52.341
1477.00,52.347
1478.00,52.395
1479.00,52.391
1480.00,52.405
1481.00,52.409
1482.00,52.441
1483.00,52.453
1484.00,52.427
1485.00,52.452
1486.00,52.450
1487.00,52.484
1488.00,52.463
1489.00,52.511
1490.00,52.495
1491.00,52.525
1492.00,52.520
1493.00,52.542
1494.00,52.539
1495.00,52.560
1496.00,52.542
1497.00,52.574
1498.00,52.549
1499.00,52.602
1500.00,52.604
1501.00, 
1502.00, 
1503.00, 
1504.00, 
1505.00, 
1506.00, 
1507.00, 
1508.00, 
1509.00, 
1510.00, 
1511.00, 
1512.00, 
1513.00, 
1514.00, 
1515.00, 
1516.00, 
1517.00, 
1518.00, 
1519.00, 
1520.00, 
1521.00, 
1522.00, 
1523.00, 
1524.00, 
1525.00, 
1526.00, 
1527.00, 
1528.00, 
1529.00, 
1530.00, 
1531.00, 
1532.00, 
1533.00, 
1534.00, 
1535.00, 
1536.00, 
1537.00, 
1538.00, 
1539.00, 
1540.00, 
1541.00, 
1542.00, 
1543.00, 
1544.00, 
1545.00, 
1546.00, 
1547.00, 
1548.00, 
1549.00, 
1550.00, 
1551.00, 
1552.00, 
1553.00, 
1554.00, 
1555.00, 
1556.00, 
1557.00, 
1558.00, 
1559.00, 
1560.00, 
1561.00, 
1562.00, 
1563.00, 
1564.00, 
1565.00, 
1566.00, 
1567.00, 
1568.00, 
1569.00, 
1570.00, 
1571.00, 
1572.00, 
1573.00, 
1574.00, 
1575.00, 
1576.00, 
1577.00, 
1578.00, 
1579.00, 
1580.00, 
1581.00, 
1582.00, 
1583.00, 
1584.00, 
1585.00, 
1586.00, 
1587.00, 
1588.00, 
1589.00, 
1590.00, 
1591.00, 
1592.00, 
1593.00, 
1594.00, 
1595.00, 
1596.00, 
1597.00, 
1598.00, 
1599.00, 
1600.00, 
1601.00, 
1602.00, 
1603.00, 
1604.00, 
1605.00, 
1606.00, 
1607.00, 
1608.00, 
1609.00, 
1610.00, 
1611.00, 
1612.00, 
1613.00, 
1614.00, 
1615.00, 
1616.00, 
1617.00, 
1618.00, 
1619.00, 
1620.00, 
1621.00, 
1622.00, 
1623.00, 
1624.00, 
1625.00, 
1626.00, 
1627.00, 
1628.00, 
1629.00, 
1630.00, 
1631.00, 
1632.00, 
1633.00, 
1634.00, 
1635.00, 
1636.00, 
1637.00, 
1638.00, 
1639.00, 
1640.00, 
1641.00, 
1642.00, 
1643.00, 
1644.00, 
1645.00, 
1646.00, 
1647.00, 
1648.00, 
1649.00, 
1650.00, 
1651.00, 
1652.00, 
1653.00, 
1654.00, 
1655.00, 
1656.00, 
1657.00, 
1658.00, 
1659.00, 
1660.00, 
1661.00, 
1662.00, 
1663.00, 
1664.00, 
1665.00, 
1666.00, 
1667.00, 
1668.00, 
1669.00, 
1670.00, 
1671.00, 
1672.00, 
1673.00, 
1674.00, 
1675.00, 
1676.00, 
1677.00, 
1678.00, 
1679.00, 
1680.00, 
1681.00, 
1682.00, 
1683.00, 
1684.00, 
1685.00, 
1686.00, 
1687.00, 
1688.00, 
1689.00, 
1690.00, 
1691.00, 
1692.00, 
1693.00, 
1694.00, 
1695.00, 
1696.00, 
1697.00, 
1698.00, 
1699.00, 
1700.00, 
1701.00, 
1702.00, 
1703.00, 
1704.00, 
1705.00, 
1706.00, 
1707.00, 
1708.00, 
1709.00, 
1710.00, 
1711.00, 
1712.00, 
1713.00, 
1714.00, 
1715.00, 
1716.00, 
1717.00, 
1718.00, 
1719.00, 
1720.00, 
1721.00, 
1722.00, 
1723.00, 
1724.00, 
1725.00, 
1726.00, 
1727.00, 
1728.00, 
1729.00, 
1730.00, 
1731.00, 
1732.00, 
1733.00, 
1734.00, 
1735.00, 
1736.00, 
1737.00, 
1738.00, 
1739.00, 
1740.00, 
1741.00, 
1742.00, 
1743.00, 
1744.00, 
1745.00, 
1746.00, 
1747.00, 
1748.00, 
1749.00, 
1750.00, 
1751.00, 
1752.00, 
1753.00, 
1754.00, 
1755.00, 
1756.00, 
1757.00, 
1758.00, 
1759.00, 
1760.00, 
1761.00, 
1762.00, 
1763.00, 
1764.00, 
1765.00, 
1766.00, 
1767.00, 
1768.00, 
1769.00, 
1770.00, 
1771.00, 
1772.00, 
1773.00, 
1774.00, 
1775.00, 
1776.00, 
1777.00, 
1778.00, 
1779.00, 
1780.00, 
1781.00, 
1782.00, 
1783.00, 
1784.00, 
1785.00, 
1786.00, 
1787.00, 
1788.00, 
1789.00, 
1790.00, 
1791.00, 
1792.00, 
1793.00, 
1794.00, 
1795.00, 
1796.00, 
1797.00, 
1798.00, 
1799.00, 
1800.00, 
1801.00, 
1802.00, 
1803.00, 
1804.00, 
1805.00, 
1806.00, 
1807.00, 
1808.00, 
1809.00, 
1810.00, 
1811.00, 
1812.00, 
1813.00, 
1814.00, 
1815.00, 
1816.00, 
1817.00, 
1818.00, 
1819.00, 
1820.00, 
1821.00, 
1822.00, 
1823.00, 
1824.00, 
1825.00, 
1826.00, 
1827.00, 
1828.00, 
1829.00, 
1830.00, 
1831.00, 
1832.00, 
1833.00, 
1834.00, 
1835.00, 
1836.00, 
1837.00, 
1838.00, 
1839.00, 
1840.00, 
1841.00, 
1842.00, 
1843.00, 
1844.00, 
1845.00, 
1846.00, 
1847.00, 
1848.00, 
1849.00, 
1850.00, 
1851.00, 
1852.00, 
1853.00, 
1854.00, 
1855.00, 
1856.00, 
1857.00, 
1858.00, 
1859.00, 
1860.00, 
1861.00, 
1862.00, 
1863.00, 
1864.00, 
1865.00, 
1866.00, 
1867.00, 
1868.00, 
1869.00, 
1870.00, 
1871.00, 
1872.00, 
1873.00, 
1874.00, 
1875.00, 
1876.00, 
1877.00, 
1878.00, 
1879.00, 
1880.00, 
1881.00, 
1882.00, 
1883.00, 
1884.00, 
1885.00, 
1886.00, 
1887.00, 
1888.00, 
1889.00, 
1890.00, 
1891.00, 
1892.00, 
1893.00, 
1894.00, 
1895.00, 
1896.00, 
1897.00, 
1898.00, 
1899.00, 
1900.00, 
1901.00, 
1902.00, 
1903.00, 
1904.00, 
1905.00, 
1906.00, 
1907.00, 
1908.00, 
1909.00, 
1910.00, 
1911.00, 
1912.00, 
1913.00, 
1914.00, 
1915.00, 
1916.00, 
1917.00, 
1918.00, 
1919.00, 
1920.00, 
1921.00, 
1922.00, 
1923.00, 
1924.00, 
1925.00, 
1926.00, 
1927.00, 
1928.00, 
1929.00, 
1930.00, 
1931.00, 
1932.00, 
1933.00, 
1934.00, 
1935.00, 
1936.00, 
1937.00, 
1938.00, 
1939.00, 
1940.00, 
1941.00, 
1942.00, 
1943.00, 
1944.00, 
1945.00, 
1946.00, 
1947.00, 
1948.00, 
1949.00, 
1950.00, 
1951.00, 
1952.00, 
1953.00, 
1954.00, 
1955.00, 
1956.00, 
1957.00, 
1958.00, 
1959.00, 
1960.00, 
1961.00, 
1962.00, 
1963.00, 
1964.00, 
1965.00, 
1966.00, 
1967.00, 
1968.00, 
1969.00, 
1970.00, 
1971.00, 
1972.00, 
1973.00, 
1974.00, 
1975.00, 
1976.00, 
1977.00, 
1978.00, 
1979.00, 
1980.00, 
1981.00, 
1982.00, 
1983.00, 
1984.00, 
1985.00, 
1986.00, 
1987.00, 
1988.00, 
1989.00, 
1990.00, 
1991.00, 
1992.00, 
1993.00, 
1994.00, 
1995.00, 
1996.00, 
1997.00, 
1998.00, 
1999.00, 
2000.00, 
2001.00, 
2002.00, 
2003.00, 
2004.00, 
2005.00, 
2006.00, 
2007.00, 
2008.00, 
2009.00, 
2010.00, 
2011.00, 
2012.00, 
2013.00, 
2014.00, 
2015.00, 
2016.00, 
2017.00, 
2018.00, 
2019.00, 
2020.00, 
2021.00, 
2022.00, 
2023.00, 
2024.00, 
2025.00, 
2026.00, 
2027.00, 
2028.00, 
2029.00, 
2030.00, 
2031.00, 
2032.00, 
2033.00, 
2034.00, 
2035.00, 
2036.00, 
2037.00, 
2038.00, 
2039.00, 
2040.00, 
2041.00, 
2042.00, 
2043.00, 
2044.00, 
2045.00, 
2046.00, 
2047.00, 
2048.00, 
2049.00, 
2050.00, 
2051.00, 
2052.00, 
2053.00, 
2054.00, 
2055.00, 
2056.00, 
2057.00, 
2058.00, 
2059.00, 
2060.00, 
2061.00, 
2062.00, 
2063.00, 
2064.00, 
2065.00, 
2066.00, 
2067.00, 
2068.00, 
2069.00, 
2070.00, 
2071.00, 
2072.00, 
2073.00, 
2074.00, 
2075.00, 
2076.00, 
2077.00, 
2078.00, 
2079.00, 
2080.00, 
2081.00, 
2082.00, 
2083.00, 
2084.00, 
2085.00, 
2086.00, 
2087.00, 
2088.00, 
2089.00, 
2090.00, 
2091.00, 
2092.00, 
2093.00, 
2094.00, 
2095.00, 
2096.00, 
2097.00, 
2098.00, 
2099.00, 
2100.00, 
2101.00, 
2102.00, 
2103.00, 
2104.00, 
2105.00, 
2106.00, 
2107.00, 
2108.00, 
2109.00, 
2110.00, 
2111.00, 
2112.00, 
2113.00, 
2114.00, 
2115.00, 
2116.00, 
2117.00, 
2118.00, 
2119.00, 
2120.00, 
2121.00, 
2122.00, 
2123.00, 
2124.00, 
2125.00, 
2126.00, 
2127.00, 
2128.00, 
2129.00, 
2130.00, 
2131.00, 
2132.00, 
2133.00, 
2134.00, 
2135.00, 
2136.00, 
2137.00, 
2138.00, 
2139.00, 
2140.00, 
2141.00, 
2142.00, 
2143.00, 
2144.00, 
2145.00, 
2146.00, 
2147.00, 
2148.00, 
2149.00, 
2150.00, 
2151.00, 
2152.00, 
2153.00, 
2154.00, 
2155.00, 
2156.00, 
2157.00, 
2158.00, 
2159.00, 
2160.00, 
2161.00, 
2162.00, 
2163.00, 
2164.00, 
2165.00, 
2166.00, 
2167.00, 
2168.00, 
2169.00, 
2170.00, 
2171.00, 
2172.00, 
2173.00, 
2174.00, 
2175.00, 
2176.00, 
2177.00, 
2178.00, 
2179.00, 
2180.00, 
2181.00, 
2182.00, 
2183.00, 
2184.00, 
2185.00, 
2186.00, 
2187.00, 
2188.00, 
2189.00, 
2190.00, 
2191.00, 
2192.00, 
2193.00, 
2194.00, 
2195.00, 
2196.00, 
2197.00, 
2198.00, 
2199.00, 
2200.00, 
2201.00, 
2202.00, 
2203.00, 
2204.00, 
2205.00, 
2206.00, 
2207.00, 
2208.00, 
2209.00, 
2210.00, 
2211.00, 
2212.00, 
2213.00, 
2214.00, 
2215.00, 
2216.00, 
2217.00, 
2218.00, 
2219.00, 
2220.00, 
2221.00, 
2222.00, 
2223.00, 
2224.00, 
2225.00, 
2226.00, 
2227.00, 
2228.00, 
2229.00, 
2230.00, 
2231.00, 
2232.00, 
2233.00, 
2234.00, 
2235.00, 
2236.00, 
2237.00, 
2238.00, 
2239.00, 
2240.00, 
2241.00, 
2242.00, 
2243.00, 
2244.00, 
2245.00, 
2246.00, 
2247.00, 
2248.00, 
2249.00, 
2250.00, 
2251.00, 
2252.00, 
2253.00, 
2254.00, 
2255.00, 
2256.00, 
2257.00, 
2258.00, 
2259.00, 
2260.00, 
2261.00, 
2262.00, 
2263.00, 
2264.00, 
2265.00, 
2266.00, 
2267.00, 
2268.00, 
2269.00, 
2270.00, 
2271.00, 
2272.00, 
2273.00, 
2274.00, 
2275.00, 
2276.00, 
2277.00, 
2278.00, 
2279.00, 
2280.00, 
2281.00, 
2282.00, 
2283.00, 
2284.00, 
2285.00, 
2286.00, 
2287.00, 
2288.00, 
2289.00, 
2290.00, 
2291.00, 
2292.00, 
2293.00, 
2294.00, 
2295.00, 
2296.00, 
2297.00, 
2298.00, 
2299.00, 
2300.00, 
2301.00, 
2302.00, 
2303.00, 
2304.00, 
2305.00, 
2306.00, 
2307.00, 
2308.00, 
2309.00, 
2310.00, 
2311.00, 
2312.00, 
2313.00, 
2314.00, 
2315.00, 
2316.00, 
2317.00, 
2318.00, 
2319.00, 
2320.00, 
2321.00, 
2322.00, 
2323.00, 
2324.00, 
2325.00, 
2326.00, 
2327.00, 
2328.00, 
2329.00, 
2330.00, 
2331.00, 
2332.00, 
2333.00, 
2334.00, 
2335.00, 
2336.00, 
2337.00, 
2338.00, 
2339.00, 
2340.00, 
2341.00, 
2342.00, 
2343.00, 
2344.00, 
2345.00, 
2346.00, 
2347.00, 
2348.00, 
2349.00, 
2350.00, 
2351.00, 
2352.00, 
2353.00, 
2354.00, 
2355.00, 
2356.00, 
2357.00, 
2358.00, 
2359.00, 
2360.00, 
2361.00, 
2362.00, 
2363.00, 
2364.00, 
2365.00, 
2366.00, 
2367.00, 
2368.00, 
2369.00, 
2370.00, 
2371.00, 
2372.00, 
2373.00, 
2374.00, 
2375.00, 
2376.00, 
2377.00, 
2378.00, 
2379.00, 
2380.00, 
2381.00, 
2382.00, 
2383.00, 
2384.00, 
2385.00, 
2386.00, 
2387.00, 
2388.00, 
2389.00, 
2390.00, 
2391.00, 
2392.00, 
2393.00, 
2394.00, 
2395.00, 
2396.00, 
2397.00, 
2398.00, 
2399.00, 
2400.00, 
2401.00, 
2402.00, 
2403.00, 
2404.00, 
2405.00, 
2406.00, 
2407.00, 
2408.00, 
2409.00, 
2410.00, 
2411.00, 
2412.00, 
2413.00, 
2414.00, 
2415.00, 
2416.00, 
2417.00, 
2418.00, 
2419.00, 
2420.00, 
2421.00, 
2422.00, 
2423.00, 
2424.00, 
2425.00, 
2426.00, 
2427.00, 
2428.00, 
2429.00, 
2430.00, 
2431.00, 
2432.00, 
2433.00, 
2434.00, 
2435.00, 
2436.00, 
2437.00, 
2438.00, 
2439.00, 
2440.00, 
2441.00, 
2442.00, 
2443.00, 
2444.00, 
2445.00, 
2446.00, 
2447.00, 
2448.00, 
2449.00, 
2450.00, 
2451.00, 
2452.00, 
2453.00, 
2454.00, 
2455.00, 
2456.00, 
2457.00, 
2458.00, 
2459.00, 
2460.00, 
2461.00, 
2462.00, 
2463.00, 
2464.00, 
2465.00, 
2466.00, 
2467.00, 
2468.00, 
2469.00, 
2470.00, 
2471.00, 
2472.00, 
2473.00, 
2474.00, 
2475.00, 
2476.00, 
2477.00, 
2478.00, 
2479.00, 
2480.00, 
2481.00, 
2482.00, 
2483.00, 
2484.00, 
2485.00, 
2486.00, 
2487.00, 
2488.00, 
2489.00, 
2490.00, 
2491.00, 
2492.00, 
2493.00, 
2494.00, 
2495.00, 
2496.00, 
2497.00, 
2498.00, 
2499.00, 
2500.00, 
2501.00, 
2502.00, 
2503.00, 
2504.00, 
2505.00, 
2506.00, 
2507.00, 
2508.00, 
2509.00, 
2510.00, 
2511.00, 
2512.00, 
2513.00, 
2514.00, 
2515.00, 
2516.00, 
2517.00, 
2518.00, 
2519.00, 
2520.00, 
2521.00, 
2522.00, 
2523.00, 
2524.00, 
2525.00, 
2526.00, 
2527.00, 
2528.00, 
2529.00, 
2530.00, 
2531.00, 
2532.00, 
2533.00, 
2534.00, 
2535.00, 
2536.00, 
2537.00, 
2538.00, 
2539.00, 
2540.00, 
2541.00, 
2542.00, 
2543.00, 
2544.00, 
2545.00, 
2546.00, 
2547.00, 
2548.00, 
2549.00, 
2550.00, 
2551.00, 
2552.00, 
2553.00, 
2554.00, 
2555.00, 
2556.00, 
2557.00, 
2558.00, 
2559.00, 
2560.00, 
2561.00, 
2562.00, 
2563.00, 
2564.00, 
2565.00, 
2566.00, 
2567.00, 
2568.00, 
2569.00, 
2570.00, 
2571.00, 
2572.00, 
2573.00, 
2574.00, 
2575.00, 
2576.00, 
2577.00, 
2578.00, 
2579.00, 
2580.00, 
2581.00, 
2582.00, 
2583.00, 
2584.00, 
2585.00, 
2586.00, 
2587.00, 
2588.00, 
2589.00, 
2590.00, 
2591.00, 
2592.00, 
2593.00, 
2594.00, 
2595.00, 
2596.00, 
2597.00, 
2598.00, 
2599.00, 
2600.00, 
