"1bP2 - RawData"
"Wavelength nm.","T%"
200.00,-0.001
201.00,0.003
202.00,0.001
203.00,-0.000
204.00,0.002
205.00,0.003
206.00,-0.002
207.00,0.002
208.00,0.002
209.00,0.002
210.00,0.002
211.00,0.000
212.00,0.002
213.00,0.002
214.00,0.005
215.00,0.002
216.00,0.003
217.00,-0.003
218.00,0.002
219.00,0.002
220.00,0.001
221.00,0.002
222.00,0.003
223.00,0.003
224.00,0.001
225.00,-0.000
226.00,0.000
227.00,0.001
228.00,-0.001
229.00,0.002
230.00,0.001
231.00,-0.002
232.00,0.001
233.00,0.000
234.00,0.001
235.00,0.000
236.00,-0.001
237.00,-0.000
238.00,0.001
239.00,0.001
240.00,0.003
241.00,0.001
242.00,-0.001
243.00,0.002
244.00,0.000
245.00,0.002
246.00,-0.000
247.00,0.001
248.00,0.001
249.00,0.002
250.00,0.001
251.00,0.000
252.00,-0.000
253.00,0.001
254.00,0.001
255.00,0.001
256.00,0.001
257.00,0.002
258.00,-0.000
259.00,-0.000
260.00,0.001
261.00,0.001
262.00,-0.001
263.00,0.001
264.00,-0.001
265.00,-0.001
266.00,0.000
267.00,0.000
268.00,-0.001
269.00,0.000
270.00,-0.000
271.00,0.000
272.00,-0.001
273.00,0.000
274.00,-0.000
275.00,-0.000
276.00,0.001
277.00,0.001
278.00,0.001
279.00,0.001
280.00,-0.001
281.00,0.000
282.00,-0.001
283.00,0.001
284.00,0.001
285.00,-0.000
286.00,-0.000
287.00,-0.001
288.00,0.001
289.00,0.001
290.00,0.001
291.00,0.000
292.00,0.002
293.00,0.000
294.00,0.000
295.00,0.000
296.00,-0.001
297.00,0.001
298.00,0.000
299.00,0.004
300.00,0.004
301.00,0.004
302.00,0.010
303.00,0.015
304.00,0.022
305.00,0.035
306.00,0.058
307.00,0.084
308.00,0.129
309.00,0.195
310.00,0.271
311.00,0.366
312.00,0.501
313.00,0.677
314.00,0.873
315.00,1.114
316.00,1.360
317.00,1.772
318.00,2.176
319.00,2.630
320.00,3.174
321.00,3.785
322.00,4.421
323.00,5.149
324.00,5.838
325.00,6.692
326.00,7.501
327.00,8.418
328.00,9.288
329.00,10.205
330.00,11.158
331.00,12.144
332.00,13.064
333.00,14.064
334.00,15.013
335.00,16.040
336.00,16.966
337.00,17.931
338.00,18.837
339.00,19.672
340.00,20.580
341.00,21.398
342.00,22.172
343.00,22.960
344.00,23.611
345.00,24.366
346.00,24.953
347.00,25.574
348.00,26.214
349.00,26.647
350.00,27.170
351.00,27.651
352.00,28.083
353.00,28.494
354.00,28.894
355.00,29.222
356.00,29.497
357.00,29.829
358.00,30.110
359.00,30.429
360.00,30.711
361.00,30.857
362.00,31.091
363.00,31.318
364.00,31.488
365.00,31.572
366.00,31.766
367.00,31.797
368.00,31.941
369.00,31.979
370.00,31.965
371.00,32.021
372.00,32.040
373.00,32.034
374.00,32.077
375.00,31.989
376.00,32.030
377.00,31.948
378.00,31.888
379.00,31.777
380.00,31.747
381.00,31.698
382.00,31.717
383.00,31.748
384.00,31.874
385.00,31.907
386.00,31.917
387.00,32.046
388.00,32.094
389.00,32.130
390.00,32.165
391.00,32.276
392.00,32.279
393.00,32.314
394.00,32.342
395.00,32.381
396.00,32.339
397.00,32.399
398.00,32.448
399.00,32.438
400.00,32.413
401.00,32.445
402.00,32.459
403.00,32.471
404.00,32.470
405.00,32.435
406.00,32.430
407.00,32.416
408.00,32.369
409.00,32.315
410.00,32.203
411.00,32.232
412.00,32.181
413.00,32.203
414.00,32.175
415.00,32.160
416.00,32.241
417.00,32.218
418.00,32.228
419.00,32.280
420.00,32.287
421.00,32.411
422.00,32.424
423.00,32.408
424.00,32.488
425.00,32.473
426.00,32.481
427.00,32.534
428.00,32.502
429.00,32.632
430.00,32.682
431.00,32.736
432.00,32.790
433.00,32.877
434.00,32.879
435.00,32.968
436.00,32.950
437.00,33.012
438.00,33.116
439.00,33.173
440.00,33.247
441.00,33.294
442.00,33.387
443.00,33.449
444.00,33.487
445.00,33.567
446.00,33.718
447.00,33.726
448.00,33.845
449.00,33.982
450.00,33.998
451.00,34.123
452.00,34.166
453.00,34.334
454.00,34.536
455.00,34.532
456.00,34.604
457.00,34.688
458.00,34.782
459.00,34.881
460.00,35.017
461.00,35.116
462.00,35.241
463.00,35.334
464.00,35.471
465.00,35.544
466.00,35.630
467.00,35.754
468.00,35.839
469.00,35.938
470.00,35.956
471.00,36.062
472.00,36.172
473.00,36.174
474.00,36.250
475.00,36.482
476.00,36.509
477.00,36.614
478.00,36.719
479.00,36.863
480.00,36.994
481.00,37.084
482.00,37.209
483.00,37.329
484.00,37.463
485.00,37.641
486.00,37.748
487.00,37.851
488.00,37.972
489.00,38.109
490.00,38.231
491.00,38.300
492.00,38.466
493.00,38.631
494.00,38.715
495.00,38.766
496.00,38.899
497.00,38.930
498.00,39.113
499.00,39.225
500.00,39.197
501.00,39.371
502.00,39.532
503.00,39.635
504.00,39.685
505.00,39.744
506.00,39.859
507.00,39.937
508.00,40.027
509.00,40.138
510.00,40.218
511.00,40.338
512.00,40.425
513.00,40.561
514.00,40.671
515.00,40.651
516.00,40.874
517.00,40.970
518.00,41.061
519.00,41.083
520.00,41.149
521.00,41.179
522.00,41.251
523.00,41.268
524.00,41.331
525.00,41.398
526.00,41.504
527.00,41.517
528.00,41.617
529.00,41.696
530.00,41.775
531.00,41.972
532.00,42.053
533.00,42.107
534.00,42.190
535.00,42.257
536.00,42.269
537.00,42.355
538.00,42.431
539.00,42.511
540.00,42.503
541.00,42.556
542.00,42.568
543.00,42.576
544.00,42.702
545.00,42.672
546.00,42.746
547.00,42.896
548.00,42.911
549.00,42.935
550.00,43.036
551.00,43.113
552.00,43.132
553.00,43.204
554.00,43.249
555.00,43.283
556.00,43.264
557.00,43.347
558.00,43.429
559.00,43.474
560.00,43.539
561.00,43.561
562.00,43.616
563.00,43.619
564.00,43.599
565.00,43.663
566.00,43.654
567.00,43.681
568.00,43.613
569.00,43.689
570.00,43.742
571.00,43.699
572.00,43.763
573.00,43.767
574.00,43.760
575.00,43.845
576.00,43.825
577.00,43.873
578.00,43.933
579.00,43.938
580.00,44.035
581.00,44.187
582.00,44.187
583.00,44.212
584.00,44.336
585.00,44.347
586.00,44.373
587.00,44.482
588.00,44.434
589.00,44.395
590.00,44.437
591.00,44.462
592.00,44.471
593.00,44.483
594.00,44.575
595.00,44.607
596.00,44.631
597.00,44.652
598.00,44.746
599.00,44.762
600.00,44.800
601.00,44.834
602.00,44.858
603.00,44.866
604.00,44.842
605.00,44.915
606.00,44.893
607.00,44.898
608.00,45.001
609.00,45.016
610.00,44.980
611.00,45.057
612.00,45.144
613.00,45.054
614.00,45.096
615.00,45.098
616.00,45.245
617.00,45.225
618.00,45.303
619.00,45.267
620.00,45.305
621.00,45.337
622.00,45.320
623.00,45.498
624.00,45.438
625.00,45.421
626.00,45.584
627.00,45.526
628.00,45.505
629.00,45.502
630.00,45.531
631.00,45.620
632.00,45.736
633.00,45.829
634.00,45.856
635.00,45.988
636.00,46.041
637.00,46.120
638.00,46.092
639.00,46.156
640.00,46.112
641.00,46.120
642.00,46.255
643.00,46.237
644.00,46.299
645.00,46.375
646.00,46.457
647.00,46.463
648.00,46.515
649.00,46.556
650.00,46.503
651.00,46.582
652.00,46.574
653.00,46.677
654.00,46.711
655.00,46.664
656.00,46.880
657.00,47.000
658.00,46.937
659.00,47.085
660.00,47.167
661.00,46.979
662.00,47.071
663.00,47.155
664.00,47.206
665.00,47.374
666.00,47.128
667.00,47.373
668.00,47.453
669.00,47.651
670.00,47.721
671.00,47.642
672.00,47.657
673.00,47.830
674.00,47.912
675.00,47.965
676.00,48.036
677.00,48.042
678.00,47.905
679.00,48.032
680.00,48.125
681.00,48.230
682.00,48.324
683.00,48.386
684.00,48.506
685.00,48.422
686.00,48.295
687.00,48.383
688.00,48.500
689.00,48.499
690.00,48.617
691.00,48.776
692.00,48.685
693.00,48.614
694.00,48.719
695.00,48.802
696.00,48.857
697.00,49.000
698.00,49.052
699.00,49.051
700.00,49.062
701.00,49.133
702.00,49.279
703.00,49.260
704.00,49.339
705.00,49.303
706.00,49.275
707.00,49.485
708.00,49.282
709.00,49.379
710.00,49.654
711.00,49.430
712.00,49.440
713.00,49.437
714.00,49.591
715.00,49.581
716.00,49.562
717.00,49.665
718.00,49.679
719.00,49.758
720.00,49.807
721.00,54.308
722.00,54.253
723.00,54.325
724.00,54.284
725.00,54.239
726.00,54.211
727.00,54.207
728.00,54.227
729.00,54.190
730.00,54.168
731.00,54.170
732.00,54.159
733.00,54.068
734.00,54.141
735.00,54.235
736.00,54.181
737.00,54.129
738.00,54.200
739.00,54.205
740.00,54.198
741.00,54.215
742.00,54.229
743.00,54.228
744.00,54.125
745.00,54.152
746.00,54.060
747.00,54.051
748.00,54.071
749.00,53.995
750.00,54.023
751.00,54.025
752.00,53.931
753.00,53.902
754.00,53.962
755.00,53.886
756.00,53.919
757.00,53.923
758.00,53.921
759.00,53.888
760.00,53.905
761.00,53.856
762.00,53.879
763.00,53.859
764.00,53.788
765.00,53.831
766.00,53.775
767.00,53.854
768.00,53.820
769.00,53.833
770.00,53.830
771.00,53.769
772.00,53.818
773.00,53.772
774.00,53.751
775.00,53.765
776.00,53.711
777.00,53.808
778.00,53.741
779.00,53.736
780.00,53.709
781.00,53.672
782.00,53.737
783.00,53.580
784.00,53.690
785.00,53.563
786.00,53.621
787.00,53.549
788.00,53.501
789.00,53.571
790.00,53.499
791.00,53.527
792.00,53.479
793.00,53.431
794.00,53.306
795.00,53.450
796.00,53.322
797.00,53.280
798.00,53.374
799.00,53.306
800.00,53.349
801.00,53.276
802.00,53.311
803.00,53.285
804.00,53.103
805.00,53.252
806.00,53.201
807.00,53.187
808.00,53.152
809.00,53.045
810.00,53.005
811.00,53.143
812.00,53.096
813.00,53.011
814.00,53.030
815.00,52.967
816.00,52.947
817.00,52.912
818.00,52.803
819.00,52.943
820.00,52.788
821.00,52.814
822.00,52.844
823.00,52.768
824.00,52.832
825.00,52.747
826.00,52.728
827.00,52.757
828.00,52.610
829.00,52.718
830.00,52.757
831.00,55.255
832.00,55.279
833.00,55.168
834.00,55.190
835.00,55.286
836.00,55.109
837.00,55.152
838.00,55.115
839.00,55.135
840.00,55.075
841.00,55.066
842.00,55.073
843.00,55.044
844.00,54.997
845.00,54.933
846.00,54.967
847.00,54.924
848.00,54.922
849.00,54.928
850.00,54.859
851.00,54.799
852.00,54.799
853.00,54.727
854.00,54.714
855.00,54.693
856.00,54.670
857.00,54.644
858.00,54.629
859.00,54.607
860.00,54.602
861.00,54.587
862.00,54.544
863.00,54.562
864.00,54.499
865.00,54.530
866.00,54.538
867.00,54.495
868.00,54.465
869.00,54.473
870.00,54.468
871.00,54.448
872.00,54.430
873.00,54.442
874.00,54.430
875.00,54.362
876.00,54.367
877.00,54.562
878.00,54.338
879.00,54.333
880.00,54.314
881.00,54.267
882.00,54.351
883.00,54.259
884.00,54.254
885.00,54.212
886.00,54.226
887.00,54.170
888.00,54.189
889.00,54.166
890.00,54.162
891.00,54.137
892.00,54.085
893.00,54.071
894.00,54.071
895.00,54.035
896.00,54.044
897.00,54.003
898.00,53.985
899.00,54.019
900.00,53.976
901.00,53.974
902.00,53.959
903.00,53.922
904.00,53.926
905.00,53.937
906.00,53.805
907.00,53.863
908.00,53.829
909.00,53.822
910.00,53.765
911.00,53.776
912.00,53.781
913.00,53.718
914.00,53.740
915.00,53.687
916.00,53.622
917.00,53.782
918.00,53.644
919.00,53.618
920.00,53.588
921.00,53.585
922.00,53.600
923.00,53.546
924.00,53.529
925.00,53.530
926.00,53.502
927.00,53.481
928.00,53.464
929.00,53.489
930.00,53.400
931.00,53.421
932.00,53.486
933.00,53.401
934.00,53.374
935.00,53.357
936.00,53.307
937.00,53.297
938.00,53.304
939.00,53.298
940.00,53.263
941.00,53.261
942.00,53.222
943.00,53.227
944.00,53.170
945.00,53.176
946.00,53.154
947.00,53.142
948.00,53.113
949.00,53.094
950.00,53.083
951.00,53.053
952.00,53.051
953.00,52.999
954.00,52.985
955.00,52.952
956.00,52.927
957.00,52.846
958.00,52.917
959.00,52.855
960.00,52.848
961.00,52.854
962.00,52.873
963.00,52.825
964.00,52.820
965.00,52.800
966.00,52.802
967.00,52.787
968.00,52.769
969.00,52.795
970.00,52.762
971.00,52.775
972.00,52.729
973.00,52.771
974.00,52.792
975.00,52.750
976.00,52.762
977.00,52.756
978.00,52.884
979.00,52.754
980.00,52.791
981.00,52.789
982.00,52.766
983.00,52.766
984.00,52.749
985.00,52.771
986.00,52.719
987.00,52.735
988.00,52.709
989.00,52.683
990.00,52.686
991.00,52.659
992.00,52.681
993.00,52.670
994.00,52.644
995.00,52.662
996.00,52.664
997.00,52.649
998.00,52.607
999.00,52.639
1000.00,52.583
1001.00,52.570
1002.00,52.497
1003.00,52.555
1004.00,52.525
1005.00,52.467
1006.00,52.544
1007.00,52.528
1008.00,52.489
1009.00,52.480
1010.00,52.493
1011.00,52.462
1012.00,52.422
1013.00,52.452
1014.00,52.412
1015.00,52.420
1016.00,52.384
1017.00,52.397
1018.00,52.352
1019.00,52.339
1020.00,52.345
1021.00,52.321
1022.00,52.305
1023.00,52.259
1024.00,52.267
1025.00,52.252
1026.00,52.231
1027.00,52.199
1028.00,52.206
1029.00,52.203
1030.00,52.161
1031.00,52.176
1032.00,52.141
1033.00,52.135
1034.00,52.114
1035.00,52.092
1036.00,52.062
1037.00,52.058
1038.00,52.026
1039.00,52.018
1040.00,52.019
1041.00,51.972
1042.00,51.977
1043.00,51.950
1044.00,51.995
1045.00,51.958
1046.00,51.945
1047.00,51.958
1048.00,51.967
1049.00,51.961
1050.00,51.985
1051.00,52.021
1052.00,52.006
1053.00,52.036
1054.00,52.055
1055.00,52.045
1056.00,52.052
1057.00,52.073
1058.00,52.066
1059.00,52.054
1060.00,52.056
1061.00,52.055
1062.00,52.039
1063.00,52.046
1064.00,52.025
1065.00,52.036
1066.00,52.009
1067.00,52.007
1068.00,52.024
1069.00,52.008
1070.00,51.976
1071.00,51.960
1072.00,52.007
1073.00,51.977
1074.00,51.966
1075.00,51.956
1076.00,51.990
1077.00,51.940
1078.00,51.937
1079.00,51.952
1080.00,51.935
1081.00,51.922
1082.00,51.923
1083.00,51.914
1084.00,51.905
1085.00,51.898
1086.00,51.894
1087.00,51.897
1088.00,51.880
1089.00,51.865
1090.00,51.872
1091.00,51.872
1092.00,51.858
1093.00,51.842
1094.00,51.819
1095.00,51.820
1096.00,51.807
1097.00,51.792
1098.00,51.784
1099.00,51.792
1100.00,51.810
1101.00,51.765
1102.00,51.770
1103.00,51.766
1104.00,51.748
1105.00,51.746
1106.00,51.741
1107.00,51.732
1108.00,51.715
1109.00,51.723
1110.00,51.702
1111.00,51.693
1112.00,51.679
1113.00,51.663
1114.00,51.681
1115.00,51.679
1116.00,51.667
1117.00,51.648
1118.00,51.637
1119.00,51.643
1120.00,51.643
1121.00,51.622
1122.00,51.612
1123.00,51.623
1124.00,51.602
1125.00,51.596
1126.00,51.603
1127.00,51.596
1128.00,51.583
1129.00,51.555
1130.00,51.560
1131.00,51.569
1132.00,51.542
1133.00,51.553
1134.00,51.543
1135.00,51.513
1136.00,51.540
1137.00,51.529
1138.00,51.541
1139.00,51.557
1140.00,51.544
1141.00,51.519
1142.00,51.516
1143.00,51.517
1144.00,51.488
1145.00,51.504
1146.00,51.543
1147.00,51.494
1148.00,51.478
1149.00,51.494
1150.00,51.509
1151.00,51.502
1152.00,51.491
1153.00,51.505
1154.00,51.490
1155.00,51.490
1156.00,51.490
1157.00,51.490
1158.00,51.487
1159.00,51.459
1160.00,51.465
1161.00,51.500
1162.00,51.468
1163.00,51.478
1164.00,51.479
1165.00,51.479
1166.00,51.474
1167.00,51.478
1168.00,51.488
1169.00,51.466
1170.00,51.463
1171.00,51.462
1172.00,51.460
1173.00,51.450
1174.00,51.453
1175.00,51.460
1176.00,51.466
1177.00,51.450
1178.00,51.441
1179.00,51.454
1180.00,51.455
1181.00,51.464
1182.00,51.474
1183.00,51.476
1184.00,51.452
1185.00,51.459
1186.00,51.446
1187.00,51.466
1188.00,51.443
1189.00,51.456
1190.00,51.455
1191.00,51.445
1192.00,51.464
1193.00,51.452
1194.00,51.461
1195.00,51.423
1196.00,51.463
1197.00,51.468
1198.00,51.448
1199.00,51.456
1200.00,51.468
1201.00,51.479
1202.00,51.450
1203.00,51.448
1204.00,51.460
1205.00,51.468
1206.00,51.449
1207.00,51.460
1208.00,51.438
1209.00,51.444
1210.00,51.437
1211.00,51.437
1212.00,51.456
1213.00,51.421
1214.00,51.457
1215.00,51.444
1216.00,51.451
1217.00,51.447
1218.00,51.436
1219.00,51.456
1220.00,51.432
1221.00,51.469
1222.00,51.454
1223.00,51.469
1224.00,51.458
1225.00,51.435
1226.00,51.448
1227.00,51.452
1228.00,51.456
1229.00,51.464
1230.00,51.493
1231.00,51.475
1232.00,51.486
1233.00,51.503
1234.00,51.516
1235.00,51.494
1236.00,51.517
1237.00,51.522
1238.00,51.515
1239.00,51.508
1240.00,51.499
1241.00,51.519
1242.00,51.498
1243.00,51.517
1244.00,51.501
1245.00,51.531
1246.00,51.539
1247.00,51.526
1248.00,51.541
1249.00,51.551
1250.00,51.537
1251.00,51.521
1252.00,51.565
1253.00,51.557
1254.00,51.545
1255.00,51.541
1256.00,51.511
1257.00,51.515
1258.00,51.551
1259.00,51.547
1260.00,51.578
1261.00,51.574
1262.00,51.576
1263.00,51.571
1264.00,51.578
1265.00,51.580
1266.00,51.580
1267.00,51.617
1268.00,51.619
1269.00,51.608
1270.00,51.630
1271.00,51.648
1272.00,51.642
1273.00,51.654
1274.00,51.662
1275.00,51.662
1276.00,51.665
1277.00,51.657
1278.00,51.683
1279.00,51.677
1280.00,51.671
1281.00,51.724
1282.00,51.727
1283.00,51.675
1284.00,51.682
1285.00,51.698
1286.00,51.705
1287.00,51.691
1288.00,51.697
1289.00,51.689
1290.00,51.723
1291.00,51.712
1292.00,51.721
1293.00,51.730
1294.00,51.712
1295.00,51.747
1296.00,51.739
1297.00,51.737
1298.00,51.765
1299.00,51.760
1300.00,51.779
1301.00,51.771
1302.00,51.782
1303.00,51.785
1304.00,51.771
1305.00,51.787
1306.00,51.785
1307.00,51.796
1308.00,51.796
1309.00,51.814
1310.00,51.827
1311.00,51.807
1312.00,51.820
1313.00,51.804
1314.00,51.853
1315.00,51.862
1316.00,51.844
1317.00,51.860
1318.00,51.878
1319.00,51.882
1320.00,51.874
1321.00,52.059
1322.00,52.027
1323.00,52.002
1324.00,52.009
1325.00,52.001
1326.00,52.039
1327.00,51.998
1328.00,52.007
1329.00,52.017
1330.00,52.016
1331.00,52.012
1332.00,52.010
1333.00,51.997
1334.00,52.027
1335.00,52.067
1336.00,52.087
1337.00,52.137
1338.00,52.191
1339.00,52.240
1340.00,52.307
1341.00,52.360
1342.00,52.420
1343.00,52.463
1344.00,52.495
1345.00,52.562
1346.00,52.616
1347.00,52.589
1348.00,52.623
1349.00,52.662
1350.00,52.667
1351.00,52.711
1352.00,52.698
1353.00,52.697
1354.00,52.696
1355.00,52.620
1356.00,52.708
1357.00,52.715
1358.00,52.812
1359.00,52.854
1360.00,52.922
1361.00,52.644
1362.00,52.572
1363.00,52.915
1364.00,52.837
1365.00,52.809
1366.00,52.919
1367.00,52.717
1368.00,52.634
1369.00,52.831
1370.00,52.669
1371.00,52.532
1372.00,52.720
1373.00,52.748
1374.00,52.747
1375.00,52.753
1376.00,52.711
1377.00,52.738
1378.00,52.825
1379.00,52.780
1380.00,52.794
1381.00,52.725
1382.00,52.771
1383.00,52.776
1384.00,52.673
1385.00,52.608
1386.00,52.711
1387.00,52.698
1388.00,52.633
1389.00,52.620
1390.00,52.700
1391.00,52.596
1392.00,52.773
1393.00,52.882
1394.00,52.724
1395.00,52.600
1396.00,52.628
1397.00,52.561
1398.00,52.860
1399.00,52.700
1400.00,52.670
1401.00,52.629
1402.00,52.916
1403.00,52.780
1404.00,52.670
1405.00,52.771
1406.00,52.717
1407.00,52.752
1408.00,52.758
1409.00,52.722
1410.00,52.759
1411.00,52.720
1412.00,52.842
1413.00,52.649
1414.00,52.678
1415.00,52.756
1416.00,52.804
1417.00,52.883
1418.00,52.817
1419.00,52.778
1420.00,52.841
1421.00,52.878
1422.00,52.861
1423.00,52.875
1424.00,52.854
1425.00,52.866
1426.00,52.901
1427.00,52.927
1428.00,52.919
1429.00,52.920
1430.00,52.936
1431.00,52.957
1432.00,52.950
1433.00,52.981
1434.00,52.971
1435.00,53.018
1436.00,53.038
1437.00,53.010
1438.00,53.030
1439.00,53.076
1440.00,53.083
1441.00,53.079
1442.00,53.085
1443.00,53.114
1444.00,53.207
1445.00,53.149
1446.00,53.097
1447.00,53.155
1448.00,53.186
1449.00,53.223
1450.00,53.211
1451.00,53.229
1452.00,53.241
1453.00,53.273
1454.00,53.257
1455.00,53.286
1456.00,53.294
1457.00,53.295
1458.00,53.312
1459.00,53.330
1460.00,53.336
1461.00,53.345
1462.00,53.367
1463.00,53.381
1464.00,53.395
1465.00,53.409
1466.00,53.419
1467.00,53.447
1468.00,53.486
1469.00,53.460
1470.00,53.484
1471.00,53.490
1472.00,53.483
1473.00,53.514
1474.00,53.530
1475.00,53.550
1476.00,53.550
1477.00,53.548
1478.00,53.572
1479.00,53.598
1480.00,53.609
1481.00,53.609
1482.00,53.631
1483.00,53.661
1484.00,53.652
1485.00,53.675
1486.00,53.689
1487.00,53.691
1488.00,53.716
1489.00,53.714
1490.00,53.710
1491.00,53.717
1492.00,53.748
1493.00,53.706
1494.00,53.758
1495.00,53.747
1496.00,53.773
1497.00,53.782
1498.00,53.768
1499.00,53.798
1500.00,53.806
1501.00, 
1502.00, 
1503.00, 
1504.00, 
1505.00, 
1506.00, 
1507.00, 
1508.00, 
1509.00, 
1510.00, 
1511.00, 
1512.00, 
1513.00, 
1514.00, 
1515.00, 
1516.00, 
1517.00, 
1518.00, 
1519.00, 
1520.00, 
1521.00, 
1522.00, 
1523.00, 
1524.00, 
1525.00, 
1526.00, 
1527.00, 
1528.00, 
1529.00, 
1530.00, 
1531.00, 
1532.00, 
1533.00, 
1534.00, 
1535.00, 
1536.00, 
1537.00, 
1538.00, 
1539.00, 
1540.00, 
1541.00, 
1542.00, 
1543.00, 
1544.00, 
1545.00, 
1546.00, 
1547.00, 
1548.00, 
1549.00, 
1550.00, 
1551.00, 
1552.00, 
1553.00, 
1554.00, 
1555.00, 
1556.00, 
1557.00, 
1558.00, 
1559.00, 
1560.00, 
1561.00, 
1562.00, 
1563.00, 
1564.00, 
1565.00, 
1566.00, 
1567.00, 
1568.00, 
1569.00, 
1570.00, 
1571.00, 
1572.00, 
1573.00, 
1574.00, 
1575.00, 
1576.00, 
1577.00, 
1578.00, 
1579.00, 
1580.00, 
1581.00, 
1582.00, 
1583.00, 
1584.00, 
1585.00, 
1586.00, 
1587.00, 
1588.00, 
1589.00, 
1590.00, 
1591.00, 
1592.00, 
1593.00, 
1594.00, 
1595.00, 
1596.00, 
1597.00, 
1598.00, 
1599.00, 
1600.00, 
1601.00, 
1602.00, 
1603.00, 
1604.00, 
1605.00, 
1606.00, 
1607.00, 
1608.00, 
1609.00, 
1610.00, 
1611.00, 
1612.00, 
1613.00, 
1614.00, 
1615.00, 
1616.00, 
1617.00, 
1618.00, 
1619.00, 
1620.00, 
1621.00, 
1622.00, 
1623.00, 
1624.00, 
1625.00, 
1626.00, 
1627.00, 
1628.00, 
1629.00, 
1630.00, 
1631.00, 
1632.00, 
1633.00, 
1634.00, 
1635.00, 
1636.00, 
1637.00, 
1638.00, 
1639.00, 
1640.00, 
1641.00, 
1642.00, 
1643.00, 
1644.00, 
1645.00, 
1646.00, 
1647.00, 
1648.00, 
1649.00, 
1650.00, 
1651.00, 
1652.00, 
1653.00, 
1654.00, 
1655.00, 
1656.00, 
1657.00, 
1658.00, 
1659.00, 
1660.00, 
1661.00, 
1662.00, 
1663.00, 
1664.00, 
1665.00, 
1666.00, 
1667.00, 
1668.00, 
1669.00, 
1670.00, 
1671.00, 
1672.00, 
1673.00, 
1674.00, 
1675.00, 
1676.00, 
1677.00, 
1678.00, 
1679.00, 
1680.00, 
1681.00, 
1682.00, 
1683.00, 
1684.00, 
1685.00, 
1686.00, 
1687.00, 
1688.00, 
1689.00, 
1690.00, 
1691.00, 
1692.00, 
1693.00, 
1694.00, 
1695.00, 
1696.00, 
1697.00, 
1698.00, 
1699.00, 
1700.00, 
1701.00, 
1702.00, 
1703.00, 
1704.00, 
1705.00, 
1706.00, 
1707.00, 
1708.00, 
1709.00, 
1710.00, 
1711.00, 
1712.00, 
1713.00, 
1714.00, 
1715.00, 
1716.00, 
1717.00, 
1718.00, 
1719.00, 
1720.00, 
1721.00, 
1722.00, 
1723.00, 
1724.00, 
1725.00, 
1726.00, 
1727.00, 
1728.00, 
1729.00, 
1730.00, 
1731.00, 
1732.00, 
1733.00, 
1734.00, 
1735.00, 
1736.00, 
1737.00, 
1738.00, 
1739.00, 
1740.00, 
1741.00, 
1742.00, 
1743.00, 
1744.00, 
1745.00, 
1746.00, 
1747.00, 
1748.00, 
1749.00, 
1750.00, 
1751.00, 
1752.00, 
1753.00, 
1754.00, 
1755.00, 
1756.00, 
1757.00, 
1758.00, 
1759.00, 
1760.00, 
1761.00, 
1762.00, 
1763.00, 
1764.00, 
1765.00, 
1766.00, 
1767.00, 
1768.00, 
1769.00, 
1770.00, 
1771.00, 
1772.00, 
1773.00, 
1774.00, 
1775.00, 
1776.00, 
1777.00, 
1778.00, 
1779.00, 
1780.00, 
1781.00, 
1782.00, 
1783.00, 
1784.00, 
1785.00, 
1786.00, 
1787.00, 
1788.00, 
1789.00, 
1790.00, 
1791.00, 
1792.00, 
1793.00, 
1794.00, 
1795.00, 
1796.00, 
1797.00, 
1798.00, 
1799.00, 
1800.00, 
1801.00, 
1802.00, 
1803.00, 
1804.00, 
1805.00, 
1806.00, 
1807.00, 
1808.00, 
1809.00, 
1810.00, 
1811.00, 
1812.00, 
1813.00, 
1814.00, 
1815.00, 
1816.00, 
1817.00, 
1818.00, 
1819.00, 
1820.00, 
1821.00, 
1822.00, 
1823.00, 
1824.00, 
1825.00, 
1826.00, 
1827.00, 
1828.00, 
1829.00, 
1830.00, 
1831.00, 
1832.00, 
1833.00, 
1834.00, 
1835.00, 
1836.00, 
1837.00, 
1838.00, 
1839.00, 
1840.00, 
1841.00, 
1842.00, 
1843.00, 
1844.00, 
1845.00, 
1846.00, 
1847.00, 
1848.00, 
1849.00, 
1850.00, 
1851.00, 
1852.00, 
1853.00, 
1854.00, 
1855.00, 
1856.00, 
1857.00, 
1858.00, 
1859.00, 
1860.00, 
1861.00, 
1862.00, 
1863.00, 
1864.00, 
1865.00, 
1866.00, 
1867.00, 
1868.00, 
1869.00, 
1870.00, 
1871.00, 
1872.00, 
1873.00, 
1874.00, 
1875.00, 
1876.00, 
1877.00, 
1878.00, 
1879.00, 
1880.00, 
1881.00, 
1882.00, 
1883.00, 
1884.00, 
1885.00, 
1886.00, 
1887.00, 
1888.00, 
1889.00, 
1890.00, 
1891.00, 
1892.00, 
1893.00, 
1894.00, 
1895.00, 
1896.00, 
1897.00, 
1898.00, 
1899.00, 
1900.00, 
1901.00, 
1902.00, 
1903.00, 
1904.00, 
1905.00, 
1906.00, 
1907.00, 
1908.00, 
1909.00, 
1910.00, 
1911.00, 
1912.00, 
1913.00, 
1914.00, 
1915.00, 
1916.00, 
1917.00, 
1918.00, 
1919.00, 
1920.00, 
1921.00, 
1922.00, 
1923.00, 
1924.00, 
1925.00, 
1926.00, 
1927.00, 
1928.00, 
1929.00, 
1930.00, 
1931.00, 
1932.00, 
1933.00, 
1934.00, 
1935.00, 
1936.00, 
1937.00, 
1938.00, 
1939.00, 
1940.00, 
1941.00, 
1942.00, 
1943.00, 
1944.00, 
1945.00, 
1946.00, 
1947.00, 
1948.00, 
1949.00, 
1950.00, 
1951.00, 
1952.00, 
1953.00, 
1954.00, 
1955.00, 
1956.00, 
1957.00, 
1958.00, 
1959.00, 
1960.00, 
1961.00, 
1962.00, 
1963.00, 
1964.00, 
1965.00, 
1966.00, 
1967.00, 
1968.00, 
1969.00, 
1970.00, 
1971.00, 
1972.00, 
1973.00, 
1974.00, 
1975.00, 
1976.00, 
1977.00, 
1978.00, 
1979.00, 
1980.00, 
1981.00, 
1982.00, 
1983.00, 
1984.00, 
1985.00, 
1986.00, 
1987.00, 
1988.00, 
1989.00, 
1990.00, 
1991.00, 
1992.00, 
1993.00, 
1994.00, 
1995.00, 
1996.00, 
1997.00, 
1998.00, 
1999.00, 
2000.00, 
2001.00, 
2002.00, 
2003.00, 
2004.00, 
2005.00, 
2006.00, 
2007.00, 
2008.00, 
2009.00, 
2010.00, 
2011.00, 
2012.00, 
2013.00, 
2014.00, 
2015.00, 
2016.00, 
2017.00, 
2018.00, 
2019.00, 
2020.00, 
2021.00, 
2022.00, 
2023.00, 
2024.00, 
2025.00, 
2026.00, 
2027.00, 
2028.00, 
2029.00, 
2030.00, 
2031.00, 
2032.00, 
2033.00, 
2034.00, 
2035.00, 
2036.00, 
2037.00, 
2038.00, 
2039.00, 
2040.00, 
2041.00, 
2042.00, 
2043.00, 
2044.00, 
2045.00, 
2046.00, 
2047.00, 
2048.00, 
2049.00, 
2050.00, 
2051.00, 
2052.00, 
2053.00, 
2054.00, 
2055.00, 
2056.00, 
2057.00, 
2058.00, 
2059.00, 
2060.00, 
2061.00, 
2062.00, 
2063.00, 
2064.00, 
2065.00, 
2066.00, 
2067.00, 
2068.00, 
2069.00, 
2070.00, 
2071.00, 
2072.00, 
2073.00, 
2074.00, 
2075.00, 
2076.00, 
2077.00, 
2078.00, 
2079.00, 
2080.00, 
2081.00, 
2082.00, 
2083.00, 
2084.00, 
2085.00, 
2086.00, 
2087.00, 
2088.00, 
2089.00, 
2090.00, 
2091.00, 
2092.00, 
2093.00, 
2094.00, 
2095.00, 
2096.00, 
2097.00, 
2098.00, 
2099.00, 
2100.00, 
2101.00, 
2102.00, 
2103.00, 
2104.00, 
2105.00, 
2106.00, 
2107.00, 
2108.00, 
2109.00, 
2110.00, 
2111.00, 
2112.00, 
2113.00, 
2114.00, 
2115.00, 
2116.00, 
2117.00, 
2118.00, 
2119.00, 
2120.00, 
2121.00, 
2122.00, 
2123.00, 
2124.00, 
2125.00, 
2126.00, 
2127.00, 
2128.00, 
2129.00, 
2130.00, 
2131.00, 
2132.00, 
2133.00, 
2134.00, 
2135.00, 
2136.00, 
2137.00, 
2138.00, 
2139.00, 
2140.00, 
2141.00, 
2142.00, 
2143.00, 
2144.00, 
2145.00, 
2146.00, 
2147.00, 
2148.00, 
2149.00, 
2150.00, 
2151.00, 
2152.00, 
2153.00, 
2154.00, 
2155.00, 
2156.00, 
2157.00, 
2158.00, 
2159.00, 
2160.00, 
2161.00, 
2162.00, 
2163.00, 
2164.00, 
2165.00, 
2166.00, 
2167.00, 
2168.00, 
2169.00, 
2170.00, 
2171.00, 
2172.00, 
2173.00, 
2174.00, 
2175.00, 
2176.00, 
2177.00, 
2178.00, 
2179.00, 
2180.00, 
2181.00, 
2182.00, 
2183.00, 
2184.00, 
2185.00, 
2186.00, 
2187.00, 
2188.00, 
2189.00, 
2190.00, 
2191.00, 
2192.00, 
2193.00, 
2194.00, 
2195.00, 
2196.00, 
2197.00, 
2198.00, 
2199.00, 
2200.00, 
2201.00, 
2202.00, 
2203.00, 
2204.00, 
2205.00, 
2206.00, 
2207.00, 
2208.00, 
2209.00, 
2210.00, 
2211.00, 
2212.00, 
2213.00, 
2214.00, 
2215.00, 
2216.00, 
2217.00, 
2218.00, 
2219.00, 
2220.00, 
2221.00, 
2222.00, 
2223.00, 
2224.00, 
2225.00, 
2226.00, 
2227.00, 
2228.00, 
2229.00, 
2230.00, 
2231.00, 
2232.00, 
2233.00, 
2234.00, 
2235.00, 
2236.00, 
2237.00, 
2238.00, 
2239.00, 
2240.00, 
2241.00, 
2242.00, 
2243.00, 
2244.00, 
2245.00, 
2246.00, 
2247.00, 
2248.00, 
2249.00, 
2250.00, 
2251.00, 
2252.00, 
2253.00, 
2254.00, 
2255.00, 
2256.00, 
2257.00, 
2258.00, 
2259.00, 
2260.00, 
2261.00, 
2262.00, 
2263.00, 
2264.00, 
2265.00, 
2266.00, 
2267.00, 
2268.00, 
2269.00, 
2270.00, 
2271.00, 
2272.00, 
2273.00, 
2274.00, 
2275.00, 
2276.00, 
2277.00, 
2278.00, 
2279.00, 
2280.00, 
2281.00, 
2282.00, 
2283.00, 
2284.00, 
2285.00, 
2286.00, 
2287.00, 
2288.00, 
2289.00, 
2290.00, 
2291.00, 
2292.00, 
2293.00, 
2294.00, 
2295.00, 
2296.00, 
2297.00, 
2298.00, 
2299.00, 
2300.00, 
2301.00, 
2302.00, 
2303.00, 
2304.00, 
2305.00, 
2306.00, 
2307.00, 
2308.00, 
2309.00, 
2310.00, 
2311.00, 
2312.00, 
2313.00, 
2314.00, 
2315.00, 
2316.00, 
2317.00, 
2318.00, 
2319.00, 
2320.00, 
2321.00, 
2322.00, 
2323.00, 
2324.00, 
2325.00, 
2326.00, 
2327.00, 
2328.00, 
2329.00, 
2330.00, 
2331.00, 
2332.00, 
2333.00, 
2334.00, 
2335.00, 
2336.00, 
2337.00, 
2338.00, 
2339.00, 
2340.00, 
2341.00, 
2342.00, 
2343.00, 
2344.00, 
2345.00, 
2346.00, 
2347.00, 
2348.00, 
2349.00, 
2350.00, 
2351.00, 
2352.00, 
2353.00, 
2354.00, 
2355.00, 
2356.00, 
2357.00, 
2358.00, 
2359.00, 
2360.00, 
2361.00, 
2362.00, 
2363.00, 
2364.00, 
2365.00, 
2366.00, 
2367.00, 
2368.00, 
2369.00, 
2370.00, 
2371.00, 
2372.00, 
2373.00, 
2374.00, 
2375.00, 
2376.00, 
2377.00, 
2378.00, 
2379.00, 
2380.00, 
2381.00, 
2382.00, 
2383.00, 
2384.00, 
2385.00, 
2386.00, 
2387.00, 
2388.00, 
2389.00, 
2390.00, 
2391.00, 
2392.00, 
2393.00, 
2394.00, 
2395.00, 
2396.00, 
2397.00, 
2398.00, 
2399.00, 
2400.00, 
2401.00, 
2402.00, 
2403.00, 
2404.00, 
2405.00, 
2406.00, 
2407.00, 
2408.00, 
2409.00, 
2410.00, 
2411.00, 
2412.00, 
2413.00, 
2414.00, 
2415.00, 
2416.00, 
2417.00, 
2418.00, 
2419.00, 
2420.00, 
2421.00, 
2422.00, 
2423.00, 
2424.00, 
2425.00, 
2426.00, 
2427.00, 
2428.00, 
2429.00, 
2430.00, 
2431.00, 
2432.00, 
2433.00, 
2434.00, 
2435.00, 
2436.00, 
2437.00, 
2438.00, 
2439.00, 
2440.00, 
2441.00, 
2442.00, 
2443.00, 
2444.00, 
2445.00, 
2446.00, 
2447.00, 
2448.00, 
2449.00, 
2450.00, 
2451.00, 
2452.00, 
2453.00, 
2454.00, 
2455.00, 
2456.00, 
2457.00, 
2458.00, 
2459.00, 
2460.00, 
2461.00, 
2462.00, 
2463.00, 
2464.00, 
2465.00, 
2466.00, 
2467.00, 
2468.00, 
2469.00, 
2470.00, 
2471.00, 
2472.00, 
2473.00, 
2474.00, 
2475.00, 
2476.00, 
2477.00, 
2478.00, 
2479.00, 
2480.00, 
2481.00, 
2482.00, 
2483.00, 
2484.00, 
2485.00, 
2486.00, 
2487.00, 
2488.00, 
2489.00, 
2490.00, 
2491.00, 
2492.00, 
2493.00, 
2494.00, 
2495.00, 
2496.00, 
2497.00, 
2498.00, 
2499.00, 
2500.00, 
2501.00, 
2502.00, 
2503.00, 
2504.00, 
2505.00, 
2506.00, 
2507.00, 
2508.00, 
2509.00, 
2510.00, 
2511.00, 
2512.00, 
2513.00, 
2514.00, 
2515.00, 
2516.00, 
2517.00, 
2518.00, 
2519.00, 
2520.00, 
2521.00, 
2522.00, 
2523.00, 
2524.00, 
2525.00, 
2526.00, 
2527.00, 
2528.00, 
2529.00, 
2530.00, 
2531.00, 
2532.00, 
2533.00, 
2534.00, 
2535.00, 
2536.00, 
2537.00, 
2538.00, 
2539.00, 
2540.00, 
2541.00, 
2542.00, 
2543.00, 
2544.00, 
2545.00, 
2546.00, 
2547.00, 
2548.00, 
2549.00, 
2550.00, 
2551.00, 
2552.00, 
2553.00, 
2554.00, 
2555.00, 
2556.00, 
2557.00, 
2558.00, 
2559.00, 
2560.00, 
2561.00, 
2562.00, 
2563.00, 
2564.00, 
2565.00, 
2566.00, 
2567.00, 
2568.00, 
2569.00, 
2570.00, 
2571.00, 
2572.00, 
2573.00, 
2574.00, 
2575.00, 
2576.00, 
2577.00, 
2578.00, 
2579.00, 
2580.00, 
2581.00, 
2582.00, 
2583.00, 
2584.00, 
2585.00, 
2586.00, 
2587.00, 
2588.00, 
2589.00, 
2590.00, 
2591.00, 
2592.00, 
2593.00, 
2594.00, 
2595.00, 
2596.00, 
2597.00, 
2598.00, 
2599.00, 
2600.00, 
