"1cP3 - RawData"
"Wavelength nm.","T%"
200.00,0.001
201.00,0.002
202.00,0.001
203.00,0.000
204.00,0.002
205.00,0.002
206.00,0.000
207.00,0.001
208.00,0.002
209.00,0.003
210.00,0.001
211.00,-0.000
212.00,0.001
213.00,0.000
214.00,0.001
215.00,0.001
216.00,0.002
217.00,0.004
218.00,0.004
219.00,0.002
220.00,-0.002
221.00,0.004
222.00,0.002
223.00,0.001
224.00,0.000
225.00,-0.000
226.00,0.004
227.00,0.001
228.00,0.000
229.00,0.002
230.00,0.003
231.00,0.000
232.00,-0.000
233.00,-0.001
234.00,0.001
235.00,0.001
236.00,-0.000
237.00,-0.001
238.00,0.001
239.00,0.000
240.00,0.001
241.00,0.002
242.00,0.001
243.00,0.001
244.00,0.000
245.00,-0.000
246.00,0.001
247.00,0.001
248.00,0.000
249.00,0.001
250.00,-0.001
251.00,0.001
252.00,0.001
253.00,0.002
254.00,-0.000
255.00,-0.001
256.00,-0.000
257.00,0.001
258.00,0.001
259.00,-0.001
260.00,0.001
261.00,-0.000
262.00,0.000
263.00,0.001
264.00,0.000
265.00,0.001
266.00,-0.002
267.00,0.002
268.00,0.001
269.00,0.000
270.00,0.001
271.00,0.001
272.00,0.001
273.00,-0.000
274.00,0.001
275.00,-0.000
276.00,0.000
277.00,-0.001
278.00,0.001
279.00,-0.000
280.00,0.001
281.00,-0.001
282.00,-0.002
283.00,-0.000
284.00,-0.000
285.00,-0.000
286.00,-0.000
287.00,-0.000
288.00,-0.001
289.00,0.001
290.00,0.000
291.00,0.003
292.00,-0.001
293.00,0.000
294.00,-0.000
295.00,0.002
296.00,0.001
297.00,0.001
298.00,-0.000
299.00,0.000
300.00,-0.000
301.00,0.002
302.00,0.001
303.00,0.000
304.00,0.002
305.00,0.001
306.00,0.001
307.00,0.004
308.00,0.008
309.00,0.017
310.00,0.023
311.00,0.033
312.00,0.056
313.00,0.084
314.00,0.120
315.00,0.181
316.00,0.261
317.00,0.372
318.00,0.515
319.00,0.696
320.00,0.923
321.00,1.201
322.00,1.529
323.00,1.940
324.00,2.404
325.00,2.820
326.00,3.432
327.00,4.095
328.00,4.776
329.00,5.506
330.00,6.329
331.00,7.170
332.00,8.059
333.00,8.994
334.00,9.972
335.00,10.964
336.00,11.994
337.00,13.014
338.00,14.056
339.00,15.030
340.00,16.022
341.00,17.041
342.00,17.994
343.00,18.924
344.00,19.756
345.00,20.723
346.00,21.529
347.00,22.343
348.00,23.078
349.00,23.815
350.00,24.448
351.00,25.161
352.00,25.559
353.00,26.299
354.00,26.874
355.00,27.399
356.00,27.872
357.00,28.268
358.00,28.734
359.00,29.239
360.00,29.617
361.00,29.926
362.00,30.287
363.00,30.588
364.00,30.818
365.00,30.920
366.00,31.169
367.00,31.346
368.00,31.589
369.00,31.658
370.00,31.806
371.00,31.844
372.00,31.902
373.00,31.925
374.00,31.968
375.00,31.934
376.00,31.802
377.00,31.834
378.00,31.749
379.00,31.642
380.00,31.699
381.00,31.627
382.00,31.697
383.00,31.807
384.00,31.915
385.00,32.112
386.00,32.129
387.00,32.391
388.00,32.556
389.00,32.554
390.00,32.739
391.00,32.757
392.00,32.904
393.00,32.944
394.00,33.053
395.00,33.134
396.00,33.129
397.00,33.199
398.00,33.243
399.00,33.325
400.00,33.382
401.00,33.328
402.00,33.298
403.00,33.354
404.00,33.319
405.00,33.378
406.00,33.388
407.00,33.369
408.00,33.379
409.00,33.279
410.00,33.192
411.00,33.218
412.00,33.183
413.00,33.230
414.00,33.111
415.00,33.152
416.00,33.253
417.00,33.167
418.00,33.220
419.00,33.289
420.00,33.356
421.00,33.350
422.00,33.338
423.00,33.410
424.00,33.402
425.00,33.445
426.00,33.474
427.00,33.505
428.00,33.567
429.00,33.605
430.00,33.621
431.00,33.674
432.00,33.698
433.00,33.732
434.00,33.785
435.00,33.840
436.00,33.843
437.00,33.888
438.00,33.956
439.00,34.035
440.00,34.082
441.00,34.099
442.00,34.233
443.00,34.344
444.00,34.374
445.00,34.439
446.00,34.536
447.00,34.526
448.00,34.657
449.00,34.719
450.00,34.809
451.00,34.910
452.00,34.988
453.00,35.216
454.00,35.311
455.00,35.265
456.00,35.406
457.00,35.458
458.00,35.556
459.00,35.674
460.00,35.813
461.00,35.938
462.00,35.981
463.00,36.111
464.00,36.257
465.00,36.349
466.00,36.460
467.00,36.552
468.00,36.613
469.00,36.657
470.00,36.734
471.00,36.775
472.00,36.909
473.00,36.922
474.00,36.987
475.00,37.131
476.00,37.185
477.00,37.279
478.00,37.399
479.00,37.470
480.00,37.587
481.00,37.676
482.00,37.862
483.00,37.969
484.00,38.158
485.00,38.224
486.00,38.356
487.00,38.454
488.00,38.523
489.00,38.716
490.00,38.860
491.00,38.921
492.00,39.056
493.00,39.234
494.00,39.367
495.00,39.320
496.00,39.398
497.00,39.435
498.00,39.621
499.00,39.794
500.00,39.859
501.00,39.891
502.00,40.025
503.00,40.110
504.00,40.132
505.00,40.269
506.00,40.397
507.00,40.441
508.00,40.499
509.00,40.643
510.00,40.724
511.00,40.787
512.00,41.012
513.00,41.108
514.00,41.164
515.00,41.344
516.00,41.392
517.00,41.377
518.00,41.556
519.00,41.517
520.00,41.555
521.00,41.727
522.00,41.785
523.00,41.842
524.00,41.880
525.00,41.963
526.00,42.065
527.00,42.058
528.00,42.137
529.00,42.355
530.00,42.492
531.00,42.541
532.00,42.678
533.00,42.691
534.00,42.719
535.00,42.900
536.00,42.829
537.00,42.989
538.00,43.039
539.00,43.027
540.00,43.117
541.00,43.189
542.00,43.215
543.00,43.216
544.00,43.361
545.00,43.407
546.00,43.389
547.00,43.524
548.00,43.658
549.00,43.621
550.00,43.743
551.00,43.890
552.00,43.900
553.00,43.913
554.00,43.999
555.00,44.013
556.00,44.098
557.00,44.169
558.00,44.230
559.00,44.308
560.00,44.343
561.00,44.388
562.00,44.467
563.00,44.456
564.00,44.456
565.00,44.507
566.00,44.518
567.00,44.505
568.00,44.568
569.00,44.689
570.00,44.645
571.00,44.708
572.00,44.762
573.00,44.583
574.00,44.633
575.00,44.810
576.00,44.682
577.00,44.813
578.00,44.921
579.00,45.006
580.00,44.947
581.00,45.152
582.00,45.202
583.00,45.156
584.00,45.314
585.00,45.331
586.00,45.362
587.00,45.451
588.00,45.419
589.00,45.392
590.00,45.536
591.00,45.569
592.00,45.476
593.00,45.563
594.00,45.628
595.00,45.630
596.00,45.755
597.00,45.733
598.00,45.895
599.00,45.808
600.00,45.831
601.00,45.892
602.00,45.903
603.00,45.957
604.00,46.002
605.00,45.998
606.00,46.027
607.00,46.069
608.00,46.188
609.00,46.268
610.00,46.078
611.00,46.121
612.00,46.164
613.00,46.253
614.00,46.268
615.00,46.263
616.00,46.425
617.00,46.331
618.00,46.301
619.00,46.367
620.00,46.415
621.00,46.361
622.00,46.478
623.00,46.659
624.00,46.620
625.00,46.616
626.00,46.716
627.00,46.683
628.00,46.719
629.00,46.691
630.00,46.678
631.00,46.723
632.00,46.883
633.00,46.869
634.00,46.982
635.00,47.044
636.00,46.909
637.00,46.952
638.00,47.179
639.00,47.287
640.00,47.147
641.00,47.217
642.00,47.267
643.00,47.262
644.00,47.309
645.00,47.399
646.00,47.470
647.00,47.451
648.00,47.555
649.00,47.505
650.00,47.435
651.00,47.676
652.00,47.716
653.00,47.601
654.00,47.644
655.00,47.823
656.00,48.131
657.00,47.828
658.00,47.886
659.00,48.131
660.00,48.190
661.00,47.992
662.00,48.003
663.00,48.096
664.00,48.346
665.00,48.432
666.00,48.192
667.00,48.354
668.00,48.382
669.00,48.427
670.00,48.700
671.00,48.550
672.00,48.563
673.00,48.686
674.00,48.707
675.00,48.724
676.00,48.889
677.00,48.996
678.00,48.648
679.00,48.825
680.00,48.955
681.00,49.100
682.00,49.007
683.00,49.028
684.00,49.134
685.00,49.037
686.00,48.922
687.00,49.085
688.00,49.054
689.00,49.083
690.00,49.285
691.00,49.563
692.00,49.344
693.00,49.222
694.00,49.377
695.00,49.479
696.00,49.474
697.00,49.339
698.00,49.482
699.00,49.734
700.00,49.654
701.00,49.519
702.00,49.673
703.00,49.737
704.00,49.800
705.00,49.679
706.00,49.787
707.00,49.790
708.00,49.642
709.00,50.007
710.00,50.370
711.00,49.709
712.00,49.859
713.00,49.851
714.00,49.777
715.00,49.972
716.00,50.011
717.00,50.047
718.00,50.170
719.00,50.024
720.00,50.010
721.00,54.935
722.00,54.858
723.00,54.873
724.00,54.727
725.00,54.861
726.00,54.723
727.00,54.705
728.00,54.704
729.00,54.616
730.00,54.682
731.00,54.618
732.00,54.562
733.00,54.583
734.00,54.566
735.00,54.609
736.00,54.587
737.00,54.598
738.00,54.537
739.00,54.577
740.00,54.588
741.00,54.638
742.00,54.572
743.00,54.574
744.00,54.495
745.00,54.408
746.00,54.465
747.00,54.419
748.00,54.387
749.00,54.308
750.00,54.318
751.00,54.311
752.00,54.198
753.00,54.232
754.00,54.228
755.00,54.124
756.00,54.163
757.00,54.083
758.00,54.162
759.00,54.039
760.00,54.087
761.00,53.988
762.00,53.994
763.00,54.087
764.00,53.957
765.00,53.949
766.00,53.877
767.00,53.949
768.00,53.911
769.00,53.924
770.00,54.000
771.00,53.887
772.00,53.964
773.00,53.857
774.00,53.914
775.00,53.887
776.00,53.796
777.00,53.898
778.00,53.744
779.00,53.825
780.00,53.775
781.00,53.718
782.00,53.772
783.00,53.685
784.00,53.793
785.00,53.606
786.00,53.676
787.00,53.578
788.00,53.536
789.00,53.586
790.00,53.463
791.00,53.564
792.00,53.380
793.00,53.351
794.00,53.204
795.00,53.397
796.00,53.369
797.00,53.283
798.00,53.357
799.00,53.223
800.00,53.232
801.00,53.169
802.00,53.164
803.00,53.192
804.00,53.108
805.00,53.093
806.00,53.035
807.00,53.012
808.00,53.066
809.00,52.945
810.00,52.898
811.00,52.940
812.00,52.945
813.00,52.860
814.00,52.849
815.00,52.799
816.00,52.809
817.00,52.732
818.00,52.613
819.00,52.754
820.00,52.626
821.00,52.645
822.00,52.633
823.00,52.608
824.00,52.583
825.00,52.599
826.00,52.516
827.00,52.602
828.00,52.620
829.00,52.500
830.00,52.563
831.00,54.823
832.00,54.826
833.00,54.753
834.00,54.757
835.00,54.768
836.00,54.687
837.00,54.674
838.00,54.638
839.00,54.645
840.00,54.617
841.00,54.610
842.00,54.575
843.00,54.530
844.00,54.513
845.00,54.462
846.00,54.443
847.00,54.408
848.00,54.384
849.00,54.346
850.00,54.309
851.00,54.224
852.00,54.245
853.00,54.124
854.00,54.124
855.00,54.208
856.00,54.102
857.00,54.059
858.00,53.996
859.00,54.020
860.00,53.979
861.00,53.975
862.00,53.936
863.00,53.961
864.00,53.873
865.00,53.914
866.00,53.874
867.00,53.859
868.00,53.832
869.00,53.788
870.00,53.794
871.00,53.795
872.00,53.772
873.00,53.756
874.00,53.750
875.00,53.698
876.00,53.698
877.00,53.686
878.00,53.664
879.00,53.688
880.00,53.649
881.00,53.606
882.00,53.647
883.00,53.574
884.00,53.531
885.00,53.491
886.00,53.504
887.00,53.436
888.00,53.418
889.00,53.412
890.00,53.399
891.00,53.368
892.00,53.356
893.00,53.332
894.00,53.323
895.00,53.284
896.00,53.299
897.00,53.234
898.00,53.188
899.00,53.205
900.00,53.195
901.00,53.201
902.00,53.162
903.00,53.132
904.00,53.111
905.00,53.134
906.00,53.024
907.00,53.051
908.00,53.016
909.00,52.992
910.00,52.971
911.00,52.938
912.00,52.950
913.00,52.888
914.00,52.898
915.00,52.853
916.00,52.843
917.00,52.831
918.00,52.798
919.00,52.766
920.00,52.750
921.00,52.750
922.00,52.736
923.00,52.687
924.00,52.682
925.00,52.675
926.00,52.628
927.00,52.641
928.00,52.591
929.00,52.589
930.00,52.550
931.00,52.540
932.00,52.507
933.00,52.513
934.00,52.473
935.00,52.486
936.00,52.438
937.00,52.422
938.00,52.418
939.00,52.393
940.00,52.410
941.00,52.365
942.00,52.302
943.00,52.322
944.00,52.285
945.00,52.293
946.00,52.273
947.00,52.237
948.00,52.211
949.00,52.184
950.00,52.170
951.00,52.132
952.00,52.128
953.00,52.067
954.00,52.035
955.00,52.029
956.00,51.999
957.00,51.916
958.00,51.972
959.00,51.910
960.00,51.903
961.00,51.893
962.00,51.894
963.00,51.845
964.00,51.837
965.00,51.831
966.00,51.819
967.00,51.818
968.00,51.791
969.00,51.828
970.00,51.782
971.00,51.807
972.00,51.761
973.00,51.794
974.00,51.818
975.00,51.763
976.00,51.791
977.00,51.762
978.00,51.803
979.00,51.768
980.00,51.783
981.00,51.769
982.00,51.747
983.00,51.742
984.00,51.724
985.00,51.751
986.00,51.697
987.00,51.720
988.00,51.700
989.00,51.666
990.00,51.676
991.00,51.663
992.00,51.671
993.00,51.633
994.00,51.619
995.00,51.613
996.00,51.608
997.00,51.582
998.00,51.565
999.00,51.573
1000.00,51.510
1001.00,51.513
1002.00,51.465
1003.00,51.499
1004.00,51.495
1005.00,51.450
1006.00,51.482
1007.00,51.422
1008.00,51.415
1009.00,51.401
1010.00,51.394
1011.00,51.385
1012.00,51.357
1013.00,51.361
1014.00,51.324
1015.00,51.349
1016.00,51.333
1017.00,51.298
1018.00,51.271
1019.00,51.263
1020.00,51.267
1021.00,51.237
1022.00,51.227
1023.00,51.184
1024.00,51.186
1025.00,51.165
1026.00,51.161
1027.00,51.123
1028.00,51.128
1029.00,51.138
1030.00,51.077
1031.00,51.090
1032.00,51.054
1033.00,51.057
1034.00,51.041
1035.00,51.009
1036.00,50.970
1037.00,50.970
1038.00,50.951
1039.00,50.928
1040.00,50.931
1041.00,50.877
1042.00,50.870
1043.00,50.839
1044.00,50.871
1045.00,50.854
1046.00,50.863
1047.00,50.896
1048.00,50.886
1049.00,50.905
1050.00,50.898
1051.00,50.938
1052.00,50.936
1053.00,50.947
1054.00,50.935
1055.00,50.953
1056.00,50.967
1057.00,50.967
1058.00,50.948
1059.00,50.949
1060.00,50.940
1061.00,50.911
1062.00,50.917
1063.00,50.922
1064.00,50.894
1065.00,50.895
1066.00,50.876
1067.00,50.889
1068.00,50.911
1069.00,50.878
1070.00,50.864
1071.00,50.845
1072.00,50.865
1073.00,50.834
1074.00,50.828
1075.00,50.815
1076.00,50.828
1077.00,50.810
1078.00,50.773
1079.00,50.792
1080.00,50.799
1081.00,50.787
1082.00,50.779
1083.00,50.753
1084.00,50.756
1085.00,50.751
1086.00,50.760
1087.00,50.761
1088.00,50.732
1089.00,50.729
1090.00,50.735
1091.00,50.734
1092.00,50.715
1093.00,50.689
1094.00,50.666
1095.00,50.665
1096.00,50.641
1097.00,50.645
1098.00,50.641
1099.00,50.632
1100.00,50.633
1101.00,50.627
1102.00,50.608
1103.00,50.608
1104.00,50.591
1105.00,50.593
1106.00,50.581
1107.00,50.563
1108.00,50.561
1109.00,50.561
1110.00,50.551
1111.00,50.542
1112.00,50.525
1113.00,50.520
1114.00,50.524
1115.00,50.519
1116.00,50.508
1117.00,50.510
1118.00,50.481
1119.00,50.477
1120.00,50.480
1121.00,50.444
1122.00,50.442
1123.00,50.484
1124.00,50.445
1125.00,50.436
1126.00,50.432
1127.00,50.428
1128.00,50.427
1129.00,50.406
1130.00,50.406
1131.00,50.410
1132.00,50.411
1133.00,50.412
1134.00,50.371
1135.00,50.346
1136.00,50.377
1137.00,50.384
1138.00,50.392
1139.00,50.393
1140.00,50.369
1141.00,50.382
1142.00,50.376
1143.00,50.375
1144.00,50.348
1145.00,50.354
1146.00,50.348
1147.00,50.348
1148.00,50.332
1149.00,50.344
1150.00,50.358
1151.00,50.342
1152.00,50.335
1153.00,50.334
1154.00,50.307
1155.00,50.319
1156.00,50.312
1157.00,50.302
1158.00,50.296
1159.00,50.292
1160.00,50.281
1161.00,50.326
1162.00,50.311
1163.00,50.317
1164.00,50.319
1165.00,50.307
1166.00,50.319
1167.00,50.307
1168.00,50.325
1169.00,50.321
1170.00,50.298
1171.00,50.279
1172.00,50.290
1173.00,50.274
1174.00,50.281
1175.00,50.276
1176.00,50.276
1177.00,50.267
1178.00,50.264
1179.00,50.277
1180.00,50.280
1181.00,50.285
1182.00,50.283
1183.00,50.295
1184.00,50.288
1185.00,50.285
1186.00,50.267
1187.00,50.285
1188.00,50.275
1189.00,50.281
1190.00,50.273
1191.00,50.274
1192.00,50.293
1193.00,50.276
1194.00,50.279
1195.00,50.241
1196.00,50.298
1197.00,50.305
1198.00,50.256
1199.00,50.275
1200.00,50.291
1201.00,50.293
1202.00,50.269
1203.00,50.259
1204.00,50.250
1205.00,50.286
1206.00,50.269
1207.00,50.278
1208.00,50.264
1209.00,50.280
1210.00,50.285
1211.00,50.278
1212.00,50.279
1213.00,50.248
1214.00,50.283
1215.00,50.263
1216.00,50.276
1217.00,50.276
1218.00,50.276
1219.00,50.294
1220.00,50.265
1221.00,50.292
1222.00,50.278
1223.00,50.299
1224.00,50.301
1225.00,50.285
1226.00,50.284
1227.00,50.293
1228.00,50.310
1229.00,50.321
1230.00,50.343
1231.00,50.323
1232.00,50.352
1233.00,50.351
1234.00,50.346
1235.00,50.337
1236.00,50.316
1237.00,50.325
1238.00,50.330
1239.00,50.324
1240.00,50.316
1241.00,50.332
1242.00,50.344
1243.00,50.366
1244.00,50.344
1245.00,50.377
1246.00,50.382
1247.00,50.364
1248.00,50.371
1249.00,50.396
1250.00,50.396
1251.00,50.377
1252.00,50.387
1253.00,50.374
1254.00,50.403
1255.00,50.405
1256.00,50.375
1257.00,50.379
1258.00,50.422
1259.00,50.416
1260.00,50.463
1261.00,50.444
1262.00,50.437
1263.00,50.439
1264.00,50.447
1265.00,50.461
1266.00,50.458
1267.00,50.474
1268.00,50.481
1269.00,50.470
1270.00,50.493
1271.00,50.516
1272.00,50.502
1273.00,50.513
1274.00,50.519
1275.00,50.526
1276.00,50.535
1277.00,50.542
1278.00,50.548
1279.00,50.550
1280.00,50.527
1281.00,50.547
1282.00,50.570
1283.00,50.569
1284.00,50.560
1285.00,50.587
1286.00,50.620
1287.00,50.585
1288.00,50.572
1289.00,50.590
1290.00,50.653
1291.00,50.635
1292.00,50.624
1293.00,50.645
1294.00,50.630
1295.00,50.660
1296.00,50.657
1297.00,50.652
1298.00,50.681
1299.00,50.655
1300.00,50.663
1301.00,50.657
1302.00,50.674
1303.00,50.667
1304.00,50.702
1305.00,50.739
1306.00,50.706
1307.00,50.725
1308.00,50.726
1309.00,50.759
1310.00,50.757
1311.00,50.736
1312.00,50.741
1313.00,50.751
1314.00,50.785
1315.00,50.806
1316.00,50.790
1317.00,50.827
1318.00,50.839
1319.00,50.847
1320.00,50.853
1321.00,51.002
1322.00,50.997
1323.00,50.999
1324.00,50.994
1325.00,50.972
1326.00,51.000
1327.00,50.987
1328.00,50.968
1329.00,51.004
1330.00,50.999
1331.00,50.994
1332.00,50.999
1333.00,51.024
1334.00,51.093
1335.00,51.053
1336.00,51.089
1337.00,51.138
1338.00,51.189
1339.00,51.218
1340.00,51.295
1341.00,51.344
1342.00,51.413
1343.00,51.465
1344.00,51.487
1345.00,51.581
1346.00,51.606
1347.00,51.578
1348.00,51.622
1349.00,51.656
1350.00,51.697
1351.00,51.719
1352.00,51.746
1353.00,51.766
1354.00,51.745
1355.00,51.672
1356.00,51.728
1357.00,51.769
1358.00,51.846
1359.00,51.960
1360.00,52.193
1361.00,51.608
1362.00,51.631
1363.00,51.904
1364.00,51.797
1365.00,51.881
1366.00,52.003
1367.00,51.794
1368.00,51.723
1369.00,51.899
1370.00,51.771
1371.00,51.707
1372.00,51.788
1373.00,51.832
1374.00,51.814
1375.00,51.823
1376.00,51.785
1377.00,51.802
1378.00,51.811
1379.00,51.875
1380.00,51.868
1381.00,51.841
1382.00,51.823
1383.00,51.848
1384.00,51.753
1385.00,51.755
1386.00,51.806
1387.00,51.716
1388.00,51.741
1389.00,51.768
1390.00,51.823
1391.00,51.679
1392.00,51.852
1393.00,51.831
1394.00,51.788
1395.00,51.500
1396.00,51.863
1397.00,51.726
1398.00,52.056
1399.00,51.745
1400.00,51.784
1401.00,51.781
1402.00,52.008
1403.00,51.785
1404.00,51.829
1405.00,51.887
1406.00,51.888
1407.00,51.893
1408.00,51.879
1409.00,51.862
1410.00,51.923
1411.00,51.929
1412.00,52.005
1413.00,51.780
1414.00,51.875
1415.00,51.938
1416.00,51.982
1417.00,52.055
1418.00,51.990
1419.00,51.967
1420.00,52.029
1421.00,52.065
1422.00,52.055
1423.00,52.084
1424.00,52.055
1425.00,52.082
1426.00,52.110
1427.00,52.137
1428.00,52.129
1429.00,52.129
1430.00,52.165
1431.00,52.162
1432.00,52.179
1433.00,52.211
1434.00,52.212
1435.00,52.252
1436.00,52.282
1437.00,52.266
1438.00,52.280
1439.00,52.324
1440.00,52.344
1441.00,52.355
1442.00,52.390
1443.00,52.396
1444.00,52.522
1445.00,52.432
1446.00,52.418
1447.00,52.473
1448.00,52.504
1449.00,52.528
1450.00,52.516
1451.00,52.530
1452.00,52.563
1453.00,52.585
1454.00,52.588
1455.00,52.631
1456.00,52.660
1457.00,52.635
1458.00,52.682
1459.00,52.678
1460.00,52.698
1461.00,52.708
1462.00,52.733
1463.00,52.760
1464.00,52.774
1465.00,52.782
1466.00,52.797
1467.00,52.823
1468.00,52.853
1469.00,52.835
1470.00,52.873
1471.00,52.882
1472.00,52.893
1473.00,52.891
1474.00,52.918
1475.00,52.969
1476.00,52.963
1477.00,52.968
1478.00,52.999
1479.00,53.006
1480.00,53.010
1481.00,53.031
1482.00,53.062
1483.00,53.100
1484.00,53.106
1485.00,53.104
1486.00,53.137
1487.00,53.162
1488.00,53.199
1489.00,53.194
1490.00,53.181
1491.00,53.208
1492.00,53.222
1493.00,53.216
1494.00,53.248
1495.00,53.255
1496.00,53.304
1497.00,53.277
1498.00,53.284
1499.00,53.314
1500.00,53.327
1501.00, 
1502.00, 
1503.00, 
1504.00, 
1505.00, 
1506.00, 
1507.00, 
1508.00, 
1509.00, 
1510.00, 
1511.00, 
1512.00, 
1513.00, 
1514.00, 
1515.00, 
1516.00, 
1517.00, 
1518.00, 
1519.00, 
1520.00, 
1521.00, 
1522.00, 
1523.00, 
1524.00, 
1525.00, 
1526.00, 
1527.00, 
1528.00, 
1529.00, 
1530.00, 
1531.00, 
1532.00, 
1533.00, 
1534.00, 
1535.00, 
1536.00, 
1537.00, 
1538.00, 
1539.00, 
1540.00, 
1541.00, 
1542.00, 
1543.00, 
1544.00, 
1545.00, 
1546.00, 
1547.00, 
1548.00, 
1549.00, 
1550.00, 
1551.00, 
1552.00, 
1553.00, 
1554.00, 
1555.00, 
1556.00, 
1557.00, 
1558.00, 
1559.00, 
1560.00, 
1561.00, 
1562.00, 
1563.00, 
1564.00, 
1565.00, 
1566.00, 
1567.00, 
1568.00, 
1569.00, 
1570.00, 
1571.00, 
1572.00, 
1573.00, 
1574.00, 
1575.00, 
1576.00, 
1577.00, 
1578.00, 
1579.00, 
1580.00, 
1581.00, 
1582.00, 
1583.00, 
1584.00, 
1585.00, 
1586.00, 
1587.00, 
1588.00, 
1589.00, 
1590.00, 
1591.00, 
1592.00, 
1593.00, 
1594.00, 
1595.00, 
1596.00, 
1597.00, 
1598.00, 
1599.00, 
1600.00, 
1601.00, 
1602.00, 
1603.00, 
1604.00, 
1605.00, 
1606.00, 
1607.00, 
1608.00, 
1609.00, 
1610.00, 
1611.00, 
1612.00, 
1613.00, 
1614.00, 
1615.00, 
1616.00, 
1617.00, 
1618.00, 
1619.00, 
1620.00, 
1621.00, 
1622.00, 
1623.00, 
1624.00, 
1625.00, 
1626.00, 
1627.00, 
1628.00, 
1629.00, 
1630.00, 
1631.00, 
1632.00, 
1633.00, 
1634.00, 
1635.00, 
1636.00, 
1637.00, 
1638.00, 
1639.00, 
1640.00, 
1641.00, 
1642.00, 
1643.00, 
1644.00, 
1645.00, 
1646.00, 
1647.00, 
1648.00, 
1649.00, 
1650.00, 
1651.00, 
1652.00, 
1653.00, 
1654.00, 
1655.00, 
1656.00, 
1657.00, 
1658.00, 
1659.00, 
1660.00, 
1661.00, 
1662.00, 
1663.00, 
1664.00, 
1665.00, 
1666.00, 
1667.00, 
1668.00, 
1669.00, 
1670.00, 
1671.00, 
1672.00, 
1673.00, 
1674.00, 
1675.00, 
1676.00, 
1677.00, 
1678.00, 
1679.00, 
1680.00, 
1681.00, 
1682.00, 
1683.00, 
1684.00, 
1685.00, 
1686.00, 
1687.00, 
1688.00, 
1689.00, 
1690.00, 
1691.00, 
1692.00, 
1693.00, 
1694.00, 
1695.00, 
1696.00, 
1697.00, 
1698.00, 
1699.00, 
1700.00, 
1701.00, 
1702.00, 
1703.00, 
1704.00, 
1705.00, 
1706.00, 
1707.00, 
1708.00, 
1709.00, 
1710.00, 
1711.00, 
1712.00, 
1713.00, 
1714.00, 
1715.00, 
1716.00, 
1717.00, 
1718.00, 
1719.00, 
1720.00, 
1721.00, 
1722.00, 
1723.00, 
1724.00, 
1725.00, 
1726.00, 
1727.00, 
1728.00, 
1729.00, 
1730.00, 
1731.00, 
1732.00, 
1733.00, 
1734.00, 
1735.00, 
1736.00, 
1737.00, 
1738.00, 
1739.00, 
1740.00, 
1741.00, 
1742.00, 
1743.00, 
1744.00, 
1745.00, 
1746.00, 
1747.00, 
1748.00, 
1749.00, 
1750.00, 
1751.00, 
1752.00, 
1753.00, 
1754.00, 
1755.00, 
1756.00, 
1757.00, 
1758.00, 
1759.00, 
1760.00, 
1761.00, 
1762.00, 
1763.00, 
1764.00, 
1765.00, 
1766.00, 
1767.00, 
1768.00, 
1769.00, 
1770.00, 
1771.00, 
1772.00, 
1773.00, 
1774.00, 
1775.00, 
1776.00, 
1777.00, 
1778.00, 
1779.00, 
1780.00, 
1781.00, 
1782.00, 
1783.00, 
1784.00, 
1785.00, 
1786.00, 
1787.00, 
1788.00, 
1789.00, 
1790.00, 
1791.00, 
1792.00, 
1793.00, 
1794.00, 
1795.00, 
1796.00, 
1797.00, 
1798.00, 
1799.00, 
1800.00, 
1801.00, 
1802.00, 
1803.00, 
1804.00, 
1805.00, 
1806.00, 
1807.00, 
1808.00, 
1809.00, 
1810.00, 
1811.00, 
1812.00, 
1813.00, 
1814.00, 
1815.00, 
1816.00, 
1817.00, 
1818.00, 
1819.00, 
1820.00, 
1821.00, 
1822.00, 
1823.00, 
1824.00, 
1825.00, 
1826.00, 
1827.00, 
1828.00, 
1829.00, 
1830.00, 
1831.00, 
1832.00, 
1833.00, 
1834.00, 
1835.00, 
1836.00, 
1837.00, 
1838.00, 
1839.00, 
1840.00, 
1841.00, 
1842.00, 
1843.00, 
1844.00, 
1845.00, 
1846.00, 
1847.00, 
1848.00, 
1849.00, 
1850.00, 
1851.00, 
1852.00, 
1853.00, 
1854.00, 
1855.00, 
1856.00, 
1857.00, 
1858.00, 
1859.00, 
1860.00, 
1861.00, 
1862.00, 
1863.00, 
1864.00, 
1865.00, 
1866.00, 
1867.00, 
1868.00, 
1869.00, 
1870.00, 
1871.00, 
1872.00, 
1873.00, 
1874.00, 
1875.00, 
1876.00, 
1877.00, 
1878.00, 
1879.00, 
1880.00, 
1881.00, 
1882.00, 
1883.00, 
1884.00, 
1885.00, 
1886.00, 
1887.00, 
1888.00, 
1889.00, 
1890.00, 
1891.00, 
1892.00, 
1893.00, 
1894.00, 
1895.00, 
1896.00, 
1897.00, 
1898.00, 
1899.00, 
1900.00, 
1901.00, 
1902.00, 
1903.00, 
1904.00, 
1905.00, 
1906.00, 
1907.00, 
1908.00, 
1909.00, 
1910.00, 
1911.00, 
1912.00, 
1913.00, 
1914.00, 
1915.00, 
1916.00, 
1917.00, 
1918.00, 
1919.00, 
1920.00, 
1921.00, 
1922.00, 
1923.00, 
1924.00, 
1925.00, 
1926.00, 
1927.00, 
1928.00, 
1929.00, 
1930.00, 
1931.00, 
1932.00, 
1933.00, 
1934.00, 
1935.00, 
1936.00, 
1937.00, 
1938.00, 
1939.00, 
1940.00, 
1941.00, 
1942.00, 
1943.00, 
1944.00, 
1945.00, 
1946.00, 
1947.00, 
1948.00, 
1949.00, 
1950.00, 
1951.00, 
1952.00, 
1953.00, 
1954.00, 
1955.00, 
1956.00, 
1957.00, 
1958.00, 
1959.00, 
1960.00, 
1961.00, 
1962.00, 
1963.00, 
1964.00, 
1965.00, 
1966.00, 
1967.00, 
1968.00, 
1969.00, 
1970.00, 
1971.00, 
1972.00, 
1973.00, 
1974.00, 
1975.00, 
1976.00, 
1977.00, 
1978.00, 
1979.00, 
1980.00, 
1981.00, 
1982.00, 
1983.00, 
1984.00, 
1985.00, 
1986.00, 
1987.00, 
1988.00, 
1989.00, 
1990.00, 
1991.00, 
1992.00, 
1993.00, 
1994.00, 
1995.00, 
1996.00, 
1997.00, 
1998.00, 
1999.00, 
2000.00, 
2001.00, 
2002.00, 
2003.00, 
2004.00, 
2005.00, 
2006.00, 
2007.00, 
2008.00, 
2009.00, 
2010.00, 
2011.00, 
2012.00, 
2013.00, 
2014.00, 
2015.00, 
2016.00, 
2017.00, 
2018.00, 
2019.00, 
2020.00, 
2021.00, 
2022.00, 
2023.00, 
2024.00, 
2025.00, 
2026.00, 
2027.00, 
2028.00, 
2029.00, 
2030.00, 
2031.00, 
2032.00, 
2033.00, 
2034.00, 
2035.00, 
2036.00, 
2037.00, 
2038.00, 
2039.00, 
2040.00, 
2041.00, 
2042.00, 
2043.00, 
2044.00, 
2045.00, 
2046.00, 
2047.00, 
2048.00, 
2049.00, 
2050.00, 
2051.00, 
2052.00, 
2053.00, 
2054.00, 
2055.00, 
2056.00, 
2057.00, 
2058.00, 
2059.00, 
2060.00, 
2061.00, 
2062.00, 
2063.00, 
2064.00, 
2065.00, 
2066.00, 
2067.00, 
2068.00, 
2069.00, 
2070.00, 
2071.00, 
2072.00, 
2073.00, 
2074.00, 
2075.00, 
2076.00, 
2077.00, 
2078.00, 
2079.00, 
2080.00, 
2081.00, 
2082.00, 
2083.00, 
2084.00, 
2085.00, 
2086.00, 
2087.00, 
2088.00, 
2089.00, 
2090.00, 
2091.00, 
2092.00, 
2093.00, 
2094.00, 
2095.00, 
2096.00, 
2097.00, 
2098.00, 
2099.00, 
2100.00, 
2101.00, 
2102.00, 
2103.00, 
2104.00, 
2105.00, 
2106.00, 
2107.00, 
2108.00, 
2109.00, 
2110.00, 
2111.00, 
2112.00, 
2113.00, 
2114.00, 
2115.00, 
2116.00, 
2117.00, 
2118.00, 
2119.00, 
2120.00, 
2121.00, 
2122.00, 
2123.00, 
2124.00, 
2125.00, 
2126.00, 
2127.00, 
2128.00, 
2129.00, 
2130.00, 
2131.00, 
2132.00, 
2133.00, 
2134.00, 
2135.00, 
2136.00, 
2137.00, 
2138.00, 
2139.00, 
2140.00, 
2141.00, 
2142.00, 
2143.00, 
2144.00, 
2145.00, 
2146.00, 
2147.00, 
2148.00, 
2149.00, 
2150.00, 
2151.00, 
2152.00, 
2153.00, 
2154.00, 
2155.00, 
2156.00, 
2157.00, 
2158.00, 
2159.00, 
2160.00, 
2161.00, 
2162.00, 
2163.00, 
2164.00, 
2165.00, 
2166.00, 
2167.00, 
2168.00, 
2169.00, 
2170.00, 
2171.00, 
2172.00, 
2173.00, 
2174.00, 
2175.00, 
2176.00, 
2177.00, 
2178.00, 
2179.00, 
2180.00, 
2181.00, 
2182.00, 
2183.00, 
2184.00, 
2185.00, 
2186.00, 
2187.00, 
2188.00, 
2189.00, 
2190.00, 
2191.00, 
2192.00, 
2193.00, 
2194.00, 
2195.00, 
2196.00, 
2197.00, 
2198.00, 
2199.00, 
2200.00, 
2201.00, 
2202.00, 
2203.00, 
2204.00, 
2205.00, 
2206.00, 
2207.00, 
2208.00, 
2209.00, 
2210.00, 
2211.00, 
2212.00, 
2213.00, 
2214.00, 
2215.00, 
2216.00, 
2217.00, 
2218.00, 
2219.00, 
2220.00, 
2221.00, 
2222.00, 
2223.00, 
2224.00, 
2225.00, 
2226.00, 
2227.00, 
2228.00, 
2229.00, 
2230.00, 
2231.00, 
2232.00, 
2233.00, 
2234.00, 
2235.00, 
2236.00, 
2237.00, 
2238.00, 
2239.00, 
2240.00, 
2241.00, 
2242.00, 
2243.00, 
2244.00, 
2245.00, 
2246.00, 
2247.00, 
2248.00, 
2249.00, 
2250.00, 
2251.00, 
2252.00, 
2253.00, 
2254.00, 
2255.00, 
2256.00, 
2257.00, 
2258.00, 
2259.00, 
2260.00, 
2261.00, 
2262.00, 
2263.00, 
2264.00, 
2265.00, 
2266.00, 
2267.00, 
2268.00, 
2269.00, 
2270.00, 
2271.00, 
2272.00, 
2273.00, 
2274.00, 
2275.00, 
2276.00, 
2277.00, 
2278.00, 
2279.00, 
2280.00, 
2281.00, 
2282.00, 
2283.00, 
2284.00, 
2285.00, 
2286.00, 
2287.00, 
2288.00, 
2289.00, 
2290.00, 
2291.00, 
2292.00, 
2293.00, 
2294.00, 
2295.00, 
2296.00, 
2297.00, 
2298.00, 
2299.00, 
2300.00, 
2301.00, 
2302.00, 
2303.00, 
2304.00, 
2305.00, 
2306.00, 
2307.00, 
2308.00, 
2309.00, 
2310.00, 
2311.00, 
2312.00, 
2313.00, 
2314.00, 
2315.00, 
2316.00, 
2317.00, 
2318.00, 
2319.00, 
2320.00, 
2321.00, 
2322.00, 
2323.00, 
2324.00, 
2325.00, 
2326.00, 
2327.00, 
2328.00, 
2329.00, 
2330.00, 
2331.00, 
2332.00, 
2333.00, 
2334.00, 
2335.00, 
2336.00, 
2337.00, 
2338.00, 
2339.00, 
2340.00, 
2341.00, 
2342.00, 
2343.00, 
2344.00, 
2345.00, 
2346.00, 
2347.00, 
2348.00, 
2349.00, 
2350.00, 
2351.00, 
2352.00, 
2353.00, 
2354.00, 
2355.00, 
2356.00, 
2357.00, 
2358.00, 
2359.00, 
2360.00, 
2361.00, 
2362.00, 
2363.00, 
2364.00, 
2365.00, 
2366.00, 
2367.00, 
2368.00, 
2369.00, 
2370.00, 
2371.00, 
2372.00, 
2373.00, 
2374.00, 
2375.00, 
2376.00, 
2377.00, 
2378.00, 
2379.00, 
2380.00, 
2381.00, 
2382.00, 
2383.00, 
2384.00, 
2385.00, 
2386.00, 
2387.00, 
2388.00, 
2389.00, 
2390.00, 
2391.00, 
2392.00, 
2393.00, 
2394.00, 
2395.00, 
2396.00, 
2397.00, 
2398.00, 
2399.00, 
2400.00, 
2401.00, 
2402.00, 
2403.00, 
2404.00, 
2405.00, 
2406.00, 
2407.00, 
2408.00, 
2409.00, 
2410.00, 
2411.00, 
2412.00, 
2413.00, 
2414.00, 
2415.00, 
2416.00, 
2417.00, 
2418.00, 
2419.00, 
2420.00, 
2421.00, 
2422.00, 
2423.00, 
2424.00, 
2425.00, 
2426.00, 
2427.00, 
2428.00, 
2429.00, 
2430.00, 
2431.00, 
2432.00, 
2433.00, 
2434.00, 
2435.00, 
2436.00, 
2437.00, 
2438.00, 
2439.00, 
2440.00, 
2441.00, 
2442.00, 
2443.00, 
2444.00, 
2445.00, 
2446.00, 
2447.00, 
2448.00, 
2449.00, 
2450.00, 
2451.00, 
2452.00, 
2453.00, 
2454.00, 
2455.00, 
2456.00, 
2457.00, 
2458.00, 
2459.00, 
2460.00, 
2461.00, 
2462.00, 
2463.00, 
2464.00, 
2465.00, 
2466.00, 
2467.00, 
2468.00, 
2469.00, 
2470.00, 
2471.00, 
2472.00, 
2473.00, 
2474.00, 
2475.00, 
2476.00, 
2477.00, 
2478.00, 
2479.00, 
2480.00, 
2481.00, 
2482.00, 
2483.00, 
2484.00, 
2485.00, 
2486.00, 
2487.00, 
2488.00, 
2489.00, 
2490.00, 
2491.00, 
2492.00, 
2493.00, 
2494.00, 
2495.00, 
2496.00, 
2497.00, 
2498.00, 
2499.00, 
2500.00, 
2501.00, 
2502.00, 
2503.00, 
2504.00, 
2505.00, 
2506.00, 
2507.00, 
2508.00, 
2509.00, 
2510.00, 
2511.00, 
2512.00, 
2513.00, 
2514.00, 
2515.00, 
2516.00, 
2517.00, 
2518.00, 
2519.00, 
2520.00, 
2521.00, 
2522.00, 
2523.00, 
2524.00, 
2525.00, 
2526.00, 
2527.00, 
2528.00, 
2529.00, 
2530.00, 
2531.00, 
2532.00, 
2533.00, 
2534.00, 
2535.00, 
2536.00, 
2537.00, 
2538.00, 
2539.00, 
2540.00, 
2541.00, 
2542.00, 
2543.00, 
2544.00, 
2545.00, 
2546.00, 
2547.00, 
2548.00, 
2549.00, 
2550.00, 
2551.00, 
2552.00, 
2553.00, 
2554.00, 
2555.00, 
2556.00, 
2557.00, 
2558.00, 
2559.00, 
2560.00, 
2561.00, 
2562.00, 
2563.00, 
2564.00, 
2565.00, 
2566.00, 
2567.00, 
2568.00, 
2569.00, 
2570.00, 
2571.00, 
2572.00, 
2573.00, 
2574.00, 
2575.00, 
2576.00, 
2577.00, 
2578.00, 
2579.00, 
2580.00, 
2581.00, 
2582.00, 
2583.00, 
2584.00, 
2585.00, 
2586.00, 
2587.00, 
2588.00, 
2589.00, 
2590.00, 
2591.00, 
2592.00, 
2593.00, 
2594.00, 
2595.00, 
2596.00, 
2597.00, 
2598.00, 
2599.00, 
2600.00, 
