"1cP5 - RawData"
"Wavelength nm.","T%"
200.00,0.003
201.00,0.003
202.00,-0.001
203.00,0.000
204.00,0.000
205.00,0.001
206.00,0.000
207.00,0.001
208.00,-0.003
209.00,0.001
210.00,0.000
211.00,0.002
212.00,0.002
213.00,0.001
214.00,0.001
215.00,-0.000
216.00,0.001
217.00,0.001
218.00,-0.001
219.00,0.000
220.00,0.002
221.00,0.003
222.00,0.002
223.00,-0.000
224.00,0.002
225.00,0.001
226.00,0.003
227.00,0.000
228.00,-0.000
229.00,0.005
230.00,-0.002
231.00,0.001
232.00,-0.000
233.00,0.001
234.00,0.001
235.00,-0.001
236.00,0.001
237.00,0.001
238.00,0.001
239.00,0.000
240.00,-0.000
241.00,0.001
242.00,-0.000
243.00,-0.001
244.00,0.002
245.00,-0.001
246.00,0.001
247.00,0.002
248.00,0.002
249.00,-0.002
250.00,0.000
251.00,0.001
252.00,0.000
253.00,-0.001
254.00,-0.001
255.00,0.001
256.00,0.000
257.00,0.001
258.00,0.001
259.00,-0.001
260.00,0.000
261.00,0.001
262.00,-0.000
263.00,0.001
264.00,-0.001
265.00,0.003
266.00,0.001
267.00,-0.000
268.00,0.000
269.00,-0.001
270.00,0.000
271.00,-0.000
272.00,0.000
273.00,-0.000
274.00,0.001
275.00,0.001
276.00,-0.000
277.00,-0.000
278.00,0.001
279.00,0.001
280.00,0.001
281.00,0.000
282.00,0.001
283.00,0.001
284.00,0.000
285.00,0.000
286.00,0.000
287.00,-0.001
288.00,-0.001
289.00,-0.001
290.00,-0.000
291.00,-0.001
292.00,0.000
293.00,-0.000
294.00,-0.000
295.00,0.001
296.00,0.000
297.00,-0.001
298.00,0.000
299.00,-0.000
300.00,0.000
301.00,0.001
302.00,-0.000
303.00,0.001
304.00,0.001
305.00,0.000
306.00,0.003
307.00,0.006
308.00,0.007
309.00,0.011
310.00,0.018
311.00,0.028
312.00,0.042
313.00,0.062
314.00,0.102
315.00,0.150
316.00,0.213
317.00,0.299
318.00,0.405
319.00,0.546
320.00,0.732
321.00,0.950
322.00,1.212
323.00,1.519
324.00,1.881
325.00,2.275
326.00,2.694
327.00,3.193
328.00,3.730
329.00,4.302
330.00,4.952
331.00,5.577
332.00,6.259
333.00,6.985
334.00,7.726
335.00,8.483
336.00,9.275
337.00,10.035
338.00,10.804
339.00,11.470
340.00,12.323
341.00,13.086
342.00,13.788
343.00,14.507
344.00,15.109
345.00,15.811
346.00,16.420
347.00,17.005
348.00,17.598
349.00,18.067
350.00,18.573
351.00,19.039
352.00,19.432
353.00,19.890
354.00,20.269
355.00,20.620
356.00,20.949
357.00,21.227
358.00,21.509
359.00,21.853
360.00,22.133
361.00,22.329
362.00,22.546
363.00,22.785
364.00,22.905
365.00,22.997
366.00,23.116
367.00,23.237
368.00,23.339
369.00,23.367
370.00,23.438
371.00,23.438
372.00,23.429
373.00,23.405
374.00,23.440
375.00,23.374
376.00,23.312
377.00,23.280
378.00,23.146
379.00,23.071
380.00,23.067
381.00,23.019
382.00,23.016
383.00,23.050
384.00,23.138
385.00,23.215
386.00,23.226
387.00,23.386
388.00,23.398
389.00,23.455
390.00,23.475
391.00,23.591
392.00,23.628
393.00,23.676
394.00,23.705
395.00,23.762
396.00,23.703
397.00,23.771
398.00,23.789
399.00,23.809
400.00,23.801
401.00,23.815
402.00,23.788
403.00,23.781
404.00,23.798
405.00,23.756
406.00,23.763
407.00,23.727
408.00,23.720
409.00,23.668
410.00,23.604
411.00,23.606
412.00,23.576
413.00,23.614
414.00,23.542
415.00,23.527
416.00,23.590
417.00,23.563
418.00,23.583
419.00,23.641
420.00,23.683
421.00,23.766
422.00,23.786
423.00,23.801
424.00,23.840
425.00,23.841
426.00,23.884
427.00,23.951
428.00,23.959
429.00,24.034
430.00,24.085
431.00,24.150
432.00,24.159
433.00,24.253
434.00,24.233
435.00,24.375
436.00,24.404
437.00,24.480
438.00,24.578
439.00,24.615
440.00,24.695
441.00,24.743
442.00,24.856
443.00,24.948
444.00,25.030
445.00,25.106
446.00,25.247
447.00,25.318
448.00,25.409
449.00,25.503
450.00,25.633
451.00,25.740
452.00,25.800
453.00,26.026
454.00,26.139
455.00,26.171
456.00,26.319
457.00,26.430
458.00,26.480
459.00,26.641
460.00,26.796
461.00,26.930
462.00,27.058
463.00,27.192
464.00,27.349
465.00,27.425
466.00,27.539
467.00,27.720
468.00,27.797
469.00,27.922
470.00,28.021
471.00,28.128
472.00,28.267
473.00,28.300
474.00,28.440
475.00,28.564
476.00,28.660
477.00,28.843
478.00,28.845
479.00,29.080
480.00,29.166
481.00,29.325
482.00,29.508
483.00,29.625
484.00,29.829
485.00,29.987
486.00,30.130
487.00,30.268
488.00,30.393
489.00,30.515
490.00,30.680
491.00,30.803
492.00,30.961
493.00,31.180
494.00,31.296
495.00,31.352
496.00,31.515
497.00,31.557
498.00,31.732
499.00,31.932
500.00,31.995
501.00,32.054
502.00,32.304
503.00,32.404
504.00,32.343
505.00,32.549
506.00,32.767
507.00,32.795
508.00,32.920
509.00,33.087
510.00,33.238
511.00,33.291
512.00,33.478
513.00,33.600
514.00,33.696
515.00,33.858
516.00,33.994
517.00,34.026
518.00,34.194
519.00,34.242
520.00,34.261
521.00,34.363
522.00,34.504
523.00,34.543
524.00,34.594
525.00,34.719
526.00,34.816
527.00,34.846
528.00,34.924
529.00,35.051
530.00,35.216
531.00,35.352
532.00,35.450
533.00,35.485
534.00,35.638
535.00,35.704
536.00,35.786
537.00,35.904
538.00,35.965
539.00,35.985
540.00,36.087
541.00,36.093
542.00,36.169
543.00,36.245
544.00,36.299
545.00,36.399
546.00,36.483
547.00,36.598
548.00,36.659
549.00,36.679
550.00,36.727
551.00,36.881
552.00,36.956
553.00,36.949
554.00,37.052
555.00,37.061
556.00,37.119
557.00,37.153
558.00,37.264
559.00,37.351
560.00,37.342
561.00,37.450
562.00,37.490
563.00,37.439
564.00,37.470
565.00,37.574
566.00,37.505
567.00,37.666
568.00,37.712
569.00,37.695
570.00,37.767
571.00,37.785
572.00,37.770
573.00,37.772
574.00,37.845
575.00,37.830
576.00,37.847
577.00,37.892
578.00,38.014
579.00,37.976
580.00,38.005
581.00,38.199
582.00,38.331
583.00,38.311
584.00,38.426
585.00,38.487
586.00,38.507
587.00,38.576
588.00,38.573
589.00,38.540
590.00,38.628
591.00,38.682
592.00,38.665
593.00,38.708
594.00,38.793
595.00,38.862
596.00,38.858
597.00,38.895
598.00,38.992
599.00,38.976
600.00,39.048
601.00,39.073
602.00,39.128
603.00,39.089
604.00,39.147
605.00,39.131
606.00,39.073
607.00,39.145
608.00,39.427
609.00,39.458
610.00,39.401
611.00,39.475
612.00,39.507
613.00,39.540
614.00,39.634
615.00,39.654
616.00,39.746
617.00,39.716
618.00,39.772
619.00,39.783
620.00,39.829
621.00,39.877
622.00,39.907
623.00,40.058
624.00,40.062
625.00,40.114
626.00,40.217
627.00,40.190
628.00,40.262
629.00,40.254
630.00,40.289
631.00,40.365
632.00,40.453
633.00,40.572
634.00,40.674
635.00,40.725
636.00,40.806
637.00,40.855
638.00,40.874
639.00,40.923
640.00,40.982
641.00,40.995
642.00,41.085
643.00,41.175
644.00,41.225
645.00,41.311
646.00,41.403
647.00,41.444
648.00,41.539
649.00,41.591
650.00,41.541
651.00,41.623
652.00,41.739
653.00,41.808
654.00,41.844
655.00,41.943
656.00,42.171
657.00,42.154
658.00,42.215
659.00,42.422
660.00,42.471
661.00,42.379
662.00,42.482
663.00,42.537
664.00,42.783
665.00,42.931
666.00,42.838
667.00,43.080
668.00,43.023
669.00,43.183
670.00,43.357
671.00,43.313
672.00,43.332
673.00,43.469
674.00,43.617
675.00,43.643
676.00,43.763
677.00,43.986
678.00,43.844
679.00,43.912
680.00,44.037
681.00,44.346
682.00,44.316
683.00,44.363
684.00,44.528
685.00,44.558
686.00,44.424
687.00,44.513
688.00,44.709
689.00,44.727
690.00,44.859
691.00,45.156
692.00,44.997
693.00,44.990
694.00,45.092
695.00,45.321
696.00,45.368
697.00,45.500
698.00,45.477
699.00,45.610
700.00,45.792
701.00,45.653
702.00,45.829
703.00,45.923
704.00,46.081
705.00,45.981
706.00,46.081
707.00,46.186
708.00,46.063
709.00,46.313
710.00,46.638
711.00,46.370
712.00,46.489
713.00,46.481
714.00,46.618
715.00,46.691
716.00,46.721
717.00,46.748
718.00,46.878
719.00,46.854
720.00,47.065
721.00,51.353
722.00,51.295
723.00,51.315
724.00,51.341
725.00,51.391
726.00,51.348
727.00,51.387
728.00,51.438
729.00,51.413
730.00,51.434
731.00,51.469
732.00,51.445
733.00,51.462
734.00,51.499
735.00,51.579
736.00,51.572
737.00,51.599
738.00,51.625
739.00,51.703
740.00,51.737
741.00,51.753
742.00,51.766
743.00,51.806
744.00,51.711
745.00,51.745
746.00,51.712
747.00,51.747
748.00,51.780
749.00,51.707
750.00,51.731
751.00,51.787
752.00,51.743
753.00,51.702
754.00,51.788
755.00,51.710
756.00,51.782
757.00,51.697
758.00,51.795
759.00,51.735
760.00,51.726
761.00,51.766
762.00,51.787
763.00,51.823
764.00,51.802
765.00,51.785
766.00,51.757
767.00,51.882
768.00,51.829
769.00,51.852
770.00,51.916
771.00,51.881
772.00,52.043
773.00,51.868
774.00,51.877
775.00,51.831
776.00,51.810
777.00,51.911
778.00,51.817
779.00,51.956
780.00,51.877
781.00,51.865
782.00,51.955
783.00,51.863
784.00,51.886
785.00,51.792
786.00,51.867
787.00,51.777
788.00,51.780
789.00,51.813
790.00,51.786
791.00,51.830
792.00,51.771
793.00,51.732
794.00,51.676
795.00,51.763
796.00,51.671
797.00,51.640
798.00,51.689
799.00,51.625
800.00,51.593
801.00,51.633
802.00,51.593
803.00,51.657
804.00,51.571
805.00,51.589
806.00,51.569
807.00,51.554
808.00,51.504
809.00,51.476
810.00,51.426
811.00,51.493
812.00,51.494
813.00,51.447
814.00,51.434
815.00,51.390
816.00,51.382
817.00,51.350
818.00,51.291
819.00,51.364
820.00,51.278
821.00,51.300
822.00,51.211
823.00,51.228
824.00,51.240
825.00,51.168
826.00,51.112
827.00,51.201
828.00,51.285
829.00,51.159
830.00,51.214
831.00,53.509
832.00,53.478
833.00,53.401
834.00,53.444
835.00,53.424
836.00,53.332
837.00,53.357
838.00,53.330
839.00,53.356
840.00,53.299
841.00,53.323
842.00,53.292
843.00,53.290
844.00,53.276
845.00,53.209
846.00,53.215
847.00,53.171
848.00,53.158
849.00,53.133
850.00,53.104
851.00,52.985
852.00,53.012
853.00,53.123
854.00,52.979
855.00,52.913
856.00,52.899
857.00,52.898
858.00,52.863
859.00,52.840
860.00,52.843
861.00,52.841
862.00,52.805
863.00,52.833
864.00,52.740
865.00,52.798
866.00,52.731
867.00,52.755
868.00,52.742
869.00,52.702
870.00,52.700
871.00,52.700
872.00,52.685
873.00,52.690
874.00,52.671
875.00,52.628
876.00,52.648
877.00,52.621
878.00,52.585
879.00,52.590
880.00,52.563
881.00,52.546
882.00,52.583
883.00,52.492
884.00,52.493
885.00,52.441
886.00,52.465
887.00,52.415
888.00,52.412
889.00,52.405
890.00,52.400
891.00,52.368
892.00,52.326
893.00,52.313
894.00,52.309
895.00,52.274
896.00,52.298
897.00,52.247
898.00,52.236
899.00,52.226
900.00,52.206
901.00,52.210
902.00,52.207
903.00,52.175
904.00,52.156
905.00,52.198
906.00,52.087
907.00,52.119
908.00,52.074
909.00,52.057
910.00,52.030
911.00,52.010
912.00,52.020
913.00,51.958
914.00,51.967
915.00,51.949
916.00,51.921
917.00,51.913
918.00,51.885
919.00,51.862
920.00,51.814
921.00,51.831
922.00,51.811
923.00,51.778
924.00,51.768
925.00,51.767
926.00,51.720
927.00,51.732
928.00,51.697
929.00,51.696
930.00,51.651
931.00,51.660
932.00,51.602
933.00,51.607
934.00,51.576
935.00,51.584
936.00,51.545
937.00,51.537
938.00,51.525
939.00,51.527
940.00,51.470
941.00,51.474
942.00,51.416
943.00,51.442
944.00,51.392
945.00,51.400
946.00,51.386
947.00,51.364
948.00,51.339
949.00,51.303
950.00,51.305
951.00,51.274
952.00,51.263
953.00,51.201
954.00,51.241
955.00,51.141
956.00,51.137
957.00,51.042
958.00,51.117
959.00,51.060
960.00,51.051
961.00,51.046
962.00,51.053
963.00,51.007
964.00,50.992
965.00,51.017
966.00,50.993
967.00,50.990
968.00,50.969
969.00,50.990
970.00,50.944
971.00,50.973
972.00,50.929
973.00,50.959
974.00,50.991
975.00,50.941
976.00,50.985
977.00,50.956
978.00,51.002
979.00,50.953
980.00,50.963
981.00,50.962
982.00,50.925
983.00,50.940
984.00,50.920
985.00,50.959
986.00,50.896
987.00,50.922
988.00,50.893
989.00,50.862
990.00,50.882
991.00,50.864
992.00,50.878
993.00,50.838
994.00,50.820
995.00,50.811
996.00,50.812
997.00,50.797
998.00,50.752
999.00,50.786
1000.00,50.736
1001.00,50.726
1002.00,50.670
1003.00,50.705
1004.00,50.699
1005.00,50.670
1006.00,50.705
1007.00,50.670
1008.00,50.652
1009.00,50.649
1010.00,50.624
1011.00,50.611
1012.00,50.605
1013.00,50.602
1014.00,50.541
1015.00,50.590
1016.00,50.532
1017.00,50.515
1018.00,50.492
1019.00,50.487
1020.00,50.488
1021.00,50.450
1022.00,50.458
1023.00,50.420
1024.00,50.426
1025.00,50.412
1026.00,50.400
1027.00,50.375
1028.00,50.355
1029.00,50.362
1030.00,50.310
1031.00,50.329
1032.00,50.289
1033.00,50.280
1034.00,50.265
1035.00,50.233
1036.00,50.199
1037.00,50.193
1038.00,50.171
1039.00,50.148
1040.00,50.156
1041.00,50.100
1042.00,50.105
1043.00,50.080
1044.00,50.112
1045.00,50.108
1046.00,50.085
1047.00,50.098
1048.00,50.107
1049.00,50.127
1050.00,50.117
1051.00,50.160
1052.00,50.165
1053.00,50.186
1054.00,50.168
1055.00,50.183
1056.00,50.206
1057.00,50.215
1058.00,50.201
1059.00,50.185
1060.00,50.218
1061.00,50.190
1062.00,50.162
1063.00,50.169
1064.00,50.148
1065.00,50.147
1066.00,50.136
1067.00,50.140
1068.00,50.163
1069.00,50.123
1070.00,50.120
1071.00,50.078
1072.00,50.101
1073.00,50.073
1074.00,50.068
1075.00,50.083
1076.00,50.096
1077.00,50.061
1078.00,50.044
1079.00,50.043
1080.00,50.038
1081.00,50.031
1082.00,50.013
1083.00,50.008
1084.00,49.997
1085.00,49.998
1086.00,50.000
1087.00,49.983
1088.00,50.005
1089.00,50.011
1090.00,49.980
1091.00,49.981
1092.00,49.964
1093.00,49.948
1094.00,49.928
1095.00,49.924
1096.00,49.910
1097.00,49.910
1098.00,49.900
1099.00,49.888
1100.00,49.885
1101.00,49.875
1102.00,49.861
1103.00,49.861
1104.00,49.838
1105.00,49.833
1106.00,49.814
1107.00,49.801
1108.00,49.794
1109.00,49.793
1110.00,49.784
1111.00,49.783
1112.00,49.760
1113.00,49.754
1114.00,49.768
1115.00,49.763
1116.00,49.755
1117.00,49.746
1118.00,49.737
1119.00,49.747
1120.00,49.729
1121.00,49.705
1122.00,49.715
1123.00,49.736
1124.00,49.697
1125.00,49.703
1126.00,49.703
1127.00,49.692
1128.00,49.673
1129.00,49.659
1130.00,49.658
1131.00,49.661
1132.00,49.648
1133.00,49.637
1134.00,49.639
1135.00,49.592
1136.00,49.623
1137.00,49.654
1138.00,49.642
1139.00,49.654
1140.00,49.613
1141.00,49.620
1142.00,49.612
1143.00,49.618
1144.00,49.608
1145.00,49.619
1146.00,49.610
1147.00,49.608
1148.00,49.592
1149.00,49.600
1150.00,49.605
1151.00,49.587
1152.00,49.577
1153.00,49.587
1154.00,49.581
1155.00,49.587
1156.00,49.586
1157.00,49.589
1158.00,49.588
1159.00,49.576
1160.00,49.570
1161.00,49.589
1162.00,49.570
1163.00,49.572
1164.00,49.570
1165.00,49.555
1166.00,49.560
1167.00,49.549
1168.00,49.557
1169.00,49.551
1170.00,49.561
1171.00,49.562
1172.00,49.567
1173.00,49.555
1174.00,49.566
1175.00,49.552
1176.00,49.551
1177.00,49.542
1178.00,49.541
1179.00,49.540
1180.00,49.553
1181.00,49.566
1182.00,49.558
1183.00,49.544
1184.00,49.528
1185.00,49.555
1186.00,49.546
1187.00,49.559
1188.00,49.549
1189.00,49.553
1190.00,49.537
1191.00,49.529
1192.00,49.554
1193.00,49.538
1194.00,49.545
1195.00,49.522
1196.00,49.556
1197.00,49.555
1198.00,49.539
1199.00,49.552
1200.00,49.559
1201.00,49.576
1202.00,49.554
1203.00,49.550
1204.00,49.546
1205.00,49.567
1206.00,49.539
1207.00,49.542
1208.00,49.532
1209.00,49.536
1210.00,49.534
1211.00,49.536
1212.00,49.538
1213.00,49.517
1214.00,49.554
1215.00,49.535
1216.00,49.524
1217.00,49.525
1218.00,49.537
1219.00,49.549
1220.00,49.540
1221.00,49.559
1222.00,49.547
1223.00,49.563
1224.00,49.567
1225.00,49.572
1226.00,49.553
1227.00,49.553
1228.00,49.585
1229.00,49.580
1230.00,49.610
1231.00,49.594
1232.00,49.624
1233.00,49.634
1234.00,49.626
1235.00,49.626
1236.00,49.623
1237.00,49.620
1238.00,49.622
1239.00,49.632
1240.00,49.620
1241.00,49.633
1242.00,49.617
1243.00,49.652
1244.00,49.642
1245.00,49.646
1246.00,49.675
1247.00,49.658
1248.00,49.660
1249.00,49.668
1250.00,49.660
1251.00,49.662
1252.00,49.667
1253.00,49.654
1254.00,49.688
1255.00,49.685
1256.00,49.638
1257.00,49.627
1258.00,49.682
1259.00,49.672
1260.00,49.704
1261.00,49.706
1262.00,49.703
1263.00,49.698
1264.00,49.709
1265.00,49.727
1266.00,49.719
1267.00,49.718
1268.00,49.730
1269.00,49.723
1270.00,49.740
1271.00,49.762
1272.00,49.763
1273.00,49.790
1274.00,49.790
1275.00,49.781
1276.00,49.787
1277.00,49.794
1278.00,49.797
1279.00,49.816
1280.00,49.806
1281.00,49.826
1282.00,49.836
1283.00,49.813
1284.00,49.824
1285.00,49.833
1286.00,49.857
1287.00,49.851
1288.00,49.855
1289.00,49.832
1290.00,49.872
1291.00,49.882
1292.00,49.876
1293.00,49.901
1294.00,49.892
1295.00,49.920
1296.00,49.908
1297.00,49.912
1298.00,49.937
1299.00,49.915
1300.00,49.937
1301.00,49.939
1302.00,49.960
1303.00,49.953
1304.00,49.957
1305.00,49.967
1306.00,49.973
1307.00,49.974
1308.00,49.979
1309.00,49.996
1310.00,49.996
1311.00,49.984
1312.00,49.998
1313.00,49.999
1314.00,50.035
1315.00,50.063
1316.00,50.051
1317.00,50.078
1318.00,50.087
1319.00,50.096
1320.00,50.095
1321.00,50.256
1322.00,50.250
1323.00,50.258
1324.00,50.255
1325.00,50.251
1326.00,50.254
1327.00,50.283
1328.00,50.282
1329.00,50.261
1330.00,50.239
1331.00,50.262
1332.00,50.283
1333.00,50.248
1334.00,50.293
1335.00,50.312
1336.00,50.325
1337.00,50.372
1338.00,50.425
1339.00,50.464
1340.00,50.540
1341.00,50.590
1342.00,50.656
1343.00,50.706
1344.00,50.731
1345.00,50.825
1346.00,50.827
1347.00,50.813
1348.00,50.894
1349.00,50.836
1350.00,50.919
1351.00,50.965
1352.00,50.951
1353.00,50.915
1354.00,50.951
1355.00,50.870
1356.00,51.007
1357.00,50.968
1358.00,51.023
1359.00,51.079
1360.00,51.009
1361.00,50.762
1362.00,50.819
1363.00,51.460
1364.00,51.208
1365.00,51.083
1366.00,51.172
1367.00,51.028
1368.00,50.951
1369.00,51.123
1370.00,50.992
1371.00,50.902
1372.00,50.996
1373.00,51.034
1374.00,51.038
1375.00,51.037
1376.00,50.994
1377.00,51.031
1378.00,51.182
1379.00,51.064
1380.00,51.054
1381.00,51.027
1382.00,51.096
1383.00,51.083
1384.00,50.981
1385.00,50.926
1386.00,51.013
1387.00,50.986
1388.00,50.939
1389.00,50.926
1390.00,51.051
1391.00,50.949
1392.00,51.110
1393.00,51.183
1394.00,51.082
1395.00,50.962
1396.00,50.918
1397.00,50.865
1398.00,51.227
1399.00,51.050
1400.00,51.052
1401.00,50.982
1402.00,51.177
1403.00,51.026
1404.00,51.050
1405.00,51.064
1406.00,51.069
1407.00,51.076
1408.00,51.150
1409.00,51.063
1410.00,51.100
1411.00,51.076
1412.00,51.185
1413.00,50.943
1414.00,51.017
1415.00,51.109
1416.00,51.136
1417.00,51.256
1418.00,51.174
1419.00,51.155
1420.00,51.207
1421.00,51.254
1422.00,51.232
1423.00,51.259
1424.00,51.240
1425.00,51.259
1426.00,51.283
1427.00,51.316
1428.00,51.312
1429.00,51.298
1430.00,51.340
1431.00,51.369
1432.00,51.371
1433.00,51.402
1434.00,51.390
1435.00,51.430
1436.00,51.463
1437.00,51.438
1438.00,51.460
1439.00,51.501
1440.00,51.573
1441.00,51.548
1442.00,51.542
1443.00,51.535
1444.00,51.648
1445.00,51.586
1446.00,51.587
1447.00,51.619
1448.00,51.653
1449.00,51.701
1450.00,51.704
1451.00,51.690
1452.00,51.720
1453.00,51.762
1454.00,51.754
1455.00,51.786
1456.00,51.830
1457.00,51.794
1458.00,51.833
1459.00,51.833
1460.00,51.858
1461.00,51.855
1462.00,51.889
1463.00,51.910
1464.00,51.921
1465.00,51.943
1466.00,51.961
1467.00,51.976
1468.00,52.019
1469.00,52.008
1470.00,52.041
1471.00,52.041
1472.00,52.059
1473.00,52.069
1474.00,52.096
1475.00,52.111
1476.00,52.122
1477.00,52.108
1478.00,52.126
1479.00,52.148
1480.00,52.157
1481.00,52.181
1482.00,52.212
1483.00,52.251
1484.00,52.239
1485.00,52.256
1486.00,52.284
1487.00,52.274
1488.00,52.299
1489.00,52.299
1490.00,52.298
1491.00,52.327
1492.00,52.351
1493.00,52.340
1494.00,52.380
1495.00,52.368
1496.00,52.407
1497.00,52.391
1498.00,52.397
1499.00,52.432
1500.00,52.451
1501.00, 
1502.00, 
1503.00, 
1504.00, 
1505.00, 
1506.00, 
1507.00, 
1508.00, 
1509.00, 
1510.00, 
1511.00, 
1512.00, 
1513.00, 
1514.00, 
1515.00, 
1516.00, 
1517.00, 
1518.00, 
1519.00, 
1520.00, 
1521.00, 
1522.00, 
1523.00, 
1524.00, 
1525.00, 
1526.00, 
1527.00, 
1528.00, 
1529.00, 
1530.00, 
1531.00, 
1532.00, 
1533.00, 
1534.00, 
1535.00, 
1536.00, 
1537.00, 
1538.00, 
1539.00, 
1540.00, 
1541.00, 
1542.00, 
1543.00, 
1544.00, 
1545.00, 
1546.00, 
1547.00, 
1548.00, 
1549.00, 
1550.00, 
1551.00, 
1552.00, 
1553.00, 
1554.00, 
1555.00, 
1556.00, 
1557.00, 
1558.00, 
1559.00, 
1560.00, 
1561.00, 
1562.00, 
1563.00, 
1564.00, 
1565.00, 
1566.00, 
1567.00, 
1568.00, 
1569.00, 
1570.00, 
1571.00, 
1572.00, 
1573.00, 
1574.00, 
1575.00, 
1576.00, 
1577.00, 
1578.00, 
1579.00, 
1580.00, 
1581.00, 
1582.00, 
1583.00, 
1584.00, 
1585.00, 
1586.00, 
1587.00, 
1588.00, 
1589.00, 
1590.00, 
1591.00, 
1592.00, 
1593.00, 
1594.00, 
1595.00, 
1596.00, 
1597.00, 
1598.00, 
1599.00, 
1600.00, 
1601.00, 
1602.00, 
1603.00, 
1604.00, 
1605.00, 
1606.00, 
1607.00, 
1608.00, 
1609.00, 
1610.00, 
1611.00, 
1612.00, 
1613.00, 
1614.00, 
1615.00, 
1616.00, 
1617.00, 
1618.00, 
1619.00, 
1620.00, 
1621.00, 
1622.00, 
1623.00, 
1624.00, 
1625.00, 
1626.00, 
1627.00, 
1628.00, 
1629.00, 
1630.00, 
1631.00, 
1632.00, 
1633.00, 
1634.00, 
1635.00, 
1636.00, 
1637.00, 
1638.00, 
1639.00, 
1640.00, 
1641.00, 
1642.00, 
1643.00, 
1644.00, 
1645.00, 
1646.00, 
1647.00, 
1648.00, 
1649.00, 
1650.00, 
1651.00, 
1652.00, 
1653.00, 
1654.00, 
1655.00, 
1656.00, 
1657.00, 
1658.00, 
1659.00, 
1660.00, 
1661.00, 
1662.00, 
1663.00, 
1664.00, 
1665.00, 
1666.00, 
1667.00, 
1668.00, 
1669.00, 
1670.00, 
1671.00, 
1672.00, 
1673.00, 
1674.00, 
1675.00, 
1676.00, 
1677.00, 
1678.00, 
1679.00, 
1680.00, 
1681.00, 
1682.00, 
1683.00, 
1684.00, 
1685.00, 
1686.00, 
1687.00, 
1688.00, 
1689.00, 
1690.00, 
1691.00, 
1692.00, 
1693.00, 
1694.00, 
1695.00, 
1696.00, 
1697.00, 
1698.00, 
1699.00, 
1700.00, 
1701.00, 
1702.00, 
1703.00, 
1704.00, 
1705.00, 
1706.00, 
1707.00, 
1708.00, 
1709.00, 
1710.00, 
1711.00, 
1712.00, 
1713.00, 
1714.00, 
1715.00, 
1716.00, 
1717.00, 
1718.00, 
1719.00, 
1720.00, 
1721.00, 
1722.00, 
1723.00, 
1724.00, 
1725.00, 
1726.00, 
1727.00, 
1728.00, 
1729.00, 
1730.00, 
1731.00, 
1732.00, 
1733.00, 
1734.00, 
1735.00, 
1736.00, 
1737.00, 
1738.00, 
1739.00, 
1740.00, 
1741.00, 
1742.00, 
1743.00, 
1744.00, 
1745.00, 
1746.00, 
1747.00, 
1748.00, 
1749.00, 
1750.00, 
1751.00, 
1752.00, 
1753.00, 
1754.00, 
1755.00, 
1756.00, 
1757.00, 
1758.00, 
1759.00, 
1760.00, 
1761.00, 
1762.00, 
1763.00, 
1764.00, 
1765.00, 
1766.00, 
1767.00, 
1768.00, 
1769.00, 
1770.00, 
1771.00, 
1772.00, 
1773.00, 
1774.00, 
1775.00, 
1776.00, 
1777.00, 
1778.00, 
1779.00, 
1780.00, 
1781.00, 
1782.00, 
1783.00, 
1784.00, 
1785.00, 
1786.00, 
1787.00, 
1788.00, 
1789.00, 
1790.00, 
1791.00, 
1792.00, 
1793.00, 
1794.00, 
1795.00, 
1796.00, 
1797.00, 
1798.00, 
1799.00, 
1800.00, 
1801.00, 
1802.00, 
1803.00, 
1804.00, 
1805.00, 
1806.00, 
1807.00, 
1808.00, 
1809.00, 
1810.00, 
1811.00, 
1812.00, 
1813.00, 
1814.00, 
1815.00, 
1816.00, 
1817.00, 
1818.00, 
1819.00, 
1820.00, 
1821.00, 
1822.00, 
1823.00, 
1824.00, 
1825.00, 
1826.00, 
1827.00, 
1828.00, 
1829.00, 
1830.00, 
1831.00, 
1832.00, 
1833.00, 
1834.00, 
1835.00, 
1836.00, 
1837.00, 
1838.00, 
1839.00, 
1840.00, 
1841.00, 
1842.00, 
1843.00, 
1844.00, 
1845.00, 
1846.00, 
1847.00, 
1848.00, 
1849.00, 
1850.00, 
1851.00, 
1852.00, 
1853.00, 
1854.00, 
1855.00, 
1856.00, 
1857.00, 
1858.00, 
1859.00, 
1860.00, 
1861.00, 
1862.00, 
1863.00, 
1864.00, 
1865.00, 
1866.00, 
1867.00, 
1868.00, 
1869.00, 
1870.00, 
1871.00, 
1872.00, 
1873.00, 
1874.00, 
1875.00, 
1876.00, 
1877.00, 
1878.00, 
1879.00, 
1880.00, 
1881.00, 
1882.00, 
1883.00, 
1884.00, 
1885.00, 
1886.00, 
1887.00, 
1888.00, 
1889.00, 
1890.00, 
1891.00, 
1892.00, 
1893.00, 
1894.00, 
1895.00, 
1896.00, 
1897.00, 
1898.00, 
1899.00, 
1900.00, 
1901.00, 
1902.00, 
1903.00, 
1904.00, 
1905.00, 
1906.00, 
1907.00, 
1908.00, 
1909.00, 
1910.00, 
1911.00, 
1912.00, 
1913.00, 
1914.00, 
1915.00, 
1916.00, 
1917.00, 
1918.00, 
1919.00, 
1920.00, 
1921.00, 
1922.00, 
1923.00, 
1924.00, 
1925.00, 
1926.00, 
1927.00, 
1928.00, 
1929.00, 
1930.00, 
1931.00, 
1932.00, 
1933.00, 
1934.00, 
1935.00, 
1936.00, 
1937.00, 
1938.00, 
1939.00, 
1940.00, 
1941.00, 
1942.00, 
1943.00, 
1944.00, 
1945.00, 
1946.00, 
1947.00, 
1948.00, 
1949.00, 
1950.00, 
1951.00, 
1952.00, 
1953.00, 
1954.00, 
1955.00, 
1956.00, 
1957.00, 
1958.00, 
1959.00, 
1960.00, 
1961.00, 
1962.00, 
1963.00, 
1964.00, 
1965.00, 
1966.00, 
1967.00, 
1968.00, 
1969.00, 
1970.00, 
1971.00, 
1972.00, 
1973.00, 
1974.00, 
1975.00, 
1976.00, 
1977.00, 
1978.00, 
1979.00, 
1980.00, 
1981.00, 
1982.00, 
1983.00, 
1984.00, 
1985.00, 
1986.00, 
1987.00, 
1988.00, 
1989.00, 
1990.00, 
1991.00, 
1992.00, 
1993.00, 
1994.00, 
1995.00, 
1996.00, 
1997.00, 
1998.00, 
1999.00, 
2000.00, 
2001.00, 
2002.00, 
2003.00, 
2004.00, 
2005.00, 
2006.00, 
2007.00, 
2008.00, 
2009.00, 
2010.00, 
2011.00, 
2012.00, 
2013.00, 
2014.00, 
2015.00, 
2016.00, 
2017.00, 
2018.00, 
2019.00, 
2020.00, 
2021.00, 
2022.00, 
2023.00, 
2024.00, 
2025.00, 
2026.00, 
2027.00, 
2028.00, 
2029.00, 
2030.00, 
2031.00, 
2032.00, 
2033.00, 
2034.00, 
2035.00, 
2036.00, 
2037.00, 
2038.00, 
2039.00, 
2040.00, 
2041.00, 
2042.00, 
2043.00, 
2044.00, 
2045.00, 
2046.00, 
2047.00, 
2048.00, 
2049.00, 
2050.00, 
2051.00, 
2052.00, 
2053.00, 
2054.00, 
2055.00, 
2056.00, 
2057.00, 
2058.00, 
2059.00, 
2060.00, 
2061.00, 
2062.00, 
2063.00, 
2064.00, 
2065.00, 
2066.00, 
2067.00, 
2068.00, 
2069.00, 
2070.00, 
2071.00, 
2072.00, 
2073.00, 
2074.00, 
2075.00, 
2076.00, 
2077.00, 
2078.00, 
2079.00, 
2080.00, 
2081.00, 
2082.00, 
2083.00, 
2084.00, 
2085.00, 
2086.00, 
2087.00, 
2088.00, 
2089.00, 
2090.00, 
2091.00, 
2092.00, 
2093.00, 
2094.00, 
2095.00, 
2096.00, 
2097.00, 
2098.00, 
2099.00, 
2100.00, 
2101.00, 
2102.00, 
2103.00, 
2104.00, 
2105.00, 
2106.00, 
2107.00, 
2108.00, 
2109.00, 
2110.00, 
2111.00, 
2112.00, 
2113.00, 
2114.00, 
2115.00, 
2116.00, 
2117.00, 
2118.00, 
2119.00, 
2120.00, 
2121.00, 
2122.00, 
2123.00, 
2124.00, 
2125.00, 
2126.00, 
2127.00, 
2128.00, 
2129.00, 
2130.00, 
2131.00, 
2132.00, 
2133.00, 
2134.00, 
2135.00, 
2136.00, 
2137.00, 
2138.00, 
2139.00, 
2140.00, 
2141.00, 
2142.00, 
2143.00, 
2144.00, 
2145.00, 
2146.00, 
2147.00, 
2148.00, 
2149.00, 
2150.00, 
2151.00, 
2152.00, 
2153.00, 
2154.00, 
2155.00, 
2156.00, 
2157.00, 
2158.00, 
2159.00, 
2160.00, 
2161.00, 
2162.00, 
2163.00, 
2164.00, 
2165.00, 
2166.00, 
2167.00, 
2168.00, 
2169.00, 
2170.00, 
2171.00, 
2172.00, 
2173.00, 
2174.00, 
2175.00, 
2176.00, 
2177.00, 
2178.00, 
2179.00, 
2180.00, 
2181.00, 
2182.00, 
2183.00, 
2184.00, 
2185.00, 
2186.00, 
2187.00, 
2188.00, 
2189.00, 
2190.00, 
2191.00, 
2192.00, 
2193.00, 
2194.00, 
2195.00, 
2196.00, 
2197.00, 
2198.00, 
2199.00, 
2200.00, 
2201.00, 
2202.00, 
2203.00, 
2204.00, 
2205.00, 
2206.00, 
2207.00, 
2208.00, 
2209.00, 
2210.00, 
2211.00, 
2212.00, 
2213.00, 
2214.00, 
2215.00, 
2216.00, 
2217.00, 
2218.00, 
2219.00, 
2220.00, 
2221.00, 
2222.00, 
2223.00, 
2224.00, 
2225.00, 
2226.00, 
2227.00, 
2228.00, 
2229.00, 
2230.00, 
2231.00, 
2232.00, 
2233.00, 
2234.00, 
2235.00, 
2236.00, 
2237.00, 
2238.00, 
2239.00, 
2240.00, 
2241.00, 
2242.00, 
2243.00, 
2244.00, 
2245.00, 
2246.00, 
2247.00, 
2248.00, 
2249.00, 
2250.00, 
2251.00, 
2252.00, 
2253.00, 
2254.00, 
2255.00, 
2256.00, 
2257.00, 
2258.00, 
2259.00, 
2260.00, 
2261.00, 
2262.00, 
2263.00, 
2264.00, 
2265.00, 
2266.00, 
2267.00, 
2268.00, 
2269.00, 
2270.00, 
2271.00, 
2272.00, 
2273.00, 
2274.00, 
2275.00, 
2276.00, 
2277.00, 
2278.00, 
2279.00, 
2280.00, 
2281.00, 
2282.00, 
2283.00, 
2284.00, 
2285.00, 
2286.00, 
2287.00, 
2288.00, 
2289.00, 
2290.00, 
2291.00, 
2292.00, 
2293.00, 
2294.00, 
2295.00, 
2296.00, 
2297.00, 
2298.00, 
2299.00, 
2300.00, 
2301.00, 
2302.00, 
2303.00, 
2304.00, 
2305.00, 
2306.00, 
2307.00, 
2308.00, 
2309.00, 
2310.00, 
2311.00, 
2312.00, 
2313.00, 
2314.00, 
2315.00, 
2316.00, 
2317.00, 
2318.00, 
2319.00, 
2320.00, 
2321.00, 
2322.00, 
2323.00, 
2324.00, 
2325.00, 
2326.00, 
2327.00, 
2328.00, 
2329.00, 
2330.00, 
2331.00, 
2332.00, 
2333.00, 
2334.00, 
2335.00, 
2336.00, 
2337.00, 
2338.00, 
2339.00, 
2340.00, 
2341.00, 
2342.00, 
2343.00, 
2344.00, 
2345.00, 
2346.00, 
2347.00, 
2348.00, 
2349.00, 
2350.00, 
2351.00, 
2352.00, 
2353.00, 
2354.00, 
2355.00, 
2356.00, 
2357.00, 
2358.00, 
2359.00, 
2360.00, 
2361.00, 
2362.00, 
2363.00, 
2364.00, 
2365.00, 
2366.00, 
2367.00, 
2368.00, 
2369.00, 
2370.00, 
2371.00, 
2372.00, 
2373.00, 
2374.00, 
2375.00, 
2376.00, 
2377.00, 
2378.00, 
2379.00, 
2380.00, 
2381.00, 
2382.00, 
2383.00, 
2384.00, 
2385.00, 
2386.00, 
2387.00, 
2388.00, 
2389.00, 
2390.00, 
2391.00, 
2392.00, 
2393.00, 
2394.00, 
2395.00, 
2396.00, 
2397.00, 
2398.00, 
2399.00, 
2400.00, 
2401.00, 
2402.00, 
2403.00, 
2404.00, 
2405.00, 
2406.00, 
2407.00, 
2408.00, 
2409.00, 
2410.00, 
2411.00, 
2412.00, 
2413.00, 
2414.00, 
2415.00, 
2416.00, 
2417.00, 
2418.00, 
2419.00, 
2420.00, 
2421.00, 
2422.00, 
2423.00, 
2424.00, 
2425.00, 
2426.00, 
2427.00, 
2428.00, 
2429.00, 
2430.00, 
2431.00, 
2432.00, 
2433.00, 
2434.00, 
2435.00, 
2436.00, 
2437.00, 
2438.00, 
2439.00, 
2440.00, 
2441.00, 
2442.00, 
2443.00, 
2444.00, 
2445.00, 
2446.00, 
2447.00, 
2448.00, 
2449.00, 
2450.00, 
2451.00, 
2452.00, 
2453.00, 
2454.00, 
2455.00, 
2456.00, 
2457.00, 
2458.00, 
2459.00, 
2460.00, 
2461.00, 
2462.00, 
2463.00, 
2464.00, 
2465.00, 
2466.00, 
2467.00, 
2468.00, 
2469.00, 
2470.00, 
2471.00, 
2472.00, 
2473.00, 
2474.00, 
2475.00, 
2476.00, 
2477.00, 
2478.00, 
2479.00, 
2480.00, 
2481.00, 
2482.00, 
2483.00, 
2484.00, 
2485.00, 
2486.00, 
2487.00, 
2488.00, 
2489.00, 
2490.00, 
2491.00, 
2492.00, 
2493.00, 
2494.00, 
2495.00, 
2496.00, 
2497.00, 
2498.00, 
2499.00, 
2500.00, 
2501.00, 
2502.00, 
2503.00, 
2504.00, 
2505.00, 
2506.00, 
2507.00, 
2508.00, 
2509.00, 
2510.00, 
2511.00, 
2512.00, 
2513.00, 
2514.00, 
2515.00, 
2516.00, 
2517.00, 
2518.00, 
2519.00, 
2520.00, 
2521.00, 
2522.00, 
2523.00, 
2524.00, 
2525.00, 
2526.00, 
2527.00, 
2528.00, 
2529.00, 
2530.00, 
2531.00, 
2532.00, 
2533.00, 
2534.00, 
2535.00, 
2536.00, 
2537.00, 
2538.00, 
2539.00, 
2540.00, 
2541.00, 
2542.00, 
2543.00, 
2544.00, 
2545.00, 
2546.00, 
2547.00, 
2548.00, 
2549.00, 
2550.00, 
2551.00, 
2552.00, 
2553.00, 
2554.00, 
2555.00, 
2556.00, 
2557.00, 
2558.00, 
2559.00, 
2560.00, 
2561.00, 
2562.00, 
2563.00, 
2564.00, 
2565.00, 
2566.00, 
2567.00, 
2568.00, 
2569.00, 
2570.00, 
2571.00, 
2572.00, 
2573.00, 
2574.00, 
2575.00, 
2576.00, 
2577.00, 
2578.00, 
2579.00, 
2580.00, 
2581.00, 
2582.00, 
2583.00, 
2584.00, 
2585.00, 
2586.00, 
2587.00, 
2588.00, 
2589.00, 
2590.00, 
2591.00, 
2592.00, 
2593.00, 
2594.00, 
2595.00, 
2596.00, 
2597.00, 
2598.00, 
2599.00, 
2600.00, 
