"2aP2 - RawData"
"Wavelength nm.","T%"
200.00,0.001
201.00,0.000
202.00,0.003
203.00,0.003
204.00,-0.003
205.00,0.000
206.00,-0.001
207.00,0.004
208.00,0.005
209.00,0.003
210.00,0.005
211.00,0.002
212.00,0.002
213.00,0.001
214.00,0.002
215.00,0.000
216.00,0.001
217.00,0.002
218.00,0.003
219.00,-0.000
220.00,0.004
221.00,0.002
222.00,0.002
223.00,0.001
224.00,0.002
225.00,0.002
226.00,0.003
227.00,0.000
228.00,-0.000
229.00,0.003
230.00,0.002
231.00,0.004
232.00,0.003
233.00,0.001
234.00,0.001
235.00,0.002
236.00,0.003
237.00,0.002
238.00,0.002
239.00,0.003
240.00,0.000
241.00,0.001
242.00,0.001
243.00,0.001
244.00,0.003
245.00,0.001
246.00,0.002
247.00,-0.000
248.00,0.002
249.00,0.000
250.00,0.001
251.00,0.001
252.00,0.000
253.00,0.001
254.00,0.000
255.00,0.001
256.00,0.002
257.00,0.000
258.00,0.000
259.00,0.003
260.00,0.002
261.00,0.000
262.00,0.002
263.00,0.002
264.00,0.002
265.00,0.000
266.00,-0.002
267.00,-0.000
268.00,0.001
269.00,-0.001
270.00,0.001
271.00,-0.001
272.00,0.001
273.00,0.000
274.00,-0.000
275.00,-0.000
276.00,-0.000
277.00,0.001
278.00,0.002
279.00,0.001
280.00,-0.000
281.00,0.001
282.00,-0.001
283.00,0.000
284.00,0.002
285.00,0.001
286.00,0.001
287.00,-0.001
288.00,-0.000
289.00,0.001
290.00,0.001
291.00,0.003
292.00,0.001
293.00,0.001
294.00,0.000
295.00,-0.000
296.00,0.001
297.00,0.001
298.00,0.001
299.00,0.001
300.00,0.002
301.00,0.004
302.00,0.006
303.00,0.005
304.00,0.012
305.00,0.016
306.00,0.028
307.00,0.043
308.00,0.067
309.00,0.102
310.00,0.140
311.00,0.181
312.00,0.254
313.00,0.346
314.00,0.464
315.00,0.593
316.00,0.762
317.00,0.955
318.00,1.180
319.00,1.435
320.00,1.696
321.00,2.083
322.00,2.471
323.00,2.917
324.00,3.384
325.00,3.855
326.00,4.336
327.00,4.873
328.00,5.450
329.00,6.011
330.00,6.603
331.00,7.215
332.00,7.842
333.00,8.508
334.00,9.139
335.00,9.782
336.00,10.410
337.00,11.044
338.00,11.619
339.00,12.252
340.00,12.838
341.00,13.438
342.00,13.991
343.00,14.507
344.00,14.993
345.00,15.544
346.00,15.918
347.00,16.382
348.00,16.829
349.00,17.110
350.00,17.517
351.00,17.853
352.00,18.173
353.00,18.455
354.00,18.747
355.00,19.003
356.00,19.214
357.00,19.433
358.00,19.645
359.00,19.909
360.00,20.120
361.00,20.251
362.00,20.381
363.00,20.576
364.00,20.657
365.00,20.714
366.00,20.814
367.00,20.845
368.00,20.972
369.00,20.976
370.00,21.038
371.00,21.046
372.00,21.045
373.00,21.043
374.00,21.084
375.00,21.059
376.00,21.002
377.00,21.002
378.00,20.920
379.00,20.864
380.00,20.866
381.00,20.815
382.00,20.809
383.00,20.841
384.00,20.878
385.00,20.927
386.00,20.892
387.00,20.987
388.00,21.011
389.00,21.020
390.00,21.043
391.00,21.068
392.00,21.082
393.00,21.099
394.00,21.114
395.00,21.128
396.00,21.103
397.00,21.142
398.00,21.135
399.00,21.141
400.00,21.144
401.00,21.140
402.00,21.091
403.00,21.152
404.00,21.105
405.00,21.140
406.00,21.120
407.00,21.090
408.00,21.108
409.00,21.044
410.00,21.008
411.00,21.038
412.00,20.988
413.00,21.055
414.00,20.980
415.00,20.995
416.00,21.080
417.00,21.020
418.00,21.062
419.00,21.107
420.00,21.179
421.00,21.223
422.00,21.256
423.00,21.295
424.00,21.329
425.00,21.344
426.00,21.385
427.00,21.467
428.00,21.494
429.00,21.549
430.00,21.608
431.00,21.666
432.00,21.703
433.00,21.722
434.00,21.838
435.00,21.885
436.00,21.945
437.00,22.024
438.00,22.105
439.00,22.156
440.00,22.242
441.00,22.315
442.00,22.393
443.00,22.486
444.00,22.604
445.00,22.686
446.00,22.772
447.00,22.875
448.00,22.950
449.00,23.110
450.00,23.223
451.00,23.317
452.00,23.426
453.00,23.623
454.00,23.682
455.00,23.726
456.00,23.895
457.00,23.997
458.00,24.072
459.00,24.172
460.00,24.381
461.00,24.477
462.00,24.675
463.00,24.812
464.00,24.952
465.00,25.044
466.00,25.198
467.00,25.349
468.00,25.420
469.00,25.539
470.00,25.654
471.00,25.756
472.00,25.889
473.00,25.966
474.00,26.090
475.00,26.248
476.00,26.346
477.00,26.471
478.00,26.608
479.00,26.783
480.00,26.913
481.00,27.049
482.00,27.209
483.00,27.364
484.00,27.536
485.00,27.674
486.00,27.823
487.00,27.967
488.00,28.086
489.00,28.281
490.00,28.457
491.00,28.525
492.00,28.701
493.00,28.874
494.00,29.050
495.00,29.092
496.00,29.268
497.00,29.311
498.00,29.509
499.00,29.716
500.00,29.770
501.00,29.914
502.00,30.092
503.00,30.197
504.00,30.282
505.00,30.421
506.00,30.575
507.00,30.655
508.00,30.737
509.00,30.956
510.00,31.073
511.00,31.131
512.00,31.369
513.00,31.515
514.00,31.597
515.00,31.743
516.00,31.841
517.00,31.908
518.00,32.063
519.00,32.110
520.00,32.170
521.00,32.292
522.00,32.398
523.00,32.431
524.00,32.527
525.00,32.632
526.00,32.745
527.00,32.777
528.00,32.865
529.00,33.029
530.00,33.200
531.00,33.274
532.00,33.439
533.00,33.468
534.00,33.574
535.00,33.694
536.00,33.731
537.00,33.834
538.00,33.912
539.00,33.955
540.00,34.069
541.00,34.124
542.00,34.154
543.00,34.206
544.00,34.304
545.00,34.395
546.00,34.453
547.00,34.593
548.00,34.642
549.00,34.682
550.00,34.770
551.00,34.882
552.00,34.907
553.00,34.963
554.00,35.043
555.00,35.069
556.00,35.116
557.00,35.172
558.00,35.289
559.00,35.379
560.00,35.449
561.00,35.505
562.00,35.570
563.00,35.540
564.00,35.598
565.00,35.678
566.00,35.664
567.00,35.727
568.00,35.740
569.00,35.854
570.00,35.880
571.00,35.911
572.00,35.938
573.00,35.942
574.00,36.004
575.00,35.987
576.00,36.022
577.00,36.069
578.00,36.172
579.00,36.229
580.00,36.266
581.00,36.441
582.00,36.460
583.00,36.458
584.00,36.624
585.00,36.646
586.00,36.730
587.00,36.815
588.00,36.765
589.00,36.736
590.00,36.841
591.00,36.872
592.00,36.870
593.00,36.956
594.00,37.110
595.00,37.149
596.00,37.146
597.00,37.222
598.00,37.328
599.00,37.281
600.00,37.344
601.00,37.364
602.00,37.445
603.00,37.464
604.00,37.488
605.00,37.503
606.00,37.535
607.00,37.587
608.00,37.771
609.00,37.893
610.00,37.778
611.00,37.839
612.00,37.900
613.00,37.958
614.00,37.968
615.00,38.114
616.00,38.209
617.00,38.145
618.00,38.156
619.00,38.264
620.00,38.300
621.00,38.375
622.00,38.428
623.00,38.525
624.00,38.598
625.00,38.607
626.00,38.720
627.00,38.825
628.00,38.832
629.00,38.847
630.00,38.944
631.00,39.010
632.00,39.078
633.00,39.216
634.00,39.310
635.00,39.462
636.00,39.491
637.00,39.523
638.00,39.575
639.00,39.639
640.00,39.726
641.00,39.786
642.00,39.928
643.00,39.951
644.00,39.998
645.00,40.140
646.00,40.265
647.00,40.271
648.00,40.379
649.00,40.435
650.00,40.398
651.00,40.593
652.00,40.646
653.00,40.697
654.00,40.737
655.00,40.922
656.00,41.207
657.00,41.071
658.00,41.224
659.00,41.590
660.00,41.231
661.00,41.454
662.00,41.508
663.00,41.630
664.00,41.940
665.00,42.057
666.00,41.949
667.00,42.155
668.00,42.213
669.00,42.350
670.00,42.656
671.00,42.514
672.00,42.551
673.00,42.744
674.00,42.852
675.00,42.963
676.00,43.181
677.00,43.325
678.00,43.130
679.00,43.345
680.00,43.475
681.00,43.659
682.00,43.739
683.00,43.771
684.00,43.962
685.00,43.945
686.00,43.799
687.00,44.058
688.00,44.118
689.00,44.228
690.00,44.488
691.00,44.744
692.00,44.533
693.00,44.511
694.00,44.801
695.00,45.017
696.00,45.121
697.00,45.097
698.00,45.232
699.00,45.404
700.00,45.364
701.00,45.352
702.00,45.565
703.00,45.760
704.00,45.833
705.00,45.784
706.00,45.881
707.00,45.987
708.00,45.889
709.00,46.230
710.00,46.626
711.00,46.229
712.00,46.366
713.00,46.516
714.00,46.609
715.00,46.640
716.00,46.593
717.00,46.874
718.00,46.960
719.00,46.899
720.00,47.047
721.00,51.560
722.00,51.524
723.00,51.618
724.00,51.586
725.00,51.614
726.00,51.622
727.00,51.678
728.00,51.818
729.00,51.766
730.00,51.816
731.00,51.795
732.00,51.837
733.00,51.898
734.00,51.916
735.00,51.988
736.00,52.004
737.00,52.108
738.00,52.165
739.00,52.160
740.00,52.224
741.00,52.299
742.00,52.361
743.00,52.350
744.00,52.360
745.00,52.376
746.00,52.397
747.00,52.387
748.00,52.448
749.00,52.336
750.00,52.424
751.00,52.474
752.00,52.438
753.00,52.467
754.00,52.493
755.00,52.541
756.00,52.501
757.00,52.529
758.00,52.557
759.00,52.518
760.00,52.642
761.00,52.625
762.00,52.668
763.00,52.718
764.00,52.646
765.00,52.714
766.00,52.725
767.00,52.772
768.00,52.762
769.00,52.781
770.00,52.839
771.00,52.813
772.00,52.932
773.00,52.879
774.00,52.871
775.00,52.918
776.00,52.888
777.00,53.017
778.00,52.889
779.00,53.068
780.00,52.960
781.00,52.960
782.00,53.032
783.00,52.931
784.00,53.059
785.00,52.964
786.00,53.049
787.00,52.973
788.00,52.946
789.00,52.963
790.00,52.928
791.00,52.955
792.00,52.973
793.00,52.944
794.00,52.862
795.00,53.076
796.00,53.001
797.00,52.827
798.00,52.957
799.00,52.868
800.00,52.896
801.00,52.933
802.00,52.881
803.00,52.920
804.00,52.831
805.00,52.934
806.00,52.895
807.00,52.884
808.00,52.822
809.00,52.832
810.00,52.839
811.00,52.853
812.00,52.853
813.00,52.781
814.00,52.770
815.00,52.714
816.00,52.742
817.00,52.717
818.00,52.679
819.00,52.732
820.00,52.686
821.00,52.705
822.00,52.674
823.00,52.664
824.00,52.657
825.00,52.605
826.00,52.542
827.00,52.717
828.00,52.691
829.00,52.551
830.00,52.653
831.00,54.753
832.00,54.775
833.00,54.699
834.00,54.724
835.00,54.756
836.00,54.643
837.00,54.716
838.00,54.664
839.00,54.686
840.00,54.623
841.00,54.648
842.00,54.595
843.00,54.624
844.00,54.582
845.00,54.527
846.00,54.546
847.00,54.522
848.00,54.538
849.00,54.475
850.00,54.405
851.00,54.449
852.00,54.379
853.00,54.338
854.00,54.337
855.00,54.293
856.00,54.286
857.00,54.256
858.00,54.253
859.00,54.248
860.00,54.231
861.00,54.232
862.00,54.160
863.00,54.185
864.00,54.149
865.00,54.208
866.00,54.152
867.00,54.160
868.00,54.147
869.00,54.113
870.00,54.119
871.00,54.095
872.00,54.095
873.00,54.097
874.00,54.077
875.00,54.035
876.00,54.024
877.00,54.000
878.00,53.996
879.00,53.995
880.00,53.995
881.00,53.890
882.00,54.130
883.00,53.926
884.00,53.939
885.00,53.871
886.00,53.895
887.00,53.841
888.00,53.847
889.00,53.840
890.00,53.832
891.00,53.785
892.00,53.775
893.00,53.734
894.00,53.746
895.00,53.710
896.00,53.737
897.00,53.687
898.00,53.679
899.00,53.691
900.00,53.662
901.00,53.691
902.00,53.659
903.00,53.616
904.00,53.609
905.00,53.649
906.00,53.534
907.00,53.549
908.00,53.533
909.00,53.538
910.00,53.498
911.00,53.478
912.00,53.490
913.00,53.446
914.00,53.431
915.00,53.430
916.00,53.398
917.00,53.378
918.00,53.375
919.00,53.323
920.00,53.286
921.00,53.299
922.00,53.313
923.00,53.268
924.00,53.217
925.00,53.236
926.00,53.195
927.00,53.211
928.00,53.169
929.00,53.181
930.00,53.118
931.00,53.131
932.00,53.085
933.00,53.080
934.00,53.057
935.00,53.081
936.00,53.015
937.00,53.017
938.00,52.992
939.00,53.013
940.00,52.973
941.00,52.963
942.00,52.912
943.00,52.933
944.00,52.889
945.00,52.896
946.00,52.893
947.00,52.844
948.00,52.832
949.00,52.815
950.00,52.785
951.00,52.732
952.00,52.786
953.00,52.702
954.00,52.702
955.00,52.642
956.00,52.649
957.00,52.556
958.00,52.611
959.00,52.560
960.00,52.566
961.00,52.538
962.00,52.552
963.00,52.505
964.00,52.502
965.00,52.504
966.00,52.491
967.00,52.484
968.00,52.463
969.00,52.479
970.00,52.447
971.00,52.466
972.00,52.430
973.00,52.470
974.00,52.477
975.00,52.429
976.00,52.477
977.00,52.437
978.00,52.479
979.00,52.447
980.00,52.460
981.00,52.458
982.00,52.425
983.00,52.452
984.00,52.423
985.00,52.443
986.00,52.398
987.00,52.429
988.00,52.388
989.00,52.360
990.00,52.363
991.00,52.328
992.00,52.360
993.00,52.329
994.00,52.313
995.00,52.309
996.00,52.295
997.00,52.279
998.00,52.255
999.00,52.289
1000.00,52.235
1001.00,52.233
1002.00,52.154
1003.00,52.211
1004.00,52.203
1005.00,52.163
1006.00,52.207
1007.00,52.173
1008.00,52.155
1009.00,52.128
1010.00,52.136
1011.00,52.106
1012.00,52.064
1013.00,52.104
1014.00,52.053
1015.00,52.067
1016.00,52.017
1017.00,52.026
1018.00,51.984
1019.00,51.962
1020.00,51.983
1021.00,51.948
1022.00,51.944
1023.00,51.906
1024.00,51.893
1025.00,51.882
1026.00,51.863
1027.00,51.840
1028.00,51.857
1029.00,51.839
1030.00,51.789
1031.00,51.810
1032.00,51.775
1033.00,51.773
1034.00,51.748
1035.00,51.721
1036.00,51.663
1037.00,51.671
1038.00,51.681
1039.00,51.639
1040.00,51.640
1041.00,51.586
1042.00,51.597
1043.00,51.566
1044.00,51.589
1045.00,51.579
1046.00,51.557
1047.00,51.590
1048.00,51.587
1049.00,51.596
1050.00,51.595
1051.00,51.639
1052.00,51.623
1053.00,51.650
1054.00,51.632
1055.00,51.649
1056.00,51.682
1057.00,51.657
1058.00,51.653
1059.00,51.666
1060.00,51.649
1061.00,51.649
1062.00,51.627
1063.00,51.628
1064.00,51.623
1065.00,51.615
1066.00,51.587
1067.00,51.596
1068.00,51.608
1069.00,51.570
1070.00,51.560
1071.00,51.546
1072.00,51.577
1073.00,51.526
1074.00,51.533
1075.00,51.529
1076.00,51.518
1077.00,51.494
1078.00,51.484
1079.00,51.479
1080.00,51.482
1081.00,51.464
1082.00,51.455
1083.00,51.452
1084.00,51.447
1085.00,51.453
1086.00,51.459
1087.00,51.440
1088.00,51.414
1089.00,51.427
1090.00,51.409
1091.00,51.413
1092.00,51.395
1093.00,51.372
1094.00,51.351
1095.00,51.350
1096.00,51.343
1097.00,51.345
1098.00,51.335
1099.00,51.344
1100.00,51.321
1101.00,51.303
1102.00,51.297
1103.00,51.297
1104.00,51.268
1105.00,51.275
1106.00,51.262
1107.00,51.254
1108.00,51.255
1109.00,51.245
1110.00,51.218
1111.00,51.215
1112.00,51.184
1113.00,51.179
1114.00,51.179
1115.00,51.176
1116.00,51.177
1117.00,51.160
1118.00,51.144
1119.00,51.185
1120.00,51.137
1121.00,51.123
1122.00,51.120
1123.00,51.113
1124.00,51.104
1125.00,51.100
1126.00,51.097
1127.00,51.102
1128.00,51.075
1129.00,51.050
1130.00,51.065
1131.00,51.050
1132.00,51.065
1133.00,51.048
1134.00,50.990
1135.00,51.075
1136.00,51.029
1137.00,51.023
1138.00,51.036
1139.00,51.046
1140.00,51.006
1141.00,51.018
1142.00,51.008
1143.00,51.005
1144.00,50.989
1145.00,50.971
1146.00,50.969
1147.00,50.971
1148.00,50.975
1149.00,51.013
1150.00,50.981
1151.00,50.957
1152.00,50.946
1153.00,50.943
1154.00,50.925
1155.00,50.944
1156.00,50.931
1157.00,50.943
1158.00,50.939
1159.00,50.930
1160.00,50.936
1161.00,50.946
1162.00,50.923
1163.00,50.943
1164.00,50.937
1165.00,50.922
1166.00,50.924
1167.00,50.908
1168.00,50.925
1169.00,50.914
1170.00,50.907
1171.00,50.899
1172.00,50.899
1173.00,50.889
1174.00,50.914
1175.00,50.912
1176.00,50.897
1177.00,50.896
1178.00,50.903
1179.00,50.893
1180.00,50.903
1181.00,50.931
1182.00,50.905
1183.00,50.894
1184.00,50.884
1185.00,50.909
1186.00,50.879
1187.00,50.884
1188.00,50.887
1189.00,50.868
1190.00,50.865
1191.00,50.864
1192.00,50.878
1193.00,50.885
1194.00,50.887
1195.00,50.857
1196.00,50.912
1197.00,50.878
1198.00,50.850
1199.00,50.859
1200.00,50.845
1201.00,50.878
1202.00,50.862
1203.00,50.850
1204.00,50.861
1205.00,50.877
1206.00,50.847
1207.00,50.847
1208.00,50.825
1209.00,50.835
1210.00,50.842
1211.00,50.831
1212.00,50.842
1213.00,50.809
1214.00,50.842
1215.00,50.831
1216.00,50.845
1217.00,50.840
1218.00,50.828
1219.00,50.838
1220.00,50.821
1221.00,50.840
1222.00,50.817
1223.00,50.852
1224.00,50.845
1225.00,50.828
1226.00,50.840
1227.00,50.829
1228.00,50.849
1229.00,50.858
1230.00,50.885
1231.00,50.867
1232.00,50.898
1233.00,50.886
1234.00,50.892
1235.00,50.887
1236.00,50.878
1237.00,50.898
1238.00,50.890
1239.00,50.887
1240.00,50.887
1241.00,50.892
1242.00,50.876
1243.00,50.897
1244.00,50.863
1245.00,50.891
1246.00,50.904
1247.00,50.865
1248.00,50.890
1249.00,50.917
1250.00,50.900
1251.00,50.898
1252.00,50.902
1253.00,50.910
1254.00,50.937
1255.00,50.929
1256.00,50.969
1257.00,50.959
1258.00,50.931
1259.00,50.939
1260.00,50.976
1261.00,50.946
1262.00,50.951
1263.00,50.944
1264.00,50.941
1265.00,50.958
1266.00,50.942
1267.00,50.966
1268.00,50.966
1269.00,50.934
1270.00,50.972
1271.00,50.984
1272.00,50.968
1273.00,50.999
1274.00,50.991
1275.00,50.981
1276.00,50.988
1277.00,50.985
1278.00,51.006
1279.00,51.005
1280.00,50.983
1281.00,51.019
1282.00,51.006
1283.00,50.998
1284.00,51.009
1285.00,50.999
1286.00,51.027
1287.00,51.029
1288.00,51.033
1289.00,51.022
1290.00,51.058
1291.00,51.049
1292.00,51.054
1293.00,51.067
1294.00,51.067
1295.00,51.103
1296.00,51.080
1297.00,51.086
1298.00,51.123
1299.00,51.076
1300.00,51.100
1301.00,51.089
1302.00,51.109
1303.00,51.125
1304.00,51.116
1305.00,51.128
1306.00,51.141
1307.00,51.133
1308.00,51.125
1309.00,51.144
1310.00,51.135
1311.00,51.130
1312.00,51.133
1313.00,51.126
1314.00,51.166
1315.00,51.178
1316.00,51.160
1317.00,51.211
1318.00,51.207
1319.00,51.204
1320.00,51.218
1321.00,51.368
1322.00,51.350
1323.00,51.347
1324.00,51.335
1325.00,51.317
1326.00,51.347
1327.00,51.334
1328.00,51.324
1329.00,51.348
1330.00,51.347
1331.00,51.348
1332.00,51.334
1333.00,51.345
1334.00,51.380
1335.00,51.383
1336.00,51.391
1337.00,51.444
1338.00,51.491
1339.00,51.550
1340.00,51.612
1341.00,51.662
1342.00,51.738
1343.00,51.777
1344.00,51.805
1345.00,51.915
1346.00,51.949
1347.00,51.900
1348.00,51.941
1349.00,51.958
1350.00,51.995
1351.00,52.003
1352.00,52.005
1353.00,52.117
1354.00,52.021
1355.00,51.923
1356.00,52.012
1357.00,52.047
1358.00,52.121
1359.00,52.078
1360.00,52.537
1361.00,51.830
1362.00,51.866
1363.00,52.152
1364.00,52.035
1365.00,52.135
1366.00,52.184
1367.00,52.001
1368.00,52.024
1369.00,52.179
1370.00,52.029
1371.00,51.955
1372.00,52.042
1373.00,52.054
1374.00,52.044
1375.00,52.058
1376.00,52.022
1377.00,52.090
1378.00,52.208
1379.00,52.093
1380.00,52.077
1381.00,51.962
1382.00,51.898
1383.00,52.048
1384.00,51.922
1385.00,51.917
1386.00,52.046
1387.00,52.023
1388.00,51.950
1389.00,51.877
1390.00,52.072
1391.00,51.980
1392.00,52.076
1393.00,52.119
1394.00,52.041
1395.00,51.973
1396.00,51.938
1397.00,51.851
1398.00,52.206
1399.00,52.024
1400.00,51.996
1401.00,51.968
1402.00,52.081
1403.00,51.974
1404.00,52.013
1405.00,52.103
1406.00,52.038
1407.00,52.146
1408.00,52.036
1409.00,52.035
1410.00,52.079
1411.00,52.089
1412.00,52.102
1413.00,51.974
1414.00,52.124
1415.00,52.100
1416.00,52.129
1417.00,52.191
1418.00,52.144
1419.00,52.173
1420.00,52.169
1421.00,52.183
1422.00,52.208
1423.00,52.227
1424.00,52.202
1425.00,52.223
1426.00,52.221
1427.00,52.267
1428.00,52.249
1429.00,52.233
1430.00,52.305
1431.00,52.293
1432.00,52.305
1433.00,52.350
1434.00,52.302
1435.00,52.356
1436.00,52.392
1437.00,52.367
1438.00,52.389
1439.00,52.426
1440.00,52.433
1441.00,52.440
1442.00,52.445
1443.00,52.468
1444.00,52.537
1445.00,52.499
1446.00,52.507
1447.00,52.539
1448.00,52.540
1449.00,52.582
1450.00,52.582
1451.00,52.581
1452.00,52.611
1453.00,52.619
1454.00,52.621
1455.00,52.661
1456.00,52.671
1457.00,52.662
1458.00,52.700
1459.00,52.696
1460.00,52.711
1461.00,52.715
1462.00,52.734
1463.00,52.767
1464.00,52.779
1465.00,52.772
1466.00,52.793
1467.00,52.811
1468.00,52.914
1469.00,52.845
1470.00,52.848
1471.00,52.856
1472.00,52.870
1473.00,52.877
1474.00,52.921
1475.00,52.928
1476.00,52.938
1477.00,52.952
1478.00,52.954
1479.00,52.964
1480.00,52.967
1481.00,52.965
1482.00,52.999
1483.00,53.021
1484.00,53.042
1485.00,53.051
1486.00,53.061
1487.00,53.069
1488.00,53.100
1489.00,53.072
1490.00,53.087
1491.00,53.131
1492.00,53.146
1493.00,53.118
1494.00,53.167
1495.00,53.147
1496.00,53.178
1497.00,53.164
1498.00,53.170
1499.00,53.206
1500.00,53.207
1501.00, 
1502.00, 
1503.00, 
1504.00, 
1505.00, 
1506.00, 
1507.00, 
1508.00, 
1509.00, 
1510.00, 
1511.00, 
1512.00, 
1513.00, 
1514.00, 
1515.00, 
1516.00, 
1517.00, 
1518.00, 
1519.00, 
1520.00, 
1521.00, 
1522.00, 
1523.00, 
1524.00, 
1525.00, 
1526.00, 
1527.00, 
1528.00, 
1529.00, 
1530.00, 
1531.00, 
1532.00, 
1533.00, 
1534.00, 
1535.00, 
1536.00, 
1537.00, 
1538.00, 
1539.00, 
1540.00, 
1541.00, 
1542.00, 
1543.00, 
1544.00, 
1545.00, 
1546.00, 
1547.00, 
1548.00, 
1549.00, 
1550.00, 
1551.00, 
1552.00, 
1553.00, 
1554.00, 
1555.00, 
1556.00, 
1557.00, 
1558.00, 
1559.00, 
1560.00, 
1561.00, 
1562.00, 
1563.00, 
1564.00, 
1565.00, 
1566.00, 
1567.00, 
1568.00, 
1569.00, 
1570.00, 
1571.00, 
1572.00, 
1573.00, 
1574.00, 
1575.00, 
1576.00, 
1577.00, 
1578.00, 
1579.00, 
1580.00, 
1581.00, 
1582.00, 
1583.00, 
1584.00, 
1585.00, 
1586.00, 
1587.00, 
1588.00, 
1589.00, 
1590.00, 
1591.00, 
1592.00, 
1593.00, 
1594.00, 
1595.00, 
1596.00, 
1597.00, 
1598.00, 
1599.00, 
1600.00, 
1601.00, 
1602.00, 
1603.00, 
1604.00, 
1605.00, 
1606.00, 
1607.00, 
1608.00, 
1609.00, 
1610.00, 
1611.00, 
1612.00, 
1613.00, 
1614.00, 
1615.00, 
1616.00, 
1617.00, 
1618.00, 
1619.00, 
1620.00, 
1621.00, 
1622.00, 
1623.00, 
1624.00, 
1625.00, 
1626.00, 
1627.00, 
1628.00, 
1629.00, 
1630.00, 
1631.00, 
1632.00, 
1633.00, 
1634.00, 
1635.00, 
1636.00, 
1637.00, 
1638.00, 
1639.00, 
1640.00, 
1641.00, 
1642.00, 
1643.00, 
1644.00, 
1645.00, 
1646.00, 
1647.00, 
1648.00, 
1649.00, 
1650.00, 
1651.00, 
1652.00, 
1653.00, 
1654.00, 
1655.00, 
1656.00, 
1657.00, 
1658.00, 
1659.00, 
1660.00, 
1661.00, 
1662.00, 
1663.00, 
1664.00, 
1665.00, 
1666.00, 
1667.00, 
1668.00, 
1669.00, 
1670.00, 
1671.00, 
1672.00, 
1673.00, 
1674.00, 
1675.00, 
1676.00, 
1677.00, 
1678.00, 
1679.00, 
1680.00, 
1681.00, 
1682.00, 
1683.00, 
1684.00, 
1685.00, 
1686.00, 
1687.00, 
1688.00, 
1689.00, 
1690.00, 
1691.00, 
1692.00, 
1693.00, 
1694.00, 
1695.00, 
1696.00, 
1697.00, 
1698.00, 
1699.00, 
1700.00, 
1701.00, 
1702.00, 
1703.00, 
1704.00, 
1705.00, 
1706.00, 
1707.00, 
1708.00, 
1709.00, 
1710.00, 
1711.00, 
1712.00, 
1713.00, 
1714.00, 
1715.00, 
1716.00, 
1717.00, 
1718.00, 
1719.00, 
1720.00, 
1721.00, 
1722.00, 
1723.00, 
1724.00, 
1725.00, 
1726.00, 
1727.00, 
1728.00, 
1729.00, 
1730.00, 
1731.00, 
1732.00, 
1733.00, 
1734.00, 
1735.00, 
1736.00, 
1737.00, 
1738.00, 
1739.00, 
1740.00, 
1741.00, 
1742.00, 
1743.00, 
1744.00, 
1745.00, 
1746.00, 
1747.00, 
1748.00, 
1749.00, 
1750.00, 
1751.00, 
1752.00, 
1753.00, 
1754.00, 
1755.00, 
1756.00, 
1757.00, 
1758.00, 
1759.00, 
1760.00, 
1761.00, 
1762.00, 
1763.00, 
1764.00, 
1765.00, 
1766.00, 
1767.00, 
1768.00, 
1769.00, 
1770.00, 
1771.00, 
1772.00, 
1773.00, 
1774.00, 
1775.00, 
1776.00, 
1777.00, 
1778.00, 
1779.00, 
1780.00, 
1781.00, 
1782.00, 
1783.00, 
1784.00, 
1785.00, 
1786.00, 
1787.00, 
1788.00, 
1789.00, 
1790.00, 
1791.00, 
1792.00, 
1793.00, 
1794.00, 
1795.00, 
1796.00, 
1797.00, 
1798.00, 
1799.00, 
1800.00, 
1801.00, 
1802.00, 
1803.00, 
1804.00, 
1805.00, 
1806.00, 
1807.00, 
1808.00, 
1809.00, 
1810.00, 
1811.00, 
1812.00, 
1813.00, 
1814.00, 
1815.00, 
1816.00, 
1817.00, 
1818.00, 
1819.00, 
1820.00, 
1821.00, 
1822.00, 
1823.00, 
1824.00, 
1825.00, 
1826.00, 
1827.00, 
1828.00, 
1829.00, 
1830.00, 
1831.00, 
1832.00, 
1833.00, 
1834.00, 
1835.00, 
1836.00, 
1837.00, 
1838.00, 
1839.00, 
1840.00, 
1841.00, 
1842.00, 
1843.00, 
1844.00, 
1845.00, 
1846.00, 
1847.00, 
1848.00, 
1849.00, 
1850.00, 
1851.00, 
1852.00, 
1853.00, 
1854.00, 
1855.00, 
1856.00, 
1857.00, 
1858.00, 
1859.00, 
1860.00, 
1861.00, 
1862.00, 
1863.00, 
1864.00, 
1865.00, 
1866.00, 
1867.00, 
1868.00, 
1869.00, 
1870.00, 
1871.00, 
1872.00, 
1873.00, 
1874.00, 
1875.00, 
1876.00, 
1877.00, 
1878.00, 
1879.00, 
1880.00, 
1881.00, 
1882.00, 
1883.00, 
1884.00, 
1885.00, 
1886.00, 
1887.00, 
1888.00, 
1889.00, 
1890.00, 
1891.00, 
1892.00, 
1893.00, 
1894.00, 
1895.00, 
1896.00, 
1897.00, 
1898.00, 
1899.00, 
1900.00, 
1901.00, 
1902.00, 
1903.00, 
1904.00, 
1905.00, 
1906.00, 
1907.00, 
1908.00, 
1909.00, 
1910.00, 
1911.00, 
1912.00, 
1913.00, 
1914.00, 
1915.00, 
1916.00, 
1917.00, 
1918.00, 
1919.00, 
1920.00, 
1921.00, 
1922.00, 
1923.00, 
1924.00, 
1925.00, 
1926.00, 
1927.00, 
1928.00, 
1929.00, 
1930.00, 
1931.00, 
1932.00, 
1933.00, 
1934.00, 
1935.00, 
1936.00, 
1937.00, 
1938.00, 
1939.00, 
1940.00, 
1941.00, 
1942.00, 
1943.00, 
1944.00, 
1945.00, 
1946.00, 
1947.00, 
1948.00, 
1949.00, 
1950.00, 
1951.00, 
1952.00, 
1953.00, 
1954.00, 
1955.00, 
1956.00, 
1957.00, 
1958.00, 
1959.00, 
1960.00, 
1961.00, 
1962.00, 
1963.00, 
1964.00, 
1965.00, 
1966.00, 
1967.00, 
1968.00, 
1969.00, 
1970.00, 
1971.00, 
1972.00, 
1973.00, 
1974.00, 
1975.00, 
1976.00, 
1977.00, 
1978.00, 
1979.00, 
1980.00, 
1981.00, 
1982.00, 
1983.00, 
1984.00, 
1985.00, 
1986.00, 
1987.00, 
1988.00, 
1989.00, 
1990.00, 
1991.00, 
1992.00, 
1993.00, 
1994.00, 
1995.00, 
1996.00, 
1997.00, 
1998.00, 
1999.00, 
2000.00, 
2001.00, 
2002.00, 
2003.00, 
2004.00, 
2005.00, 
2006.00, 
2007.00, 
2008.00, 
2009.00, 
2010.00, 
2011.00, 
2012.00, 
2013.00, 
2014.00, 
2015.00, 
2016.00, 
2017.00, 
2018.00, 
2019.00, 
2020.00, 
2021.00, 
2022.00, 
2023.00, 
2024.00, 
2025.00, 
2026.00, 
2027.00, 
2028.00, 
2029.00, 
2030.00, 
2031.00, 
2032.00, 
2033.00, 
2034.00, 
2035.00, 
2036.00, 
2037.00, 
2038.00, 
2039.00, 
2040.00, 
2041.00, 
2042.00, 
2043.00, 
2044.00, 
2045.00, 
2046.00, 
2047.00, 
2048.00, 
2049.00, 
2050.00, 
2051.00, 
2052.00, 
2053.00, 
2054.00, 
2055.00, 
2056.00, 
2057.00, 
2058.00, 
2059.00, 
2060.00, 
2061.00, 
2062.00, 
2063.00, 
2064.00, 
2065.00, 
2066.00, 
2067.00, 
2068.00, 
2069.00, 
2070.00, 
2071.00, 
2072.00, 
2073.00, 
2074.00, 
2075.00, 
2076.00, 
2077.00, 
2078.00, 
2079.00, 
2080.00, 
2081.00, 
2082.00, 
2083.00, 
2084.00, 
2085.00, 
2086.00, 
2087.00, 
2088.00, 
2089.00, 
2090.00, 
2091.00, 
2092.00, 
2093.00, 
2094.00, 
2095.00, 
2096.00, 
2097.00, 
2098.00, 
2099.00, 
2100.00, 
2101.00, 
2102.00, 
2103.00, 
2104.00, 
2105.00, 
2106.00, 
2107.00, 
2108.00, 
2109.00, 
2110.00, 
2111.00, 
2112.00, 
2113.00, 
2114.00, 
2115.00, 
2116.00, 
2117.00, 
2118.00, 
2119.00, 
2120.00, 
2121.00, 
2122.00, 
2123.00, 
2124.00, 
2125.00, 
2126.00, 
2127.00, 
2128.00, 
2129.00, 
2130.00, 
2131.00, 
2132.00, 
2133.00, 
2134.00, 
2135.00, 
2136.00, 
2137.00, 
2138.00, 
2139.00, 
2140.00, 
2141.00, 
2142.00, 
2143.00, 
2144.00, 
2145.00, 
2146.00, 
2147.00, 
2148.00, 
2149.00, 
2150.00, 
2151.00, 
2152.00, 
2153.00, 
2154.00, 
2155.00, 
2156.00, 
2157.00, 
2158.00, 
2159.00, 
2160.00, 
2161.00, 
2162.00, 
2163.00, 
2164.00, 
2165.00, 
2166.00, 
2167.00, 
2168.00, 
2169.00, 
2170.00, 
2171.00, 
2172.00, 
2173.00, 
2174.00, 
2175.00, 
2176.00, 
2177.00, 
2178.00, 
2179.00, 
2180.00, 
2181.00, 
2182.00, 
2183.00, 
2184.00, 
2185.00, 
2186.00, 
2187.00, 
2188.00, 
2189.00, 
2190.00, 
2191.00, 
2192.00, 
2193.00, 
2194.00, 
2195.00, 
2196.00, 
2197.00, 
2198.00, 
2199.00, 
2200.00, 
2201.00, 
2202.00, 
2203.00, 
2204.00, 
2205.00, 
2206.00, 
2207.00, 
2208.00, 
2209.00, 
2210.00, 
2211.00, 
2212.00, 
2213.00, 
2214.00, 
2215.00, 
2216.00, 
2217.00, 
2218.00, 
2219.00, 
2220.00, 
2221.00, 
2222.00, 
2223.00, 
2224.00, 
2225.00, 
2226.00, 
2227.00, 
2228.00, 
2229.00, 
2230.00, 
2231.00, 
2232.00, 
2233.00, 
2234.00, 
2235.00, 
2236.00, 
2237.00, 
2238.00, 
2239.00, 
2240.00, 
2241.00, 
2242.00, 
2243.00, 
2244.00, 
2245.00, 
2246.00, 
2247.00, 
2248.00, 
2249.00, 
2250.00, 
2251.00, 
2252.00, 
2253.00, 
2254.00, 
2255.00, 
2256.00, 
2257.00, 
2258.00, 
2259.00, 
2260.00, 
2261.00, 
2262.00, 
2263.00, 
2264.00, 
2265.00, 
2266.00, 
2267.00, 
2268.00, 
2269.00, 
2270.00, 
2271.00, 
2272.00, 
2273.00, 
2274.00, 
2275.00, 
2276.00, 
2277.00, 
2278.00, 
2279.00, 
2280.00, 
2281.00, 
2282.00, 
2283.00, 
2284.00, 
2285.00, 
2286.00, 
2287.00, 
2288.00, 
2289.00, 
2290.00, 
2291.00, 
2292.00, 
2293.00, 
2294.00, 
2295.00, 
2296.00, 
2297.00, 
2298.00, 
2299.00, 
2300.00, 
2301.00, 
2302.00, 
2303.00, 
2304.00, 
2305.00, 
2306.00, 
2307.00, 
2308.00, 
2309.00, 
2310.00, 
2311.00, 
2312.00, 
2313.00, 
2314.00, 
2315.00, 
2316.00, 
2317.00, 
2318.00, 
2319.00, 
2320.00, 
2321.00, 
2322.00, 
2323.00, 
2324.00, 
2325.00, 
2326.00, 
2327.00, 
2328.00, 
2329.00, 
2330.00, 
2331.00, 
2332.00, 
2333.00, 
2334.00, 
2335.00, 
2336.00, 
2337.00, 
2338.00, 
2339.00, 
2340.00, 
2341.00, 
2342.00, 
2343.00, 
2344.00, 
2345.00, 
2346.00, 
2347.00, 
2348.00, 
2349.00, 
2350.00, 
2351.00, 
2352.00, 
2353.00, 
2354.00, 
2355.00, 
2356.00, 
2357.00, 
2358.00, 
2359.00, 
2360.00, 
2361.00, 
2362.00, 
2363.00, 
2364.00, 
2365.00, 
2366.00, 
2367.00, 
2368.00, 
2369.00, 
2370.00, 
2371.00, 
2372.00, 
2373.00, 
2374.00, 
2375.00, 
2376.00, 
2377.00, 
2378.00, 
2379.00, 
2380.00, 
2381.00, 
2382.00, 
2383.00, 
2384.00, 
2385.00, 
2386.00, 
2387.00, 
2388.00, 
2389.00, 
2390.00, 
2391.00, 
2392.00, 
2393.00, 
2394.00, 
2395.00, 
2396.00, 
2397.00, 
2398.00, 
2399.00, 
2400.00, 
2401.00, 
2402.00, 
2403.00, 
2404.00, 
2405.00, 
2406.00, 
2407.00, 
2408.00, 
2409.00, 
2410.00, 
2411.00, 
2412.00, 
2413.00, 
2414.00, 
2415.00, 
2416.00, 
2417.00, 
2418.00, 
2419.00, 
2420.00, 
2421.00, 
2422.00, 
2423.00, 
2424.00, 
2425.00, 
2426.00, 
2427.00, 
2428.00, 
2429.00, 
2430.00, 
2431.00, 
2432.00, 
2433.00, 
2434.00, 
2435.00, 
2436.00, 
2437.00, 
2438.00, 
2439.00, 
2440.00, 
2441.00, 
2442.00, 
2443.00, 
2444.00, 
2445.00, 
2446.00, 
2447.00, 
2448.00, 
2449.00, 
2450.00, 
2451.00, 
2452.00, 
2453.00, 
2454.00, 
2455.00, 
2456.00, 
2457.00, 
2458.00, 
2459.00, 
2460.00, 
2461.00, 
2462.00, 
2463.00, 
2464.00, 
2465.00, 
2466.00, 
2467.00, 
2468.00, 
2469.00, 
2470.00, 
2471.00, 
2472.00, 
2473.00, 
2474.00, 
2475.00, 
2476.00, 
2477.00, 
2478.00, 
2479.00, 
2480.00, 
2481.00, 
2482.00, 
2483.00, 
2484.00, 
2485.00, 
2486.00, 
2487.00, 
2488.00, 
2489.00, 
2490.00, 
2491.00, 
2492.00, 
2493.00, 
2494.00, 
2495.00, 
2496.00, 
2497.00, 
2498.00, 
2499.00, 
2500.00, 
2501.00, 
2502.00, 
2503.00, 
2504.00, 
2505.00, 
2506.00, 
2507.00, 
2508.00, 
2509.00, 
2510.00, 
2511.00, 
2512.00, 
2513.00, 
2514.00, 
2515.00, 
2516.00, 
2517.00, 
2518.00, 
2519.00, 
2520.00, 
2521.00, 
2522.00, 
2523.00, 
2524.00, 
2525.00, 
2526.00, 
2527.00, 
2528.00, 
2529.00, 
2530.00, 
2531.00, 
2532.00, 
2533.00, 
2534.00, 
2535.00, 
2536.00, 
2537.00, 
2538.00, 
2539.00, 
2540.00, 
2541.00, 
2542.00, 
2543.00, 
2544.00, 
2545.00, 
2546.00, 
2547.00, 
2548.00, 
2549.00, 
2550.00, 
2551.00, 
2552.00, 
2553.00, 
2554.00, 
2555.00, 
2556.00, 
2557.00, 
2558.00, 
2559.00, 
2560.00, 
2561.00, 
2562.00, 
2563.00, 
2564.00, 
2565.00, 
2566.00, 
2567.00, 
2568.00, 
2569.00, 
2570.00, 
2571.00, 
2572.00, 
2573.00, 
2574.00, 
2575.00, 
2576.00, 
2577.00, 
2578.00, 
2579.00, 
2580.00, 
2581.00, 
2582.00, 
2583.00, 
2584.00, 
2585.00, 
2586.00, 
2587.00, 
2588.00, 
2589.00, 
2590.00, 
2591.00, 
2592.00, 
2593.00, 
2594.00, 
2595.00, 
2596.00, 
2597.00, 
2598.00, 
2599.00, 
2600.00, 
