"2cP4 - RawData"
"Wavelength nm.","T%"
200.00,0.001
201.00,-0.000
202.00,0.003
203.00,0.000
204.00,0.004
205.00,-0.001
206.00,0.003
207.00,0.002
208.00,0.004
209.00,0.001
210.00,0.000
211.00,0.003
212.00,0.000
213.00,0.001
214.00,-0.002
215.00,0.000
216.00,0.002
217.00,0.005
218.00,0.000
219.00,0.003
220.00,0.003
221.00,0.003
222.00,0.000
223.00,0.002
224.00,-0.001
225.00,0.001
226.00,0.000
227.00,0.002
228.00,0.001
229.00,0.001
230.00,0.002
231.00,0.002
232.00,-0.000
233.00,0.001
234.00,0.000
235.00,-0.000
236.00,0.002
237.00,-0.001
238.00,0.002
239.00,-0.000
240.00,0.001
241.00,0.000
242.00,-0.001
243.00,-0.000
244.00,0.002
245.00,-0.000
246.00,0.001
247.00,0.001
248.00,0.001
249.00,0.001
250.00,0.000
251.00,0.002
252.00,0.001
253.00,0.002
254.00,-0.001
255.00,0.000
256.00,-0.001
257.00,-0.000
258.00,0.000
259.00,0.000
260.00,0.002
261.00,0.000
262.00,0.001
263.00,0.000
264.00,0.000
265.00,0.001
266.00,0.001
267.00,0.001
268.00,0.001
269.00,-0.001
270.00,0.001
271.00,0.001
272.00,-0.001
273.00,0.001
274.00,0.000
275.00,0.001
276.00,0.001
277.00,0.001
278.00,0.000
279.00,0.001
280.00,0.001
281.00,-0.001
282.00,-0.001
283.00,0.001
284.00,0.001
285.00,0.000
286.00,0.000
287.00,-0.001
288.00,0.001
289.00,-0.000
290.00,-0.001
291.00,-0.000
292.00,-0.000
293.00,-0.001
294.00,-0.000
295.00,0.001
296.00,-0.002
297.00,0.002
298.00,0.001
299.00,0.000
300.00,0.001
301.00,0.004
302.00,0.006
303.00,0.007
304.00,0.012
305.00,0.020
306.00,0.030
307.00,0.046
308.00,0.073
309.00,0.110
310.00,0.150
311.00,0.203
312.00,0.276
313.00,0.378
314.00,0.505
315.00,0.662
316.00,0.826
317.00,1.055
318.00,1.295
319.00,1.587
320.00,1.904
321.00,2.279
322.00,2.722
323.00,3.207
324.00,3.714
325.00,4.221
326.00,4.749
327.00,5.393
328.00,6.007
329.00,6.646
330.00,7.308
331.00,7.991
332.00,8.684
333.00,9.409
334.00,10.083
335.00,10.822
336.00,11.522
337.00,12.222
338.00,12.920
339.00,13.576
340.00,14.233
341.00,14.897
342.00,15.515
343.00,16.109
344.00,16.635
345.00,17.230
346.00,17.697
347.00,18.181
348.00,18.650
349.00,19.057
350.00,19.456
351.00,19.806
352.00,20.194
353.00,20.532
354.00,20.841
355.00,21.151
356.00,21.408
357.00,21.701
358.00,21.907
359.00,22.178
360.00,22.442
361.00,22.593
362.00,22.743
363.00,22.959
364.00,23.068
365.00,23.147
366.00,23.285
367.00,23.355
368.00,23.443
369.00,23.524
370.00,23.543
371.00,23.623
372.00,23.624
373.00,23.645
374.00,23.651
375.00,23.648
376.00,23.640
377.00,23.621
378.00,23.546
379.00,23.475
380.00,23.487
381.00,23.447
382.00,23.438
383.00,23.467
384.00,23.544
385.00,23.610
386.00,23.619
387.00,23.721
388.00,23.730
389.00,23.766
390.00,23.825
391.00,23.871
392.00,23.876
393.00,23.893
394.00,23.900
395.00,23.953
396.00,23.933
397.00,23.984
398.00,24.014
399.00,24.012
400.00,24.012
401.00,24.017
402.00,24.030
403.00,24.044
404.00,24.047
405.00,24.044
406.00,24.038
407.00,24.031
408.00,24.012
409.00,23.967
410.00,23.927
411.00,23.929
412.00,23.927
413.00,23.962
414.00,23.928
415.00,23.916
416.00,24.001
417.00,23.953
418.00,24.016
419.00,24.055
420.00,24.127
421.00,24.219
422.00,24.208
423.00,24.252
424.00,24.259
425.00,24.296
426.00,24.383
427.00,24.432
428.00,24.457
429.00,24.486
430.00,24.527
431.00,24.639
432.00,24.683
433.00,24.739
434.00,24.810
435.00,24.884
436.00,24.924
437.00,24.997
438.00,25.055
439.00,25.143
440.00,25.242
441.00,25.293
442.00,25.401
443.00,25.508
444.00,25.569
445.00,25.683
446.00,25.771
447.00,25.893
448.00,25.973
449.00,26.084
450.00,26.181
451.00,26.296
452.00,26.377
453.00,26.566
454.00,26.705
455.00,26.670
456.00,26.829
457.00,26.928
458.00,27.003
459.00,27.152
460.00,27.342
461.00,27.464
462.00,27.543
463.00,27.692
464.00,27.832
465.00,27.918
466.00,28.078
467.00,28.227
468.00,28.279
469.00,28.369
470.00,28.541
471.00,28.515
472.00,28.736
473.00,28.810
474.00,28.920
475.00,29.081
476.00,29.176
477.00,29.274
478.00,29.398
479.00,29.607
480.00,29.726
481.00,29.868
482.00,30.010
483.00,30.101
484.00,30.312
485.00,30.444
486.00,30.595
487.00,30.739
488.00,30.857
489.00,31.035
490.00,31.170
491.00,31.279
492.00,31.414
493.00,31.599
494.00,31.756
495.00,31.804
496.00,31.936
497.00,32.013
498.00,32.194
499.00,32.316
500.00,32.428
501.00,32.525
502.00,32.723
503.00,32.839
504.00,32.885
505.00,33.017
506.00,33.131
507.00,33.199
508.00,33.325
509.00,33.522
510.00,33.626
511.00,33.671
512.00,33.851
513.00,33.983
514.00,34.101
515.00,34.210
516.00,34.332
517.00,34.349
518.00,34.525
519.00,34.589
520.00,34.620
521.00,34.755
522.00,34.814
523.00,34.854
524.00,34.948
525.00,35.063
526.00,35.142
527.00,35.190
528.00,35.250
529.00,35.397
530.00,35.581
531.00,35.650
532.00,35.747
533.00,35.796
534.00,35.907
535.00,36.085
536.00,36.061
537.00,36.042
538.00,36.111
539.00,36.258
540.00,36.338
541.00,36.437
542.00,36.468
543.00,36.480
544.00,36.580
545.00,36.678
546.00,36.727
547.00,36.870
548.00,36.913
549.00,36.959
550.00,37.031
551.00,37.179
552.00,37.228
553.00,37.210
554.00,37.268
555.00,37.328
556.00,37.360
557.00,37.445
558.00,37.527
559.00,37.601
560.00,37.688
561.00,37.726
562.00,37.788
563.00,37.793
564.00,37.782
565.00,37.847
566.00,37.857
567.00,37.942
568.00,37.939
569.00,38.007
570.00,38.067
571.00,38.092
572.00,38.103
573.00,38.062
574.00,38.159
575.00,38.202
576.00,38.192
577.00,38.237
578.00,38.364
579.00,38.425
580.00,38.452
581.00,38.627
582.00,38.675
583.00,38.619
584.00,38.786
585.00,38.826
586.00,38.887
587.00,38.966
588.00,38.949
589.00,38.912
590.00,39.023
591.00,39.089
592.00,39.037
593.00,39.136
594.00,39.226
595.00,39.334
596.00,39.351
597.00,39.310
598.00,39.446
599.00,39.408
600.00,39.422
601.00,39.547
602.00,39.584
603.00,39.588
604.00,39.600
605.00,39.621
606.00,39.635
607.00,39.726
608.00,39.850
609.00,39.981
610.00,39.860
611.00,39.984
612.00,39.983
613.00,40.035
614.00,40.100
615.00,40.172
616.00,40.268
617.00,40.207
618.00,40.264
619.00,40.341
620.00,40.400
621.00,40.389
622.00,40.452
623.00,40.565
624.00,40.599
625.00,40.676
626.00,40.785
627.00,40.814
628.00,40.818
629.00,40.834
630.00,40.881
631.00,40.968
632.00,41.016
633.00,41.168
634.00,41.289
635.00,41.354
636.00,41.399
637.00,41.430
638.00,41.516
639.00,41.562
640.00,41.587
641.00,41.611
642.00,41.615
643.00,41.793
644.00,41.892
645.00,41.982
646.00,42.104
647.00,42.159
648.00,42.252
649.00,42.226
650.00,42.251
651.00,42.401
652.00,42.486
653.00,42.443
654.00,42.537
655.00,42.699
656.00,42.986
657.00,42.813
658.00,42.886
659.00,43.164
660.00,43.195
661.00,43.095
662.00,43.170
663.00,43.305
664.00,43.592
665.00,43.776
666.00,43.597
667.00,43.780
668.00,43.863
669.00,43.970
670.00,44.227
671.00,44.062
672.00,44.086
673.00,44.284
674.00,44.331
675.00,44.455
676.00,44.639
677.00,44.774
678.00,44.536
679.00,44.675
680.00,44.830
681.00,45.096
682.00,45.109
683.00,45.106
684.00,45.289
685.00,45.308
686.00,45.111
687.00,45.237
688.00,45.385
689.00,45.485
690.00,45.653
691.00,45.951
692.00,45.747
693.00,45.668
694.00,45.940
695.00,46.173
696.00,46.164
697.00,46.111
698.00,46.252
699.00,46.411
700.00,46.415
701.00,46.368
702.00,46.564
703.00,46.581
704.00,46.771
705.00,46.744
706.00,46.745
707.00,46.750
708.00,46.725
709.00,47.058
710.00,47.532
711.00,47.173
712.00,47.214
713.00,47.333
714.00,47.390
715.00,47.418
716.00,47.380
717.00,47.546
718.00,47.681
719.00,47.690
720.00,47.722
721.00,52.292
722.00,52.326
723.00,52.327
724.00,52.268
725.00,52.352
726.00,52.320
727.00,52.350
728.00,52.398
729.00,52.406
730.00,52.436
731.00,52.449
732.00,52.450
733.00,52.390
734.00,52.505
735.00,52.557
736.00,52.602
737.00,52.529
738.00,52.647
739.00,52.610
740.00,52.653
741.00,52.690
742.00,52.690
743.00,52.730
744.00,52.733
745.00,52.694
746.00,52.742
747.00,52.764
748.00,52.701
749.00,52.662
750.00,52.754
751.00,52.756
752.00,52.685
753.00,52.742
754.00,52.725
755.00,52.732
756.00,52.744
757.00,52.749
758.00,52.738
759.00,52.772
760.00,52.838
761.00,52.713
762.00,52.810
763.00,52.828
764.00,52.827
765.00,52.820
766.00,52.784
767.00,52.832
768.00,52.870
769.00,52.920
770.00,52.844
771.00,52.945
772.00,52.913
773.00,52.848
774.00,52.892
775.00,52.880
776.00,52.930
777.00,52.996
778.00,52.906
779.00,52.939
780.00,52.928
781.00,52.872
782.00,52.965
783.00,52.959
784.00,52.937
785.00,52.840
786.00,52.908
787.00,52.872
788.00,52.824
789.00,52.830
790.00,52.857
791.00,52.927
792.00,52.829
793.00,52.787
794.00,52.671
795.00,52.847
796.00,52.811
797.00,52.693
798.00,52.782
799.00,52.712
800.00,52.646
801.00,52.687
802.00,52.699
803.00,52.667
804.00,52.586
805.00,52.731
806.00,52.683
807.00,52.602
808.00,52.645
809.00,52.592
810.00,52.514
811.00,52.561
812.00,52.608
813.00,52.570
814.00,52.481
815.00,52.483
816.00,52.535
817.00,52.349
818.00,52.355
819.00,52.393
820.00,52.364
821.00,52.416
822.00,52.343
823.00,52.366
824.00,52.366
825.00,52.296
826.00,52.261
827.00,52.405
828.00,52.364
829.00,52.219
830.00,52.308
831.00,54.443
832.00,54.460
833.00,54.373
834.00,54.419
835.00,54.445
836.00,54.334
837.00,54.324
838.00,54.298
839.00,54.313
840.00,54.274
841.00,54.240
842.00,54.218
843.00,54.219
844.00,54.217
845.00,54.147
846.00,54.197
847.00,54.155
848.00,54.150
849.00,54.091
850.00,54.050
851.00,53.995
852.00,54.007
853.00,53.933
854.00,53.946
855.00,53.896
856.00,53.877
857.00,53.850
858.00,53.789
859.00,53.793
860.00,53.761
861.00,53.800
862.00,53.732
863.00,53.757
864.00,53.707
865.00,53.751
866.00,53.695
867.00,53.693
868.00,53.700
869.00,53.669
870.00,53.666
871.00,53.607
872.00,53.775
873.00,53.648
874.00,53.628
875.00,53.607
876.00,53.602
877.00,53.588
878.00,53.553
879.00,53.552
880.00,53.569
881.00,53.514
882.00,53.534
883.00,53.472
884.00,53.451
885.00,53.414
886.00,53.430
887.00,53.380
888.00,53.379
889.00,53.349
890.00,53.369
891.00,53.328
892.00,53.307
893.00,53.264
894.00,53.287
895.00,53.257
896.00,53.238
897.00,53.198
898.00,53.214
899.00,53.236
900.00,53.154
901.00,53.186
902.00,53.153
903.00,53.222
904.00,53.123
905.00,53.155
906.00,53.029
907.00,53.041
908.00,53.011
909.00,53.016
910.00,52.982
911.00,52.948
912.00,52.963
913.00,53.001
914.00,52.926
915.00,52.878
916.00,52.866
917.00,52.847
918.00,52.832
919.00,52.801
920.00,52.781
921.00,52.784
922.00,52.774
923.00,52.743
924.00,52.728
925.00,52.698
926.00,52.677
927.00,52.665
928.00,52.638
929.00,52.634
930.00,52.587
931.00,52.593
932.00,52.560
933.00,52.563
934.00,52.511
935.00,52.516
936.00,52.466
937.00,52.461
938.00,52.449
939.00,52.454
940.00,52.409
941.00,52.404
942.00,52.367
943.00,52.381
944.00,52.281
945.00,52.339
946.00,52.321
947.00,52.286
948.00,52.246
949.00,52.235
950.00,52.232
951.00,52.202
952.00,52.194
953.00,52.143
954.00,52.129
955.00,52.101
956.00,52.094
957.00,52.008
958.00,52.052
959.00,51.996
960.00,51.997
961.00,51.989
962.00,52.005
963.00,51.949
964.00,51.934
965.00,51.919
966.00,51.927
967.00,51.897
968.00,51.890
969.00,51.909
970.00,51.883
971.00,51.897
972.00,51.854
973.00,51.890
974.00,51.931
975.00,51.871
976.00,51.898
977.00,51.891
978.00,51.920
979.00,51.870
980.00,51.886
981.00,51.876
982.00,51.873
983.00,51.862
984.00,51.857
985.00,51.874
986.00,51.815
987.00,51.839
988.00,51.830
989.00,51.788
990.00,51.786
991.00,51.820
992.00,51.790
993.00,51.756
994.00,51.732
995.00,51.734
996.00,51.730
997.00,51.713
998.00,51.683
999.00,51.728
1000.00,51.666
1001.00,51.672
1002.00,51.587
1003.00,51.643
1004.00,51.626
1005.00,51.586
1006.00,51.654
1007.00,51.593
1008.00,51.580
1009.00,51.566
1010.00,51.559
1011.00,51.537
1012.00,51.506
1013.00,51.511
1014.00,51.475
1015.00,51.487
1016.00,51.452
1017.00,51.459
1018.00,51.409
1019.00,51.407
1020.00,51.412
1021.00,51.394
1022.00,51.419
1023.00,51.331
1024.00,51.328
1025.00,51.315
1026.00,51.313
1027.00,51.289
1028.00,51.287
1029.00,51.287
1030.00,51.235
1031.00,51.245
1032.00,51.205
1033.00,51.197
1034.00,51.203
1035.00,51.149
1036.00,51.123
1037.00,51.116
1038.00,51.087
1039.00,51.075
1040.00,51.082
1041.00,51.027
1042.00,51.021
1043.00,51.000
1044.00,51.020
1045.00,51.004
1046.00,50.975
1047.00,51.003
1048.00,51.019
1049.00,51.021
1050.00,51.035
1051.00,51.080
1052.00,51.078
1053.00,51.071
1054.00,51.055
1055.00,51.073
1056.00,51.093
1057.00,51.101
1058.00,51.085
1059.00,51.073
1060.00,51.067
1061.00,51.056
1062.00,51.047
1063.00,51.038
1064.00,51.033
1065.00,51.051
1066.00,51.017
1067.00,51.028
1068.00,51.064
1069.00,50.996
1070.00,50.983
1071.00,50.958
1072.00,50.988
1073.00,50.968
1074.00,50.953
1075.00,50.937
1076.00,50.951
1077.00,50.923
1078.00,50.904
1079.00,50.888
1080.00,50.886
1081.00,50.889
1082.00,50.877
1083.00,50.873
1084.00,50.868
1085.00,50.854
1086.00,50.840
1087.00,50.837
1088.00,50.819
1089.00,50.822
1090.00,50.816
1091.00,50.818
1092.00,50.803
1093.00,50.780
1094.00,50.768
1095.00,50.763
1096.00,50.750
1097.00,50.758
1098.00,50.756
1099.00,50.732
1100.00,50.741
1101.00,50.714
1102.00,50.706
1103.00,50.713
1104.00,50.687
1105.00,50.687
1106.00,50.680
1107.00,50.670
1108.00,50.655
1109.00,50.653
1110.00,50.636
1111.00,50.632
1112.00,50.597
1113.00,50.591
1114.00,50.602
1115.00,50.591
1116.00,50.591
1117.00,50.576
1118.00,50.564
1119.00,50.570
1120.00,50.575
1121.00,50.556
1122.00,50.534
1123.00,50.541
1124.00,50.517
1125.00,50.515
1126.00,50.509
1127.00,50.508
1128.00,50.496
1129.00,50.462
1130.00,50.511
1131.00,50.468
1132.00,50.464
1133.00,50.479
1134.00,50.418
1135.00,50.394
1136.00,50.433
1137.00,50.440
1138.00,50.446
1139.00,50.453
1140.00,50.413
1141.00,50.424
1142.00,50.421
1143.00,50.413
1144.00,50.413
1145.00,50.414
1146.00,50.393
1147.00,50.389
1148.00,50.380
1149.00,50.393
1150.00,50.393
1151.00,50.383
1152.00,50.371
1153.00,50.361
1154.00,50.353
1155.00,50.363
1156.00,50.341
1157.00,50.343
1158.00,50.348
1159.00,50.336
1160.00,50.340
1161.00,50.346
1162.00,50.326
1163.00,50.327
1164.00,50.326
1165.00,50.320
1166.00,50.327
1167.00,50.307
1168.00,50.315
1169.00,50.314
1170.00,50.312
1171.00,50.291
1172.00,50.320
1173.00,50.294
1174.00,50.294
1175.00,50.316
1176.00,50.291
1177.00,50.298
1178.00,50.279
1179.00,50.291
1180.00,50.295
1181.00,50.297
1182.00,50.301
1183.00,50.288
1184.00,50.283
1185.00,50.290
1186.00,50.279
1187.00,50.279
1188.00,50.271
1189.00,50.265
1190.00,50.256
1191.00,50.253
1192.00,50.258
1193.00,50.253
1194.00,50.265
1195.00,50.225
1196.00,50.263
1197.00,50.256
1198.00,50.236
1199.00,50.245
1200.00,50.249
1201.00,50.249
1202.00,50.251
1203.00,50.248
1204.00,50.253
1205.00,50.277
1206.00,50.246
1207.00,50.250
1208.00,50.235
1209.00,50.227
1210.00,50.247
1211.00,50.232
1212.00,50.243
1213.00,50.224
1214.00,50.248
1215.00,50.226
1216.00,50.237
1217.00,50.233
1218.00,50.227
1219.00,50.240
1220.00,50.215
1221.00,50.244
1222.00,50.213
1223.00,50.228
1224.00,50.234
1225.00,50.213
1226.00,50.222
1227.00,50.219
1228.00,50.231
1229.00,50.230
1230.00,50.260
1231.00,50.240
1232.00,50.263
1233.00,50.270
1234.00,50.256
1235.00,50.263
1236.00,50.257
1237.00,50.264
1238.00,50.270
1239.00,50.264
1240.00,50.260
1241.00,50.271
1242.00,50.265
1243.00,50.295
1244.00,50.249
1245.00,50.276
1246.00,50.299
1247.00,50.263
1248.00,50.273
1249.00,50.299
1250.00,50.292
1251.00,50.291
1252.00,50.306
1253.00,50.280
1254.00,50.310
1255.00,50.303
1256.00,50.268
1257.00,50.290
1258.00,50.310
1259.00,50.324
1260.00,50.348
1261.00,50.324
1262.00,50.321
1263.00,50.315
1264.00,50.322
1265.00,50.326
1266.00,50.335
1267.00,50.349
1268.00,50.342
1269.00,50.327
1270.00,50.350
1271.00,50.358
1272.00,50.354
1273.00,50.372
1274.00,50.373
1275.00,50.374
1276.00,50.384
1277.00,50.379
1278.00,50.392
1279.00,50.407
1280.00,50.392
1281.00,50.406
1282.00,50.427
1283.00,50.394
1284.00,50.418
1285.00,50.403
1286.00,50.422
1287.00,50.412
1288.00,50.394
1289.00,50.398
1290.00,50.434
1291.00,50.428
1292.00,50.406
1293.00,50.446
1294.00,50.464
1295.00,50.455
1296.00,50.464
1297.00,50.451
1298.00,50.476
1299.00,50.453
1300.00,50.463
1301.00,50.473
1302.00,50.482
1303.00,50.501
1304.00,50.492
1305.00,50.507
1306.00,50.520
1307.00,50.521
1308.00,50.514
1309.00,50.532
1310.00,50.530
1311.00,50.504
1312.00,50.522
1313.00,50.532
1314.00,50.560
1315.00,50.573
1316.00,50.542
1317.00,50.576
1318.00,50.585
1319.00,50.575
1320.00,50.601
1321.00,50.747
1322.00,50.728
1323.00,50.724
1324.00,50.699
1325.00,50.684
1326.00,50.732
1327.00,50.725
1328.00,50.706
1329.00,50.734
1330.00,50.720
1331.00,50.718
1332.00,50.711
1333.00,50.728
1334.00,50.774
1335.00,50.777
1336.00,50.772
1337.00,50.842
1338.00,50.864
1339.00,50.930
1340.00,50.979
1341.00,51.039
1342.00,51.116
1343.00,51.157
1344.00,51.200
1345.00,51.286
1346.00,51.296
1347.00,51.279
1348.00,51.354
1349.00,51.357
1350.00,51.391
1351.00,51.413
1352.00,51.420
1353.00,51.445
1354.00,51.401
1355.00,51.315
1356.00,51.431
1357.00,51.424
1358.00,51.481
1359.00,51.567
1360.00,51.582
1361.00,51.265
1362.00,51.250
1363.00,51.534
1364.00,51.447
1365.00,51.514
1366.00,51.569
1367.00,51.355
1368.00,51.369
1369.00,51.517
1370.00,51.381
1371.00,51.103
1372.00,51.363
1373.00,51.426
1374.00,51.420
1375.00,51.410
1376.00,51.394
1377.00,51.441
1378.00,51.453
1379.00,51.420
1380.00,51.438
1381.00,51.245
1382.00,51.361
1383.00,51.348
1384.00,51.324
1385.00,51.387
1386.00,51.481
1387.00,51.373
1388.00,51.343
1389.00,51.341
1390.00,51.423
1391.00,51.273
1392.00,51.444
1393.00,51.508
1394.00,51.384
1395.00,51.190
1396.00,51.299
1397.00,51.310
1398.00,51.630
1399.00,51.305
1400.00,51.281
1401.00,51.340
1402.00,51.548
1403.00,51.340
1404.00,51.365
1405.00,51.426
1406.00,51.409
1407.00,51.455
1408.00,51.443
1409.00,51.419
1410.00,51.462
1411.00,51.478
1412.00,51.534
1413.00,51.281
1414.00,51.430
1415.00,51.489
1416.00,51.491
1417.00,51.552
1418.00,51.479
1419.00,51.496
1420.00,51.550
1421.00,51.566
1422.00,51.562
1423.00,51.582
1424.00,51.579
1425.00,51.607
1426.00,51.623
1427.00,51.640
1428.00,51.630
1429.00,51.615
1430.00,51.670
1431.00,51.658
1432.00,51.669
1433.00,51.714
1434.00,51.658
1435.00,51.712
1436.00,51.771
1437.00,51.734
1438.00,51.765
1439.00,51.805
1440.00,51.816
1441.00,51.793
1442.00,51.790
1443.00,51.829
1444.00,51.895
1445.00,51.823
1446.00,51.811
1447.00,51.893
1448.00,51.928
1449.00,51.964
1450.00,51.949
1451.00,51.930
1452.00,51.941
1453.00,51.971
1454.00,51.961
1455.00,51.996
1456.00,52.018
1457.00,51.994
1458.00,52.059
1459.00,52.060
1460.00,52.085
1461.00,52.090
1462.00,52.096
1463.00,52.140
1464.00,52.149
1465.00,52.143
1466.00,52.165
1467.00,52.167
1468.00,52.205
1469.00,52.197
1470.00,52.214
1471.00,52.233
1472.00,52.237
1473.00,52.250
1474.00,52.284
1475.00,52.292
1476.00,52.292
1477.00,52.296
1478.00,52.305
1479.00,52.315
1480.00,52.333
1481.00,52.329
1482.00,52.360
1483.00,52.381
1484.00,52.388
1485.00,52.401
1486.00,52.407
1487.00,52.414
1488.00,52.460
1489.00,52.458
1490.00,52.450
1491.00,52.482
1492.00,52.484
1493.00,52.471
1494.00,52.501
1495.00,52.502
1496.00,52.527
1497.00,52.527
1498.00,52.518
1499.00,52.559
1500.00,52.560
1501.00, 
1502.00, 
1503.00, 
1504.00, 
1505.00, 
1506.00, 
1507.00, 
1508.00, 
1509.00, 
1510.00, 
1511.00, 
1512.00, 
1513.00, 
1514.00, 
1515.00, 
1516.00, 
1517.00, 
1518.00, 
1519.00, 
1520.00, 
1521.00, 
1522.00, 
1523.00, 
1524.00, 
1525.00, 
1526.00, 
1527.00, 
1528.00, 
1529.00, 
1530.00, 
1531.00, 
1532.00, 
1533.00, 
1534.00, 
1535.00, 
1536.00, 
1537.00, 
1538.00, 
1539.00, 
1540.00, 
1541.00, 
1542.00, 
1543.00, 
1544.00, 
1545.00, 
1546.00, 
1547.00, 
1548.00, 
1549.00, 
1550.00, 
1551.00, 
1552.00, 
1553.00, 
1554.00, 
1555.00, 
1556.00, 
1557.00, 
1558.00, 
1559.00, 
1560.00, 
1561.00, 
1562.00, 
1563.00, 
1564.00, 
1565.00, 
1566.00, 
1567.00, 
1568.00, 
1569.00, 
1570.00, 
1571.00, 
1572.00, 
1573.00, 
1574.00, 
1575.00, 
1576.00, 
1577.00, 
1578.00, 
1579.00, 
1580.00, 
1581.00, 
1582.00, 
1583.00, 
1584.00, 
1585.00, 
1586.00, 
1587.00, 
1588.00, 
1589.00, 
1590.00, 
1591.00, 
1592.00, 
1593.00, 
1594.00, 
1595.00, 
1596.00, 
1597.00, 
1598.00, 
1599.00, 
1600.00, 
1601.00, 
1602.00, 
1603.00, 
1604.00, 
1605.00, 
1606.00, 
1607.00, 
1608.00, 
1609.00, 
1610.00, 
1611.00, 
1612.00, 
1613.00, 
1614.00, 
1615.00, 
1616.00, 
1617.00, 
1618.00, 
1619.00, 
1620.00, 
1621.00, 
1622.00, 
1623.00, 
1624.00, 
1625.00, 
1626.00, 
1627.00, 
1628.00, 
1629.00, 
1630.00, 
1631.00, 
1632.00, 
1633.00, 
1634.00, 
1635.00, 
1636.00, 
1637.00, 
1638.00, 
1639.00, 
1640.00, 
1641.00, 
1642.00, 
1643.00, 
1644.00, 
1645.00, 
1646.00, 
1647.00, 
1648.00, 
1649.00, 
1650.00, 
1651.00, 
1652.00, 
1653.00, 
1654.00, 
1655.00, 
1656.00, 
1657.00, 
1658.00, 
1659.00, 
1660.00, 
1661.00, 
1662.00, 
1663.00, 
1664.00, 
1665.00, 
1666.00, 
1667.00, 
1668.00, 
1669.00, 
1670.00, 
1671.00, 
1672.00, 
1673.00, 
1674.00, 
1675.00, 
1676.00, 
1677.00, 
1678.00, 
1679.00, 
1680.00, 
1681.00, 
1682.00, 
1683.00, 
1684.00, 
1685.00, 
1686.00, 
1687.00, 
1688.00, 
1689.00, 
1690.00, 
1691.00, 
1692.00, 
1693.00, 
1694.00, 
1695.00, 
1696.00, 
1697.00, 
1698.00, 
1699.00, 
1700.00, 
1701.00, 
1702.00, 
1703.00, 
1704.00, 
1705.00, 
1706.00, 
1707.00, 
1708.00, 
1709.00, 
1710.00, 
1711.00, 
1712.00, 
1713.00, 
1714.00, 
1715.00, 
1716.00, 
1717.00, 
1718.00, 
1719.00, 
1720.00, 
1721.00, 
1722.00, 
1723.00, 
1724.00, 
1725.00, 
1726.00, 
1727.00, 
1728.00, 
1729.00, 
1730.00, 
1731.00, 
1732.00, 
1733.00, 
1734.00, 
1735.00, 
1736.00, 
1737.00, 
1738.00, 
1739.00, 
1740.00, 
1741.00, 
1742.00, 
1743.00, 
1744.00, 
1745.00, 
1746.00, 
1747.00, 
1748.00, 
1749.00, 
1750.00, 
1751.00, 
1752.00, 
1753.00, 
1754.00, 
1755.00, 
1756.00, 
1757.00, 
1758.00, 
1759.00, 
1760.00, 
1761.00, 
1762.00, 
1763.00, 
1764.00, 
1765.00, 
1766.00, 
1767.00, 
1768.00, 
1769.00, 
1770.00, 
1771.00, 
1772.00, 
1773.00, 
1774.00, 
1775.00, 
1776.00, 
1777.00, 
1778.00, 
1779.00, 
1780.00, 
1781.00, 
1782.00, 
1783.00, 
1784.00, 
1785.00, 
1786.00, 
1787.00, 
1788.00, 
1789.00, 
1790.00, 
1791.00, 
1792.00, 
1793.00, 
1794.00, 
1795.00, 
1796.00, 
1797.00, 
1798.00, 
1799.00, 
1800.00, 
1801.00, 
1802.00, 
1803.00, 
1804.00, 
1805.00, 
1806.00, 
1807.00, 
1808.00, 
1809.00, 
1810.00, 
1811.00, 
1812.00, 
1813.00, 
1814.00, 
1815.00, 
1816.00, 
1817.00, 
1818.00, 
1819.00, 
1820.00, 
1821.00, 
1822.00, 
1823.00, 
1824.00, 
1825.00, 
1826.00, 
1827.00, 
1828.00, 
1829.00, 
1830.00, 
1831.00, 
1832.00, 
1833.00, 
1834.00, 
1835.00, 
1836.00, 
1837.00, 
1838.00, 
1839.00, 
1840.00, 
1841.00, 
1842.00, 
1843.00, 
1844.00, 
1845.00, 
1846.00, 
1847.00, 
1848.00, 
1849.00, 
1850.00, 
1851.00, 
1852.00, 
1853.00, 
1854.00, 
1855.00, 
1856.00, 
1857.00, 
1858.00, 
1859.00, 
1860.00, 
1861.00, 
1862.00, 
1863.00, 
1864.00, 
1865.00, 
1866.00, 
1867.00, 
1868.00, 
1869.00, 
1870.00, 
1871.00, 
1872.00, 
1873.00, 
1874.00, 
1875.00, 
1876.00, 
1877.00, 
1878.00, 
1879.00, 
1880.00, 
1881.00, 
1882.00, 
1883.00, 
1884.00, 
1885.00, 
1886.00, 
1887.00, 
1888.00, 
1889.00, 
1890.00, 
1891.00, 
1892.00, 
1893.00, 
1894.00, 
1895.00, 
1896.00, 
1897.00, 
1898.00, 
1899.00, 
1900.00, 
1901.00, 
1902.00, 
1903.00, 
1904.00, 
1905.00, 
1906.00, 
1907.00, 
1908.00, 
1909.00, 
1910.00, 
1911.00, 
1912.00, 
1913.00, 
1914.00, 
1915.00, 
1916.00, 
1917.00, 
1918.00, 
1919.00, 
1920.00, 
1921.00, 
1922.00, 
1923.00, 
1924.00, 
1925.00, 
1926.00, 
1927.00, 
1928.00, 
1929.00, 
1930.00, 
1931.00, 
1932.00, 
1933.00, 
1934.00, 
1935.00, 
1936.00, 
1937.00, 
1938.00, 
1939.00, 
1940.00, 
1941.00, 
1942.00, 
1943.00, 
1944.00, 
1945.00, 
1946.00, 
1947.00, 
1948.00, 
1949.00, 
1950.00, 
1951.00, 
1952.00, 
1953.00, 
1954.00, 
1955.00, 
1956.00, 
1957.00, 
1958.00, 
1959.00, 
1960.00, 
1961.00, 
1962.00, 
1963.00, 
1964.00, 
1965.00, 
1966.00, 
1967.00, 
1968.00, 
1969.00, 
1970.00, 
1971.00, 
1972.00, 
1973.00, 
1974.00, 
1975.00, 
1976.00, 
1977.00, 
1978.00, 
1979.00, 
1980.00, 
1981.00, 
1982.00, 
1983.00, 
1984.00, 
1985.00, 
1986.00, 
1987.00, 
1988.00, 
1989.00, 
1990.00, 
1991.00, 
1992.00, 
1993.00, 
1994.00, 
1995.00, 
1996.00, 
1997.00, 
1998.00, 
1999.00, 
2000.00, 
2001.00, 
2002.00, 
2003.00, 
2004.00, 
2005.00, 
2006.00, 
2007.00, 
2008.00, 
2009.00, 
2010.00, 
2011.00, 
2012.00, 
2013.00, 
2014.00, 
2015.00, 
2016.00, 
2017.00, 
2018.00, 
2019.00, 
2020.00, 
2021.00, 
2022.00, 
2023.00, 
2024.00, 
2025.00, 
2026.00, 
2027.00, 
2028.00, 
2029.00, 
2030.00, 
2031.00, 
2032.00, 
2033.00, 
2034.00, 
2035.00, 
2036.00, 
2037.00, 
2038.00, 
2039.00, 
2040.00, 
2041.00, 
2042.00, 
2043.00, 
2044.00, 
2045.00, 
2046.00, 
2047.00, 
2048.00, 
2049.00, 
2050.00, 
2051.00, 
2052.00, 
2053.00, 
2054.00, 
2055.00, 
2056.00, 
2057.00, 
2058.00, 
2059.00, 
2060.00, 
2061.00, 
2062.00, 
2063.00, 
2064.00, 
2065.00, 
2066.00, 
2067.00, 
2068.00, 
2069.00, 
2070.00, 
2071.00, 
2072.00, 
2073.00, 
2074.00, 
2075.00, 
2076.00, 
2077.00, 
2078.00, 
2079.00, 
2080.00, 
2081.00, 
2082.00, 
2083.00, 
2084.00, 
2085.00, 
2086.00, 
2087.00, 
2088.00, 
2089.00, 
2090.00, 
2091.00, 
2092.00, 
2093.00, 
2094.00, 
2095.00, 
2096.00, 
2097.00, 
2098.00, 
2099.00, 
2100.00, 
2101.00, 
2102.00, 
2103.00, 
2104.00, 
2105.00, 
2106.00, 
2107.00, 
2108.00, 
2109.00, 
2110.00, 
2111.00, 
2112.00, 
2113.00, 
2114.00, 
2115.00, 
2116.00, 
2117.00, 
2118.00, 
2119.00, 
2120.00, 
2121.00, 
2122.00, 
2123.00, 
2124.00, 
2125.00, 
2126.00, 
2127.00, 
2128.00, 
2129.00, 
2130.00, 
2131.00, 
2132.00, 
2133.00, 
2134.00, 
2135.00, 
2136.00, 
2137.00, 
2138.00, 
2139.00, 
2140.00, 
2141.00, 
2142.00, 
2143.00, 
2144.00, 
2145.00, 
2146.00, 
2147.00, 
2148.00, 
2149.00, 
2150.00, 
2151.00, 
2152.00, 
2153.00, 
2154.00, 
2155.00, 
2156.00, 
2157.00, 
2158.00, 
2159.00, 
2160.00, 
2161.00, 
2162.00, 
2163.00, 
2164.00, 
2165.00, 
2166.00, 
2167.00, 
2168.00, 
2169.00, 
2170.00, 
2171.00, 
2172.00, 
2173.00, 
2174.00, 
2175.00, 
2176.00, 
2177.00, 
2178.00, 
2179.00, 
2180.00, 
2181.00, 
2182.00, 
2183.00, 
2184.00, 
2185.00, 
2186.00, 
2187.00, 
2188.00, 
2189.00, 
2190.00, 
2191.00, 
2192.00, 
2193.00, 
2194.00, 
2195.00, 
2196.00, 
2197.00, 
2198.00, 
2199.00, 
2200.00, 
2201.00, 
2202.00, 
2203.00, 
2204.00, 
2205.00, 
2206.00, 
2207.00, 
2208.00, 
2209.00, 
2210.00, 
2211.00, 
2212.00, 
2213.00, 
2214.00, 
2215.00, 
2216.00, 
2217.00, 
2218.00, 
2219.00, 
2220.00, 
2221.00, 
2222.00, 
2223.00, 
2224.00, 
2225.00, 
2226.00, 
2227.00, 
2228.00, 
2229.00, 
2230.00, 
2231.00, 
2232.00, 
2233.00, 
2234.00, 
2235.00, 
2236.00, 
2237.00, 
2238.00, 
2239.00, 
2240.00, 
2241.00, 
2242.00, 
2243.00, 
2244.00, 
2245.00, 
2246.00, 
2247.00, 
2248.00, 
2249.00, 
2250.00, 
2251.00, 
2252.00, 
2253.00, 
2254.00, 
2255.00, 
2256.00, 
2257.00, 
2258.00, 
2259.00, 
2260.00, 
2261.00, 
2262.00, 
2263.00, 
2264.00, 
2265.00, 
2266.00, 
2267.00, 
2268.00, 
2269.00, 
2270.00, 
2271.00, 
2272.00, 
2273.00, 
2274.00, 
2275.00, 
2276.00, 
2277.00, 
2278.00, 
2279.00, 
2280.00, 
2281.00, 
2282.00, 
2283.00, 
2284.00, 
2285.00, 
2286.00, 
2287.00, 
2288.00, 
2289.00, 
2290.00, 
2291.00, 
2292.00, 
2293.00, 
2294.00, 
2295.00, 
2296.00, 
2297.00, 
2298.00, 
2299.00, 
2300.00, 
2301.00, 
2302.00, 
2303.00, 
2304.00, 
2305.00, 
2306.00, 
2307.00, 
2308.00, 
2309.00, 
2310.00, 
2311.00, 
2312.00, 
2313.00, 
2314.00, 
2315.00, 
2316.00, 
2317.00, 
2318.00, 
2319.00, 
2320.00, 
2321.00, 
2322.00, 
2323.00, 
2324.00, 
2325.00, 
2326.00, 
2327.00, 
2328.00, 
2329.00, 
2330.00, 
2331.00, 
2332.00, 
2333.00, 
2334.00, 
2335.00, 
2336.00, 
2337.00, 
2338.00, 
2339.00, 
2340.00, 
2341.00, 
2342.00, 
2343.00, 
2344.00, 
2345.00, 
2346.00, 
2347.00, 
2348.00, 
2349.00, 
2350.00, 
2351.00, 
2352.00, 
2353.00, 
2354.00, 
2355.00, 
2356.00, 
2357.00, 
2358.00, 
2359.00, 
2360.00, 
2361.00, 
2362.00, 
2363.00, 
2364.00, 
2365.00, 
2366.00, 
2367.00, 
2368.00, 
2369.00, 
2370.00, 
2371.00, 
2372.00, 
2373.00, 
2374.00, 
2375.00, 
2376.00, 
2377.00, 
2378.00, 
2379.00, 
2380.00, 
2381.00, 
2382.00, 
2383.00, 
2384.00, 
2385.00, 
2386.00, 
2387.00, 
2388.00, 
2389.00, 
2390.00, 
2391.00, 
2392.00, 
2393.00, 
2394.00, 
2395.00, 
2396.00, 
2397.00, 
2398.00, 
2399.00, 
2400.00, 
2401.00, 
2402.00, 
2403.00, 
2404.00, 
2405.00, 
2406.00, 
2407.00, 
2408.00, 
2409.00, 
2410.00, 
2411.00, 
2412.00, 
2413.00, 
2414.00, 
2415.00, 
2416.00, 
2417.00, 
2418.00, 
2419.00, 
2420.00, 
2421.00, 
2422.00, 
2423.00, 
2424.00, 
2425.00, 
2426.00, 
2427.00, 
2428.00, 
2429.00, 
2430.00, 
2431.00, 
2432.00, 
2433.00, 
2434.00, 
2435.00, 
2436.00, 
2437.00, 
2438.00, 
2439.00, 
2440.00, 
2441.00, 
2442.00, 
2443.00, 
2444.00, 
2445.00, 
2446.00, 
2447.00, 
2448.00, 
2449.00, 
2450.00, 
2451.00, 
2452.00, 
2453.00, 
2454.00, 
2455.00, 
2456.00, 
2457.00, 
2458.00, 
2459.00, 
2460.00, 
2461.00, 
2462.00, 
2463.00, 
2464.00, 
2465.00, 
2466.00, 
2467.00, 
2468.00, 
2469.00, 
2470.00, 
2471.00, 
2472.00, 
2473.00, 
2474.00, 
2475.00, 
2476.00, 
2477.00, 
2478.00, 
2479.00, 
2480.00, 
2481.00, 
2482.00, 
2483.00, 
2484.00, 
2485.00, 
2486.00, 
2487.00, 
2488.00, 
2489.00, 
2490.00, 
2491.00, 
2492.00, 
2493.00, 
2494.00, 
2495.00, 
2496.00, 
2497.00, 
2498.00, 
2499.00, 
2500.00, 
2501.00, 
2502.00, 
2503.00, 
2504.00, 
2505.00, 
2506.00, 
2507.00, 
2508.00, 
2509.00, 
2510.00, 
2511.00, 
2512.00, 
2513.00, 
2514.00, 
2515.00, 
2516.00, 
2517.00, 
2518.00, 
2519.00, 
2520.00, 
2521.00, 
2522.00, 
2523.00, 
2524.00, 
2525.00, 
2526.00, 
2527.00, 
2528.00, 
2529.00, 
2530.00, 
2531.00, 
2532.00, 
2533.00, 
2534.00, 
2535.00, 
2536.00, 
2537.00, 
2538.00, 
2539.00, 
2540.00, 
2541.00, 
2542.00, 
2543.00, 
2544.00, 
2545.00, 
2546.00, 
2547.00, 
2548.00, 
2549.00, 
2550.00, 
2551.00, 
2552.00, 
2553.00, 
2554.00, 
2555.00, 
2556.00, 
2557.00, 
2558.00, 
2559.00, 
2560.00, 
2561.00, 
2562.00, 
2563.00, 
2564.00, 
2565.00, 
2566.00, 
2567.00, 
2568.00, 
2569.00, 
2570.00, 
2571.00, 
2572.00, 
2573.00, 
2574.00, 
2575.00, 
2576.00, 
2577.00, 
2578.00, 
2579.00, 
2580.00, 
2581.00, 
2582.00, 
2583.00, 
2584.00, 
2585.00, 
2586.00, 
2587.00, 
2588.00, 
2589.00, 
2590.00, 
2591.00, 
2592.00, 
2593.00, 
2594.00, 
2595.00, 
2596.00, 
2597.00, 
2598.00, 
2599.00, 
2600.00, 
