"1aP2 - RawData"
"Wavelength nm.","T%"
200.00,-0.001
201.00,0.002
202.00,0.002
203.00,-0.000
204.00,0.001
205.00,0.001
206.00,0.001
207.00,0.001
208.00,-0.001
209.00,0.001
210.00,-0.000
211.00,0.004
212.00,-0.000
213.00,0.002
214.00,0.001
215.00,0.001
216.00,0.002
217.00,0.002
218.00,-0.001
219.00,0.003
220.00,0.000
221.00,-0.001
222.00,-0.002
223.00,-0.000
224.00,0.002
225.00,-0.001
226.00,-0.001
227.00,0.001
228.00,0.002
229.00,-0.002
230.00,0.000
231.00,0.001
232.00,0.002
233.00,0.001
234.00,0.001
235.00,-0.003
236.00,0.000
237.00,0.000
238.00,0.002
239.00,0.000
240.00,-0.000
241.00,-0.000
242.00,0.000
243.00,0.000
244.00,-0.000
245.00,0.001
246.00,0.001
247.00,0.000
248.00,0.000
249.00,0.003
250.00,0.000
251.00,-0.001
252.00,-0.001
253.00,0.000
254.00,-0.002
255.00,0.001
256.00,0.000
257.00,0.000
258.00,0.002
259.00,0.000
260.00,-0.001
261.00,0.000
262.00,-0.000
263.00,0.001
264.00,0.001
265.00,-0.000
266.00,0.003
267.00,0.002
268.00,0.001
269.00,0.000
270.00,-0.000
271.00,-0.001
272.00,-0.000
273.00,0.002
274.00,-0.001
275.00,0.000
276.00,0.001
277.00,-0.000
278.00,0.000
279.00,-0.001
280.00,0.001
281.00,0.002
282.00,-0.001
283.00,-0.001
284.00,0.001
285.00,0.002
286.00,0.001
287.00,0.002
288.00,0.000
289.00,0.000
290.00,0.000
291.00,0.000
292.00,-0.002
293.00,-0.002
294.00,0.000
295.00,0.001
296.00,-0.000
297.00,0.000
298.00,0.001
299.00,0.004
300.00,0.003
301.00,0.005
302.00,0.009
303.00,0.012
304.00,0.020
305.00,0.032
306.00,0.048
307.00,0.070
308.00,0.108
309.00,0.164
310.00,0.232
311.00,0.313
312.00,0.427
313.00,0.576
314.00,0.756
315.00,0.967
316.00,1.222
317.00,1.540
318.00,1.880
319.00,2.275
320.00,2.753
321.00,3.276
322.00,3.856
323.00,4.505
324.00,5.180
325.00,5.836
326.00,6.552
327.00,7.335
328.00,8.118
329.00,8.908
330.00,9.783
331.00,10.601
332.00,11.455
333.00,12.332
334.00,13.159
335.00,14.032
336.00,14.880
337.00,15.677
338.00,16.458
339.00,17.197
340.00,18.008
341.00,18.735
342.00,19.456
343.00,20.155
344.00,20.759
345.00,21.435
346.00,21.918
347.00,22.433
348.00,22.909
349.00,23.398
350.00,23.886
351.00,24.253
352.00,24.627
353.00,24.959
354.00,25.315
355.00,25.585
356.00,25.879
357.00,26.144
358.00,26.395
359.00,26.657
360.00,26.887
361.00,27.001
362.00,27.253
363.00,27.422
364.00,27.577
365.00,27.646
366.00,27.715
367.00,27.788
368.00,27.873
369.00,27.962
370.00,27.966
371.00,28.048
372.00,27.995
373.00,27.975
374.00,27.964
375.00,27.941
376.00,27.909
377.00,27.861
378.00,27.764
379.00,27.692
380.00,27.681
381.00,27.663
382.00,27.671
383.00,27.655
384.00,27.592
385.00,27.650
386.00,27.648
387.00,27.869
388.00,27.907
389.00,27.920
390.00,27.951
391.00,27.993
392.00,28.071
393.00,28.015
394.00,28.026
395.00,28.044
396.00,28.051
397.00,28.076
398.00,28.086
399.00,28.114
400.00,28.122
401.00,28.074
402.00,28.066
403.00,28.082
404.00,28.081
405.00,28.067
406.00,28.067
407.00,28.034
408.00,28.015
409.00,27.982
410.00,27.907
411.00,27.906
412.00,27.863
413.00,27.874
414.00,27.854
415.00,27.893
416.00,27.931
417.00,27.906
418.00,27.961
419.00,28.015
420.00,28.036
421.00,28.123
422.00,28.151
423.00,28.244
424.00,28.214
425.00,28.238
426.00,28.266
427.00,28.349
428.00,28.360
429.00,28.408
430.00,28.455
431.00,28.497
432.00,28.517
433.00,28.620
434.00,28.655
435.00,28.713
436.00,28.784
437.00,28.856
438.00,28.935
439.00,28.963
440.00,29.041
441.00,29.133
442.00,29.249
443.00,29.286
444.00,29.367
445.00,29.508
446.00,29.549
447.00,29.693
448.00,29.797
449.00,29.856
450.00,29.949
451.00,30.060
452.00,30.188
453.00,30.278
454.00,30.407
455.00,30.475
456.00,30.619
457.00,30.736
458.00,30.819
459.00,30.940
460.00,31.092
461.00,31.201
462.00,31.302
463.00,31.417
464.00,31.585
465.00,31.735
466.00,31.836
467.00,31.967
468.00,32.078
469.00,32.210
470.00,32.239
471.00,32.375
472.00,32.476
473.00,32.543
474.00,32.644
475.00,32.799
476.00,32.863
477.00,32.954
478.00,33.096
479.00,33.225
480.00,33.426
481.00,33.467
482.00,33.622
483.00,33.732
484.00,33.849
485.00,34.126
486.00,34.169
487.00,34.367
488.00,34.512
489.00,34.619
490.00,34.791
491.00,34.828
492.00,35.186
493.00,35.267
494.00,35.259
495.00,35.379
496.00,35.535
497.00,35.623
498.00,35.789
499.00,35.928
500.00,36.088
501.00,36.137
502.00,36.254
503.00,36.413
504.00,36.492
505.00,36.623
506.00,36.680
507.00,36.715
508.00,36.837
509.00,37.051
510.00,37.046
511.00,37.244
512.00,37.323
513.00,37.497
514.00,37.583
515.00,37.680
516.00,37.816
517.00,37.917
518.00,38.001
519.00,38.069
520.00,38.132
521.00,38.185
522.00,38.323
523.00,38.299
524.00,38.386
525.00,38.480
526.00,38.583
527.00,38.701
528.00,38.750
529.00,38.839
530.00,38.954
531.00,39.124
532.00,39.207
533.00,39.310
534.00,39.345
535.00,39.423
536.00,39.492
537.00,39.582
538.00,39.626
539.00,39.662
540.00,39.707
541.00,39.736
542.00,39.768
543.00,39.839
544.00,39.887
545.00,39.938
546.00,39.992
547.00,40.127
548.00,40.120
549.00,40.175
550.00,40.289
551.00,40.425
552.00,40.370
553.00,40.478
554.00,40.509
555.00,40.547
556.00,40.610
557.00,40.695
558.00,40.762
559.00,40.772
560.00,40.757
561.00,40.864
562.00,40.976
563.00,40.999
564.00,41.055
565.00,41.082
566.00,41.128
567.00,41.084
568.00,41.153
569.00,41.233
570.00,41.139
571.00,41.271
572.00,41.265
573.00,41.208
574.00,41.343
575.00,41.270
576.00,41.249
577.00,41.391
578.00,41.469
579.00,41.473
580.00,41.528
581.00,41.676
582.00,41.706
583.00,41.797
584.00,41.864
585.00,41.866
586.00,41.906
587.00,42.009
588.00,41.969
589.00,41.943
590.00,41.969
591.00,42.020
592.00,41.983
593.00,42.014
594.00,42.125
595.00,42.177
596.00,42.245
597.00,42.301
598.00,42.395
599.00,42.407
600.00,42.492
601.00,42.492
602.00,42.523
603.00,42.548
604.00,42.525
605.00,42.568
606.00,42.629
607.00,42.652
608.00,42.731
609.00,42.711
610.00,42.705
611.00,42.809
612.00,42.658
613.00,42.732
614.00,42.840
615.00,42.772
616.00,42.876
617.00,42.836
618.00,43.104
619.00,43.154
620.00,43.143
621.00,43.173
622.00,43.259
623.00,43.296
624.00,43.359
625.00,43.422
626.00,43.463
627.00,43.570
628.00,43.531
629.00,43.498
630.00,43.546
631.00,43.571
632.00,43.655
633.00,43.757
634.00,43.848
635.00,43.961
636.00,44.054
637.00,44.108
638.00,44.065
639.00,44.136
640.00,44.139
641.00,44.234
642.00,44.270
643.00,44.386
644.00,44.473
645.00,44.488
646.00,44.615
647.00,44.680
648.00,44.603
649.00,44.776
650.00,44.750
651.00,44.861
652.00,44.830
653.00,44.973
654.00,45.013
655.00,44.984
656.00,45.206
657.00,45.346
658.00,45.475
659.00,45.501
660.00,44.888
661.00,45.526
662.00,45.581
663.00,45.620
664.00,45.829
665.00,45.921
666.00,45.844
667.00,46.179
668.00,46.168
669.00,46.260
670.00,46.413
671.00,46.327
672.00,46.343
673.00,46.460
674.00,46.443
675.00,46.602
676.00,46.822
677.00,46.837
678.00,46.545
679.00,46.750
680.00,47.208
681.00,47.096
682.00,47.099
683.00,47.243
684.00,47.398
685.00,47.434
686.00,47.095
687.00,47.374
688.00,47.505
689.00,47.456
690.00,47.721
691.00,47.821
692.00,47.797
693.00,47.742
694.00,47.815
695.00,47.892
696.00,48.001
697.00,48.175
698.00,48.194
699.00,48.324
700.00,48.326
701.00,48.434
702.00,48.514
703.00,48.632
704.00,48.720
705.00,48.573
706.00,48.699
707.00,48.879
708.00,48.521
709.00,48.870
710.00,49.232
711.00,48.891
712.00,48.899
713.00,49.136
714.00,49.124
715.00,49.125
716.00,49.134
717.00,49.259
718.00,49.271
719.00,49.310
720.00,49.520
721.00,53.721
722.00,53.723
723.00,53.804
724.00,53.803
725.00,53.721
726.00,53.713
727.00,53.710
728.00,53.749
729.00,53.765
730.00,53.848
731.00,53.794
732.00,53.770
733.00,53.876
734.00,53.973
735.00,53.986
736.00,53.898
737.00,53.951
738.00,54.017
739.00,54.049
740.00,54.008
741.00,54.090
742.00,54.008
743.00,53.988
744.00,53.984
745.00,53.991
746.00,54.042
747.00,54.039
748.00,53.959
749.00,53.960
750.00,53.984
751.00,53.927
752.00,53.934
753.00,53.975
754.00,53.961
755.00,53.946
756.00,54.008
757.00,53.968
758.00,53.994
759.00,53.957
760.00,54.024
761.00,53.969
762.00,53.974
763.00,54.077
764.00,53.931
765.00,53.973
766.00,54.012
767.00,54.022
768.00,53.949
769.00,54.013
770.00,54.045
771.00,53.977
772.00,54.034
773.00,54.042
774.00,53.963
775.00,54.053
776.00,53.948
777.00,54.057
778.00,53.910
779.00,54.050
780.00,53.902
781.00,54.027
782.00,54.059
783.00,53.982
784.00,54.003
785.00,53.966
786.00,54.060
787.00,53.910
788.00,53.913
789.00,53.902
790.00,53.850
791.00,53.915
792.00,53.830
793.00,53.840
794.00,53.829
795.00,53.797
796.00,53.857
797.00,53.776
798.00,53.827
799.00,53.754
800.00,53.729
801.00,53.719
802.00,53.731
803.00,53.708
804.00,53.660
805.00,53.735
806.00,53.623
807.00,53.589
808.00,53.675
809.00,53.652
810.00,53.512
811.00,53.595
812.00,53.582
813.00,53.501
814.00,53.600
815.00,53.544
816.00,53.488
817.00,53.525
818.00,53.393
819.00,53.469
820.00,53.370
821.00,53.464
822.00,53.378
823.00,53.394
824.00,53.452
825.00,53.365
826.00,53.410
827.00,53.400
828.00,53.379
829.00,53.342
830.00,53.328
831.00,55.883
832.00,55.910
833.00,55.843
834.00,55.868
835.00,55.818
836.00,55.825
837.00,55.787
838.00,55.796
839.00,55.745
840.00,55.651
841.00,55.759
842.00,55.682
843.00,55.692
844.00,55.684
845.00,55.654
846.00,55.645
847.00,55.593
848.00,55.656
849.00,55.502
850.00,55.540
851.00,55.485
852.00,55.512
853.00,55.397
854.00,55.394
855.00,55.368
856.00,55.428
857.00,55.200
858.00,55.305
859.00,55.318
860.00,55.311
861.00,55.317
862.00,55.268
863.00,55.303
864.00,55.234
865.00,55.291
866.00,55.245
867.00,55.199
868.00,55.221
869.00,55.176
870.00,55.194
871.00,55.168
872.00,55.137
873.00,55.143
874.00,55.224
875.00,54.996
876.00,55.181
877.00,55.138
878.00,55.160
879.00,55.107
880.00,55.093
881.00,55.054
882.00,55.092
883.00,55.048
884.00,54.982
885.00,54.984
886.00,54.961
887.00,54.943
888.00,54.934
889.00,54.936
890.00,54.935
891.00,54.884
892.00,54.869
893.00,54.856
894.00,54.848
895.00,54.828
896.00,54.803
897.00,54.782
898.00,54.765
899.00,54.753
900.00,54.722
901.00,54.677
902.00,54.733
903.00,54.747
904.00,54.690
905.00,54.638
906.00,54.784
907.00,54.656
908.00,54.614
909.00,54.609
910.00,54.571
911.00,54.575
912.00,54.559
913.00,54.526
914.00,54.524
915.00,54.489
916.00,54.446
917.00,54.467
918.00,54.452
919.00,54.426
920.00,54.387
921.00,54.390
922.00,54.428
923.00,54.368
924.00,54.322
925.00,54.301
926.00,54.394
927.00,54.246
928.00,54.283
929.00,54.280
930.00,54.246
931.00,54.204
932.00,54.178
933.00,54.175
934.00,54.182
935.00,54.139
936.00,54.131
937.00,54.089
938.00,54.244
939.00,54.108
940.00,54.083
941.00,54.070
942.00,54.023
943.00,54.022
944.00,54.003
945.00,53.975
946.00,53.983
947.00,53.930
948.00,53.922
949.00,53.900
950.00,53.913
951.00,53.897
952.00,53.870
953.00,53.818
954.00,53.795
955.00,53.769
956.00,53.734
957.00,53.715
958.00,53.725
959.00,53.653
960.00,53.645
961.00,53.669
962.00,53.653
963.00,53.611
964.00,53.624
965.00,53.625
966.00,53.602
967.00,53.591
968.00,53.591
969.00,53.612
970.00,53.570
971.00,53.578
972.00,53.555
973.00,53.597
974.00,53.611
975.00,53.572
976.00,53.580
977.00,53.573
978.00,53.614
979.00,53.570
980.00,53.568
981.00,53.583
982.00,53.527
983.00,53.562
984.00,53.546
985.00,53.563
986.00,53.519
987.00,53.545
988.00,53.506
989.00,53.502
990.00,53.498
991.00,53.501
992.00,53.508
993.00,53.459
994.00,53.478
995.00,53.465
996.00,53.453
997.00,53.422
998.00,53.398
999.00,53.462
1000.00,53.380
1001.00,53.371
1002.00,53.367
1003.00,53.365
1004.00,53.332
1005.00,53.303
1006.00,53.337
1007.00,53.313
1008.00,53.307
1009.00,53.293
1010.00,53.289
1011.00,53.270
1012.00,53.224
1013.00,53.264
1014.00,53.263
1015.00,53.231
1016.00,53.215
1017.00,53.195
1018.00,53.193
1019.00,53.183
1020.00,53.188
1021.00,53.169
1022.00,53.156
1023.00,53.110
1024.00,53.113
1025.00,53.090
1026.00,53.063
1027.00,53.076
1028.00,53.072
1029.00,53.041
1030.00,53.016
1031.00,53.030
1032.00,52.991
1033.00,52.998
1034.00,52.969
1035.00,52.934
1036.00,52.907
1037.00,52.905
1038.00,52.889
1039.00,52.846
1040.00,52.843
1041.00,52.809
1042.00,52.813
1043.00,52.781
1044.00,52.816
1045.00,52.784
1046.00,52.785
1047.00,52.799
1048.00,52.813
1049.00,52.832
1050.00,52.825
1051.00,52.860
1052.00,52.861
1053.00,52.855
1054.00,52.856
1055.00,52.877
1056.00,52.903
1057.00,52.907
1058.00,52.873
1059.00,52.870
1060.00,52.937
1061.00,52.873
1062.00,52.854
1063.00,52.867
1064.00,52.865
1065.00,52.866
1066.00,52.869
1067.00,52.859
1068.00,52.875
1069.00,52.842
1070.00,52.824
1071.00,52.816
1072.00,52.821
1073.00,52.815
1074.00,52.785
1075.00,52.781
1076.00,52.809
1077.00,52.768
1078.00,52.749
1079.00,52.776
1080.00,52.773
1081.00,52.752
1082.00,52.765
1083.00,52.753
1084.00,52.735
1085.00,52.719
1086.00,52.728
1087.00,52.733
1088.00,52.709
1089.00,52.702
1090.00,52.718
1091.00,52.710
1092.00,52.696
1093.00,52.690
1094.00,52.673
1095.00,52.661
1096.00,52.651
1097.00,52.649
1098.00,52.649
1099.00,52.623
1100.00,52.602
1101.00,52.588
1102.00,52.567
1103.00,52.568
1104.00,52.575
1105.00,52.586
1106.00,52.578
1107.00,52.561
1108.00,52.556
1109.00,52.546
1110.00,52.532
1111.00,52.520
1112.00,52.520
1113.00,52.524
1114.00,52.502
1115.00,52.513
1116.00,52.505
1117.00,52.473
1118.00,52.469
1119.00,52.466
1120.00,52.481
1121.00,52.477
1122.00,52.470
1123.00,52.463
1124.00,52.448
1125.00,52.441
1126.00,52.452
1127.00,52.441
1128.00,52.414
1129.00,52.390
1130.00,52.381
1131.00,52.384
1132.00,52.375
1133.00,52.361
1134.00,52.379
1135.00,52.343
1136.00,52.359
1137.00,52.392
1138.00,52.370
1139.00,52.377
1140.00,52.373
1141.00,52.368
1142.00,52.355
1143.00,52.363
1144.00,52.342
1145.00,52.352
1146.00,52.339
1147.00,52.336
1148.00,52.343
1149.00,52.350
1150.00,52.352
1151.00,52.345
1152.00,52.337
1153.00,52.336
1154.00,52.336
1155.00,52.342
1156.00,52.338
1157.00,52.345
1158.00,52.325
1159.00,52.339
1160.00,52.316
1161.00,52.333
1162.00,52.337
1163.00,52.324
1164.00,52.324
1165.00,52.328
1166.00,52.316
1167.00,52.325
1168.00,52.368
1169.00,52.316
1170.00,52.325
1171.00,52.309
1172.00,52.299
1173.00,52.309
1174.00,52.306
1175.00,52.300
1176.00,52.301
1177.00,52.297
1178.00,52.314
1179.00,52.324
1180.00,52.318
1181.00,52.330
1182.00,52.322
1183.00,52.344
1184.00,52.304
1185.00,52.301
1186.00,52.290
1187.00,52.301
1188.00,52.287
1189.00,52.297
1190.00,52.283
1191.00,52.289
1192.00,52.323
1193.00,52.310
1194.00,52.307
1195.00,52.292
1196.00,52.319
1197.00,52.327
1198.00,52.310
1199.00,52.297
1200.00,52.309
1201.00,52.313
1202.00,52.279
1203.00,52.292
1204.00,52.288
1205.00,52.304
1206.00,52.292
1207.00,52.301
1208.00,52.293
1209.00,52.299
1210.00,52.290
1211.00,52.294
1212.00,52.313
1213.00,52.279
1214.00,52.329
1215.00,52.292
1216.00,52.298
1217.00,52.291
1218.00,52.283
1219.00,52.296
1220.00,52.288
1221.00,52.312
1222.00,52.308
1223.00,52.323
1224.00,52.319
1225.00,52.309
1226.00,52.311
1227.00,52.311
1228.00,52.331
1229.00,52.317
1230.00,52.346
1231.00,52.336
1232.00,52.355
1233.00,52.360
1234.00,52.352
1235.00,52.347
1236.00,52.351
1237.00,52.354
1238.00,52.345
1239.00,52.347
1240.00,52.343
1241.00,52.348
1242.00,52.359
1243.00,52.357
1244.00,52.352
1245.00,52.387
1246.00,52.377
1247.00,52.385
1248.00,52.373
1249.00,52.379
1250.00,52.389
1251.00,52.375
1252.00,52.389
1253.00,52.396
1254.00,52.410
1255.00,52.402
1256.00,52.402
1257.00,52.440
1258.00,52.469
1259.00,52.451
1260.00,52.444
1261.00,52.453
1262.00,52.431
1263.00,52.432
1264.00,52.442
1265.00,52.448
1266.00,52.453
1267.00,52.456
1268.00,52.455
1269.00,52.465
1270.00,52.472
1271.00,52.472
1272.00,52.495
1273.00,52.503
1274.00,52.493
1275.00,52.515
1276.00,52.509
1277.00,52.499
1278.00,52.509
1279.00,52.499
1280.00,52.516
1281.00,52.530
1282.00,52.538
1283.00,52.525
1284.00,52.531
1285.00,52.546
1286.00,52.540
1287.00,52.542
1288.00,52.526
1289.00,52.537
1290.00,52.598
1291.00,52.585
1292.00,52.573
1293.00,52.586
1294.00,52.597
1295.00,52.607
1296.00,52.605
1297.00,52.609
1298.00,52.636
1299.00,52.619
1300.00,52.633
1301.00,52.622
1302.00,52.649
1303.00,52.651
1304.00,52.643
1305.00,52.660
1306.00,52.654
1307.00,52.645
1308.00,52.659
1309.00,52.659
1310.00,52.667
1311.00,52.658
1312.00,52.675
1313.00,52.683
1314.00,52.703
1315.00,52.704
1316.00,52.718
1317.00,52.743
1318.00,52.746
1319.00,52.751
1320.00,52.740
1321.00,52.911
1322.00,52.891
1323.00,52.899
1324.00,52.887
1325.00,52.849
1326.00,52.896
1327.00,52.887
1328.00,52.866
1329.00,52.867
1330.00,52.876
1331.00,52.868
1332.00,52.852
1333.00,52.839
1334.00,52.937
1335.00,52.894
1336.00,52.942
1337.00,52.984
1338.00,53.036
1339.00,53.101
1340.00,53.155
1341.00,53.208
1342.00,53.271
1343.00,53.318
1344.00,53.357
1345.00,53.447
1346.00,53.447
1347.00,53.482
1348.00,53.484
1349.00,53.501
1350.00,53.532
1351.00,53.548
1352.00,53.550
1353.00,53.558
1354.00,53.581
1355.00,53.533
1356.00,53.559
1357.00,53.573
1358.00,53.611
1359.00,53.623
1360.00,53.640
1361.00,53.660
1362.00,53.602
1363.00,53.636
1364.00,53.630
1365.00,53.594
1366.00,53.672
1367.00,53.592
1368.00,53.610
1369.00,53.584
1370.00,53.543
1371.00,53.579
1372.00,53.570
1373.00,53.580
1374.00,53.644
1375.00,53.574
1376.00,53.577
1377.00,53.522
1378.00,53.632
1379.00,53.599
1380.00,53.600
1381.00,53.676
1382.00,53.572
1383.00,53.629
1384.00,53.539
1385.00,53.548
1386.00,53.603
1387.00,53.568
1388.00,53.533
1389.00,53.534
1390.00,53.564
1391.00,53.559
1392.00,53.564
1393.00,53.505
1394.00,53.613
1395.00,53.417
1396.00,53.596
1397.00,53.549
1398.00,53.607
1399.00,53.569
1400.00,53.551
1401.00,53.550
1402.00,53.637
1403.00,53.598
1404.00,53.568
1405.00,53.622
1406.00,53.614
1407.00,53.593
1408.00,53.657
1409.00,53.604
1410.00,53.638
1411.00,53.406
1412.00,53.697
1413.00,53.637
1414.00,53.602
1415.00,53.643
1416.00,53.664
1417.00,53.705
1418.00,53.650
1419.00,53.681
1420.00,53.712
1421.00,53.714
1422.00,53.744
1423.00,53.783
1424.00,53.749
1425.00,53.784
1426.00,53.768
1427.00,53.801
1428.00,53.800
1429.00,53.817
1430.00,53.832
1431.00,53.851
1432.00,53.855
1433.00,53.878
1434.00,53.866
1435.00,53.907
1436.00,53.930
1437.00,53.920
1438.00,53.940
1439.00,53.976
1440.00,53.958
1441.00,53.995
1442.00,54.009
1443.00,54.012
1444.00,54.090
1445.00,54.034
1446.00,54.038
1447.00,54.095
1448.00,54.111
1449.00,54.130
1450.00,54.127
1451.00,54.132
1452.00,54.163
1453.00,54.168
1454.00,54.160
1455.00,54.188
1456.00,54.194
1457.00,54.182
1458.00,54.226
1459.00,54.247
1460.00,54.271
1461.00,54.276
1462.00,54.300
1463.00,54.332
1464.00,54.326
1465.00,54.344
1466.00,54.362
1467.00,54.379
1468.00,54.415
1469.00,54.392
1470.00,54.406
1471.00,54.422
1472.00,54.421
1473.00,54.425
1474.00,54.473
1475.00,54.482
1476.00,54.472
1477.00,54.467
1478.00,54.490
1479.00,54.487
1480.00,54.518
1481.00,54.545
1482.00,54.553
1483.00,54.565
1484.00,54.562
1485.00,54.575
1486.00,54.586
1487.00,54.592
1488.00,54.645
1489.00,54.624
1490.00,54.636
1491.00,54.666
1492.00,54.657
1493.00,54.651
1494.00,54.702
1495.00,54.674
1496.00,54.711
1497.00,54.696
1498.00,54.689
1499.00,54.717
1500.00,54.729
1501.00, 
1502.00, 
1503.00, 
1504.00, 
1505.00, 
1506.00, 
1507.00, 
1508.00, 
1509.00, 
1510.00, 
1511.00, 
1512.00, 
1513.00, 
1514.00, 
1515.00, 
1516.00, 
1517.00, 
1518.00, 
1519.00, 
1520.00, 
1521.00, 
1522.00, 
1523.00, 
1524.00, 
1525.00, 
1526.00, 
1527.00, 
1528.00, 
1529.00, 
1530.00, 
1531.00, 
1532.00, 
1533.00, 
1534.00, 
1535.00, 
1536.00, 
1537.00, 
1538.00, 
1539.00, 
1540.00, 
1541.00, 
1542.00, 
1543.00, 
1544.00, 
1545.00, 
1546.00, 
1547.00, 
1548.00, 
1549.00, 
1550.00, 
1551.00, 
1552.00, 
1553.00, 
1554.00, 
1555.00, 
1556.00, 
1557.00, 
1558.00, 
1559.00, 
1560.00, 
1561.00, 
1562.00, 
1563.00, 
1564.00, 
1565.00, 
1566.00, 
1567.00, 
1568.00, 
1569.00, 
1570.00, 
1571.00, 
1572.00, 
1573.00, 
1574.00, 
1575.00, 
1576.00, 
1577.00, 
1578.00, 
1579.00, 
1580.00, 
1581.00, 
1582.00, 
1583.00, 
1584.00, 
1585.00, 
1586.00, 
1587.00, 
1588.00, 
1589.00, 
1590.00, 
1591.00, 
1592.00, 
1593.00, 
1594.00, 
1595.00, 
1596.00, 
1597.00, 
1598.00, 
1599.00, 
1600.00, 
1601.00, 
1602.00, 
1603.00, 
1604.00, 
1605.00, 
1606.00, 
1607.00, 
1608.00, 
1609.00, 
1610.00, 
1611.00, 
1612.00, 
1613.00, 
1614.00, 
1615.00, 
1616.00, 
1617.00, 
1618.00, 
1619.00, 
1620.00, 
1621.00, 
1622.00, 
1623.00, 
1624.00, 
1625.00, 
1626.00, 
1627.00, 
1628.00, 
1629.00, 
1630.00, 
1631.00, 
1632.00, 
1633.00, 
1634.00, 
1635.00, 
1636.00, 
1637.00, 
1638.00, 
1639.00, 
1640.00, 
1641.00, 
1642.00, 
1643.00, 
1644.00, 
1645.00, 
1646.00, 
1647.00, 
1648.00, 
1649.00, 
1650.00, 
1651.00, 
1652.00, 
1653.00, 
1654.00, 
1655.00, 
1656.00, 
1657.00, 
1658.00, 
1659.00, 
1660.00, 
1661.00, 
1662.00, 
1663.00, 
1664.00, 
1665.00, 
1666.00, 
1667.00, 
1668.00, 
1669.00, 
1670.00, 
1671.00, 
1672.00, 
1673.00, 
1674.00, 
1675.00, 
1676.00, 
1677.00, 
1678.00, 
1679.00, 
1680.00, 
1681.00, 
1682.00, 
1683.00, 
1684.00, 
1685.00, 
1686.00, 
1687.00, 
1688.00, 
1689.00, 
1690.00, 
1691.00, 
1692.00, 
1693.00, 
1694.00, 
1695.00, 
1696.00, 
1697.00, 
1698.00, 
1699.00, 
1700.00, 
1701.00, 
1702.00, 
1703.00, 
1704.00, 
1705.00, 
1706.00, 
1707.00, 
1708.00, 
1709.00, 
1710.00, 
1711.00, 
1712.00, 
1713.00, 
1714.00, 
1715.00, 
1716.00, 
1717.00, 
1718.00, 
1719.00, 
1720.00, 
1721.00, 
1722.00, 
1723.00, 
1724.00, 
1725.00, 
1726.00, 
1727.00, 
1728.00, 
1729.00, 
1730.00, 
1731.00, 
1732.00, 
1733.00, 
1734.00, 
1735.00, 
1736.00, 
1737.00, 
1738.00, 
1739.00, 
1740.00, 
1741.00, 
1742.00, 
1743.00, 
1744.00, 
1745.00, 
1746.00, 
1747.00, 
1748.00, 
1749.00, 
1750.00, 
1751.00, 
1752.00, 
1753.00, 
1754.00, 
1755.00, 
1756.00, 
1757.00, 
1758.00, 
1759.00, 
1760.00, 
1761.00, 
1762.00, 
1763.00, 
1764.00, 
1765.00, 
1766.00, 
1767.00, 
1768.00, 
1769.00, 
1770.00, 
1771.00, 
1772.00, 
1773.00, 
1774.00, 
1775.00, 
1776.00, 
1777.00, 
1778.00, 
1779.00, 
1780.00, 
1781.00, 
1782.00, 
1783.00, 
1784.00, 
1785.00, 
1786.00, 
1787.00, 
1788.00, 
1789.00, 
1790.00, 
1791.00, 
1792.00, 
1793.00, 
1794.00, 
1795.00, 
1796.00, 
1797.00, 
1798.00, 
1799.00, 
1800.00, 
1801.00, 
1802.00, 
1803.00, 
1804.00, 
1805.00, 
1806.00, 
1807.00, 
1808.00, 
1809.00, 
1810.00, 
1811.00, 
1812.00, 
1813.00, 
1814.00, 
1815.00, 
1816.00, 
1817.00, 
1818.00, 
1819.00, 
1820.00, 
1821.00, 
1822.00, 
1823.00, 
1824.00, 
1825.00, 
1826.00, 
1827.00, 
1828.00, 
1829.00, 
1830.00, 
1831.00, 
1832.00, 
1833.00, 
1834.00, 
1835.00, 
1836.00, 
1837.00, 
1838.00, 
1839.00, 
1840.00, 
1841.00, 
1842.00, 
1843.00, 
1844.00, 
1845.00, 
1846.00, 
1847.00, 
1848.00, 
1849.00, 
1850.00, 
1851.00, 
1852.00, 
1853.00, 
1854.00, 
1855.00, 
1856.00, 
1857.00, 
1858.00, 
1859.00, 
1860.00, 
1861.00, 
1862.00, 
1863.00, 
1864.00, 
1865.00, 
1866.00, 
1867.00, 
1868.00, 
1869.00, 
1870.00, 
1871.00, 
1872.00, 
1873.00, 
1874.00, 
1875.00, 
1876.00, 
1877.00, 
1878.00, 
1879.00, 
1880.00, 
1881.00, 
1882.00, 
1883.00, 
1884.00, 
1885.00, 
1886.00, 
1887.00, 
1888.00, 
1889.00, 
1890.00, 
1891.00, 
1892.00, 
1893.00, 
1894.00, 
1895.00, 
1896.00, 
1897.00, 
1898.00, 
1899.00, 
1900.00, 
1901.00, 
1902.00, 
1903.00, 
1904.00, 
1905.00, 
1906.00, 
1907.00, 
1908.00, 
1909.00, 
1910.00, 
1911.00, 
1912.00, 
1913.00, 
1914.00, 
1915.00, 
1916.00, 
1917.00, 
1918.00, 
1919.00, 
1920.00, 
1921.00, 
1922.00, 
1923.00, 
1924.00, 
1925.00, 
1926.00, 
1927.00, 
1928.00, 
1929.00, 
1930.00, 
1931.00, 
1932.00, 
1933.00, 
1934.00, 
1935.00, 
1936.00, 
1937.00, 
1938.00, 
1939.00, 
1940.00, 
1941.00, 
1942.00, 
1943.00, 
1944.00, 
1945.00, 
1946.00, 
1947.00, 
1948.00, 
1949.00, 
1950.00, 
1951.00, 
1952.00, 
1953.00, 
1954.00, 
1955.00, 
1956.00, 
1957.00, 
1958.00, 
1959.00, 
1960.00, 
1961.00, 
1962.00, 
1963.00, 
1964.00, 
1965.00, 
1966.00, 
1967.00, 
1968.00, 
1969.00, 
1970.00, 
1971.00, 
1972.00, 
1973.00, 
1974.00, 
1975.00, 
1976.00, 
1977.00, 
1978.00, 
1979.00, 
1980.00, 
1981.00, 
1982.00, 
1983.00, 
1984.00, 
1985.00, 
1986.00, 
1987.00, 
1988.00, 
1989.00, 
1990.00, 
1991.00, 
1992.00, 
1993.00, 
1994.00, 
1995.00, 
1996.00, 
1997.00, 
1998.00, 
1999.00, 
2000.00, 
2001.00, 
2002.00, 
2003.00, 
2004.00, 
2005.00, 
2006.00, 
2007.00, 
2008.00, 
2009.00, 
2010.00, 
2011.00, 
2012.00, 
2013.00, 
2014.00, 
2015.00, 
2016.00, 
2017.00, 
2018.00, 
2019.00, 
2020.00, 
2021.00, 
2022.00, 
2023.00, 
2024.00, 
2025.00, 
2026.00, 
2027.00, 
2028.00, 
2029.00, 
2030.00, 
2031.00, 
2032.00, 
2033.00, 
2034.00, 
2035.00, 
2036.00, 
2037.00, 
2038.00, 
2039.00, 
2040.00, 
2041.00, 
2042.00, 
2043.00, 
2044.00, 
2045.00, 
2046.00, 
2047.00, 
2048.00, 
2049.00, 
2050.00, 
2051.00, 
2052.00, 
2053.00, 
2054.00, 
2055.00, 
2056.00, 
2057.00, 
2058.00, 
2059.00, 
2060.00, 
2061.00, 
2062.00, 
2063.00, 
2064.00, 
2065.00, 
2066.00, 
2067.00, 
2068.00, 
2069.00, 
2070.00, 
2071.00, 
2072.00, 
2073.00, 
2074.00, 
2075.00, 
2076.00, 
2077.00, 
2078.00, 
2079.00, 
2080.00, 
2081.00, 
2082.00, 
2083.00, 
2084.00, 
2085.00, 
2086.00, 
2087.00, 
2088.00, 
2089.00, 
2090.00, 
2091.00, 
2092.00, 
2093.00, 
2094.00, 
2095.00, 
2096.00, 
2097.00, 
2098.00, 
2099.00, 
2100.00, 
2101.00, 
2102.00, 
2103.00, 
2104.00, 
2105.00, 
2106.00, 
2107.00, 
2108.00, 
2109.00, 
2110.00, 
2111.00, 
2112.00, 
2113.00, 
2114.00, 
2115.00, 
2116.00, 
2117.00, 
2118.00, 
2119.00, 
2120.00, 
2121.00, 
2122.00, 
2123.00, 
2124.00, 
2125.00, 
2126.00, 
2127.00, 
2128.00, 
2129.00, 
2130.00, 
2131.00, 
2132.00, 
2133.00, 
2134.00, 
2135.00, 
2136.00, 
2137.00, 
2138.00, 
2139.00, 
2140.00, 
2141.00, 
2142.00, 
2143.00, 
2144.00, 
2145.00, 
2146.00, 
2147.00, 
2148.00, 
2149.00, 
2150.00, 
2151.00, 
2152.00, 
2153.00, 
2154.00, 
2155.00, 
2156.00, 
2157.00, 
2158.00, 
2159.00, 
2160.00, 
2161.00, 
2162.00, 
2163.00, 
2164.00, 
2165.00, 
2166.00, 
2167.00, 
2168.00, 
2169.00, 
2170.00, 
2171.00, 
2172.00, 
2173.00, 
2174.00, 
2175.00, 
2176.00, 
2177.00, 
2178.00, 
2179.00, 
2180.00, 
2181.00, 
2182.00, 
2183.00, 
2184.00, 
2185.00, 
2186.00, 
2187.00, 
2188.00, 
2189.00, 
2190.00, 
2191.00, 
2192.00, 
2193.00, 
2194.00, 
2195.00, 
2196.00, 
2197.00, 
2198.00, 
2199.00, 
2200.00, 
2201.00, 
2202.00, 
2203.00, 
2204.00, 
2205.00, 
2206.00, 
2207.00, 
2208.00, 
2209.00, 
2210.00, 
2211.00, 
2212.00, 
2213.00, 
2214.00, 
2215.00, 
2216.00, 
2217.00, 
2218.00, 
2219.00, 
2220.00, 
2221.00, 
2222.00, 
2223.00, 
2224.00, 
2225.00, 
2226.00, 
2227.00, 
2228.00, 
2229.00, 
2230.00, 
2231.00, 
2232.00, 
2233.00, 
2234.00, 
2235.00, 
2236.00, 
2237.00, 
2238.00, 
2239.00, 
2240.00, 
2241.00, 
2242.00, 
2243.00, 
2244.00, 
2245.00, 
2246.00, 
2247.00, 
2248.00, 
2249.00, 
2250.00, 
2251.00, 
2252.00, 
2253.00, 
2254.00, 
2255.00, 
2256.00, 
2257.00, 
2258.00, 
2259.00, 
2260.00, 
2261.00, 
2262.00, 
2263.00, 
2264.00, 
2265.00, 
2266.00, 
2267.00, 
2268.00, 
2269.00, 
2270.00, 
2271.00, 
2272.00, 
2273.00, 
2274.00, 
2275.00, 
2276.00, 
2277.00, 
2278.00, 
2279.00, 
2280.00, 
2281.00, 
2282.00, 
2283.00, 
2284.00, 
2285.00, 
2286.00, 
2287.00, 
2288.00, 
2289.00, 
2290.00, 
2291.00, 
2292.00, 
2293.00, 
2294.00, 
2295.00, 
2296.00, 
2297.00, 
2298.00, 
2299.00, 
2300.00, 
2301.00, 
2302.00, 
2303.00, 
2304.00, 
2305.00, 
2306.00, 
2307.00, 
2308.00, 
2309.00, 
2310.00, 
2311.00, 
2312.00, 
2313.00, 
2314.00, 
2315.00, 
2316.00, 
2317.00, 
2318.00, 
2319.00, 
2320.00, 
2321.00, 
2322.00, 
2323.00, 
2324.00, 
2325.00, 
2326.00, 
2327.00, 
2328.00, 
2329.00, 
2330.00, 
2331.00, 
2332.00, 
2333.00, 
2334.00, 
2335.00, 
2336.00, 
2337.00, 
2338.00, 
2339.00, 
2340.00, 
2341.00, 
2342.00, 
2343.00, 
2344.00, 
2345.00, 
2346.00, 
2347.00, 
2348.00, 
2349.00, 
2350.00, 
2351.00, 
2352.00, 
2353.00, 
2354.00, 
2355.00, 
2356.00, 
2357.00, 
2358.00, 
2359.00, 
2360.00, 
2361.00, 
2362.00, 
2363.00, 
2364.00, 
2365.00, 
2366.00, 
2367.00, 
2368.00, 
2369.00, 
2370.00, 
2371.00, 
2372.00, 
2373.00, 
2374.00, 
2375.00, 
2376.00, 
2377.00, 
2378.00, 
2379.00, 
2380.00, 
2381.00, 
2382.00, 
2383.00, 
2384.00, 
2385.00, 
2386.00, 
2387.00, 
2388.00, 
2389.00, 
2390.00, 
2391.00, 
2392.00, 
2393.00, 
2394.00, 
2395.00, 
2396.00, 
2397.00, 
2398.00, 
2399.00, 
2400.00, 
2401.00, 
2402.00, 
2403.00, 
2404.00, 
2405.00, 
2406.00, 
2407.00, 
2408.00, 
2409.00, 
2410.00, 
2411.00, 
2412.00, 
2413.00, 
2414.00, 
2415.00, 
2416.00, 
2417.00, 
2418.00, 
2419.00, 
2420.00, 
2421.00, 
2422.00, 
2423.00, 
2424.00, 
2425.00, 
2426.00, 
2427.00, 
2428.00, 
2429.00, 
2430.00, 
2431.00, 
2432.00, 
2433.00, 
2434.00, 
2435.00, 
2436.00, 
2437.00, 
2438.00, 
2439.00, 
2440.00, 
2441.00, 
2442.00, 
2443.00, 
2444.00, 
2445.00, 
2446.00, 
2447.00, 
2448.00, 
2449.00, 
2450.00, 
2451.00, 
2452.00, 
2453.00, 
2454.00, 
2455.00, 
2456.00, 
2457.00, 
2458.00, 
2459.00, 
2460.00, 
2461.00, 
2462.00, 
2463.00, 
2464.00, 
2465.00, 
2466.00, 
2467.00, 
2468.00, 
2469.00, 
2470.00, 
2471.00, 
2472.00, 
2473.00, 
2474.00, 
2475.00, 
2476.00, 
2477.00, 
2478.00, 
2479.00, 
2480.00, 
2481.00, 
2482.00, 
2483.00, 
2484.00, 
2485.00, 
2486.00, 
2487.00, 
2488.00, 
2489.00, 
2490.00, 
2491.00, 
2492.00, 
2493.00, 
2494.00, 
2495.00, 
2496.00, 
2497.00, 
2498.00, 
2499.00, 
2500.00, 
2501.00, 
2502.00, 
2503.00, 
2504.00, 
2505.00, 
2506.00, 
2507.00, 
2508.00, 
2509.00, 
2510.00, 
2511.00, 
2512.00, 
2513.00, 
2514.00, 
2515.00, 
2516.00, 
2517.00, 
2518.00, 
2519.00, 
2520.00, 
2521.00, 
2522.00, 
2523.00, 
2524.00, 
2525.00, 
2526.00, 
2527.00, 
2528.00, 
2529.00, 
2530.00, 
2531.00, 
2532.00, 
2533.00, 
2534.00, 
2535.00, 
2536.00, 
2537.00, 
2538.00, 
2539.00, 
2540.00, 
2541.00, 
2542.00, 
2543.00, 
2544.00, 
2545.00, 
2546.00, 
2547.00, 
2548.00, 
2549.00, 
2550.00, 
2551.00, 
2552.00, 
2553.00, 
2554.00, 
2555.00, 
2556.00, 
2557.00, 
2558.00, 
2559.00, 
2560.00, 
2561.00, 
2562.00, 
2563.00, 
2564.00, 
2565.00, 
2566.00, 
2567.00, 
2568.00, 
2569.00, 
2570.00, 
2571.00, 
2572.00, 
2573.00, 
2574.00, 
2575.00, 
2576.00, 
2577.00, 
2578.00, 
2579.00, 
2580.00, 
2581.00, 
2582.00, 
2583.00, 
2584.00, 
2585.00, 
2586.00, 
2587.00, 
2588.00, 
2589.00, 
2590.00, 
2591.00, 
2592.00, 
2593.00, 
2594.00, 
2595.00, 
2596.00, 
2597.00, 
2598.00, 
2599.00, 
2600.00, 
