"1bP2 - RawData"
"Wavelength nm.","T%"
200.00,0.002
201.00,0.002
202.00,0.005
203.00,0.002
204.00,0.001
205.00,0.001
206.00,0.002
207.00,0.002
208.00,0.002
209.00,0.003
210.00,0.003
211.00,0.001
212.00,0.003
213.00,0.002
214.00,0.002
215.00,0.001
216.00,0.001
217.00,-0.002
218.00,-0.001
219.00,-0.001
220.00,-0.000
221.00,-0.000
222.00,0.002
223.00,0.001
224.00,0.001
225.00,0.001
226.00,0.002
227.00,0.000
228.00,0.003
229.00,0.002
230.00,-0.001
231.00,-0.001
232.00,-0.000
233.00,-0.001
234.00,-0.001
235.00,-0.000
236.00,-0.001
237.00,0.001
238.00,0.000
239.00,0.002
240.00,0.000
241.00,-0.000
242.00,-0.000
243.00,-0.002
244.00,-0.003
245.00,-0.001
246.00,-0.001
247.00,0.000
248.00,0.001
249.00,-0.000
250.00,0.001
251.00,-0.002
252.00,0.000
253.00,-0.000
254.00,0.000
255.00,0.000
256.00,0.001
257.00,-0.000
258.00,0.001
259.00,-0.001
260.00,0.001
261.00,0.000
262.00,0.001
263.00,-0.001
264.00,-0.001
265.00,-0.000
266.00,-0.001
267.00,-0.001
268.00,0.000
269.00,0.001
270.00,0.000
271.00,0.001
272.00,-0.000
273.00,-0.002
274.00,0.001
275.00,0.000
276.00,0.001
277.00,0.001
278.00,-0.000
279.00,0.000
280.00,0.003
281.00,0.001
282.00,0.002
283.00,-0.001
284.00,-0.000
285.00,-0.000
286.00,0.000
287.00,-0.000
288.00,-0.000
289.00,0.002
290.00,-0.000
291.00,-0.000
292.00,-0.002
293.00,0.001
294.00,0.001
295.00,-0.000
296.00,-0.000
297.00,-0.001
298.00,-0.000
299.00,0.002
300.00,0.004
301.00,0.005
302.00,0.009
303.00,0.015
304.00,0.022
305.00,0.033
306.00,0.050
307.00,0.078
308.00,0.120
309.00,0.187
310.00,0.254
311.00,0.349
312.00,0.470
313.00,0.627
314.00,0.814
315.00,1.052
316.00,1.327
317.00,1.684
318.00,2.051
319.00,2.486
320.00,2.989
321.00,3.552
322.00,4.160
323.00,4.843
324.00,5.560
325.00,6.304
326.00,7.037
327.00,7.884
328.00,8.724
329.00,9.586
330.00,10.520
331.00,11.323
332.00,12.238
333.00,13.025
334.00,14.079
335.00,15.016
336.00,15.872
337.00,16.784
338.00,17.643
339.00,18.421
340.00,19.232
341.00,20.006
342.00,20.777
343.00,21.489
344.00,22.134
345.00,22.863
346.00,23.361
347.00,23.890
348.00,24.484
349.00,24.952
350.00,25.415
351.00,25.844
352.00,26.186
353.00,26.531
354.00,26.945
355.00,27.220
356.00,27.583
357.00,27.770
358.00,28.129
359.00,28.438
360.00,28.698
361.00,28.778
362.00,29.026
363.00,29.184
364.00,29.279
365.00,29.418
366.00,29.476
367.00,29.622
368.00,29.673
369.00,29.732
370.00,29.808
371.00,29.783
372.00,29.842
373.00,29.727
374.00,29.808
375.00,29.827
376.00,29.735
377.00,29.714
378.00,29.589
379.00,29.462
380.00,29.528
381.00,29.477
382.00,29.460
383.00,29.505
384.00,29.401
385.00,29.605
386.00,29.593
387.00,29.703
388.00,29.759
389.00,29.729
390.00,29.849
391.00,29.854
392.00,29.913
393.00,29.870
394.00,29.915
395.00,29.966
396.00,29.935
397.00,29.980
398.00,29.932
399.00,29.978
400.00,29.982
401.00,29.979
402.00,29.928
403.00,29.899
404.00,29.921
405.00,29.881
406.00,29.909
407.00,29.844
408.00,29.878
409.00,29.794
410.00,29.689
411.00,29.760
412.00,29.671
413.00,29.699
414.00,29.670
415.00,29.649
416.00,29.748
417.00,29.656
418.00,29.694
419.00,29.830
420.00,29.875
421.00,29.873
422.00,29.915
423.00,29.972
424.00,29.981
425.00,29.963
426.00,29.962
427.00,30.068
428.00,30.113
429.00,30.117
430.00,30.160
431.00,30.228
432.00,30.253
433.00,30.327
434.00,30.341
435.00,30.417
436.00,30.513
437.00,30.528
438.00,30.615
439.00,30.660
440.00,30.706
441.00,30.790
442.00,30.860
443.00,30.921
444.00,30.983
445.00,31.110
446.00,31.209
447.00,31.249
448.00,31.363
449.00,31.422
450.00,31.531
451.00,31.594
452.00,31.655
453.00,31.801
454.00,31.896
455.00,31.945
456.00,32.103
457.00,32.200
458.00,32.261
459.00,32.412
460.00,32.563
461.00,32.687
462.00,32.789
463.00,32.905
464.00,33.028
465.00,33.120
466.00,33.230
467.00,33.357
468.00,33.416
469.00,33.525
470.00,33.566
471.00,33.693
472.00,33.790
473.00,33.838
474.00,33.960
475.00,34.051
476.00,34.140
477.00,34.220
478.00,34.342
479.00,34.539
480.00,34.646
481.00,34.694
482.00,34.855
483.00,34.982
484.00,35.122
485.00,35.279
486.00,35.438
487.00,35.479
488.00,35.620
489.00,35.755
490.00,35.985
491.00,36.067
492.00,36.341
493.00,36.433
494.00,36.268
495.00,36.424
496.00,36.652
497.00,36.638
498.00,36.750
499.00,36.947
500.00,37.071
501.00,37.199
502.00,37.272
503.00,37.406
504.00,37.472
505.00,37.676
506.00,37.709
507.00,37.701
508.00,37.833
509.00,37.989
510.00,38.043
511.00,38.140
512.00,38.282
513.00,38.443
514.00,38.483
515.00,38.632
516.00,38.725
517.00,38.825
518.00,38.893
519.00,38.956
520.00,38.925
521.00,39.034
522.00,39.155
523.00,39.115
524.00,39.234
525.00,39.301
526.00,39.333
527.00,39.473
528.00,39.526
529.00,39.668
530.00,39.812
531.00,39.905
532.00,39.989
533.00,40.067
534.00,40.127
535.00,40.169
536.00,40.225
537.00,40.342
538.00,40.375
539.00,40.384
540.00,40.471
541.00,40.486
542.00,40.507
543.00,40.524
544.00,40.621
545.00,40.686
546.00,40.691
547.00,40.843
548.00,40.868
549.00,40.925
550.00,40.952
551.00,41.088
552.00,41.122
553.00,41.094
554.00,41.216
555.00,41.217
556.00,41.234
557.00,41.345
558.00,41.367
559.00,41.328
560.00,41.369
561.00,41.488
562.00,41.606
563.00,41.642
564.00,41.721
565.00,41.692
566.00,41.744
567.00,41.749
568.00,41.767
569.00,41.834
570.00,41.817
571.00,41.892
572.00,41.857
573.00,41.853
574.00,41.881
575.00,41.913
576.00,41.871
577.00,41.901
578.00,42.011
579.00,42.080
580.00,42.070
581.00,42.256
582.00,42.312
583.00,42.338
584.00,42.414
585.00,42.420
586.00,42.503
587.00,42.557
588.00,42.537
589.00,42.500
590.00,42.592
591.00,42.672
592.00,42.524
593.00,42.569
594.00,42.731
595.00,42.800
596.00,42.828
597.00,42.865
598.00,42.952
599.00,42.879
600.00,42.897
601.00,42.909
602.00,42.925
603.00,43.002
604.00,43.081
605.00,43.053
606.00,42.919
607.00,43.076
608.00,43.362
609.00,43.292
610.00,43.136
611.00,43.161
612.00,43.258
613.00,43.273
614.00,43.161
615.00,43.187
616.00,43.511
617.00,43.517
618.00,43.440
619.00,43.538
620.00,43.597
621.00,43.642
622.00,43.639
623.00,43.671
624.00,43.792
625.00,43.825
626.00,43.873
627.00,43.939
628.00,43.911
629.00,43.908
630.00,43.936
631.00,44.010
632.00,44.006
633.00,44.114
634.00,44.178
635.00,44.269
636.00,44.346
637.00,44.398
638.00,44.374
639.00,44.425
640.00,44.477
641.00,44.503
642.00,44.559
643.00,44.615
644.00,44.731
645.00,44.742
646.00,44.800
647.00,44.910
648.00,44.873
649.00,44.887
650.00,44.835
651.00,45.044
652.00,45.083
653.00,45.082
654.00,45.138
655.00,45.289
656.00,45.505
657.00,45.265
658.00,45.387
659.00,45.439
660.00,45.781
661.00,45.147
662.00,45.572
663.00,45.660
664.00,45.930
665.00,46.036
666.00,45.915
667.00,45.999
668.00,46.069
669.00,46.390
670.00,46.410
671.00,46.319
672.00,46.353
673.00,46.281
674.00,46.352
675.00,46.547
676.00,46.724
677.00,46.816
678.00,46.570
679.00,46.669
680.00,46.801
681.00,46.869
682.00,46.858
683.00,46.951
684.00,47.146
685.00,47.182
686.00,46.828
687.00,46.808
688.00,47.111
689.00,47.331
690.00,47.380
691.00,47.555
692.00,47.439
693.00,47.333
694.00,47.474
695.00,47.527
696.00,47.676
697.00,47.738
698.00,47.710
699.00,47.946
700.00,48.022
701.00,47.928
702.00,47.964
703.00,48.164
704.00,48.276
705.00,48.066
706.00,48.232
707.00,48.308
708.00,48.006
709.00,48.385
710.00,48.792
711.00,48.255
712.00,48.286
713.00,48.481
714.00,48.513
715.00,48.509
716.00,48.530
717.00,48.619
718.00,48.708
719.00,48.692
720.00,48.840
721.00,53.346
722.00,53.335
723.00,53.415
724.00,53.339
725.00,53.282
726.00,53.336
727.00,53.342
728.00,53.303
729.00,53.286
730.00,53.304
731.00,53.328
732.00,53.253
733.00,53.374
734.00,53.410
735.00,53.412
736.00,53.361
737.00,53.388
738.00,53.446
739.00,53.508
740.00,53.369
741.00,53.439
742.00,53.369
743.00,53.381
744.00,53.400
745.00,53.405
746.00,53.421
747.00,53.436
748.00,53.324
749.00,53.361
750.00,53.341
751.00,53.236
752.00,53.247
753.00,53.286
754.00,53.281
755.00,53.183
756.00,53.315
757.00,53.291
758.00,53.203
759.00,53.251
760.00,53.256
761.00,53.265
762.00,53.236
763.00,53.302
764.00,53.136
765.00,53.238
766.00,53.246
767.00,53.255
768.00,53.228
769.00,53.162
770.00,53.210
771.00,53.233
772.00,53.185
773.00,53.128
774.00,53.189
775.00,53.153
776.00,53.126
777.00,53.203
778.00,53.123
779.00,53.215
780.00,53.109
781.00,53.117
782.00,53.200
783.00,53.122
784.00,53.123
785.00,53.024
786.00,53.125
787.00,53.040
788.00,52.974
789.00,52.951
790.00,52.953
791.00,53.010
792.00,52.960
793.00,52.952
794.00,52.904
795.00,52.923
796.00,52.905
797.00,52.814
798.00,52.864
799.00,52.838
800.00,52.841
801.00,52.744
802.00,52.791
803.00,52.733
804.00,52.718
805.00,52.755
806.00,52.640
807.00,52.683
808.00,52.683
809.00,52.623
810.00,52.573
811.00,52.567
812.00,52.565
813.00,52.521
814.00,52.592
815.00,52.578
816.00,52.478
817.00,52.511
818.00,52.431
819.00,52.550
820.00,52.393
821.00,52.465
822.00,52.409
823.00,52.363
824.00,52.426
825.00,52.302
826.00,52.357
827.00,52.383
828.00,52.350
829.00,52.301
830.00,52.289
831.00,54.960
832.00,54.945
833.00,54.878
834.00,54.947
835.00,54.862
836.00,54.844
837.00,54.855
838.00,54.817
839.00,54.811
840.00,54.734
841.00,54.771
842.00,54.732
843.00,54.739
844.00,54.726
845.00,54.670
846.00,54.694
847.00,54.632
848.00,54.657
849.00,54.551
850.00,54.544
851.00,54.488
852.00,54.528
853.00,54.404
854.00,54.398
855.00,54.371
856.00,54.395
857.00,54.193
858.00,54.334
859.00,54.313
860.00,54.314
861.00,54.304
862.00,54.229
863.00,54.251
864.00,54.178
865.00,54.238
866.00,54.205
867.00,54.161
868.00,54.175
869.00,54.151
870.00,54.175
871.00,54.144
872.00,54.130
873.00,54.124
874.00,54.184
875.00,53.955
876.00,54.137
877.00,54.101
878.00,54.125
879.00,54.065
880.00,54.096
881.00,54.005
882.00,54.107
883.00,54.035
884.00,53.976
885.00,53.967
886.00,53.983
887.00,53.911
888.00,53.916
889.00,53.880
890.00,53.878
891.00,53.845
892.00,53.845
893.00,53.833
894.00,53.840
895.00,53.807
896.00,53.798
897.00,53.764
898.00,53.728
899.00,53.723
900.00,53.695
901.00,53.652
902.00,53.723
903.00,53.696
904.00,53.657
905.00,53.664
906.00,53.639
907.00,53.606
908.00,53.542
909.00,53.530
910.00,53.520
911.00,53.520
912.00,53.511
913.00,53.518
914.00,53.486
915.00,53.448
916.00,53.397
917.00,53.417
918.00,53.417
919.00,53.386
920.00,53.346
921.00,53.340
922.00,53.368
923.00,53.279
924.00,53.260
925.00,53.277
926.00,53.365
927.00,53.178
928.00,53.270
929.00,53.214
930.00,53.189
931.00,53.170
932.00,53.114
933.00,53.154
934.00,53.140
935.00,53.097
936.00,53.086
937.00,53.063
938.00,53.064
939.00,53.053
940.00,53.021
941.00,53.027
942.00,53.003
943.00,52.968
944.00,52.939
945.00,52.927
946.00,52.932
947.00,52.885
948.00,52.878
949.00,52.858
950.00,52.848
951.00,52.834
952.00,52.792
953.00,52.762
954.00,52.745
955.00,52.712
956.00,52.702
957.00,52.654
958.00,52.682
959.00,52.615
960.00,52.605
961.00,52.625
962.00,52.614
963.00,52.568
964.00,52.572
965.00,52.574
966.00,52.546
967.00,52.550
968.00,52.518
969.00,52.570
970.00,52.546
971.00,52.535
972.00,52.498
973.00,52.555
974.00,52.573
975.00,52.535
976.00,52.548
977.00,52.532
978.00,52.578
979.00,52.530
980.00,52.543
981.00,52.558
982.00,52.510
983.00,52.556
984.00,52.534
985.00,52.532
986.00,52.508
987.00,52.519
988.00,52.481
989.00,52.481
990.00,52.459
991.00,52.466
992.00,52.472
993.00,52.414
994.00,52.437
995.00,52.422
996.00,52.404
997.00,52.402
998.00,52.366
999.00,52.391
1000.00,52.344
1001.00,52.327
1002.00,52.334
1003.00,52.327
1004.00,52.316
1005.00,52.275
1006.00,52.301
1007.00,52.275
1008.00,52.274
1009.00,52.245
1010.00,52.237
1011.00,52.236
1012.00,52.190
1013.00,52.218
1014.00,52.177
1015.00,52.185
1016.00,52.144
1017.00,52.143
1018.00,52.141
1019.00,52.116
1020.00,52.090
1021.00,52.088
1022.00,52.094
1023.00,52.024
1024.00,52.037
1025.00,52.019
1026.00,52.005
1027.00,51.997
1028.00,51.984
1029.00,51.976
1030.00,51.940
1031.00,51.956
1032.00,51.908
1033.00,51.921
1034.00,51.872
1035.00,51.845
1036.00,51.825
1037.00,51.803
1038.00,51.795
1039.00,51.753
1040.00,51.760
1041.00,51.729
1042.00,51.717
1043.00,51.702
1044.00,51.733
1045.00,51.717
1046.00,51.706
1047.00,51.745
1048.00,51.725
1049.00,51.749
1050.00,51.770
1051.00,51.789
1052.00,51.794
1053.00,51.791
1054.00,51.792
1055.00,51.823
1056.00,51.821
1057.00,51.829
1058.00,51.813
1059.00,51.801
1060.00,51.834
1061.00,51.824
1062.00,51.807
1063.00,51.812
1064.00,51.813
1065.00,51.790
1066.00,51.793
1067.00,51.771
1068.00,51.809
1069.00,51.769
1070.00,51.747
1071.00,51.734
1072.00,51.758
1073.00,51.736
1074.00,51.740
1075.00,51.721
1076.00,51.731
1077.00,51.706
1078.00,51.684
1079.00,51.705
1080.00,51.705
1081.00,51.679
1082.00,51.696
1083.00,51.687
1084.00,51.669
1085.00,51.677
1086.00,51.672
1087.00,51.675
1088.00,51.661
1089.00,51.658
1090.00,51.660
1091.00,51.670
1092.00,51.644
1093.00,51.628
1094.00,51.607
1095.00,51.601
1096.00,51.580
1097.00,51.568
1098.00,51.558
1099.00,51.556
1100.00,51.524
1101.00,51.531
1102.00,51.517
1103.00,51.520
1104.00,51.503
1105.00,51.499
1106.00,51.475
1107.00,51.479
1108.00,51.465
1109.00,51.470
1110.00,51.458
1111.00,51.442
1112.00,51.431
1113.00,51.457
1114.00,51.427
1115.00,51.436
1116.00,51.444
1117.00,51.420
1118.00,51.413
1119.00,51.404
1120.00,51.404
1121.00,51.409
1122.00,51.391
1123.00,51.387
1124.00,51.374
1125.00,51.377
1126.00,51.378
1127.00,51.385
1128.00,51.343
1129.00,51.335
1130.00,51.314
1131.00,51.320
1132.00,51.320
1133.00,51.311
1134.00,51.318
1135.00,51.308
1136.00,51.295
1137.00,51.309
1138.00,51.316
1139.00,51.315
1140.00,51.310
1141.00,51.308
1142.00,51.286
1143.00,51.307
1144.00,51.274
1145.00,51.288
1146.00,51.286
1147.00,51.274
1148.00,51.264
1149.00,51.287
1150.00,51.284
1151.00,51.305
1152.00,51.273
1153.00,51.285
1154.00,51.285
1155.00,51.251
1156.00,51.260
1157.00,51.295
1158.00,51.254
1159.00,51.255
1160.00,51.252
1161.00,51.248
1162.00,51.251
1163.00,51.233
1164.00,51.245
1165.00,51.259
1166.00,51.249
1167.00,51.238
1168.00,51.274
1169.00,51.235
1170.00,51.240
1171.00,51.225
1172.00,51.218
1173.00,51.225
1174.00,51.231
1175.00,51.240
1176.00,51.243
1177.00,51.222
1178.00,51.225
1179.00,51.253
1180.00,51.226
1181.00,51.252
1182.00,51.229
1183.00,51.224
1184.00,51.236
1185.00,51.241
1186.00,51.247
1187.00,51.262
1188.00,51.248
1189.00,51.256
1190.00,51.249
1191.00,51.233
1192.00,51.264
1193.00,51.263
1194.00,51.240
1195.00,51.230
1196.00,51.237
1197.00,51.241
1198.00,51.238
1199.00,51.214
1200.00,51.245
1201.00,51.242
1202.00,51.208
1203.00,51.246
1204.00,51.223
1205.00,51.235
1206.00,51.224
1207.00,51.231
1208.00,51.224
1209.00,51.250
1210.00,51.222
1211.00,51.233
1212.00,51.255
1213.00,51.212
1214.00,51.262
1215.00,51.215
1216.00,51.238
1217.00,51.234
1218.00,51.226
1219.00,51.275
1220.00,51.224
1221.00,51.230
1222.00,51.230
1223.00,51.254
1224.00,51.240
1225.00,51.239
1226.00,51.260
1227.00,51.236
1228.00,51.269
1229.00,51.246
1230.00,51.281
1231.00,51.270
1232.00,51.275
1233.00,51.288
1234.00,51.274
1235.00,51.279
1236.00,51.286
1237.00,51.285
1238.00,51.272
1239.00,51.286
1240.00,51.260
1241.00,51.273
1242.00,51.283
1243.00,51.284
1244.00,51.269
1245.00,51.301
1246.00,51.311
1247.00,51.303
1248.00,51.311
1249.00,51.327
1250.00,51.332
1251.00,51.306
1252.00,51.328
1253.00,51.321
1254.00,51.335
1255.00,51.325
1256.00,51.336
1257.00,51.321
1258.00,51.356
1259.00,51.344
1260.00,51.353
1261.00,51.379
1262.00,51.354
1263.00,51.354
1264.00,51.371
1265.00,51.355
1266.00,51.361
1267.00,51.388
1268.00,51.377
1269.00,51.390
1270.00,51.409
1271.00,51.391
1272.00,51.411
1273.00,51.415
1274.00,51.421
1275.00,51.433
1276.00,51.413
1277.00,51.448
1278.00,51.469
1279.00,51.455
1280.00,51.450
1281.00,51.470
1282.00,51.467
1283.00,51.453
1284.00,51.445
1285.00,51.458
1286.00,51.474
1287.00,51.447
1288.00,51.462
1289.00,51.474
1290.00,51.481
1291.00,51.484
1292.00,51.492
1293.00,51.481
1294.00,51.512
1295.00,51.513
1296.00,51.522
1297.00,51.522
1298.00,51.540
1299.00,51.526
1300.00,51.552
1301.00,51.525
1302.00,51.563
1303.00,51.559
1304.00,51.537
1305.00,51.572
1306.00,51.554
1307.00,51.570
1308.00,51.583
1309.00,51.572
1310.00,51.592
1311.00,51.586
1312.00,51.569
1313.00,51.587
1314.00,51.613
1315.00,51.626
1316.00,51.640
1317.00,51.656
1318.00,51.655
1319.00,51.660
1320.00,51.641
1321.00,51.830
1322.00,51.822
1323.00,51.799
1324.00,51.792
1325.00,51.779
1326.00,51.805
1327.00,51.791
1328.00,51.783
1329.00,51.787
1330.00,51.809
1331.00,51.776
1332.00,51.799
1333.00,51.769
1334.00,51.808
1335.00,51.827
1336.00,51.856
1337.00,51.885
1338.00,51.957
1339.00,52.008
1340.00,52.059
1341.00,52.115
1342.00,52.171
1343.00,52.219
1344.00,52.256
1345.00,52.325
1346.00,52.370
1347.00,52.396
1348.00,52.439
1349.00,52.426
1350.00,52.462
1351.00,52.452
1352.00,52.468
1353.00,52.464
1354.00,52.474
1355.00,52.470
1356.00,52.443
1357.00,52.479
1358.00,52.513
1359.00,52.504
1360.00,52.543
1361.00,52.488
1362.00,52.467
1363.00,52.498
1364.00,52.500
1365.00,52.486
1366.00,52.577
1367.00,52.503
1368.00,52.497
1369.00,52.514
1370.00,52.478
1371.00,52.447
1372.00,52.459
1373.00,52.494
1374.00,52.520
1375.00,52.489
1376.00,52.475
1377.00,52.429
1378.00,52.543
1379.00,52.492
1380.00,52.493
1381.00,52.560
1382.00,52.443
1383.00,52.526
1384.00,52.438
1385.00,52.450
1386.00,52.497
1387.00,52.426
1388.00,52.425
1389.00,52.491
1390.00,52.432
1391.00,52.484
1392.00,52.454
1393.00,52.436
1394.00,52.508
1395.00,52.453
1396.00,52.406
1397.00,52.484
1398.00,52.472
1399.00,52.471
1400.00,52.418
1401.00,52.414
1402.00,52.501
1403.00,52.469
1404.00,52.440
1405.00,52.483
1406.00,52.493
1407.00,52.466
1408.00,52.495
1409.00,52.484
1410.00,52.502
1411.00,52.480
1412.00,52.599
1413.00,52.491
1414.00,52.488
1415.00,52.511
1416.00,52.557
1417.00,52.585
1418.00,52.528
1419.00,52.547
1420.00,52.562
1421.00,52.601
1422.00,52.592
1423.00,52.627
1424.00,52.619
1425.00,52.645
1426.00,52.636
1427.00,52.673
1428.00,52.663
1429.00,52.692
1430.00,52.699
1431.00,52.717
1432.00,52.722
1433.00,52.733
1434.00,52.728
1435.00,52.786
1436.00,52.776
1437.00,52.782
1438.00,52.799
1439.00,52.852
1440.00,52.861
1441.00,52.837
1442.00,52.846
1443.00,52.868
1444.00,52.949
1445.00,52.887
1446.00,52.898
1447.00,52.935
1448.00,52.973
1449.00,52.977
1450.00,52.977
1451.00,52.982
1452.00,53.013
1453.00,53.007
1454.00,53.028
1455.00,53.037
1456.00,53.047
1457.00,53.024
1458.00,53.046
1459.00,53.049
1460.00,53.082
1461.00,53.088
1462.00,53.128
1463.00,53.118
1464.00,53.133
1465.00,53.160
1466.00,53.149
1467.00,53.172
1468.00,53.234
1469.00,53.192
1470.00,53.215
1471.00,53.239
1472.00,53.273
1473.00,53.280
1474.00,53.310
1475.00,53.330
1476.00,53.352
1477.00,53.320
1478.00,53.354
1479.00,53.364
1480.00,53.341
1481.00,53.338
1482.00,53.375
1483.00,53.379
1484.00,53.409
1485.00,53.411
1486.00,53.434
1487.00,53.435
1488.00,53.452
1489.00,53.432
1490.00,53.441
1491.00,53.439
1492.00,53.472
1493.00,53.456
1494.00,53.498
1495.00,53.468
1496.00,53.525
1497.00,53.485
1498.00,53.518
1499.00,53.545
1500.00,53.559
1501.00, 
1502.00, 
1503.00, 
1504.00, 
1505.00, 
1506.00, 
1507.00, 
1508.00, 
1509.00, 
1510.00, 
1511.00, 
1512.00, 
1513.00, 
1514.00, 
1515.00, 
1516.00, 
1517.00, 
1518.00, 
1519.00, 
1520.00, 
1521.00, 
1522.00, 
1523.00, 
1524.00, 
1525.00, 
1526.00, 
1527.00, 
1528.00, 
1529.00, 
1530.00, 
1531.00, 
1532.00, 
1533.00, 
1534.00, 
1535.00, 
1536.00, 
1537.00, 
1538.00, 
1539.00, 
1540.00, 
1541.00, 
1542.00, 
1543.00, 
1544.00, 
1545.00, 
1546.00, 
1547.00, 
1548.00, 
1549.00, 
1550.00, 
1551.00, 
1552.00, 
1553.00, 
1554.00, 
1555.00, 
1556.00, 
1557.00, 
1558.00, 
1559.00, 
1560.00, 
1561.00, 
1562.00, 
1563.00, 
1564.00, 
1565.00, 
1566.00, 
1567.00, 
1568.00, 
1569.00, 
1570.00, 
1571.00, 
1572.00, 
1573.00, 
1574.00, 
1575.00, 
1576.00, 
1577.00, 
1578.00, 
1579.00, 
1580.00, 
1581.00, 
1582.00, 
1583.00, 
1584.00, 
1585.00, 
1586.00, 
1587.00, 
1588.00, 
1589.00, 
1590.00, 
1591.00, 
1592.00, 
1593.00, 
1594.00, 
1595.00, 
1596.00, 
1597.00, 
1598.00, 
1599.00, 
1600.00, 
1601.00, 
1602.00, 
1603.00, 
1604.00, 
1605.00, 
1606.00, 
1607.00, 
1608.00, 
1609.00, 
1610.00, 
1611.00, 
1612.00, 
1613.00, 
1614.00, 
1615.00, 
1616.00, 
1617.00, 
1618.00, 
1619.00, 
1620.00, 
1621.00, 
1622.00, 
1623.00, 
1624.00, 
1625.00, 
1626.00, 
1627.00, 
1628.00, 
1629.00, 
1630.00, 
1631.00, 
1632.00, 
1633.00, 
1634.00, 
1635.00, 
1636.00, 
1637.00, 
1638.00, 
1639.00, 
1640.00, 
1641.00, 
1642.00, 
1643.00, 
1644.00, 
1645.00, 
1646.00, 
1647.00, 
1648.00, 
1649.00, 
1650.00, 
1651.00, 
1652.00, 
1653.00, 
1654.00, 
1655.00, 
1656.00, 
1657.00, 
1658.00, 
1659.00, 
1660.00, 
1661.00, 
1662.00, 
1663.00, 
1664.00, 
1665.00, 
1666.00, 
1667.00, 
1668.00, 
1669.00, 
1670.00, 
1671.00, 
1672.00, 
1673.00, 
1674.00, 
1675.00, 
1676.00, 
1677.00, 
1678.00, 
1679.00, 
1680.00, 
1681.00, 
1682.00, 
1683.00, 
1684.00, 
1685.00, 
1686.00, 
1687.00, 
1688.00, 
1689.00, 
1690.00, 
1691.00, 
1692.00, 
1693.00, 
1694.00, 
1695.00, 
1696.00, 
1697.00, 
1698.00, 
1699.00, 
1700.00, 
1701.00, 
1702.00, 
1703.00, 
1704.00, 
1705.00, 
1706.00, 
1707.00, 
1708.00, 
1709.00, 
1710.00, 
1711.00, 
1712.00, 
1713.00, 
1714.00, 
1715.00, 
1716.00, 
1717.00, 
1718.00, 
1719.00, 
1720.00, 
1721.00, 
1722.00, 
1723.00, 
1724.00, 
1725.00, 
1726.00, 
1727.00, 
1728.00, 
1729.00, 
1730.00, 
1731.00, 
1732.00, 
1733.00, 
1734.00, 
1735.00, 
1736.00, 
1737.00, 
1738.00, 
1739.00, 
1740.00, 
1741.00, 
1742.00, 
1743.00, 
1744.00, 
1745.00, 
1746.00, 
1747.00, 
1748.00, 
1749.00, 
1750.00, 
1751.00, 
1752.00, 
1753.00, 
1754.00, 
1755.00, 
1756.00, 
1757.00, 
1758.00, 
1759.00, 
1760.00, 
1761.00, 
1762.00, 
1763.00, 
1764.00, 
1765.00, 
1766.00, 
1767.00, 
1768.00, 
1769.00, 
1770.00, 
1771.00, 
1772.00, 
1773.00, 
1774.00, 
1775.00, 
1776.00, 
1777.00, 
1778.00, 
1779.00, 
1780.00, 
1781.00, 
1782.00, 
1783.00, 
1784.00, 
1785.00, 
1786.00, 
1787.00, 
1788.00, 
1789.00, 
1790.00, 
1791.00, 
1792.00, 
1793.00, 
1794.00, 
1795.00, 
1796.00, 
1797.00, 
1798.00, 
1799.00, 
1800.00, 
1801.00, 
1802.00, 
1803.00, 
1804.00, 
1805.00, 
1806.00, 
1807.00, 
1808.00, 
1809.00, 
1810.00, 
1811.00, 
1812.00, 
1813.00, 
1814.00, 
1815.00, 
1816.00, 
1817.00, 
1818.00, 
1819.00, 
1820.00, 
1821.00, 
1822.00, 
1823.00, 
1824.00, 
1825.00, 
1826.00, 
1827.00, 
1828.00, 
1829.00, 
1830.00, 
1831.00, 
1832.00, 
1833.00, 
1834.00, 
1835.00, 
1836.00, 
1837.00, 
1838.00, 
1839.00, 
1840.00, 
1841.00, 
1842.00, 
1843.00, 
1844.00, 
1845.00, 
1846.00, 
1847.00, 
1848.00, 
1849.00, 
1850.00, 
1851.00, 
1852.00, 
1853.00, 
1854.00, 
1855.00, 
1856.00, 
1857.00, 
1858.00, 
1859.00, 
1860.00, 
1861.00, 
1862.00, 
1863.00, 
1864.00, 
1865.00, 
1866.00, 
1867.00, 
1868.00, 
1869.00, 
1870.00, 
1871.00, 
1872.00, 
1873.00, 
1874.00, 
1875.00, 
1876.00, 
1877.00, 
1878.00, 
1879.00, 
1880.00, 
1881.00, 
1882.00, 
1883.00, 
1884.00, 
1885.00, 
1886.00, 
1887.00, 
1888.00, 
1889.00, 
1890.00, 
1891.00, 
1892.00, 
1893.00, 
1894.00, 
1895.00, 
1896.00, 
1897.00, 
1898.00, 
1899.00, 
1900.00, 
1901.00, 
1902.00, 
1903.00, 
1904.00, 
1905.00, 
1906.00, 
1907.00, 
1908.00, 
1909.00, 
1910.00, 
1911.00, 
1912.00, 
1913.00, 
1914.00, 
1915.00, 
1916.00, 
1917.00, 
1918.00, 
1919.00, 
1920.00, 
1921.00, 
1922.00, 
1923.00, 
1924.00, 
1925.00, 
1926.00, 
1927.00, 
1928.00, 
1929.00, 
1930.00, 
1931.00, 
1932.00, 
1933.00, 
1934.00, 
1935.00, 
1936.00, 
1937.00, 
1938.00, 
1939.00, 
1940.00, 
1941.00, 
1942.00, 
1943.00, 
1944.00, 
1945.00, 
1946.00, 
1947.00, 
1948.00, 
1949.00, 
1950.00, 
1951.00, 
1952.00, 
1953.00, 
1954.00, 
1955.00, 
1956.00, 
1957.00, 
1958.00, 
1959.00, 
1960.00, 
1961.00, 
1962.00, 
1963.00, 
1964.00, 
1965.00, 
1966.00, 
1967.00, 
1968.00, 
1969.00, 
1970.00, 
1971.00, 
1972.00, 
1973.00, 
1974.00, 
1975.00, 
1976.00, 
1977.00, 
1978.00, 
1979.00, 
1980.00, 
1981.00, 
1982.00, 
1983.00, 
1984.00, 
1985.00, 
1986.00, 
1987.00, 
1988.00, 
1989.00, 
1990.00, 
1991.00, 
1992.00, 
1993.00, 
1994.00, 
1995.00, 
1996.00, 
1997.00, 
1998.00, 
1999.00, 
2000.00, 
2001.00, 
2002.00, 
2003.00, 
2004.00, 
2005.00, 
2006.00, 
2007.00, 
2008.00, 
2009.00, 
2010.00, 
2011.00, 
2012.00, 
2013.00, 
2014.00, 
2015.00, 
2016.00, 
2017.00, 
2018.00, 
2019.00, 
2020.00, 
2021.00, 
2022.00, 
2023.00, 
2024.00, 
2025.00, 
2026.00, 
2027.00, 
2028.00, 
2029.00, 
2030.00, 
2031.00, 
2032.00, 
2033.00, 
2034.00, 
2035.00, 
2036.00, 
2037.00, 
2038.00, 
2039.00, 
2040.00, 
2041.00, 
2042.00, 
2043.00, 
2044.00, 
2045.00, 
2046.00, 
2047.00, 
2048.00, 
2049.00, 
2050.00, 
2051.00, 
2052.00, 
2053.00, 
2054.00, 
2055.00, 
2056.00, 
2057.00, 
2058.00, 
2059.00, 
2060.00, 
2061.00, 
2062.00, 
2063.00, 
2064.00, 
2065.00, 
2066.00, 
2067.00, 
2068.00, 
2069.00, 
2070.00, 
2071.00, 
2072.00, 
2073.00, 
2074.00, 
2075.00, 
2076.00, 
2077.00, 
2078.00, 
2079.00, 
2080.00, 
2081.00, 
2082.00, 
2083.00, 
2084.00, 
2085.00, 
2086.00, 
2087.00, 
2088.00, 
2089.00, 
2090.00, 
2091.00, 
2092.00, 
2093.00, 
2094.00, 
2095.00, 
2096.00, 
2097.00, 
2098.00, 
2099.00, 
2100.00, 
2101.00, 
2102.00, 
2103.00, 
2104.00, 
2105.00, 
2106.00, 
2107.00, 
2108.00, 
2109.00, 
2110.00, 
2111.00, 
2112.00, 
2113.00, 
2114.00, 
2115.00, 
2116.00, 
2117.00, 
2118.00, 
2119.00, 
2120.00, 
2121.00, 
2122.00, 
2123.00, 
2124.00, 
2125.00, 
2126.00, 
2127.00, 
2128.00, 
2129.00, 
2130.00, 
2131.00, 
2132.00, 
2133.00, 
2134.00, 
2135.00, 
2136.00, 
2137.00, 
2138.00, 
2139.00, 
2140.00, 
2141.00, 
2142.00, 
2143.00, 
2144.00, 
2145.00, 
2146.00, 
2147.00, 
2148.00, 
2149.00, 
2150.00, 
2151.00, 
2152.00, 
2153.00, 
2154.00, 
2155.00, 
2156.00, 
2157.00, 
2158.00, 
2159.00, 
2160.00, 
2161.00, 
2162.00, 
2163.00, 
2164.00, 
2165.00, 
2166.00, 
2167.00, 
2168.00, 
2169.00, 
2170.00, 
2171.00, 
2172.00, 
2173.00, 
2174.00, 
2175.00, 
2176.00, 
2177.00, 
2178.00, 
2179.00, 
2180.00, 
2181.00, 
2182.00, 
2183.00, 
2184.00, 
2185.00, 
2186.00, 
2187.00, 
2188.00, 
2189.00, 
2190.00, 
2191.00, 
2192.00, 
2193.00, 
2194.00, 
2195.00, 
2196.00, 
2197.00, 
2198.00, 
2199.00, 
2200.00, 
2201.00, 
2202.00, 
2203.00, 
2204.00, 
2205.00, 
2206.00, 
2207.00, 
2208.00, 
2209.00, 
2210.00, 
2211.00, 
2212.00, 
2213.00, 
2214.00, 
2215.00, 
2216.00, 
2217.00, 
2218.00, 
2219.00, 
2220.00, 
2221.00, 
2222.00, 
2223.00, 
2224.00, 
2225.00, 
2226.00, 
2227.00, 
2228.00, 
2229.00, 
2230.00, 
2231.00, 
2232.00, 
2233.00, 
2234.00, 
2235.00, 
2236.00, 
2237.00, 
2238.00, 
2239.00, 
2240.00, 
2241.00, 
2242.00, 
2243.00, 
2244.00, 
2245.00, 
2246.00, 
2247.00, 
2248.00, 
2249.00, 
2250.00, 
2251.00, 
2252.00, 
2253.00, 
2254.00, 
2255.00, 
2256.00, 
2257.00, 
2258.00, 
2259.00, 
2260.00, 
2261.00, 
2262.00, 
2263.00, 
2264.00, 
2265.00, 
2266.00, 
2267.00, 
2268.00, 
2269.00, 
2270.00, 
2271.00, 
2272.00, 
2273.00, 
2274.00, 
2275.00, 
2276.00, 
2277.00, 
2278.00, 
2279.00, 
2280.00, 
2281.00, 
2282.00, 
2283.00, 
2284.00, 
2285.00, 
2286.00, 
2287.00, 
2288.00, 
2289.00, 
2290.00, 
2291.00, 
2292.00, 
2293.00, 
2294.00, 
2295.00, 
2296.00, 
2297.00, 
2298.00, 
2299.00, 
2300.00, 
2301.00, 
2302.00, 
2303.00, 
2304.00, 
2305.00, 
2306.00, 
2307.00, 
2308.00, 
2309.00, 
2310.00, 
2311.00, 
2312.00, 
2313.00, 
2314.00, 
2315.00, 
2316.00, 
2317.00, 
2318.00, 
2319.00, 
2320.00, 
2321.00, 
2322.00, 
2323.00, 
2324.00, 
2325.00, 
2326.00, 
2327.00, 
2328.00, 
2329.00, 
2330.00, 
2331.00, 
2332.00, 
2333.00, 
2334.00, 
2335.00, 
2336.00, 
2337.00, 
2338.00, 
2339.00, 
2340.00, 
2341.00, 
2342.00, 
2343.00, 
2344.00, 
2345.00, 
2346.00, 
2347.00, 
2348.00, 
2349.00, 
2350.00, 
2351.00, 
2352.00, 
2353.00, 
2354.00, 
2355.00, 
2356.00, 
2357.00, 
2358.00, 
2359.00, 
2360.00, 
2361.00, 
2362.00, 
2363.00, 
2364.00, 
2365.00, 
2366.00, 
2367.00, 
2368.00, 
2369.00, 
2370.00, 
2371.00, 
2372.00, 
2373.00, 
2374.00, 
2375.00, 
2376.00, 
2377.00, 
2378.00, 
2379.00, 
2380.00, 
2381.00, 
2382.00, 
2383.00, 
2384.00, 
2385.00, 
2386.00, 
2387.00, 
2388.00, 
2389.00, 
2390.00, 
2391.00, 
2392.00, 
2393.00, 
2394.00, 
2395.00, 
2396.00, 
2397.00, 
2398.00, 
2399.00, 
2400.00, 
2401.00, 
2402.00, 
2403.00, 
2404.00, 
2405.00, 
2406.00, 
2407.00, 
2408.00, 
2409.00, 
2410.00, 
2411.00, 
2412.00, 
2413.00, 
2414.00, 
2415.00, 
2416.00, 
2417.00, 
2418.00, 
2419.00, 
2420.00, 
2421.00, 
2422.00, 
2423.00, 
2424.00, 
2425.00, 
2426.00, 
2427.00, 
2428.00, 
2429.00, 
2430.00, 
2431.00, 
2432.00, 
2433.00, 
2434.00, 
2435.00, 
2436.00, 
2437.00, 
2438.00, 
2439.00, 
2440.00, 
2441.00, 
2442.00, 
2443.00, 
2444.00, 
2445.00, 
2446.00, 
2447.00, 
2448.00, 
2449.00, 
2450.00, 
2451.00, 
2452.00, 
2453.00, 
2454.00, 
2455.00, 
2456.00, 
2457.00, 
2458.00, 
2459.00, 
2460.00, 
2461.00, 
2462.00, 
2463.00, 
2464.00, 
2465.00, 
2466.00, 
2467.00, 
2468.00, 
2469.00, 
2470.00, 
2471.00, 
2472.00, 
2473.00, 
2474.00, 
2475.00, 
2476.00, 
2477.00, 
2478.00, 
2479.00, 
2480.00, 
2481.00, 
2482.00, 
2483.00, 
2484.00, 
2485.00, 
2486.00, 
2487.00, 
2488.00, 
2489.00, 
2490.00, 
2491.00, 
2492.00, 
2493.00, 
2494.00, 
2495.00, 
2496.00, 
2497.00, 
2498.00, 
2499.00, 
2500.00, 
2501.00, 
2502.00, 
2503.00, 
2504.00, 
2505.00, 
2506.00, 
2507.00, 
2508.00, 
2509.00, 
2510.00, 
2511.00, 
2512.00, 
2513.00, 
2514.00, 
2515.00, 
2516.00, 
2517.00, 
2518.00, 
2519.00, 
2520.00, 
2521.00, 
2522.00, 
2523.00, 
2524.00, 
2525.00, 
2526.00, 
2527.00, 
2528.00, 
2529.00, 
2530.00, 
2531.00, 
2532.00, 
2533.00, 
2534.00, 
2535.00, 
2536.00, 
2537.00, 
2538.00, 
2539.00, 
2540.00, 
2541.00, 
2542.00, 
2543.00, 
2544.00, 
2545.00, 
2546.00, 
2547.00, 
2548.00, 
2549.00, 
2550.00, 
2551.00, 
2552.00, 
2553.00, 
2554.00, 
2555.00, 
2556.00, 
2557.00, 
2558.00, 
2559.00, 
2560.00, 
2561.00, 
2562.00, 
2563.00, 
2564.00, 
2565.00, 
2566.00, 
2567.00, 
2568.00, 
2569.00, 
2570.00, 
2571.00, 
2572.00, 
2573.00, 
2574.00, 
2575.00, 
2576.00, 
2577.00, 
2578.00, 
2579.00, 
2580.00, 
2581.00, 
2582.00, 
2583.00, 
2584.00, 
2585.00, 
2586.00, 
2587.00, 
2588.00, 
2589.00, 
2590.00, 
2591.00, 
2592.00, 
2593.00, 
2594.00, 
2595.00, 
2596.00, 
2597.00, 
2598.00, 
2599.00, 
2600.00, 
