"1cP1 - RawData"
"Wavelength nm.","T%"
200.00,0.002
201.00,0.001
202.00,0.000
203.00,-0.001
204.00,0.001
205.00,0.001
206.00,0.003
207.00,-0.001
208.00,0.001
209.00,0.000
210.00,-0.002
211.00,0.003
212.00,0.001
213.00,-0.001
214.00,0.000
215.00,0.001
216.00,0.002
217.00,0.004
218.00,0.003
219.00,-0.004
220.00,0.000
221.00,-0.001
222.00,-0.001
223.00,0.000
224.00,0.001
225.00,0.000
226.00,-0.002
227.00,0.001
228.00,0.002
229.00,0.001
230.00,0.000
231.00,0.001
232.00,0.000
233.00,-0.000
234.00,0.001
235.00,0.000
236.00,-0.000
237.00,0.001
238.00,0.001
239.00,0.001
240.00,0.001
241.00,-0.001
242.00,-0.000
243.00,0.002
244.00,-0.001
245.00,0.001
246.00,0.001
247.00,-0.000
248.00,0.001
249.00,0.002
250.00,0.001
251.00,-0.001
252.00,-0.001
253.00,-0.001
254.00,-0.001
255.00,0.001
256.00,0.001
257.00,-0.001
258.00,0.000
259.00,0.000
260.00,0.001
261.00,0.001
262.00,-0.000
263.00,0.000
264.00,0.001
265.00,0.000
266.00,-0.001
267.00,-0.001
268.00,-0.000
269.00,-0.000
270.00,0.001
271.00,-0.000
272.00,0.001
273.00,0.001
274.00,0.001
275.00,-0.001
276.00,0.000
277.00,0.000
278.00,0.001
279.00,0.001
280.00,-0.000
281.00,0.002
282.00,0.001
283.00,0.000
284.00,0.001
285.00,0.001
286.00,-0.001
287.00,0.001
288.00,0.001
289.00,0.001
290.00,0.002
291.00,0.000
292.00,-0.001
293.00,-0.001
294.00,0.001
295.00,-0.001
296.00,0.000
297.00,0.000
298.00,0.001
299.00,-0.000
300.00,0.001
301.00,-0.001
302.00,-0.001
303.00,0.000
304.00,-0.000
305.00,0.001
306.00,-0.000
307.00,0.002
308.00,0.006
309.00,0.011
310.00,0.019
311.00,0.028
312.00,0.042
313.00,0.066
314.00,0.101
315.00,0.151
316.00,0.215
317.00,0.301
318.00,0.412
319.00,0.560
320.00,0.735
321.00,0.946
322.00,1.218
323.00,1.542
324.00,1.914
325.00,2.311
326.00,2.716
327.00,3.236
328.00,3.798
329.00,4.394
330.00,5.016
331.00,5.632
332.00,6.326
333.00,7.114
334.00,7.817
335.00,8.618
336.00,9.409
337.00,10.222
338.00,10.994
339.00,11.742
340.00,12.531
341.00,13.291
342.00,14.037
343.00,14.760
344.00,15.448
345.00,16.182
346.00,16.740
347.00,17.338
348.00,17.938
349.00,18.456
350.00,18.937
351.00,19.466
352.00,19.869
353.00,20.286
354.00,20.699
355.00,21.115
356.00,21.470
357.00,21.772
358.00,22.118
359.00,22.443
360.00,22.723
361.00,22.932
362.00,23.189
363.00,23.408
364.00,23.491
365.00,23.636
366.00,23.785
367.00,23.887
368.00,23.968
369.00,24.074
370.00,24.140
371.00,24.193
372.00,24.175
373.00,24.153
374.00,24.164
375.00,24.162
376.00,24.058
377.00,23.955
378.00,23.860
379.00,23.789
380.00,23.793
381.00,23.742
382.00,23.716
383.00,23.825
384.00,23.815
385.00,23.968
386.00,24.012
387.00,24.133
388.00,24.291
389.00,24.284
390.00,24.373
391.00,24.405
392.00,24.489
393.00,24.472
394.00,24.522
395.00,24.578
396.00,24.538
397.00,24.590
398.00,24.603
399.00,24.624
400.00,24.666
401.00,24.631
402.00,24.609
403.00,24.593
404.00,24.608
405.00,24.589
406.00,24.580
407.00,24.539
408.00,24.541
409.00,24.499
410.00,24.406
411.00,24.440
412.00,24.299
413.00,24.384
414.00,24.356
415.00,24.368
416.00,24.412
417.00,24.362
418.00,24.404
419.00,24.466
420.00,24.528
421.00,24.573
422.00,24.556
423.00,24.662
424.00,24.653
425.00,24.622
426.00,24.663
427.00,24.714
428.00,24.756
429.00,24.786
430.00,24.836
431.00,24.917
432.00,24.888
433.00,24.963
434.00,24.999
435.00,25.052
436.00,25.113
437.00,25.188
438.00,25.259
439.00,25.283
440.00,25.358
441.00,25.427
442.00,25.491
443.00,25.557
444.00,25.636
445.00,25.759
446.00,25.818
447.00,25.912
448.00,26.015
449.00,26.097
450.00,26.215
451.00,26.280
452.00,26.367
453.00,26.516
454.00,26.618
455.00,26.696
456.00,26.827
457.00,26.945
458.00,26.955
459.00,27.165
460.00,27.281
461.00,27.407
462.00,27.503
463.00,27.656
464.00,27.769
465.00,27.856
466.00,27.996
467.00,28.119
468.00,28.211
469.00,28.307
470.00,28.400
471.00,28.498
472.00,28.601
473.00,28.695
474.00,28.808
475.00,28.913
476.00,28.980
477.00,29.077
478.00,29.216
479.00,29.398
480.00,29.544
481.00,29.612
482.00,29.784
483.00,29.907
484.00,30.044
485.00,30.180
486.00,30.351
487.00,30.508
488.00,30.583
489.00,30.773
490.00,30.939
491.00,31.038
492.00,31.272
493.00,31.417
494.00,31.402
495.00,31.513
496.00,31.686
497.00,31.769
498.00,31.914
499.00,32.057
500.00,32.155
501.00,32.253
502.00,32.411
503.00,32.555
504.00,32.621
505.00,32.809
506.00,32.912
507.00,32.901
508.00,32.995
509.00,33.230
510.00,33.311
511.00,33.403
512.00,33.573
513.00,33.716
514.00,33.801
515.00,33.950
516.00,34.051
517.00,34.107
518.00,34.218
519.00,34.280
520.00,34.327
521.00,34.443
522.00,34.570
523.00,34.522
524.00,34.618
525.00,34.771
526.00,34.880
527.00,34.961
528.00,34.958
529.00,35.168
530.00,35.344
531.00,35.442
532.00,35.532
533.00,35.635
534.00,35.692
535.00,35.784
536.00,35.849
537.00,35.933
538.00,35.994
539.00,36.041
540.00,36.153
541.00,36.184
542.00,36.231
543.00,36.293
544.00,36.363
545.00,36.462
546.00,36.480
547.00,36.649
548.00,36.683
549.00,36.760
550.00,36.839
551.00,36.971
552.00,37.021
553.00,37.054
554.00,37.144
555.00,37.141
556.00,37.209
557.00,37.287
558.00,37.363
559.00,37.405
560.00,37.455
561.00,37.521
562.00,37.666
563.00,37.659
564.00,37.654
565.00,37.634
566.00,37.778
567.00,37.712
568.00,37.807
569.00,37.924
570.00,37.913
571.00,37.989
572.00,38.021
573.00,37.956
574.00,38.041
575.00,38.017
576.00,38.019
577.00,38.116
578.00,38.201
579.00,38.261
580.00,38.236
581.00,38.458
582.00,38.533
583.00,38.529
584.00,38.591
585.00,38.688
586.00,38.740
587.00,38.829
588.00,38.813
589.00,38.799
590.00,38.844
591.00,38.901
592.00,38.841
593.00,38.866
594.00,39.030
595.00,39.115
596.00,39.189
597.00,39.200
598.00,39.224
599.00,39.262
600.00,39.316
601.00,39.321
602.00,39.422
603.00,39.445
604.00,39.445
605.00,39.462
606.00,39.518
607.00,39.438
608.00,39.709
609.00,39.804
610.00,39.647
611.00,39.783
612.00,39.797
613.00,39.813
614.00,39.886
615.00,39.971
616.00,39.987
617.00,39.990
618.00,40.011
619.00,40.148
620.00,40.144
621.00,40.183
622.00,40.200
623.00,40.291
624.00,40.385
625.00,40.470
626.00,40.490
627.00,40.534
628.00,40.568
629.00,40.583
630.00,40.570
631.00,40.616
632.00,40.696
633.00,40.798
634.00,40.923
635.00,40.993
636.00,41.077
637.00,41.118
638.00,41.106
639.00,41.175
640.00,41.202
641.00,41.225
642.00,41.364
643.00,41.434
644.00,41.424
645.00,41.569
646.00,41.617
647.00,41.748
648.00,41.699
649.00,41.693
650.00,41.736
651.00,41.944
652.00,41.947
653.00,41.945
654.00,41.996
655.00,42.149
656.00,42.485
657.00,42.283
658.00,42.372
659.00,42.441
660.00,42.542
661.00,42.575
662.00,42.539
663.00,42.703
664.00,42.964
665.00,43.094
666.00,42.976
667.00,43.090
668.00,43.225
669.00,43.343
670.00,43.549
671.00,43.408
672.00,43.478
673.00,43.538
674.00,43.612
675.00,43.701
676.00,43.886
677.00,44.055
678.00,43.717
679.00,43.904
680.00,44.195
681.00,44.146
682.00,43.945
683.00,44.290
684.00,44.672
685.00,44.432
686.00,44.065
687.00,44.367
688.00,44.631
689.00,44.624
690.00,44.848
691.00,45.060
692.00,44.826
693.00,44.744
694.00,44.946
695.00,45.127
696.00,45.210
697.00,45.175
698.00,45.322
699.00,45.492
700.00,45.419
701.00,45.446
702.00,45.592
703.00,45.764
704.00,45.824
705.00,45.702
706.00,45.784
707.00,45.866
708.00,45.638
709.00,46.047
710.00,46.542
711.00,45.995
712.00,46.023
713.00,46.243
714.00,46.353
715.00,46.275
716.00,46.239
717.00,46.522
718.00,46.592
719.00,46.492
720.00,46.609
721.00,51.173
722.00,51.167
723.00,51.167
724.00,51.113
725.00,51.093
726.00,51.103
727.00,51.103
728.00,51.086
729.00,51.180
730.00,51.173
731.00,51.210
732.00,51.159
733.00,51.235
734.00,51.280
735.00,51.342
736.00,51.301
737.00,51.311
738.00,51.344
739.00,51.356
740.00,51.363
741.00,51.396
742.00,51.348
743.00,51.334
744.00,51.353
745.00,51.395
746.00,51.371
747.00,51.432
748.00,51.330
749.00,51.431
750.00,51.364
751.00,51.342
752.00,51.318
753.00,51.338
754.00,51.327
755.00,51.346
756.00,51.336
757.00,51.322
758.00,51.331
759.00,51.303
760.00,51.322
761.00,51.306
762.00,51.330
763.00,51.383
764.00,51.276
765.00,51.347
766.00,51.380
767.00,51.334
768.00,51.291
769.00,51.342
770.00,51.393
771.00,51.382
772.00,51.413
773.00,51.374
774.00,51.348
775.00,51.354
776.00,51.328
777.00,51.398
778.00,51.290
779.00,51.410
780.00,51.341
781.00,51.315
782.00,51.389
783.00,51.313
784.00,51.346
785.00,51.301
786.00,51.373
787.00,51.278
788.00,51.246
789.00,51.259
790.00,51.226
791.00,51.236
792.00,51.208
793.00,51.127
794.00,51.094
795.00,51.105
796.00,51.138
797.00,51.110
798.00,51.073
799.00,51.084
800.00,51.048
801.00,51.074
802.00,51.025
803.00,50.948
804.00,50.922
805.00,51.015
806.00,50.943
807.00,50.899
808.00,50.880
809.00,50.884
810.00,50.844
811.00,50.814
812.00,50.861
813.00,50.743
814.00,50.808
815.00,50.810
816.00,50.772
817.00,50.742
818.00,50.743
819.00,50.681
820.00,50.698
821.00,50.683
822.00,50.678
823.00,50.616
824.00,50.670
825.00,50.472
826.00,50.581
827.00,50.611
828.00,50.566
829.00,50.492
830.00,50.507
831.00,52.857
832.00,52.871
833.00,52.820
834.00,52.843
835.00,52.759
836.00,52.764
837.00,52.787
838.00,52.738
839.00,52.699
840.00,52.664
841.00,52.691
842.00,52.623
843.00,52.616
844.00,52.741
845.00,52.565
846.00,52.592
847.00,52.517
848.00,52.539
849.00,52.436
850.00,52.420
851.00,52.371
852.00,52.406
853.00,52.308
854.00,52.309
855.00,52.252
856.00,52.273
857.00,52.080
858.00,52.192
859.00,52.182
860.00,52.184
861.00,52.178
862.00,52.118
863.00,52.142
864.00,52.089
865.00,52.097
866.00,52.056
867.00,52.064
868.00,52.038
869.00,51.990
870.00,52.019
871.00,52.002
872.00,51.993
873.00,51.989
874.00,51.997
875.00,51.805
876.00,51.985
877.00,51.952
878.00,51.958
879.00,51.893
880.00,51.883
881.00,51.845
882.00,51.890
883.00,51.836
884.00,51.812
885.00,51.793
886.00,51.756
887.00,51.728
888.00,51.717
889.00,51.716
890.00,51.684
891.00,51.656
892.00,51.666
893.00,51.634
894.00,51.602
895.00,51.677
896.00,51.568
897.00,51.530
898.00,51.528
899.00,51.542
900.00,51.499
901.00,51.431
902.00,51.485
903.00,51.457
904.00,51.461
905.00,51.448
906.00,51.422
907.00,51.354
908.00,51.355
909.00,51.341
910.00,51.302
911.00,51.321
912.00,51.310
913.00,51.258
914.00,51.257
915.00,51.233
916.00,51.212
917.00,51.201
918.00,51.176
919.00,51.139
920.00,51.088
921.00,51.105
922.00,51.119
923.00,51.061
924.00,51.034
925.00,51.004
926.00,51.088
927.00,50.954
928.00,50.964
929.00,50.969
930.00,50.924
931.00,50.919
932.00,50.867
933.00,50.870
934.00,50.851
935.00,50.833
936.00,50.800
937.00,50.803
938.00,50.801
939.00,50.771
940.00,50.788
941.00,50.751
942.00,50.724
943.00,50.705
944.00,50.668
945.00,50.659
946.00,50.663
947.00,50.625
948.00,50.612
949.00,50.581
950.00,50.580
951.00,50.569
952.00,50.545
953.00,50.511
954.00,50.462
955.00,50.411
956.00,50.458
957.00,50.372
958.00,50.383
959.00,50.327
960.00,50.328
961.00,50.330
962.00,50.322
963.00,50.269
964.00,50.267
965.00,50.275
966.00,50.259
967.00,50.248
968.00,50.224
969.00,50.265
970.00,50.233
971.00,50.214
972.00,50.196
973.00,50.237
974.00,50.229
975.00,50.202
976.00,50.215
977.00,50.216
978.00,50.263
979.00,50.209
980.00,50.227
981.00,50.338
982.00,50.184
983.00,50.203
984.00,50.178
985.00,50.195
986.00,50.164
987.00,50.184
988.00,50.138
989.00,50.142
990.00,50.135
991.00,50.116
992.00,50.145
993.00,50.087
994.00,50.092
995.00,50.079
996.00,50.059
997.00,50.043
998.00,50.030
999.00,50.037
1000.00,49.979
1001.00,49.979
1002.00,49.970
1003.00,49.979
1004.00,49.945
1005.00,49.923
1006.00,49.967
1007.00,49.925
1008.00,49.903
1009.00,49.887
1010.00,49.899
1011.00,49.893
1012.00,49.854
1013.00,49.859
1014.00,49.837
1015.00,49.816
1016.00,49.772
1017.00,49.800
1018.00,49.773
1019.00,49.753
1020.00,49.754
1021.00,49.724
1022.00,49.717
1023.00,49.671
1024.00,49.687
1025.00,49.659
1026.00,49.641
1027.00,49.634
1028.00,49.607
1029.00,49.634
1030.00,49.596
1031.00,49.590
1032.00,49.531
1033.00,49.542
1034.00,49.510
1035.00,49.471
1036.00,49.470
1037.00,49.453
1038.00,49.447
1039.00,49.402
1040.00,49.394
1041.00,49.370
1042.00,49.366
1043.00,49.344
1044.00,49.375
1045.00,49.346
1046.00,49.333
1047.00,49.372
1048.00,49.370
1049.00,49.381
1050.00,49.377
1051.00,49.422
1052.00,49.421
1053.00,49.410
1054.00,49.409
1055.00,49.440
1056.00,49.434
1057.00,49.443
1058.00,49.428
1059.00,49.430
1060.00,49.444
1061.00,49.440
1062.00,49.436
1063.00,49.432
1064.00,49.436
1065.00,49.416
1066.00,49.413
1067.00,49.400
1068.00,49.419
1069.00,49.371
1070.00,49.346
1071.00,49.341
1072.00,49.357
1073.00,49.325
1074.00,49.321
1075.00,49.325
1076.00,49.321
1077.00,49.297
1078.00,49.304
1079.00,49.298
1080.00,49.299
1081.00,49.284
1082.00,49.276
1083.00,49.263
1084.00,49.252
1085.00,49.243
1086.00,49.243
1087.00,49.251
1088.00,49.236
1089.00,49.220
1090.00,49.210
1091.00,49.220
1092.00,49.210
1093.00,49.199
1094.00,49.194
1095.00,49.186
1096.00,49.163
1097.00,49.160
1098.00,49.141
1099.00,49.145
1100.00,49.126
1101.00,49.119
1102.00,49.115
1103.00,49.106
1104.00,49.092
1105.00,49.078
1106.00,49.052
1107.00,49.061
1108.00,49.048
1109.00,49.053
1110.00,49.041
1111.00,49.034
1112.00,49.013
1113.00,49.022
1114.00,48.998
1115.00,49.003
1116.00,48.994
1117.00,48.981
1118.00,48.974
1119.00,48.974
1120.00,48.971
1121.00,48.966
1122.00,48.952
1123.00,48.969
1124.00,48.954
1125.00,48.956
1126.00,48.944
1127.00,48.940
1128.00,48.920
1129.00,48.904
1130.00,48.890
1131.00,48.886
1132.00,48.886
1133.00,48.883
1134.00,48.871
1135.00,48.866
1136.00,48.869
1137.00,48.868
1138.00,48.871
1139.00,48.900
1140.00,48.865
1141.00,48.857
1142.00,48.848
1143.00,48.867
1144.00,48.836
1145.00,48.845
1146.00,48.845
1147.00,48.833
1148.00,48.829
1149.00,48.844
1150.00,48.837
1151.00,48.843
1152.00,48.830
1153.00,48.838
1154.00,48.823
1155.00,48.822
1156.00,48.809
1157.00,48.828
1158.00,48.811
1159.00,48.804
1160.00,48.803
1161.00,48.803
1162.00,48.805
1163.00,48.808
1164.00,48.816
1165.00,48.819
1166.00,48.813
1167.00,48.792
1168.00,48.825
1169.00,48.792
1170.00,48.791
1171.00,48.777
1172.00,48.785
1173.00,48.782
1174.00,48.789
1175.00,48.784
1176.00,48.784
1177.00,48.774
1178.00,48.768
1179.00,48.804
1180.00,48.787
1181.00,48.812
1182.00,48.792
1183.00,48.783
1184.00,48.779
1185.00,48.779
1186.00,48.777
1187.00,48.781
1188.00,48.771
1189.00,48.773
1190.00,48.768
1191.00,48.758
1192.00,48.784
1193.00,48.773
1194.00,48.774
1195.00,48.755
1196.00,48.776
1197.00,48.783
1198.00,48.774
1199.00,48.776
1200.00,48.784
1201.00,48.801
1202.00,48.766
1203.00,48.773
1204.00,48.778
1205.00,48.786
1206.00,48.762
1207.00,48.775
1208.00,48.763
1209.00,48.778
1210.00,48.790
1211.00,48.771
1212.00,48.798
1213.00,48.757
1214.00,48.815
1215.00,48.784
1216.00,48.765
1217.00,48.779
1218.00,48.768
1219.00,48.780
1220.00,48.760
1221.00,48.781
1222.00,48.777
1223.00,48.801
1224.00,48.789
1225.00,48.772
1226.00,48.784
1227.00,48.786
1228.00,48.800
1229.00,48.774
1230.00,48.820
1231.00,48.803
1232.00,48.831
1233.00,48.837
1234.00,48.842
1235.00,48.844
1236.00,48.843
1237.00,48.854
1238.00,48.848
1239.00,48.851
1240.00,48.831
1241.00,48.846
1242.00,48.863
1243.00,48.873
1244.00,48.843
1245.00,48.883
1246.00,48.886
1247.00,48.874
1248.00,48.873
1249.00,48.883
1250.00,48.896
1251.00,48.874
1252.00,48.896
1253.00,48.885
1254.00,48.920
1255.00,48.901
1256.00,48.900
1257.00,48.887
1258.00,48.919
1259.00,48.923
1260.00,48.937
1261.00,48.936
1262.00,48.917
1263.00,48.918
1264.00,48.931
1265.00,48.930
1266.00,48.937
1267.00,48.966
1268.00,48.961
1269.00,48.971
1270.00,48.991
1271.00,48.982
1272.00,48.992
1273.00,48.996
1274.00,49.000
1275.00,49.018
1276.00,48.999
1277.00,49.008
1278.00,49.021
1279.00,49.010
1280.00,49.018
1281.00,49.047
1282.00,49.054
1283.00,49.054
1284.00,49.064
1285.00,49.045
1286.00,49.065
1287.00,49.057
1288.00,49.059
1289.00,49.053
1290.00,49.079
1291.00,49.074
1292.00,49.082
1293.00,49.083
1294.00,49.109
1295.00,49.120
1296.00,49.124
1297.00,49.115
1298.00,49.130
1299.00,49.135
1300.00,49.185
1301.00,49.144
1302.00,49.171
1303.00,49.189
1304.00,49.169
1305.00,49.189
1306.00,49.192
1307.00,49.188
1308.00,49.200
1309.00,49.195
1310.00,49.198
1311.00,49.192
1312.00,49.194
1313.00,49.221
1314.00,49.235
1315.00,49.263
1316.00,49.262
1317.00,49.284
1318.00,49.281
1319.00,49.284
1320.00,49.286
1321.00,49.458
1322.00,49.444
1323.00,49.449
1324.00,49.419
1325.00,49.408
1326.00,49.452
1327.00,49.432
1328.00,49.430
1329.00,49.443
1330.00,49.448
1331.00,49.444
1332.00,49.447
1333.00,49.443
1334.00,49.488
1335.00,49.496
1336.00,49.531
1337.00,49.576
1338.00,49.624
1339.00,49.680
1340.00,49.747
1341.00,49.801
1342.00,49.880
1343.00,49.936
1344.00,49.988
1345.00,50.066
1346.00,50.066
1347.00,50.088
1348.00,50.124
1349.00,50.111
1350.00,50.149
1351.00,50.135
1352.00,50.156
1353.00,50.162
1354.00,50.167
1355.00,50.143
1356.00,50.169
1357.00,50.207
1358.00,50.223
1359.00,50.283
1360.00,50.496
1361.00,50.226
1362.00,50.208
1363.00,50.260
1364.00,50.248
1365.00,50.227
1366.00,50.302
1367.00,50.231
1368.00,50.201
1369.00,50.219
1370.00,50.204
1371.00,50.177
1372.00,50.192
1373.00,50.227
1374.00,50.250
1375.00,50.224
1376.00,50.213
1377.00,50.189
1378.00,50.288
1379.00,50.208
1380.00,50.211
1381.00,50.269
1382.00,50.202
1383.00,50.230
1384.00,50.185
1385.00,50.195
1386.00,50.224
1387.00,50.149
1388.00,50.177
1389.00,50.239
1390.00,50.347
1391.00,50.147
1392.00,50.187
1393.00,50.190
1394.00,50.223
1395.00,50.157
1396.00,50.131
1397.00,50.226
1398.00,50.252
1399.00,50.201
1400.00,50.186
1401.00,50.192
1402.00,50.271
1403.00,50.221
1404.00,50.205
1405.00,50.240
1406.00,50.274
1407.00,50.253
1408.00,50.282
1409.00,50.269
1410.00,50.292
1411.00,50.287
1412.00,50.363
1413.00,50.269
1414.00,50.302
1415.00,50.314
1416.00,50.344
1417.00,50.376
1418.00,50.344
1419.00,50.369
1420.00,50.392
1421.00,50.437
1422.00,50.441
1423.00,50.439
1424.00,50.442
1425.00,50.475
1426.00,50.459
1427.00,50.493
1428.00,50.495
1429.00,50.516
1430.00,50.548
1431.00,50.580
1432.00,50.587
1433.00,50.603
1434.00,50.575
1435.00,50.649
1436.00,50.654
1437.00,50.621
1438.00,50.651
1439.00,50.690
1440.00,50.690
1441.00,50.713
1442.00,50.729
1443.00,50.745
1444.00,50.805
1445.00,50.770
1446.00,50.794
1447.00,50.835
1448.00,50.850
1449.00,50.861
1450.00,50.872
1451.00,50.875
1452.00,50.927
1453.00,50.918
1454.00,50.946
1455.00,50.979
1456.00,50.990
1457.00,50.976
1458.00,51.010
1459.00,51.010
1460.00,51.051
1461.00,51.050
1462.00,51.076
1463.00,51.092
1464.00,51.112
1465.00,51.123
1466.00,51.141
1467.00,51.163
1468.00,51.220
1469.00,51.198
1470.00,51.204
1471.00,51.223
1472.00,51.237
1473.00,51.244
1474.00,51.285
1475.00,51.299
1476.00,51.307
1477.00,51.289
1478.00,51.311
1479.00,51.341
1480.00,51.353
1481.00,51.366
1482.00,51.414
1483.00,51.419
1484.00,51.403
1485.00,51.417
1486.00,51.433
1487.00,51.448
1488.00,51.490
1489.00,51.465
1490.00,51.489
1491.00,51.500
1492.00,51.502
1493.00,51.512
1494.00,51.569
1495.00,51.521
1496.00,51.576
1497.00,51.557
1498.00,51.580
1499.00,51.612
1500.00,51.617
1501.00, 
1502.00, 
1503.00, 
1504.00, 
1505.00, 
1506.00, 
1507.00, 
1508.00, 
1509.00, 
1510.00, 
1511.00, 
1512.00, 
1513.00, 
1514.00, 
1515.00, 
1516.00, 
1517.00, 
1518.00, 
1519.00, 
1520.00, 
1521.00, 
1522.00, 
1523.00, 
1524.00, 
1525.00, 
1526.00, 
1527.00, 
1528.00, 
1529.00, 
1530.00, 
1531.00, 
1532.00, 
1533.00, 
1534.00, 
1535.00, 
1536.00, 
1537.00, 
1538.00, 
1539.00, 
1540.00, 
1541.00, 
1542.00, 
1543.00, 
1544.00, 
1545.00, 
1546.00, 
1547.00, 
1548.00, 
1549.00, 
1550.00, 
1551.00, 
1552.00, 
1553.00, 
1554.00, 
1555.00, 
1556.00, 
1557.00, 
1558.00, 
1559.00, 
1560.00, 
1561.00, 
1562.00, 
1563.00, 
1564.00, 
1565.00, 
1566.00, 
1567.00, 
1568.00, 
1569.00, 
1570.00, 
1571.00, 
1572.00, 
1573.00, 
1574.00, 
1575.00, 
1576.00, 
1577.00, 
1578.00, 
1579.00, 
1580.00, 
1581.00, 
1582.00, 
1583.00, 
1584.00, 
1585.00, 
1586.00, 
1587.00, 
1588.00, 
1589.00, 
1590.00, 
1591.00, 
1592.00, 
1593.00, 
1594.00, 
1595.00, 
1596.00, 
1597.00, 
1598.00, 
1599.00, 
1600.00, 
1601.00, 
1602.00, 
1603.00, 
1604.00, 
1605.00, 
1606.00, 
1607.00, 
1608.00, 
1609.00, 
1610.00, 
1611.00, 
1612.00, 
1613.00, 
1614.00, 
1615.00, 
1616.00, 
1617.00, 
1618.00, 
1619.00, 
1620.00, 
1621.00, 
1622.00, 
1623.00, 
1624.00, 
1625.00, 
1626.00, 
1627.00, 
1628.00, 
1629.00, 
1630.00, 
1631.00, 
1632.00, 
1633.00, 
1634.00, 
1635.00, 
1636.00, 
1637.00, 
1638.00, 
1639.00, 
1640.00, 
1641.00, 
1642.00, 
1643.00, 
1644.00, 
1645.00, 
1646.00, 
1647.00, 
1648.00, 
1649.00, 
1650.00, 
1651.00, 
1652.00, 
1653.00, 
1654.00, 
1655.00, 
1656.00, 
1657.00, 
1658.00, 
1659.00, 
1660.00, 
1661.00, 
1662.00, 
1663.00, 
1664.00, 
1665.00, 
1666.00, 
1667.00, 
1668.00, 
1669.00, 
1670.00, 
1671.00, 
1672.00, 
1673.00, 
1674.00, 
1675.00, 
1676.00, 
1677.00, 
1678.00, 
1679.00, 
1680.00, 
1681.00, 
1682.00, 
1683.00, 
1684.00, 
1685.00, 
1686.00, 
1687.00, 
1688.00, 
1689.00, 
1690.00, 
1691.00, 
1692.00, 
1693.00, 
1694.00, 
1695.00, 
1696.00, 
1697.00, 
1698.00, 
1699.00, 
1700.00, 
1701.00, 
1702.00, 
1703.00, 
1704.00, 
1705.00, 
1706.00, 
1707.00, 
1708.00, 
1709.00, 
1710.00, 
1711.00, 
1712.00, 
1713.00, 
1714.00, 
1715.00, 
1716.00, 
1717.00, 
1718.00, 
1719.00, 
1720.00, 
1721.00, 
1722.00, 
1723.00, 
1724.00, 
1725.00, 
1726.00, 
1727.00, 
1728.00, 
1729.00, 
1730.00, 
1731.00, 
1732.00, 
1733.00, 
1734.00, 
1735.00, 
1736.00, 
1737.00, 
1738.00, 
1739.00, 
1740.00, 
1741.00, 
1742.00, 
1743.00, 
1744.00, 
1745.00, 
1746.00, 
1747.00, 
1748.00, 
1749.00, 
1750.00, 
1751.00, 
1752.00, 
1753.00, 
1754.00, 
1755.00, 
1756.00, 
1757.00, 
1758.00, 
1759.00, 
1760.00, 
1761.00, 
1762.00, 
1763.00, 
1764.00, 
1765.00, 
1766.00, 
1767.00, 
1768.00, 
1769.00, 
1770.00, 
1771.00, 
1772.00, 
1773.00, 
1774.00, 
1775.00, 
1776.00, 
1777.00, 
1778.00, 
1779.00, 
1780.00, 
1781.00, 
1782.00, 
1783.00, 
1784.00, 
1785.00, 
1786.00, 
1787.00, 
1788.00, 
1789.00, 
1790.00, 
1791.00, 
1792.00, 
1793.00, 
1794.00, 
1795.00, 
1796.00, 
1797.00, 
1798.00, 
1799.00, 
1800.00, 
1801.00, 
1802.00, 
1803.00, 
1804.00, 
1805.00, 
1806.00, 
1807.00, 
1808.00, 
1809.00, 
1810.00, 
1811.00, 
1812.00, 
1813.00, 
1814.00, 
1815.00, 
1816.00, 
1817.00, 
1818.00, 
1819.00, 
1820.00, 
1821.00, 
1822.00, 
1823.00, 
1824.00, 
1825.00, 
1826.00, 
1827.00, 
1828.00, 
1829.00, 
1830.00, 
1831.00, 
1832.00, 
1833.00, 
1834.00, 
1835.00, 
1836.00, 
1837.00, 
1838.00, 
1839.00, 
1840.00, 
1841.00, 
1842.00, 
1843.00, 
1844.00, 
1845.00, 
1846.00, 
1847.00, 
1848.00, 
1849.00, 
1850.00, 
1851.00, 
1852.00, 
1853.00, 
1854.00, 
1855.00, 
1856.00, 
1857.00, 
1858.00, 
1859.00, 
1860.00, 
1861.00, 
1862.00, 
1863.00, 
1864.00, 
1865.00, 
1866.00, 
1867.00, 
1868.00, 
1869.00, 
1870.00, 
1871.00, 
1872.00, 
1873.00, 
1874.00, 
1875.00, 
1876.00, 
1877.00, 
1878.00, 
1879.00, 
1880.00, 
1881.00, 
1882.00, 
1883.00, 
1884.00, 
1885.00, 
1886.00, 
1887.00, 
1888.00, 
1889.00, 
1890.00, 
1891.00, 
1892.00, 
1893.00, 
1894.00, 
1895.00, 
1896.00, 
1897.00, 
1898.00, 
1899.00, 
1900.00, 
1901.00, 
1902.00, 
1903.00, 
1904.00, 
1905.00, 
1906.00, 
1907.00, 
1908.00, 
1909.00, 
1910.00, 
1911.00, 
1912.00, 
1913.00, 
1914.00, 
1915.00, 
1916.00, 
1917.00, 
1918.00, 
1919.00, 
1920.00, 
1921.00, 
1922.00, 
1923.00, 
1924.00, 
1925.00, 
1926.00, 
1927.00, 
1928.00, 
1929.00, 
1930.00, 
1931.00, 
1932.00, 
1933.00, 
1934.00, 
1935.00, 
1936.00, 
1937.00, 
1938.00, 
1939.00, 
1940.00, 
1941.00, 
1942.00, 
1943.00, 
1944.00, 
1945.00, 
1946.00, 
1947.00, 
1948.00, 
1949.00, 
1950.00, 
1951.00, 
1952.00, 
1953.00, 
1954.00, 
1955.00, 
1956.00, 
1957.00, 
1958.00, 
1959.00, 
1960.00, 
1961.00, 
1962.00, 
1963.00, 
1964.00, 
1965.00, 
1966.00, 
1967.00, 
1968.00, 
1969.00, 
1970.00, 
1971.00, 
1972.00, 
1973.00, 
1974.00, 
1975.00, 
1976.00, 
1977.00, 
1978.00, 
1979.00, 
1980.00, 
1981.00, 
1982.00, 
1983.00, 
1984.00, 
1985.00, 
1986.00, 
1987.00, 
1988.00, 
1989.00, 
1990.00, 
1991.00, 
1992.00, 
1993.00, 
1994.00, 
1995.00, 
1996.00, 
1997.00, 
1998.00, 
1999.00, 
2000.00, 
2001.00, 
2002.00, 
2003.00, 
2004.00, 
2005.00, 
2006.00, 
2007.00, 
2008.00, 
2009.00, 
2010.00, 
2011.00, 
2012.00, 
2013.00, 
2014.00, 
2015.00, 
2016.00, 
2017.00, 
2018.00, 
2019.00, 
2020.00, 
2021.00, 
2022.00, 
2023.00, 
2024.00, 
2025.00, 
2026.00, 
2027.00, 
2028.00, 
2029.00, 
2030.00, 
2031.00, 
2032.00, 
2033.00, 
2034.00, 
2035.00, 
2036.00, 
2037.00, 
2038.00, 
2039.00, 
2040.00, 
2041.00, 
2042.00, 
2043.00, 
2044.00, 
2045.00, 
2046.00, 
2047.00, 
2048.00, 
2049.00, 
2050.00, 
2051.00, 
2052.00, 
2053.00, 
2054.00, 
2055.00, 
2056.00, 
2057.00, 
2058.00, 
2059.00, 
2060.00, 
2061.00, 
2062.00, 
2063.00, 
2064.00, 
2065.00, 
2066.00, 
2067.00, 
2068.00, 
2069.00, 
2070.00, 
2071.00, 
2072.00, 
2073.00, 
2074.00, 
2075.00, 
2076.00, 
2077.00, 
2078.00, 
2079.00, 
2080.00, 
2081.00, 
2082.00, 
2083.00, 
2084.00, 
2085.00, 
2086.00, 
2087.00, 
2088.00, 
2089.00, 
2090.00, 
2091.00, 
2092.00, 
2093.00, 
2094.00, 
2095.00, 
2096.00, 
2097.00, 
2098.00, 
2099.00, 
2100.00, 
2101.00, 
2102.00, 
2103.00, 
2104.00, 
2105.00, 
2106.00, 
2107.00, 
2108.00, 
2109.00, 
2110.00, 
2111.00, 
2112.00, 
2113.00, 
2114.00, 
2115.00, 
2116.00, 
2117.00, 
2118.00, 
2119.00, 
2120.00, 
2121.00, 
2122.00, 
2123.00, 
2124.00, 
2125.00, 
2126.00, 
2127.00, 
2128.00, 
2129.00, 
2130.00, 
2131.00, 
2132.00, 
2133.00, 
2134.00, 
2135.00, 
2136.00, 
2137.00, 
2138.00, 
2139.00, 
2140.00, 
2141.00, 
2142.00, 
2143.00, 
2144.00, 
2145.00, 
2146.00, 
2147.00, 
2148.00, 
2149.00, 
2150.00, 
2151.00, 
2152.00, 
2153.00, 
2154.00, 
2155.00, 
2156.00, 
2157.00, 
2158.00, 
2159.00, 
2160.00, 
2161.00, 
2162.00, 
2163.00, 
2164.00, 
2165.00, 
2166.00, 
2167.00, 
2168.00, 
2169.00, 
2170.00, 
2171.00, 
2172.00, 
2173.00, 
2174.00, 
2175.00, 
2176.00, 
2177.00, 
2178.00, 
2179.00, 
2180.00, 
2181.00, 
2182.00, 
2183.00, 
2184.00, 
2185.00, 
2186.00, 
2187.00, 
2188.00, 
2189.00, 
2190.00, 
2191.00, 
2192.00, 
2193.00, 
2194.00, 
2195.00, 
2196.00, 
2197.00, 
2198.00, 
2199.00, 
2200.00, 
2201.00, 
2202.00, 
2203.00, 
2204.00, 
2205.00, 
2206.00, 
2207.00, 
2208.00, 
2209.00, 
2210.00, 
2211.00, 
2212.00, 
2213.00, 
2214.00, 
2215.00, 
2216.00, 
2217.00, 
2218.00, 
2219.00, 
2220.00, 
2221.00, 
2222.00, 
2223.00, 
2224.00, 
2225.00, 
2226.00, 
2227.00, 
2228.00, 
2229.00, 
2230.00, 
2231.00, 
2232.00, 
2233.00, 
2234.00, 
2235.00, 
2236.00, 
2237.00, 
2238.00, 
2239.00, 
2240.00, 
2241.00, 
2242.00, 
2243.00, 
2244.00, 
2245.00, 
2246.00, 
2247.00, 
2248.00, 
2249.00, 
2250.00, 
2251.00, 
2252.00, 
2253.00, 
2254.00, 
2255.00, 
2256.00, 
2257.00, 
2258.00, 
2259.00, 
2260.00, 
2261.00, 
2262.00, 
2263.00, 
2264.00, 
2265.00, 
2266.00, 
2267.00, 
2268.00, 
2269.00, 
2270.00, 
2271.00, 
2272.00, 
2273.00, 
2274.00, 
2275.00, 
2276.00, 
2277.00, 
2278.00, 
2279.00, 
2280.00, 
2281.00, 
2282.00, 
2283.00, 
2284.00, 
2285.00, 
2286.00, 
2287.00, 
2288.00, 
2289.00, 
2290.00, 
2291.00, 
2292.00, 
2293.00, 
2294.00, 
2295.00, 
2296.00, 
2297.00, 
2298.00, 
2299.00, 
2300.00, 
2301.00, 
2302.00, 
2303.00, 
2304.00, 
2305.00, 
2306.00, 
2307.00, 
2308.00, 
2309.00, 
2310.00, 
2311.00, 
2312.00, 
2313.00, 
2314.00, 
2315.00, 
2316.00, 
2317.00, 
2318.00, 
2319.00, 
2320.00, 
2321.00, 
2322.00, 
2323.00, 
2324.00, 
2325.00, 
2326.00, 
2327.00, 
2328.00, 
2329.00, 
2330.00, 
2331.00, 
2332.00, 
2333.00, 
2334.00, 
2335.00, 
2336.00, 
2337.00, 
2338.00, 
2339.00, 
2340.00, 
2341.00, 
2342.00, 
2343.00, 
2344.00, 
2345.00, 
2346.00, 
2347.00, 
2348.00, 
2349.00, 
2350.00, 
2351.00, 
2352.00, 
2353.00, 
2354.00, 
2355.00, 
2356.00, 
2357.00, 
2358.00, 
2359.00, 
2360.00, 
2361.00, 
2362.00, 
2363.00, 
2364.00, 
2365.00, 
2366.00, 
2367.00, 
2368.00, 
2369.00, 
2370.00, 
2371.00, 
2372.00, 
2373.00, 
2374.00, 
2375.00, 
2376.00, 
2377.00, 
2378.00, 
2379.00, 
2380.00, 
2381.00, 
2382.00, 
2383.00, 
2384.00, 
2385.00, 
2386.00, 
2387.00, 
2388.00, 
2389.00, 
2390.00, 
2391.00, 
2392.00, 
2393.00, 
2394.00, 
2395.00, 
2396.00, 
2397.00, 
2398.00, 
2399.00, 
2400.00, 
2401.00, 
2402.00, 
2403.00, 
2404.00, 
2405.00, 
2406.00, 
2407.00, 
2408.00, 
2409.00, 
2410.00, 
2411.00, 
2412.00, 
2413.00, 
2414.00, 
2415.00, 
2416.00, 
2417.00, 
2418.00, 
2419.00, 
2420.00, 
2421.00, 
2422.00, 
2423.00, 
2424.00, 
2425.00, 
2426.00, 
2427.00, 
2428.00, 
2429.00, 
2430.00, 
2431.00, 
2432.00, 
2433.00, 
2434.00, 
2435.00, 
2436.00, 
2437.00, 
2438.00, 
2439.00, 
2440.00, 
2441.00, 
2442.00, 
2443.00, 
2444.00, 
2445.00, 
2446.00, 
2447.00, 
2448.00, 
2449.00, 
2450.00, 
2451.00, 
2452.00, 
2453.00, 
2454.00, 
2455.00, 
2456.00, 
2457.00, 
2458.00, 
2459.00, 
2460.00, 
2461.00, 
2462.00, 
2463.00, 
2464.00, 
2465.00, 
2466.00, 
2467.00, 
2468.00, 
2469.00, 
2470.00, 
2471.00, 
2472.00, 
2473.00, 
2474.00, 
2475.00, 
2476.00, 
2477.00, 
2478.00, 
2479.00, 
2480.00, 
2481.00, 
2482.00, 
2483.00, 
2484.00, 
2485.00, 
2486.00, 
2487.00, 
2488.00, 
2489.00, 
2490.00, 
2491.00, 
2492.00, 
2493.00, 
2494.00, 
2495.00, 
2496.00, 
2497.00, 
2498.00, 
2499.00, 
2500.00, 
2501.00, 
2502.00, 
2503.00, 
2504.00, 
2505.00, 
2506.00, 
2507.00, 
2508.00, 
2509.00, 
2510.00, 
2511.00, 
2512.00, 
2513.00, 
2514.00, 
2515.00, 
2516.00, 
2517.00, 
2518.00, 
2519.00, 
2520.00, 
2521.00, 
2522.00, 
2523.00, 
2524.00, 
2525.00, 
2526.00, 
2527.00, 
2528.00, 
2529.00, 
2530.00, 
2531.00, 
2532.00, 
2533.00, 
2534.00, 
2535.00, 
2536.00, 
2537.00, 
2538.00, 
2539.00, 
2540.00, 
2541.00, 
2542.00, 
2543.00, 
2544.00, 
2545.00, 
2546.00, 
2547.00, 
2548.00, 
2549.00, 
2550.00, 
2551.00, 
2552.00, 
2553.00, 
2554.00, 
2555.00, 
2556.00, 
2557.00, 
2558.00, 
2559.00, 
2560.00, 
2561.00, 
2562.00, 
2563.00, 
2564.00, 
2565.00, 
2566.00, 
2567.00, 
2568.00, 
2569.00, 
2570.00, 
2571.00, 
2572.00, 
2573.00, 
2574.00, 
2575.00, 
2576.00, 
2577.00, 
2578.00, 
2579.00, 
2580.00, 
2581.00, 
2582.00, 
2583.00, 
2584.00, 
2585.00, 
2586.00, 
2587.00, 
2588.00, 
2589.00, 
2590.00, 
2591.00, 
2592.00, 
2593.00, 
2594.00, 
2595.00, 
2596.00, 
2597.00, 
2598.00, 
2599.00, 
2600.00, 
