"1cP2 - RawData"
"Wavelength nm.","T%"
200.00,0.001
201.00,-0.000
202.00,-0.001
203.00,0.003
204.00,0.003
205.00,0.001
206.00,0.000
207.00,0.000
208.00,0.004
209.00,0.001
210.00,-0.002
211.00,0.000
212.00,0.001
213.00,0.002
214.00,-0.002
215.00,-0.000
216.00,0.003
217.00,0.002
218.00,0.002
219.00,-0.001
220.00,0.003
221.00,0.002
222.00,0.002
223.00,0.000
224.00,0.000
225.00,0.001
226.00,-0.002
227.00,0.001
228.00,0.000
229.00,0.002
230.00,0.000
231.00,0.001
232.00,0.002
233.00,-0.001
234.00,0.000
235.00,0.003
236.00,0.000
237.00,0.001
238.00,0.001
239.00,0.002
240.00,0.002
241.00,0.002
242.00,-0.000
243.00,-0.001
244.00,0.001
245.00,-0.001
246.00,-0.000
247.00,0.000
248.00,0.002
249.00,0.001
250.00,0.001
251.00,0.000
252.00,-0.001
253.00,0.001
254.00,-0.000
255.00,-0.001
256.00,-0.001
257.00,-0.000
258.00,-0.001
259.00,0.001
260.00,0.002
261.00,0.002
262.00,0.000
263.00,-0.000
264.00,-0.000
265.00,-0.000
266.00,0.001
267.00,0.000
268.00,-0.001
269.00,-0.001
270.00,0.001
271.00,0.001
272.00,0.000
273.00,0.000
274.00,0.001
275.00,0.000
276.00,-0.000
277.00,-0.001
278.00,-0.000
279.00,0.000
280.00,0.001
281.00,0.002
282.00,0.001
283.00,-0.000
284.00,-0.001
285.00,-0.001
286.00,0.001
287.00,-0.001
288.00,0.001
289.00,-0.001
290.00,-0.002
291.00,0.001
292.00,0.001
293.00,0.002
294.00,-0.001
295.00,-0.002
296.00,-0.001
297.00,-0.000
298.00,-0.000
299.00,0.001
300.00,-0.001
301.00,0.001
302.00,0.001
303.00,0.001
304.00,0.002
305.00,0.001
306.00,0.003
307.00,0.006
308.00,0.009
309.00,0.018
310.00,0.028
311.00,0.043
312.00,0.068
313.00,0.103
314.00,0.156
315.00,0.236
316.00,0.334
317.00,0.471
318.00,0.636
319.00,0.876
320.00,1.148
321.00,1.480
322.00,1.909
323.00,2.434
324.00,3.017
325.00,3.621
326.00,4.302
327.00,5.152
328.00,5.996
329.00,6.899
330.00,7.950
331.00,8.955
332.00,10.094
333.00,11.317
334.00,12.522
335.00,13.770
336.00,15.031
337.00,16.328
338.00,17.613
339.00,18.796
340.00,20.095
341.00,21.399
342.00,22.598
343.00,23.764
344.00,24.913
345.00,26.083
346.00,27.079
347.00,28.001
348.00,28.998
349.00,29.901
350.00,30.746
351.00,31.584
352.00,32.399
353.00,33.031
354.00,33.766
355.00,34.461
356.00,35.068
357.00,35.673
358.00,36.205
359.00,36.835
360.00,37.403
361.00,37.712
362.00,38.219
363.00,38.636
364.00,38.858
365.00,39.143
366.00,39.447
367.00,39.723
368.00,39.892
369.00,40.111
370.00,40.311
371.00,40.440
372.00,40.498
373.00,40.523
374.00,40.581
375.00,40.646
376.00,40.481
377.00,40.449
378.00,40.294
379.00,40.221
380.00,40.248
381.00,40.270
382.00,40.380
383.00,40.514
384.00,40.634
385.00,40.906
386.00,40.980
387.00,41.238
388.00,41.494
389.00,41.593
390.00,41.758
391.00,41.952
392.00,42.126
393.00,42.179
394.00,42.292
395.00,42.407
396.00,42.436
397.00,42.538
398.00,42.579
399.00,42.681
400.00,42.745
401.00,42.746
402.00,42.763
403.00,42.764
404.00,42.818
405.00,42.793
406.00,42.851
407.00,42.755
408.00,42.807
409.00,42.677
410.00,42.574
411.00,42.611
412.00,42.499
413.00,42.556
414.00,42.445
415.00,42.485
416.00,42.596
417.00,42.451
418.00,42.483
419.00,42.635
420.00,42.662
421.00,42.698
422.00,42.687
423.00,42.799
424.00,42.767
425.00,42.693
426.00,42.636
427.00,42.819
428.00,42.705
429.00,42.819
430.00,42.832
431.00,42.914
432.00,42.872
433.00,42.894
434.00,42.936
435.00,42.941
436.00,43.016
437.00,43.024
438.00,43.062
439.00,43.113
440.00,43.084
441.00,43.116
442.00,43.185
443.00,43.091
444.00,43.279
445.00,43.375
446.00,43.403
447.00,43.481
448.00,43.520
449.00,43.600
450.00,43.660
451.00,43.686
452.00,43.741
453.00,43.823
454.00,43.900
455.00,43.918
456.00,44.040
457.00,44.109
458.00,44.115
459.00,44.209
460.00,44.331
461.00,44.409
462.00,44.423
463.00,44.548
464.00,44.615
465.00,44.643
466.00,44.676
467.00,44.884
468.00,44.724
469.00,44.884
470.00,44.857
471.00,44.895
472.00,44.951
473.00,44.924
474.00,45.029
475.00,45.045
476.00,45.023
477.00,45.061
478.00,45.133
479.00,45.293
480.00,45.372
481.00,45.345
482.00,45.449
483.00,45.522
484.00,45.616
485.00,45.765
486.00,45.846
487.00,45.836
488.00,45.917
489.00,46.021
490.00,46.185
491.00,46.225
492.00,46.442
493.00,46.551
494.00,46.388
495.00,46.461
496.00,46.580
497.00,46.551
498.00,46.690
499.00,46.747
500.00,46.904
501.00,46.870
502.00,46.978
503.00,47.085
504.00,47.023
505.00,47.145
506.00,47.134
507.00,47.061
508.00,47.150
509.00,47.324
510.00,47.335
511.00,47.411
512.00,47.456
513.00,47.587
514.00,47.595
515.00,47.711
516.00,47.780
517.00,47.773
518.00,47.833
519.00,47.848
520.00,47.766
521.00,47.855
522.00,47.934
523.00,47.824
524.00,47.927
525.00,48.059
526.00,48.051
527.00,48.097
528.00,48.074
529.00,48.242
530.00,48.370
531.00,48.435
532.00,48.476
533.00,48.555
534.00,48.569
535.00,48.636
536.00,48.637
537.00,48.701
538.00,48.695
539.00,48.725
540.00,48.786
541.00,48.729
542.00,48.766
543.00,48.780
544.00,48.843
545.00,48.888
546.00,48.901
547.00,49.011
548.00,49.050
549.00,49.101
550.00,49.125
551.00,49.258
552.00,49.262
553.00,49.235
554.00,49.278
555.00,49.279
556.00,49.312
557.00,49.301
558.00,49.411
559.00,49.457
560.00,49.487
561.00,49.535
562.00,49.576
563.00,49.580
564.00,49.616
565.00,49.504
566.00,49.587
567.00,49.558
568.00,49.544
569.00,49.704
570.00,49.717
571.00,49.576
572.00,49.609
573.00,49.583
574.00,49.593
575.00,49.582
576.00,49.552
577.00,49.596
578.00,49.717
579.00,49.753
580.00,49.720
581.00,49.910
582.00,49.917
583.00,49.961
584.00,50.023
585.00,50.057
586.00,50.046
587.00,50.102
588.00,50.035
589.00,49.974
590.00,50.080
591.00,50.133
592.00,49.988
593.00,49.995
594.00,50.129
595.00,50.186
596.00,50.191
597.00,50.169
598.00,50.227
599.00,50.266
600.00,50.351
601.00,50.221
602.00,50.207
603.00,50.057
604.00,50.274
605.00,50.483
606.00,50.312
607.00,50.282
608.00,50.435
609.00,50.483
610.00,50.253
611.00,50.346
612.00,50.350
613.00,50.269
614.00,50.217
615.00,50.386
616.00,50.560
617.00,50.439
618.00,50.414
619.00,50.448
620.00,50.471
621.00,50.445
622.00,50.463
623.00,50.483
624.00,50.524
625.00,50.538
626.00,50.445
627.00,50.532
628.00,50.531
629.00,50.476
630.00,50.504
631.00,50.494
632.00,50.495
633.00,50.597
634.00,50.667
635.00,50.689
636.00,50.714
637.00,50.655
638.00,50.588
639.00,50.649
640.00,50.583
641.00,50.687
642.00,50.639
643.00,50.638
644.00,50.659
645.00,50.751
646.00,50.792
647.00,50.775
648.00,50.672
649.00,50.656
650.00,50.570
651.00,50.764
652.00,50.821
653.00,50.655
654.00,50.642
655.00,50.822
656.00,51.054
657.00,50.813
658.00,50.767
659.00,50.744
660.00,50.808
661.00,50.687
662.00,50.733
663.00,50.850
664.00,51.033
665.00,51.139
666.00,50.948
667.00,50.932
668.00,51.055
669.00,51.317
670.00,51.338
671.00,50.988
672.00,51.080
673.00,51.000
674.00,51.013
675.00,51.083
676.00,51.281
677.00,51.343
678.00,50.957
679.00,50.999
680.00,51.235
681.00,51.251
682.00,51.025
683.00,51.016
684.00,51.229
685.00,51.112
686.00,50.839
687.00,50.988
688.00,51.046
689.00,50.928
690.00,51.219
691.00,51.305
692.00,50.981
693.00,50.910
694.00,51.050
695.00,51.155
696.00,51.141
697.00,51.027
698.00,51.006
699.00,51.112
700.00,51.058
701.00,50.991
702.00,51.082
703.00,51.219
704.00,51.270
705.00,50.965
706.00,50.993
707.00,51.010
708.00,50.768
709.00,51.172
710.00,51.536
711.00,50.715
712.00,50.737
713.00,51.110
714.00,51.176
715.00,50.976
716.00,50.832
717.00,51.001
718.00,51.088
719.00,50.957
720.00,51.057
721.00,55.681
722.00,55.703
723.00,55.708
724.00,55.696
725.00,55.486
726.00,55.488
727.00,55.379
728.00,55.340
729.00,55.344
730.00,55.243
731.00,55.244
732.00,55.128
733.00,55.113
734.00,55.171
735.00,55.123
736.00,55.040
737.00,55.048
738.00,55.019
739.00,54.978
740.00,54.929
741.00,54.926
742.00,54.762
743.00,54.750
744.00,54.770
745.00,54.684
746.00,54.633
747.00,54.602
748.00,54.433
749.00,54.487
750.00,54.419
751.00,54.350
752.00,54.347
753.00,54.290
754.00,54.213
755.00,54.108
756.00,54.131
757.00,54.161
758.00,54.074
759.00,53.984
760.00,54.048
761.00,53.955
762.00,53.921
763.00,53.969
764.00,53.820
765.00,53.800
766.00,53.791
767.00,53.797
768.00,53.736
769.00,53.668
770.00,53.678
771.00,53.628
772.00,53.653
773.00,53.551
774.00,53.527
775.00,53.511
776.00,53.430
777.00,53.425
778.00,53.367
779.00,53.450
780.00,53.330
781.00,53.383
782.00,53.325
783.00,53.220
784.00,53.147
785.00,53.111
786.00,53.145
787.00,53.090
788.00,53.059
789.00,52.966
790.00,52.953
791.00,52.978
792.00,52.883
793.00,52.848
794.00,52.813
795.00,52.850
796.00,52.694
797.00,52.660
798.00,52.736
799.00,52.532
800.00,52.568
801.00,52.498
802.00,52.509
803.00,52.434
804.00,52.404
805.00,52.444
806.00,52.337
807.00,52.283
808.00,52.319
809.00,52.272
810.00,52.139
811.00,52.142
812.00,52.127
813.00,52.053
814.00,52.115
815.00,52.008
816.00,52.082
817.00,51.959
818.00,51.931
819.00,51.943
820.00,51.888
821.00,51.973
822.00,51.815
823.00,51.870
824.00,51.743
825.00,51.724
826.00,51.682
827.00,51.691
828.00,51.654
829.00,51.672
830.00,51.648
831.00,54.005
832.00,54.019
833.00,53.914
834.00,53.937
835.00,53.870
836.00,53.832
837.00,53.808
838.00,53.808
839.00,53.771
840.00,53.677
841.00,53.718
842.00,53.645
843.00,53.652
844.00,53.653
845.00,53.578
846.00,53.569
847.00,53.519
848.00,53.524
849.00,53.397
850.00,53.387
851.00,53.321
852.00,53.351
853.00,53.225
854.00,53.228
855.00,53.178
856.00,53.212
857.00,52.962
858.00,53.070
859.00,53.054
860.00,53.095
861.00,53.052
862.00,52.975
863.00,52.995
864.00,52.943
865.00,52.969
866.00,52.932
867.00,52.896
868.00,52.858
869.00,52.830
870.00,52.842
871.00,52.794
872.00,52.788
873.00,52.791
874.00,52.800
875.00,52.583
876.00,52.752
877.00,52.727
878.00,52.728
879.00,52.664
880.00,52.669
881.00,52.613
882.00,52.651
883.00,52.583
884.00,52.515
885.00,52.515
886.00,52.474
887.00,52.540
888.00,52.433
889.00,52.437
890.00,52.433
891.00,52.389
892.00,52.357
893.00,52.345
894.00,52.315
895.00,52.295
896.00,52.261
897.00,52.217
898.00,52.182
899.00,52.182
900.00,52.164
901.00,52.093
902.00,52.155
903.00,52.135
904.00,52.096
905.00,52.097
906.00,52.078
907.00,52.025
908.00,51.986
909.00,51.988
910.00,51.939
911.00,51.938
912.00,51.914
913.00,51.878
914.00,51.883
915.00,51.826
916.00,51.792
917.00,51.789
918.00,51.797
919.00,51.735
920.00,51.697
921.00,51.719
922.00,51.721
923.00,51.663
924.00,51.636
925.00,51.573
926.00,51.600
927.00,51.559
928.00,51.553
929.00,51.551
930.00,51.483
931.00,51.465
932.00,51.450
933.00,51.472
934.00,51.445
935.00,51.402
936.00,51.373
937.00,51.356
938.00,51.356
939.00,51.326
940.00,51.303
941.00,51.280
942.00,51.318
943.00,51.239
944.00,51.200
945.00,51.196
946.00,51.185
947.00,51.144
948.00,51.139
949.00,51.107
950.00,51.096
951.00,51.070
952.00,51.040
953.00,50.999
954.00,50.976
955.00,50.936
956.00,50.937
957.00,50.901
958.00,50.919
959.00,50.866
960.00,50.859
961.00,50.858
962.00,50.840
963.00,50.781
964.00,50.783
965.00,50.781
966.00,50.760
967.00,50.775
968.00,50.737
969.00,50.770
970.00,50.737
971.00,50.722
972.00,50.693
973.00,50.727
974.00,50.738
975.00,50.708
976.00,50.713
977.00,50.696
978.00,50.738
979.00,50.676
980.00,50.695
981.00,50.717
982.00,50.679
983.00,50.711
984.00,50.691
985.00,50.708
986.00,50.669
987.00,50.680
988.00,50.691
989.00,50.635
990.00,50.627
991.00,50.602
992.00,50.619
993.00,50.568
994.00,50.575
995.00,50.570
996.00,50.545
997.00,50.535
998.00,50.514
999.00,50.521
1000.00,50.487
1001.00,50.459
1002.00,50.444
1003.00,50.443
1004.00,50.430
1005.00,50.405
1006.00,50.441
1007.00,50.400
1008.00,50.387
1009.00,50.368
1010.00,50.358
1011.00,50.346
1012.00,50.305
1013.00,50.316
1014.00,50.290
1015.00,50.304
1016.00,50.263
1017.00,50.255
1018.00,50.245
1019.00,50.213
1020.00,50.210
1021.00,50.180
1022.00,50.195
1023.00,50.132
1024.00,50.137
1025.00,50.121
1026.00,50.094
1027.00,50.083
1028.00,50.068
1029.00,50.054
1030.00,50.013
1031.00,50.034
1032.00,49.987
1033.00,50.005
1034.00,49.969
1035.00,49.925
1036.00,49.922
1037.00,49.906
1038.00,49.895
1039.00,49.861
1040.00,49.858
1041.00,49.831
1042.00,49.838
1043.00,49.796
1044.00,49.829
1045.00,49.800
1046.00,49.801
1047.00,49.835
1048.00,49.831
1049.00,49.861
1050.00,49.834
1051.00,49.889
1052.00,49.882
1053.00,49.866
1054.00,49.865
1055.00,49.908
1056.00,49.902
1057.00,49.897
1058.00,49.891
1059.00,49.897
1060.00,49.913
1061.00,49.896
1062.00,49.879
1063.00,49.897
1064.00,49.898
1065.00,49.846
1066.00,49.853
1067.00,49.846
1068.00,49.863
1069.00,49.825
1070.00,49.801
1071.00,49.793
1072.00,49.820
1073.00,49.783
1074.00,49.791
1075.00,49.777
1076.00,49.788
1077.00,49.766
1078.00,49.724
1079.00,49.739
1080.00,49.745
1081.00,49.715
1082.00,49.718
1083.00,49.713
1084.00,49.704
1085.00,49.685
1086.00,49.687
1087.00,49.687
1088.00,49.675
1089.00,49.659
1090.00,49.658
1091.00,49.673
1092.00,49.639
1093.00,49.633
1094.00,49.623
1095.00,49.610
1096.00,49.589
1097.00,49.583
1098.00,49.563
1099.00,49.579
1100.00,49.559
1101.00,49.551
1102.00,49.551
1103.00,49.554
1104.00,49.535
1105.00,49.516
1106.00,49.503
1107.00,49.512
1108.00,49.502
1109.00,49.514
1110.00,49.510
1111.00,49.470
1112.00,49.462
1113.00,49.478
1114.00,49.450
1115.00,49.454
1116.00,49.461
1117.00,49.444
1118.00,49.421
1119.00,49.424
1120.00,49.441
1121.00,49.423
1122.00,49.399
1123.00,49.438
1124.00,49.401
1125.00,49.388
1126.00,49.383
1127.00,49.398
1128.00,49.371
1129.00,49.348
1130.00,49.341
1131.00,49.335
1132.00,49.327
1133.00,49.321
1134.00,49.320
1135.00,49.307
1136.00,49.303
1137.00,49.331
1138.00,49.336
1139.00,49.338
1140.00,49.316
1141.00,49.318
1142.00,49.298
1143.00,49.307
1144.00,49.274
1145.00,49.289
1146.00,49.292
1147.00,49.283
1148.00,49.284
1149.00,49.298
1150.00,49.284
1151.00,49.298
1152.00,49.285
1153.00,49.280
1154.00,49.278
1155.00,49.282
1156.00,49.284
1157.00,49.287
1158.00,49.270
1159.00,49.277
1160.00,49.271
1161.00,49.269
1162.00,49.265
1163.00,49.261
1164.00,49.259
1165.00,49.268
1166.00,49.270
1167.00,49.251
1168.00,49.292
1169.00,49.261
1170.00,49.259
1171.00,49.247
1172.00,49.246
1173.00,49.241
1174.00,49.244
1175.00,49.242
1176.00,49.241
1177.00,49.224
1178.00,49.223
1179.00,49.248
1180.00,49.225
1181.00,49.252
1182.00,49.236
1183.00,49.221
1184.00,49.223
1185.00,49.233
1186.00,49.233
1187.00,49.248
1188.00,49.238
1189.00,49.250
1190.00,49.247
1191.00,49.228
1192.00,49.262
1193.00,49.253
1194.00,49.254
1195.00,49.236
1196.00,49.260
1197.00,49.249
1198.00,49.254
1199.00,49.245
1200.00,49.249
1201.00,49.282
1202.00,49.232
1203.00,49.239
1204.00,49.230
1205.00,49.240
1206.00,49.239
1207.00,49.235
1208.00,49.223
1209.00,49.241
1210.00,49.241
1211.00,49.236
1212.00,49.260
1213.00,49.221
1214.00,49.256
1215.00,49.226
1216.00,49.235
1217.00,49.249
1218.00,49.237
1219.00,49.264
1220.00,49.241
1221.00,49.252
1222.00,49.247
1223.00,49.285
1224.00,49.264
1225.00,49.243
1226.00,49.263
1227.00,49.252
1228.00,49.274
1229.00,49.263
1230.00,49.300
1231.00,49.292
1232.00,49.300
1233.00,49.308
1234.00,49.326
1235.00,49.311
1236.00,49.309
1237.00,49.330
1238.00,49.319
1239.00,49.322
1240.00,49.305
1241.00,49.320
1242.00,49.348
1243.00,49.350
1244.00,49.317
1245.00,49.358
1246.00,49.354
1247.00,49.348
1248.00,49.352
1249.00,49.346
1250.00,49.360
1251.00,49.345
1252.00,49.391
1253.00,49.388
1254.00,49.410
1255.00,49.388
1256.00,49.380
1257.00,49.377
1258.00,49.427
1259.00,49.416
1260.00,49.419
1261.00,49.422
1262.00,49.417
1263.00,49.411
1264.00,49.430
1265.00,49.427
1266.00,49.425
1267.00,49.444
1268.00,49.430
1269.00,49.447
1270.00,49.471
1271.00,49.454
1272.00,49.465
1273.00,49.470
1274.00,49.468
1275.00,49.492
1276.00,49.472
1277.00,49.482
1278.00,49.510
1279.00,49.504
1280.00,49.510
1281.00,49.545
1282.00,49.550
1283.00,49.544
1284.00,49.550
1285.00,49.550
1286.00,49.561
1287.00,49.543
1288.00,49.549
1289.00,49.552
1290.00,49.590
1291.00,49.578
1292.00,49.575
1293.00,49.571
1294.00,49.606
1295.00,49.612
1296.00,49.624
1297.00,49.639
1298.00,49.656
1299.00,49.633
1300.00,49.671
1301.00,49.636
1302.00,49.672
1303.00,49.660
1304.00,49.638
1305.00,49.665
1306.00,49.663
1307.00,49.673
1308.00,49.689
1309.00,49.709
1310.00,49.714
1311.00,49.719
1312.00,49.712
1313.00,49.740
1314.00,49.752
1315.00,49.758
1316.00,49.761
1317.00,49.786
1318.00,49.771
1319.00,49.788
1320.00,49.777
1321.00,49.981
1322.00,49.962
1323.00,49.952
1324.00,49.927
1325.00,49.922
1326.00,49.949
1327.00,49.928
1328.00,49.947
1329.00,49.935
1330.00,49.953
1331.00,49.960
1332.00,49.956
1333.00,49.937
1334.00,49.955
1335.00,50.000
1336.00,50.066
1337.00,50.036
1338.00,50.123
1339.00,50.180
1340.00,50.231
1341.00,50.285
1342.00,50.362
1343.00,50.393
1344.00,50.448
1345.00,50.512
1346.00,50.540
1347.00,50.570
1348.00,50.598
1349.00,50.619
1350.00,50.635
1351.00,50.644
1352.00,50.661
1353.00,50.665
1354.00,50.665
1355.00,50.645
1356.00,50.670
1357.00,50.685
1358.00,50.745
1359.00,50.732
1360.00,50.758
1361.00,50.693
1362.00,50.736
1363.00,50.691
1364.00,50.696
1365.00,50.729
1366.00,50.776
1367.00,50.697
1368.00,50.739
1369.00,50.715
1370.00,50.704
1371.00,50.679
1372.00,50.696
1373.00,50.737
1374.00,50.756
1375.00,50.735
1376.00,50.725
1377.00,50.689
1378.00,50.809
1379.00,50.702
1380.00,50.727
1381.00,50.768
1382.00,50.578
1383.00,50.783
1384.00,50.677
1385.00,50.682
1386.00,50.721
1387.00,50.677
1388.00,50.669
1389.00,50.746
1390.00,50.733
1391.00,50.682
1392.00,50.726
1393.00,50.736
1394.00,50.763
1395.00,50.712
1396.00,50.677
1397.00,50.793
1398.00,50.647
1399.00,50.731
1400.00,50.676
1401.00,50.700
1402.00,50.817
1403.00,50.737
1404.00,50.723
1405.00,50.749
1406.00,50.803
1407.00,50.759
1408.00,50.772
1409.00,50.782
1410.00,50.801
1411.00,50.799
1412.00,50.863
1413.00,50.809
1414.00,50.801
1415.00,50.819
1416.00,50.870
1417.00,50.910
1418.00,50.860
1419.00,50.877
1420.00,50.894
1421.00,50.956
1422.00,50.938
1423.00,50.947
1424.00,50.962
1425.00,50.998
1426.00,50.973
1427.00,51.029
1428.00,51.024
1429.00,51.021
1430.00,51.054
1431.00,51.085
1432.00,51.088
1433.00,51.107
1434.00,51.104
1435.00,51.166
1436.00,51.169
1437.00,51.155
1438.00,51.195
1439.00,51.225
1440.00,51.221
1441.00,51.248
1442.00,51.260
1443.00,51.289
1444.00,51.341
1445.00,51.292
1446.00,51.326
1447.00,51.357
1448.00,51.382
1449.00,51.388
1450.00,51.389
1451.00,51.383
1452.00,51.440
1453.00,51.432
1454.00,51.464
1455.00,51.501
1456.00,51.510
1457.00,51.514
1458.00,51.561
1459.00,51.536
1460.00,51.577
1461.00,51.565
1462.00,51.587
1463.00,51.616
1464.00,51.620
1465.00,51.636
1466.00,51.644
1467.00,51.672
1468.00,51.732
1469.00,51.691
1470.00,51.711
1471.00,51.741
1472.00,51.732
1473.00,51.755
1474.00,51.808
1475.00,51.797
1476.00,51.815
1477.00,51.813
1478.00,51.839
1479.00,51.855
1480.00,51.854
1481.00,51.873
1482.00,51.906
1483.00,51.926
1484.00,51.932
1485.00,51.940
1486.00,51.953
1487.00,51.980
1488.00,52.026
1489.00,51.998
1490.00,52.018
1491.00,52.043
1492.00,52.051
1493.00,52.038
1494.00,52.082
1495.00,52.060
1496.00,52.100
1497.00,52.063
1498.00,52.097
1499.00,52.115
1500.00,52.131
1501.00, 
1502.00, 
1503.00, 
1504.00, 
1505.00, 
1506.00, 
1507.00, 
1508.00, 
1509.00, 
1510.00, 
1511.00, 
1512.00, 
1513.00, 
1514.00, 
1515.00, 
1516.00, 
1517.00, 
1518.00, 
1519.00, 
1520.00, 
1521.00, 
1522.00, 
1523.00, 
1524.00, 
1525.00, 
1526.00, 
1527.00, 
1528.00, 
1529.00, 
1530.00, 
1531.00, 
1532.00, 
1533.00, 
1534.00, 
1535.00, 
1536.00, 
1537.00, 
1538.00, 
1539.00, 
1540.00, 
1541.00, 
1542.00, 
1543.00, 
1544.00, 
1545.00, 
1546.00, 
1547.00, 
1548.00, 
1549.00, 
1550.00, 
1551.00, 
1552.00, 
1553.00, 
1554.00, 
1555.00, 
1556.00, 
1557.00, 
1558.00, 
1559.00, 
1560.00, 
1561.00, 
1562.00, 
1563.00, 
1564.00, 
1565.00, 
1566.00, 
1567.00, 
1568.00, 
1569.00, 
1570.00, 
1571.00, 
1572.00, 
1573.00, 
1574.00, 
1575.00, 
1576.00, 
1577.00, 
1578.00, 
1579.00, 
1580.00, 
1581.00, 
1582.00, 
1583.00, 
1584.00, 
1585.00, 
1586.00, 
1587.00, 
1588.00, 
1589.00, 
1590.00, 
1591.00, 
1592.00, 
1593.00, 
1594.00, 
1595.00, 
1596.00, 
1597.00, 
1598.00, 
1599.00, 
1600.00, 
1601.00, 
1602.00, 
1603.00, 
1604.00, 
1605.00, 
1606.00, 
1607.00, 
1608.00, 
1609.00, 
1610.00, 
1611.00, 
1612.00, 
1613.00, 
1614.00, 
1615.00, 
1616.00, 
1617.00, 
1618.00, 
1619.00, 
1620.00, 
1621.00, 
1622.00, 
1623.00, 
1624.00, 
1625.00, 
1626.00, 
1627.00, 
1628.00, 
1629.00, 
1630.00, 
1631.00, 
1632.00, 
1633.00, 
1634.00, 
1635.00, 
1636.00, 
1637.00, 
1638.00, 
1639.00, 
1640.00, 
1641.00, 
1642.00, 
1643.00, 
1644.00, 
1645.00, 
1646.00, 
1647.00, 
1648.00, 
1649.00, 
1650.00, 
1651.00, 
1652.00, 
1653.00, 
1654.00, 
1655.00, 
1656.00, 
1657.00, 
1658.00, 
1659.00, 
1660.00, 
1661.00, 
1662.00, 
1663.00, 
1664.00, 
1665.00, 
1666.00, 
1667.00, 
1668.00, 
1669.00, 
1670.00, 
1671.00, 
1672.00, 
1673.00, 
1674.00, 
1675.00, 
1676.00, 
1677.00, 
1678.00, 
1679.00, 
1680.00, 
1681.00, 
1682.00, 
1683.00, 
1684.00, 
1685.00, 
1686.00, 
1687.00, 
1688.00, 
1689.00, 
1690.00, 
1691.00, 
1692.00, 
1693.00, 
1694.00, 
1695.00, 
1696.00, 
1697.00, 
1698.00, 
1699.00, 
1700.00, 
1701.00, 
1702.00, 
1703.00, 
1704.00, 
1705.00, 
1706.00, 
1707.00, 
1708.00, 
1709.00, 
1710.00, 
1711.00, 
1712.00, 
1713.00, 
1714.00, 
1715.00, 
1716.00, 
1717.00, 
1718.00, 
1719.00, 
1720.00, 
1721.00, 
1722.00, 
1723.00, 
1724.00, 
1725.00, 
1726.00, 
1727.00, 
1728.00, 
1729.00, 
1730.00, 
1731.00, 
1732.00, 
1733.00, 
1734.00, 
1735.00, 
1736.00, 
1737.00, 
1738.00, 
1739.00, 
1740.00, 
1741.00, 
1742.00, 
1743.00, 
1744.00, 
1745.00, 
1746.00, 
1747.00, 
1748.00, 
1749.00, 
1750.00, 
1751.00, 
1752.00, 
1753.00, 
1754.00, 
1755.00, 
1756.00, 
1757.00, 
1758.00, 
1759.00, 
1760.00, 
1761.00, 
1762.00, 
1763.00, 
1764.00, 
1765.00, 
1766.00, 
1767.00, 
1768.00, 
1769.00, 
1770.00, 
1771.00, 
1772.00, 
1773.00, 
1774.00, 
1775.00, 
1776.00, 
1777.00, 
1778.00, 
1779.00, 
1780.00, 
1781.00, 
1782.00, 
1783.00, 
1784.00, 
1785.00, 
1786.00, 
1787.00, 
1788.00, 
1789.00, 
1790.00, 
1791.00, 
1792.00, 
1793.00, 
1794.00, 
1795.00, 
1796.00, 
1797.00, 
1798.00, 
1799.00, 
1800.00, 
1801.00, 
1802.00, 
1803.00, 
1804.00, 
1805.00, 
1806.00, 
1807.00, 
1808.00, 
1809.00, 
1810.00, 
1811.00, 
1812.00, 
1813.00, 
1814.00, 
1815.00, 
1816.00, 
1817.00, 
1818.00, 
1819.00, 
1820.00, 
1821.00, 
1822.00, 
1823.00, 
1824.00, 
1825.00, 
1826.00, 
1827.00, 
1828.00, 
1829.00, 
1830.00, 
1831.00, 
1832.00, 
1833.00, 
1834.00, 
1835.00, 
1836.00, 
1837.00, 
1838.00, 
1839.00, 
1840.00, 
1841.00, 
1842.00, 
1843.00, 
1844.00, 
1845.00, 
1846.00, 
1847.00, 
1848.00, 
1849.00, 
1850.00, 
1851.00, 
1852.00, 
1853.00, 
1854.00, 
1855.00, 
1856.00, 
1857.00, 
1858.00, 
1859.00, 
1860.00, 
1861.00, 
1862.00, 
1863.00, 
1864.00, 
1865.00, 
1866.00, 
1867.00, 
1868.00, 
1869.00, 
1870.00, 
1871.00, 
1872.00, 
1873.00, 
1874.00, 
1875.00, 
1876.00, 
1877.00, 
1878.00, 
1879.00, 
1880.00, 
1881.00, 
1882.00, 
1883.00, 
1884.00, 
1885.00, 
1886.00, 
1887.00, 
1888.00, 
1889.00, 
1890.00, 
1891.00, 
1892.00, 
1893.00, 
1894.00, 
1895.00, 
1896.00, 
1897.00, 
1898.00, 
1899.00, 
1900.00, 
1901.00, 
1902.00, 
1903.00, 
1904.00, 
1905.00, 
1906.00, 
1907.00, 
1908.00, 
1909.00, 
1910.00, 
1911.00, 
1912.00, 
1913.00, 
1914.00, 
1915.00, 
1916.00, 
1917.00, 
1918.00, 
1919.00, 
1920.00, 
1921.00, 
1922.00, 
1923.00, 
1924.00, 
1925.00, 
1926.00, 
1927.00, 
1928.00, 
1929.00, 
1930.00, 
1931.00, 
1932.00, 
1933.00, 
1934.00, 
1935.00, 
1936.00, 
1937.00, 
1938.00, 
1939.00, 
1940.00, 
1941.00, 
1942.00, 
1943.00, 
1944.00, 
1945.00, 
1946.00, 
1947.00, 
1948.00, 
1949.00, 
1950.00, 
1951.00, 
1952.00, 
1953.00, 
1954.00, 
1955.00, 
1956.00, 
1957.00, 
1958.00, 
1959.00, 
1960.00, 
1961.00, 
1962.00, 
1963.00, 
1964.00, 
1965.00, 
1966.00, 
1967.00, 
1968.00, 
1969.00, 
1970.00, 
1971.00, 
1972.00, 
1973.00, 
1974.00, 
1975.00, 
1976.00, 
1977.00, 
1978.00, 
1979.00, 
1980.00, 
1981.00, 
1982.00, 
1983.00, 
1984.00, 
1985.00, 
1986.00, 
1987.00, 
1988.00, 
1989.00, 
1990.00, 
1991.00, 
1992.00, 
1993.00, 
1994.00, 
1995.00, 
1996.00, 
1997.00, 
1998.00, 
1999.00, 
2000.00, 
2001.00, 
2002.00, 
2003.00, 
2004.00, 
2005.00, 
2006.00, 
2007.00, 
2008.00, 
2009.00, 
2010.00, 
2011.00, 
2012.00, 
2013.00, 
2014.00, 
2015.00, 
2016.00, 
2017.00, 
2018.00, 
2019.00, 
2020.00, 
2021.00, 
2022.00, 
2023.00, 
2024.00, 
2025.00, 
2026.00, 
2027.00, 
2028.00, 
2029.00, 
2030.00, 
2031.00, 
2032.00, 
2033.00, 
2034.00, 
2035.00, 
2036.00, 
2037.00, 
2038.00, 
2039.00, 
2040.00, 
2041.00, 
2042.00, 
2043.00, 
2044.00, 
2045.00, 
2046.00, 
2047.00, 
2048.00, 
2049.00, 
2050.00, 
2051.00, 
2052.00, 
2053.00, 
2054.00, 
2055.00, 
2056.00, 
2057.00, 
2058.00, 
2059.00, 
2060.00, 
2061.00, 
2062.00, 
2063.00, 
2064.00, 
2065.00, 
2066.00, 
2067.00, 
2068.00, 
2069.00, 
2070.00, 
2071.00, 
2072.00, 
2073.00, 
2074.00, 
2075.00, 
2076.00, 
2077.00, 
2078.00, 
2079.00, 
2080.00, 
2081.00, 
2082.00, 
2083.00, 
2084.00, 
2085.00, 
2086.00, 
2087.00, 
2088.00, 
2089.00, 
2090.00, 
2091.00, 
2092.00, 
2093.00, 
2094.00, 
2095.00, 
2096.00, 
2097.00, 
2098.00, 
2099.00, 
2100.00, 
2101.00, 
2102.00, 
2103.00, 
2104.00, 
2105.00, 
2106.00, 
2107.00, 
2108.00, 
2109.00, 
2110.00, 
2111.00, 
2112.00, 
2113.00, 
2114.00, 
2115.00, 
2116.00, 
2117.00, 
2118.00, 
2119.00, 
2120.00, 
2121.00, 
2122.00, 
2123.00, 
2124.00, 
2125.00, 
2126.00, 
2127.00, 
2128.00, 
2129.00, 
2130.00, 
2131.00, 
2132.00, 
2133.00, 
2134.00, 
2135.00, 
2136.00, 
2137.00, 
2138.00, 
2139.00, 
2140.00, 
2141.00, 
2142.00, 
2143.00, 
2144.00, 
2145.00, 
2146.00, 
2147.00, 
2148.00, 
2149.00, 
2150.00, 
2151.00, 
2152.00, 
2153.00, 
2154.00, 
2155.00, 
2156.00, 
2157.00, 
2158.00, 
2159.00, 
2160.00, 
2161.00, 
2162.00, 
2163.00, 
2164.00, 
2165.00, 
2166.00, 
2167.00, 
2168.00, 
2169.00, 
2170.00, 
2171.00, 
2172.00, 
2173.00, 
2174.00, 
2175.00, 
2176.00, 
2177.00, 
2178.00, 
2179.00, 
2180.00, 
2181.00, 
2182.00, 
2183.00, 
2184.00, 
2185.00, 
2186.00, 
2187.00, 
2188.00, 
2189.00, 
2190.00, 
2191.00, 
2192.00, 
2193.00, 
2194.00, 
2195.00, 
2196.00, 
2197.00, 
2198.00, 
2199.00, 
2200.00, 
2201.00, 
2202.00, 
2203.00, 
2204.00, 
2205.00, 
2206.00, 
2207.00, 
2208.00, 
2209.00, 
2210.00, 
2211.00, 
2212.00, 
2213.00, 
2214.00, 
2215.00, 
2216.00, 
2217.00, 
2218.00, 
2219.00, 
2220.00, 
2221.00, 
2222.00, 
2223.00, 
2224.00, 
2225.00, 
2226.00, 
2227.00, 
2228.00, 
2229.00, 
2230.00, 
2231.00, 
2232.00, 
2233.00, 
2234.00, 
2235.00, 
2236.00, 
2237.00, 
2238.00, 
2239.00, 
2240.00, 
2241.00, 
2242.00, 
2243.00, 
2244.00, 
2245.00, 
2246.00, 
2247.00, 
2248.00, 
2249.00, 
2250.00, 
2251.00, 
2252.00, 
2253.00, 
2254.00, 
2255.00, 
2256.00, 
2257.00, 
2258.00, 
2259.00, 
2260.00, 
2261.00, 
2262.00, 
2263.00, 
2264.00, 
2265.00, 
2266.00, 
2267.00, 
2268.00, 
2269.00, 
2270.00, 
2271.00, 
2272.00, 
2273.00, 
2274.00, 
2275.00, 
2276.00, 
2277.00, 
2278.00, 
2279.00, 
2280.00, 
2281.00, 
2282.00, 
2283.00, 
2284.00, 
2285.00, 
2286.00, 
2287.00, 
2288.00, 
2289.00, 
2290.00, 
2291.00, 
2292.00, 
2293.00, 
2294.00, 
2295.00, 
2296.00, 
2297.00, 
2298.00, 
2299.00, 
2300.00, 
2301.00, 
2302.00, 
2303.00, 
2304.00, 
2305.00, 
2306.00, 
2307.00, 
2308.00, 
2309.00, 
2310.00, 
2311.00, 
2312.00, 
2313.00, 
2314.00, 
2315.00, 
2316.00, 
2317.00, 
2318.00, 
2319.00, 
2320.00, 
2321.00, 
2322.00, 
2323.00, 
2324.00, 
2325.00, 
2326.00, 
2327.00, 
2328.00, 
2329.00, 
2330.00, 
2331.00, 
2332.00, 
2333.00, 
2334.00, 
2335.00, 
2336.00, 
2337.00, 
2338.00, 
2339.00, 
2340.00, 
2341.00, 
2342.00, 
2343.00, 
2344.00, 
2345.00, 
2346.00, 
2347.00, 
2348.00, 
2349.00, 
2350.00, 
2351.00, 
2352.00, 
2353.00, 
2354.00, 
2355.00, 
2356.00, 
2357.00, 
2358.00, 
2359.00, 
2360.00, 
2361.00, 
2362.00, 
2363.00, 
2364.00, 
2365.00, 
2366.00, 
2367.00, 
2368.00, 
2369.00, 
2370.00, 
2371.00, 
2372.00, 
2373.00, 
2374.00, 
2375.00, 
2376.00, 
2377.00, 
2378.00, 
2379.00, 
2380.00, 
2381.00, 
2382.00, 
2383.00, 
2384.00, 
2385.00, 
2386.00, 
2387.00, 
2388.00, 
2389.00, 
2390.00, 
2391.00, 
2392.00, 
2393.00, 
2394.00, 
2395.00, 
2396.00, 
2397.00, 
2398.00, 
2399.00, 
2400.00, 
2401.00, 
2402.00, 
2403.00, 
2404.00, 
2405.00, 
2406.00, 
2407.00, 
2408.00, 
2409.00, 
2410.00, 
2411.00, 
2412.00, 
2413.00, 
2414.00, 
2415.00, 
2416.00, 
2417.00, 
2418.00, 
2419.00, 
2420.00, 
2421.00, 
2422.00, 
2423.00, 
2424.00, 
2425.00, 
2426.00, 
2427.00, 
2428.00, 
2429.00, 
2430.00, 
2431.00, 
2432.00, 
2433.00, 
2434.00, 
2435.00, 
2436.00, 
2437.00, 
2438.00, 
2439.00, 
2440.00, 
2441.00, 
2442.00, 
2443.00, 
2444.00, 
2445.00, 
2446.00, 
2447.00, 
2448.00, 
2449.00, 
2450.00, 
2451.00, 
2452.00, 
2453.00, 
2454.00, 
2455.00, 
2456.00, 
2457.00, 
2458.00, 
2459.00, 
2460.00, 
2461.00, 
2462.00, 
2463.00, 
2464.00, 
2465.00, 
2466.00, 
2467.00, 
2468.00, 
2469.00, 
2470.00, 
2471.00, 
2472.00, 
2473.00, 
2474.00, 
2475.00, 
2476.00, 
2477.00, 
2478.00, 
2479.00, 
2480.00, 
2481.00, 
2482.00, 
2483.00, 
2484.00, 
2485.00, 
2486.00, 
2487.00, 
2488.00, 
2489.00, 
2490.00, 
2491.00, 
2492.00, 
2493.00, 
2494.00, 
2495.00, 
2496.00, 
2497.00, 
2498.00, 
2499.00, 
2500.00, 
2501.00, 
2502.00, 
2503.00, 
2504.00, 
2505.00, 
2506.00, 
2507.00, 
2508.00, 
2509.00, 
2510.00, 
2511.00, 
2512.00, 
2513.00, 
2514.00, 
2515.00, 
2516.00, 
2517.00, 
2518.00, 
2519.00, 
2520.00, 
2521.00, 
2522.00, 
2523.00, 
2524.00, 
2525.00, 
2526.00, 
2527.00, 
2528.00, 
2529.00, 
2530.00, 
2531.00, 
2532.00, 
2533.00, 
2534.00, 
2535.00, 
2536.00, 
2537.00, 
2538.00, 
2539.00, 
2540.00, 
2541.00, 
2542.00, 
2543.00, 
2544.00, 
2545.00, 
2546.00, 
2547.00, 
2548.00, 
2549.00, 
2550.00, 
2551.00, 
2552.00, 
2553.00, 
2554.00, 
2555.00, 
2556.00, 
2557.00, 
2558.00, 
2559.00, 
2560.00, 
2561.00, 
2562.00, 
2563.00, 
2564.00, 
2565.00, 
2566.00, 
2567.00, 
2568.00, 
2569.00, 
2570.00, 
2571.00, 
2572.00, 
2573.00, 
2574.00, 
2575.00, 
2576.00, 
2577.00, 
2578.00, 
2579.00, 
2580.00, 
2581.00, 
2582.00, 
2583.00, 
2584.00, 
2585.00, 
2586.00, 
2587.00, 
2588.00, 
2589.00, 
2590.00, 
2591.00, 
2592.00, 
2593.00, 
2594.00, 
2595.00, 
2596.00, 
2597.00, 
2598.00, 
2599.00, 
2600.00, 
