"2cP2 - RawData"
"Wavelength nm.","T%"
200.00,0.003
201.00,0.001
202.00,0.002
203.00,0.003
204.00,0.002
205.00,0.002
206.00,0.001
207.00,0.001
208.00,-0.000
209.00,0.002
210.00,0.002
211.00,0.002
212.00,0.004
213.00,0.003
214.00,-0.000
215.00,0.003
216.00,0.001
217.00,0.001
218.00,0.000
219.00,0.003
220.00,0.002
221.00,0.004
222.00,0.003
223.00,0.002
224.00,-0.001
225.00,-0.001
226.00,0.002
227.00,0.002
228.00,-0.001
229.00,-0.001
230.00,-0.002
231.00,-0.001
232.00,0.001
233.00,0.000
234.00,-0.001
235.00,0.002
236.00,0.001
237.00,0.001
238.00,-0.000
239.00,0.000
240.00,0.000
241.00,0.001
242.00,0.001
243.00,0.001
244.00,0.001
245.00,-0.001
246.00,0.000
247.00,0.002
248.00,-0.002
249.00,0.001
250.00,0.001
251.00,-0.000
252.00,0.000
253.00,0.001
254.00,0.001
255.00,0.001
256.00,0.001
257.00,0.003
258.00,-0.001
259.00,-0.001
260.00,-0.002
261.00,0.002
262.00,-0.002
263.00,0.000
264.00,0.002
265.00,0.002
266.00,-0.001
267.00,-0.001
268.00,-0.000
269.00,0.000
270.00,0.002
271.00,-0.000
272.00,0.000
273.00,0.001
274.00,0.001
275.00,-0.002
276.00,-0.002
277.00,0.001
278.00,-0.001
279.00,0.001
280.00,0.001
281.00,0.001
282.00,0.003
283.00,0.001
284.00,0.000
285.00,0.001
286.00,0.001
287.00,0.003
288.00,0.001
289.00,-0.002
290.00,-0.001
291.00,0.000
292.00,0.003
293.00,0.000
294.00,0.002
295.00,-0.000
296.00,0.002
297.00,0.000
298.00,0.001
299.00,0.002
300.00,0.004
301.00,0.006
302.00,0.008
303.00,0.013
304.00,0.019
305.00,0.032
306.00,0.049
307.00,0.072
308.00,0.115
309.00,0.177
310.00,0.244
311.00,0.340
312.00,0.466
313.00,0.632
314.00,0.828
315.00,1.078
316.00,1.377
317.00,1.744
318.00,2.145
319.00,2.649
320.00,3.233
321.00,3.863
322.00,4.588
323.00,5.411
324.00,6.253
325.00,7.135
326.00,8.046
327.00,9.093
328.00,10.173
329.00,11.255
330.00,12.440
331.00,13.554
332.00,14.713
333.00,15.975
334.00,17.114
335.00,18.360
336.00,19.586
337.00,20.768
338.00,21.962
339.00,23.040
340.00,24.221
341.00,25.374
342.00,26.403
343.00,27.490
344.00,28.440
345.00,29.351
346.00,30.176
347.00,31.064
348.00,31.949
349.00,32.683
350.00,33.383
351.00,34.065
352.00,34.741
353.00,35.262
354.00,35.940
355.00,36.410
356.00,37.010
357.00,37.567
358.00,37.964
359.00,38.411
360.00,38.868
361.00,39.171
362.00,39.599
363.00,39.959
364.00,40.294
365.00,40.543
366.00,40.798
367.00,41.047
368.00,41.192
369.00,41.385
370.00,41.535
371.00,41.693
372.00,41.836
373.00,41.876
374.00,41.893
375.00,41.949
376.00,41.943
377.00,41.954
378.00,41.901
379.00,41.933
380.00,41.928
381.00,41.968
382.00,42.044
383.00,42.153
384.00,42.250
385.00,42.402
386.00,42.517
387.00,42.687
388.00,42.798
389.00,42.900
390.00,43.059
391.00,43.151
392.00,43.313
393.00,43.370
394.00,43.477
395.00,43.458
396.00,43.557
397.00,43.573
398.00,43.708
399.00,43.793
400.00,43.846
401.00,43.867
402.00,43.894
403.00,43.883
404.00,43.934
405.00,43.874
406.00,43.960
407.00,43.908
408.00,43.931
409.00,43.886
410.00,43.821
411.00,43.762
412.00,43.658
413.00,43.755
414.00,43.735
415.00,43.755
416.00,43.794
417.00,43.798
418.00,43.798
419.00,43.828
420.00,43.872
421.00,43.976
422.00,44.009
423.00,44.079
424.00,44.043
425.00,43.975
426.00,43.918
427.00,43.984
428.00,44.138
429.00,44.117
430.00,44.160
431.00,44.192
432.00,44.168
433.00,44.256
434.00,44.267
435.00,44.274
436.00,44.319
437.00,44.345
438.00,44.409
439.00,44.449
440.00,44.464
441.00,44.478
442.00,44.416
443.00,44.602
444.00,44.637
445.00,44.688
446.00,44.727
447.00,44.816
448.00,44.853
449.00,44.959
450.00,44.969
451.00,45.037
452.00,45.100
453.00,45.144
454.00,45.195
455.00,45.259
456.00,45.354
457.00,45.418
458.00,45.427
459.00,45.494
460.00,45.593
461.00,45.606
462.00,45.667
463.00,45.714
464.00,45.827
465.00,45.878
466.00,45.862
467.00,46.002
468.00,45.998
469.00,46.029
470.00,46.072
471.00,46.087
472.00,46.137
473.00,46.117
474.00,46.185
475.00,46.220
476.00,46.171
477.00,46.304
478.00,46.314
479.00,46.422
480.00,46.501
481.00,46.516
482.00,46.609
483.00,46.645
484.00,46.680
485.00,46.910
486.00,46.842
487.00,46.967
488.00,46.862
489.00,47.191
490.00,47.251
491.00,47.303
492.00,47.488
493.00,47.469
494.00,47.358
495.00,47.453
496.00,47.570
497.00,47.571
498.00,47.707
499.00,47.779
500.00,47.847
501.00,47.848
502.00,47.918
503.00,47.969
504.00,47.980
505.00,48.095
506.00,48.131
507.00,48.003
508.00,48.121
509.00,48.109
510.00,48.257
511.00,48.320
512.00,48.378
513.00,48.453
514.00,48.491
515.00,48.560
516.00,48.620
517.00,48.749
518.00,48.731
519.00,48.771
520.00,48.712
521.00,48.707
522.00,48.867
523.00,48.798
524.00,48.807
525.00,48.865
526.00,48.941
527.00,48.987
528.00,48.970
529.00,49.068
530.00,49.081
531.00,49.225
532.00,49.237
533.00,49.349
534.00,49.382
535.00,49.411
536.00,49.498
537.00,49.496
538.00,49.532
539.00,49.526
540.00,49.574
541.00,49.563
542.00,49.582
543.00,49.653
544.00,49.643
545.00,49.708
546.00,49.722
547.00,49.792
548.00,49.774
549.00,49.790
550.00,49.891
551.00,49.887
552.00,49.915
553.00,50.052
554.00,50.088
555.00,50.155
556.00,50.064
557.00,50.141
558.00,50.183
559.00,50.155
560.00,50.194
561.00,50.225
562.00,50.262
563.00,50.272
564.00,50.356
565.00,50.253
566.00,50.311
567.00,50.289
568.00,50.122
569.00,50.344
570.00,50.324
571.00,50.365
572.00,50.398
573.00,50.356
574.00,50.402
575.00,50.400
576.00,50.367
577.00,50.439
578.00,50.440
579.00,50.486
580.00,50.552
581.00,50.641
582.00,50.659
583.00,50.689
584.00,50.811
585.00,50.830
586.00,50.882
587.00,50.929
588.00,50.882
589.00,50.926
590.00,50.951
591.00,50.983
592.00,50.910
593.00,50.877
594.00,50.974
595.00,50.960
596.00,51.033
597.00,51.057
598.00,51.142
599.00,51.126
600.00,51.108
601.00,51.111
602.00,51.219
603.00,51.184
604.00,51.195
605.00,51.240
606.00,51.277
607.00,51.217
608.00,51.301
609.00,51.170
610.00,51.235
611.00,51.294
612.00,51.276
613.00,51.202
614.00,51.250
615.00,51.231
616.00,51.262
617.00,51.282
618.00,51.250
619.00,51.358
620.00,51.343
621.00,51.260
622.00,51.293
623.00,51.265
624.00,51.275
625.00,51.421
626.00,51.420
627.00,51.446
628.00,51.388
629.00,51.435
630.00,51.382
631.00,51.368
632.00,51.384
633.00,51.378
634.00,51.362
635.00,51.434
636.00,51.478
637.00,51.479
638.00,51.321
639.00,51.455
640.00,51.480
641.00,51.549
642.00,51.528
643.00,51.518
644.00,51.604
645.00,51.621
646.00,51.595
647.00,51.640
648.00,51.617
649.00,51.605
650.00,51.581
651.00,51.669
652.00,51.638
653.00,51.614
654.00,51.667
655.00,51.600
656.00,51.688
657.00,51.593
658.00,51.554
659.00,51.550
660.00,51.788
661.00,51.649
662.00,51.716
663.00,51.707
664.00,51.797
665.00,51.768
666.00,51.712
667.00,51.644
668.00,52.114
669.00,52.000
670.00,51.903
671.00,51.851
672.00,51.860
673.00,51.835
674.00,51.811
675.00,51.882
676.00,51.961
677.00,51.917
678.00,51.820
679.00,51.776
680.00,51.919
681.00,51.825
682.00,51.765
683.00,51.953
684.00,52.043
685.00,51.911
686.00,51.699
687.00,51.870
688.00,51.763
689.00,51.783
690.00,51.910
691.00,51.842
692.00,51.876
693.00,51.902
694.00,51.812
695.00,51.752
696.00,51.845
697.00,51.870
698.00,51.884
699.00,51.963
700.00,51.963
701.00,51.808
702.00,51.984
703.00,51.906
704.00,51.927
705.00,51.832
706.00,51.926
707.00,51.949
708.00,51.667
709.00,51.825
710.00,52.099
711.00,51.748
712.00,51.687
713.00,51.829
714.00,51.785
715.00,51.715
716.00,51.740
717.00,51.835
718.00,51.715
719.00,51.702
720.00,51.820
721.00,56.014
722.00,55.908
723.00,55.901
724.00,55.853
725.00,55.768
726.00,55.724
727.00,55.664
728.00,55.601
729.00,55.547
730.00,55.515
731.00,55.460
732.00,55.383
733.00,55.366
734.00,55.394
735.00,55.342
736.00,55.305
737.00,55.221
738.00,55.290
739.00,55.221
740.00,55.134
741.00,55.126
742.00,55.033
743.00,54.948
744.00,54.910
745.00,54.954
746.00,54.842
747.00,54.844
748.00,54.779
749.00,54.673
750.00,54.653
751.00,54.547
752.00,54.467
753.00,54.441
754.00,54.496
755.00,54.409
756.00,54.375
757.00,54.340
758.00,54.312
759.00,54.296
760.00,54.257
761.00,54.096
762.00,54.185
763.00,54.222
764.00,54.076
765.00,54.042
766.00,54.012
767.00,53.999
768.00,53.956
769.00,53.860
770.00,53.923
771.00,53.871
772.00,53.866
773.00,53.746
774.00,53.729
775.00,53.746
776.00,53.640
777.00,53.701
778.00,53.622
779.00,53.610
780.00,53.498
781.00,53.576
782.00,53.601
783.00,53.477
784.00,53.369
785.00,53.425
786.00,53.419
787.00,53.392
788.00,53.323
789.00,53.225
790.00,53.167
791.00,53.177
792.00,53.162
793.00,53.091
794.00,53.031
795.00,52.995
796.00,52.987
797.00,52.931
798.00,52.953
799.00,52.922
800.00,52.912
801.00,52.780
802.00,52.775
803.00,52.793
804.00,52.722
805.00,52.661
806.00,52.668
807.00,52.604
808.00,52.607
809.00,52.535
810.00,52.475
811.00,52.438
812.00,52.450
813.00,52.358
814.00,52.431
815.00,52.442
816.00,52.349
817.00,52.260
818.00,52.235
819.00,52.202
820.00,52.147
821.00,52.288
822.00,52.235
823.00,52.083
824.00,52.128
825.00,52.053
826.00,52.049
827.00,52.179
828.00,52.016
829.00,51.933
830.00,51.880
831.00,54.520
832.00,54.536
833.00,54.440
834.00,54.440
835.00,54.431
836.00,54.363
837.00,54.343
838.00,54.301
839.00,54.268
840.00,54.199
841.00,54.240
842.00,54.174
843.00,54.161
844.00,54.153
845.00,54.092
846.00,54.081
847.00,54.044
848.00,54.010
849.00,53.925
850.00,53.899
851.00,53.846
852.00,53.862
853.00,53.761
854.00,53.722
855.00,53.721
856.00,53.726
857.00,53.466
858.00,53.623
859.00,53.562
860.00,53.521
861.00,53.682
862.00,53.464
863.00,53.519
864.00,53.444
865.00,53.452
866.00,53.446
867.00,53.392
868.00,53.395
869.00,53.351
870.00,53.345
871.00,53.322
872.00,53.304
873.00,53.290
874.00,53.299
875.00,53.109
876.00,53.262
877.00,53.232
878.00,53.233
879.00,53.190
880.00,53.167
881.00,53.098
882.00,53.156
883.00,53.098
884.00,53.054
885.00,53.033
886.00,53.025
887.00,52.990
888.00,52.971
889.00,52.949
890.00,52.943
891.00,52.868
892.00,52.851
893.00,52.814
894.00,52.811
895.00,52.786
896.00,52.758
897.00,52.727
898.00,52.707
899.00,52.677
900.00,52.682
901.00,52.633
902.00,52.680
903.00,52.632
904.00,52.614
905.00,52.594
906.00,52.581
907.00,52.551
908.00,52.514
909.00,52.494
910.00,52.456
911.00,52.456
912.00,52.461
913.00,52.383
914.00,52.399
915.00,52.376
916.00,52.284
917.00,52.381
918.00,52.295
919.00,52.265
920.00,52.227
921.00,52.229
922.00,52.227
923.00,52.196
924.00,52.158
925.00,52.133
926.00,52.201
927.00,52.060
928.00,52.082
929.00,52.082
930.00,52.031
931.00,52.006
932.00,52.065
933.00,51.974
934.00,51.965
935.00,51.942
936.00,51.916
937.00,51.912
938.00,51.872
939.00,51.871
940.00,51.837
941.00,51.823
942.00,51.787
943.00,51.774
944.00,51.751
945.00,51.717
946.00,51.721
947.00,51.682
948.00,51.670
949.00,51.619
950.00,51.628
951.00,51.617
952.00,51.563
953.00,51.551
954.00,51.522
955.00,51.480
956.00,51.472
957.00,51.419
958.00,51.439
959.00,51.372
960.00,51.370
961.00,51.361
962.00,51.333
963.00,51.328
964.00,51.302
965.00,51.285
966.00,51.277
967.00,51.280
968.00,51.230
969.00,51.267
970.00,51.245
971.00,51.229
972.00,51.229
973.00,51.233
974.00,51.246
975.00,51.223
976.00,51.240
977.00,51.216
978.00,51.308
979.00,51.225
980.00,51.247
981.00,51.248
982.00,51.194
983.00,51.231
984.00,51.212
985.00,51.232
986.00,51.183
987.00,51.195
988.00,51.161
989.00,51.147
990.00,51.140
991.00,51.125
992.00,51.127
993.00,51.080
994.00,51.084
995.00,51.091
996.00,51.068
997.00,51.062
998.00,51.033
999.00,51.052
1000.00,51.002
1001.00,50.996
1002.00,50.992
1003.00,50.989
1004.00,50.976
1005.00,50.955
1006.00,50.970
1007.00,50.935
1008.00,50.933
1009.00,50.910
1010.00,50.879
1011.00,50.881
1012.00,50.838
1013.00,50.853
1014.00,50.821
1015.00,50.817
1016.00,50.795
1017.00,50.789
1018.00,50.776
1019.00,50.749
1020.00,50.732
1021.00,50.718
1022.00,50.709
1023.00,50.694
1024.00,50.699
1025.00,50.638
1026.00,50.619
1027.00,50.617
1028.00,50.611
1029.00,50.596
1030.00,50.565
1031.00,50.575
1032.00,50.530
1033.00,50.545
1034.00,50.514
1035.00,50.473
1036.00,50.458
1037.00,50.438
1038.00,50.452
1039.00,50.394
1040.00,50.388
1041.00,50.358
1042.00,50.354
1043.00,50.322
1044.00,50.350
1045.00,50.309
1046.00,50.312
1047.00,50.342
1048.00,50.336
1049.00,50.355
1050.00,50.352
1051.00,50.380
1052.00,50.393
1053.00,50.383
1054.00,50.399
1055.00,50.412
1056.00,50.411
1057.00,50.418
1058.00,50.394
1059.00,50.375
1060.00,50.400
1061.00,50.395
1062.00,50.372
1063.00,50.384
1064.00,50.371
1065.00,50.359
1066.00,50.362
1067.00,50.339
1068.00,50.365
1069.00,50.329
1070.00,50.295
1071.00,50.297
1072.00,50.306
1073.00,50.270
1074.00,50.282
1075.00,50.263
1076.00,50.249
1077.00,50.235
1078.00,50.219
1079.00,50.224
1080.00,50.226
1081.00,50.197
1082.00,50.206
1083.00,50.184
1084.00,50.176
1085.00,50.167
1086.00,50.165
1087.00,50.167
1088.00,50.142
1089.00,50.130
1090.00,50.144
1091.00,50.126
1092.00,50.101
1093.00,50.093
1094.00,50.093
1095.00,50.075
1096.00,50.072
1097.00,50.055
1098.00,50.050
1099.00,50.048
1100.00,50.016
1101.00,50.014
1102.00,50.008
1103.00,49.991
1104.00,49.997
1105.00,49.978
1106.00,49.974
1107.00,49.970
1108.00,49.959
1109.00,49.959
1110.00,49.954
1111.00,49.937
1112.00,49.925
1113.00,49.915
1114.00,49.895
1115.00,49.917
1116.00,49.918
1117.00,49.871
1118.00,49.880
1119.00,49.861
1120.00,49.866
1121.00,49.864
1122.00,49.842
1123.00,49.853
1124.00,49.838
1125.00,49.817
1126.00,49.828
1127.00,49.821
1128.00,49.808
1129.00,49.804
1130.00,49.784
1131.00,49.784
1132.00,49.776
1133.00,49.754
1134.00,49.774
1135.00,49.756
1136.00,49.747
1137.00,49.760
1138.00,49.750
1139.00,49.744
1140.00,49.743
1141.00,49.732
1142.00,49.723
1143.00,49.734
1144.00,49.692
1145.00,49.709
1146.00,49.712
1147.00,49.690
1148.00,49.694
1149.00,49.699
1150.00,49.699
1151.00,49.718
1152.00,49.685
1153.00,49.690
1154.00,49.681
1155.00,49.681
1156.00,49.687
1157.00,49.693
1158.00,49.665
1159.00,49.665
1160.00,49.664
1161.00,49.655
1162.00,49.660
1163.00,49.653
1164.00,49.651
1165.00,49.649
1166.00,49.637
1167.00,49.638
1168.00,49.655
1169.00,49.644
1170.00,49.646
1171.00,49.613
1172.00,49.618
1173.00,49.614
1174.00,49.621
1175.00,49.625
1176.00,49.629
1177.00,49.619
1178.00,49.611
1179.00,49.633
1180.00,49.597
1181.00,49.625
1182.00,49.618
1183.00,49.601
1184.00,49.606
1185.00,49.609
1186.00,49.604
1187.00,49.603
1188.00,49.581
1189.00,49.602
1190.00,49.596
1191.00,49.579
1192.00,49.603
1193.00,49.590
1194.00,49.596
1195.00,49.578
1196.00,49.583
1197.00,49.586
1198.00,49.589
1199.00,49.573
1200.00,49.585
1201.00,49.599
1202.00,49.559
1203.00,49.568
1204.00,49.557
1205.00,49.568
1206.00,49.563
1207.00,49.576
1208.00,49.570
1209.00,49.550
1210.00,49.543
1211.00,49.549
1212.00,49.564
1213.00,49.518
1214.00,49.568
1215.00,49.544
1216.00,49.537
1217.00,49.553
1218.00,49.549
1219.00,49.562
1220.00,49.558
1221.00,49.552
1222.00,49.559
1223.00,49.603
1224.00,49.572
1225.00,49.561
1226.00,49.565
1227.00,49.546
1228.00,49.579
1229.00,49.562
1230.00,49.606
1231.00,49.595
1232.00,49.589
1233.00,49.605
1234.00,49.600
1235.00,49.576
1236.00,49.586
1237.00,49.604
1238.00,49.607
1239.00,49.614
1240.00,49.606
1241.00,49.611
1242.00,49.625
1243.00,49.635
1244.00,49.625
1245.00,49.637
1246.00,49.631
1247.00,49.643
1248.00,49.632
1249.00,49.620
1250.00,49.636
1251.00,49.634
1252.00,49.658
1253.00,49.648
1254.00,49.674
1255.00,49.671
1256.00,49.659
1257.00,49.626
1258.00,49.683
1259.00,49.666
1260.00,49.675
1261.00,49.688
1262.00,49.661
1263.00,49.663
1264.00,49.671
1265.00,49.664
1266.00,49.681
1267.00,49.683
1268.00,49.682
1269.00,49.684
1270.00,49.694
1271.00,49.688
1272.00,49.709
1273.00,49.709
1274.00,49.712
1275.00,49.729
1276.00,49.712
1277.00,49.719
1278.00,49.734
1279.00,49.720
1280.00,49.749
1281.00,49.760
1282.00,49.761
1283.00,49.763
1284.00,49.751
1285.00,49.745
1286.00,49.759
1287.00,49.740
1288.00,49.760
1289.00,49.758
1290.00,49.773
1291.00,49.778
1292.00,49.784
1293.00,49.757
1294.00,49.793
1295.00,49.794
1296.00,49.798
1297.00,49.800
1298.00,49.816
1299.00,49.815
1300.00,49.826
1301.00,49.812
1302.00,49.821
1303.00,49.845
1304.00,49.815
1305.00,49.849
1306.00,49.842
1307.00,49.850
1308.00,49.854
1309.00,49.857
1310.00,49.882
1311.00,49.873
1312.00,49.861
1313.00,49.880
1314.00,49.883
1315.00,49.887
1316.00,49.895
1317.00,49.914
1318.00,49.909
1319.00,49.915
1320.00,49.933
1321.00,50.080
1322.00,50.095
1323.00,50.082
1324.00,50.080
1325.00,50.055
1326.00,50.094
1327.00,50.082
1328.00,50.076
1329.00,50.081
1330.00,50.075
1331.00,50.075
1332.00,50.066
1333.00,50.065
1334.00,50.115
1335.00,50.122
1336.00,50.154
1337.00,50.174
1338.00,50.238
1339.00,50.286
1340.00,50.340
1341.00,50.404
1342.00,50.481
1343.00,50.527
1344.00,50.572
1345.00,50.634
1346.00,50.678
1347.00,50.681
1348.00,50.713
1349.00,50.717
1350.00,50.738
1351.00,50.754
1352.00,50.750
1353.00,50.780
1354.00,50.790
1355.00,50.753
1356.00,50.783
1357.00,50.797
1358.00,50.802
1359.00,50.831
1360.00,50.830
1361.00,50.775
1362.00,50.808
1363.00,50.853
1364.00,50.772
1365.00,50.797
1366.00,50.833
1367.00,50.776
1368.00,50.774
1369.00,50.788
1370.00,50.757
1371.00,50.712
1372.00,50.756
1373.00,50.770
1374.00,50.787
1375.00,50.763
1376.00,50.747
1377.00,50.709
1378.00,50.808
1379.00,50.777
1380.00,50.761
1381.00,50.844
1382.00,50.672
1383.00,50.753
1384.00,50.683
1385.00,50.682
1386.00,50.769
1387.00,50.755
1388.00,50.690
1389.00,50.707
1390.00,50.531
1391.00,50.719
1392.00,50.742
1393.00,50.741
1394.00,50.750
1395.00,50.707
1396.00,50.676
1397.00,50.751
1398.00,50.791
1399.00,50.729
1400.00,50.695
1401.00,50.749
1402.00,50.749
1403.00,50.723
1404.00,50.786
1405.00,50.769
1406.00,50.800
1407.00,50.803
1408.00,50.795
1409.00,50.803
1410.00,50.808
1411.00,50.804
1412.00,50.858
1413.00,50.805
1414.00,50.797
1415.00,50.834
1416.00,50.875
1417.00,50.883
1418.00,50.871
1419.00,50.864
1420.00,50.898
1421.00,50.926
1422.00,50.928
1423.00,50.931
1424.00,50.935
1425.00,50.940
1426.00,50.947
1427.00,50.975
1428.00,50.976
1429.00,50.991
1430.00,51.016
1431.00,51.019
1432.00,51.029
1433.00,51.053
1434.00,51.056
1435.00,51.106
1436.00,51.109
1437.00,51.111
1438.00,51.125
1439.00,51.163
1440.00,51.160
1441.00,51.158
1442.00,51.182
1443.00,51.207
1444.00,51.237
1445.00,51.220
1446.00,51.219
1447.00,51.266
1448.00,51.281
1449.00,51.293
1450.00,51.288
1451.00,51.294
1452.00,51.315
1453.00,51.331
1454.00,51.332
1455.00,51.357
1456.00,51.390
1457.00,51.383
1458.00,51.407
1459.00,51.419
1460.00,51.440
1461.00,51.451
1462.00,51.470
1463.00,51.492
1464.00,51.499
1465.00,51.509
1466.00,51.518
1467.00,51.548
1468.00,51.577
1469.00,51.565
1470.00,51.576
1471.00,51.594
1472.00,51.603
1473.00,51.614
1474.00,51.644
1475.00,51.641
1476.00,51.663
1477.00,51.664
1478.00,51.670
1479.00,51.686
1480.00,51.682
1481.00,51.701
1482.00,51.735
1483.00,51.731
1484.00,51.740
1485.00,51.754
1486.00,51.755
1487.00,51.764
1488.00,51.784
1489.00,51.786
1490.00,51.796
1491.00,51.810
1492.00,51.824
1493.00,51.829
1494.00,51.856
1495.00,51.856
1496.00,51.873
1497.00,51.871
1498.00,51.880
1499.00,51.901
1500.00,51.920
1501.00, 
1502.00, 
1503.00, 
1504.00, 
1505.00, 
1506.00, 
1507.00, 
1508.00, 
1509.00, 
1510.00, 
1511.00, 
1512.00, 
1513.00, 
1514.00, 
1515.00, 
1516.00, 
1517.00, 
1518.00, 
1519.00, 
1520.00, 
1521.00, 
1522.00, 
1523.00, 
1524.00, 
1525.00, 
1526.00, 
1527.00, 
1528.00, 
1529.00, 
1530.00, 
1531.00, 
1532.00, 
1533.00, 
1534.00, 
1535.00, 
1536.00, 
1537.00, 
1538.00, 
1539.00, 
1540.00, 
1541.00, 
1542.00, 
1543.00, 
1544.00, 
1545.00, 
1546.00, 
1547.00, 
1548.00, 
1549.00, 
1550.00, 
1551.00, 
1552.00, 
1553.00, 
1554.00, 
1555.00, 
1556.00, 
1557.00, 
1558.00, 
1559.00, 
1560.00, 
1561.00, 
1562.00, 
1563.00, 
1564.00, 
1565.00, 
1566.00, 
1567.00, 
1568.00, 
1569.00, 
1570.00, 
1571.00, 
1572.00, 
1573.00, 
1574.00, 
1575.00, 
1576.00, 
1577.00, 
1578.00, 
1579.00, 
1580.00, 
1581.00, 
1582.00, 
1583.00, 
1584.00, 
1585.00, 
1586.00, 
1587.00, 
1588.00, 
1589.00, 
1590.00, 
1591.00, 
1592.00, 
1593.00, 
1594.00, 
1595.00, 
1596.00, 
1597.00, 
1598.00, 
1599.00, 
1600.00, 
1601.00, 
1602.00, 
1603.00, 
1604.00, 
1605.00, 
1606.00, 
1607.00, 
1608.00, 
1609.00, 
1610.00, 
1611.00, 
1612.00, 
1613.00, 
1614.00, 
1615.00, 
1616.00, 
1617.00, 
1618.00, 
1619.00, 
1620.00, 
1621.00, 
1622.00, 
1623.00, 
1624.00, 
1625.00, 
1626.00, 
1627.00, 
1628.00, 
1629.00, 
1630.00, 
1631.00, 
1632.00, 
1633.00, 
1634.00, 
1635.00, 
1636.00, 
1637.00, 
1638.00, 
1639.00, 
1640.00, 
1641.00, 
1642.00, 
1643.00, 
1644.00, 
1645.00, 
1646.00, 
1647.00, 
1648.00, 
1649.00, 
1650.00, 
1651.00, 
1652.00, 
1653.00, 
1654.00, 
1655.00, 
1656.00, 
1657.00, 
1658.00, 
1659.00, 
1660.00, 
1661.00, 
1662.00, 
1663.00, 
1664.00, 
1665.00, 
1666.00, 
1667.00, 
1668.00, 
1669.00, 
1670.00, 
1671.00, 
1672.00, 
1673.00, 
1674.00, 
1675.00, 
1676.00, 
1677.00, 
1678.00, 
1679.00, 
1680.00, 
1681.00, 
1682.00, 
1683.00, 
1684.00, 
1685.00, 
1686.00, 
1687.00, 
1688.00, 
1689.00, 
1690.00, 
1691.00, 
1692.00, 
1693.00, 
1694.00, 
1695.00, 
1696.00, 
1697.00, 
1698.00, 
1699.00, 
1700.00, 
1701.00, 
1702.00, 
1703.00, 
1704.00, 
1705.00, 
1706.00, 
1707.00, 
1708.00, 
1709.00, 
1710.00, 
1711.00, 
1712.00, 
1713.00, 
1714.00, 
1715.00, 
1716.00, 
1717.00, 
1718.00, 
1719.00, 
1720.00, 
1721.00, 
1722.00, 
1723.00, 
1724.00, 
1725.00, 
1726.00, 
1727.00, 
1728.00, 
1729.00, 
1730.00, 
1731.00, 
1732.00, 
1733.00, 
1734.00, 
1735.00, 
1736.00, 
1737.00, 
1738.00, 
1739.00, 
1740.00, 
1741.00, 
1742.00, 
1743.00, 
1744.00, 
1745.00, 
1746.00, 
1747.00, 
1748.00, 
1749.00, 
1750.00, 
1751.00, 
1752.00, 
1753.00, 
1754.00, 
1755.00, 
1756.00, 
1757.00, 
1758.00, 
1759.00, 
1760.00, 
1761.00, 
1762.00, 
1763.00, 
1764.00, 
1765.00, 
1766.00, 
1767.00, 
1768.00, 
1769.00, 
1770.00, 
1771.00, 
1772.00, 
1773.00, 
1774.00, 
1775.00, 
1776.00, 
1777.00, 
1778.00, 
1779.00, 
1780.00, 
1781.00, 
1782.00, 
1783.00, 
1784.00, 
1785.00, 
1786.00, 
1787.00, 
1788.00, 
1789.00, 
1790.00, 
1791.00, 
1792.00, 
1793.00, 
1794.00, 
1795.00, 
1796.00, 
1797.00, 
1798.00, 
1799.00, 
1800.00, 
1801.00, 
1802.00, 
1803.00, 
1804.00, 
1805.00, 
1806.00, 
1807.00, 
1808.00, 
1809.00, 
1810.00, 
1811.00, 
1812.00, 
1813.00, 
1814.00, 
1815.00, 
1816.00, 
1817.00, 
1818.00, 
1819.00, 
1820.00, 
1821.00, 
1822.00, 
1823.00, 
1824.00, 
1825.00, 
1826.00, 
1827.00, 
1828.00, 
1829.00, 
1830.00, 
1831.00, 
1832.00, 
1833.00, 
1834.00, 
1835.00, 
1836.00, 
1837.00, 
1838.00, 
1839.00, 
1840.00, 
1841.00, 
1842.00, 
1843.00, 
1844.00, 
1845.00, 
1846.00, 
1847.00, 
1848.00, 
1849.00, 
1850.00, 
1851.00, 
1852.00, 
1853.00, 
1854.00, 
1855.00, 
1856.00, 
1857.00, 
1858.00, 
1859.00, 
1860.00, 
1861.00, 
1862.00, 
1863.00, 
1864.00, 
1865.00, 
1866.00, 
1867.00, 
1868.00, 
1869.00, 
1870.00, 
1871.00, 
1872.00, 
1873.00, 
1874.00, 
1875.00, 
1876.00, 
1877.00, 
1878.00, 
1879.00, 
1880.00, 
1881.00, 
1882.00, 
1883.00, 
1884.00, 
1885.00, 
1886.00, 
1887.00, 
1888.00, 
1889.00, 
1890.00, 
1891.00, 
1892.00, 
1893.00, 
1894.00, 
1895.00, 
1896.00, 
1897.00, 
1898.00, 
1899.00, 
1900.00, 
1901.00, 
1902.00, 
1903.00, 
1904.00, 
1905.00, 
1906.00, 
1907.00, 
1908.00, 
1909.00, 
1910.00, 
1911.00, 
1912.00, 
1913.00, 
1914.00, 
1915.00, 
1916.00, 
1917.00, 
1918.00, 
1919.00, 
1920.00, 
1921.00, 
1922.00, 
1923.00, 
1924.00, 
1925.00, 
1926.00, 
1927.00, 
1928.00, 
1929.00, 
1930.00, 
1931.00, 
1932.00, 
1933.00, 
1934.00, 
1935.00, 
1936.00, 
1937.00, 
1938.00, 
1939.00, 
1940.00, 
1941.00, 
1942.00, 
1943.00, 
1944.00, 
1945.00, 
1946.00, 
1947.00, 
1948.00, 
1949.00, 
1950.00, 
1951.00, 
1952.00, 
1953.00, 
1954.00, 
1955.00, 
1956.00, 
1957.00, 
1958.00, 
1959.00, 
1960.00, 
1961.00, 
1962.00, 
1963.00, 
1964.00, 
1965.00, 
1966.00, 
1967.00, 
1968.00, 
1969.00, 
1970.00, 
1971.00, 
1972.00, 
1973.00, 
1974.00, 
1975.00, 
1976.00, 
1977.00, 
1978.00, 
1979.00, 
1980.00, 
1981.00, 
1982.00, 
1983.00, 
1984.00, 
1985.00, 
1986.00, 
1987.00, 
1988.00, 
1989.00, 
1990.00, 
1991.00, 
1992.00, 
1993.00, 
1994.00, 
1995.00, 
1996.00, 
1997.00, 
1998.00, 
1999.00, 
2000.00, 
2001.00, 
2002.00, 
2003.00, 
2004.00, 
2005.00, 
2006.00, 
2007.00, 
2008.00, 
2009.00, 
2010.00, 
2011.00, 
2012.00, 
2013.00, 
2014.00, 
2015.00, 
2016.00, 
2017.00, 
2018.00, 
2019.00, 
2020.00, 
2021.00, 
2022.00, 
2023.00, 
2024.00, 
2025.00, 
2026.00, 
2027.00, 
2028.00, 
2029.00, 
2030.00, 
2031.00, 
2032.00, 
2033.00, 
2034.00, 
2035.00, 
2036.00, 
2037.00, 
2038.00, 
2039.00, 
2040.00, 
2041.00, 
2042.00, 
2043.00, 
2044.00, 
2045.00, 
2046.00, 
2047.00, 
2048.00, 
2049.00, 
2050.00, 
2051.00, 
2052.00, 
2053.00, 
2054.00, 
2055.00, 
2056.00, 
2057.00, 
2058.00, 
2059.00, 
2060.00, 
2061.00, 
2062.00, 
2063.00, 
2064.00, 
2065.00, 
2066.00, 
2067.00, 
2068.00, 
2069.00, 
2070.00, 
2071.00, 
2072.00, 
2073.00, 
2074.00, 
2075.00, 
2076.00, 
2077.00, 
2078.00, 
2079.00, 
2080.00, 
2081.00, 
2082.00, 
2083.00, 
2084.00, 
2085.00, 
2086.00, 
2087.00, 
2088.00, 
2089.00, 
2090.00, 
2091.00, 
2092.00, 
2093.00, 
2094.00, 
2095.00, 
2096.00, 
2097.00, 
2098.00, 
2099.00, 
2100.00, 
2101.00, 
2102.00, 
2103.00, 
2104.00, 
2105.00, 
2106.00, 
2107.00, 
2108.00, 
2109.00, 
2110.00, 
2111.00, 
2112.00, 
2113.00, 
2114.00, 
2115.00, 
2116.00, 
2117.00, 
2118.00, 
2119.00, 
2120.00, 
2121.00, 
2122.00, 
2123.00, 
2124.00, 
2125.00, 
2126.00, 
2127.00, 
2128.00, 
2129.00, 
2130.00, 
2131.00, 
2132.00, 
2133.00, 
2134.00, 
2135.00, 
2136.00, 
2137.00, 
2138.00, 
2139.00, 
2140.00, 
2141.00, 
2142.00, 
2143.00, 
2144.00, 
2145.00, 
2146.00, 
2147.00, 
2148.00, 
2149.00, 
2150.00, 
2151.00, 
2152.00, 
2153.00, 
2154.00, 
2155.00, 
2156.00, 
2157.00, 
2158.00, 
2159.00, 
2160.00, 
2161.00, 
2162.00, 
2163.00, 
2164.00, 
2165.00, 
2166.00, 
2167.00, 
2168.00, 
2169.00, 
2170.00, 
2171.00, 
2172.00, 
2173.00, 
2174.00, 
2175.00, 
2176.00, 
2177.00, 
2178.00, 
2179.00, 
2180.00, 
2181.00, 
2182.00, 
2183.00, 
2184.00, 
2185.00, 
2186.00, 
2187.00, 
2188.00, 
2189.00, 
2190.00, 
2191.00, 
2192.00, 
2193.00, 
2194.00, 
2195.00, 
2196.00, 
2197.00, 
2198.00, 
2199.00, 
2200.00, 
2201.00, 
2202.00, 
2203.00, 
2204.00, 
2205.00, 
2206.00, 
2207.00, 
2208.00, 
2209.00, 
2210.00, 
2211.00, 
2212.00, 
2213.00, 
2214.00, 
2215.00, 
2216.00, 
2217.00, 
2218.00, 
2219.00, 
2220.00, 
2221.00, 
2222.00, 
2223.00, 
2224.00, 
2225.00, 
2226.00, 
2227.00, 
2228.00, 
2229.00, 
2230.00, 
2231.00, 
2232.00, 
2233.00, 
2234.00, 
2235.00, 
2236.00, 
2237.00, 
2238.00, 
2239.00, 
2240.00, 
2241.00, 
2242.00, 
2243.00, 
2244.00, 
2245.00, 
2246.00, 
2247.00, 
2248.00, 
2249.00, 
2250.00, 
2251.00, 
2252.00, 
2253.00, 
2254.00, 
2255.00, 
2256.00, 
2257.00, 
2258.00, 
2259.00, 
2260.00, 
2261.00, 
2262.00, 
2263.00, 
2264.00, 
2265.00, 
2266.00, 
2267.00, 
2268.00, 
2269.00, 
2270.00, 
2271.00, 
2272.00, 
2273.00, 
2274.00, 
2275.00, 
2276.00, 
2277.00, 
2278.00, 
2279.00, 
2280.00, 
2281.00, 
2282.00, 
2283.00, 
2284.00, 
2285.00, 
2286.00, 
2287.00, 
2288.00, 
2289.00, 
2290.00, 
2291.00, 
2292.00, 
2293.00, 
2294.00, 
2295.00, 
2296.00, 
2297.00, 
2298.00, 
2299.00, 
2300.00, 
2301.00, 
2302.00, 
2303.00, 
2304.00, 
2305.00, 
2306.00, 
2307.00, 
2308.00, 
2309.00, 
2310.00, 
2311.00, 
2312.00, 
2313.00, 
2314.00, 
2315.00, 
2316.00, 
2317.00, 
2318.00, 
2319.00, 
2320.00, 
2321.00, 
2322.00, 
2323.00, 
2324.00, 
2325.00, 
2326.00, 
2327.00, 
2328.00, 
2329.00, 
2330.00, 
2331.00, 
2332.00, 
2333.00, 
2334.00, 
2335.00, 
2336.00, 
2337.00, 
2338.00, 
2339.00, 
2340.00, 
2341.00, 
2342.00, 
2343.00, 
2344.00, 
2345.00, 
2346.00, 
2347.00, 
2348.00, 
2349.00, 
2350.00, 
2351.00, 
2352.00, 
2353.00, 
2354.00, 
2355.00, 
2356.00, 
2357.00, 
2358.00, 
2359.00, 
2360.00, 
2361.00, 
2362.00, 
2363.00, 
2364.00, 
2365.00, 
2366.00, 
2367.00, 
2368.00, 
2369.00, 
2370.00, 
2371.00, 
2372.00, 
2373.00, 
2374.00, 
2375.00, 
2376.00, 
2377.00, 
2378.00, 
2379.00, 
2380.00, 
2381.00, 
2382.00, 
2383.00, 
2384.00, 
2385.00, 
2386.00, 
2387.00, 
2388.00, 
2389.00, 
2390.00, 
2391.00, 
2392.00, 
2393.00, 
2394.00, 
2395.00, 
2396.00, 
2397.00, 
2398.00, 
2399.00, 
2400.00, 
2401.00, 
2402.00, 
2403.00, 
2404.00, 
2405.00, 
2406.00, 
2407.00, 
2408.00, 
2409.00, 
2410.00, 
2411.00, 
2412.00, 
2413.00, 
2414.00, 
2415.00, 
2416.00, 
2417.00, 
2418.00, 
2419.00, 
2420.00, 
2421.00, 
2422.00, 
2423.00, 
2424.00, 
2425.00, 
2426.00, 
2427.00, 
2428.00, 
2429.00, 
2430.00, 
2431.00, 
2432.00, 
2433.00, 
2434.00, 
2435.00, 
2436.00, 
2437.00, 
2438.00, 
2439.00, 
2440.00, 
2441.00, 
2442.00, 
2443.00, 
2444.00, 
2445.00, 
2446.00, 
2447.00, 
2448.00, 
2449.00, 
2450.00, 
2451.00, 
2452.00, 
2453.00, 
2454.00, 
2455.00, 
2456.00, 
2457.00, 
2458.00, 
2459.00, 
2460.00, 
2461.00, 
2462.00, 
2463.00, 
2464.00, 
2465.00, 
2466.00, 
2467.00, 
2468.00, 
2469.00, 
2470.00, 
2471.00, 
2472.00, 
2473.00, 
2474.00, 
2475.00, 
2476.00, 
2477.00, 
2478.00, 
2479.00, 
2480.00, 
2481.00, 
2482.00, 
2483.00, 
2484.00, 
2485.00, 
2486.00, 
2487.00, 
2488.00, 
2489.00, 
2490.00, 
2491.00, 
2492.00, 
2493.00, 
2494.00, 
2495.00, 
2496.00, 
2497.00, 
2498.00, 
2499.00, 
2500.00, 
2501.00, 
2502.00, 
2503.00, 
2504.00, 
2505.00, 
2506.00, 
2507.00, 
2508.00, 
2509.00, 
2510.00, 
2511.00, 
2512.00, 
2513.00, 
2514.00, 
2515.00, 
2516.00, 
2517.00, 
2518.00, 
2519.00, 
2520.00, 
2521.00, 
2522.00, 
2523.00, 
2524.00, 
2525.00, 
2526.00, 
2527.00, 
2528.00, 
2529.00, 
2530.00, 
2531.00, 
2532.00, 
2533.00, 
2534.00, 
2535.00, 
2536.00, 
2537.00, 
2538.00, 
2539.00, 
2540.00, 
2541.00, 
2542.00, 
2543.00, 
2544.00, 
2545.00, 
2546.00, 
2547.00, 
2548.00, 
2549.00, 
2550.00, 
2551.00, 
2552.00, 
2553.00, 
2554.00, 
2555.00, 
2556.00, 
2557.00, 
2558.00, 
2559.00, 
2560.00, 
2561.00, 
2562.00, 
2563.00, 
2564.00, 
2565.00, 
2566.00, 
2567.00, 
2568.00, 
2569.00, 
2570.00, 
2571.00, 
2572.00, 
2573.00, 
2574.00, 
2575.00, 
2576.00, 
2577.00, 
2578.00, 
2579.00, 
2580.00, 
2581.00, 
2582.00, 
2583.00, 
2584.00, 
2585.00, 
2586.00, 
2587.00, 
2588.00, 
2589.00, 
2590.00, 
2591.00, 
2592.00, 
2593.00, 
2594.00, 
2595.00, 
2596.00, 
2597.00, 
2598.00, 
2599.00, 
2600.00, 
