"2cP4 - RawData"
"Wavelength nm.","T%"
200.00,0.003
201.00,0.002
202.00,-0.000
203.00,-0.001
204.00,0.004
205.00,0.000
206.00,-0.001
207.00,0.003
208.00,0.000
209.00,0.001
210.00,0.000
211.00,0.001
212.00,0.002
213.00,-0.000
214.00,0.001
215.00,0.001
216.00,0.003
217.00,-0.001
218.00,0.000
219.00,-0.001
220.00,0.002
221.00,-0.000
222.00,-0.001
223.00,0.001
224.00,-0.001
225.00,-0.000
226.00,0.001
227.00,0.002
228.00,-0.000
229.00,0.000
230.00,0.001
231.00,0.000
232.00,0.002
233.00,0.002
234.00,0.001
235.00,0.000
236.00,-0.000
237.00,0.000
238.00,-0.000
239.00,-0.001
240.00,0.001
241.00,0.001
242.00,-0.000
243.00,0.002
244.00,0.002
245.00,0.000
246.00,0.001
247.00,-0.001
248.00,0.000
249.00,0.002
250.00,0.002
251.00,-0.001
252.00,-0.001
253.00,0.000
254.00,0.002
255.00,0.000
256.00,0.000
257.00,0.000
258.00,-0.000
259.00,-0.000
260.00,0.000
261.00,0.001
262.00,-0.001
263.00,0.000
264.00,0.001
265.00,-0.001
266.00,-0.000
267.00,-0.001
268.00,0.002
269.00,-0.001
270.00,-0.001
271.00,0.001
272.00,0.000
273.00,0.001
274.00,-0.001
275.00,0.001
276.00,0.001
277.00,0.000
278.00,0.001
279.00,-0.001
280.00,0.001
281.00,0.001
282.00,-0.001
283.00,-0.001
284.00,0.001
285.00,-0.000
286.00,-0.000
287.00,-0.000
288.00,-0.001
289.00,-0.000
290.00,0.000
291.00,0.001
292.00,0.001
293.00,-0.000
294.00,-0.001
295.00,0.000
296.00,0.000
297.00,0.000
298.00,0.001
299.00,0.001
300.00,0.001
301.00,0.004
302.00,0.003
303.00,0.007
304.00,0.009
305.00,0.017
306.00,0.025
307.00,0.039
308.00,0.061
309.00,0.100
310.00,0.134
311.00,0.182
312.00,0.248
313.00,0.333
314.00,0.445
315.00,0.583
316.00,0.737
317.00,0.927
318.00,1.140
319.00,1.405
320.00,1.700
321.00,2.048
322.00,2.442
323.00,2.873
324.00,3.319
325.00,3.770
326.00,4.252
327.00,4.782
328.00,5.366
329.00,5.914
330.00,6.517
331.00,7.123
332.00,7.707
333.00,8.372
334.00,8.986
335.00,9.618
336.00,10.261
337.00,10.849
338.00,11.499
339.00,12.048
340.00,12.630
341.00,13.136
342.00,13.771
343.00,14.312
344.00,14.812
345.00,15.269
346.00,15.665
347.00,16.080
348.00,16.510
349.00,16.867
350.00,17.239
351.00,17.596
352.00,17.893
353.00,18.149
354.00,18.439
355.00,18.722
356.00,18.936
357.00,19.190
358.00,19.403
359.00,19.614
360.00,19.785
361.00,19.898
362.00,20.069
363.00,20.213
364.00,20.348
365.00,20.445
366.00,20.513
367.00,20.594
368.00,20.644
369.00,20.703
370.00,20.733
371.00,20.770
372.00,20.806
373.00,20.774
374.00,20.774
375.00,20.744
376.00,20.695
377.00,20.608
378.00,20.637
379.00,20.602
380.00,20.564
381.00,20.535
382.00,20.535
383.00,20.531
384.00,20.570
385.00,20.597
386.00,20.612
387.00,20.677
388.00,20.688
389.00,20.715
390.00,20.745
391.00,20.766
392.00,20.794
393.00,20.785
394.00,20.804
395.00,20.776
396.00,20.798
397.00,20.826
398.00,20.845
399.00,20.861
400.00,20.840
401.00,20.832
402.00,20.833
403.00,20.821
404.00,20.850
405.00,20.824
406.00,20.832
407.00,20.776
408.00,20.787
409.00,20.759
410.00,20.720
411.00,20.696
412.00,20.703
413.00,20.721
414.00,20.701
415.00,20.734
416.00,20.752
417.00,20.773
418.00,20.828
419.00,20.837
420.00,20.910
421.00,20.982
422.00,20.994
423.00,21.055
424.00,21.070
425.00,21.085
426.00,21.118
427.00,21.175
428.00,21.233
429.00,21.251
430.00,21.302
431.00,21.363
432.00,21.412
433.00,21.473
434.00,21.532
435.00,21.538
436.00,21.579
437.00,21.735
438.00,21.806
439.00,21.873
440.00,21.950
441.00,22.034
442.00,22.108
443.00,22.198
444.00,22.296
445.00,22.383
446.00,22.484
447.00,22.620
448.00,22.683
449.00,22.788
450.00,22.859
451.00,22.923
452.00,23.111
453.00,23.226
454.00,23.339
455.00,23.459
456.00,23.578
457.00,23.693
458.00,23.813
459.00,23.924
460.00,24.058
461.00,24.187
462.00,24.324
463.00,24.470
464.00,24.597
465.00,24.710
466.00,24.834
467.00,24.973
468.00,25.094
469.00,25.228
470.00,25.329
471.00,25.448
472.00,25.554
473.00,25.662
474.00,25.792
475.00,25.900
476.00,25.992
477.00,26.110
478.00,26.259
479.00,26.394
480.00,26.541
481.00,26.624
482.00,26.851
483.00,26.958
484.00,27.093
485.00,27.319
486.00,27.438
487.00,27.593
488.00,27.715
489.00,27.946
490.00,28.101
491.00,28.206
492.00,28.425
493.00,28.544
494.00,28.554
495.00,28.669
496.00,28.865
497.00,28.953
498.00,29.070
499.00,29.296
500.00,29.434
501.00,29.459
502.00,29.660
503.00,29.831
504.00,29.806
505.00,30.078
506.00,30.145
507.00,30.127
508.00,30.378
509.00,30.516
510.00,30.597
511.00,30.770
512.00,30.846
513.00,31.016
514.00,31.155
515.00,31.239
516.00,31.384
517.00,31.514
518.00,31.597
519.00,31.692
520.00,31.753
521.00,31.869
522.00,31.963
523.00,31.970
524.00,32.086
525.00,32.201
526.00,32.296
527.00,32.452
528.00,32.512
529.00,32.596
530.00,32.726
531.00,32.776
532.00,32.955
533.00,33.084
534.00,33.166
535.00,33.220
536.00,33.312
537.00,33.376
538.00,33.476
539.00,33.541
540.00,33.601
541.00,33.635
542.00,33.708
543.00,33.803
544.00,33.856
545.00,33.955
546.00,33.998
547.00,34.075
548.00,34.139
549.00,34.202
550.00,34.279
551.00,34.323
552.00,34.419
553.00,34.576
554.00,34.633
555.00,34.744
556.00,34.752
557.00,34.854
558.00,34.884
559.00,34.910
560.00,34.992
561.00,35.058
562.00,35.103
563.00,35.178
564.00,35.231
565.00,35.222
566.00,35.285
567.00,35.356
568.00,35.361
569.00,35.419
570.00,35.440
571.00,35.530
572.00,35.547
573.00,35.569
574.00,35.649
575.00,35.638
576.00,35.636
577.00,35.740
578.00,35.750
579.00,35.831
580.00,35.916
581.00,36.023
582.00,36.065
583.00,36.136
584.00,36.232
585.00,36.252
586.00,36.340
587.00,36.427
588.00,36.382
589.00,36.436
590.00,36.504
591.00,36.542
592.00,36.516
593.00,36.608
594.00,36.666
595.00,36.683
596.00,36.771
597.00,36.709
598.00,36.915
599.00,36.947
600.00,37.056
601.00,37.077
602.00,37.154
603.00,37.130
604.00,37.165
605.00,37.253
606.00,37.357
607.00,37.370
608.00,37.498
609.00,37.447
610.00,37.485
611.00,37.546
612.00,37.547
613.00,37.573
614.00,37.662
615.00,37.694
616.00,37.825
617.00,37.890
618.00,37.910
619.00,38.019
620.00,37.989
621.00,38.034
622.00,38.134
623.00,38.203
624.00,38.297
625.00,38.369
626.00,38.352
627.00,38.439
628.00,38.509
629.00,38.541
630.00,38.528
631.00,38.639
632.00,38.769
633.00,38.800
634.00,38.929
635.00,39.079
636.00,39.085
637.00,39.155
638.00,39.186
639.00,39.309
640.00,39.315
641.00,39.450
642.00,39.531
643.00,39.565
644.00,39.713
645.00,39.818
646.00,39.833
647.00,39.954
648.00,39.953
649.00,40.008
650.00,40.193
651.00,40.289
652.00,40.447
653.00,40.463
654.00,40.534
655.00,40.708
656.00,40.845
657.00,40.937
658.00,41.048
659.00,41.137
660.00,41.263
661.00,41.323
662.00,41.390
663.00,41.462
664.00,41.596
665.00,41.634
666.00,41.767
667.00,41.909
668.00,41.946
669.00,42.126
670.00,42.282
671.00,42.093
672.00,42.214
673.00,42.568
674.00,42.534
675.00,42.681
676.00,42.896
677.00,42.931
678.00,42.809
679.00,42.933
680.00,43.227
681.00,43.217
682.00,43.232
683.00,43.500
684.00,43.654
685.00,43.668
686.00,43.464
687.00,43.728
688.00,43.880
689.00,43.966
690.00,44.139
691.00,44.257
692.00,44.259
693.00,44.171
694.00,44.305
695.00,44.553
696.00,44.595
697.00,44.777
698.00,44.874
699.00,44.973
700.00,45.044
701.00,45.173
702.00,45.286
703.00,45.391
704.00,45.479
705.00,45.444
706.00,45.621
707.00,45.740
708.00,45.586
709.00,45.909
710.00,46.169
711.00,45.932
712.00,45.975
713.00,46.168
714.00,46.190
715.00,46.227
716.00,46.314
717.00,46.429
718.00,46.446
719.00,46.617
720.00,46.782
721.00,50.893
722.00,50.909
723.00,51.007
724.00,51.109
725.00,51.026
726.00,51.108
727.00,51.061
728.00,51.085
729.00,51.184
730.00,51.191
731.00,51.279
732.00,51.202
733.00,51.296
734.00,51.402
735.00,51.406
736.00,51.475
737.00,51.447
738.00,51.539
739.00,51.538
740.00,51.559
741.00,51.663
742.00,51.595
743.00,51.666
744.00,51.675
745.00,51.828
746.00,51.741
747.00,51.786
748.00,51.643
749.00,51.669
750.00,51.841
751.00,51.728
752.00,51.738
753.00,51.817
754.00,51.816
755.00,51.768
756.00,51.921
757.00,51.869
758.00,51.975
759.00,51.978
760.00,51.903
761.00,51.968
762.00,51.960
763.00,52.053
764.00,52.007
765.00,51.977
766.00,51.972
767.00,52.027
768.00,52.073
769.00,52.045
770.00,52.077
771.00,52.123
772.00,52.151
773.00,52.173
774.00,52.212
775.00,52.186
776.00,52.090
777.00,52.183
778.00,52.233
779.00,52.217
780.00,52.159
781.00,52.274
782.00,52.297
783.00,52.162
784.00,52.239
785.00,52.175
786.00,52.275
787.00,52.279
788.00,52.160
789.00,52.187
790.00,52.149
791.00,52.243
792.00,52.217
793.00,52.110
794.00,52.199
795.00,52.123
796.00,52.159
797.00,52.119
798.00,52.160
799.00,52.150
800.00,52.165
801.00,52.164
802.00,52.133
803.00,52.060
804.00,52.010
805.00,52.141
806.00,52.059
807.00,52.065
808.00,52.069
809.00,52.029
810.00,51.923
811.00,51.957
812.00,51.989
813.00,51.946
814.00,51.986
815.00,52.021
816.00,52.025
817.00,51.931
818.00,51.905
819.00,51.887
820.00,51.903
821.00,51.914
822.00,51.899
823.00,51.832
824.00,51.867
825.00,51.827
826.00,51.849
827.00,51.908
828.00,51.814
829.00,51.789
830.00,51.750
831.00,53.998
832.00,53.969
833.00,53.949
834.00,53.971
835.00,53.950
836.00,53.963
837.00,53.909
838.00,53.903
839.00,53.877
840.00,53.821
841.00,53.846
842.00,53.801
843.00,53.822
844.00,53.776
845.00,53.796
846.00,53.752
847.00,53.755
848.00,53.773
849.00,53.665
850.00,53.643
851.00,53.601
852.00,53.641
853.00,53.537
854.00,53.521
855.00,53.437
856.00,53.522
857.00,53.313
858.00,53.439
859.00,53.400
860.00,53.423
861.00,53.424
862.00,53.359
863.00,53.386
864.00,53.316
865.00,53.362
866.00,53.324
867.00,53.314
868.00,53.301
869.00,53.269
870.00,53.269
871.00,53.296
872.00,53.248
873.00,53.274
874.00,53.303
875.00,53.102
876.00,53.269
877.00,53.265
878.00,53.282
879.00,53.209
880.00,53.209
881.00,53.133
882.00,53.209
883.00,53.121
884.00,53.047
885.00,53.267
886.00,53.065
887.00,53.045
888.00,53.030
889.00,53.034
890.00,53.014
891.00,52.966
892.00,52.969
893.00,52.943
894.00,52.936
895.00,52.927
896.00,52.895
897.00,52.863
898.00,52.848
899.00,52.827
900.00,52.832
901.00,52.769
902.00,52.825
903.00,52.803
904.00,52.793
905.00,52.781
906.00,52.766
907.00,52.731
908.00,52.697
909.00,52.688
910.00,52.648
911.00,52.635
912.00,52.645
913.00,52.606
914.00,52.600
915.00,52.555
916.00,52.541
917.00,52.523
918.00,52.518
919.00,52.479
920.00,52.440
921.00,52.458
922.00,52.491
923.00,52.373
924.00,52.474
925.00,52.337
926.00,52.462
927.00,52.330
928.00,52.360
929.00,52.332
930.00,52.307
931.00,52.277
932.00,52.243
933.00,52.259
934.00,52.255
935.00,52.202
936.00,52.178
937.00,52.179
938.00,52.166
939.00,52.149
940.00,52.121
941.00,52.118
942.00,52.084
943.00,52.078
944.00,52.050
945.00,52.017
946.00,52.014
947.00,52.002
948.00,51.969
949.00,51.947
950.00,51.938
951.00,51.931
952.00,51.892
953.00,51.853
954.00,51.838
955.00,51.809
956.00,51.797
957.00,51.757
958.00,51.776
959.00,51.718
960.00,51.708
961.00,51.703
962.00,51.689
963.00,51.643
964.00,51.642
965.00,51.630
966.00,51.634
967.00,51.622
968.00,51.581
969.00,51.633
970.00,51.652
971.00,51.590
972.00,51.580
973.00,51.598
974.00,51.619
975.00,51.591
976.00,51.616
977.00,51.589
978.00,51.635
979.00,51.581
980.00,51.615
981.00,51.607
982.00,51.593
983.00,51.603
984.00,51.557
985.00,51.635
986.00,51.553
987.00,51.569
988.00,51.543
989.00,51.538
990.00,51.513
991.00,51.508
992.00,51.518
993.00,51.477
994.00,51.480
995.00,51.468
996.00,51.449
997.00,51.440
998.00,51.406
999.00,51.434
1000.00,51.382
1001.00,51.370
1002.00,51.359
1003.00,51.365
1004.00,51.347
1005.00,51.335
1006.00,51.351
1007.00,51.316
1008.00,51.315
1009.00,51.292
1010.00,51.281
1011.00,51.269
1012.00,51.219
1013.00,51.246
1014.00,51.203
1015.00,51.215
1016.00,51.174
1017.00,51.170
1018.00,51.171
1019.00,51.138
1020.00,51.126
1021.00,51.108
1022.00,51.117
1023.00,51.051
1024.00,51.065
1025.00,51.030
1026.00,51.010
1027.00,51.004
1028.00,50.989
1029.00,51.001
1030.00,50.989
1031.00,50.973
1032.00,50.924
1033.00,50.937
1034.00,50.901
1035.00,50.857
1036.00,50.839
1037.00,50.824
1038.00,50.818
1039.00,50.779
1040.00,50.784
1041.00,50.737
1042.00,50.722
1043.00,50.717
1044.00,50.762
1045.00,50.722
1046.00,50.721
1047.00,50.743
1048.00,50.764
1049.00,50.777
1050.00,50.767
1051.00,50.808
1052.00,50.793
1053.00,50.793
1054.00,50.803
1055.00,50.830
1056.00,50.825
1057.00,50.827
1058.00,50.806
1059.00,50.817
1060.00,50.818
1061.00,50.804
1062.00,50.785
1063.00,50.787
1064.00,50.770
1065.00,50.759
1066.00,50.762
1067.00,50.742
1068.00,50.758
1069.00,50.721
1070.00,50.714
1071.00,50.711
1072.00,50.717
1073.00,50.700
1074.00,50.694
1075.00,50.680
1076.00,50.689
1077.00,50.651
1078.00,50.637
1079.00,50.628
1080.00,50.634
1081.00,50.624
1082.00,50.623
1083.00,50.602
1084.00,50.585
1085.00,50.574
1086.00,50.573
1087.00,50.568
1088.00,50.561
1089.00,50.553
1090.00,50.547
1091.00,50.540
1092.00,50.528
1093.00,50.511
1094.00,50.499
1095.00,50.499
1096.00,50.485
1097.00,50.470
1098.00,50.470
1099.00,50.468
1100.00,50.434
1101.00,50.429
1102.00,50.426
1103.00,50.429
1104.00,50.417
1105.00,50.401
1106.00,50.392
1107.00,50.390
1108.00,50.369
1109.00,50.367
1110.00,50.360
1111.00,50.345
1112.00,50.323
1113.00,50.324
1114.00,50.318
1115.00,50.322
1116.00,50.308
1117.00,50.281
1118.00,50.280
1119.00,50.264
1120.00,50.266
1121.00,50.263
1122.00,50.235
1123.00,50.232
1124.00,50.226
1125.00,50.230
1126.00,50.238
1127.00,50.234
1128.00,50.215
1129.00,50.207
1130.00,50.185
1131.00,50.181
1132.00,50.188
1133.00,50.153
1134.00,50.176
1135.00,50.162
1136.00,50.171
1137.00,50.179
1138.00,50.148
1139.00,50.156
1140.00,50.142
1141.00,50.130
1142.00,50.133
1143.00,50.149
1144.00,50.111
1145.00,50.122
1146.00,50.121
1147.00,50.108
1148.00,50.103
1149.00,50.104
1150.00,50.105
1151.00,50.112
1152.00,50.084
1153.00,50.097
1154.00,50.078
1155.00,50.074
1156.00,50.077
1157.00,50.080
1158.00,50.070
1159.00,50.070
1160.00,50.060
1161.00,50.064
1162.00,50.059
1163.00,50.053
1164.00,50.059
1165.00,50.055
1166.00,50.040
1167.00,50.039
1168.00,50.063
1169.00,50.047
1170.00,50.045
1171.00,50.019
1172.00,50.029
1173.00,50.024
1174.00,50.027
1175.00,50.027
1176.00,50.022
1177.00,50.013
1178.00,50.002
1179.00,50.024
1180.00,50.002
1181.00,50.031
1182.00,50.009
1183.00,50.016
1184.00,50.012
1185.00,50.002
1186.00,50.007
1187.00,50.016
1188.00,49.994
1189.00,49.991
1190.00,49.987
1191.00,49.982
1192.00,49.996
1193.00,49.986
1194.00,49.992
1195.00,49.962
1196.00,49.970
1197.00,49.990
1198.00,49.990
1199.00,49.968
1200.00,49.978
1201.00,49.991
1202.00,49.965
1203.00,49.974
1204.00,49.955
1205.00,49.972
1206.00,49.956
1207.00,49.961
1208.00,49.960
1209.00,49.953
1210.00,49.950
1211.00,49.937
1212.00,49.967
1213.00,49.936
1214.00,49.958
1215.00,49.916
1216.00,49.921
1217.00,49.938
1218.00,49.928
1219.00,49.958
1220.00,49.942
1221.00,49.948
1222.00,49.944
1223.00,49.963
1224.00,49.948
1225.00,49.931
1226.00,49.943
1227.00,49.929
1228.00,49.955
1229.00,49.920
1230.00,49.968
1231.00,49.977
1232.00,49.987
1233.00,49.989
1234.00,49.986
1235.00,49.979
1236.00,49.987
1237.00,49.975
1238.00,49.983
1239.00,49.980
1240.00,49.966
1241.00,49.985
1242.00,49.989
1243.00,50.000
1244.00,49.981
1245.00,50.008
1246.00,50.008
1247.00,50.016
1248.00,49.995
1249.00,50.006
1250.00,50.012
1251.00,49.999
1252.00,50.041
1253.00,50.024
1254.00,50.038
1255.00,50.017
1256.00,50.012
1257.00,50.012
1258.00,50.050
1259.00,50.020
1260.00,50.039
1261.00,50.042
1262.00,50.020
1263.00,50.027
1264.00,50.039
1265.00,50.035
1266.00,50.042
1267.00,50.050
1268.00,50.065
1269.00,50.059
1270.00,50.064
1271.00,50.058
1272.00,50.074
1273.00,50.078
1274.00,50.085
1275.00,50.085
1276.00,50.076
1277.00,50.090
1278.00,50.105
1279.00,50.095
1280.00,50.106
1281.00,50.115
1282.00,50.123
1283.00,50.112
1284.00,50.097
1285.00,50.109
1286.00,50.124
1287.00,50.117
1288.00,50.117
1289.00,50.125
1290.00,50.139
1291.00,50.131
1292.00,50.127
1293.00,50.133
1294.00,50.160
1295.00,50.157
1296.00,50.171
1297.00,50.175
1298.00,50.186
1299.00,50.175
1300.00,50.195
1301.00,50.194
1302.00,50.195
1303.00,50.202
1304.00,50.178
1305.00,50.210
1306.00,50.207
1307.00,50.223
1308.00,50.232
1309.00,50.228
1310.00,50.246
1311.00,50.208
1312.00,50.225
1313.00,50.261
1314.00,50.237
1315.00,50.252
1316.00,50.251
1317.00,50.274
1318.00,50.274
1319.00,50.272
1320.00,50.291
1321.00,50.457
1322.00,50.449
1323.00,50.433
1324.00,50.425
1325.00,50.411
1326.00,50.464
1327.00,50.438
1328.00,50.431
1329.00,50.440
1330.00,50.451
1331.00,50.450
1332.00,50.439
1333.00,50.430
1334.00,50.476
1335.00,50.472
1336.00,50.499
1337.00,50.540
1338.00,50.583
1339.00,50.625
1340.00,50.696
1341.00,50.751
1342.00,50.822
1343.00,50.874
1344.00,50.917
1345.00,50.984
1346.00,51.013
1347.00,51.027
1348.00,51.062
1349.00,51.058
1350.00,51.086
1351.00,51.110
1352.00,51.103
1353.00,51.113
1354.00,51.132
1355.00,51.115
1356.00,51.145
1357.00,51.148
1358.00,51.151
1359.00,51.176
1360.00,51.195
1361.00,51.194
1362.00,51.148
1363.00,51.228
1364.00,51.230
1365.00,51.142
1366.00,51.200
1367.00,51.139
1368.00,51.106
1369.00,51.138
1370.00,51.120
1371.00,51.061
1372.00,51.101
1373.00,51.130
1374.00,51.145
1375.00,51.110
1376.00,51.114
1377.00,51.062
1378.00,51.307
1379.00,51.077
1380.00,51.111
1381.00,51.188
1382.00,51.080
1383.00,51.110
1384.00,51.069
1385.00,51.066
1386.00,51.110
1387.00,51.062
1388.00,51.058
1389.00,51.121
1390.00,51.097
1391.00,51.093
1392.00,51.087
1393.00,51.077
1394.00,51.104
1395.00,51.087
1396.00,51.041
1397.00,51.094
1398.00,51.115
1399.00,51.074
1400.00,51.074
1401.00,51.082
1402.00,51.144
1403.00,51.117
1404.00,51.098
1405.00,51.135
1406.00,51.156
1407.00,51.146
1408.00,51.155
1409.00,51.167
1410.00,51.166
1411.00,51.154
1412.00,51.215
1413.00,51.165
1414.00,51.160
1415.00,51.186
1416.00,51.214
1417.00,51.249
1418.00,51.211
1419.00,51.217
1420.00,51.254
1421.00,51.278
1422.00,51.299
1423.00,51.287
1424.00,51.297
1425.00,51.325
1426.00,51.301
1427.00,51.326
1428.00,51.336
1429.00,51.337
1430.00,51.366
1431.00,51.396
1432.00,51.401
1433.00,51.427
1434.00,51.413
1435.00,51.455
1436.00,51.454
1437.00,51.437
1438.00,51.456
1439.00,51.512
1440.00,51.506
1441.00,51.510
1442.00,51.515
1443.00,51.538
1444.00,51.582
1445.00,51.549
1446.00,51.543
1447.00,51.595
1448.00,51.605
1449.00,51.625
1450.00,51.632
1451.00,51.652
1452.00,51.673
1453.00,51.693
1454.00,51.725
1455.00,51.734
1456.00,51.727
1457.00,51.717
1458.00,51.754
1459.00,51.767
1460.00,51.784
1461.00,51.800
1462.00,51.806
1463.00,51.820
1464.00,51.844
1465.00,51.853
1466.00,51.864
1467.00,51.879
1468.00,51.921
1469.00,51.909
1470.00,51.916
1471.00,51.937
1472.00,51.951
1473.00,51.947
1474.00,51.987
1475.00,51.989
1476.00,52.001
1477.00,52.002
1478.00,52.028
1479.00,52.042
1480.00,52.053
1481.00,52.059
1482.00,52.082
1483.00,52.113
1484.00,52.098
1485.00,52.130
1486.00,52.136
1487.00,52.137
1488.00,52.164
1489.00,52.151
1490.00,52.155
1491.00,52.169
1492.00,52.180
1493.00,52.187
1494.00,52.224
1495.00,52.200
1496.00,52.220
1497.00,52.220
1498.00,52.223
1499.00,52.244
1500.00,52.264
1501.00, 
1502.00, 
1503.00, 
1504.00, 
1505.00, 
1506.00, 
1507.00, 
1508.00, 
1509.00, 
1510.00, 
1511.00, 
1512.00, 
1513.00, 
1514.00, 
1515.00, 
1516.00, 
1517.00, 
1518.00, 
1519.00, 
1520.00, 
1521.00, 
1522.00, 
1523.00, 
1524.00, 
1525.00, 
1526.00, 
1527.00, 
1528.00, 
1529.00, 
1530.00, 
1531.00, 
1532.00, 
1533.00, 
1534.00, 
1535.00, 
1536.00, 
1537.00, 
1538.00, 
1539.00, 
1540.00, 
1541.00, 
1542.00, 
1543.00, 
1544.00, 
1545.00, 
1546.00, 
1547.00, 
1548.00, 
1549.00, 
1550.00, 
1551.00, 
1552.00, 
1553.00, 
1554.00, 
1555.00, 
1556.00, 
1557.00, 
1558.00, 
1559.00, 
1560.00, 
1561.00, 
1562.00, 
1563.00, 
1564.00, 
1565.00, 
1566.00, 
1567.00, 
1568.00, 
1569.00, 
1570.00, 
1571.00, 
1572.00, 
1573.00, 
1574.00, 
1575.00, 
1576.00, 
1577.00, 
1578.00, 
1579.00, 
1580.00, 
1581.00, 
1582.00, 
1583.00, 
1584.00, 
1585.00, 
1586.00, 
1587.00, 
1588.00, 
1589.00, 
1590.00, 
1591.00, 
1592.00, 
1593.00, 
1594.00, 
1595.00, 
1596.00, 
1597.00, 
1598.00, 
1599.00, 
1600.00, 
1601.00, 
1602.00, 
1603.00, 
1604.00, 
1605.00, 
1606.00, 
1607.00, 
1608.00, 
1609.00, 
1610.00, 
1611.00, 
1612.00, 
1613.00, 
1614.00, 
1615.00, 
1616.00, 
1617.00, 
1618.00, 
1619.00, 
1620.00, 
1621.00, 
1622.00, 
1623.00, 
1624.00, 
1625.00, 
1626.00, 
1627.00, 
1628.00, 
1629.00, 
1630.00, 
1631.00, 
1632.00, 
1633.00, 
1634.00, 
1635.00, 
1636.00, 
1637.00, 
1638.00, 
1639.00, 
1640.00, 
1641.00, 
1642.00, 
1643.00, 
1644.00, 
1645.00, 
1646.00, 
1647.00, 
1648.00, 
1649.00, 
1650.00, 
1651.00, 
1652.00, 
1653.00, 
1654.00, 
1655.00, 
1656.00, 
1657.00, 
1658.00, 
1659.00, 
1660.00, 
1661.00, 
1662.00, 
1663.00, 
1664.00, 
1665.00, 
1666.00, 
1667.00, 
1668.00, 
1669.00, 
1670.00, 
1671.00, 
1672.00, 
1673.00, 
1674.00, 
1675.00, 
1676.00, 
1677.00, 
1678.00, 
1679.00, 
1680.00, 
1681.00, 
1682.00, 
1683.00, 
1684.00, 
1685.00, 
1686.00, 
1687.00, 
1688.00, 
1689.00, 
1690.00, 
1691.00, 
1692.00, 
1693.00, 
1694.00, 
1695.00, 
1696.00, 
1697.00, 
1698.00, 
1699.00, 
1700.00, 
1701.00, 
1702.00, 
1703.00, 
1704.00, 
1705.00, 
1706.00, 
1707.00, 
1708.00, 
1709.00, 
1710.00, 
1711.00, 
1712.00, 
1713.00, 
1714.00, 
1715.00, 
1716.00, 
1717.00, 
1718.00, 
1719.00, 
1720.00, 
1721.00, 
1722.00, 
1723.00, 
1724.00, 
1725.00, 
1726.00, 
1727.00, 
1728.00, 
1729.00, 
1730.00, 
1731.00, 
1732.00, 
1733.00, 
1734.00, 
1735.00, 
1736.00, 
1737.00, 
1738.00, 
1739.00, 
1740.00, 
1741.00, 
1742.00, 
1743.00, 
1744.00, 
1745.00, 
1746.00, 
1747.00, 
1748.00, 
1749.00, 
1750.00, 
1751.00, 
1752.00, 
1753.00, 
1754.00, 
1755.00, 
1756.00, 
1757.00, 
1758.00, 
1759.00, 
1760.00, 
1761.00, 
1762.00, 
1763.00, 
1764.00, 
1765.00, 
1766.00, 
1767.00, 
1768.00, 
1769.00, 
1770.00, 
1771.00, 
1772.00, 
1773.00, 
1774.00, 
1775.00, 
1776.00, 
1777.00, 
1778.00, 
1779.00, 
1780.00, 
1781.00, 
1782.00, 
1783.00, 
1784.00, 
1785.00, 
1786.00, 
1787.00, 
1788.00, 
1789.00, 
1790.00, 
1791.00, 
1792.00, 
1793.00, 
1794.00, 
1795.00, 
1796.00, 
1797.00, 
1798.00, 
1799.00, 
1800.00, 
1801.00, 
1802.00, 
1803.00, 
1804.00, 
1805.00, 
1806.00, 
1807.00, 
1808.00, 
1809.00, 
1810.00, 
1811.00, 
1812.00, 
1813.00, 
1814.00, 
1815.00, 
1816.00, 
1817.00, 
1818.00, 
1819.00, 
1820.00, 
1821.00, 
1822.00, 
1823.00, 
1824.00, 
1825.00, 
1826.00, 
1827.00, 
1828.00, 
1829.00, 
1830.00, 
1831.00, 
1832.00, 
1833.00, 
1834.00, 
1835.00, 
1836.00, 
1837.00, 
1838.00, 
1839.00, 
1840.00, 
1841.00, 
1842.00, 
1843.00, 
1844.00, 
1845.00, 
1846.00, 
1847.00, 
1848.00, 
1849.00, 
1850.00, 
1851.00, 
1852.00, 
1853.00, 
1854.00, 
1855.00, 
1856.00, 
1857.00, 
1858.00, 
1859.00, 
1860.00, 
1861.00, 
1862.00, 
1863.00, 
1864.00, 
1865.00, 
1866.00, 
1867.00, 
1868.00, 
1869.00, 
1870.00, 
1871.00, 
1872.00, 
1873.00, 
1874.00, 
1875.00, 
1876.00, 
1877.00, 
1878.00, 
1879.00, 
1880.00, 
1881.00, 
1882.00, 
1883.00, 
1884.00, 
1885.00, 
1886.00, 
1887.00, 
1888.00, 
1889.00, 
1890.00, 
1891.00, 
1892.00, 
1893.00, 
1894.00, 
1895.00, 
1896.00, 
1897.00, 
1898.00, 
1899.00, 
1900.00, 
1901.00, 
1902.00, 
1903.00, 
1904.00, 
1905.00, 
1906.00, 
1907.00, 
1908.00, 
1909.00, 
1910.00, 
1911.00, 
1912.00, 
1913.00, 
1914.00, 
1915.00, 
1916.00, 
1917.00, 
1918.00, 
1919.00, 
1920.00, 
1921.00, 
1922.00, 
1923.00, 
1924.00, 
1925.00, 
1926.00, 
1927.00, 
1928.00, 
1929.00, 
1930.00, 
1931.00, 
1932.00, 
1933.00, 
1934.00, 
1935.00, 
1936.00, 
1937.00, 
1938.00, 
1939.00, 
1940.00, 
1941.00, 
1942.00, 
1943.00, 
1944.00, 
1945.00, 
1946.00, 
1947.00, 
1948.00, 
1949.00, 
1950.00, 
1951.00, 
1952.00, 
1953.00, 
1954.00, 
1955.00, 
1956.00, 
1957.00, 
1958.00, 
1959.00, 
1960.00, 
1961.00, 
1962.00, 
1963.00, 
1964.00, 
1965.00, 
1966.00, 
1967.00, 
1968.00, 
1969.00, 
1970.00, 
1971.00, 
1972.00, 
1973.00, 
1974.00, 
1975.00, 
1976.00, 
1977.00, 
1978.00, 
1979.00, 
1980.00, 
1981.00, 
1982.00, 
1983.00, 
1984.00, 
1985.00, 
1986.00, 
1987.00, 
1988.00, 
1989.00, 
1990.00, 
1991.00, 
1992.00, 
1993.00, 
1994.00, 
1995.00, 
1996.00, 
1997.00, 
1998.00, 
1999.00, 
2000.00, 
2001.00, 
2002.00, 
2003.00, 
2004.00, 
2005.00, 
2006.00, 
2007.00, 
2008.00, 
2009.00, 
2010.00, 
2011.00, 
2012.00, 
2013.00, 
2014.00, 
2015.00, 
2016.00, 
2017.00, 
2018.00, 
2019.00, 
2020.00, 
2021.00, 
2022.00, 
2023.00, 
2024.00, 
2025.00, 
2026.00, 
2027.00, 
2028.00, 
2029.00, 
2030.00, 
2031.00, 
2032.00, 
2033.00, 
2034.00, 
2035.00, 
2036.00, 
2037.00, 
2038.00, 
2039.00, 
2040.00, 
2041.00, 
2042.00, 
2043.00, 
2044.00, 
2045.00, 
2046.00, 
2047.00, 
2048.00, 
2049.00, 
2050.00, 
2051.00, 
2052.00, 
2053.00, 
2054.00, 
2055.00, 
2056.00, 
2057.00, 
2058.00, 
2059.00, 
2060.00, 
2061.00, 
2062.00, 
2063.00, 
2064.00, 
2065.00, 
2066.00, 
2067.00, 
2068.00, 
2069.00, 
2070.00, 
2071.00, 
2072.00, 
2073.00, 
2074.00, 
2075.00, 
2076.00, 
2077.00, 
2078.00, 
2079.00, 
2080.00, 
2081.00, 
2082.00, 
2083.00, 
2084.00, 
2085.00, 
2086.00, 
2087.00, 
2088.00, 
2089.00, 
2090.00, 
2091.00, 
2092.00, 
2093.00, 
2094.00, 
2095.00, 
2096.00, 
2097.00, 
2098.00, 
2099.00, 
2100.00, 
2101.00, 
2102.00, 
2103.00, 
2104.00, 
2105.00, 
2106.00, 
2107.00, 
2108.00, 
2109.00, 
2110.00, 
2111.00, 
2112.00, 
2113.00, 
2114.00, 
2115.00, 
2116.00, 
2117.00, 
2118.00, 
2119.00, 
2120.00, 
2121.00, 
2122.00, 
2123.00, 
2124.00, 
2125.00, 
2126.00, 
2127.00, 
2128.00, 
2129.00, 
2130.00, 
2131.00, 
2132.00, 
2133.00, 
2134.00, 
2135.00, 
2136.00, 
2137.00, 
2138.00, 
2139.00, 
2140.00, 
2141.00, 
2142.00, 
2143.00, 
2144.00, 
2145.00, 
2146.00, 
2147.00, 
2148.00, 
2149.00, 
2150.00, 
2151.00, 
2152.00, 
2153.00, 
2154.00, 
2155.00, 
2156.00, 
2157.00, 
2158.00, 
2159.00, 
2160.00, 
2161.00, 
2162.00, 
2163.00, 
2164.00, 
2165.00, 
2166.00, 
2167.00, 
2168.00, 
2169.00, 
2170.00, 
2171.00, 
2172.00, 
2173.00, 
2174.00, 
2175.00, 
2176.00, 
2177.00, 
2178.00, 
2179.00, 
2180.00, 
2181.00, 
2182.00, 
2183.00, 
2184.00, 
2185.00, 
2186.00, 
2187.00, 
2188.00, 
2189.00, 
2190.00, 
2191.00, 
2192.00, 
2193.00, 
2194.00, 
2195.00, 
2196.00, 
2197.00, 
2198.00, 
2199.00, 
2200.00, 
2201.00, 
2202.00, 
2203.00, 
2204.00, 
2205.00, 
2206.00, 
2207.00, 
2208.00, 
2209.00, 
2210.00, 
2211.00, 
2212.00, 
2213.00, 
2214.00, 
2215.00, 
2216.00, 
2217.00, 
2218.00, 
2219.00, 
2220.00, 
2221.00, 
2222.00, 
2223.00, 
2224.00, 
2225.00, 
2226.00, 
2227.00, 
2228.00, 
2229.00, 
2230.00, 
2231.00, 
2232.00, 
2233.00, 
2234.00, 
2235.00, 
2236.00, 
2237.00, 
2238.00, 
2239.00, 
2240.00, 
2241.00, 
2242.00, 
2243.00, 
2244.00, 
2245.00, 
2246.00, 
2247.00, 
2248.00, 
2249.00, 
2250.00, 
2251.00, 
2252.00, 
2253.00, 
2254.00, 
2255.00, 
2256.00, 
2257.00, 
2258.00, 
2259.00, 
2260.00, 
2261.00, 
2262.00, 
2263.00, 
2264.00, 
2265.00, 
2266.00, 
2267.00, 
2268.00, 
2269.00, 
2270.00, 
2271.00, 
2272.00, 
2273.00, 
2274.00, 
2275.00, 
2276.00, 
2277.00, 
2278.00, 
2279.00, 
2280.00, 
2281.00, 
2282.00, 
2283.00, 
2284.00, 
2285.00, 
2286.00, 
2287.00, 
2288.00, 
2289.00, 
2290.00, 
2291.00, 
2292.00, 
2293.00, 
2294.00, 
2295.00, 
2296.00, 
2297.00, 
2298.00, 
2299.00, 
2300.00, 
2301.00, 
2302.00, 
2303.00, 
2304.00, 
2305.00, 
2306.00, 
2307.00, 
2308.00, 
2309.00, 
2310.00, 
2311.00, 
2312.00, 
2313.00, 
2314.00, 
2315.00, 
2316.00, 
2317.00, 
2318.00, 
2319.00, 
2320.00, 
2321.00, 
2322.00, 
2323.00, 
2324.00, 
2325.00, 
2326.00, 
2327.00, 
2328.00, 
2329.00, 
2330.00, 
2331.00, 
2332.00, 
2333.00, 
2334.00, 
2335.00, 
2336.00, 
2337.00, 
2338.00, 
2339.00, 
2340.00, 
2341.00, 
2342.00, 
2343.00, 
2344.00, 
2345.00, 
2346.00, 
2347.00, 
2348.00, 
2349.00, 
2350.00, 
2351.00, 
2352.00, 
2353.00, 
2354.00, 
2355.00, 
2356.00, 
2357.00, 
2358.00, 
2359.00, 
2360.00, 
2361.00, 
2362.00, 
2363.00, 
2364.00, 
2365.00, 
2366.00, 
2367.00, 
2368.00, 
2369.00, 
2370.00, 
2371.00, 
2372.00, 
2373.00, 
2374.00, 
2375.00, 
2376.00, 
2377.00, 
2378.00, 
2379.00, 
2380.00, 
2381.00, 
2382.00, 
2383.00, 
2384.00, 
2385.00, 
2386.00, 
2387.00, 
2388.00, 
2389.00, 
2390.00, 
2391.00, 
2392.00, 
2393.00, 
2394.00, 
2395.00, 
2396.00, 
2397.00, 
2398.00, 
2399.00, 
2400.00, 
2401.00, 
2402.00, 
2403.00, 
2404.00, 
2405.00, 
2406.00, 
2407.00, 
2408.00, 
2409.00, 
2410.00, 
2411.00, 
2412.00, 
2413.00, 
2414.00, 
2415.00, 
2416.00, 
2417.00, 
2418.00, 
2419.00, 
2420.00, 
2421.00, 
2422.00, 
2423.00, 
2424.00, 
2425.00, 
2426.00, 
2427.00, 
2428.00, 
2429.00, 
2430.00, 
2431.00, 
2432.00, 
2433.00, 
2434.00, 
2435.00, 
2436.00, 
2437.00, 
2438.00, 
2439.00, 
2440.00, 
2441.00, 
2442.00, 
2443.00, 
2444.00, 
2445.00, 
2446.00, 
2447.00, 
2448.00, 
2449.00, 
2450.00, 
2451.00, 
2452.00, 
2453.00, 
2454.00, 
2455.00, 
2456.00, 
2457.00, 
2458.00, 
2459.00, 
2460.00, 
2461.00, 
2462.00, 
2463.00, 
2464.00, 
2465.00, 
2466.00, 
2467.00, 
2468.00, 
2469.00, 
2470.00, 
2471.00, 
2472.00, 
2473.00, 
2474.00, 
2475.00, 
2476.00, 
2477.00, 
2478.00, 
2479.00, 
2480.00, 
2481.00, 
2482.00, 
2483.00, 
2484.00, 
2485.00, 
2486.00, 
2487.00, 
2488.00, 
2489.00, 
2490.00, 
2491.00, 
2492.00, 
2493.00, 
2494.00, 
2495.00, 
2496.00, 
2497.00, 
2498.00, 
2499.00, 
2500.00, 
2501.00, 
2502.00, 
2503.00, 
2504.00, 
2505.00, 
2506.00, 
2507.00, 
2508.00, 
2509.00, 
2510.00, 
2511.00, 
2512.00, 
2513.00, 
2514.00, 
2515.00, 
2516.00, 
2517.00, 
2518.00, 
2519.00, 
2520.00, 
2521.00, 
2522.00, 
2523.00, 
2524.00, 
2525.00, 
2526.00, 
2527.00, 
2528.00, 
2529.00, 
2530.00, 
2531.00, 
2532.00, 
2533.00, 
2534.00, 
2535.00, 
2536.00, 
2537.00, 
2538.00, 
2539.00, 
2540.00, 
2541.00, 
2542.00, 
2543.00, 
2544.00, 
2545.00, 
2546.00, 
2547.00, 
2548.00, 
2549.00, 
2550.00, 
2551.00, 
2552.00, 
2553.00, 
2554.00, 
2555.00, 
2556.00, 
2557.00, 
2558.00, 
2559.00, 
2560.00, 
2561.00, 
2562.00, 
2563.00, 
2564.00, 
2565.00, 
2566.00, 
2567.00, 
2568.00, 
2569.00, 
2570.00, 
2571.00, 
2572.00, 
2573.00, 
2574.00, 
2575.00, 
2576.00, 
2577.00, 
2578.00, 
2579.00, 
2580.00, 
2581.00, 
2582.00, 
2583.00, 
2584.00, 
2585.00, 
2586.00, 
2587.00, 
2588.00, 
2589.00, 
2590.00, 
2591.00, 
2592.00, 
2593.00, 
2594.00, 
2595.00, 
2596.00, 
2597.00, 
2598.00, 
2599.00, 
2600.00, 
