"2cP5 - RawData"
"Wavelength nm.","T%"
200.00,0.000
201.00,0.003
202.00,-0.001
203.00,0.003
204.00,0.002
205.00,-0.002
206.00,0.000
207.00,0.003
208.00,0.004
209.00,0.003
210.00,0.000
211.00,0.001
212.00,0.002
213.00,0.001
214.00,0.002
215.00,0.002
216.00,0.002
217.00,0.006
218.00,-0.001
219.00,0.002
220.00,0.000
221.00,-0.001
222.00,0.002
223.00,0.001
224.00,0.003
225.00,0.002
226.00,0.001
227.00,0.001
228.00,0.000
229.00,0.001
230.00,0.002
231.00,-0.001
232.00,-0.001
233.00,0.002
234.00,-0.001
235.00,-0.001
236.00,-0.000
237.00,-0.000
238.00,0.000
239.00,0.001
240.00,-0.001
241.00,0.000
242.00,0.002
243.00,0.003
244.00,0.002
245.00,-0.001
246.00,-0.000
247.00,-0.000
248.00,0.001
249.00,-0.000
250.00,0.001
251.00,-0.000
252.00,0.000
253.00,0.001
254.00,-0.000
255.00,-0.001
256.00,0.001
257.00,-0.001
258.00,0.001
259.00,0.001
260.00,0.002
261.00,0.001
262.00,-0.001
263.00,-0.001
264.00,0.002
265.00,-0.000
266.00,-0.001
267.00,0.000
268.00,0.003
269.00,-0.000
270.00,0.001
271.00,-0.001
272.00,-0.000
273.00,0.001
274.00,0.000
275.00,-0.001
276.00,-0.002
277.00,-0.000
278.00,0.002
279.00,-0.001
280.00,0.001
281.00,-0.001
282.00,-0.001
283.00,0.002
284.00,0.001
285.00,-0.001
286.00,0.001
287.00,-0.000
288.00,-0.001
289.00,0.000
290.00,-0.001
291.00,-0.000
292.00,-0.002
293.00,0.001
294.00,-0.001
295.00,0.000
296.00,-0.000
297.00,-0.000
298.00,-0.000
299.00,0.001
300.00,0.002
301.00,0.005
302.00,0.003
303.00,0.008
304.00,0.012
305.00,0.017
306.00,0.026
307.00,0.036
308.00,0.057
309.00,0.089
310.00,0.127
311.00,0.169
312.00,0.236
313.00,0.309
314.00,0.413
315.00,0.533
316.00,0.682
317.00,0.874
318.00,1.069
319.00,1.327
320.00,1.592
321.00,1.908
322.00,2.274
323.00,2.651
324.00,3.083
325.00,3.518
326.00,3.967
327.00,4.481
328.00,5.006
329.00,5.529
330.00,6.106
331.00,6.638
332.00,7.223
333.00,7.832
334.00,8.392
335.00,8.987
336.00,9.606
337.00,10.145
338.00,10.731
339.00,11.265
340.00,11.821
341.00,12.346
342.00,12.857
343.00,13.307
344.00,13.793
345.00,14.270
346.00,14.666
347.00,15.013
348.00,15.390
349.00,15.784
350.00,16.028
351.00,16.388
352.00,16.666
353.00,16.894
354.00,17.189
355.00,17.434
356.00,17.629
357.00,17.837
358.00,17.984
359.00,18.265
360.00,18.449
361.00,18.519
362.00,18.692
363.00,18.801
364.00,18.903
365.00,18.974
366.00,19.020
367.00,19.136
368.00,19.160
369.00,19.242
370.00,19.271
371.00,19.293
372.00,19.246
373.00,19.251
374.00,19.260
375.00,19.260
376.00,19.197
377.00,19.161
378.00,19.099
379.00,19.028
380.00,19.015
381.00,18.987
382.00,18.994
383.00,18.990
384.00,19.026
385.00,19.078
386.00,19.057
387.00,19.099
388.00,19.151
389.00,19.124
390.00,19.167
391.00,19.209
392.00,19.238
393.00,19.195
394.00,19.173
395.00,19.205
396.00,19.165
397.00,19.210
398.00,19.209
399.00,19.222
400.00,19.233
401.00,19.218
402.00,19.214
403.00,19.131
404.00,19.205
405.00,19.132
406.00,19.172
407.00,19.156
408.00,19.137
409.00,19.100
410.00,19.042
411.00,19.054
412.00,19.035
413.00,19.077
414.00,19.065
415.00,19.080
416.00,19.134
417.00,19.077
418.00,19.127
419.00,19.176
420.00,19.224
421.00,19.278
422.00,19.287
423.00,19.378
424.00,19.399
425.00,19.386
426.00,19.423
427.00,19.474
428.00,19.533
429.00,19.569
430.00,19.599
431.00,19.669
432.00,19.728
433.00,19.783
434.00,19.838
435.00,19.895
436.00,19.956
437.00,20.034
438.00,20.107
439.00,20.180
440.00,20.232
441.00,20.323
442.00,20.424
443.00,20.484
444.00,20.567
445.00,20.690
446.00,20.781
447.00,20.879
448.00,20.964
449.00,21.091
450.00,21.187
451.00,21.273
452.00,21.382
453.00,21.497
454.00,21.604
455.00,21.698
456.00,21.870
457.00,21.967
458.00,22.062
459.00,22.204
460.00,22.337
461.00,22.452
462.00,22.591
463.00,22.715
464.00,22.863
465.00,22.972
466.00,23.109
467.00,23.236
468.00,23.357
469.00,23.459
470.00,23.585
471.00,23.720
472.00,23.806
473.00,23.918
474.00,24.078
475.00,24.193
476.00,24.239
477.00,24.365
478.00,24.511
479.00,24.737
480.00,24.864
481.00,24.981
482.00,25.150
483.00,25.292
484.00,25.462
485.00,25.630
486.00,25.745
487.00,25.938
488.00,26.075
489.00,26.249
490.00,26.413
491.00,26.521
492.00,26.764
493.00,26.909
494.00,26.881
495.00,27.066
496.00,27.215
497.00,27.330
498.00,27.471
499.00,27.634
500.00,27.832
501.00,27.853
502.00,28.021
503.00,28.169
504.00,28.205
505.00,28.485
506.00,28.558
507.00,28.598
508.00,28.741
509.00,28.937
510.00,29.028
511.00,29.170
512.00,29.289
513.00,29.468
514.00,29.567
515.00,29.724
516.00,29.832
517.00,29.891
518.00,30.037
519.00,30.158
520.00,30.176
521.00,30.325
522.00,30.439
523.00,30.453
524.00,30.560
525.00,30.670
526.00,30.763
527.00,30.909
528.00,30.925
529.00,31.104
530.00,31.263
531.00,31.391
532.00,31.473
533.00,31.596
534.00,31.658
535.00,31.740
536.00,31.821
537.00,31.958
538.00,32.023
539.00,32.050
540.00,32.152
541.00,32.181
542.00,32.241
543.00,32.331
544.00,32.418
545.00,32.491
546.00,32.536
547.00,32.691
548.00,32.749
549.00,32.816
550.00,32.897
551.00,33.002
552.00,33.086
553.00,33.080
554.00,33.168
555.00,33.250
556.00,33.293
557.00,33.328
558.00,33.448
559.00,33.506
560.00,33.512
561.00,33.597
562.00,33.705
563.00,33.700
564.00,33.819
565.00,33.807
566.00,33.867
567.00,33.922
568.00,33.971
569.00,34.011
570.00,34.078
571.00,34.100
572.00,34.148
573.00,34.123
574.00,34.198
575.00,34.206
576.00,34.166
577.00,34.284
578.00,34.395
579.00,34.426
580.00,34.476
581.00,34.643
582.00,34.698
583.00,34.741
584.00,34.837
585.00,34.827
586.00,34.850
587.00,34.972
588.00,34.993
589.00,35.010
590.00,35.085
591.00,35.132
592.00,35.106
593.00,35.148
594.00,35.283
595.00,35.378
596.00,35.458
597.00,35.445
598.00,35.504
599.00,35.549
600.00,35.593
601.00,35.669
602.00,35.738
603.00,35.776
604.00,35.793
605.00,35.784
606.00,35.832
607.00,35.852
608.00,36.062
609.00,36.120
610.00,35.981
611.00,36.111
612.00,36.164
613.00,36.182
614.00,36.244
615.00,36.316
616.00,36.415
617.00,36.455
618.00,36.477
619.00,36.542
620.00,36.630
621.00,36.645
622.00,36.712
623.00,36.765
624.00,36.881
625.00,36.976
626.00,36.973
627.00,37.097
628.00,37.134
629.00,37.128
630.00,37.170
631.00,37.262
632.00,37.342
633.00,37.410
634.00,37.521
635.00,37.627
636.00,37.736
637.00,37.829
638.00,37.784
639.00,37.912
640.00,37.943
641.00,38.056
642.00,38.157
643.00,38.215
644.00,38.315
645.00,38.406
646.00,38.507
647.00,38.594
648.00,38.674
649.00,38.712
650.00,38.727
651.00,38.939
652.00,38.992
653.00,38.992
654.00,39.076
655.00,39.274
656.00,39.556
657.00,39.452
658.00,39.563
659.00,39.604
660.00,39.721
661.00,39.816
662.00,39.820
663.00,39.960
664.00,40.164
665.00,40.440
666.00,40.607
667.00,40.469
668.00,40.629
669.00,40.875
670.00,40.924
671.00,40.866
672.00,40.952
673.00,40.974
674.00,41.170
675.00,41.269
676.00,41.401
677.00,41.748
678.00,41.467
679.00,41.441
680.00,41.865
681.00,42.078
682.00,41.952
683.00,42.210
684.00,42.423
685.00,42.404
686.00,42.160
687.00,42.318
688.00,42.577
689.00,42.669
690.00,42.725
691.00,43.161
692.00,43.024
693.00,42.950
694.00,43.152
695.00,43.336
696.00,43.466
697.00,43.506
698.00,43.619
699.00,43.754
700.00,43.809
701.00,43.854
702.00,43.971
703.00,44.222
704.00,44.267
705.00,44.062
706.00,44.345
707.00,44.632
708.00,44.288
709.00,44.706
710.00,45.203
711.00,44.816
712.00,44.837
713.00,45.011
714.00,45.193
715.00,45.168
716.00,45.167
717.00,45.336
718.00,45.532
719.00,45.586
720.00,45.649
721.00,50.012
722.00,50.007
723.00,50.112
724.00,50.181
725.00,50.201
726.00,50.236
727.00,50.314
728.00,50.271
729.00,50.378
730.00,50.424
731.00,50.503
732.00,50.387
733.00,50.527
734.00,50.703
735.00,50.684
736.00,50.738
737.00,50.749
738.00,50.878
739.00,50.897
740.00,50.887
741.00,50.938
742.00,50.946
743.00,51.019
744.00,51.015
745.00,51.076
746.00,51.115
747.00,51.120
748.00,51.051
749.00,51.046
750.00,51.135
751.00,51.163
752.00,51.083
753.00,51.192
754.00,51.246
755.00,51.186
756.00,51.188
757.00,51.320
758.00,51.295
759.00,51.331
760.00,51.435
761.00,51.386
762.00,51.403
763.00,51.465
764.00,51.457
765.00,51.414
766.00,51.477
767.00,51.530
768.00,51.482
769.00,51.528
770.00,51.612
771.00,51.575
772.00,51.729
773.00,51.627
774.00,51.646
775.00,51.727
776.00,51.698
777.00,51.736
778.00,51.737
779.00,51.824
780.00,51.663
781.00,51.829
782.00,51.852
783.00,51.784
784.00,51.782
785.00,51.770
786.00,51.849
787.00,51.787
788.00,51.811
789.00,51.759
790.00,51.755
791.00,51.772
792.00,51.755
793.00,51.779
794.00,51.763
795.00,51.793
796.00,51.772
797.00,51.771
798.00,51.803
799.00,51.787
800.00,51.786
801.00,51.738
802.00,51.797
803.00,51.762
804.00,51.713
805.00,51.761
806.00,51.721
807.00,51.702
808.00,51.747
809.00,51.706
810.00,51.628
811.00,51.672
812.00,51.613
813.00,51.622
814.00,51.682
815.00,51.614
816.00,51.728
817.00,51.567
818.00,51.602
819.00,51.622
820.00,51.595
821.00,51.589
822.00,51.636
823.00,51.547
824.00,51.614
825.00,51.519
826.00,51.522
827.00,51.665
828.00,51.588
829.00,51.594
830.00,51.530
831.00,53.681
832.00,53.717
833.00,53.646
834.00,53.667
835.00,53.604
836.00,53.618
837.00,53.618
838.00,53.609
839.00,53.610
840.00,53.563
841.00,53.597
842.00,53.559
843.00,53.600
844.00,53.569
845.00,53.528
846.00,53.525
847.00,53.501
848.00,53.505
849.00,53.427
850.00,53.422
851.00,53.344
852.00,53.417
853.00,53.435
854.00,53.286
855.00,53.246
856.00,53.293
857.00,53.074
858.00,53.211
859.00,53.195
860.00,53.194
861.00,53.188
862.00,53.125
863.00,53.190
864.00,53.108
865.00,53.145
866.00,53.119
867.00,53.107
868.00,53.114
869.00,53.092
870.00,53.096
871.00,53.078
872.00,53.045
873.00,53.061
874.00,53.089
875.00,52.873
876.00,53.060
877.00,53.004
878.00,53.042
879.00,53.005
880.00,52.983
881.00,52.938
882.00,53.010
883.00,52.921
884.00,52.894
885.00,52.888
886.00,52.887
887.00,52.868
888.00,52.846
889.00,52.828
890.00,52.828
891.00,52.796
892.00,52.776
893.00,52.739
894.00,52.751
895.00,52.747
896.00,52.716
897.00,52.692
898.00,52.676
899.00,52.651
900.00,52.666
901.00,52.567
902.00,52.647
903.00,52.599
904.00,52.603
905.00,52.577
906.00,52.578
907.00,52.543
908.00,52.524
909.00,52.524
910.00,52.484
911.00,52.473
912.00,52.492
913.00,52.432
914.00,52.422
915.00,52.400
916.00,52.374
917.00,52.371
918.00,52.354
919.00,52.327
920.00,52.273
921.00,52.276
922.00,52.300
923.00,52.253
924.00,52.206
925.00,52.175
926.00,52.272
927.00,52.146
928.00,52.141
929.00,52.161
930.00,52.120
931.00,52.114
932.00,52.076
933.00,52.100
934.00,52.071
935.00,52.046
936.00,52.025
937.00,52.015
938.00,52.000
939.00,51.977
940.00,51.953
941.00,51.951
942.00,51.906
943.00,51.913
944.00,51.879
945.00,51.863
946.00,51.887
947.00,51.826
948.00,51.813
949.00,51.785
950.00,51.793
951.00,51.766
952.00,51.744
953.00,51.709
954.00,51.694
955.00,51.640
956.00,51.642
957.00,51.593
958.00,51.604
959.00,51.553
960.00,51.551
961.00,51.545
962.00,51.540
963.00,51.484
964.00,51.493
965.00,51.488
966.00,51.479
967.00,51.487
968.00,51.454
969.00,51.492
970.00,51.461
971.00,51.453
972.00,51.409
973.00,51.456
974.00,51.482
975.00,51.443
976.00,51.462
977.00,51.453
978.00,51.505
979.00,51.451
980.00,51.479
981.00,51.482
982.00,51.420
983.00,51.467
984.00,51.428
985.00,51.451
986.00,51.403
987.00,51.422
988.00,51.393
989.00,51.393
990.00,51.369
991.00,51.349
992.00,51.371
993.00,51.311
994.00,51.316
995.00,51.309
996.00,51.293
997.00,51.292
998.00,51.255
999.00,51.279
1000.00,51.226
1001.00,51.227
1002.00,51.219
1003.00,51.210
1004.00,51.204
1005.00,51.173
1006.00,51.198
1007.00,51.159
1008.00,51.148
1009.00,51.132
1010.00,51.120
1011.00,51.121
1012.00,51.080
1013.00,51.101
1014.00,51.055
1015.00,51.070
1016.00,51.038
1017.00,51.024
1018.00,51.032
1019.00,50.985
1020.00,50.981
1021.00,50.958
1022.00,50.976
1023.00,50.908
1024.00,50.915
1025.00,50.903
1026.00,50.886
1027.00,50.851
1028.00,50.824
1029.00,50.846
1030.00,50.805
1031.00,50.833
1032.00,50.790
1033.00,50.798
1034.00,50.759
1035.00,50.705
1036.00,50.704
1037.00,50.691
1038.00,50.675
1039.00,50.626
1040.00,50.626
1041.00,50.598
1042.00,50.591
1043.00,50.582
1044.00,50.612
1045.00,50.599
1046.00,50.581
1047.00,50.613
1048.00,50.621
1049.00,50.635
1050.00,50.611
1051.00,50.660
1052.00,50.647
1053.00,50.643
1054.00,50.639
1055.00,50.669
1056.00,50.670
1057.00,50.672
1058.00,50.659
1059.00,50.641
1060.00,50.665
1061.00,50.646
1062.00,50.640
1063.00,50.644
1064.00,50.645
1065.00,50.621
1066.00,50.620
1067.00,50.603
1068.00,50.621
1069.00,50.575
1070.00,50.562
1071.00,50.545
1072.00,50.559
1073.00,50.542
1074.00,50.546
1075.00,50.521
1076.00,50.531
1077.00,50.516
1078.00,50.486
1079.00,50.491
1080.00,50.485
1081.00,50.476
1082.00,50.473
1083.00,50.452
1084.00,50.441
1085.00,50.433
1086.00,50.425
1087.00,50.430
1088.00,50.409
1089.00,50.403
1090.00,50.403
1091.00,50.406
1092.00,50.385
1093.00,50.378
1094.00,50.356
1095.00,50.351
1096.00,50.323
1097.00,50.329
1098.00,50.324
1099.00,50.318
1100.00,50.297
1101.00,50.289
1102.00,50.295
1103.00,50.292
1104.00,50.283
1105.00,50.288
1106.00,50.262
1107.00,50.273
1108.00,50.242
1109.00,50.248
1110.00,50.236
1111.00,50.227
1112.00,50.212
1113.00,50.208
1114.00,50.189
1115.00,50.190
1116.00,50.175
1117.00,50.170
1118.00,50.156
1119.00,50.157
1120.00,50.153
1121.00,50.152
1122.00,50.134
1123.00,50.128
1124.00,50.117
1125.00,50.106
1126.00,50.087
1127.00,50.083
1128.00,50.062
1129.00,50.058
1130.00,50.049
1131.00,50.044
1132.00,50.038
1133.00,50.037
1134.00,50.032
1135.00,50.022
1136.00,50.018
1137.00,50.039
1138.00,50.019
1139.00,50.029
1140.00,50.009
1141.00,50.001
1142.00,50.005
1143.00,50.018
1144.00,49.988
1145.00,50.002
1146.00,49.987
1147.00,49.973
1148.00,49.980
1149.00,49.976
1150.00,49.975
1151.00,49.998
1152.00,49.960
1153.00,49.974
1154.00,49.961
1155.00,49.942
1156.00,49.938
1157.00,49.952
1158.00,49.931
1159.00,49.937
1160.00,49.935
1161.00,49.939
1162.00,49.930
1163.00,49.924
1164.00,49.926
1165.00,49.916
1166.00,49.946
1167.00,49.929
1168.00,49.941
1169.00,49.921
1170.00,49.917
1171.00,49.890
1172.00,49.886
1173.00,49.887
1174.00,49.889
1175.00,49.894
1176.00,49.888
1177.00,49.881
1178.00,49.881
1179.00,49.897
1180.00,49.881
1181.00,49.895
1182.00,49.893
1183.00,49.891
1184.00,49.884
1185.00,49.881
1186.00,49.891
1187.00,49.878
1188.00,49.861
1189.00,49.872
1190.00,49.866
1191.00,49.857
1192.00,49.878
1193.00,49.859
1194.00,49.875
1195.00,49.854
1196.00,49.870
1197.00,49.877
1198.00,49.868
1199.00,49.865
1200.00,49.856
1201.00,49.872
1202.00,49.851
1203.00,49.843
1204.00,49.833
1205.00,49.844
1206.00,49.831
1207.00,49.829
1208.00,49.822
1209.00,49.843
1210.00,49.833
1211.00,49.823
1212.00,49.857
1213.00,49.801
1214.00,49.825
1215.00,49.796
1216.00,49.789
1217.00,49.800
1218.00,49.785
1219.00,49.823
1220.00,49.808
1221.00,49.810
1222.00,49.812
1223.00,49.835
1224.00,49.841
1225.00,49.827
1226.00,49.842
1227.00,49.843
1228.00,49.846
1229.00,49.835
1230.00,49.862
1231.00,49.857
1232.00,49.858
1233.00,49.863
1234.00,49.866
1235.00,49.854
1236.00,49.850
1237.00,49.854
1238.00,49.861
1239.00,49.872
1240.00,49.860
1241.00,49.881
1242.00,49.892
1243.00,49.893
1244.00,49.872
1245.00,49.898
1246.00,49.898
1247.00,49.889
1248.00,49.890
1249.00,49.892
1250.00,49.897
1251.00,49.896
1252.00,49.922
1253.00,49.907
1254.00,49.919
1255.00,49.907
1256.00,49.890
1257.00,49.880
1258.00,49.932
1259.00,49.908
1260.00,49.922
1261.00,49.935
1262.00,49.915
1263.00,49.925
1264.00,49.926
1265.00,49.927
1266.00,49.927
1267.00,49.941
1268.00,49.934
1269.00,49.941
1270.00,49.957
1271.00,49.951
1272.00,49.976
1273.00,49.996
1274.00,49.974
1275.00,49.989
1276.00,49.977
1277.00,49.979
1278.00,49.988
1279.00,49.982
1280.00,49.994
1281.00,50.010
1282.00,50.002
1283.00,50.002
1284.00,49.996
1285.00,49.999
1286.00,50.013
1287.00,49.999
1288.00,50.031
1289.00,50.024
1290.00,50.024
1291.00,50.030
1292.00,50.021
1293.00,50.024
1294.00,50.044
1295.00,50.039
1296.00,50.061
1297.00,50.070
1298.00,50.086
1299.00,50.074
1300.00,50.091
1301.00,50.072
1302.00,50.091
1303.00,50.104
1304.00,50.079
1305.00,50.083
1306.00,50.096
1307.00,50.108
1308.00,50.108
1309.00,50.111
1310.00,50.132
1311.00,50.125
1312.00,50.118
1313.00,50.131
1314.00,50.143
1315.00,50.162
1316.00,50.152
1317.00,50.170
1318.00,50.175
1319.00,50.171
1320.00,50.173
1321.00,50.363
1322.00,50.349
1323.00,50.345
1324.00,50.328
1325.00,50.305
1326.00,50.336
1327.00,50.332
1328.00,50.316
1329.00,50.319
1330.00,50.324
1331.00,50.327
1332.00,50.320
1333.00,50.311
1334.00,50.337
1335.00,50.357
1336.00,50.403
1337.00,50.395
1338.00,50.466
1339.00,50.515
1340.00,50.581
1341.00,50.633
1342.00,50.703
1343.00,50.754
1344.00,50.792
1345.00,50.864
1346.00,50.869
1347.00,50.894
1348.00,50.936
1349.00,50.946
1350.00,50.952
1351.00,50.985
1352.00,51.010
1353.00,50.779
1354.00,51.019
1355.00,50.994
1356.00,51.007
1357.00,51.009
1358.00,51.042
1359.00,51.049
1360.00,51.056
1361.00,51.047
1362.00,51.016
1363.00,51.059
1364.00,51.025
1365.00,51.030
1366.00,51.064
1367.00,51.007
1368.00,50.994
1369.00,51.017
1370.00,51.003
1371.00,50.951
1372.00,50.982
1373.00,51.012
1374.00,51.012
1375.00,51.006
1376.00,50.986
1377.00,50.960
1378.00,51.007
1379.00,51.004
1380.00,50.988
1381.00,51.077
1382.00,50.956
1383.00,51.004
1384.00,50.936
1385.00,50.936
1386.00,50.995
1387.00,50.986
1388.00,50.940
1389.00,50.993
1390.00,50.988
1391.00,50.994
1392.00,50.992
1393.00,50.955
1394.00,50.982
1395.00,51.039
1396.00,50.901
1397.00,51.028
1398.00,50.699
1399.00,50.999
1400.00,50.933
1401.00,50.944
1402.00,50.994
1403.00,50.981
1404.00,50.971
1405.00,50.999
1406.00,51.021
1407.00,50.998
1408.00,51.014
1409.00,51.015
1410.00,51.052
1411.00,50.887
1412.00,51.177
1413.00,51.031
1414.00,51.042
1415.00,51.075
1416.00,51.098
1417.00,51.128
1418.00,51.090
1419.00,51.085
1420.00,51.115
1421.00,51.148
1422.00,51.149
1423.00,51.155
1424.00,51.165
1425.00,51.191
1426.00,51.182
1427.00,51.212
1428.00,51.228
1429.00,51.219
1430.00,51.239
1431.00,51.264
1432.00,51.274
1433.00,51.293
1434.00,51.287
1435.00,51.311
1436.00,51.340
1437.00,51.316
1438.00,51.343
1439.00,51.380
1440.00,51.372
1441.00,51.379
1442.00,51.412
1443.00,51.410
1444.00,51.471
1445.00,51.433
1446.00,51.442
1447.00,51.490
1448.00,51.494
1449.00,51.493
1450.00,51.512
1451.00,51.511
1452.00,51.544
1453.00,51.561
1454.00,51.576
1455.00,51.601
1456.00,51.605
1457.00,51.598
1458.00,51.628
1459.00,51.623
1460.00,51.641
1461.00,51.658
1462.00,51.687
1463.00,51.697
1464.00,51.703
1465.00,51.708
1466.00,51.721
1467.00,51.750
1468.00,51.793
1469.00,51.782
1470.00,51.787
1471.00,51.813
1472.00,51.823
1473.00,51.827
1474.00,51.869
1475.00,51.861
1476.00,51.876
1477.00,51.884
1478.00,51.895
1479.00,51.915
1480.00,51.895
1481.00,51.909
1482.00,51.948
1483.00,51.963
1484.00,51.960
1485.00,51.977
1486.00,51.983
1487.00,51.986
1488.00,52.026
1489.00,52.009
1490.00,52.023
1491.00,52.040
1492.00,52.053
1493.00,52.039
1494.00,52.070
1495.00,52.044
1496.00,52.072
1497.00,52.077
1498.00,52.079
1499.00,52.120
1500.00,52.136
1501.00, 
1502.00, 
1503.00, 
1504.00, 
1505.00, 
1506.00, 
1507.00, 
1508.00, 
1509.00, 
1510.00, 
1511.00, 
1512.00, 
1513.00, 
1514.00, 
1515.00, 
1516.00, 
1517.00, 
1518.00, 
1519.00, 
1520.00, 
1521.00, 
1522.00, 
1523.00, 
1524.00, 
1525.00, 
1526.00, 
1527.00, 
1528.00, 
1529.00, 
1530.00, 
1531.00, 
1532.00, 
1533.00, 
1534.00, 
1535.00, 
1536.00, 
1537.00, 
1538.00, 
1539.00, 
1540.00, 
1541.00, 
1542.00, 
1543.00, 
1544.00, 
1545.00, 
1546.00, 
1547.00, 
1548.00, 
1549.00, 
1550.00, 
1551.00, 
1552.00, 
1553.00, 
1554.00, 
1555.00, 
1556.00, 
1557.00, 
1558.00, 
1559.00, 
1560.00, 
1561.00, 
1562.00, 
1563.00, 
1564.00, 
1565.00, 
1566.00, 
1567.00, 
1568.00, 
1569.00, 
1570.00, 
1571.00, 
1572.00, 
1573.00, 
1574.00, 
1575.00, 
1576.00, 
1577.00, 
1578.00, 
1579.00, 
1580.00, 
1581.00, 
1582.00, 
1583.00, 
1584.00, 
1585.00, 
1586.00, 
1587.00, 
1588.00, 
1589.00, 
1590.00, 
1591.00, 
1592.00, 
1593.00, 
1594.00, 
1595.00, 
1596.00, 
1597.00, 
1598.00, 
1599.00, 
1600.00, 
1601.00, 
1602.00, 
1603.00, 
1604.00, 
1605.00, 
1606.00, 
1607.00, 
1608.00, 
1609.00, 
1610.00, 
1611.00, 
1612.00, 
1613.00, 
1614.00, 
1615.00, 
1616.00, 
1617.00, 
1618.00, 
1619.00, 
1620.00, 
1621.00, 
1622.00, 
1623.00, 
1624.00, 
1625.00, 
1626.00, 
1627.00, 
1628.00, 
1629.00, 
1630.00, 
1631.00, 
1632.00, 
1633.00, 
1634.00, 
1635.00, 
1636.00, 
1637.00, 
1638.00, 
1639.00, 
1640.00, 
1641.00, 
1642.00, 
1643.00, 
1644.00, 
1645.00, 
1646.00, 
1647.00, 
1648.00, 
1649.00, 
1650.00, 
1651.00, 
1652.00, 
1653.00, 
1654.00, 
1655.00, 
1656.00, 
1657.00, 
1658.00, 
1659.00, 
1660.00, 
1661.00, 
1662.00, 
1663.00, 
1664.00, 
1665.00, 
1666.00, 
1667.00, 
1668.00, 
1669.00, 
1670.00, 
1671.00, 
1672.00, 
1673.00, 
1674.00, 
1675.00, 
1676.00, 
1677.00, 
1678.00, 
1679.00, 
1680.00, 
1681.00, 
1682.00, 
1683.00, 
1684.00, 
1685.00, 
1686.00, 
1687.00, 
1688.00, 
1689.00, 
1690.00, 
1691.00, 
1692.00, 
1693.00, 
1694.00, 
1695.00, 
1696.00, 
1697.00, 
1698.00, 
1699.00, 
1700.00, 
1701.00, 
1702.00, 
1703.00, 
1704.00, 
1705.00, 
1706.00, 
1707.00, 
1708.00, 
1709.00, 
1710.00, 
1711.00, 
1712.00, 
1713.00, 
1714.00, 
1715.00, 
1716.00, 
1717.00, 
1718.00, 
1719.00, 
1720.00, 
1721.00, 
1722.00, 
1723.00, 
1724.00, 
1725.00, 
1726.00, 
1727.00, 
1728.00, 
1729.00, 
1730.00, 
1731.00, 
1732.00, 
1733.00, 
1734.00, 
1735.00, 
1736.00, 
1737.00, 
1738.00, 
1739.00, 
1740.00, 
1741.00, 
1742.00, 
1743.00, 
1744.00, 
1745.00, 
1746.00, 
1747.00, 
1748.00, 
1749.00, 
1750.00, 
1751.00, 
1752.00, 
1753.00, 
1754.00, 
1755.00, 
1756.00, 
1757.00, 
1758.00, 
1759.00, 
1760.00, 
1761.00, 
1762.00, 
1763.00, 
1764.00, 
1765.00, 
1766.00, 
1767.00, 
1768.00, 
1769.00, 
1770.00, 
1771.00, 
1772.00, 
1773.00, 
1774.00, 
1775.00, 
1776.00, 
1777.00, 
1778.00, 
1779.00, 
1780.00, 
1781.00, 
1782.00, 
1783.00, 
1784.00, 
1785.00, 
1786.00, 
1787.00, 
1788.00, 
1789.00, 
1790.00, 
1791.00, 
1792.00, 
1793.00, 
1794.00, 
1795.00, 
1796.00, 
1797.00, 
1798.00, 
1799.00, 
1800.00, 
1801.00, 
1802.00, 
1803.00, 
1804.00, 
1805.00, 
1806.00, 
1807.00, 
1808.00, 
1809.00, 
1810.00, 
1811.00, 
1812.00, 
1813.00, 
1814.00, 
1815.00, 
1816.00, 
1817.00, 
1818.00, 
1819.00, 
1820.00, 
1821.00, 
1822.00, 
1823.00, 
1824.00, 
1825.00, 
1826.00, 
1827.00, 
1828.00, 
1829.00, 
1830.00, 
1831.00, 
1832.00, 
1833.00, 
1834.00, 
1835.00, 
1836.00, 
1837.00, 
1838.00, 
1839.00, 
1840.00, 
1841.00, 
1842.00, 
1843.00, 
1844.00, 
1845.00, 
1846.00, 
1847.00, 
1848.00, 
1849.00, 
1850.00, 
1851.00, 
1852.00, 
1853.00, 
1854.00, 
1855.00, 
1856.00, 
1857.00, 
1858.00, 
1859.00, 
1860.00, 
1861.00, 
1862.00, 
1863.00, 
1864.00, 
1865.00, 
1866.00, 
1867.00, 
1868.00, 
1869.00, 
1870.00, 
1871.00, 
1872.00, 
1873.00, 
1874.00, 
1875.00, 
1876.00, 
1877.00, 
1878.00, 
1879.00, 
1880.00, 
1881.00, 
1882.00, 
1883.00, 
1884.00, 
1885.00, 
1886.00, 
1887.00, 
1888.00, 
1889.00, 
1890.00, 
1891.00, 
1892.00, 
1893.00, 
1894.00, 
1895.00, 
1896.00, 
1897.00, 
1898.00, 
1899.00, 
1900.00, 
1901.00, 
1902.00, 
1903.00, 
1904.00, 
1905.00, 
1906.00, 
1907.00, 
1908.00, 
1909.00, 
1910.00, 
1911.00, 
1912.00, 
1913.00, 
1914.00, 
1915.00, 
1916.00, 
1917.00, 
1918.00, 
1919.00, 
1920.00, 
1921.00, 
1922.00, 
1923.00, 
1924.00, 
1925.00, 
1926.00, 
1927.00, 
1928.00, 
1929.00, 
1930.00, 
1931.00, 
1932.00, 
1933.00, 
1934.00, 
1935.00, 
1936.00, 
1937.00, 
1938.00, 
1939.00, 
1940.00, 
1941.00, 
1942.00, 
1943.00, 
1944.00, 
1945.00, 
1946.00, 
1947.00, 
1948.00, 
1949.00, 
1950.00, 
1951.00, 
1952.00, 
1953.00, 
1954.00, 
1955.00, 
1956.00, 
1957.00, 
1958.00, 
1959.00, 
1960.00, 
1961.00, 
1962.00, 
1963.00, 
1964.00, 
1965.00, 
1966.00, 
1967.00, 
1968.00, 
1969.00, 
1970.00, 
1971.00, 
1972.00, 
1973.00, 
1974.00, 
1975.00, 
1976.00, 
1977.00, 
1978.00, 
1979.00, 
1980.00, 
1981.00, 
1982.00, 
1983.00, 
1984.00, 
1985.00, 
1986.00, 
1987.00, 
1988.00, 
1989.00, 
1990.00, 
1991.00, 
1992.00, 
1993.00, 
1994.00, 
1995.00, 
1996.00, 
1997.00, 
1998.00, 
1999.00, 
2000.00, 
2001.00, 
2002.00, 
2003.00, 
2004.00, 
2005.00, 
2006.00, 
2007.00, 
2008.00, 
2009.00, 
2010.00, 
2011.00, 
2012.00, 
2013.00, 
2014.00, 
2015.00, 
2016.00, 
2017.00, 
2018.00, 
2019.00, 
2020.00, 
2021.00, 
2022.00, 
2023.00, 
2024.00, 
2025.00, 
2026.00, 
2027.00, 
2028.00, 
2029.00, 
2030.00, 
2031.00, 
2032.00, 
2033.00, 
2034.00, 
2035.00, 
2036.00, 
2037.00, 
2038.00, 
2039.00, 
2040.00, 
2041.00, 
2042.00, 
2043.00, 
2044.00, 
2045.00, 
2046.00, 
2047.00, 
2048.00, 
2049.00, 
2050.00, 
2051.00, 
2052.00, 
2053.00, 
2054.00, 
2055.00, 
2056.00, 
2057.00, 
2058.00, 
2059.00, 
2060.00, 
2061.00, 
2062.00, 
2063.00, 
2064.00, 
2065.00, 
2066.00, 
2067.00, 
2068.00, 
2069.00, 
2070.00, 
2071.00, 
2072.00, 
2073.00, 
2074.00, 
2075.00, 
2076.00, 
2077.00, 
2078.00, 
2079.00, 
2080.00, 
2081.00, 
2082.00, 
2083.00, 
2084.00, 
2085.00, 
2086.00, 
2087.00, 
2088.00, 
2089.00, 
2090.00, 
2091.00, 
2092.00, 
2093.00, 
2094.00, 
2095.00, 
2096.00, 
2097.00, 
2098.00, 
2099.00, 
2100.00, 
2101.00, 
2102.00, 
2103.00, 
2104.00, 
2105.00, 
2106.00, 
2107.00, 
2108.00, 
2109.00, 
2110.00, 
2111.00, 
2112.00, 
2113.00, 
2114.00, 
2115.00, 
2116.00, 
2117.00, 
2118.00, 
2119.00, 
2120.00, 
2121.00, 
2122.00, 
2123.00, 
2124.00, 
2125.00, 
2126.00, 
2127.00, 
2128.00, 
2129.00, 
2130.00, 
2131.00, 
2132.00, 
2133.00, 
2134.00, 
2135.00, 
2136.00, 
2137.00, 
2138.00, 
2139.00, 
2140.00, 
2141.00, 
2142.00, 
2143.00, 
2144.00, 
2145.00, 
2146.00, 
2147.00, 
2148.00, 
2149.00, 
2150.00, 
2151.00, 
2152.00, 
2153.00, 
2154.00, 
2155.00, 
2156.00, 
2157.00, 
2158.00, 
2159.00, 
2160.00, 
2161.00, 
2162.00, 
2163.00, 
2164.00, 
2165.00, 
2166.00, 
2167.00, 
2168.00, 
2169.00, 
2170.00, 
2171.00, 
2172.00, 
2173.00, 
2174.00, 
2175.00, 
2176.00, 
2177.00, 
2178.00, 
2179.00, 
2180.00, 
2181.00, 
2182.00, 
2183.00, 
2184.00, 
2185.00, 
2186.00, 
2187.00, 
2188.00, 
2189.00, 
2190.00, 
2191.00, 
2192.00, 
2193.00, 
2194.00, 
2195.00, 
2196.00, 
2197.00, 
2198.00, 
2199.00, 
2200.00, 
2201.00, 
2202.00, 
2203.00, 
2204.00, 
2205.00, 
2206.00, 
2207.00, 
2208.00, 
2209.00, 
2210.00, 
2211.00, 
2212.00, 
2213.00, 
2214.00, 
2215.00, 
2216.00, 
2217.00, 
2218.00, 
2219.00, 
2220.00, 
2221.00, 
2222.00, 
2223.00, 
2224.00, 
2225.00, 
2226.00, 
2227.00, 
2228.00, 
2229.00, 
2230.00, 
2231.00, 
2232.00, 
2233.00, 
2234.00, 
2235.00, 
2236.00, 
2237.00, 
2238.00, 
2239.00, 
2240.00, 
2241.00, 
2242.00, 
2243.00, 
2244.00, 
2245.00, 
2246.00, 
2247.00, 
2248.00, 
2249.00, 
2250.00, 
2251.00, 
2252.00, 
2253.00, 
2254.00, 
2255.00, 
2256.00, 
2257.00, 
2258.00, 
2259.00, 
2260.00, 
2261.00, 
2262.00, 
2263.00, 
2264.00, 
2265.00, 
2266.00, 
2267.00, 
2268.00, 
2269.00, 
2270.00, 
2271.00, 
2272.00, 
2273.00, 
2274.00, 
2275.00, 
2276.00, 
2277.00, 
2278.00, 
2279.00, 
2280.00, 
2281.00, 
2282.00, 
2283.00, 
2284.00, 
2285.00, 
2286.00, 
2287.00, 
2288.00, 
2289.00, 
2290.00, 
2291.00, 
2292.00, 
2293.00, 
2294.00, 
2295.00, 
2296.00, 
2297.00, 
2298.00, 
2299.00, 
2300.00, 
2301.00, 
2302.00, 
2303.00, 
2304.00, 
2305.00, 
2306.00, 
2307.00, 
2308.00, 
2309.00, 
2310.00, 
2311.00, 
2312.00, 
2313.00, 
2314.00, 
2315.00, 
2316.00, 
2317.00, 
2318.00, 
2319.00, 
2320.00, 
2321.00, 
2322.00, 
2323.00, 
2324.00, 
2325.00, 
2326.00, 
2327.00, 
2328.00, 
2329.00, 
2330.00, 
2331.00, 
2332.00, 
2333.00, 
2334.00, 
2335.00, 
2336.00, 
2337.00, 
2338.00, 
2339.00, 
2340.00, 
2341.00, 
2342.00, 
2343.00, 
2344.00, 
2345.00, 
2346.00, 
2347.00, 
2348.00, 
2349.00, 
2350.00, 
2351.00, 
2352.00, 
2353.00, 
2354.00, 
2355.00, 
2356.00, 
2357.00, 
2358.00, 
2359.00, 
2360.00, 
2361.00, 
2362.00, 
2363.00, 
2364.00, 
2365.00, 
2366.00, 
2367.00, 
2368.00, 
2369.00, 
2370.00, 
2371.00, 
2372.00, 
2373.00, 
2374.00, 
2375.00, 
2376.00, 
2377.00, 
2378.00, 
2379.00, 
2380.00, 
2381.00, 
2382.00, 
2383.00, 
2384.00, 
2385.00, 
2386.00, 
2387.00, 
2388.00, 
2389.00, 
2390.00, 
2391.00, 
2392.00, 
2393.00, 
2394.00, 
2395.00, 
2396.00, 
2397.00, 
2398.00, 
2399.00, 
2400.00, 
2401.00, 
2402.00, 
2403.00, 
2404.00, 
2405.00, 
2406.00, 
2407.00, 
2408.00, 
2409.00, 
2410.00, 
2411.00, 
2412.00, 
2413.00, 
2414.00, 
2415.00, 
2416.00, 
2417.00, 
2418.00, 
2419.00, 
2420.00, 
2421.00, 
2422.00, 
2423.00, 
2424.00, 
2425.00, 
2426.00, 
2427.00, 
2428.00, 
2429.00, 
2430.00, 
2431.00, 
2432.00, 
2433.00, 
2434.00, 
2435.00, 
2436.00, 
2437.00, 
2438.00, 
2439.00, 
2440.00, 
2441.00, 
2442.00, 
2443.00, 
2444.00, 
2445.00, 
2446.00, 
2447.00, 
2448.00, 
2449.00, 
2450.00, 
2451.00, 
2452.00, 
2453.00, 
2454.00, 
2455.00, 
2456.00, 
2457.00, 
2458.00, 
2459.00, 
2460.00, 
2461.00, 
2462.00, 
2463.00, 
2464.00, 
2465.00, 
2466.00, 
2467.00, 
2468.00, 
2469.00, 
2470.00, 
2471.00, 
2472.00, 
2473.00, 
2474.00, 
2475.00, 
2476.00, 
2477.00, 
2478.00, 
2479.00, 
2480.00, 
2481.00, 
2482.00, 
2483.00, 
2484.00, 
2485.00, 
2486.00, 
2487.00, 
2488.00, 
2489.00, 
2490.00, 
2491.00, 
2492.00, 
2493.00, 
2494.00, 
2495.00, 
2496.00, 
2497.00, 
2498.00, 
2499.00, 
2500.00, 
2501.00, 
2502.00, 
2503.00, 
2504.00, 
2505.00, 
2506.00, 
2507.00, 
2508.00, 
2509.00, 
2510.00, 
2511.00, 
2512.00, 
2513.00, 
2514.00, 
2515.00, 
2516.00, 
2517.00, 
2518.00, 
2519.00, 
2520.00, 
2521.00, 
2522.00, 
2523.00, 
2524.00, 
2525.00, 
2526.00, 
2527.00, 
2528.00, 
2529.00, 
2530.00, 
2531.00, 
2532.00, 
2533.00, 
2534.00, 
2535.00, 
2536.00, 
2537.00, 
2538.00, 
2539.00, 
2540.00, 
2541.00, 
2542.00, 
2543.00, 
2544.00, 
2545.00, 
2546.00, 
2547.00, 
2548.00, 
2549.00, 
2550.00, 
2551.00, 
2552.00, 
2553.00, 
2554.00, 
2555.00, 
2556.00, 
2557.00, 
2558.00, 
2559.00, 
2560.00, 
2561.00, 
2562.00, 
2563.00, 
2564.00, 
2565.00, 
2566.00, 
2567.00, 
2568.00, 
2569.00, 
2570.00, 
2571.00, 
2572.00, 
2573.00, 
2574.00, 
2575.00, 
2576.00, 
2577.00, 
2578.00, 
2579.00, 
2580.00, 
2581.00, 
2582.00, 
2583.00, 
2584.00, 
2585.00, 
2586.00, 
2587.00, 
2588.00, 
2589.00, 
2590.00, 
2591.00, 
2592.00, 
2593.00, 
2594.00, 
2595.00, 
2596.00, 
2597.00, 
2598.00, 
2599.00, 
2600.00, 
