"1cP5 - RawData"
"Wavelength nm.","T%"
200.00,-0.002
201.00,0.001
202.00,0.003
203.00,0.001
204.00,0.001
205.00,0.003
206.00,-0.000
207.00,0.002
208.00,0.002
209.00,-0.000
210.00,0.003
211.00,0.000
212.00,0.002
213.00,0.001
214.00,0.004
215.00,-0.001
216.00,-0.000
217.00,0.002
218.00,0.001
219.00,-0.002
220.00,0.000
221.00,0.003
222.00,0.003
223.00,0.003
224.00,-0.000
225.00,0.002
226.00,0.002
227.00,0.001
228.00,0.001
229.00,0.002
230.00,-0.001
231.00,0.003
232.00,0.001
233.00,0.001
234.00,0.001
235.00,0.000
236.00,0.001
237.00,0.000
238.00,0.002
239.00,0.002
240.00,0.000
241.00,0.000
242.00,0.001
243.00,-0.000
244.00,0.002
245.00,0.000
246.00,0.001
247.00,0.000
248.00,0.001
249.00,0.001
250.00,0.000
251.00,-0.000
252.00,-0.002
253.00,0.001
254.00,0.002
255.00,-0.001
256.00,0.001
257.00,0.002
258.00,0.001
259.00,0.002
260.00,0.002
261.00,-0.000
262.00,-0.001
263.00,-0.001
264.00,0.001
265.00,0.000
266.00,0.002
267.00,-0.000
268.00,-0.001
269.00,0.000
270.00,-0.000
271.00,0.000
272.00,0.001
273.00,0.001
274.00,-0.001
275.00,0.000
276.00,0.001
277.00,0.000
278.00,0.000
279.00,-0.000
280.00,0.001
281.00,0.001
282.00,-0.000
283.00,0.001
284.00,-0.000
285.00,-0.000
286.00,0.003
287.00,-0.001
288.00,-0.001
289.00,0.000
290.00,0.002
291.00,0.000
292.00,0.000
293.00,-0.000
294.00,-0.001
295.00,0.001
296.00,0.001
297.00,0.000
298.00,0.000
299.00,0.000
300.00,0.000
301.00,0.001
302.00,-0.000
303.00,0.001
304.00,0.001
305.00,0.003
306.00,0.001
307.00,0.004
308.00,0.005
309.00,0.012
310.00,0.015
311.00,0.027
312.00,0.046
313.00,0.070
314.00,0.105
315.00,0.147
316.00,0.213
317.00,0.301
318.00,0.411
319.00,0.554
320.00,0.739
321.00,0.961
322.00,1.241
323.00,1.565
324.00,1.924
325.00,2.323
326.00,2.749
327.00,3.265
328.00,3.813
329.00,4.405
330.00,5.055
331.00,5.619
332.00,6.393
333.00,7.194
334.00,7.898
335.00,8.691
336.00,9.471
337.00,10.250
338.00,11.034
339.00,11.755
340.00,12.595
341.00,13.349
342.00,14.072
343.00,14.753
344.00,15.421
345.00,16.097
346.00,16.672
347.00,17.334
348.00,17.885
349.00,18.421
350.00,18.969
351.00,19.436
352.00,19.827
353.00,20.296
354.00,20.689
355.00,20.982
356.00,21.417
357.00,21.701
358.00,21.960
359.00,22.312
360.00,22.540
361.00,22.780
362.00,22.982
363.00,23.218
364.00,23.359
365.00,23.496
366.00,23.680
367.00,23.750
368.00,23.898
369.00,23.895
370.00,23.962
371.00,23.957
372.00,23.939
373.00,23.894
374.00,23.859
375.00,23.811
376.00,23.835
377.00,23.723
378.00,23.649
379.00,23.566
380.00,23.528
381.00,23.559
382.00,23.516
383.00,23.612
384.00,23.674
385.00,23.751
386.00,23.791
387.00,23.943
388.00,23.988
389.00,23.999
390.00,24.089
391.00,24.154
392.00,24.187
393.00,24.227
394.00,24.307
395.00,24.329
396.00,24.308
397.00,24.361
398.00,24.370
399.00,24.400
400.00,24.369
401.00,24.403
402.00,24.378
403.00,24.399
404.00,24.382
405.00,24.387
406.00,24.353
407.00,24.288
408.00,24.291
409.00,24.266
410.00,24.240
411.00,24.222
412.00,24.175
413.00,24.200
414.00,24.167
415.00,24.161
416.00,24.202
417.00,24.178
418.00,24.187
419.00,24.199
420.00,24.229
421.00,24.380
422.00,24.359
423.00,24.410
424.00,24.470
425.00,24.459
426.00,24.507
427.00,24.568
428.00,24.640
429.00,24.654
430.00,24.700
431.00,24.732
432.00,24.781
433.00,24.881
434.00,24.907
435.00,24.953
436.00,25.025
437.00,25.097
438.00,25.164
439.00,25.232
440.00,25.285
441.00,25.384
442.00,25.472
443.00,25.543
444.00,25.629
445.00,25.693
446.00,25.806
447.00,25.905
448.00,26.006
449.00,26.109
450.00,26.169
451.00,26.299
452.00,26.418
453.00,26.561
454.00,26.656
455.00,26.692
456.00,26.888
457.00,27.048
458.00,27.119
459.00,27.264
460.00,27.388
461.00,27.507
462.00,27.665
463.00,27.779
464.00,27.930
465.00,28.012
466.00,28.147
467.00,28.279
468.00,28.400
469.00,28.514
470.00,28.579
471.00,28.696
472.00,28.853
473.00,28.936
474.00,29.060
475.00,29.183
476.00,29.299
477.00,29.431
478.00,29.541
479.00,29.693
480.00,29.834
481.00,29.982
482.00,30.116
483.00,30.273
484.00,30.423
485.00,30.612
486.00,30.719
487.00,30.850
488.00,30.997
489.00,31.170
490.00,31.268
491.00,31.407
492.00,31.588
493.00,31.686
494.00,31.797
495.00,31.936
496.00,32.051
497.00,32.160
498.00,32.221
499.00,32.503
500.00,32.593
501.00,32.700
502.00,32.830
503.00,32.964
504.00,33.082
505.00,33.167
506.00,33.346
507.00,33.426
508.00,33.529
509.00,33.676
510.00,33.797
511.00,33.883
512.00,33.990
513.00,34.138
514.00,34.295
515.00,34.399
516.00,34.497
517.00,34.598
518.00,34.702
519.00,34.823
520.00,34.938
521.00,34.957
522.00,35.093
523.00,35.108
524.00,35.210
525.00,35.314
526.00,35.408
527.00,35.462
528.00,35.515
529.00,35.596
530.00,35.664
531.00,35.911
532.00,35.987
533.00,36.084
534.00,36.174
535.00,36.278
536.00,36.333
537.00,36.412
538.00,36.501
539.00,36.573
540.00,36.602
541.00,36.675
542.00,36.632
543.00,36.774
544.00,36.881
545.00,36.934
546.00,36.969
547.00,37.045
548.00,37.111
549.00,37.150
550.00,37.246
551.00,37.302
552.00,37.429
553.00,37.442
554.00,37.484
555.00,37.527
556.00,37.602
557.00,37.671
558.00,37.804
559.00,37.864
560.00,37.881
561.00,37.964
562.00,38.003
563.00,38.019
564.00,38.078
565.00,38.094
566.00,38.194
567.00,38.150
568.00,38.183
569.00,38.287
570.00,38.189
571.00,38.310
572.00,38.295
573.00,38.163
574.00,38.439
575.00,38.450
576.00,38.396
577.00,38.492
578.00,38.572
579.00,38.562
580.00,38.650
581.00,38.766
582.00,38.777
583.00,38.852
584.00,38.945
585.00,38.955
586.00,38.943
587.00,38.987
588.00,39.007
589.00,39.139
590.00,39.145
591.00,39.113
592.00,39.222
593.00,39.263
594.00,39.306
595.00,39.328
596.00,39.365
597.00,39.368
598.00,39.453
599.00,39.498
600.00,39.552
601.00,39.484
602.00,39.536
603.00,39.716
604.00,39.722
605.00,39.756
606.00,39.734
607.00,39.779
608.00,39.860
609.00,39.801
610.00,39.893
611.00,39.961
612.00,39.978
613.00,39.987
614.00,40.097
615.00,40.116
616.00,40.225
617.00,40.214
618.00,40.189
619.00,40.332
620.00,40.336
621.00,40.366
622.00,40.423
623.00,40.470
624.00,40.582
625.00,40.628
626.00,40.636
627.00,40.726
628.00,40.730
629.00,40.728
630.00,40.815
631.00,40.857
632.00,40.928
633.00,41.018
634.00,41.086
635.00,41.120
636.00,41.223
637.00,41.232
638.00,41.326
639.00,41.400
640.00,41.354
641.00,41.456
642.00,41.520
643.00,41.539
644.00,41.681
645.00,41.645
646.00,41.876
647.00,41.921
648.00,41.958
649.00,42.044
650.00,42.062
651.00,42.088
652.00,42.190
653.00,42.275
654.00,42.291
655.00,42.197
656.00,42.422
657.00,42.644
658.00,42.753
659.00,42.779
660.00,42.753
661.00,42.627
662.00,42.884
663.00,43.008
664.00,43.101
665.00,43.221
666.00,43.288
667.00,43.500
668.00,43.535
669.00,43.678
670.00,43.720
671.00,43.657
672.00,43.757
673.00,43.906
674.00,44.043
675.00,44.100
676.00,44.145
677.00,44.257
678.00,44.365
679.00,44.389
680.00,44.498
681.00,44.709
682.00,44.725
683.00,44.776
684.00,44.973
685.00,45.034
686.00,44.903
687.00,45.094
688.00,45.187
689.00,45.209
690.00,45.208
691.00,45.349
692.00,45.312
693.00,45.392
694.00,45.530
695.00,45.566
696.00,45.710
697.00,45.656
698.00,45.790
699.00,45.772
700.00,45.952
701.00,46.275
702.00,46.243
703.00,46.343
704.00,46.394
705.00,46.327
706.00,46.471
707.00,46.636
708.00,46.380
709.00,46.551
710.00,46.872
711.00,46.726
712.00,46.798
713.00,46.906
714.00,46.913
715.00,47.096
716.00,47.095
717.00,47.067
718.00,47.218
719.00,47.250
720.00,47.329
721.00,51.520
722.00,51.525
723.00,51.511
724.00,51.539
725.00,51.537
726.00,51.567
727.00,51.563
728.00,51.594
729.00,51.573
730.00,51.581
731.00,51.605
732.00,51.669
733.00,51.654
734.00,51.716
735.00,51.768
736.00,51.741
737.00,51.767
738.00,51.855
739.00,51.895
740.00,51.944
741.00,51.948
742.00,51.981
743.00,51.932
744.00,51.874
745.00,51.933
746.00,51.926
747.00,51.896
748.00,51.903
749.00,51.905
750.00,51.937
751.00,51.959
752.00,51.967
753.00,51.898
754.00,51.948
755.00,51.909
756.00,51.919
757.00,51.886
758.00,51.931
759.00,51.922
760.00,51.908
761.00,51.892
762.00,51.886
763.00,51.970
764.00,51.896
765.00,51.990
766.00,51.941
767.00,51.967
768.00,52.010
769.00,51.888
770.00,52.025
771.00,51.963
772.00,52.030
773.00,51.977
774.00,51.934
775.00,52.041
776.00,51.911
777.00,52.065
778.00,51.931
779.00,51.918
780.00,52.007
781.00,51.978
782.00,52.012
783.00,51.947
784.00,51.987
785.00,51.964
786.00,51.986
787.00,51.875
788.00,51.929
789.00,51.876
790.00,51.971
791.00,52.011
792.00,51.822
793.00,51.853
794.00,51.771
795.00,51.872
796.00,51.783
797.00,51.718
798.00,51.739
799.00,51.756
800.00,51.768
801.00,51.705
802.00,51.684
803.00,51.627
804.00,51.614
805.00,51.627
806.00,51.592
807.00,51.590
808.00,51.601
809.00,51.559
810.00,51.516
811.00,51.477
812.00,51.541
813.00,51.526
814.00,51.559
815.00,51.449
816.00,51.521
817.00,51.443
818.00,51.363
819.00,51.418
820.00,51.338
821.00,51.295
822.00,51.374
823.00,51.289
824.00,51.298
825.00,51.329
826.00,51.341
827.00,51.366
828.00,51.240
829.00,51.173
830.00,51.236
831.00,53.553
832.00,53.503
833.00,53.507
834.00,53.490
835.00,53.493
836.00,53.516
837.00,53.407
838.00,53.433
839.00,53.437
840.00,53.356
841.00,53.349
842.00,53.283
843.00,53.326
844.00,53.322
845.00,53.245
846.00,53.280
847.00,53.222
848.00,53.206
849.00,53.170
850.00,53.139
851.00,53.099
852.00,53.083
853.00,53.042
854.00,53.030
855.00,52.990
856.00,52.962
857.00,52.942
858.00,52.913
859.00,52.878
860.00,52.891
861.00,52.866
862.00,52.844
863.00,52.841
864.00,52.811
865.00,52.827
866.00,52.809
867.00,52.800
868.00,52.767
869.00,52.747
870.00,52.760
871.00,52.727
872.00,52.693
873.00,52.715
874.00,52.713
875.00,52.632
876.00,52.699
877.00,52.756
878.00,52.768
879.00,52.636
880.00,52.618
881.00,52.605
882.00,52.624
883.00,52.585
884.00,52.557
885.00,52.540
886.00,52.499
887.00,52.493
888.00,52.460
889.00,52.421
890.00,52.425
891.00,52.412
892.00,52.390
893.00,52.350
894.00,52.354
895.00,52.339
896.00,52.324
897.00,52.301
898.00,52.266
899.00,52.300
900.00,52.246
901.00,52.267
902.00,52.250
903.00,52.226
904.00,52.174
905.00,52.162
906.00,52.148
907.00,52.300
908.00,52.097
909.00,52.091
910.00,52.032
911.00,52.049
912.00,52.044
913.00,52.013
914.00,52.010
915.00,51.975
916.00,51.959
917.00,51.911
918.00,51.918
919.00,51.882
920.00,51.897
921.00,51.858
922.00,51.859
923.00,51.822
924.00,51.789
925.00,51.779
926.00,51.770
927.00,51.734
928.00,51.729
929.00,51.712
930.00,51.689
931.00,51.673
932.00,51.629
933.00,51.621
934.00,51.623
935.00,51.599
936.00,51.566
937.00,51.538
938.00,51.559
939.00,51.538
940.00,51.515
941.00,51.521
942.00,51.490
943.00,51.460
944.00,51.420
945.00,51.453
946.00,51.416
947.00,51.358
948.00,51.379
949.00,51.352
950.00,51.322
951.00,51.301
952.00,51.283
953.00,51.263
954.00,51.224
955.00,51.189
956.00,51.185
957.00,51.157
958.00,51.157
959.00,51.104
960.00,51.088
961.00,51.081
962.00,51.079
963.00,51.057
964.00,51.042
965.00,51.026
966.00,51.027
967.00,51.010
968.00,51.000
969.00,51.005
970.00,50.992
971.00,51.010
972.00,50.960
973.00,50.991
974.00,51.011
975.00,51.010
976.00,50.986
977.00,50.977
978.00,51.030
979.00,51.054
980.00,50.997
981.00,50.999
982.00,50.987
983.00,50.966
984.00,50.975
985.00,50.981
986.00,50.941
987.00,50.973
988.00,50.933
989.00,50.915
990.00,50.892
991.00,50.887
992.00,50.907
993.00,50.869
994.00,50.863
995.00,50.849
996.00,50.859
997.00,50.834
998.00,50.823
999.00,50.843
1000.00,50.781
1001.00,50.785
1002.00,50.775
1003.00,50.770
1004.00,50.733
1005.00,50.729
1006.00,50.759
1007.00,50.724
1008.00,50.713
1009.00,50.724
1010.00,50.683
1011.00,50.648
1012.00,50.620
1013.00,50.615
1014.00,50.591
1015.00,50.623
1016.00,50.582
1017.00,50.586
1018.00,50.552
1019.00,50.549
1020.00,50.537
1021.00,50.527
1022.00,50.518
1023.00,50.474
1024.00,50.470
1025.00,50.461
1026.00,50.463
1027.00,50.429
1028.00,50.426
1029.00,50.396
1030.00,50.373
1031.00,50.385
1032.00,50.342
1033.00,50.341
1034.00,50.310
1035.00,50.277
1036.00,50.258
1037.00,50.245
1038.00,50.223
1039.00,50.200
1040.00,50.195
1041.00,50.175
1042.00,50.182
1043.00,50.145
1044.00,50.183
1045.00,50.163
1046.00,50.153
1047.00,50.163
1048.00,50.182
1049.00,50.182
1050.00,50.200
1051.00,50.203
1052.00,50.236
1053.00,50.226
1054.00,50.217
1055.00,50.246
1056.00,50.233
1057.00,50.224
1058.00,50.206
1059.00,50.215
1060.00,50.226
1061.00,50.220
1062.00,50.194
1063.00,50.212
1064.00,50.206
1065.00,50.203
1066.00,50.177
1067.00,50.194
1068.00,50.196
1069.00,50.168
1070.00,50.155
1071.00,50.147
1072.00,50.153
1073.00,50.110
1074.00,50.126
1075.00,50.119
1076.00,50.118
1077.00,50.093
1078.00,50.078
1079.00,50.084
1080.00,50.089
1081.00,50.066
1082.00,50.070
1083.00,50.064
1084.00,50.058
1085.00,50.074
1086.00,50.053
1087.00,50.034
1088.00,50.028
1089.00,50.002
1090.00,50.010
1091.00,50.002
1092.00,50.010
1093.00,49.990
1094.00,49.984
1095.00,49.959
1096.00,49.962
1097.00,49.956
1098.00,49.945
1099.00,49.932
1100.00,49.921
1101.00,49.901
1102.00,49.895
1103.00,49.896
1104.00,49.888
1105.00,49.863
1106.00,49.854
1107.00,49.837
1108.00,49.834
1109.00,49.834
1110.00,49.844
1111.00,49.827
1112.00,49.818
1113.00,49.816
1114.00,49.812
1115.00,49.809
1116.00,49.818
1117.00,49.793
1118.00,49.798
1119.00,49.787
1120.00,49.789
1121.00,49.780
1122.00,49.760
1123.00,49.729
1124.00,49.732
1125.00,49.732
1126.00,49.728
1127.00,49.731
1128.00,49.721
1129.00,49.684
1130.00,49.693
1131.00,49.704
1132.00,49.704
1133.00,49.693
1134.00,49.677
1135.00,49.659
1136.00,49.677
1137.00,49.676
1138.00,49.686
1139.00,49.678
1140.00,49.668
1141.00,49.669
1142.00,49.659
1143.00,49.661
1144.00,49.650
1145.00,49.651
1146.00,49.650
1147.00,49.630
1148.00,49.622
1149.00,49.632
1150.00,49.638
1151.00,49.640
1152.00,49.631
1153.00,49.615
1154.00,49.607
1155.00,49.612
1156.00,49.606
1157.00,49.617
1158.00,49.622
1159.00,49.607
1160.00,49.617
1161.00,49.629
1162.00,49.619
1163.00,49.632
1164.00,49.616
1165.00,49.612
1166.00,49.607
1167.00,49.608
1168.00,49.618
1169.00,49.617
1170.00,49.614
1171.00,49.595
1172.00,49.588
1173.00,49.598
1174.00,49.621
1175.00,49.594
1176.00,49.609
1177.00,49.615
1178.00,49.592
1179.00,49.603
1180.00,49.589
1181.00,49.613
1182.00,49.617
1183.00,49.591
1184.00,49.584
1185.00,49.599
1186.00,49.571
1187.00,49.579
1188.00,49.571
1189.00,49.597
1190.00,49.579
1191.00,49.592
1192.00,49.612
1193.00,49.599
1194.00,49.590
1195.00,49.588
1196.00,49.611
1197.00,49.598
1198.00,49.597
1199.00,49.592
1200.00,49.594
1201.00,49.595
1202.00,49.587
1203.00,49.578
1204.00,49.578
1205.00,49.592
1206.00,49.588
1207.00,49.605
1208.00,49.585
1209.00,49.608
1210.00,49.589
1211.00,49.587
1212.00,49.613
1213.00,49.579
1214.00,49.597
1215.00,49.576
1216.00,49.594
1217.00,49.606
1218.00,49.590
1219.00,49.589
1220.00,49.586
1221.00,49.604
1222.00,49.591
1223.00,49.625
1224.00,49.623
1225.00,49.615
1226.00,49.641
1227.00,49.636
1228.00,49.650
1229.00,49.633
1230.00,49.661
1231.00,49.649
1232.00,49.650
1233.00,49.648
1234.00,49.655
1235.00,49.651
1236.00,49.659
1237.00,49.667
1238.00,49.671
1239.00,49.671
1240.00,49.674
1241.00,49.666
1242.00,49.679
1243.00,49.677
1244.00,49.659
1245.00,49.686
1246.00,49.694
1247.00,49.695
1248.00,49.681
1249.00,49.706
1250.00,49.712
1251.00,49.718
1252.00,49.724
1253.00,49.726
1254.00,49.745
1255.00,49.725
1256.00,49.714
1257.00,49.703
1258.00,49.728
1259.00,49.743
1260.00,49.773
1261.00,49.776
1262.00,49.757
1263.00,49.757
1264.00,49.776
1265.00,49.768
1266.00,49.752
1267.00,49.790
1268.00,49.807
1269.00,49.793
1270.00,49.819
1271.00,49.824
1272.00,49.840
1273.00,49.842
1274.00,49.832
1275.00,49.845
1276.00,49.843
1277.00,49.837
1278.00,49.855
1279.00,49.856
1280.00,49.850
1281.00,49.870
1282.00,49.879
1283.00,49.912
1284.00,49.866
1285.00,49.894
1286.00,49.901
1287.00,49.882
1288.00,49.875
1289.00,49.886
1290.00,49.910
1291.00,49.906
1292.00,49.910
1293.00,49.926
1294.00,49.925
1295.00,49.948
1296.00,49.954
1297.00,49.967
1298.00,49.977
1299.00,49.959
1300.00,49.989
1301.00,49.981
1302.00,49.993
1303.00,50.013
1304.00,49.980
1305.00,50.014
1306.00,50.004
1307.00,50.010
1308.00,50.024
1309.00,50.017
1310.00,50.013
1311.00,49.990
1312.00,50.017
1313.00,50.045
1314.00,50.076
1315.00,50.092
1316.00,50.099
1317.00,50.106
1318.00,50.125
1319.00,50.128
1320.00,50.122
1321.00,50.276
1322.00,50.282
1323.00,50.256
1324.00,50.261
1325.00,50.246
1326.00,50.271
1327.00,50.290
1328.00,50.269
1329.00,50.267
1330.00,50.282
1331.00,50.281
1332.00,50.291
1333.00,50.288
1334.00,50.316
1335.00,50.350
1336.00,50.370
1337.00,50.394
1338.00,50.470
1339.00,50.521
1340.00,50.569
1341.00,50.629
1342.00,50.691
1343.00,50.779
1344.00,50.796
1345.00,50.834
1346.00,50.870
1347.00,50.900
1348.00,50.919
1349.00,50.957
1350.00,50.973
1351.00,50.980
1352.00,50.988
1353.00,50.997
1354.00,51.001
1355.00,50.969
1356.00,50.950
1357.00,50.966
1358.00,51.032
1359.00,51.024
1360.00,51.076
1361.00,51.022
1362.00,51.024
1363.00,51.109
1364.00,51.101
1365.00,51.084
1366.00,51.161
1367.00,51.058
1368.00,51.022
1369.00,51.054
1370.00,51.049
1371.00,51.011
1372.00,51.022
1373.00,51.038
1374.00,51.072
1375.00,51.058
1376.00,51.056
1377.00,51.059
1378.00,51.109
1379.00,51.055
1380.00,51.119
1381.00,51.054
1382.00,51.089
1383.00,51.065
1384.00,51.068
1385.00,51.136
1386.00,51.035
1387.00,51.069
1388.00,51.095
1389.00,51.153
1390.00,50.993
1391.00,51.092
1392.00,51.045
1393.00,51.025
1394.00,51.034
1395.00,50.994
1396.00,51.043
1397.00,51.174
1398.00,51.024
1399.00,51.022
1400.00,51.122
1401.00,51.079
1402.00,51.056
1403.00,50.991
1404.00,51.068
1405.00,51.089
1406.00,51.128
1407.00,51.099
1408.00,51.066
1409.00,51.099
1410.00,51.127
1411.00,51.107
1412.00,51.194
1413.00,51.119
1414.00,51.180
1415.00,51.215
1416.00,51.233
1417.00,51.212
1418.00,51.222
1419.00,51.218
1420.00,51.257
1421.00,51.291
1422.00,51.257
1423.00,51.285
1424.00,51.308
1425.00,51.333
1426.00,51.335
1427.00,51.367
1428.00,51.359
1429.00,51.399
1430.00,51.392
1431.00,51.422
1432.00,51.429
1433.00,51.421
1434.00,51.422
1435.00,51.466
1436.00,51.487
1437.00,51.481
1438.00,51.516
1439.00,51.541
1440.00,51.557
1441.00,51.548
1442.00,51.556
1443.00,51.595
1444.00,51.652
1445.00,51.646
1446.00,51.650
1447.00,51.679
1448.00,51.714
1449.00,51.754
1450.00,51.771
1451.00,51.745
1452.00,51.772
1453.00,51.793
1454.00,51.808
1455.00,51.815
1456.00,51.843
1457.00,51.849
1458.00,51.839
1459.00,51.878
1460.00,51.887
1461.00,51.900
1462.00,51.932
1463.00,51.956
1464.00,51.965
1465.00,51.987
1466.00,51.968
1467.00,52.020
1468.00,52.090
1469.00,52.040
1470.00,52.052
1471.00,52.088
1472.00,52.084
1473.00,52.110
1474.00,52.117
1475.00,52.141
1476.00,52.157
1477.00,52.142
1478.00,52.166
1479.00,52.208
1480.00,52.192
1481.00,52.210
1482.00,52.250
1483.00,52.255
1484.00,52.263
1485.00,52.263
1486.00,52.269
1487.00,52.297
1488.00,52.291
1489.00,52.311
1490.00,52.329
1491.00,52.352
1492.00,52.366
1493.00,52.374
1494.00,52.399
1495.00,52.410
1496.00,52.429
1497.00,52.439
1498.00,52.456
1499.00,52.452
1500.00,52.479
1501.00, 
1502.00, 
1503.00, 
1504.00, 
1505.00, 
1506.00, 
1507.00, 
1508.00, 
1509.00, 
1510.00, 
1511.00, 
1512.00, 
1513.00, 
1514.00, 
1515.00, 
1516.00, 
1517.00, 
1518.00, 
1519.00, 
1520.00, 
1521.00, 
1522.00, 
1523.00, 
1524.00, 
1525.00, 
1526.00, 
1527.00, 
1528.00, 
1529.00, 
1530.00, 
1531.00, 
1532.00, 
1533.00, 
1534.00, 
1535.00, 
1536.00, 
1537.00, 
1538.00, 
1539.00, 
1540.00, 
1541.00, 
1542.00, 
1543.00, 
1544.00, 
1545.00, 
1546.00, 
1547.00, 
1548.00, 
1549.00, 
1550.00, 
1551.00, 
1552.00, 
1553.00, 
1554.00, 
1555.00, 
1556.00, 
1557.00, 
1558.00, 
1559.00, 
1560.00, 
1561.00, 
1562.00, 
1563.00, 
1564.00, 
1565.00, 
1566.00, 
1567.00, 
1568.00, 
1569.00, 
1570.00, 
1571.00, 
1572.00, 
1573.00, 
1574.00, 
1575.00, 
1576.00, 
1577.00, 
1578.00, 
1579.00, 
1580.00, 
1581.00, 
1582.00, 
1583.00, 
1584.00, 
1585.00, 
1586.00, 
1587.00, 
1588.00, 
1589.00, 
1590.00, 
1591.00, 
1592.00, 
1593.00, 
1594.00, 
1595.00, 
1596.00, 
1597.00, 
1598.00, 
1599.00, 
1600.00, 
1601.00, 
1602.00, 
1603.00, 
1604.00, 
1605.00, 
1606.00, 
1607.00, 
1608.00, 
1609.00, 
1610.00, 
1611.00, 
1612.00, 
1613.00, 
1614.00, 
1615.00, 
1616.00, 
1617.00, 
1618.00, 
1619.00, 
1620.00, 
1621.00, 
1622.00, 
1623.00, 
1624.00, 
1625.00, 
1626.00, 
1627.00, 
1628.00, 
1629.00, 
1630.00, 
1631.00, 
1632.00, 
1633.00, 
1634.00, 
1635.00, 
1636.00, 
1637.00, 
1638.00, 
1639.00, 
1640.00, 
1641.00, 
1642.00, 
1643.00, 
1644.00, 
1645.00, 
1646.00, 
1647.00, 
1648.00, 
1649.00, 
1650.00, 
1651.00, 
1652.00, 
1653.00, 
1654.00, 
1655.00, 
1656.00, 
1657.00, 
1658.00, 
1659.00, 
1660.00, 
1661.00, 
1662.00, 
1663.00, 
1664.00, 
1665.00, 
1666.00, 
1667.00, 
1668.00, 
1669.00, 
1670.00, 
1671.00, 
1672.00, 
1673.00, 
1674.00, 
1675.00, 
1676.00, 
1677.00, 
1678.00, 
1679.00, 
1680.00, 
1681.00, 
1682.00, 
1683.00, 
1684.00, 
1685.00, 
1686.00, 
1687.00, 
1688.00, 
1689.00, 
1690.00, 
1691.00, 
1692.00, 
1693.00, 
1694.00, 
1695.00, 
1696.00, 
1697.00, 
1698.00, 
1699.00, 
1700.00, 
1701.00, 
1702.00, 
1703.00, 
1704.00, 
1705.00, 
1706.00, 
1707.00, 
1708.00, 
1709.00, 
1710.00, 
1711.00, 
1712.00, 
1713.00, 
1714.00, 
1715.00, 
1716.00, 
1717.00, 
1718.00, 
1719.00, 
1720.00, 
1721.00, 
1722.00, 
1723.00, 
1724.00, 
1725.00, 
1726.00, 
1727.00, 
1728.00, 
1729.00, 
1730.00, 
1731.00, 
1732.00, 
1733.00, 
1734.00, 
1735.00, 
1736.00, 
1737.00, 
1738.00, 
1739.00, 
1740.00, 
1741.00, 
1742.00, 
1743.00, 
1744.00, 
1745.00, 
1746.00, 
1747.00, 
1748.00, 
1749.00, 
1750.00, 
1751.00, 
1752.00, 
1753.00, 
1754.00, 
1755.00, 
1756.00, 
1757.00, 
1758.00, 
1759.00, 
1760.00, 
1761.00, 
1762.00, 
1763.00, 
1764.00, 
1765.00, 
1766.00, 
1767.00, 
1768.00, 
1769.00, 
1770.00, 
1771.00, 
1772.00, 
1773.00, 
1774.00, 
1775.00, 
1776.00, 
1777.00, 
1778.00, 
1779.00, 
1780.00, 
1781.00, 
1782.00, 
1783.00, 
1784.00, 
1785.00, 
1786.00, 
1787.00, 
1788.00, 
1789.00, 
1790.00, 
1791.00, 
1792.00, 
1793.00, 
1794.00, 
1795.00, 
1796.00, 
1797.00, 
1798.00, 
1799.00, 
1800.00, 
1801.00, 
1802.00, 
1803.00, 
1804.00, 
1805.00, 
1806.00, 
1807.00, 
1808.00, 
1809.00, 
1810.00, 
1811.00, 
1812.00, 
1813.00, 
1814.00, 
1815.00, 
1816.00, 
1817.00, 
1818.00, 
1819.00, 
1820.00, 
1821.00, 
1822.00, 
1823.00, 
1824.00, 
1825.00, 
1826.00, 
1827.00, 
1828.00, 
1829.00, 
1830.00, 
1831.00, 
1832.00, 
1833.00, 
1834.00, 
1835.00, 
1836.00, 
1837.00, 
1838.00, 
1839.00, 
1840.00, 
1841.00, 
1842.00, 
1843.00, 
1844.00, 
1845.00, 
1846.00, 
1847.00, 
1848.00, 
1849.00, 
1850.00, 
1851.00, 
1852.00, 
1853.00, 
1854.00, 
1855.00, 
1856.00, 
1857.00, 
1858.00, 
1859.00, 
1860.00, 
1861.00, 
1862.00, 
1863.00, 
1864.00, 
1865.00, 
1866.00, 
1867.00, 
1868.00, 
1869.00, 
1870.00, 
1871.00, 
1872.00, 
1873.00, 
1874.00, 
1875.00, 
1876.00, 
1877.00, 
1878.00, 
1879.00, 
1880.00, 
1881.00, 
1882.00, 
1883.00, 
1884.00, 
1885.00, 
1886.00, 
1887.00, 
1888.00, 
1889.00, 
1890.00, 
1891.00, 
1892.00, 
1893.00, 
1894.00, 
1895.00, 
1896.00, 
1897.00, 
1898.00, 
1899.00, 
1900.00, 
1901.00, 
1902.00, 
1903.00, 
1904.00, 
1905.00, 
1906.00, 
1907.00, 
1908.00, 
1909.00, 
1910.00, 
1911.00, 
1912.00, 
1913.00, 
1914.00, 
1915.00, 
1916.00, 
1917.00, 
1918.00, 
1919.00, 
1920.00, 
1921.00, 
1922.00, 
1923.00, 
1924.00, 
1925.00, 
1926.00, 
1927.00, 
1928.00, 
1929.00, 
1930.00, 
1931.00, 
1932.00, 
1933.00, 
1934.00, 
1935.00, 
1936.00, 
1937.00, 
1938.00, 
1939.00, 
1940.00, 
1941.00, 
1942.00, 
1943.00, 
1944.00, 
1945.00, 
1946.00, 
1947.00, 
1948.00, 
1949.00, 
1950.00, 
1951.00, 
1952.00, 
1953.00, 
1954.00, 
1955.00, 
1956.00, 
1957.00, 
1958.00, 
1959.00, 
1960.00, 
1961.00, 
1962.00, 
1963.00, 
1964.00, 
1965.00, 
1966.00, 
1967.00, 
1968.00, 
1969.00, 
1970.00, 
1971.00, 
1972.00, 
1973.00, 
1974.00, 
1975.00, 
1976.00, 
1977.00, 
1978.00, 
1979.00, 
1980.00, 
1981.00, 
1982.00, 
1983.00, 
1984.00, 
1985.00, 
1986.00, 
1987.00, 
1988.00, 
1989.00, 
1990.00, 
1991.00, 
1992.00, 
1993.00, 
1994.00, 
1995.00, 
1996.00, 
1997.00, 
1998.00, 
1999.00, 
2000.00, 
2001.00, 
2002.00, 
2003.00, 
2004.00, 
2005.00, 
2006.00, 
2007.00, 
2008.00, 
2009.00, 
2010.00, 
2011.00, 
2012.00, 
2013.00, 
2014.00, 
2015.00, 
2016.00, 
2017.00, 
2018.00, 
2019.00, 
2020.00, 
2021.00, 
2022.00, 
2023.00, 
2024.00, 
2025.00, 
2026.00, 
2027.00, 
2028.00, 
2029.00, 
2030.00, 
2031.00, 
2032.00, 
2033.00, 
2034.00, 
2035.00, 
2036.00, 
2037.00, 
2038.00, 
2039.00, 
2040.00, 
2041.00, 
2042.00, 
2043.00, 
2044.00, 
2045.00, 
2046.00, 
2047.00, 
2048.00, 
2049.00, 
2050.00, 
2051.00, 
2052.00, 
2053.00, 
2054.00, 
2055.00, 
2056.00, 
2057.00, 
2058.00, 
2059.00, 
2060.00, 
2061.00, 
2062.00, 
2063.00, 
2064.00, 
2065.00, 
2066.00, 
2067.00, 
2068.00, 
2069.00, 
2070.00, 
2071.00, 
2072.00, 
2073.00, 
2074.00, 
2075.00, 
2076.00, 
2077.00, 
2078.00, 
2079.00, 
2080.00, 
2081.00, 
2082.00, 
2083.00, 
2084.00, 
2085.00, 
2086.00, 
2087.00, 
2088.00, 
2089.00, 
2090.00, 
2091.00, 
2092.00, 
2093.00, 
2094.00, 
2095.00, 
2096.00, 
2097.00, 
2098.00, 
2099.00, 
2100.00, 
2101.00, 
2102.00, 
2103.00, 
2104.00, 
2105.00, 
2106.00, 
2107.00, 
2108.00, 
2109.00, 
2110.00, 
2111.00, 
2112.00, 
2113.00, 
2114.00, 
2115.00, 
2116.00, 
2117.00, 
2118.00, 
2119.00, 
2120.00, 
2121.00, 
2122.00, 
2123.00, 
2124.00, 
2125.00, 
2126.00, 
2127.00, 
2128.00, 
2129.00, 
2130.00, 
2131.00, 
2132.00, 
2133.00, 
2134.00, 
2135.00, 
2136.00, 
2137.00, 
2138.00, 
2139.00, 
2140.00, 
2141.00, 
2142.00, 
2143.00, 
2144.00, 
2145.00, 
2146.00, 
2147.00, 
2148.00, 
2149.00, 
2150.00, 
2151.00, 
2152.00, 
2153.00, 
2154.00, 
2155.00, 
2156.00, 
2157.00, 
2158.00, 
2159.00, 
2160.00, 
2161.00, 
2162.00, 
2163.00, 
2164.00, 
2165.00, 
2166.00, 
2167.00, 
2168.00, 
2169.00, 
2170.00, 
2171.00, 
2172.00, 
2173.00, 
2174.00, 
2175.00, 
2176.00, 
2177.00, 
2178.00, 
2179.00, 
2180.00, 
2181.00, 
2182.00, 
2183.00, 
2184.00, 
2185.00, 
2186.00, 
2187.00, 
2188.00, 
2189.00, 
2190.00, 
2191.00, 
2192.00, 
2193.00, 
2194.00, 
2195.00, 
2196.00, 
2197.00, 
2198.00, 
2199.00, 
2200.00, 
2201.00, 
2202.00, 
2203.00, 
2204.00, 
2205.00, 
2206.00, 
2207.00, 
2208.00, 
2209.00, 
2210.00, 
2211.00, 
2212.00, 
2213.00, 
2214.00, 
2215.00, 
2216.00, 
2217.00, 
2218.00, 
2219.00, 
2220.00, 
2221.00, 
2222.00, 
2223.00, 
2224.00, 
2225.00, 
2226.00, 
2227.00, 
2228.00, 
2229.00, 
2230.00, 
2231.00, 
2232.00, 
2233.00, 
2234.00, 
2235.00, 
2236.00, 
2237.00, 
2238.00, 
2239.00, 
2240.00, 
2241.00, 
2242.00, 
2243.00, 
2244.00, 
2245.00, 
2246.00, 
2247.00, 
2248.00, 
2249.00, 
2250.00, 
2251.00, 
2252.00, 
2253.00, 
2254.00, 
2255.00, 
2256.00, 
2257.00, 
2258.00, 
2259.00, 
2260.00, 
2261.00, 
2262.00, 
2263.00, 
2264.00, 
2265.00, 
2266.00, 
2267.00, 
2268.00, 
2269.00, 
2270.00, 
2271.00, 
2272.00, 
2273.00, 
2274.00, 
2275.00, 
2276.00, 
2277.00, 
2278.00, 
2279.00, 
2280.00, 
2281.00, 
2282.00, 
2283.00, 
2284.00, 
2285.00, 
2286.00, 
2287.00, 
2288.00, 
2289.00, 
2290.00, 
2291.00, 
2292.00, 
2293.00, 
2294.00, 
2295.00, 
2296.00, 
2297.00, 
2298.00, 
2299.00, 
2300.00, 
2301.00, 
2302.00, 
2303.00, 
2304.00, 
2305.00, 
2306.00, 
2307.00, 
2308.00, 
2309.00, 
2310.00, 
2311.00, 
2312.00, 
2313.00, 
2314.00, 
2315.00, 
2316.00, 
2317.00, 
2318.00, 
2319.00, 
2320.00, 
2321.00, 
2322.00, 
2323.00, 
2324.00, 
2325.00, 
2326.00, 
2327.00, 
2328.00, 
2329.00, 
2330.00, 
2331.00, 
2332.00, 
2333.00, 
2334.00, 
2335.00, 
2336.00, 
2337.00, 
2338.00, 
2339.00, 
2340.00, 
2341.00, 
2342.00, 
2343.00, 
2344.00, 
2345.00, 
2346.00, 
2347.00, 
2348.00, 
2349.00, 
2350.00, 
2351.00, 
2352.00, 
2353.00, 
2354.00, 
2355.00, 
2356.00, 
2357.00, 
2358.00, 
2359.00, 
2360.00, 
2361.00, 
2362.00, 
2363.00, 
2364.00, 
2365.00, 
2366.00, 
2367.00, 
2368.00, 
2369.00, 
2370.00, 
2371.00, 
2372.00, 
2373.00, 
2374.00, 
2375.00, 
2376.00, 
2377.00, 
2378.00, 
2379.00, 
2380.00, 
2381.00, 
2382.00, 
2383.00, 
2384.00, 
2385.00, 
2386.00, 
2387.00, 
2388.00, 
2389.00, 
2390.00, 
2391.00, 
2392.00, 
2393.00, 
2394.00, 
2395.00, 
2396.00, 
2397.00, 
2398.00, 
2399.00, 
2400.00, 
2401.00, 
2402.00, 
2403.00, 
2404.00, 
2405.00, 
2406.00, 
2407.00, 
2408.00, 
2409.00, 
2410.00, 
2411.00, 
2412.00, 
2413.00, 
2414.00, 
2415.00, 
2416.00, 
2417.00, 
2418.00, 
2419.00, 
2420.00, 
2421.00, 
2422.00, 
2423.00, 
2424.00, 
2425.00, 
2426.00, 
2427.00, 
2428.00, 
2429.00, 
2430.00, 
2431.00, 
2432.00, 
2433.00, 
2434.00, 
2435.00, 
2436.00, 
2437.00, 
2438.00, 
2439.00, 
2440.00, 
2441.00, 
2442.00, 
2443.00, 
2444.00, 
2445.00, 
2446.00, 
2447.00, 
2448.00, 
2449.00, 
2450.00, 
2451.00, 
2452.00, 
2453.00, 
2454.00, 
2455.00, 
2456.00, 
2457.00, 
2458.00, 
2459.00, 
2460.00, 
2461.00, 
2462.00, 
2463.00, 
2464.00, 
2465.00, 
2466.00, 
2467.00, 
2468.00, 
2469.00, 
2470.00, 
2471.00, 
2472.00, 
2473.00, 
2474.00, 
2475.00, 
2476.00, 
2477.00, 
2478.00, 
2479.00, 
2480.00, 
2481.00, 
2482.00, 
2483.00, 
2484.00, 
2485.00, 
2486.00, 
2487.00, 
2488.00, 
2489.00, 
2490.00, 
2491.00, 
2492.00, 
2493.00, 
2494.00, 
2495.00, 
2496.00, 
2497.00, 
2498.00, 
2499.00, 
2500.00, 
2501.00, 
2502.00, 
2503.00, 
2504.00, 
2505.00, 
2506.00, 
2507.00, 
2508.00, 
2509.00, 
2510.00, 
2511.00, 
2512.00, 
2513.00, 
2514.00, 
2515.00, 
2516.00, 
2517.00, 
2518.00, 
2519.00, 
2520.00, 
2521.00, 
2522.00, 
2523.00, 
2524.00, 
2525.00, 
2526.00, 
2527.00, 
2528.00, 
2529.00, 
2530.00, 
2531.00, 
2532.00, 
2533.00, 
2534.00, 
2535.00, 
2536.00, 
2537.00, 
2538.00, 
2539.00, 
2540.00, 
2541.00, 
2542.00, 
2543.00, 
2544.00, 
2545.00, 
2546.00, 
2547.00, 
2548.00, 
2549.00, 
2550.00, 
2551.00, 
2552.00, 
2553.00, 
2554.00, 
2555.00, 
2556.00, 
2557.00, 
2558.00, 
2559.00, 
2560.00, 
2561.00, 
2562.00, 
2563.00, 
2564.00, 
2565.00, 
2566.00, 
2567.00, 
2568.00, 
2569.00, 
2570.00, 
2571.00, 
2572.00, 
2573.00, 
2574.00, 
2575.00, 
2576.00, 
2577.00, 
2578.00, 
2579.00, 
2580.00, 
2581.00, 
2582.00, 
2583.00, 
2584.00, 
2585.00, 
2586.00, 
2587.00, 
2588.00, 
2589.00, 
2590.00, 
2591.00, 
2592.00, 
2593.00, 
2594.00, 
2595.00, 
2596.00, 
2597.00, 
2598.00, 
2599.00, 
2600.00, 
