"1cP1 - RawData"
"Wavelength nm.","T%"
200.00,0.000
201.00,-0.001
202.00,0.002
203.00,0.001
204.00,0.002
205.00,0.001
206.00,0.002
207.00,0.001
208.00,-0.000
209.00,-0.001
210.00,0.000
211.00,0.003
212.00,0.001
213.00,0.000
214.00,0.001
215.00,-0.001
216.00,0.001
217.00,0.000
218.00,-0.002
219.00,0.002
220.00,-0.001
221.00,-0.001
222.00,0.001
223.00,0.000
224.00,0.001
225.00,0.001
226.00,0.002
227.00,-0.001
228.00,-0.002
229.00,0.000
230.00,-0.001
231.00,0.000
232.00,0.001
233.00,0.001
234.00,-0.000
235.00,0.001
236.00,-0.002
237.00,-0.000
238.00,0.000
239.00,0.001
240.00,-0.001
241.00,0.001
242.00,0.001
243.00,0.001
244.00,-0.000
245.00,0.001
246.00,-0.001
247.00,0.002
248.00,-0.001
249.00,0.001
250.00,-0.001
251.00,-0.001
252.00,0.001
253.00,-0.001
254.00,0.001
255.00,-0.001
256.00,-0.000
257.00,0.001
258.00,-0.001
259.00,0.001
260.00,-0.002
261.00,-0.001
262.00,0.000
263.00,-0.001
264.00,0.001
265.00,-0.000
266.00,0.001
267.00,-0.000
268.00,0.001
269.00,-0.000
270.00,-0.001
271.00,0.000
272.00,0.001
273.00,-0.000
274.00,0.000
275.00,0.000
276.00,0.001
277.00,0.001
278.00,-0.001
279.00,-0.000
280.00,0.000
281.00,0.000
282.00,0.001
283.00,-0.001
284.00,0.001
285.00,0.000
286.00,-0.001
287.00,0.001
288.00,0.001
289.00,0.002
290.00,-0.000
291.00,-0.003
292.00,-0.000
293.00,0.001
294.00,-0.001
295.00,0.000
296.00,-0.000
297.00,-0.000
298.00,-0.000
299.00,0.001
300.00,-0.000
301.00,0.002
302.00,0.000
303.00,0.001
304.00,0.003
305.00,0.001
306.00,0.002
307.00,0.004
308.00,0.006
309.00,0.012
310.00,0.015
311.00,0.024
312.00,0.037
313.00,0.060
314.00,0.092
315.00,0.134
316.00,0.190
317.00,0.270
318.00,0.363
319.00,0.492
320.00,0.659
321.00,0.847
322.00,1.090
323.00,1.387
324.00,1.708
325.00,2.051
326.00,2.426
327.00,2.904
328.00,3.392
329.00,3.910
330.00,4.471
331.00,5.053
332.00,5.695
333.00,6.358
334.00,7.024
335.00,7.719
336.00,8.414
337.00,9.149
338.00,9.855
339.00,10.501
340.00,11.209
341.00,11.897
342.00,12.611
343.00,13.149
344.00,13.749
345.00,14.394
346.00,14.938
347.00,15.448
348.00,15.990
349.00,16.441
350.00,16.879
351.00,17.288
352.00,17.668
353.00,18.070
354.00,18.394
355.00,18.751
356.00,19.061
357.00,19.304
358.00,19.618
359.00,19.890
360.00,20.124
361.00,20.262
362.00,20.522
363.00,20.668
364.00,20.775
365.00,20.899
366.00,21.019
367.00,21.139
368.00,21.170
369.00,21.247
370.00,21.298
371.00,21.327
372.00,21.265
373.00,21.262
374.00,21.285
375.00,21.269
376.00,21.178
377.00,21.101
378.00,20.978
379.00,20.876
380.00,20.877
381.00,20.857
382.00,20.839
383.00,20.880
384.00,20.909
385.00,20.989
386.00,21.022
387.00,21.134
388.00,21.190
389.00,21.209
390.00,21.237
391.00,21.312
392.00,21.352
393.00,21.351
394.00,21.376
395.00,21.447
396.00,21.392
397.00,21.414
398.00,21.420
399.00,21.435
400.00,21.417
401.00,21.445
402.00,21.414
403.00,21.353
404.00,21.412
405.00,21.312
406.00,21.422
407.00,21.355
408.00,21.349
409.00,21.293
410.00,21.264
411.00,21.220
412.00,21.146
413.00,21.192
414.00,21.121
415.00,21.130
416.00,21.170
417.00,21.148
418.00,21.174
419.00,21.271
420.00,21.295
421.00,21.327
422.00,21.302
423.00,21.359
424.00,21.383
425.00,21.408
426.00,21.437
427.00,21.506
428.00,21.519
429.00,21.537
430.00,21.597
431.00,21.651
432.00,21.685
433.00,21.719
434.00,21.807
435.00,21.854
436.00,21.902
437.00,21.960
438.00,22.042
439.00,22.106
440.00,22.122
441.00,22.209
442.00,22.267
443.00,22.361
444.00,22.509
445.00,22.509
446.00,22.620
447.00,22.691
448.00,22.805
449.00,22.935
450.00,23.002
451.00,23.091
452.00,23.187
453.00,23.307
454.00,23.408
455.00,23.510
456.00,23.599
457.00,23.707
458.00,23.827
459.00,23.961
460.00,24.100
461.00,24.188
462.00,24.288
463.00,24.492
464.00,24.596
465.00,24.668
466.00,24.808
467.00,24.964
468.00,25.048
469.00,25.165
470.00,25.264
471.00,25.334
472.00,25.477
473.00,25.536
474.00,25.684
475.00,25.769
476.00,25.898
477.00,26.003
478.00,26.123
479.00,26.318
480.00,26.448
481.00,26.546
482.00,26.695
483.00,26.869
484.00,27.006
485.00,27.137
486.00,27.307
487.00,27.451
488.00,27.584
489.00,27.719
490.00,27.918
491.00,28.027
492.00,28.150
493.00,28.360
494.00,28.497
495.00,28.532
496.00,28.648
497.00,28.721
498.00,28.935
499.00,29.073
500.00,29.202
501.00,29.298
502.00,29.421
503.00,29.572
504.00,29.636
505.00,29.790
506.00,29.912
507.00,29.968
508.00,30.057
509.00,30.251
510.00,30.426
511.00,30.503
512.00,30.629
513.00,30.754
514.00,30.886
515.00,30.990
516.00,31.117
517.00,31.259
518.00,31.250
519.00,31.320
520.00,31.485
521.00,31.629
522.00,31.723
523.00,31.749
524.00,31.858
525.00,31.987
526.00,32.094
527.00,32.130
528.00,32.214
529.00,32.448
530.00,32.616
531.00,32.697
532.00,32.753
533.00,32.864
534.00,32.991
535.00,33.038
536.00,33.145
537.00,33.208
538.00,33.300
539.00,33.352
540.00,33.448
541.00,33.494
542.00,33.541
543.00,33.611
544.00,33.710
545.00,33.730
546.00,33.825
547.00,33.910
548.00,34.046
549.00,34.046
550.00,34.174
551.00,34.283
552.00,34.349
553.00,34.402
554.00,34.483
555.00,34.463
556.00,34.587
557.00,34.667
558.00,34.729
559.00,34.833
560.00,34.863
561.00,34.961
562.00,34.993
563.00,35.024
564.00,35.086
565.00,35.134
566.00,35.130
567.00,35.199
568.00,35.254
569.00,35.319
570.00,35.331
571.00,35.398
572.00,35.456
573.00,35.396
574.00,35.489
575.00,35.494
576.00,35.495
577.00,35.589
578.00,35.626
579.00,35.700
580.00,35.746
581.00,35.913
582.00,35.980
583.00,35.933
584.00,36.080
585.00,36.164
586.00,36.191
587.00,36.256
588.00,36.302
589.00,36.243
590.00,36.311
591.00,36.364
592.00,36.369
593.00,36.329
594.00,36.497
595.00,36.678
596.00,36.716
597.00,36.804
598.00,36.761
599.00,36.767
600.00,36.816
601.00,36.881
602.00,36.930
603.00,36.952
604.00,36.983
605.00,37.030
606.00,37.039
607.00,37.089
608.00,37.243
609.00,37.358
610.00,37.141
611.00,37.306
612.00,37.278
613.00,37.314
614.00,37.366
615.00,37.460
616.00,37.559
617.00,37.478
618.00,37.458
619.00,37.589
620.00,37.657
621.00,37.855
622.00,37.907
623.00,37.932
624.00,37.986
625.00,38.082
626.00,38.056
627.00,38.162
628.00,38.215
629.00,38.260
630.00,38.283
631.00,38.329
632.00,38.373
633.00,38.525
634.00,38.577
635.00,38.679
636.00,38.761
637.00,38.777
638.00,38.861
639.00,38.907
640.00,38.979
641.00,38.975
642.00,39.119
643.00,39.159
644.00,39.247
645.00,39.296
646.00,39.491
647.00,39.544
648.00,39.644
649.00,39.692
650.00,39.598
651.00,39.822
652.00,39.824
653.00,39.851
654.00,39.944
655.00,40.075
656.00,40.354
657.00,40.193
658.00,40.449
659.00,40.539
660.00,40.582
661.00,40.556
662.00,40.699
663.00,40.735
664.00,41.045
665.00,41.154
666.00,41.102
667.00,41.161
668.00,41.206
669.00,41.468
670.00,41.587
671.00,41.421
672.00,41.567
673.00,41.649
674.00,41.720
675.00,41.881
676.00,42.031
677.00,42.250
678.00,41.951
679.00,42.175
680.00,42.353
681.00,42.543
682.00,42.477
683.00,42.511
684.00,42.793
685.00,42.776
686.00,42.594
687.00,42.821
688.00,42.949
689.00,42.976
690.00,43.289
691.00,43.501
692.00,43.205
693.00,43.196
694.00,43.429
695.00,43.566
696.00,43.631
697.00,43.561
698.00,43.754
699.00,44.010
700.00,43.963
701.00,43.987
702.00,44.117
703.00,44.329
704.00,44.444
705.00,44.363
706.00,44.497
707.00,44.507
708.00,44.379
709.00,44.786
710.00,45.156
711.00,44.788
712.00,44.660
713.00,44.990
714.00,45.027
715.00,45.071
716.00,45.042
717.00,45.213
718.00,45.365
719.00,45.334
720.00,45.444
721.00,49.871
722.00,49.927
723.00,49.937
724.00,49.890
725.00,49.979
726.00,49.992
727.00,50.031
728.00,50.033
729.00,50.052
730.00,50.148
731.00,50.105
732.00,50.207
733.00,50.250
734.00,50.283
735.00,50.336
736.00,50.241
737.00,50.363
738.00,50.354
739.00,50.436
740.00,50.436
741.00,50.497
742.00,50.535
743.00,50.447
744.00,50.467
745.00,50.555
746.00,50.576
747.00,50.487
748.00,50.567
749.00,50.572
750.00,50.537
751.00,50.558
752.00,50.505
753.00,50.498
754.00,50.597
755.00,50.576
756.00,50.597
757.00,50.640
758.00,50.605
759.00,50.603
760.00,50.606
761.00,50.643
762.00,50.611
763.00,50.684
764.00,50.633
765.00,50.681
766.00,50.664
767.00,50.644
768.00,50.806
769.00,50.714
770.00,50.780
771.00,50.674
772.00,50.801
773.00,50.702
774.00,50.791
775.00,50.809
776.00,50.748
777.00,50.859
778.00,50.801
779.00,50.888
780.00,50.768
781.00,50.862
782.00,50.801
783.00,50.764
784.00,50.803
785.00,50.731
786.00,50.819
787.00,50.721
788.00,50.714
789.00,50.776
790.00,50.723
791.00,50.821
792.00,50.784
793.00,50.661
794.00,50.709
795.00,50.701
796.00,50.752
797.00,50.598
798.00,50.679
799.00,50.629
800.00,50.607
801.00,50.637
802.00,50.593
803.00,50.610
804.00,50.516
805.00,50.651
806.00,50.487
807.00,50.555
808.00,50.531
809.00,50.548
810.00,50.451
811.00,50.535
812.00,50.489
813.00,50.384
814.00,50.484
815.00,50.482
816.00,50.460
817.00,50.403
818.00,50.295
819.00,50.367
820.00,50.338
821.00,50.356
822.00,50.263
823.00,50.279
824.00,50.264
825.00,50.250
826.00,50.278
827.00,50.346
828.00,50.305
829.00,50.252
830.00,50.285
831.00,52.555
832.00,52.536
833.00,52.451
834.00,52.512
835.00,52.463
836.00,52.471
837.00,52.458
838.00,52.432
839.00,52.414
840.00,52.353
841.00,52.379
842.00,52.328
843.00,52.375
844.00,52.319
845.00,52.251
846.00,52.317
847.00,52.259
848.00,52.280
849.00,52.186
850.00,52.194
851.00,52.103
852.00,52.118
853.00,52.056
854.00,52.080
855.00,52.021
856.00,52.021
857.00,51.944
858.00,51.939
859.00,51.934
860.00,51.917
861.00,51.892
862.00,51.851
863.00,51.870
864.00,51.840
865.00,51.873
866.00,51.849
867.00,51.799
868.00,51.790
869.00,51.770
870.00,51.808
871.00,51.806
872.00,51.712
873.00,51.845
874.00,51.752
875.00,51.728
876.00,51.714
877.00,51.734
878.00,51.725
879.00,51.705
880.00,51.687
881.00,51.652
882.00,51.702
883.00,51.623
884.00,51.605
885.00,51.594
886.00,51.578
887.00,51.485
888.00,51.511
889.00,51.503
890.00,51.503
891.00,51.471
892.00,51.458
893.00,51.410
894.00,51.445
895.00,51.405
896.00,51.386
897.00,51.380
898.00,51.334
899.00,51.334
900.00,51.319
901.00,51.296
902.00,51.280
903.00,51.322
904.00,51.310
905.00,51.218
906.00,51.235
907.00,51.191
908.00,51.161
909.00,51.158
910.00,51.131
911.00,51.132
912.00,51.110
913.00,51.057
914.00,51.047
915.00,51.014
916.00,51.001
917.00,50.967
918.00,50.984
919.00,50.945
920.00,50.929
921.00,50.949
922.00,50.932
923.00,50.876
924.00,50.873
925.00,50.849
926.00,50.821
927.00,50.802
928.00,50.787
929.00,50.788
930.00,50.758
931.00,50.742
932.00,50.699
933.00,50.717
934.00,50.693
935.00,50.658
936.00,50.627
937.00,50.621
938.00,50.603
939.00,50.604
940.00,50.620
941.00,50.559
942.00,50.575
943.00,50.537
944.00,50.483
945.00,50.490
946.00,50.509
947.00,50.492
948.00,50.425
949.00,50.409
950.00,50.382
951.00,50.353
952.00,50.338
953.00,50.298
954.00,50.297
955.00,50.248
956.00,50.254
957.00,50.194
958.00,50.222
959.00,50.157
960.00,50.164
961.00,50.156
962.00,50.175
963.00,50.113
964.00,50.100
965.00,50.107
966.00,50.082
967.00,50.088
968.00,50.057
969.00,50.085
970.00,50.063
971.00,50.053
972.00,50.034
973.00,50.083
974.00,50.095
975.00,50.034
976.00,50.059
977.00,50.047
978.00,50.089
979.00,50.045
980.00,50.052
981.00,50.059
982.00,50.015
983.00,50.039
984.00,50.016
985.00,50.040
986.00,50.020
987.00,50.032
988.00,49.980
989.00,49.974
990.00,49.974
991.00,49.971
992.00,49.994
993.00,49.946
994.00,49.946
995.00,49.927
996.00,49.912
997.00,49.892
998.00,49.888
999.00,49.914
1000.00,49.850
1001.00,49.846
1002.00,49.842
1003.00,49.849
1004.00,49.811
1005.00,49.807
1006.00,49.842
1007.00,49.795
1008.00,49.773
1009.00,49.758
1010.00,49.754
1011.00,49.739
1012.00,49.713
1013.00,49.718
1014.00,49.683
1015.00,49.693
1016.00,49.661
1017.00,49.649
1018.00,49.610
1019.00,49.598
1020.00,49.594
1021.00,49.570
1022.00,49.572
1023.00,49.525
1024.00,49.541
1025.00,49.513
1026.00,49.503
1027.00,49.488
1028.00,49.474
1029.00,49.465
1030.00,49.430
1031.00,49.441
1032.00,49.410
1033.00,49.406
1034.00,49.376
1035.00,49.347
1036.00,49.319
1037.00,49.302
1038.00,49.292
1039.00,49.257
1040.00,49.270
1041.00,49.232
1042.00,49.236
1043.00,49.212
1044.00,49.241
1045.00,49.231
1046.00,49.209
1047.00,49.224
1048.00,49.240
1049.00,49.244
1050.00,49.235
1051.00,49.283
1052.00,49.265
1053.00,49.266
1054.00,49.286
1055.00,49.311
1056.00,49.317
1057.00,49.309
1058.00,49.293
1059.00,49.297
1060.00,49.313
1061.00,49.296
1062.00,49.291
1063.00,49.280
1064.00,49.280
1065.00,49.269
1066.00,49.256
1067.00,49.249
1068.00,49.277
1069.00,49.227
1070.00,49.208
1071.00,49.204
1072.00,49.231
1073.00,49.203
1074.00,49.199
1075.00,49.195
1076.00,49.195
1077.00,49.175
1078.00,49.153
1079.00,49.165
1080.00,49.163
1081.00,49.140
1082.00,49.147
1083.00,49.133
1084.00,49.126
1085.00,49.135
1086.00,49.122
1087.00,49.134
1088.00,49.106
1089.00,49.103
1090.00,49.092
1091.00,49.085
1092.00,49.073
1093.00,49.067
1094.00,49.042
1095.00,49.054
1096.00,49.050
1097.00,49.015
1098.00,48.999
1099.00,49.006
1100.00,48.985
1101.00,48.992
1102.00,48.981
1103.00,48.981
1104.00,48.973
1105.00,48.953
1106.00,48.946
1107.00,48.942
1108.00,48.952
1109.00,48.950
1110.00,48.908
1111.00,48.905
1112.00,48.883
1113.00,48.893
1114.00,48.881
1115.00,48.888
1116.00,48.873
1117.00,48.860
1118.00,48.858
1119.00,48.847
1120.00,48.841
1121.00,48.834
1122.00,48.818
1123.00,48.822
1124.00,48.823
1125.00,48.823
1126.00,48.810
1127.00,48.813
1128.00,48.785
1129.00,48.774
1130.00,48.748
1131.00,48.754
1132.00,48.743
1133.00,48.750
1134.00,48.744
1135.00,48.729
1136.00,48.728
1137.00,48.741
1138.00,48.736
1139.00,48.757
1140.00,48.754
1141.00,48.747
1142.00,48.721
1143.00,48.737
1144.00,48.709
1145.00,48.706
1146.00,48.700
1147.00,48.699
1148.00,48.692
1149.00,48.711
1150.00,48.715
1151.00,48.713
1152.00,48.689
1153.00,48.695
1154.00,48.689
1155.00,48.685
1156.00,48.679
1157.00,48.708
1158.00,48.674
1159.00,48.668
1160.00,48.668
1161.00,48.684
1162.00,48.671
1163.00,48.654
1164.00,48.677
1165.00,48.671
1166.00,48.680
1167.00,48.678
1168.00,48.676
1169.00,48.665
1170.00,48.673
1171.00,48.652
1172.00,48.658
1173.00,48.646
1174.00,48.654
1175.00,48.649
1176.00,48.661
1177.00,48.636
1178.00,48.642
1179.00,48.655
1180.00,48.638
1181.00,48.674
1182.00,48.659
1183.00,48.643
1184.00,48.638
1185.00,48.642
1186.00,48.639
1187.00,48.640
1188.00,48.635
1189.00,48.631
1190.00,48.633
1191.00,48.629
1192.00,48.650
1193.00,48.638
1194.00,48.652
1195.00,48.632
1196.00,48.648
1197.00,48.664
1198.00,48.655
1199.00,48.645
1200.00,48.661
1201.00,48.686
1202.00,48.662
1203.00,48.657
1204.00,48.653
1205.00,48.667
1206.00,48.645
1207.00,48.637
1208.00,48.630
1209.00,48.638
1210.00,48.642
1211.00,48.642
1212.00,48.659
1213.00,48.622
1214.00,48.658
1215.00,48.655
1216.00,48.671
1217.00,48.669
1218.00,48.658
1219.00,48.662
1220.00,48.628
1221.00,48.648
1222.00,48.634
1223.00,48.658
1224.00,48.649
1225.00,48.641
1226.00,48.646
1227.00,48.640
1228.00,48.669
1229.00,48.649
1230.00,48.690
1231.00,48.683
1232.00,48.700
1233.00,48.713
1234.00,48.717
1235.00,48.712
1236.00,48.715
1237.00,48.723
1238.00,48.713
1239.00,48.726
1240.00,48.695
1241.00,48.716
1242.00,48.723
1243.00,48.729
1244.00,48.716
1245.00,48.745
1246.00,48.745
1247.00,48.742
1248.00,48.744
1249.00,48.755
1250.00,48.760
1251.00,48.737
1252.00,48.774
1253.00,48.762
1254.00,48.789
1255.00,48.777
1256.00,48.770
1257.00,48.762
1258.00,48.806
1259.00,48.794
1260.00,48.813
1261.00,48.806
1262.00,48.786
1263.00,48.808
1264.00,48.808
1265.00,48.807
1266.00,48.812
1267.00,48.829
1268.00,48.821
1269.00,48.842
1270.00,48.863
1271.00,48.857
1272.00,48.850
1273.00,48.863
1274.00,48.864
1275.00,48.870
1276.00,48.870
1277.00,48.877
1278.00,48.886
1279.00,48.895
1280.00,48.895
1281.00,48.913
1282.00,48.927
1283.00,48.917
1284.00,48.926
1285.00,48.914
1286.00,48.939
1287.00,48.926
1288.00,48.925
1289.00,48.934
1290.00,48.977
1291.00,48.946
1292.00,48.940
1293.00,48.945
1294.00,48.968
1295.00,48.969
1296.00,48.973
1297.00,48.990
1298.00,49.016
1299.00,49.001
1300.00,49.027
1301.00,49.012
1302.00,49.031
1303.00,49.034
1304.00,49.024
1305.00,49.053
1306.00,49.058
1307.00,49.076
1308.00,49.059
1309.00,49.070
1310.00,49.070
1311.00,49.071
1312.00,49.073
1313.00,49.099
1314.00,49.112
1315.00,49.133
1316.00,49.118
1317.00,49.139
1318.00,49.127
1319.00,49.125
1320.00,49.149
1321.00,49.336
1322.00,49.329
1323.00,49.315
1324.00,49.310
1325.00,49.305
1326.00,49.322
1327.00,49.309
1328.00,49.294
1329.00,49.292
1330.00,49.309
1331.00,49.304
1332.00,49.321
1333.00,49.303
1334.00,49.372
1335.00,49.368
1336.00,49.384
1337.00,49.429
1338.00,49.485
1339.00,49.522
1340.00,49.582
1341.00,49.634
1342.00,49.688
1343.00,49.750
1344.00,49.790
1345.00,49.847
1346.00,49.901
1347.00,49.907
1348.00,49.939
1349.00,49.967
1350.00,49.980
1351.00,50.014
1352.00,50.025
1353.00,49.821
1354.00,50.040
1355.00,49.981
1356.00,50.064
1357.00,50.056
1358.00,50.078
1359.00,50.000
1360.00,50.096
1361.00,50.053
1362.00,50.075
1363.00,50.086
1364.00,50.094
1365.00,50.090
1366.00,50.127
1367.00,50.093
1368.00,50.100
1369.00,50.101
1370.00,50.102
1371.00,50.001
1372.00,50.041
1373.00,50.073
1374.00,50.111
1375.00,50.062
1376.00,50.088
1377.00,50.083
1378.00,50.139
1379.00,50.105
1380.00,50.097
1381.00,50.106
1382.00,50.089
1383.00,50.106
1384.00,50.047
1385.00,50.051
1386.00,50.111
1387.00,50.075
1388.00,50.028
1389.00,50.049
1390.00,50.071
1391.00,50.071
1392.00,50.052
1393.00,50.100
1394.00,50.090
1395.00,50.053
1396.00,50.013
1397.00,50.080
1398.00,50.111
1399.00,50.095
1400.00,50.052
1401.00,50.067
1402.00,50.089
1403.00,50.116
1404.00,50.104
1405.00,50.114
1406.00,50.133
1407.00,50.143
1408.00,50.114
1409.00,50.166
1410.00,50.182
1411.00,50.158
1412.00,50.193
1413.00,50.134
1414.00,50.157
1415.00,50.186
1416.00,50.202
1417.00,50.236
1418.00,50.216
1419.00,50.230
1420.00,50.242
1421.00,50.293
1422.00,50.292
1423.00,50.318
1424.00,50.306
1425.00,50.339
1426.00,50.348
1427.00,50.371
1428.00,50.370
1429.00,50.371
1430.00,50.380
1431.00,50.420
1432.00,50.414
1433.00,50.438
1434.00,50.425
1435.00,50.483
1436.00,50.484
1437.00,50.493
1438.00,50.507
1439.00,50.540
1440.00,50.546
1441.00,50.542
1442.00,50.583
1443.00,50.621
1444.00,50.666
1445.00,50.637
1446.00,50.655
1447.00,50.697
1448.00,50.745
1449.00,50.749
1450.00,50.745
1451.00,50.755
1452.00,50.779
1453.00,50.792
1454.00,50.824
1455.00,50.842
1456.00,50.859
1457.00,50.844
1458.00,50.890
1459.00,50.905
1460.00,50.919
1461.00,50.927
1462.00,50.971
1463.00,50.955
1464.00,50.976
1465.00,51.009
1466.00,50.999
1467.00,51.018
1468.00,51.067
1469.00,51.058
1470.00,51.069
1471.00,51.085
1472.00,51.105
1473.00,51.112
1474.00,51.130
1475.00,51.149
1476.00,51.164
1477.00,51.147
1478.00,51.177
1479.00,51.190
1480.00,51.193
1481.00,51.213
1482.00,51.249
1483.00,51.246
1484.00,51.276
1485.00,51.260
1486.00,51.280
1487.00,51.315
1488.00,51.342
1489.00,51.332
1490.00,51.331
1491.00,51.349
1492.00,51.393
1493.00,51.365
1494.00,51.433
1495.00,51.428
1496.00,51.440
1497.00,51.417
1498.00,51.422
1499.00,51.461
1500.00,51.484
1501.00, 
1502.00, 
1503.00, 
1504.00, 
1505.00, 
1506.00, 
1507.00, 
1508.00, 
1509.00, 
1510.00, 
1511.00, 
1512.00, 
1513.00, 
1514.00, 
1515.00, 
1516.00, 
1517.00, 
1518.00, 
1519.00, 
1520.00, 
1521.00, 
1522.00, 
1523.00, 
1524.00, 
1525.00, 
1526.00, 
1527.00, 
1528.00, 
1529.00, 
1530.00, 
1531.00, 
1532.00, 
1533.00, 
1534.00, 
1535.00, 
1536.00, 
1537.00, 
1538.00, 
1539.00, 
1540.00, 
1541.00, 
1542.00, 
1543.00, 
1544.00, 
1545.00, 
1546.00, 
1547.00, 
1548.00, 
1549.00, 
1550.00, 
1551.00, 
1552.00, 
1553.00, 
1554.00, 
1555.00, 
1556.00, 
1557.00, 
1558.00, 
1559.00, 
1560.00, 
1561.00, 
1562.00, 
1563.00, 
1564.00, 
1565.00, 
1566.00, 
1567.00, 
1568.00, 
1569.00, 
1570.00, 
1571.00, 
1572.00, 
1573.00, 
1574.00, 
1575.00, 
1576.00, 
1577.00, 
1578.00, 
1579.00, 
1580.00, 
1581.00, 
1582.00, 
1583.00, 
1584.00, 
1585.00, 
1586.00, 
1587.00, 
1588.00, 
1589.00, 
1590.00, 
1591.00, 
1592.00, 
1593.00, 
1594.00, 
1595.00, 
1596.00, 
1597.00, 
1598.00, 
1599.00, 
1600.00, 
1601.00, 
1602.00, 
1603.00, 
1604.00, 
1605.00, 
1606.00, 
1607.00, 
1608.00, 
1609.00, 
1610.00, 
1611.00, 
1612.00, 
1613.00, 
1614.00, 
1615.00, 
1616.00, 
1617.00, 
1618.00, 
1619.00, 
1620.00, 
1621.00, 
1622.00, 
1623.00, 
1624.00, 
1625.00, 
1626.00, 
1627.00, 
1628.00, 
1629.00, 
1630.00, 
1631.00, 
1632.00, 
1633.00, 
1634.00, 
1635.00, 
1636.00, 
1637.00, 
1638.00, 
1639.00, 
1640.00, 
1641.00, 
1642.00, 
1643.00, 
1644.00, 
1645.00, 
1646.00, 
1647.00, 
1648.00, 
1649.00, 
1650.00, 
1651.00, 
1652.00, 
1653.00, 
1654.00, 
1655.00, 
1656.00, 
1657.00, 
1658.00, 
1659.00, 
1660.00, 
1661.00, 
1662.00, 
1663.00, 
1664.00, 
1665.00, 
1666.00, 
1667.00, 
1668.00, 
1669.00, 
1670.00, 
1671.00, 
1672.00, 
1673.00, 
1674.00, 
1675.00, 
1676.00, 
1677.00, 
1678.00, 
1679.00, 
1680.00, 
1681.00, 
1682.00, 
1683.00, 
1684.00, 
1685.00, 
1686.00, 
1687.00, 
1688.00, 
1689.00, 
1690.00, 
1691.00, 
1692.00, 
1693.00, 
1694.00, 
1695.00, 
1696.00, 
1697.00, 
1698.00, 
1699.00, 
1700.00, 
1701.00, 
1702.00, 
1703.00, 
1704.00, 
1705.00, 
1706.00, 
1707.00, 
1708.00, 
1709.00, 
1710.00, 
1711.00, 
1712.00, 
1713.00, 
1714.00, 
1715.00, 
1716.00, 
1717.00, 
1718.00, 
1719.00, 
1720.00, 
1721.00, 
1722.00, 
1723.00, 
1724.00, 
1725.00, 
1726.00, 
1727.00, 
1728.00, 
1729.00, 
1730.00, 
1731.00, 
1732.00, 
1733.00, 
1734.00, 
1735.00, 
1736.00, 
1737.00, 
1738.00, 
1739.00, 
1740.00, 
1741.00, 
1742.00, 
1743.00, 
1744.00, 
1745.00, 
1746.00, 
1747.00, 
1748.00, 
1749.00, 
1750.00, 
1751.00, 
1752.00, 
1753.00, 
1754.00, 
1755.00, 
1756.00, 
1757.00, 
1758.00, 
1759.00, 
1760.00, 
1761.00, 
1762.00, 
1763.00, 
1764.00, 
1765.00, 
1766.00, 
1767.00, 
1768.00, 
1769.00, 
1770.00, 
1771.00, 
1772.00, 
1773.00, 
1774.00, 
1775.00, 
1776.00, 
1777.00, 
1778.00, 
1779.00, 
1780.00, 
1781.00, 
1782.00, 
1783.00, 
1784.00, 
1785.00, 
1786.00, 
1787.00, 
1788.00, 
1789.00, 
1790.00, 
1791.00, 
1792.00, 
1793.00, 
1794.00, 
1795.00, 
1796.00, 
1797.00, 
1798.00, 
1799.00, 
1800.00, 
1801.00, 
1802.00, 
1803.00, 
1804.00, 
1805.00, 
1806.00, 
1807.00, 
1808.00, 
1809.00, 
1810.00, 
1811.00, 
1812.00, 
1813.00, 
1814.00, 
1815.00, 
1816.00, 
1817.00, 
1818.00, 
1819.00, 
1820.00, 
1821.00, 
1822.00, 
1823.00, 
1824.00, 
1825.00, 
1826.00, 
1827.00, 
1828.00, 
1829.00, 
1830.00, 
1831.00, 
1832.00, 
1833.00, 
1834.00, 
1835.00, 
1836.00, 
1837.00, 
1838.00, 
1839.00, 
1840.00, 
1841.00, 
1842.00, 
1843.00, 
1844.00, 
1845.00, 
1846.00, 
1847.00, 
1848.00, 
1849.00, 
1850.00, 
1851.00, 
1852.00, 
1853.00, 
1854.00, 
1855.00, 
1856.00, 
1857.00, 
1858.00, 
1859.00, 
1860.00, 
1861.00, 
1862.00, 
1863.00, 
1864.00, 
1865.00, 
1866.00, 
1867.00, 
1868.00, 
1869.00, 
1870.00, 
1871.00, 
1872.00, 
1873.00, 
1874.00, 
1875.00, 
1876.00, 
1877.00, 
1878.00, 
1879.00, 
1880.00, 
1881.00, 
1882.00, 
1883.00, 
1884.00, 
1885.00, 
1886.00, 
1887.00, 
1888.00, 
1889.00, 
1890.00, 
1891.00, 
1892.00, 
1893.00, 
1894.00, 
1895.00, 
1896.00, 
1897.00, 
1898.00, 
1899.00, 
1900.00, 
1901.00, 
1902.00, 
1903.00, 
1904.00, 
1905.00, 
1906.00, 
1907.00, 
1908.00, 
1909.00, 
1910.00, 
1911.00, 
1912.00, 
1913.00, 
1914.00, 
1915.00, 
1916.00, 
1917.00, 
1918.00, 
1919.00, 
1920.00, 
1921.00, 
1922.00, 
1923.00, 
1924.00, 
1925.00, 
1926.00, 
1927.00, 
1928.00, 
1929.00, 
1930.00, 
1931.00, 
1932.00, 
1933.00, 
1934.00, 
1935.00, 
1936.00, 
1937.00, 
1938.00, 
1939.00, 
1940.00, 
1941.00, 
1942.00, 
1943.00, 
1944.00, 
1945.00, 
1946.00, 
1947.00, 
1948.00, 
1949.00, 
1950.00, 
1951.00, 
1952.00, 
1953.00, 
1954.00, 
1955.00, 
1956.00, 
1957.00, 
1958.00, 
1959.00, 
1960.00, 
1961.00, 
1962.00, 
1963.00, 
1964.00, 
1965.00, 
1966.00, 
1967.00, 
1968.00, 
1969.00, 
1970.00, 
1971.00, 
1972.00, 
1973.00, 
1974.00, 
1975.00, 
1976.00, 
1977.00, 
1978.00, 
1979.00, 
1980.00, 
1981.00, 
1982.00, 
1983.00, 
1984.00, 
1985.00, 
1986.00, 
1987.00, 
1988.00, 
1989.00, 
1990.00, 
1991.00, 
1992.00, 
1993.00, 
1994.00, 
1995.00, 
1996.00, 
1997.00, 
1998.00, 
1999.00, 
2000.00, 
2001.00, 
2002.00, 
2003.00, 
2004.00, 
2005.00, 
2006.00, 
2007.00, 
2008.00, 
2009.00, 
2010.00, 
2011.00, 
2012.00, 
2013.00, 
2014.00, 
2015.00, 
2016.00, 
2017.00, 
2018.00, 
2019.00, 
2020.00, 
2021.00, 
2022.00, 
2023.00, 
2024.00, 
2025.00, 
2026.00, 
2027.00, 
2028.00, 
2029.00, 
2030.00, 
2031.00, 
2032.00, 
2033.00, 
2034.00, 
2035.00, 
2036.00, 
2037.00, 
2038.00, 
2039.00, 
2040.00, 
2041.00, 
2042.00, 
2043.00, 
2044.00, 
2045.00, 
2046.00, 
2047.00, 
2048.00, 
2049.00, 
2050.00, 
2051.00, 
2052.00, 
2053.00, 
2054.00, 
2055.00, 
2056.00, 
2057.00, 
2058.00, 
2059.00, 
2060.00, 
2061.00, 
2062.00, 
2063.00, 
2064.00, 
2065.00, 
2066.00, 
2067.00, 
2068.00, 
2069.00, 
2070.00, 
2071.00, 
2072.00, 
2073.00, 
2074.00, 
2075.00, 
2076.00, 
2077.00, 
2078.00, 
2079.00, 
2080.00, 
2081.00, 
2082.00, 
2083.00, 
2084.00, 
2085.00, 
2086.00, 
2087.00, 
2088.00, 
2089.00, 
2090.00, 
2091.00, 
2092.00, 
2093.00, 
2094.00, 
2095.00, 
2096.00, 
2097.00, 
2098.00, 
2099.00, 
2100.00, 
2101.00, 
2102.00, 
2103.00, 
2104.00, 
2105.00, 
2106.00, 
2107.00, 
2108.00, 
2109.00, 
2110.00, 
2111.00, 
2112.00, 
2113.00, 
2114.00, 
2115.00, 
2116.00, 
2117.00, 
2118.00, 
2119.00, 
2120.00, 
2121.00, 
2122.00, 
2123.00, 
2124.00, 
2125.00, 
2126.00, 
2127.00, 
2128.00, 
2129.00, 
2130.00, 
2131.00, 
2132.00, 
2133.00, 
2134.00, 
2135.00, 
2136.00, 
2137.00, 
2138.00, 
2139.00, 
2140.00, 
2141.00, 
2142.00, 
2143.00, 
2144.00, 
2145.00, 
2146.00, 
2147.00, 
2148.00, 
2149.00, 
2150.00, 
2151.00, 
2152.00, 
2153.00, 
2154.00, 
2155.00, 
2156.00, 
2157.00, 
2158.00, 
2159.00, 
2160.00, 
2161.00, 
2162.00, 
2163.00, 
2164.00, 
2165.00, 
2166.00, 
2167.00, 
2168.00, 
2169.00, 
2170.00, 
2171.00, 
2172.00, 
2173.00, 
2174.00, 
2175.00, 
2176.00, 
2177.00, 
2178.00, 
2179.00, 
2180.00, 
2181.00, 
2182.00, 
2183.00, 
2184.00, 
2185.00, 
2186.00, 
2187.00, 
2188.00, 
2189.00, 
2190.00, 
2191.00, 
2192.00, 
2193.00, 
2194.00, 
2195.00, 
2196.00, 
2197.00, 
2198.00, 
2199.00, 
2200.00, 
2201.00, 
2202.00, 
2203.00, 
2204.00, 
2205.00, 
2206.00, 
2207.00, 
2208.00, 
2209.00, 
2210.00, 
2211.00, 
2212.00, 
2213.00, 
2214.00, 
2215.00, 
2216.00, 
2217.00, 
2218.00, 
2219.00, 
2220.00, 
2221.00, 
2222.00, 
2223.00, 
2224.00, 
2225.00, 
2226.00, 
2227.00, 
2228.00, 
2229.00, 
2230.00, 
2231.00, 
2232.00, 
2233.00, 
2234.00, 
2235.00, 
2236.00, 
2237.00, 
2238.00, 
2239.00, 
2240.00, 
2241.00, 
2242.00, 
2243.00, 
2244.00, 
2245.00, 
2246.00, 
2247.00, 
2248.00, 
2249.00, 
2250.00, 
2251.00, 
2252.00, 
2253.00, 
2254.00, 
2255.00, 
2256.00, 
2257.00, 
2258.00, 
2259.00, 
2260.00, 
2261.00, 
2262.00, 
2263.00, 
2264.00, 
2265.00, 
2266.00, 
2267.00, 
2268.00, 
2269.00, 
2270.00, 
2271.00, 
2272.00, 
2273.00, 
2274.00, 
2275.00, 
2276.00, 
2277.00, 
2278.00, 
2279.00, 
2280.00, 
2281.00, 
2282.00, 
2283.00, 
2284.00, 
2285.00, 
2286.00, 
2287.00, 
2288.00, 
2289.00, 
2290.00, 
2291.00, 
2292.00, 
2293.00, 
2294.00, 
2295.00, 
2296.00, 
2297.00, 
2298.00, 
2299.00, 
2300.00, 
2301.00, 
2302.00, 
2303.00, 
2304.00, 
2305.00, 
2306.00, 
2307.00, 
2308.00, 
2309.00, 
2310.00, 
2311.00, 
2312.00, 
2313.00, 
2314.00, 
2315.00, 
2316.00, 
2317.00, 
2318.00, 
2319.00, 
2320.00, 
2321.00, 
2322.00, 
2323.00, 
2324.00, 
2325.00, 
2326.00, 
2327.00, 
2328.00, 
2329.00, 
2330.00, 
2331.00, 
2332.00, 
2333.00, 
2334.00, 
2335.00, 
2336.00, 
2337.00, 
2338.00, 
2339.00, 
2340.00, 
2341.00, 
2342.00, 
2343.00, 
2344.00, 
2345.00, 
2346.00, 
2347.00, 
2348.00, 
2349.00, 
2350.00, 
2351.00, 
2352.00, 
2353.00, 
2354.00, 
2355.00, 
2356.00, 
2357.00, 
2358.00, 
2359.00, 
2360.00, 
2361.00, 
2362.00, 
2363.00, 
2364.00, 
2365.00, 
2366.00, 
2367.00, 
2368.00, 
2369.00, 
2370.00, 
2371.00, 
2372.00, 
2373.00, 
2374.00, 
2375.00, 
2376.00, 
2377.00, 
2378.00, 
2379.00, 
2380.00, 
2381.00, 
2382.00, 
2383.00, 
2384.00, 
2385.00, 
2386.00, 
2387.00, 
2388.00, 
2389.00, 
2390.00, 
2391.00, 
2392.00, 
2393.00, 
2394.00, 
2395.00, 
2396.00, 
2397.00, 
2398.00, 
2399.00, 
2400.00, 
2401.00, 
2402.00, 
2403.00, 
2404.00, 
2405.00, 
2406.00, 
2407.00, 
2408.00, 
2409.00, 
2410.00, 
2411.00, 
2412.00, 
2413.00, 
2414.00, 
2415.00, 
2416.00, 
2417.00, 
2418.00, 
2419.00, 
2420.00, 
2421.00, 
2422.00, 
2423.00, 
2424.00, 
2425.00, 
2426.00, 
2427.00, 
2428.00, 
2429.00, 
2430.00, 
2431.00, 
2432.00, 
2433.00, 
2434.00, 
2435.00, 
2436.00, 
2437.00, 
2438.00, 
2439.00, 
2440.00, 
2441.00, 
2442.00, 
2443.00, 
2444.00, 
2445.00, 
2446.00, 
2447.00, 
2448.00, 
2449.00, 
2450.00, 
2451.00, 
2452.00, 
2453.00, 
2454.00, 
2455.00, 
2456.00, 
2457.00, 
2458.00, 
2459.00, 
2460.00, 
2461.00, 
2462.00, 
2463.00, 
2464.00, 
2465.00, 
2466.00, 
2467.00, 
2468.00, 
2469.00, 
2470.00, 
2471.00, 
2472.00, 
2473.00, 
2474.00, 
2475.00, 
2476.00, 
2477.00, 
2478.00, 
2479.00, 
2480.00, 
2481.00, 
2482.00, 
2483.00, 
2484.00, 
2485.00, 
2486.00, 
2487.00, 
2488.00, 
2489.00, 
2490.00, 
2491.00, 
2492.00, 
2493.00, 
2494.00, 
2495.00, 
2496.00, 
2497.00, 
2498.00, 
2499.00, 
2500.00, 
2501.00, 
2502.00, 
2503.00, 
2504.00, 
2505.00, 
2506.00, 
2507.00, 
2508.00, 
2509.00, 
2510.00, 
2511.00, 
2512.00, 
2513.00, 
2514.00, 
2515.00, 
2516.00, 
2517.00, 
2518.00, 
2519.00, 
2520.00, 
2521.00, 
2522.00, 
2523.00, 
2524.00, 
2525.00, 
2526.00, 
2527.00, 
2528.00, 
2529.00, 
2530.00, 
2531.00, 
2532.00, 
2533.00, 
2534.00, 
2535.00, 
2536.00, 
2537.00, 
2538.00, 
2539.00, 
2540.00, 
2541.00, 
2542.00, 
2543.00, 
2544.00, 
2545.00, 
2546.00, 
2547.00, 
2548.00, 
2549.00, 
2550.00, 
2551.00, 
2552.00, 
2553.00, 
2554.00, 
2555.00, 
2556.00, 
2557.00, 
2558.00, 
2559.00, 
2560.00, 
2561.00, 
2562.00, 
2563.00, 
2564.00, 
2565.00, 
2566.00, 
2567.00, 
2568.00, 
2569.00, 
2570.00, 
2571.00, 
2572.00, 
2573.00, 
2574.00, 
2575.00, 
2576.00, 
2577.00, 
2578.00, 
2579.00, 
2580.00, 
2581.00, 
2582.00, 
2583.00, 
2584.00, 
2585.00, 
2586.00, 
2587.00, 
2588.00, 
2589.00, 
2590.00, 
2591.00, 
2592.00, 
2593.00, 
2594.00, 
2595.00, 
2596.00, 
2597.00, 
2598.00, 
2599.00, 
2600.00, 
