"1cP2 - RawData"
"Wavelength nm.","T%"
200.00,0.003
201.00,0.003
202.00,0.002
203.00,0.000
204.00,0.000
205.00,0.001
206.00,0.001
207.00,0.000
208.00,0.002
209.00,-0.001
210.00,-0.002
211.00,0.002
212.00,0.001
213.00,0.001
214.00,0.002
215.00,-0.000
216.00,-0.001
217.00,0.002
218.00,0.005
219.00,0.001
220.00,0.001
221.00,0.000
222.00,0.000
223.00,-0.000
224.00,0.003
225.00,-0.000
226.00,-0.001
227.00,0.001
228.00,0.001
229.00,0.002
230.00,0.002
231.00,-0.001
232.00,0.004
233.00,0.000
234.00,0.002
235.00,0.002
236.00,-0.001
237.00,-0.000
238.00,-0.000
239.00,0.001
240.00,0.000
241.00,0.000
242.00,-0.000
243.00,-0.000
244.00,0.002
245.00,-0.000
246.00,-0.001
247.00,-0.000
248.00,0.000
249.00,0.001
250.00,0.001
251.00,-0.000
252.00,0.000
253.00,0.000
254.00,-0.000
255.00,-0.001
256.00,-0.002
257.00,0.001
258.00,-0.001
259.00,0.001
260.00,-0.001
261.00,0.001
262.00,0.000
263.00,-0.001
264.00,0.001
265.00,0.000
266.00,-0.000
267.00,0.001
268.00,-0.000
269.00,-0.000
270.00,-0.001
271.00,0.001
272.00,-0.001
273.00,0.000
274.00,-0.001
275.00,0.000
276.00,0.001
277.00,0.001
278.00,-0.001
279.00,0.002
280.00,-0.001
281.00,-0.001
282.00,-0.001
283.00,0.001
284.00,0.002
285.00,-0.000
286.00,0.000
287.00,-0.001
288.00,0.000
289.00,0.001
290.00,0.000
291.00,0.001
292.00,0.001
293.00,0.001
294.00,0.000
295.00,-0.000
296.00,-0.001
297.00,0.001
298.00,0.001
299.00,0.000
300.00,-0.001
301.00,0.004
302.00,-0.000
303.00,0.002
304.00,0.002
305.00,0.003
306.00,0.002
307.00,0.002
308.00,0.007
309.00,0.015
310.00,0.025
311.00,0.036
312.00,0.060
313.00,0.095
314.00,0.142
315.00,0.204
316.00,0.292
317.00,0.422
318.00,0.573
319.00,0.772
320.00,1.036
321.00,1.341
322.00,1.720
323.00,2.182
324.00,2.701
325.00,3.259
326.00,3.865
327.00,4.592
328.00,5.384
329.00,6.229
330.00,7.112
331.00,8.089
332.00,9.090
333.00,10.221
334.00,11.238
335.00,12.408
336.00,13.548
337.00,14.707
338.00,15.891
339.00,16.961
340.00,18.138
341.00,19.158
342.00,20.441
343.00,21.385
344.00,22.409
345.00,23.449
346.00,24.371
347.00,25.237
348.00,26.081
349.00,26.934
350.00,27.711
351.00,28.471
352.00,29.103
353.00,29.788
354.00,30.443
355.00,31.005
356.00,31.523
357.00,32.020
358.00,32.584
359.00,33.086
360.00,33.539
361.00,33.937
362.00,34.240
363.00,34.583
364.00,34.851
365.00,35.022
366.00,35.411
367.00,35.697
368.00,35.786
369.00,35.897
370.00,36.130
371.00,36.229
372.00,36.210
373.00,36.248
374.00,36.305
375.00,36.340
376.00,36.224
377.00,36.139
378.00,36.033
379.00,35.895
380.00,35.920
381.00,35.912
382.00,35.974
383.00,36.083
384.00,36.211
385.00,36.387
386.00,36.487
387.00,36.700
388.00,36.891
389.00,36.939
390.00,37.108
391.00,37.233
392.00,37.323
393.00,37.426
394.00,37.499
395.00,37.593
396.00,37.607
397.00,37.662
398.00,37.761
399.00,37.745
400.00,37.776
401.00,37.819
402.00,37.837
403.00,37.843
404.00,37.834
405.00,37.764
406.00,37.861
407.00,37.779
408.00,37.807
409.00,37.724
410.00,37.669
411.00,37.550
412.00,37.458
413.00,37.513
414.00,37.447
415.00,37.469
416.00,37.510
417.00,37.432
418.00,37.538
419.00,37.612
420.00,37.667
421.00,37.624
422.00,37.625
423.00,37.682
424.00,37.707
425.00,37.751
426.00,37.738
427.00,37.821
428.00,37.815
429.00,37.781
430.00,37.829
431.00,37.876
432.00,37.886
433.00,37.891
434.00,37.938
435.00,38.000
436.00,38.028
437.00,38.049
438.00,38.084
439.00,38.104
440.00,38.112
441.00,38.214
442.00,38.223
443.00,38.328
444.00,38.434
445.00,38.421
446.00,38.529
447.00,38.523
448.00,38.595
449.00,38.746
450.00,38.768
451.00,38.837
452.00,38.931
453.00,39.062
454.00,39.070
455.00,39.139
456.00,39.199
457.00,39.347
458.00,39.330
459.00,39.458
460.00,39.587
461.00,39.627
462.00,39.663
463.00,39.906
464.00,39.919
465.00,40.001
466.00,40.107
467.00,40.222
468.00,40.230
469.00,40.297
470.00,40.296
471.00,40.340
472.00,40.448
473.00,40.436
474.00,40.544
475.00,40.558
476.00,40.587
477.00,40.686
478.00,40.751
479.00,40.911
480.00,41.000
481.00,41.027
482.00,41.147
483.00,41.222
484.00,41.344
485.00,41.517
486.00,41.600
487.00,41.687
488.00,41.774
489.00,41.853
490.00,42.029
491.00,42.104
492.00,42.180
493.00,42.385
494.00,42.488
495.00,42.439
496.00,42.493
497.00,42.487
498.00,42.671
499.00,42.780
500.00,42.889
501.00,42.908
502.00,43.005
503.00,43.084
504.00,43.057
505.00,43.198
506.00,43.338
507.00,43.274
508.00,43.368
509.00,43.544
510.00,43.638
511.00,43.628
512.00,43.776
513.00,43.851
514.00,43.922
515.00,44.057
516.00,44.047
517.00,44.137
518.00,44.196
519.00,44.162
520.00,44.093
521.00,44.292
522.00,44.440
523.00,44.326
524.00,44.370
525.00,44.559
526.00,44.617
527.00,44.630
528.00,44.643
529.00,44.848
530.00,45.018
531.00,45.065
532.00,45.094
533.00,45.177
534.00,45.261
535.00,45.243
536.00,45.324
537.00,45.340
538.00,45.363
539.00,45.412
540.00,45.454
541.00,45.501
542.00,45.511
543.00,45.585
544.00,45.548
545.00,45.607
546.00,45.650
547.00,45.837
548.00,45.900
549.00,45.909
550.00,45.957
551.00,46.058
552.00,46.142
553.00,46.137
554.00,46.220
555.00,46.202
556.00,46.259
557.00,46.307
558.00,46.314
559.00,46.402
560.00,46.414
561.00,46.503
562.00,46.513
563.00,46.542
564.00,46.608
565.00,46.596
566.00,46.590
567.00,46.635
568.00,46.658
569.00,46.704
570.00,46.720
571.00,46.730
572.00,46.722
573.00,46.636
574.00,46.667
575.00,46.674
576.00,46.667
577.00,46.775
578.00,46.849
579.00,46.851
580.00,46.906
581.00,47.064
582.00,47.155
583.00,47.025
584.00,47.119
585.00,47.227
586.00,47.266
587.00,47.286
588.00,47.264
589.00,47.193
590.00,47.292
591.00,47.398
592.00,47.278
593.00,47.297
594.00,47.369
595.00,47.486
596.00,47.556
597.00,47.670
598.00,47.637
599.00,47.618
600.00,47.603
601.00,47.579
602.00,47.606
603.00,47.601
604.00,47.670
605.00,47.713
606.00,47.641
607.00,47.702
608.00,47.828
609.00,47.917
610.00,47.670
611.00,47.807
612.00,47.750
613.00,47.856
614.00,47.821
615.00,47.835
616.00,47.967
617.00,47.839
618.00,47.836
619.00,47.967
620.00,47.908
621.00,47.840
622.00,47.929
623.00,48.136
624.00,48.135
625.00,48.122
626.00,48.109
627.00,48.133
628.00,48.117
629.00,48.089
630.00,48.128
631.00,48.138
632.00,48.143
633.00,48.276
634.00,48.287
635.00,48.339
636.00,48.362
637.00,48.360
638.00,48.327
639.00,48.411
640.00,48.411
641.00,48.317
642.00,48.454
643.00,48.395
644.00,48.492
645.00,48.457
646.00,48.618
647.00,48.660
648.00,48.585
649.00,48.717
650.00,48.540
651.00,48.662
652.00,48.559
653.00,48.580
654.00,48.597
655.00,48.860
656.00,49.053
657.00,48.813
658.00,48.860
659.00,48.862
660.00,48.933
661.00,48.807
662.00,48.840
663.00,48.927
664.00,49.189
665.00,49.262
666.00,49.213
667.00,49.228
668.00,49.068
669.00,49.343
670.00,49.488
671.00,49.196
672.00,49.332
673.00,49.326
674.00,49.349
675.00,49.358
676.00,49.540
677.00,49.625
678.00,49.295
679.00,49.482
680.00,49.589
681.00,49.630
682.00,49.508
683.00,49.493
684.00,49.729
685.00,49.729
686.00,49.478
687.00,49.522
688.00,49.523
689.00,49.454
690.00,49.785
691.00,49.972
692.00,49.655
693.00,49.671
694.00,49.791
695.00,49.792
696.00,49.723
697.00,49.631
698.00,49.666
699.00,49.959
700.00,49.925
701.00,49.919
702.00,49.958
703.00,50.027
704.00,49.998
705.00,49.838
706.00,49.830
707.00,49.944
708.00,49.750
709.00,50.138
710.00,50.458
711.00,49.950
712.00,49.846
713.00,50.104
714.00,50.104
715.00,50.027
716.00,49.921
717.00,50.001
718.00,50.126
719.00,50.027
720.00,50.031
721.00,54.838
722.00,54.716
723.00,54.684
724.00,54.553
725.00,54.637
726.00,54.619
727.00,54.580
728.00,54.593
729.00,54.468
730.00,54.520
731.00,54.345
732.00,54.371
733.00,54.396
734.00,54.316
735.00,54.366
736.00,54.247
737.00,54.282
738.00,54.202
739.00,54.227
740.00,54.217
741.00,54.199
742.00,54.178
743.00,54.137
744.00,53.996
745.00,54.047
746.00,53.999
747.00,53.901
748.00,53.930
749.00,53.817
750.00,53.724
751.00,53.749
752.00,53.769
753.00,53.650
754.00,53.698
755.00,53.618
756.00,53.605
757.00,53.627
758.00,53.550
759.00,53.453
760.00,53.467
761.00,53.436
762.00,53.392
763.00,53.444
764.00,53.321
765.00,53.301
766.00,53.312
767.00,53.260
768.00,53.324
769.00,53.266
770.00,53.275
771.00,53.163
772.00,53.256
773.00,53.111
774.00,53.164
775.00,53.150
776.00,53.036
777.00,53.126
778.00,53.111
779.00,53.119
780.00,52.898
781.00,52.952
782.00,52.879
783.00,52.843
784.00,52.871
785.00,52.797
786.00,52.863
787.00,52.711
788.00,52.651
789.00,52.745
790.00,52.644
791.00,52.736
792.00,52.581
793.00,52.493
794.00,52.512
795.00,52.483
796.00,52.476
797.00,52.360
798.00,52.433
799.00,52.310
800.00,52.274
801.00,52.305
802.00,52.280
803.00,52.287
804.00,52.150
805.00,52.251
806.00,52.039
807.00,52.091
808.00,52.149
809.00,52.052
810.00,52.002
811.00,51.926
812.00,52.060
813.00,51.896
814.00,51.913
815.00,51.871
816.00,51.859
817.00,51.814
818.00,51.753
819.00,51.805
820.00,51.703
821.00,51.701
822.00,51.669
823.00,51.597
824.00,51.612
825.00,51.586
826.00,51.516
827.00,51.561
828.00,51.540
829.00,51.527
830.00,51.432
831.00,53.834
832.00,53.843
833.00,53.708
834.00,53.753
835.00,53.700
836.00,53.670
837.00,53.639
838.00,53.626
839.00,53.588
840.00,53.507
841.00,53.507
842.00,53.458
843.00,53.467
844.00,53.442
845.00,53.394
846.00,53.430
847.00,53.367
848.00,53.337
849.00,53.277
850.00,53.261
851.00,53.139
852.00,53.189
853.00,53.118
854.00,53.092
855.00,53.016
856.00,53.046
857.00,52.982
858.00,52.930
859.00,52.911
860.00,52.939
861.00,52.919
862.00,52.854
863.00,52.819
864.00,52.809
865.00,52.828
866.00,52.768
867.00,52.758
868.00,52.737
869.00,52.699
870.00,52.719
871.00,52.710
872.00,52.664
873.00,52.615
874.00,52.701
875.00,52.604
876.00,52.588
877.00,52.587
878.00,52.573
879.00,52.545
880.00,52.547
881.00,52.487
882.00,52.524
883.00,52.454
884.00,52.412
885.00,52.384
886.00,52.378
887.00,52.355
888.00,52.320
889.00,52.319
890.00,52.301
891.00,52.269
892.00,52.235
893.00,52.206
894.00,52.222
895.00,52.161
896.00,52.136
897.00,52.104
898.00,52.087
899.00,52.088
900.00,52.058
901.00,52.059
902.00,52.043
903.00,52.065
904.00,52.056
905.00,51.966
906.00,51.974
907.00,51.937
908.00,51.899
909.00,51.888
910.00,51.865
911.00,51.848
912.00,51.817
913.00,51.787
914.00,51.764
915.00,51.729
916.00,51.698
917.00,51.688
918.00,51.694
919.00,51.626
920.00,51.611
921.00,51.596
922.00,51.585
923.00,51.552
924.00,51.524
925.00,51.533
926.00,51.509
927.00,51.507
928.00,51.473
929.00,51.480
930.00,51.412
931.00,51.412
932.00,51.357
933.00,51.379
934.00,51.367
935.00,51.306
936.00,51.365
937.00,51.275
938.00,51.257
939.00,51.244
940.00,51.250
941.00,51.189
942.00,51.180
943.00,51.154
944.00,51.120
945.00,51.125
946.00,51.147
947.00,51.132
948.00,51.061
949.00,51.016
950.00,50.997
951.00,50.996
952.00,50.956
953.00,50.925
954.00,50.888
955.00,50.858
956.00,50.857
957.00,50.807
958.00,50.836
959.00,50.777
960.00,50.772
961.00,50.755
962.00,50.762
963.00,50.716
964.00,50.718
965.00,50.709
966.00,50.688
967.00,50.683
968.00,50.642
969.00,50.683
970.00,50.654
971.00,50.637
972.00,50.621
973.00,50.662
974.00,50.655
975.00,50.595
976.00,50.640
977.00,50.628
978.00,50.661
979.00,50.633
980.00,50.614
981.00,50.583
982.00,50.552
983.00,50.626
984.00,50.591
985.00,50.607
986.00,50.582
987.00,50.590
988.00,50.539
989.00,50.551
990.00,50.542
991.00,50.537
992.00,50.545
993.00,50.497
994.00,50.506
995.00,50.459
996.00,50.442
997.00,50.475
998.00,50.419
999.00,50.441
1000.00,50.394
1001.00,50.379
1002.00,50.383
1003.00,50.375
1004.00,50.342
1005.00,50.326
1006.00,50.361
1007.00,50.331
1008.00,50.299
1009.00,50.264
1010.00,50.318
1011.00,50.275
1012.00,50.245
1013.00,50.259
1014.00,50.230
1015.00,50.229
1016.00,50.193
1017.00,50.189
1018.00,50.172
1019.00,50.148
1020.00,50.129
1021.00,50.108
1022.00,50.111
1023.00,50.044
1024.00,50.063
1025.00,50.035
1026.00,50.017
1027.00,50.001
1028.00,49.999
1029.00,49.980
1030.00,49.944
1031.00,49.960
1032.00,49.928
1033.00,49.926
1034.00,49.882
1035.00,49.852
1036.00,49.826
1037.00,49.800
1038.00,49.802
1039.00,49.768
1040.00,49.768
1041.00,49.733
1042.00,49.733
1043.00,49.713
1044.00,49.746
1045.00,49.723
1046.00,49.714
1047.00,49.740
1048.00,49.748
1049.00,49.771
1050.00,49.755
1051.00,49.785
1052.00,49.784
1053.00,49.776
1054.00,49.796
1055.00,49.826
1056.00,49.837
1057.00,49.825
1058.00,49.803
1059.00,49.807
1060.00,49.832
1061.00,49.795
1062.00,49.787
1063.00,49.795
1064.00,49.786
1065.00,49.777
1066.00,49.775
1067.00,49.759
1068.00,49.779
1069.00,49.745
1070.00,49.728
1071.00,49.711
1072.00,49.728
1073.00,49.697
1074.00,49.694
1075.00,49.685
1076.00,49.690
1077.00,49.665
1078.00,49.640
1079.00,49.654
1080.00,49.658
1081.00,49.635
1082.00,49.642
1083.00,49.644
1084.00,49.631
1085.00,49.647
1086.00,49.624
1087.00,49.635
1088.00,49.625
1089.00,49.630
1090.00,49.595
1091.00,49.600
1092.00,49.582
1093.00,49.564
1094.00,49.547
1095.00,49.535
1096.00,49.525
1097.00,49.523
1098.00,49.506
1099.00,49.516
1100.00,49.489
1101.00,49.490
1102.00,49.472
1103.00,49.478
1104.00,49.497
1105.00,49.451
1106.00,49.426
1107.00,49.427
1108.00,49.403
1109.00,49.402
1110.00,49.398
1111.00,49.388
1112.00,49.371
1113.00,49.375
1114.00,49.364
1115.00,49.381
1116.00,49.376
1117.00,49.374
1118.00,49.378
1119.00,49.353
1120.00,49.358
1121.00,49.346
1122.00,49.334
1123.00,49.337
1124.00,49.324
1125.00,49.312
1126.00,49.296
1127.00,49.307
1128.00,49.281
1129.00,49.270
1130.00,49.249
1131.00,49.254
1132.00,49.249
1133.00,49.248
1134.00,49.268
1135.00,49.261
1136.00,49.242
1137.00,49.247
1138.00,49.229
1139.00,49.236
1140.00,49.241
1141.00,49.233
1142.00,49.209
1143.00,49.224
1144.00,49.178
1145.00,49.190
1146.00,49.191
1147.00,49.193
1148.00,49.215
1149.00,49.226
1150.00,49.209
1151.00,49.203
1152.00,49.181
1153.00,49.187
1154.00,49.172
1155.00,49.179
1156.00,49.171
1157.00,49.190
1158.00,49.172
1159.00,49.171
1160.00,49.162
1161.00,49.165
1162.00,49.175
1163.00,49.160
1164.00,49.191
1165.00,49.204
1166.00,49.181
1167.00,49.181
1168.00,49.198
1169.00,49.177
1170.00,49.179
1171.00,49.155
1172.00,49.169
1173.00,49.167
1174.00,49.171
1175.00,49.169
1176.00,49.171
1177.00,49.138
1178.00,49.146
1179.00,49.172
1180.00,49.145
1181.00,49.176
1182.00,49.150
1183.00,49.135
1184.00,49.137
1185.00,49.136
1186.00,49.137
1187.00,49.149
1188.00,49.138
1189.00,49.137
1190.00,49.134
1191.00,49.116
1192.00,49.146
1193.00,49.138
1194.00,49.147
1195.00,49.135
1196.00,49.151
1197.00,49.152
1198.00,49.147
1199.00,49.148
1200.00,49.155
1201.00,49.170
1202.00,49.149
1203.00,49.157
1204.00,49.150
1205.00,49.152
1206.00,49.140
1207.00,49.114
1208.00,49.109
1209.00,49.141
1210.00,49.151
1211.00,49.155
1212.00,49.167
1213.00,49.123
1214.00,49.168
1215.00,49.139
1216.00,49.147
1217.00,49.168
1218.00,49.134
1219.00,49.162
1220.00,49.138
1221.00,49.149
1222.00,49.139
1223.00,49.164
1224.00,49.164
1225.00,49.157
1226.00,49.174
1227.00,49.165
1228.00,49.168
1229.00,49.153
1230.00,49.199
1231.00,49.187
1232.00,49.201
1233.00,49.214
1234.00,49.207
1235.00,49.192
1236.00,49.209
1237.00,49.221
1238.00,49.212
1239.00,49.223
1240.00,49.201
1241.00,49.216
1242.00,49.223
1243.00,49.225
1244.00,49.218
1245.00,49.243
1246.00,49.251
1247.00,49.239
1248.00,49.239
1249.00,49.252
1250.00,49.252
1251.00,49.221
1252.00,49.243
1253.00,49.230
1254.00,49.265
1255.00,49.260
1256.00,49.291
1257.00,49.286
1258.00,49.296
1259.00,49.293
1260.00,49.319
1261.00,49.321
1262.00,49.299
1263.00,49.305
1264.00,49.307
1265.00,49.308
1266.00,49.316
1267.00,49.339
1268.00,49.320
1269.00,49.337
1270.00,49.351
1271.00,49.345
1272.00,49.364
1273.00,49.361
1274.00,49.363
1275.00,49.375
1276.00,49.358
1277.00,49.377
1278.00,49.387
1279.00,49.398
1280.00,49.396
1281.00,49.430
1282.00,49.449
1283.00,49.431
1284.00,49.444
1285.00,49.425
1286.00,49.447
1287.00,49.430
1288.00,49.442
1289.00,49.446
1290.00,49.477
1291.00,49.475
1292.00,49.481
1293.00,49.481
1294.00,49.502
1295.00,49.493
1296.00,49.494
1297.00,49.512
1298.00,49.534
1299.00,49.527
1300.00,49.549
1301.00,49.526
1302.00,49.553
1303.00,49.555
1304.00,49.553
1305.00,49.579
1306.00,49.566
1307.00,49.579
1308.00,49.579
1309.00,49.584
1310.00,49.579
1311.00,49.574
1312.00,49.591
1313.00,49.614
1314.00,49.628
1315.00,49.638
1316.00,49.642
1317.00,49.649
1318.00,49.651
1319.00,49.666
1320.00,49.669
1321.00,49.853
1322.00,49.852
1323.00,49.830
1324.00,49.816
1325.00,49.809
1326.00,49.813
1327.00,49.812
1328.00,49.795
1329.00,49.795
1330.00,49.822
1331.00,49.817
1332.00,49.849
1333.00,49.833
1334.00,49.878
1335.00,49.901
1336.00,49.905
1337.00,49.942
1338.00,49.995
1339.00,50.035
1340.00,50.106
1341.00,50.161
1342.00,50.225
1343.00,50.291
1344.00,50.331
1345.00,50.377
1346.00,50.428
1347.00,50.470
1348.00,50.465
1349.00,50.494
1350.00,50.524
1351.00,50.526
1352.00,50.548
1353.00,50.545
1354.00,50.555
1355.00,50.509
1356.00,50.596
1357.00,50.581
1358.00,50.586
1359.00,50.593
1360.00,50.624
1361.00,50.533
1362.00,50.600
1363.00,50.588
1364.00,50.576
1365.00,50.589
1366.00,50.666
1367.00,50.611
1368.00,50.627
1369.00,50.617
1370.00,50.612
1371.00,50.582
1372.00,50.602
1373.00,50.620
1374.00,50.602
1375.00,50.607
1376.00,50.669
1377.00,50.615
1378.00,50.660
1379.00,50.596
1380.00,50.631
1381.00,50.641
1382.00,50.579
1383.00,50.608
1384.00,50.542
1385.00,50.561
1386.00,50.619
1387.00,50.594
1388.00,50.564
1389.00,50.555
1390.00,50.613
1391.00,50.611
1392.00,50.595
1393.00,50.625
1394.00,50.605
1395.00,50.592
1396.00,50.550
1397.00,50.612
1398.00,50.617
1399.00,50.614
1400.00,50.567
1401.00,50.580
1402.00,50.662
1403.00,50.616
1404.00,50.635
1405.00,50.649
1406.00,50.683
1407.00,50.661
1408.00,50.623
1409.00,50.683
1410.00,50.697
1411.00,50.652
1412.00,50.729
1413.00,50.673
1414.00,50.672
1415.00,50.716
1416.00,50.750
1417.00,50.775
1418.00,50.769
1419.00,50.754
1420.00,50.767
1421.00,50.818
1422.00,50.795
1423.00,50.836
1424.00,50.820
1425.00,50.855
1426.00,50.869
1427.00,50.890
1428.00,50.888
1429.00,50.916
1430.00,50.922
1431.00,50.955
1432.00,50.959
1433.00,50.972
1434.00,50.978
1435.00,51.044
1436.00,51.067
1437.00,51.062
1438.00,51.070
1439.00,51.096
1440.00,51.092
1441.00,51.083
1442.00,51.125
1443.00,51.148
1444.00,51.197
1445.00,51.161
1446.00,51.188
1447.00,51.212
1448.00,51.253
1449.00,51.242
1450.00,51.253
1451.00,51.264
1452.00,51.278
1453.00,51.296
1454.00,51.332
1455.00,51.348
1456.00,51.389
1457.00,51.368
1458.00,51.409
1459.00,51.421
1460.00,51.442
1461.00,51.444
1462.00,51.497
1463.00,51.476
1464.00,51.500
1465.00,51.531
1466.00,51.523
1467.00,51.556
1468.00,51.609
1469.00,51.570
1470.00,51.592
1471.00,51.600
1472.00,51.608
1473.00,51.637
1474.00,51.648
1475.00,51.683
1476.00,51.693
1477.00,51.679
1478.00,51.714
1479.00,51.723
1480.00,51.716
1481.00,51.743
1482.00,51.776
1483.00,51.773
1484.00,51.806
1485.00,51.793
1486.00,51.822
1487.00,51.856
1488.00,51.877
1489.00,51.877
1490.00,51.884
1491.00,51.897
1492.00,51.937
1493.00,51.900
1494.00,51.954
1495.00,51.949
1496.00,51.963
1497.00,51.954
1498.00,51.967
1499.00,51.983
1500.00,52.016
1501.00, 
1502.00, 
1503.00, 
1504.00, 
1505.00, 
1506.00, 
1507.00, 
1508.00, 
1509.00, 
1510.00, 
1511.00, 
1512.00, 
1513.00, 
1514.00, 
1515.00, 
1516.00, 
1517.00, 
1518.00, 
1519.00, 
1520.00, 
1521.00, 
1522.00, 
1523.00, 
1524.00, 
1525.00, 
1526.00, 
1527.00, 
1528.00, 
1529.00, 
1530.00, 
1531.00, 
1532.00, 
1533.00, 
1534.00, 
1535.00, 
1536.00, 
1537.00, 
1538.00, 
1539.00, 
1540.00, 
1541.00, 
1542.00, 
1543.00, 
1544.00, 
1545.00, 
1546.00, 
1547.00, 
1548.00, 
1549.00, 
1550.00, 
1551.00, 
1552.00, 
1553.00, 
1554.00, 
1555.00, 
1556.00, 
1557.00, 
1558.00, 
1559.00, 
1560.00, 
1561.00, 
1562.00, 
1563.00, 
1564.00, 
1565.00, 
1566.00, 
1567.00, 
1568.00, 
1569.00, 
1570.00, 
1571.00, 
1572.00, 
1573.00, 
1574.00, 
1575.00, 
1576.00, 
1577.00, 
1578.00, 
1579.00, 
1580.00, 
1581.00, 
1582.00, 
1583.00, 
1584.00, 
1585.00, 
1586.00, 
1587.00, 
1588.00, 
1589.00, 
1590.00, 
1591.00, 
1592.00, 
1593.00, 
1594.00, 
1595.00, 
1596.00, 
1597.00, 
1598.00, 
1599.00, 
1600.00, 
1601.00, 
1602.00, 
1603.00, 
1604.00, 
1605.00, 
1606.00, 
1607.00, 
1608.00, 
1609.00, 
1610.00, 
1611.00, 
1612.00, 
1613.00, 
1614.00, 
1615.00, 
1616.00, 
1617.00, 
1618.00, 
1619.00, 
1620.00, 
1621.00, 
1622.00, 
1623.00, 
1624.00, 
1625.00, 
1626.00, 
1627.00, 
1628.00, 
1629.00, 
1630.00, 
1631.00, 
1632.00, 
1633.00, 
1634.00, 
1635.00, 
1636.00, 
1637.00, 
1638.00, 
1639.00, 
1640.00, 
1641.00, 
1642.00, 
1643.00, 
1644.00, 
1645.00, 
1646.00, 
1647.00, 
1648.00, 
1649.00, 
1650.00, 
1651.00, 
1652.00, 
1653.00, 
1654.00, 
1655.00, 
1656.00, 
1657.00, 
1658.00, 
1659.00, 
1660.00, 
1661.00, 
1662.00, 
1663.00, 
1664.00, 
1665.00, 
1666.00, 
1667.00, 
1668.00, 
1669.00, 
1670.00, 
1671.00, 
1672.00, 
1673.00, 
1674.00, 
1675.00, 
1676.00, 
1677.00, 
1678.00, 
1679.00, 
1680.00, 
1681.00, 
1682.00, 
1683.00, 
1684.00, 
1685.00, 
1686.00, 
1687.00, 
1688.00, 
1689.00, 
1690.00, 
1691.00, 
1692.00, 
1693.00, 
1694.00, 
1695.00, 
1696.00, 
1697.00, 
1698.00, 
1699.00, 
1700.00, 
1701.00, 
1702.00, 
1703.00, 
1704.00, 
1705.00, 
1706.00, 
1707.00, 
1708.00, 
1709.00, 
1710.00, 
1711.00, 
1712.00, 
1713.00, 
1714.00, 
1715.00, 
1716.00, 
1717.00, 
1718.00, 
1719.00, 
1720.00, 
1721.00, 
1722.00, 
1723.00, 
1724.00, 
1725.00, 
1726.00, 
1727.00, 
1728.00, 
1729.00, 
1730.00, 
1731.00, 
1732.00, 
1733.00, 
1734.00, 
1735.00, 
1736.00, 
1737.00, 
1738.00, 
1739.00, 
1740.00, 
1741.00, 
1742.00, 
1743.00, 
1744.00, 
1745.00, 
1746.00, 
1747.00, 
1748.00, 
1749.00, 
1750.00, 
1751.00, 
1752.00, 
1753.00, 
1754.00, 
1755.00, 
1756.00, 
1757.00, 
1758.00, 
1759.00, 
1760.00, 
1761.00, 
1762.00, 
1763.00, 
1764.00, 
1765.00, 
1766.00, 
1767.00, 
1768.00, 
1769.00, 
1770.00, 
1771.00, 
1772.00, 
1773.00, 
1774.00, 
1775.00, 
1776.00, 
1777.00, 
1778.00, 
1779.00, 
1780.00, 
1781.00, 
1782.00, 
1783.00, 
1784.00, 
1785.00, 
1786.00, 
1787.00, 
1788.00, 
1789.00, 
1790.00, 
1791.00, 
1792.00, 
1793.00, 
1794.00, 
1795.00, 
1796.00, 
1797.00, 
1798.00, 
1799.00, 
1800.00, 
1801.00, 
1802.00, 
1803.00, 
1804.00, 
1805.00, 
1806.00, 
1807.00, 
1808.00, 
1809.00, 
1810.00, 
1811.00, 
1812.00, 
1813.00, 
1814.00, 
1815.00, 
1816.00, 
1817.00, 
1818.00, 
1819.00, 
1820.00, 
1821.00, 
1822.00, 
1823.00, 
1824.00, 
1825.00, 
1826.00, 
1827.00, 
1828.00, 
1829.00, 
1830.00, 
1831.00, 
1832.00, 
1833.00, 
1834.00, 
1835.00, 
1836.00, 
1837.00, 
1838.00, 
1839.00, 
1840.00, 
1841.00, 
1842.00, 
1843.00, 
1844.00, 
1845.00, 
1846.00, 
1847.00, 
1848.00, 
1849.00, 
1850.00, 
1851.00, 
1852.00, 
1853.00, 
1854.00, 
1855.00, 
1856.00, 
1857.00, 
1858.00, 
1859.00, 
1860.00, 
1861.00, 
1862.00, 
1863.00, 
1864.00, 
1865.00, 
1866.00, 
1867.00, 
1868.00, 
1869.00, 
1870.00, 
1871.00, 
1872.00, 
1873.00, 
1874.00, 
1875.00, 
1876.00, 
1877.00, 
1878.00, 
1879.00, 
1880.00, 
1881.00, 
1882.00, 
1883.00, 
1884.00, 
1885.00, 
1886.00, 
1887.00, 
1888.00, 
1889.00, 
1890.00, 
1891.00, 
1892.00, 
1893.00, 
1894.00, 
1895.00, 
1896.00, 
1897.00, 
1898.00, 
1899.00, 
1900.00, 
1901.00, 
1902.00, 
1903.00, 
1904.00, 
1905.00, 
1906.00, 
1907.00, 
1908.00, 
1909.00, 
1910.00, 
1911.00, 
1912.00, 
1913.00, 
1914.00, 
1915.00, 
1916.00, 
1917.00, 
1918.00, 
1919.00, 
1920.00, 
1921.00, 
1922.00, 
1923.00, 
1924.00, 
1925.00, 
1926.00, 
1927.00, 
1928.00, 
1929.00, 
1930.00, 
1931.00, 
1932.00, 
1933.00, 
1934.00, 
1935.00, 
1936.00, 
1937.00, 
1938.00, 
1939.00, 
1940.00, 
1941.00, 
1942.00, 
1943.00, 
1944.00, 
1945.00, 
1946.00, 
1947.00, 
1948.00, 
1949.00, 
1950.00, 
1951.00, 
1952.00, 
1953.00, 
1954.00, 
1955.00, 
1956.00, 
1957.00, 
1958.00, 
1959.00, 
1960.00, 
1961.00, 
1962.00, 
1963.00, 
1964.00, 
1965.00, 
1966.00, 
1967.00, 
1968.00, 
1969.00, 
1970.00, 
1971.00, 
1972.00, 
1973.00, 
1974.00, 
1975.00, 
1976.00, 
1977.00, 
1978.00, 
1979.00, 
1980.00, 
1981.00, 
1982.00, 
1983.00, 
1984.00, 
1985.00, 
1986.00, 
1987.00, 
1988.00, 
1989.00, 
1990.00, 
1991.00, 
1992.00, 
1993.00, 
1994.00, 
1995.00, 
1996.00, 
1997.00, 
1998.00, 
1999.00, 
2000.00, 
2001.00, 
2002.00, 
2003.00, 
2004.00, 
2005.00, 
2006.00, 
2007.00, 
2008.00, 
2009.00, 
2010.00, 
2011.00, 
2012.00, 
2013.00, 
2014.00, 
2015.00, 
2016.00, 
2017.00, 
2018.00, 
2019.00, 
2020.00, 
2021.00, 
2022.00, 
2023.00, 
2024.00, 
2025.00, 
2026.00, 
2027.00, 
2028.00, 
2029.00, 
2030.00, 
2031.00, 
2032.00, 
2033.00, 
2034.00, 
2035.00, 
2036.00, 
2037.00, 
2038.00, 
2039.00, 
2040.00, 
2041.00, 
2042.00, 
2043.00, 
2044.00, 
2045.00, 
2046.00, 
2047.00, 
2048.00, 
2049.00, 
2050.00, 
2051.00, 
2052.00, 
2053.00, 
2054.00, 
2055.00, 
2056.00, 
2057.00, 
2058.00, 
2059.00, 
2060.00, 
2061.00, 
2062.00, 
2063.00, 
2064.00, 
2065.00, 
2066.00, 
2067.00, 
2068.00, 
2069.00, 
2070.00, 
2071.00, 
2072.00, 
2073.00, 
2074.00, 
2075.00, 
2076.00, 
2077.00, 
2078.00, 
2079.00, 
2080.00, 
2081.00, 
2082.00, 
2083.00, 
2084.00, 
2085.00, 
2086.00, 
2087.00, 
2088.00, 
2089.00, 
2090.00, 
2091.00, 
2092.00, 
2093.00, 
2094.00, 
2095.00, 
2096.00, 
2097.00, 
2098.00, 
2099.00, 
2100.00, 
2101.00, 
2102.00, 
2103.00, 
2104.00, 
2105.00, 
2106.00, 
2107.00, 
2108.00, 
2109.00, 
2110.00, 
2111.00, 
2112.00, 
2113.00, 
2114.00, 
2115.00, 
2116.00, 
2117.00, 
2118.00, 
2119.00, 
2120.00, 
2121.00, 
2122.00, 
2123.00, 
2124.00, 
2125.00, 
2126.00, 
2127.00, 
2128.00, 
2129.00, 
2130.00, 
2131.00, 
2132.00, 
2133.00, 
2134.00, 
2135.00, 
2136.00, 
2137.00, 
2138.00, 
2139.00, 
2140.00, 
2141.00, 
2142.00, 
2143.00, 
2144.00, 
2145.00, 
2146.00, 
2147.00, 
2148.00, 
2149.00, 
2150.00, 
2151.00, 
2152.00, 
2153.00, 
2154.00, 
2155.00, 
2156.00, 
2157.00, 
2158.00, 
2159.00, 
2160.00, 
2161.00, 
2162.00, 
2163.00, 
2164.00, 
2165.00, 
2166.00, 
2167.00, 
2168.00, 
2169.00, 
2170.00, 
2171.00, 
2172.00, 
2173.00, 
2174.00, 
2175.00, 
2176.00, 
2177.00, 
2178.00, 
2179.00, 
2180.00, 
2181.00, 
2182.00, 
2183.00, 
2184.00, 
2185.00, 
2186.00, 
2187.00, 
2188.00, 
2189.00, 
2190.00, 
2191.00, 
2192.00, 
2193.00, 
2194.00, 
2195.00, 
2196.00, 
2197.00, 
2198.00, 
2199.00, 
2200.00, 
2201.00, 
2202.00, 
2203.00, 
2204.00, 
2205.00, 
2206.00, 
2207.00, 
2208.00, 
2209.00, 
2210.00, 
2211.00, 
2212.00, 
2213.00, 
2214.00, 
2215.00, 
2216.00, 
2217.00, 
2218.00, 
2219.00, 
2220.00, 
2221.00, 
2222.00, 
2223.00, 
2224.00, 
2225.00, 
2226.00, 
2227.00, 
2228.00, 
2229.00, 
2230.00, 
2231.00, 
2232.00, 
2233.00, 
2234.00, 
2235.00, 
2236.00, 
2237.00, 
2238.00, 
2239.00, 
2240.00, 
2241.00, 
2242.00, 
2243.00, 
2244.00, 
2245.00, 
2246.00, 
2247.00, 
2248.00, 
2249.00, 
2250.00, 
2251.00, 
2252.00, 
2253.00, 
2254.00, 
2255.00, 
2256.00, 
2257.00, 
2258.00, 
2259.00, 
2260.00, 
2261.00, 
2262.00, 
2263.00, 
2264.00, 
2265.00, 
2266.00, 
2267.00, 
2268.00, 
2269.00, 
2270.00, 
2271.00, 
2272.00, 
2273.00, 
2274.00, 
2275.00, 
2276.00, 
2277.00, 
2278.00, 
2279.00, 
2280.00, 
2281.00, 
2282.00, 
2283.00, 
2284.00, 
2285.00, 
2286.00, 
2287.00, 
2288.00, 
2289.00, 
2290.00, 
2291.00, 
2292.00, 
2293.00, 
2294.00, 
2295.00, 
2296.00, 
2297.00, 
2298.00, 
2299.00, 
2300.00, 
2301.00, 
2302.00, 
2303.00, 
2304.00, 
2305.00, 
2306.00, 
2307.00, 
2308.00, 
2309.00, 
2310.00, 
2311.00, 
2312.00, 
2313.00, 
2314.00, 
2315.00, 
2316.00, 
2317.00, 
2318.00, 
2319.00, 
2320.00, 
2321.00, 
2322.00, 
2323.00, 
2324.00, 
2325.00, 
2326.00, 
2327.00, 
2328.00, 
2329.00, 
2330.00, 
2331.00, 
2332.00, 
2333.00, 
2334.00, 
2335.00, 
2336.00, 
2337.00, 
2338.00, 
2339.00, 
2340.00, 
2341.00, 
2342.00, 
2343.00, 
2344.00, 
2345.00, 
2346.00, 
2347.00, 
2348.00, 
2349.00, 
2350.00, 
2351.00, 
2352.00, 
2353.00, 
2354.00, 
2355.00, 
2356.00, 
2357.00, 
2358.00, 
2359.00, 
2360.00, 
2361.00, 
2362.00, 
2363.00, 
2364.00, 
2365.00, 
2366.00, 
2367.00, 
2368.00, 
2369.00, 
2370.00, 
2371.00, 
2372.00, 
2373.00, 
2374.00, 
2375.00, 
2376.00, 
2377.00, 
2378.00, 
2379.00, 
2380.00, 
2381.00, 
2382.00, 
2383.00, 
2384.00, 
2385.00, 
2386.00, 
2387.00, 
2388.00, 
2389.00, 
2390.00, 
2391.00, 
2392.00, 
2393.00, 
2394.00, 
2395.00, 
2396.00, 
2397.00, 
2398.00, 
2399.00, 
2400.00, 
2401.00, 
2402.00, 
2403.00, 
2404.00, 
2405.00, 
2406.00, 
2407.00, 
2408.00, 
2409.00, 
2410.00, 
2411.00, 
2412.00, 
2413.00, 
2414.00, 
2415.00, 
2416.00, 
2417.00, 
2418.00, 
2419.00, 
2420.00, 
2421.00, 
2422.00, 
2423.00, 
2424.00, 
2425.00, 
2426.00, 
2427.00, 
2428.00, 
2429.00, 
2430.00, 
2431.00, 
2432.00, 
2433.00, 
2434.00, 
2435.00, 
2436.00, 
2437.00, 
2438.00, 
2439.00, 
2440.00, 
2441.00, 
2442.00, 
2443.00, 
2444.00, 
2445.00, 
2446.00, 
2447.00, 
2448.00, 
2449.00, 
2450.00, 
2451.00, 
2452.00, 
2453.00, 
2454.00, 
2455.00, 
2456.00, 
2457.00, 
2458.00, 
2459.00, 
2460.00, 
2461.00, 
2462.00, 
2463.00, 
2464.00, 
2465.00, 
2466.00, 
2467.00, 
2468.00, 
2469.00, 
2470.00, 
2471.00, 
2472.00, 
2473.00, 
2474.00, 
2475.00, 
2476.00, 
2477.00, 
2478.00, 
2479.00, 
2480.00, 
2481.00, 
2482.00, 
2483.00, 
2484.00, 
2485.00, 
2486.00, 
2487.00, 
2488.00, 
2489.00, 
2490.00, 
2491.00, 
2492.00, 
2493.00, 
2494.00, 
2495.00, 
2496.00, 
2497.00, 
2498.00, 
2499.00, 
2500.00, 
2501.00, 
2502.00, 
2503.00, 
2504.00, 
2505.00, 
2506.00, 
2507.00, 
2508.00, 
2509.00, 
2510.00, 
2511.00, 
2512.00, 
2513.00, 
2514.00, 
2515.00, 
2516.00, 
2517.00, 
2518.00, 
2519.00, 
2520.00, 
2521.00, 
2522.00, 
2523.00, 
2524.00, 
2525.00, 
2526.00, 
2527.00, 
2528.00, 
2529.00, 
2530.00, 
2531.00, 
2532.00, 
2533.00, 
2534.00, 
2535.00, 
2536.00, 
2537.00, 
2538.00, 
2539.00, 
2540.00, 
2541.00, 
2542.00, 
2543.00, 
2544.00, 
2545.00, 
2546.00, 
2547.00, 
2548.00, 
2549.00, 
2550.00, 
2551.00, 
2552.00, 
2553.00, 
2554.00, 
2555.00, 
2556.00, 
2557.00, 
2558.00, 
2559.00, 
2560.00, 
2561.00, 
2562.00, 
2563.00, 
2564.00, 
2565.00, 
2566.00, 
2567.00, 
2568.00, 
2569.00, 
2570.00, 
2571.00, 
2572.00, 
2573.00, 
2574.00, 
2575.00, 
2576.00, 
2577.00, 
2578.00, 
2579.00, 
2580.00, 
2581.00, 
2582.00, 
2583.00, 
2584.00, 
2585.00, 
2586.00, 
2587.00, 
2588.00, 
2589.00, 
2590.00, 
2591.00, 
2592.00, 
2593.00, 
2594.00, 
2595.00, 
2596.00, 
2597.00, 
2598.00, 
2599.00, 
2600.00, 
