"1cP3 - RawData"
"Wavelength nm.","T%"
200.00,-0.003
201.00,0.001
202.00,0.002
203.00,-0.002
204.00,0.000
205.00,0.001
206.00,0.001
207.00,0.001
208.00,0.000
209.00,-0.001
210.00,0.002
211.00,0.001
212.00,0.001
213.00,0.000
214.00,-0.002
215.00,0.002
216.00,-0.000
217.00,0.001
218.00,0.000
219.00,0.000
220.00,0.000
221.00,0.004
222.00,0.001
223.00,-0.001
224.00,0.001
225.00,-0.000
226.00,0.000
227.00,0.000
228.00,0.002
229.00,-0.000
230.00,-0.000
231.00,0.003
232.00,0.002
233.00,0.001
234.00,0.002
235.00,-0.001
236.00,-0.001
237.00,0.003
238.00,0.000
239.00,0.003
240.00,-0.000
241.00,0.002
242.00,0.001
243.00,-0.001
244.00,-0.000
245.00,0.001
246.00,0.001
247.00,0.001
248.00,-0.000
249.00,0.000
250.00,-0.001
251.00,0.001
252.00,0.000
253.00,-0.000
254.00,-0.001
255.00,0.001
256.00,-0.000
257.00,0.001
258.00,-0.000
259.00,0.001
260.00,-0.000
261.00,-0.001
262.00,0.000
263.00,-0.001
264.00,-0.000
265.00,0.001
266.00,0.002
267.00,-0.000
268.00,-0.001
269.00,0.001
270.00,0.001
271.00,0.001
272.00,-0.001
273.00,0.001
274.00,-0.000
275.00,0.001
276.00,0.001
277.00,0.001
278.00,-0.001
279.00,0.001
280.00,-0.000
281.00,0.001
282.00,0.001
283.00,-0.001
284.00,-0.000
285.00,-0.000
286.00,0.001
287.00,-0.001
288.00,-0.001
289.00,-0.000
290.00,-0.000
291.00,-0.001
292.00,0.003
293.00,-0.001
294.00,-0.000
295.00,-0.002
296.00,0.000
297.00,-0.001
298.00,-0.000
299.00,-0.000
300.00,-0.000
301.00,0.001
302.00,0.000
303.00,0.002
304.00,0.000
305.00,-0.001
306.00,0.001
307.00,0.003
308.00,0.008
309.00,0.011
310.00,0.018
311.00,0.028
312.00,0.045
313.00,0.069
314.00,0.102
315.00,0.151
316.00,0.208
317.00,0.305
318.00,0.414
319.00,0.561
320.00,0.743
321.00,0.967
322.00,1.241
323.00,1.561
324.00,1.944
325.00,2.340
326.00,2.772
327.00,3.300
328.00,3.857
329.00,4.440
330.00,5.093
331.00,5.764
332.00,6.488
333.00,7.269
334.00,8.022
335.00,8.807
336.00,9.590
337.00,10.439
338.00,11.230
339.00,11.995
340.00,12.801
341.00,13.639
342.00,14.420
343.00,15.071
344.00,15.746
345.00,16.493
346.00,17.137
347.00,17.713
348.00,18.301
349.00,18.833
350.00,19.374
351.00,19.863
352.00,20.361
353.00,20.774
354.00,21.210
355.00,21.611
356.00,21.984
357.00,22.293
358.00,22.654
359.00,23.023
360.00,23.315
361.00,23.448
362.00,23.715
363.00,23.924
364.00,24.071
365.00,24.233
366.00,24.375
367.00,24.495
368.00,24.588
369.00,24.686
370.00,24.765
371.00,24.829
372.00,24.822
373.00,24.798
374.00,24.836
375.00,24.810
376.00,24.676
377.00,24.629
378.00,24.517
379.00,24.421
380.00,24.453
381.00,24.422
382.00,24.464
383.00,24.475
384.00,24.519
385.00,24.651
386.00,24.679
387.00,24.801
388.00,24.896
389.00,24.932
390.00,25.025
391.00,25.026
392.00,25.138
393.00,25.105
394.00,25.188
395.00,25.237
396.00,25.237
397.00,25.248
398.00,25.258
399.00,25.298
400.00,25.299
401.00,25.298
402.00,25.307
403.00,25.328
404.00,25.277
405.00,25.260
406.00,25.293
407.00,25.230
408.00,25.240
409.00,25.158
410.00,25.127
411.00,25.079
412.00,25.021
413.00,25.038
414.00,24.982
415.00,25.008
416.00,25.055
417.00,25.049
418.00,25.099
419.00,25.174
420.00,25.229
421.00,25.195
422.00,25.182
423.00,25.245
424.00,25.240
425.00,25.291
426.00,25.301
427.00,25.358
428.00,25.415
429.00,25.377
430.00,25.460
431.00,25.480
432.00,25.511
433.00,25.583
434.00,25.640
435.00,25.693
436.00,25.758
437.00,25.807
438.00,25.852
439.00,25.931
440.00,25.971
441.00,26.019
442.00,26.103
443.00,26.184
444.00,26.306
445.00,26.331
446.00,26.423
447.00,26.509
448.00,26.601
449.00,26.684
450.00,26.794
451.00,26.867
452.00,26.911
453.00,27.074
454.00,27.182
455.00,27.263
456.00,27.363
457.00,27.497
458.00,27.585
459.00,27.714
460.00,27.837
461.00,27.935
462.00,28.048
463.00,28.252
464.00,28.290
465.00,28.438
466.00,28.574
467.00,28.669
468.00,28.762
469.00,28.876
470.00,28.918
471.00,29.013
472.00,29.164
473.00,29.206
474.00,29.332
475.00,29.451
476.00,29.528
477.00,29.649
478.00,29.749
479.00,29.938
480.00,30.073
481.00,30.145
482.00,30.337
483.00,30.467
484.00,30.591
485.00,30.752
486.00,30.899
487.00,31.042
488.00,31.130
489.00,31.278
490.00,31.455
491.00,31.596
492.00,31.724
493.00,31.922
494.00,32.089
495.00,32.072
496.00,32.149
497.00,32.177
498.00,32.408
499.00,32.540
500.00,32.661
501.00,32.733
502.00,32.888
503.00,32.990
504.00,33.065
505.00,33.220
506.00,33.347
507.00,33.358
508.00,33.504
509.00,33.726
510.00,33.783
511.00,33.868
512.00,34.040
513.00,34.141
514.00,34.229
515.00,34.409
516.00,34.511
517.00,34.575
518.00,34.730
519.00,34.772
520.00,34.780
521.00,34.895
522.00,35.059
523.00,35.104
524.00,35.206
525.00,35.391
526.00,35.486
527.00,35.571
528.00,35.669
529.00,35.880
530.00,36.041
531.00,36.059
532.00,36.106
533.00,36.206
534.00,36.342
535.00,36.346
536.00,36.394
537.00,36.550
538.00,36.549
539.00,36.686
540.00,36.771
541.00,36.793
542.00,36.878
543.00,36.943
544.00,37.029
545.00,37.042
546.00,37.096
547.00,37.240
548.00,37.360
549.00,37.374
550.00,37.451
551.00,37.577
552.00,37.664
553.00,37.693
554.00,37.802
555.00,37.836
556.00,37.879
557.00,37.967
558.00,38.059
559.00,38.082
560.00,38.182
561.00,38.265
562.00,38.287
563.00,38.353
564.00,38.443
565.00,38.466
566.00,38.500
567.00,38.579
568.00,38.615
569.00,38.652
570.00,38.716
571.00,38.748
572.00,38.759
573.00,38.764
574.00,38.808
575.00,38.827
576.00,38.831
577.00,38.903
578.00,39.044
579.00,39.078
580.00,39.122
581.00,39.291
582.00,39.343
583.00,39.308
584.00,39.396
585.00,39.496
586.00,39.535
587.00,39.604
588.00,39.680
589.00,39.580
590.00,39.629
591.00,39.683
592.00,39.617
593.00,39.756
594.00,39.836
595.00,39.954
596.00,40.013
597.00,40.135
598.00,40.080
599.00,40.118
600.00,40.219
601.00,40.219
602.00,40.260
603.00,40.287
604.00,40.306
605.00,40.449
606.00,40.407
607.00,40.466
608.00,40.688
609.00,40.707
610.00,40.489
611.00,40.606
612.00,40.602
613.00,40.647
614.00,40.771
615.00,40.832
616.00,40.859
617.00,40.782
618.00,40.868
619.00,41.002
620.00,41.011
621.00,41.095
622.00,41.094
623.00,41.192
624.00,41.291
625.00,41.339
626.00,41.370
627.00,41.432
628.00,41.453
629.00,41.432
630.00,41.521
631.00,41.530
632.00,41.606
633.00,41.736
634.00,41.799
635.00,41.860
636.00,41.922
637.00,41.974
638.00,42.011
639.00,42.158
640.00,42.172
641.00,42.174
642.00,42.297
643.00,42.299
644.00,42.373
645.00,42.474
646.00,42.636
647.00,42.706
648.00,42.784
649.00,42.815
650.00,42.714
651.00,42.900
652.00,42.902
653.00,42.965
654.00,43.075
655.00,43.227
656.00,43.496
657.00,43.200
658.00,43.403
659.00,43.581
660.00,43.738
661.00,43.487
662.00,43.572
663.00,43.743
664.00,44.067
665.00,44.111
666.00,43.998
667.00,44.164
668.00,44.211
669.00,44.368
670.00,44.521
671.00,44.305
672.00,44.426
673.00,44.542
674.00,44.619
675.00,44.708
676.00,44.925
677.00,45.034
678.00,44.647
679.00,44.909
680.00,45.052
681.00,45.165
682.00,45.117
683.00,45.094
684.00,45.405
685.00,45.420
686.00,45.119
687.00,45.412
688.00,45.606
689.00,45.470
690.00,45.884
691.00,46.003
692.00,45.627
693.00,45.692
694.00,45.809
695.00,46.008
696.00,46.050
697.00,45.995
698.00,46.109
699.00,46.370
700.00,46.216
701.00,46.325
702.00,46.472
703.00,46.565
704.00,46.674
705.00,46.602
706.00,46.710
707.00,46.759
708.00,46.690
709.00,47.128
710.00,47.456
711.00,46.900
712.00,46.914
713.00,47.110
714.00,47.144
715.00,47.175
716.00,47.027
717.00,47.319
718.00,47.355
719.00,47.287
720.00,47.405
721.00,52.204
722.00,52.121
723.00,52.188
724.00,52.074
725.00,52.138
726.00,52.189
727.00,52.252
728.00,52.176
729.00,52.205
730.00,52.294
731.00,52.240
732.00,52.251
733.00,52.299
734.00,52.332
735.00,52.359
736.00,52.278
737.00,52.312
738.00,52.326
739.00,52.393
740.00,52.418
741.00,52.425
742.00,52.461
743.00,52.386
744.00,52.369
745.00,52.508
746.00,52.495
747.00,52.447
748.00,52.435
749.00,52.408
750.00,52.343
751.00,52.358
752.00,52.392
753.00,52.386
754.00,52.413
755.00,52.345
756.00,52.342
757.00,52.382
758.00,52.332
759.00,52.346
760.00,52.299
761.00,52.358
762.00,52.391
763.00,52.434
764.00,52.350
765.00,52.367
766.00,52.418
767.00,52.403
768.00,52.429
769.00,52.387
770.00,52.447
771.00,52.380
772.00,52.470
773.00,52.401
774.00,52.466
775.00,52.439
776.00,52.337
777.00,52.424
778.00,52.362
779.00,52.478
780.00,52.326
781.00,52.394
782.00,52.341
783.00,52.303
784.00,52.368
785.00,52.272
786.00,52.427
787.00,52.264
788.00,52.239
789.00,52.329
790.00,52.207
791.00,52.352
792.00,52.270
793.00,52.159
794.00,52.190
795.00,52.184
796.00,52.266
797.00,52.127
798.00,52.190
799.00,52.080
800.00,52.117
801.00,52.088
802.00,52.059
803.00,52.084
804.00,51.918
805.00,52.088
806.00,51.921
807.00,51.935
808.00,51.941
809.00,51.948
810.00,51.936
811.00,51.888
812.00,51.956
813.00,51.806
814.00,51.868
815.00,51.859
816.00,51.798
817.00,51.749
818.00,51.656
819.00,51.736
820.00,51.695
821.00,51.700
822.00,51.644
823.00,51.646
824.00,51.699
825.00,51.705
826.00,51.548
827.00,51.661
828.00,51.612
829.00,51.615
830.00,51.560
831.00,53.978
832.00,54.043
833.00,53.897
834.00,53.936
835.00,53.877
836.00,53.869
837.00,53.835
838.00,53.808
839.00,53.817
840.00,53.739
841.00,53.775
842.00,53.738
843.00,53.741
844.00,53.696
845.00,53.629
846.00,53.686
847.00,53.613
848.00,53.623
849.00,53.524
850.00,53.507
851.00,53.416
852.00,53.473
853.00,53.412
854.00,53.382
855.00,53.350
856.00,53.376
857.00,53.311
858.00,53.288
859.00,53.265
860.00,53.270
861.00,53.238
862.00,53.210
863.00,53.176
864.00,53.187
865.00,53.197
866.00,53.191
867.00,53.139
868.00,53.105
869.00,53.111
870.00,53.111
871.00,53.106
872.00,53.067
873.00,53.068
874.00,53.058
875.00,53.026
876.00,53.038
877.00,53.048
878.00,53.058
879.00,53.008
880.00,52.986
881.00,52.927
882.00,52.990
883.00,52.923
884.00,52.897
885.00,52.885
886.00,52.880
887.00,52.821
888.00,52.794
889.00,52.815
890.00,52.778
891.00,52.779
892.00,52.715
893.00,52.708
894.00,52.717
895.00,52.680
896.00,52.642
897.00,52.649
898.00,52.611
899.00,52.610
900.00,52.605
901.00,52.583
902.00,52.538
903.00,52.586
904.00,52.568
905.00,52.511
906.00,52.489
907.00,52.453
908.00,52.432
909.00,52.426
910.00,52.380
911.00,52.393
912.00,52.348
913.00,52.381
914.00,52.316
915.00,52.292
916.00,52.274
917.00,52.250
918.00,52.238
919.00,52.142
920.00,52.184
921.00,52.167
922.00,52.151
923.00,52.098
924.00,52.105
925.00,52.094
926.00,52.046
927.00,52.033
928.00,52.077
929.00,52.033
930.00,51.983
931.00,51.970
932.00,51.949
933.00,51.955
934.00,51.939
935.00,51.892
936.00,51.852
937.00,51.849
938.00,51.858
939.00,51.819
940.00,51.795
941.00,51.797
942.00,51.761
943.00,51.741
944.00,51.708
945.00,51.703
946.00,51.745
947.00,51.732
948.00,51.653
949.00,51.626
950.00,51.592
951.00,51.572
952.00,51.548
953.00,51.534
954.00,51.495
955.00,51.458
956.00,51.444
957.00,51.408
958.00,51.420
959.00,51.409
960.00,51.360
961.00,51.355
962.00,51.356
963.00,51.304
964.00,51.305
965.00,51.313
966.00,51.281
967.00,51.289
968.00,51.257
969.00,51.270
970.00,51.244
971.00,51.253
972.00,51.231
973.00,51.275
974.00,51.335
975.00,51.240
976.00,51.249
977.00,51.229
978.00,51.277
979.00,51.230
980.00,51.238
981.00,51.243
982.00,51.206
983.00,51.246
984.00,51.218
985.00,51.222
986.00,51.201
987.00,51.189
988.00,51.131
989.00,51.151
990.00,51.141
991.00,51.139
992.00,51.152
993.00,51.110
994.00,51.090
995.00,51.071
996.00,51.069
997.00,51.056
998.00,51.041
999.00,51.051
1000.00,51.008
1001.00,50.989
1002.00,50.992
1003.00,50.977
1004.00,50.949
1005.00,50.931
1006.00,50.980
1007.00,50.928
1008.00,50.911
1009.00,50.887
1010.00,50.895
1011.00,50.888
1012.00,50.850
1013.00,50.854
1014.00,50.834
1015.00,50.835
1016.00,50.800
1017.00,50.799
1018.00,50.781
1019.00,50.759
1020.00,50.759
1021.00,50.728
1022.00,50.721
1023.00,50.674
1024.00,50.684
1025.00,50.661
1026.00,50.649
1027.00,50.629
1028.00,50.646
1029.00,50.613
1030.00,50.586
1031.00,50.600
1032.00,50.559
1033.00,50.558
1034.00,50.514
1035.00,50.503
1036.00,50.485
1037.00,50.459
1038.00,50.454
1039.00,50.420
1040.00,50.422
1041.00,50.378
1042.00,50.380
1043.00,50.338
1044.00,50.378
1045.00,50.349
1046.00,50.339
1047.00,50.373
1048.00,50.388
1049.00,50.408
1050.00,50.407
1051.00,50.426
1052.00,50.412
1053.00,50.405
1054.00,50.409
1055.00,50.434
1056.00,50.442
1057.00,50.442
1058.00,50.439
1059.00,50.444
1060.00,50.453
1061.00,50.440
1062.00,50.427
1063.00,50.429
1064.00,50.417
1065.00,50.394
1066.00,50.409
1067.00,50.381
1068.00,50.402
1069.00,50.362
1070.00,50.340
1071.00,50.332
1072.00,50.375
1073.00,50.342
1074.00,50.339
1075.00,50.340
1076.00,50.325
1077.00,50.307
1078.00,50.273
1079.00,50.295
1080.00,50.314
1081.00,50.294
1082.00,50.276
1083.00,50.283
1084.00,50.262
1085.00,50.265
1086.00,50.248
1087.00,50.250
1088.00,50.236
1089.00,50.237
1090.00,50.225
1091.00,50.234
1092.00,50.212
1093.00,50.200
1094.00,50.185
1095.00,50.156
1096.00,50.158
1097.00,50.148
1098.00,50.123
1099.00,50.140
1100.00,50.118
1101.00,50.120
1102.00,50.118
1103.00,50.126
1104.00,50.116
1105.00,50.107
1106.00,50.079
1107.00,50.076
1108.00,50.077
1109.00,50.062
1110.00,50.060
1111.00,50.045
1112.00,50.031
1113.00,50.032
1114.00,50.015
1115.00,50.032
1116.00,50.025
1117.00,50.005
1118.00,49.994
1119.00,49.994
1120.00,49.986
1121.00,49.977
1122.00,49.952
1123.00,49.940
1124.00,49.946
1125.00,49.927
1126.00,49.917
1127.00,49.936
1128.00,49.903
1129.00,49.900
1130.00,49.890
1131.00,49.893
1132.00,49.880
1133.00,49.865
1134.00,49.878
1135.00,49.871
1136.00,49.875
1137.00,49.896
1138.00,49.876
1139.00,49.866
1140.00,49.856
1141.00,49.866
1142.00,49.837
1143.00,49.874
1144.00,49.837
1145.00,49.840
1146.00,49.838
1147.00,49.830
1148.00,49.829
1149.00,49.847
1150.00,49.844
1151.00,49.841
1152.00,49.821
1153.00,49.822
1154.00,49.814
1155.00,49.820
1156.00,49.814
1157.00,49.836
1158.00,49.808
1159.00,49.807
1160.00,49.802
1161.00,49.806
1162.00,49.805
1163.00,49.792
1164.00,49.797
1165.00,49.800
1166.00,49.800
1167.00,49.790
1168.00,49.811
1169.00,49.798
1170.00,49.802
1171.00,49.789
1172.00,49.790
1173.00,49.792
1174.00,49.801
1175.00,49.785
1176.00,49.804
1177.00,49.780
1178.00,49.788
1179.00,49.796
1180.00,49.775
1181.00,49.788
1182.00,49.776
1183.00,49.771
1184.00,49.753
1185.00,49.787
1186.00,49.767
1187.00,49.797
1188.00,49.801
1189.00,49.761
1190.00,49.771
1191.00,49.750
1192.00,49.776
1193.00,49.770
1194.00,49.768
1195.00,49.760
1196.00,49.802
1197.00,49.791
1198.00,49.778
1199.00,49.773
1200.00,49.784
1201.00,49.804
1202.00,49.776
1203.00,49.774
1204.00,49.771
1205.00,49.792
1206.00,49.782
1207.00,49.785
1208.00,49.762
1209.00,49.790
1210.00,49.778
1211.00,49.771
1212.00,49.794
1213.00,49.742
1214.00,49.778
1215.00,49.757
1216.00,49.764
1217.00,49.776
1218.00,49.756
1219.00,49.777
1220.00,49.771
1221.00,49.778
1222.00,49.765
1223.00,49.801
1224.00,49.779
1225.00,49.772
1226.00,49.787
1227.00,49.770
1228.00,49.783
1229.00,49.774
1230.00,49.823
1231.00,49.812
1232.00,49.823
1233.00,49.828
1234.00,49.835
1235.00,49.818
1236.00,49.817
1237.00,49.838
1238.00,49.806
1239.00,49.819
1240.00,49.816
1241.00,49.851
1242.00,49.858
1243.00,49.851
1244.00,49.843
1245.00,49.874
1246.00,49.868
1247.00,49.857
1248.00,49.874
1249.00,49.873
1250.00,49.883
1251.00,49.864
1252.00,49.883
1253.00,49.881
1254.00,49.899
1255.00,49.880
1256.00,49.909
1257.00,49.909
1258.00,49.920
1259.00,49.911
1260.00,49.933
1261.00,49.933
1262.00,49.916
1263.00,49.922
1264.00,49.941
1265.00,49.929
1266.00,49.941
1267.00,49.954
1268.00,49.961
1269.00,49.968
1270.00,49.976
1271.00,49.974
1272.00,49.984
1273.00,49.993
1274.00,49.992
1275.00,50.018
1276.00,49.992
1277.00,50.006
1278.00,50.020
1279.00,50.019
1280.00,50.005
1281.00,50.045
1282.00,50.058
1283.00,50.034
1284.00,50.052
1285.00,50.046
1286.00,50.087
1287.00,50.066
1288.00,50.078
1289.00,50.079
1290.00,50.105
1291.00,50.085
1292.00,50.095
1293.00,50.085
1294.00,50.122
1295.00,50.118
1296.00,50.109
1297.00,50.130
1298.00,50.157
1299.00,50.135
1300.00,50.162
1301.00,50.151
1302.00,50.188
1303.00,50.191
1304.00,50.173
1305.00,50.214
1306.00,50.215
1307.00,50.223
1308.00,50.207
1309.00,50.218
1310.00,50.233
1311.00,50.220
1312.00,50.223
1313.00,50.239
1314.00,50.265
1315.00,50.265
1316.00,50.252
1317.00,50.305
1318.00,50.303
1319.00,50.334
1320.00,50.333
1321.00,50.496
1322.00,50.499
1323.00,50.473
1324.00,50.470
1325.00,50.461
1326.00,50.483
1327.00,50.463
1328.00,50.478
1329.00,50.463
1330.00,50.489
1331.00,50.494
1332.00,50.505
1333.00,50.489
1334.00,50.569
1335.00,50.554
1336.00,50.583
1337.00,50.602
1338.00,50.686
1339.00,50.717
1340.00,50.762
1341.00,50.820
1342.00,50.881
1343.00,50.942
1344.00,50.999
1345.00,51.053
1346.00,51.125
1347.00,51.204
1348.00,51.147
1349.00,51.174
1350.00,51.212
1351.00,51.211
1352.00,51.248
1353.00,51.204
1354.00,51.226
1355.00,51.205
1356.00,51.221
1357.00,51.229
1358.00,51.288
1359.00,51.254
1360.00,51.261
1361.00,51.121
1362.00,51.211
1363.00,51.276
1364.00,51.233
1365.00,51.287
1366.00,51.359
1367.00,51.310
1368.00,51.299
1369.00,51.289
1370.00,51.282
1371.00,51.297
1372.00,51.281
1373.00,51.292
1374.00,51.325
1375.00,51.283
1376.00,51.299
1377.00,51.276
1378.00,51.387
1379.00,51.275
1380.00,51.341
1381.00,51.318
1382.00,51.263
1383.00,51.310
1384.00,51.238
1385.00,51.265
1386.00,51.340
1387.00,51.226
1388.00,51.263
1389.00,51.304
1390.00,51.242
1391.00,51.274
1392.00,51.286
1393.00,51.332
1394.00,51.300
1395.00,51.242
1396.00,51.246
1397.00,51.357
1398.00,51.301
1399.00,51.270
1400.00,51.258
1401.00,51.265
1402.00,51.382
1403.00,51.314
1404.00,51.324
1405.00,51.337
1406.00,51.383
1407.00,51.340
1408.00,51.318
1409.00,51.401
1410.00,51.403
1411.00,51.355
1412.00,51.441
1413.00,51.400
1414.00,51.400
1415.00,51.441
1416.00,51.467
1417.00,51.492
1418.00,51.465
1419.00,51.479
1420.00,51.485
1421.00,51.595
1422.00,51.564
1423.00,51.583
1424.00,51.575
1425.00,51.603
1426.00,51.596
1427.00,51.628
1428.00,51.611
1429.00,51.627
1430.00,51.632
1431.00,51.666
1432.00,51.699
1433.00,51.714
1434.00,51.693
1435.00,51.769
1436.00,51.776
1437.00,51.770
1438.00,51.794
1439.00,51.832
1440.00,51.843
1441.00,51.838
1442.00,51.867
1443.00,51.887
1444.00,51.944
1445.00,51.896
1446.00,51.916
1447.00,51.962
1448.00,51.999
1449.00,52.020
1450.00,52.007
1451.00,52.037
1452.00,52.080
1453.00,52.060
1454.00,52.089
1455.00,52.108
1456.00,52.143
1457.00,52.129
1458.00,52.172
1459.00,52.171
1460.00,52.202
1461.00,52.190
1462.00,52.235
1463.00,52.232
1464.00,52.244
1465.00,52.281
1466.00,52.270
1467.00,52.315
1468.00,52.379
1469.00,52.324
1470.00,52.351
1471.00,52.381
1472.00,52.388
1473.00,52.401
1474.00,52.424
1475.00,52.444
1476.00,52.458
1477.00,52.448
1478.00,52.490
1479.00,52.517
1480.00,52.514
1481.00,52.536
1482.00,52.592
1483.00,52.584
1484.00,52.599
1485.00,52.602
1486.00,52.603
1487.00,52.641
1488.00,52.649
1489.00,52.641
1490.00,52.658
1491.00,52.671
1492.00,52.704
1493.00,52.685
1494.00,52.735
1495.00,52.724
1496.00,52.750
1497.00,52.739
1498.00,52.768
1499.00,52.785
1500.00,52.813
1501.00, 
1502.00, 
1503.00, 
1504.00, 
1505.00, 
1506.00, 
1507.00, 
1508.00, 
1509.00, 
1510.00, 
1511.00, 
1512.00, 
1513.00, 
1514.00, 
1515.00, 
1516.00, 
1517.00, 
1518.00, 
1519.00, 
1520.00, 
1521.00, 
1522.00, 
1523.00, 
1524.00, 
1525.00, 
1526.00, 
1527.00, 
1528.00, 
1529.00, 
1530.00, 
1531.00, 
1532.00, 
1533.00, 
1534.00, 
1535.00, 
1536.00, 
1537.00, 
1538.00, 
1539.00, 
1540.00, 
1541.00, 
1542.00, 
1543.00, 
1544.00, 
1545.00, 
1546.00, 
1547.00, 
1548.00, 
1549.00, 
1550.00, 
1551.00, 
1552.00, 
1553.00, 
1554.00, 
1555.00, 
1556.00, 
1557.00, 
1558.00, 
1559.00, 
1560.00, 
1561.00, 
1562.00, 
1563.00, 
1564.00, 
1565.00, 
1566.00, 
1567.00, 
1568.00, 
1569.00, 
1570.00, 
1571.00, 
1572.00, 
1573.00, 
1574.00, 
1575.00, 
1576.00, 
1577.00, 
1578.00, 
1579.00, 
1580.00, 
1581.00, 
1582.00, 
1583.00, 
1584.00, 
1585.00, 
1586.00, 
1587.00, 
1588.00, 
1589.00, 
1590.00, 
1591.00, 
1592.00, 
1593.00, 
1594.00, 
1595.00, 
1596.00, 
1597.00, 
1598.00, 
1599.00, 
1600.00, 
1601.00, 
1602.00, 
1603.00, 
1604.00, 
1605.00, 
1606.00, 
1607.00, 
1608.00, 
1609.00, 
1610.00, 
1611.00, 
1612.00, 
1613.00, 
1614.00, 
1615.00, 
1616.00, 
1617.00, 
1618.00, 
1619.00, 
1620.00, 
1621.00, 
1622.00, 
1623.00, 
1624.00, 
1625.00, 
1626.00, 
1627.00, 
1628.00, 
1629.00, 
1630.00, 
1631.00, 
1632.00, 
1633.00, 
1634.00, 
1635.00, 
1636.00, 
1637.00, 
1638.00, 
1639.00, 
1640.00, 
1641.00, 
1642.00, 
1643.00, 
1644.00, 
1645.00, 
1646.00, 
1647.00, 
1648.00, 
1649.00, 
1650.00, 
1651.00, 
1652.00, 
1653.00, 
1654.00, 
1655.00, 
1656.00, 
1657.00, 
1658.00, 
1659.00, 
1660.00, 
1661.00, 
1662.00, 
1663.00, 
1664.00, 
1665.00, 
1666.00, 
1667.00, 
1668.00, 
1669.00, 
1670.00, 
1671.00, 
1672.00, 
1673.00, 
1674.00, 
1675.00, 
1676.00, 
1677.00, 
1678.00, 
1679.00, 
1680.00, 
1681.00, 
1682.00, 
1683.00, 
1684.00, 
1685.00, 
1686.00, 
1687.00, 
1688.00, 
1689.00, 
1690.00, 
1691.00, 
1692.00, 
1693.00, 
1694.00, 
1695.00, 
1696.00, 
1697.00, 
1698.00, 
1699.00, 
1700.00, 
1701.00, 
1702.00, 
1703.00, 
1704.00, 
1705.00, 
1706.00, 
1707.00, 
1708.00, 
1709.00, 
1710.00, 
1711.00, 
1712.00, 
1713.00, 
1714.00, 
1715.00, 
1716.00, 
1717.00, 
1718.00, 
1719.00, 
1720.00, 
1721.00, 
1722.00, 
1723.00, 
1724.00, 
1725.00, 
1726.00, 
1727.00, 
1728.00, 
1729.00, 
1730.00, 
1731.00, 
1732.00, 
1733.00, 
1734.00, 
1735.00, 
1736.00, 
1737.00, 
1738.00, 
1739.00, 
1740.00, 
1741.00, 
1742.00, 
1743.00, 
1744.00, 
1745.00, 
1746.00, 
1747.00, 
1748.00, 
1749.00, 
1750.00, 
1751.00, 
1752.00, 
1753.00, 
1754.00, 
1755.00, 
1756.00, 
1757.00, 
1758.00, 
1759.00, 
1760.00, 
1761.00, 
1762.00, 
1763.00, 
1764.00, 
1765.00, 
1766.00, 
1767.00, 
1768.00, 
1769.00, 
1770.00, 
1771.00, 
1772.00, 
1773.00, 
1774.00, 
1775.00, 
1776.00, 
1777.00, 
1778.00, 
1779.00, 
1780.00, 
1781.00, 
1782.00, 
1783.00, 
1784.00, 
1785.00, 
1786.00, 
1787.00, 
1788.00, 
1789.00, 
1790.00, 
1791.00, 
1792.00, 
1793.00, 
1794.00, 
1795.00, 
1796.00, 
1797.00, 
1798.00, 
1799.00, 
1800.00, 
1801.00, 
1802.00, 
1803.00, 
1804.00, 
1805.00, 
1806.00, 
1807.00, 
1808.00, 
1809.00, 
1810.00, 
1811.00, 
1812.00, 
1813.00, 
1814.00, 
1815.00, 
1816.00, 
1817.00, 
1818.00, 
1819.00, 
1820.00, 
1821.00, 
1822.00, 
1823.00, 
1824.00, 
1825.00, 
1826.00, 
1827.00, 
1828.00, 
1829.00, 
1830.00, 
1831.00, 
1832.00, 
1833.00, 
1834.00, 
1835.00, 
1836.00, 
1837.00, 
1838.00, 
1839.00, 
1840.00, 
1841.00, 
1842.00, 
1843.00, 
1844.00, 
1845.00, 
1846.00, 
1847.00, 
1848.00, 
1849.00, 
1850.00, 
1851.00, 
1852.00, 
1853.00, 
1854.00, 
1855.00, 
1856.00, 
1857.00, 
1858.00, 
1859.00, 
1860.00, 
1861.00, 
1862.00, 
1863.00, 
1864.00, 
1865.00, 
1866.00, 
1867.00, 
1868.00, 
1869.00, 
1870.00, 
1871.00, 
1872.00, 
1873.00, 
1874.00, 
1875.00, 
1876.00, 
1877.00, 
1878.00, 
1879.00, 
1880.00, 
1881.00, 
1882.00, 
1883.00, 
1884.00, 
1885.00, 
1886.00, 
1887.00, 
1888.00, 
1889.00, 
1890.00, 
1891.00, 
1892.00, 
1893.00, 
1894.00, 
1895.00, 
1896.00, 
1897.00, 
1898.00, 
1899.00, 
1900.00, 
1901.00, 
1902.00, 
1903.00, 
1904.00, 
1905.00, 
1906.00, 
1907.00, 
1908.00, 
1909.00, 
1910.00, 
1911.00, 
1912.00, 
1913.00, 
1914.00, 
1915.00, 
1916.00, 
1917.00, 
1918.00, 
1919.00, 
1920.00, 
1921.00, 
1922.00, 
1923.00, 
1924.00, 
1925.00, 
1926.00, 
1927.00, 
1928.00, 
1929.00, 
1930.00, 
1931.00, 
1932.00, 
1933.00, 
1934.00, 
1935.00, 
1936.00, 
1937.00, 
1938.00, 
1939.00, 
1940.00, 
1941.00, 
1942.00, 
1943.00, 
1944.00, 
1945.00, 
1946.00, 
1947.00, 
1948.00, 
1949.00, 
1950.00, 
1951.00, 
1952.00, 
1953.00, 
1954.00, 
1955.00, 
1956.00, 
1957.00, 
1958.00, 
1959.00, 
1960.00, 
1961.00, 
1962.00, 
1963.00, 
1964.00, 
1965.00, 
1966.00, 
1967.00, 
1968.00, 
1969.00, 
1970.00, 
1971.00, 
1972.00, 
1973.00, 
1974.00, 
1975.00, 
1976.00, 
1977.00, 
1978.00, 
1979.00, 
1980.00, 
1981.00, 
1982.00, 
1983.00, 
1984.00, 
1985.00, 
1986.00, 
1987.00, 
1988.00, 
1989.00, 
1990.00, 
1991.00, 
1992.00, 
1993.00, 
1994.00, 
1995.00, 
1996.00, 
1997.00, 
1998.00, 
1999.00, 
2000.00, 
2001.00, 
2002.00, 
2003.00, 
2004.00, 
2005.00, 
2006.00, 
2007.00, 
2008.00, 
2009.00, 
2010.00, 
2011.00, 
2012.00, 
2013.00, 
2014.00, 
2015.00, 
2016.00, 
2017.00, 
2018.00, 
2019.00, 
2020.00, 
2021.00, 
2022.00, 
2023.00, 
2024.00, 
2025.00, 
2026.00, 
2027.00, 
2028.00, 
2029.00, 
2030.00, 
2031.00, 
2032.00, 
2033.00, 
2034.00, 
2035.00, 
2036.00, 
2037.00, 
2038.00, 
2039.00, 
2040.00, 
2041.00, 
2042.00, 
2043.00, 
2044.00, 
2045.00, 
2046.00, 
2047.00, 
2048.00, 
2049.00, 
2050.00, 
2051.00, 
2052.00, 
2053.00, 
2054.00, 
2055.00, 
2056.00, 
2057.00, 
2058.00, 
2059.00, 
2060.00, 
2061.00, 
2062.00, 
2063.00, 
2064.00, 
2065.00, 
2066.00, 
2067.00, 
2068.00, 
2069.00, 
2070.00, 
2071.00, 
2072.00, 
2073.00, 
2074.00, 
2075.00, 
2076.00, 
2077.00, 
2078.00, 
2079.00, 
2080.00, 
2081.00, 
2082.00, 
2083.00, 
2084.00, 
2085.00, 
2086.00, 
2087.00, 
2088.00, 
2089.00, 
2090.00, 
2091.00, 
2092.00, 
2093.00, 
2094.00, 
2095.00, 
2096.00, 
2097.00, 
2098.00, 
2099.00, 
2100.00, 
2101.00, 
2102.00, 
2103.00, 
2104.00, 
2105.00, 
2106.00, 
2107.00, 
2108.00, 
2109.00, 
2110.00, 
2111.00, 
2112.00, 
2113.00, 
2114.00, 
2115.00, 
2116.00, 
2117.00, 
2118.00, 
2119.00, 
2120.00, 
2121.00, 
2122.00, 
2123.00, 
2124.00, 
2125.00, 
2126.00, 
2127.00, 
2128.00, 
2129.00, 
2130.00, 
2131.00, 
2132.00, 
2133.00, 
2134.00, 
2135.00, 
2136.00, 
2137.00, 
2138.00, 
2139.00, 
2140.00, 
2141.00, 
2142.00, 
2143.00, 
2144.00, 
2145.00, 
2146.00, 
2147.00, 
2148.00, 
2149.00, 
2150.00, 
2151.00, 
2152.00, 
2153.00, 
2154.00, 
2155.00, 
2156.00, 
2157.00, 
2158.00, 
2159.00, 
2160.00, 
2161.00, 
2162.00, 
2163.00, 
2164.00, 
2165.00, 
2166.00, 
2167.00, 
2168.00, 
2169.00, 
2170.00, 
2171.00, 
2172.00, 
2173.00, 
2174.00, 
2175.00, 
2176.00, 
2177.00, 
2178.00, 
2179.00, 
2180.00, 
2181.00, 
2182.00, 
2183.00, 
2184.00, 
2185.00, 
2186.00, 
2187.00, 
2188.00, 
2189.00, 
2190.00, 
2191.00, 
2192.00, 
2193.00, 
2194.00, 
2195.00, 
2196.00, 
2197.00, 
2198.00, 
2199.00, 
2200.00, 
2201.00, 
2202.00, 
2203.00, 
2204.00, 
2205.00, 
2206.00, 
2207.00, 
2208.00, 
2209.00, 
2210.00, 
2211.00, 
2212.00, 
2213.00, 
2214.00, 
2215.00, 
2216.00, 
2217.00, 
2218.00, 
2219.00, 
2220.00, 
2221.00, 
2222.00, 
2223.00, 
2224.00, 
2225.00, 
2226.00, 
2227.00, 
2228.00, 
2229.00, 
2230.00, 
2231.00, 
2232.00, 
2233.00, 
2234.00, 
2235.00, 
2236.00, 
2237.00, 
2238.00, 
2239.00, 
2240.00, 
2241.00, 
2242.00, 
2243.00, 
2244.00, 
2245.00, 
2246.00, 
2247.00, 
2248.00, 
2249.00, 
2250.00, 
2251.00, 
2252.00, 
2253.00, 
2254.00, 
2255.00, 
2256.00, 
2257.00, 
2258.00, 
2259.00, 
2260.00, 
2261.00, 
2262.00, 
2263.00, 
2264.00, 
2265.00, 
2266.00, 
2267.00, 
2268.00, 
2269.00, 
2270.00, 
2271.00, 
2272.00, 
2273.00, 
2274.00, 
2275.00, 
2276.00, 
2277.00, 
2278.00, 
2279.00, 
2280.00, 
2281.00, 
2282.00, 
2283.00, 
2284.00, 
2285.00, 
2286.00, 
2287.00, 
2288.00, 
2289.00, 
2290.00, 
2291.00, 
2292.00, 
2293.00, 
2294.00, 
2295.00, 
2296.00, 
2297.00, 
2298.00, 
2299.00, 
2300.00, 
2301.00, 
2302.00, 
2303.00, 
2304.00, 
2305.00, 
2306.00, 
2307.00, 
2308.00, 
2309.00, 
2310.00, 
2311.00, 
2312.00, 
2313.00, 
2314.00, 
2315.00, 
2316.00, 
2317.00, 
2318.00, 
2319.00, 
2320.00, 
2321.00, 
2322.00, 
2323.00, 
2324.00, 
2325.00, 
2326.00, 
2327.00, 
2328.00, 
2329.00, 
2330.00, 
2331.00, 
2332.00, 
2333.00, 
2334.00, 
2335.00, 
2336.00, 
2337.00, 
2338.00, 
2339.00, 
2340.00, 
2341.00, 
2342.00, 
2343.00, 
2344.00, 
2345.00, 
2346.00, 
2347.00, 
2348.00, 
2349.00, 
2350.00, 
2351.00, 
2352.00, 
2353.00, 
2354.00, 
2355.00, 
2356.00, 
2357.00, 
2358.00, 
2359.00, 
2360.00, 
2361.00, 
2362.00, 
2363.00, 
2364.00, 
2365.00, 
2366.00, 
2367.00, 
2368.00, 
2369.00, 
2370.00, 
2371.00, 
2372.00, 
2373.00, 
2374.00, 
2375.00, 
2376.00, 
2377.00, 
2378.00, 
2379.00, 
2380.00, 
2381.00, 
2382.00, 
2383.00, 
2384.00, 
2385.00, 
2386.00, 
2387.00, 
2388.00, 
2389.00, 
2390.00, 
2391.00, 
2392.00, 
2393.00, 
2394.00, 
2395.00, 
2396.00, 
2397.00, 
2398.00, 
2399.00, 
2400.00, 
2401.00, 
2402.00, 
2403.00, 
2404.00, 
2405.00, 
2406.00, 
2407.00, 
2408.00, 
2409.00, 
2410.00, 
2411.00, 
2412.00, 
2413.00, 
2414.00, 
2415.00, 
2416.00, 
2417.00, 
2418.00, 
2419.00, 
2420.00, 
2421.00, 
2422.00, 
2423.00, 
2424.00, 
2425.00, 
2426.00, 
2427.00, 
2428.00, 
2429.00, 
2430.00, 
2431.00, 
2432.00, 
2433.00, 
2434.00, 
2435.00, 
2436.00, 
2437.00, 
2438.00, 
2439.00, 
2440.00, 
2441.00, 
2442.00, 
2443.00, 
2444.00, 
2445.00, 
2446.00, 
2447.00, 
2448.00, 
2449.00, 
2450.00, 
2451.00, 
2452.00, 
2453.00, 
2454.00, 
2455.00, 
2456.00, 
2457.00, 
2458.00, 
2459.00, 
2460.00, 
2461.00, 
2462.00, 
2463.00, 
2464.00, 
2465.00, 
2466.00, 
2467.00, 
2468.00, 
2469.00, 
2470.00, 
2471.00, 
2472.00, 
2473.00, 
2474.00, 
2475.00, 
2476.00, 
2477.00, 
2478.00, 
2479.00, 
2480.00, 
2481.00, 
2482.00, 
2483.00, 
2484.00, 
2485.00, 
2486.00, 
2487.00, 
2488.00, 
2489.00, 
2490.00, 
2491.00, 
2492.00, 
2493.00, 
2494.00, 
2495.00, 
2496.00, 
2497.00, 
2498.00, 
2499.00, 
2500.00, 
2501.00, 
2502.00, 
2503.00, 
2504.00, 
2505.00, 
2506.00, 
2507.00, 
2508.00, 
2509.00, 
2510.00, 
2511.00, 
2512.00, 
2513.00, 
2514.00, 
2515.00, 
2516.00, 
2517.00, 
2518.00, 
2519.00, 
2520.00, 
2521.00, 
2522.00, 
2523.00, 
2524.00, 
2525.00, 
2526.00, 
2527.00, 
2528.00, 
2529.00, 
2530.00, 
2531.00, 
2532.00, 
2533.00, 
2534.00, 
2535.00, 
2536.00, 
2537.00, 
2538.00, 
2539.00, 
2540.00, 
2541.00, 
2542.00, 
2543.00, 
2544.00, 
2545.00, 
2546.00, 
2547.00, 
2548.00, 
2549.00, 
2550.00, 
2551.00, 
2552.00, 
2553.00, 
2554.00, 
2555.00, 
2556.00, 
2557.00, 
2558.00, 
2559.00, 
2560.00, 
2561.00, 
2562.00, 
2563.00, 
2564.00, 
2565.00, 
2566.00, 
2567.00, 
2568.00, 
2569.00, 
2570.00, 
2571.00, 
2572.00, 
2573.00, 
2574.00, 
2575.00, 
2576.00, 
2577.00, 
2578.00, 
2579.00, 
2580.00, 
2581.00, 
2582.00, 
2583.00, 
2584.00, 
2585.00, 
2586.00, 
2587.00, 
2588.00, 
2589.00, 
2590.00, 
2591.00, 
2592.00, 
2593.00, 
2594.00, 
2595.00, 
2596.00, 
2597.00, 
2598.00, 
2599.00, 
2600.00, 
