"1cP4 - RawData"
"Wavelength nm.","T%"
200.00,0.005
201.00,0.002
202.00,-0.000
203.00,-0.001
204.00,0.000
205.00,0.001
206.00,0.001
207.00,0.001
208.00,0.004
209.00,0.005
210.00,0.002
211.00,0.002
212.00,0.000
213.00,0.002
214.00,0.002
215.00,0.002
216.00,0.000
217.00,0.000
218.00,-0.001
219.00,0.001
220.00,-0.000
221.00,-0.001
222.00,0.001
223.00,-0.001
224.00,0.001
225.00,0.001
226.00,0.001
227.00,0.002
228.00,-0.000
229.00,0.003
230.00,0.002
231.00,0.000
232.00,0.002
233.00,-0.001
234.00,-0.000
235.00,-0.000
236.00,-0.001
237.00,-0.001
238.00,0.001
239.00,0.002
240.00,0.002
241.00,-0.001
242.00,0.003
243.00,0.000
244.00,0.002
245.00,-0.000
246.00,-0.001
247.00,0.001
248.00,-0.000
249.00,0.001
250.00,-0.000
251.00,0.000
252.00,0.001
253.00,0.000
254.00,0.000
255.00,0.001
256.00,-0.001
257.00,-0.001
258.00,0.001
259.00,0.001
260.00,-0.001
261.00,0.002
262.00,-0.001
263.00,0.000
264.00,0.001
265.00,0.000
266.00,-0.001
267.00,-0.002
268.00,-0.000
269.00,0.000
270.00,0.000
271.00,-0.000
272.00,-0.001
273.00,0.001
274.00,0.001
275.00,0.000
276.00,0.001
277.00,-0.000
278.00,0.001
279.00,0.001
280.00,-0.001
281.00,0.001
282.00,-0.001
283.00,-0.001
284.00,0.001
285.00,-0.001
286.00,-0.001
287.00,-0.001
288.00,0.002
289.00,0.002
290.00,-0.001
291.00,-0.000
292.00,-0.000
293.00,-0.000
294.00,0.001
295.00,0.000
296.00,-0.001
297.00,0.001
298.00,0.001
299.00,-0.000
300.00,0.001
301.00,-0.001
302.00,0.000
303.00,-0.000
304.00,-0.001
305.00,0.001
306.00,0.001
307.00,0.001
308.00,0.006
309.00,0.011
310.00,0.014
311.00,0.026
312.00,0.037
313.00,0.056
314.00,0.088
315.00,0.126
316.00,0.185
317.00,0.267
318.00,0.356
319.00,0.483
320.00,0.645
321.00,0.827
322.00,1.065
323.00,1.340
324.00,1.650
325.00,1.979
326.00,2.359
327.00,2.808
328.00,3.270
329.00,3.764
330.00,4.325
331.00,4.875
332.00,5.454
333.00,6.106
334.00,6.725
335.00,7.411
336.00,8.067
337.00,8.786
338.00,9.442
339.00,10.080
340.00,10.713
341.00,11.383
342.00,12.030
343.00,12.572
344.00,13.170
345.00,13.754
346.00,14.273
347.00,14.729
348.00,15.276
349.00,15.689
350.00,16.130
351.00,16.481
352.00,16.861
353.00,17.176
354.00,17.520
355.00,17.848
356.00,18.101
357.00,18.368
358.00,18.635
359.00,18.900
360.00,19.128
361.00,19.279
362.00,19.453
363.00,19.618
364.00,19.706
365.00,19.844
366.00,19.931
367.00,20.050
368.00,20.053
369.00,20.111
370.00,20.159
371.00,20.195
372.00,20.116
373.00,20.116
374.00,20.129
375.00,20.089
376.00,20.014
377.00,19.917
378.00,19.837
379.00,19.707
380.00,19.714
381.00,19.672
382.00,19.684
383.00,19.667
384.00,19.725
385.00,19.784
386.00,19.783
387.00,19.880
388.00,19.960
389.00,19.952
390.00,20.038
391.00,20.038
392.00,20.077
393.00,20.108
394.00,20.105
395.00,20.144
396.00,20.126
397.00,20.130
398.00,20.116
399.00,20.156
400.00,20.137
401.00,20.137
402.00,20.087
403.00,20.114
404.00,20.078
405.00,20.084
406.00,20.084
407.00,19.987
408.00,20.042
409.00,19.974
410.00,19.959
411.00,19.907
412.00,19.863
413.00,19.928
414.00,19.842
415.00,19.876
416.00,19.928
417.00,19.890
418.00,19.915
419.00,20.005
420.00,20.057
421.00,20.040
422.00,20.032
423.00,20.109
424.00,20.145
425.00,20.164
426.00,20.199
427.00,20.256
428.00,20.292
429.00,20.300
430.00,20.371
431.00,20.428
432.00,20.442
433.00,20.511
434.00,20.541
435.00,20.609
436.00,20.705
437.00,20.702
438.00,20.839
439.00,20.884
440.00,20.959
441.00,21.048
442.00,21.115
443.00,21.224
444.00,21.325
445.00,21.350
446.00,21.463
447.00,21.537
448.00,21.654
449.00,21.774
450.00,21.889
451.00,21.952
452.00,22.000
453.00,22.215
454.00,22.303
455.00,22.415
456.00,22.510
457.00,22.640
458.00,22.749
459.00,22.877
460.00,23.033
461.00,23.132
462.00,23.221
463.00,23.431
464.00,23.537
465.00,23.643
466.00,23.789
467.00,23.985
468.00,23.949
469.00,24.171
470.00,24.264
471.00,24.368
472.00,24.516
473.00,24.612
474.00,24.730
475.00,24.848
476.00,24.947
477.00,25.070
478.00,25.191
479.00,25.394
480.00,25.534
481.00,25.632
482.00,25.796
483.00,25.959
484.00,26.139
485.00,26.274
486.00,26.411
487.00,26.570
488.00,26.711
489.00,26.883
490.00,27.074
491.00,27.193
492.00,27.318
493.00,27.538
494.00,27.699
495.00,27.726
496.00,27.860
497.00,27.925
498.00,28.121
499.00,28.258
500.00,28.413
501.00,28.496
502.00,28.665
503.00,28.814
504.00,28.845
505.00,28.998
506.00,29.140
507.00,29.230
508.00,29.348
509.00,29.532
510.00,29.660
511.00,29.709
512.00,29.910
513.00,30.072
514.00,30.168
515.00,30.292
516.00,30.419
517.00,30.471
518.00,30.635
519.00,30.716
520.00,30.740
521.00,30.922
522.00,30.955
523.00,31.006
524.00,31.157
525.00,31.263
526.00,31.367
527.00,31.401
528.00,31.492
529.00,31.698
530.00,31.904
531.00,31.956
532.00,32.045
533.00,32.140
534.00,32.268
535.00,32.286
536.00,32.344
537.00,32.467
538.00,32.507
539.00,32.616
540.00,32.688
541.00,32.761
542.00,32.796
543.00,32.852
544.00,32.964
545.00,32.983
546.00,33.035
547.00,33.165
548.00,33.269
549.00,33.382
550.00,33.404
551.00,33.466
552.00,33.585
553.00,33.572
554.00,33.739
555.00,33.752
556.00,33.826
557.00,33.878
558.00,33.941
559.00,34.026
560.00,34.104
561.00,34.190
562.00,34.233
563.00,34.254
564.00,34.322
565.00,34.363
566.00,34.347
567.00,34.417
568.00,34.469
569.00,34.543
570.00,34.596
571.00,34.635
572.00,34.631
573.00,34.586
574.00,34.685
575.00,34.694
576.00,34.701
577.00,34.766
578.00,34.873
579.00,34.912
580.00,34.952
581.00,35.127
582.00,35.176
583.00,35.165
584.00,35.258
585.00,35.294
586.00,35.364
587.00,35.468
588.00,35.490
589.00,35.438
590.00,35.510
591.00,35.593
592.00,35.519
593.00,35.571
594.00,35.680
595.00,35.764
596.00,35.900
597.00,36.002
598.00,35.926
599.00,35.950
600.00,35.974
601.00,36.010
602.00,36.045
603.00,36.134
604.00,36.185
605.00,36.266
606.00,36.235
607.00,36.286
608.00,36.446
609.00,36.523
610.00,36.403
611.00,36.495
612.00,36.500
613.00,36.619
614.00,36.655
615.00,36.695
616.00,36.759
617.00,36.776
618.00,36.808
619.00,36.951
620.00,36.947
621.00,36.956
622.00,36.911
623.00,37.194
624.00,37.295
625.00,37.311
626.00,37.348
627.00,37.449
628.00,37.455
629.00,37.510
630.00,37.585
631.00,37.616
632.00,37.683
633.00,37.838
634.00,37.875
635.00,37.976
636.00,38.046
637.00,38.103
638.00,38.155
639.00,38.267
640.00,38.315
641.00,38.364
642.00,38.483
643.00,38.528
644.00,38.635
645.00,38.709
646.00,38.841
647.00,38.947
648.00,39.030
649.00,39.086
650.00,39.050
651.00,39.224
652.00,39.252
653.00,39.311
654.00,39.407
655.00,39.639
656.00,39.885
657.00,39.718
658.00,39.788
659.00,40.037
660.00,40.091
661.00,40.024
662.00,40.146
663.00,40.297
664.00,40.631
665.00,40.742
666.00,40.748
667.00,40.754
668.00,40.804
669.00,41.071
670.00,41.249
671.00,41.133
672.00,41.316
673.00,41.393
674.00,41.468
675.00,41.580
676.00,41.805
677.00,42.006
678.00,41.726
679.00,41.998
680.00,42.112
681.00,42.263
682.00,42.251
683.00,42.312
684.00,42.603
685.00,42.608
686.00,42.379
687.00,42.644
688.00,42.746
689.00,42.651
690.00,43.082
691.00,43.336
692.00,43.024
693.00,43.131
694.00,43.225
695.00,43.271
696.00,43.581
697.00,43.692
698.00,43.737
699.00,44.047
700.00,43.995
701.00,44.062
702.00,44.179
703.00,44.315
704.00,44.430
705.00,44.369
706.00,44.448
707.00,44.542
708.00,44.486
709.00,44.910
710.00,45.259
711.00,44.840
712.00,44.881
713.00,45.113
714.00,45.202
715.00,45.246
716.00,45.222
717.00,45.469
718.00,45.531
719.00,45.466
720.00,45.540
721.00,49.996
722.00,50.000
723.00,50.053
724.00,49.987
725.00,50.094
726.00,50.094
727.00,50.128
728.00,50.228
729.00,50.246
730.00,50.332
731.00,50.257
732.00,50.273
733.00,50.408
734.00,50.390
735.00,50.531
736.00,50.456
737.00,50.545
738.00,50.539
739.00,50.616
740.00,50.673
741.00,50.719
742.00,50.767
743.00,50.768
744.00,50.737
745.00,50.849
746.00,50.805
747.00,50.801
748.00,50.760
749.00,50.818
750.00,50.829
751.00,50.886
752.00,50.908
753.00,50.853
754.00,50.925
755.00,50.903
756.00,50.920
757.00,51.025
758.00,51.029
759.00,50.995
760.00,50.984
761.00,51.009
762.00,51.080
763.00,51.076
764.00,51.023
765.00,51.050
766.00,51.078
767.00,51.085
768.00,51.203
769.00,51.179
770.00,51.257
771.00,51.132
772.00,51.296
773.00,51.196
774.00,51.292
775.00,51.294
776.00,51.155
777.00,51.292
778.00,51.336
779.00,51.411
780.00,51.249
781.00,51.260
782.00,51.255
783.00,51.242
784.00,51.314
785.00,51.250
786.00,51.341
787.00,51.207
788.00,51.223
789.00,51.303
790.00,51.272
791.00,51.341
792.00,51.328
793.00,51.164
794.00,51.210
795.00,51.240
796.00,51.298
797.00,51.131
798.00,51.257
799.00,51.198
800.00,51.181
801.00,51.156
802.00,51.220
803.00,51.181
804.00,51.069
805.00,51.237
806.00,51.047
807.00,51.038
808.00,51.116
809.00,51.114
810.00,51.031
811.00,51.055
812.00,51.113
813.00,51.001
814.00,51.093
815.00,51.079
816.00,51.042
817.00,50.982
818.00,50.917
819.00,51.048
820.00,50.938
821.00,50.902
822.00,50.887
823.00,50.916
824.00,50.921
825.00,50.875
826.00,50.860
827.00,50.954
828.00,50.919
829.00,50.846
830.00,50.886
831.00,53.189
832.00,53.170
833.00,53.127
834.00,53.136
835.00,53.084
836.00,53.113
837.00,53.081
838.00,53.039
839.00,53.026
840.00,52.999
841.00,53.039
842.00,52.997
843.00,52.993
844.00,52.946
845.00,52.877
846.00,52.971
847.00,52.879
848.00,52.928
849.00,52.840
850.00,52.839
851.00,52.722
852.00,52.750
853.00,52.724
854.00,52.718
855.00,52.670
856.00,52.675
857.00,52.653
858.00,52.610
859.00,52.568
860.00,52.589
861.00,52.581
862.00,52.559
863.00,52.544
864.00,52.512
865.00,52.550
866.00,52.507
867.00,52.496
868.00,52.482
869.00,52.457
870.00,52.492
871.00,52.490
872.00,52.442
873.00,52.444
874.00,52.425
875.00,52.412
876.00,52.395
877.00,52.404
878.00,52.409
879.00,52.383
880.00,52.382
881.00,52.348
882.00,52.387
883.00,52.306
884.00,52.312
885.00,52.280
886.00,52.303
887.00,52.240
888.00,52.238
889.00,52.244
890.00,52.222
891.00,52.119
892.00,52.192
893.00,52.164
894.00,52.169
895.00,52.134
896.00,52.089
897.00,52.072
898.00,52.050
899.00,52.053
900.00,52.009
901.00,52.019
902.00,52.003
903.00,52.027
904.00,52.009
905.00,51.935
906.00,51.921
907.00,51.910
908.00,51.862
909.00,51.880
910.00,51.855
911.00,51.841
912.00,51.816
913.00,51.815
914.00,51.793
915.00,51.742
916.00,51.741
917.00,51.703
918.00,51.728
919.00,51.670
920.00,51.655
921.00,51.656
922.00,51.643
923.00,51.604
924.00,51.578
925.00,51.575
926.00,51.533
927.00,51.539
928.00,51.524
929.00,51.520
930.00,51.474
931.00,51.469
932.00,51.434
933.00,51.455
934.00,51.428
935.00,51.384
936.00,51.354
937.00,51.333
938.00,51.348
939.00,51.330
940.00,51.349
941.00,51.283
942.00,51.276
943.00,51.257
944.00,51.220
945.00,51.215
946.00,51.235
947.00,51.223
948.00,51.156
949.00,51.145
950.00,51.128
951.00,51.105
952.00,51.082
953.00,51.053
954.00,51.024
955.00,50.975
956.00,50.967
957.00,50.927
958.00,50.958
959.00,50.903
960.00,50.894
961.00,50.875
962.00,50.908
963.00,50.845
964.00,50.852
965.00,50.862
966.00,50.837
967.00,50.846
968.00,50.808
969.00,50.845
970.00,50.796
971.00,50.801
972.00,50.783
973.00,50.816
974.00,50.837
975.00,50.800
976.00,50.810
977.00,50.820
978.00,50.917
979.00,50.800
980.00,50.806
981.00,50.801
982.00,50.766
983.00,50.798
984.00,50.775
985.00,50.784
986.00,50.754
987.00,50.769
988.00,50.736
989.00,50.726
990.00,50.713
991.00,50.721
992.00,50.720
993.00,50.681
994.00,50.677
995.00,50.656
996.00,50.640
997.00,50.629
998.00,50.615
999.00,50.643
1000.00,50.598
1001.00,50.581
1002.00,50.581
1003.00,50.572
1004.00,50.556
1005.00,50.539
1006.00,50.569
1007.00,50.528
1008.00,50.511
1009.00,50.477
1010.00,50.481
1011.00,50.471
1012.00,50.446
1013.00,50.448
1014.00,50.405
1015.00,50.430
1016.00,50.394
1017.00,50.389
1018.00,50.375
1019.00,50.351
1020.00,50.341
1021.00,50.326
1022.00,50.322
1023.00,50.290
1024.00,50.291
1025.00,50.261
1026.00,50.254
1027.00,50.235
1028.00,50.227
1029.00,50.202
1030.00,50.171
1031.00,50.186
1032.00,50.146
1033.00,50.142
1034.00,50.106
1035.00,50.083
1036.00,50.036
1037.00,50.028
1038.00,50.051
1039.00,50.007
1040.00,49.996
1041.00,49.965
1042.00,49.964
1043.00,49.951
1044.00,49.997
1045.00,49.967
1046.00,49.939
1047.00,49.953
1048.00,49.982
1049.00,49.973
1050.00,49.969
1051.00,50.034
1052.00,50.041
1053.00,50.022
1054.00,50.042
1055.00,50.064
1056.00,50.078
1057.00,50.068
1058.00,50.045
1059.00,50.057
1060.00,50.072
1061.00,50.042
1062.00,50.032
1063.00,50.033
1064.00,50.026
1065.00,50.008
1066.00,50.007
1067.00,49.996
1068.00,50.018
1069.00,49.961
1070.00,49.964
1071.00,49.942
1072.00,49.967
1073.00,49.945
1074.00,49.954
1075.00,49.933
1076.00,49.942
1077.00,49.933
1078.00,49.897
1079.00,49.903
1080.00,49.904
1081.00,49.883
1082.00,49.895
1083.00,49.891
1084.00,49.877
1085.00,49.879
1086.00,49.849
1087.00,49.862
1088.00,49.859
1089.00,49.868
1090.00,49.858
1091.00,49.859
1092.00,49.834
1093.00,49.819
1094.00,49.802
1095.00,49.794
1096.00,49.791
1097.00,49.783
1098.00,49.776
1099.00,49.791
1100.00,49.743
1101.00,49.753
1102.00,49.727
1103.00,49.733
1104.00,49.724
1105.00,49.715
1106.00,49.692
1107.00,49.700
1108.00,49.678
1109.00,49.672
1110.00,49.667
1111.00,49.655
1112.00,49.646
1113.00,49.637
1114.00,49.635
1115.00,49.649
1116.00,49.622
1117.00,49.618
1118.00,49.612
1119.00,49.605
1120.00,49.608
1121.00,49.599
1122.00,49.590
1123.00,49.584
1124.00,49.576
1125.00,49.583
1126.00,49.571
1127.00,49.565
1128.00,49.546
1129.00,49.550
1130.00,49.530
1131.00,49.544
1132.00,49.538
1133.00,49.522
1134.00,49.510
1135.00,49.492
1136.00,49.508
1137.00,49.504
1138.00,49.500
1139.00,49.518
1140.00,49.510
1141.00,49.488
1142.00,49.480
1143.00,49.517
1144.00,49.470
1145.00,49.485
1146.00,49.479
1147.00,49.468
1148.00,49.462
1149.00,49.478
1150.00,49.483
1151.00,49.478
1152.00,49.448
1153.00,49.466
1154.00,49.445
1155.00,49.444
1156.00,49.446
1157.00,49.455
1158.00,49.441
1159.00,49.439
1160.00,49.426
1161.00,49.439
1162.00,49.446
1163.00,49.433
1164.00,49.451
1165.00,49.443
1166.00,49.441
1167.00,49.438
1168.00,49.442
1169.00,49.426
1170.00,49.433
1171.00,49.417
1172.00,49.424
1173.00,49.418
1174.00,49.437
1175.00,49.450
1176.00,49.435
1177.00,49.421
1178.00,49.439
1179.00,49.440
1180.00,49.424
1181.00,49.444
1182.00,49.419
1183.00,49.412
1184.00,49.405
1185.00,49.412
1186.00,49.406
1187.00,49.432
1188.00,49.415
1189.00,49.422
1190.00,49.432
1191.00,49.412
1192.00,49.446
1193.00,49.425
1194.00,49.419
1195.00,49.394
1196.00,49.415
1197.00,49.432
1198.00,49.410
1199.00,49.410
1200.00,49.429
1201.00,49.443
1202.00,49.427
1203.00,49.420
1204.00,49.422
1205.00,49.452
1206.00,49.426
1207.00,49.420
1208.00,49.417
1209.00,49.430
1210.00,49.416
1211.00,49.419
1212.00,49.427
1213.00,49.391
1214.00,49.436
1215.00,49.411
1216.00,49.423
1217.00,49.421
1218.00,49.404
1219.00,49.433
1220.00,49.413
1221.00,49.428
1222.00,49.413
1223.00,49.441
1224.00,49.430
1225.00,49.431
1226.00,49.438
1227.00,49.429
1228.00,49.476
1229.00,49.456
1230.00,49.490
1231.00,49.476
1232.00,49.502
1233.00,49.515
1234.00,49.504
1235.00,49.517
1236.00,49.538
1237.00,49.510
1238.00,49.496
1239.00,49.517
1240.00,49.481
1241.00,49.490
1242.00,49.500
1243.00,49.500
1244.00,49.494
1245.00,49.509
1246.00,49.528
1247.00,49.517
1248.00,49.517
1249.00,49.535
1250.00,49.556
1251.00,49.530
1252.00,49.539
1253.00,49.540
1254.00,49.553
1255.00,49.533
1256.00,49.536
1257.00,49.528
1258.00,49.581
1259.00,49.566
1260.00,49.592
1261.00,49.587
1262.00,49.565
1263.00,49.595
1264.00,49.607
1265.00,49.605
1266.00,49.611
1267.00,49.610
1268.00,49.608
1269.00,49.627
1270.00,49.656
1271.00,49.655
1272.00,49.669
1273.00,49.674
1274.00,49.665
1275.00,49.674
1276.00,49.665
1277.00,49.677
1278.00,49.672
1279.00,49.681
1280.00,49.683
1281.00,49.697
1282.00,49.698
1283.00,49.705
1284.00,49.724
1285.00,49.710
1286.00,49.734
1287.00,49.711
1288.00,49.710
1289.00,49.711
1290.00,49.769
1291.00,49.743
1292.00,49.726
1293.00,49.738
1294.00,49.748
1295.00,49.776
1296.00,49.795
1297.00,49.799
1298.00,49.827
1299.00,49.813
1300.00,49.833
1301.00,49.812
1302.00,49.833
1303.00,49.822
1304.00,49.820
1305.00,49.848
1306.00,49.842
1307.00,49.858
1308.00,49.854
1309.00,49.872
1310.00,49.867
1311.00,49.853
1312.00,49.877
1313.00,49.896
1314.00,49.910
1315.00,49.920
1316.00,49.914
1317.00,49.934
1318.00,49.934
1319.00,49.949
1320.00,49.947
1321.00,50.138
1322.00,50.128
1323.00,50.105
1324.00,50.105
1325.00,50.092
1326.00,50.115
1327.00,50.105
1328.00,50.097
1329.00,50.099
1330.00,50.113
1331.00,50.103
1332.00,50.125
1333.00,50.098
1334.00,50.166
1335.00,50.158
1336.00,50.196
1337.00,50.223
1338.00,50.287
1339.00,50.320
1340.00,50.378
1341.00,50.462
1342.00,50.487
1343.00,50.541
1344.00,50.592
1345.00,50.661
1346.00,50.709
1347.00,50.721
1348.00,50.753
1349.00,50.780
1350.00,50.793
1351.00,50.808
1352.00,50.834
1353.00,50.792
1354.00,50.828
1355.00,50.780
1356.00,50.843
1357.00,50.840
1358.00,50.852
1359.00,50.858
1360.00,50.881
1361.00,50.876
1362.00,50.873
1363.00,50.875
1364.00,50.875
1365.00,50.878
1366.00,50.947
1367.00,50.895
1368.00,50.889
1369.00,50.891
1370.00,50.889
1371.00,50.873
1372.00,50.871
1373.00,50.883
1374.00,50.914
1375.00,50.865
1376.00,50.898
1377.00,50.860
1378.00,50.918
1379.00,50.879
1380.00,50.905
1381.00,50.932
1382.00,50.839
1383.00,50.894
1384.00,50.839
1385.00,50.869
1386.00,50.921
1387.00,50.852
1388.00,50.840
1389.00,50.855
1390.00,50.898
1391.00,50.861
1392.00,50.868
1393.00,50.911
1394.00,50.906
1395.00,50.873
1396.00,50.830
1397.00,50.931
1398.00,50.748
1399.00,50.892
1400.00,50.848
1401.00,50.867
1402.00,50.901
1403.00,50.899
1404.00,50.915
1405.00,50.932
1406.00,50.965
1407.00,50.944
1408.00,50.896
1409.00,50.984
1410.00,50.980
1411.00,50.965
1412.00,51.037
1413.00,51.095
1414.00,50.979
1415.00,51.010
1416.00,51.031
1417.00,51.058
1418.00,51.034
1419.00,51.040
1420.00,51.044
1421.00,51.124
1422.00,51.096
1423.00,51.137
1424.00,51.122
1425.00,51.156
1426.00,51.194
1427.00,51.206
1428.00,51.193
1429.00,51.217
1430.00,51.197
1431.00,51.238
1432.00,51.242
1433.00,51.269
1434.00,51.269
1435.00,51.325
1436.00,51.338
1437.00,51.335
1438.00,51.354
1439.00,51.394
1440.00,51.421
1441.00,51.417
1442.00,51.433
1443.00,51.455
1444.00,51.522
1445.00,51.473
1446.00,51.492
1447.00,51.537
1448.00,51.585
1449.00,51.560
1450.00,51.559
1451.00,51.596
1452.00,51.595
1453.00,51.649
1454.00,51.675
1455.00,51.671
1456.00,51.700
1457.00,51.668
1458.00,51.718
1459.00,51.724
1460.00,51.729
1461.00,51.734
1462.00,51.795
1463.00,51.774
1464.00,51.802
1465.00,51.828
1466.00,51.834
1467.00,51.877
1468.00,51.907
1469.00,51.889
1470.00,51.922
1471.00,51.926
1472.00,51.939
1473.00,51.970
1474.00,51.974
1475.00,51.998
1476.00,52.017
1477.00,52.001
1478.00,52.029
1479.00,52.035
1480.00,52.043
1481.00,52.043
1482.00,52.074
1483.00,52.091
1484.00,52.114
1485.00,52.091
1486.00,52.132
1487.00,52.170
1488.00,52.182
1489.00,52.173
1490.00,52.185
1491.00,52.210
1492.00,52.224
1493.00,52.197
1494.00,52.259
1495.00,52.244
1496.00,52.263
1497.00,52.263
1498.00,52.278
1499.00,52.289
1500.00,52.316
1501.00, 
1502.00, 
1503.00, 
1504.00, 
1505.00, 
1506.00, 
1507.00, 
1508.00, 
1509.00, 
1510.00, 
1511.00, 
1512.00, 
1513.00, 
1514.00, 
1515.00, 
1516.00, 
1517.00, 
1518.00, 
1519.00, 
1520.00, 
1521.00, 
1522.00, 
1523.00, 
1524.00, 
1525.00, 
1526.00, 
1527.00, 
1528.00, 
1529.00, 
1530.00, 
1531.00, 
1532.00, 
1533.00, 
1534.00, 
1535.00, 
1536.00, 
1537.00, 
1538.00, 
1539.00, 
1540.00, 
1541.00, 
1542.00, 
1543.00, 
1544.00, 
1545.00, 
1546.00, 
1547.00, 
1548.00, 
1549.00, 
1550.00, 
1551.00, 
1552.00, 
1553.00, 
1554.00, 
1555.00, 
1556.00, 
1557.00, 
1558.00, 
1559.00, 
1560.00, 
1561.00, 
1562.00, 
1563.00, 
1564.00, 
1565.00, 
1566.00, 
1567.00, 
1568.00, 
1569.00, 
1570.00, 
1571.00, 
1572.00, 
1573.00, 
1574.00, 
1575.00, 
1576.00, 
1577.00, 
1578.00, 
1579.00, 
1580.00, 
1581.00, 
1582.00, 
1583.00, 
1584.00, 
1585.00, 
1586.00, 
1587.00, 
1588.00, 
1589.00, 
1590.00, 
1591.00, 
1592.00, 
1593.00, 
1594.00, 
1595.00, 
1596.00, 
1597.00, 
1598.00, 
1599.00, 
1600.00, 
1601.00, 
1602.00, 
1603.00, 
1604.00, 
1605.00, 
1606.00, 
1607.00, 
1608.00, 
1609.00, 
1610.00, 
1611.00, 
1612.00, 
1613.00, 
1614.00, 
1615.00, 
1616.00, 
1617.00, 
1618.00, 
1619.00, 
1620.00, 
1621.00, 
1622.00, 
1623.00, 
1624.00, 
1625.00, 
1626.00, 
1627.00, 
1628.00, 
1629.00, 
1630.00, 
1631.00, 
1632.00, 
1633.00, 
1634.00, 
1635.00, 
1636.00, 
1637.00, 
1638.00, 
1639.00, 
1640.00, 
1641.00, 
1642.00, 
1643.00, 
1644.00, 
1645.00, 
1646.00, 
1647.00, 
1648.00, 
1649.00, 
1650.00, 
1651.00, 
1652.00, 
1653.00, 
1654.00, 
1655.00, 
1656.00, 
1657.00, 
1658.00, 
1659.00, 
1660.00, 
1661.00, 
1662.00, 
1663.00, 
1664.00, 
1665.00, 
1666.00, 
1667.00, 
1668.00, 
1669.00, 
1670.00, 
1671.00, 
1672.00, 
1673.00, 
1674.00, 
1675.00, 
1676.00, 
1677.00, 
1678.00, 
1679.00, 
1680.00, 
1681.00, 
1682.00, 
1683.00, 
1684.00, 
1685.00, 
1686.00, 
1687.00, 
1688.00, 
1689.00, 
1690.00, 
1691.00, 
1692.00, 
1693.00, 
1694.00, 
1695.00, 
1696.00, 
1697.00, 
1698.00, 
1699.00, 
1700.00, 
1701.00, 
1702.00, 
1703.00, 
1704.00, 
1705.00, 
1706.00, 
1707.00, 
1708.00, 
1709.00, 
1710.00, 
1711.00, 
1712.00, 
1713.00, 
1714.00, 
1715.00, 
1716.00, 
1717.00, 
1718.00, 
1719.00, 
1720.00, 
1721.00, 
1722.00, 
1723.00, 
1724.00, 
1725.00, 
1726.00, 
1727.00, 
1728.00, 
1729.00, 
1730.00, 
1731.00, 
1732.00, 
1733.00, 
1734.00, 
1735.00, 
1736.00, 
1737.00, 
1738.00, 
1739.00, 
1740.00, 
1741.00, 
1742.00, 
1743.00, 
1744.00, 
1745.00, 
1746.00, 
1747.00, 
1748.00, 
1749.00, 
1750.00, 
1751.00, 
1752.00, 
1753.00, 
1754.00, 
1755.00, 
1756.00, 
1757.00, 
1758.00, 
1759.00, 
1760.00, 
1761.00, 
1762.00, 
1763.00, 
1764.00, 
1765.00, 
1766.00, 
1767.00, 
1768.00, 
1769.00, 
1770.00, 
1771.00, 
1772.00, 
1773.00, 
1774.00, 
1775.00, 
1776.00, 
1777.00, 
1778.00, 
1779.00, 
1780.00, 
1781.00, 
1782.00, 
1783.00, 
1784.00, 
1785.00, 
1786.00, 
1787.00, 
1788.00, 
1789.00, 
1790.00, 
1791.00, 
1792.00, 
1793.00, 
1794.00, 
1795.00, 
1796.00, 
1797.00, 
1798.00, 
1799.00, 
1800.00, 
1801.00, 
1802.00, 
1803.00, 
1804.00, 
1805.00, 
1806.00, 
1807.00, 
1808.00, 
1809.00, 
1810.00, 
1811.00, 
1812.00, 
1813.00, 
1814.00, 
1815.00, 
1816.00, 
1817.00, 
1818.00, 
1819.00, 
1820.00, 
1821.00, 
1822.00, 
1823.00, 
1824.00, 
1825.00, 
1826.00, 
1827.00, 
1828.00, 
1829.00, 
1830.00, 
1831.00, 
1832.00, 
1833.00, 
1834.00, 
1835.00, 
1836.00, 
1837.00, 
1838.00, 
1839.00, 
1840.00, 
1841.00, 
1842.00, 
1843.00, 
1844.00, 
1845.00, 
1846.00, 
1847.00, 
1848.00, 
1849.00, 
1850.00, 
1851.00, 
1852.00, 
1853.00, 
1854.00, 
1855.00, 
1856.00, 
1857.00, 
1858.00, 
1859.00, 
1860.00, 
1861.00, 
1862.00, 
1863.00, 
1864.00, 
1865.00, 
1866.00, 
1867.00, 
1868.00, 
1869.00, 
1870.00, 
1871.00, 
1872.00, 
1873.00, 
1874.00, 
1875.00, 
1876.00, 
1877.00, 
1878.00, 
1879.00, 
1880.00, 
1881.00, 
1882.00, 
1883.00, 
1884.00, 
1885.00, 
1886.00, 
1887.00, 
1888.00, 
1889.00, 
1890.00, 
1891.00, 
1892.00, 
1893.00, 
1894.00, 
1895.00, 
1896.00, 
1897.00, 
1898.00, 
1899.00, 
1900.00, 
1901.00, 
1902.00, 
1903.00, 
1904.00, 
1905.00, 
1906.00, 
1907.00, 
1908.00, 
1909.00, 
1910.00, 
1911.00, 
1912.00, 
1913.00, 
1914.00, 
1915.00, 
1916.00, 
1917.00, 
1918.00, 
1919.00, 
1920.00, 
1921.00, 
1922.00, 
1923.00, 
1924.00, 
1925.00, 
1926.00, 
1927.00, 
1928.00, 
1929.00, 
1930.00, 
1931.00, 
1932.00, 
1933.00, 
1934.00, 
1935.00, 
1936.00, 
1937.00, 
1938.00, 
1939.00, 
1940.00, 
1941.00, 
1942.00, 
1943.00, 
1944.00, 
1945.00, 
1946.00, 
1947.00, 
1948.00, 
1949.00, 
1950.00, 
1951.00, 
1952.00, 
1953.00, 
1954.00, 
1955.00, 
1956.00, 
1957.00, 
1958.00, 
1959.00, 
1960.00, 
1961.00, 
1962.00, 
1963.00, 
1964.00, 
1965.00, 
1966.00, 
1967.00, 
1968.00, 
1969.00, 
1970.00, 
1971.00, 
1972.00, 
1973.00, 
1974.00, 
1975.00, 
1976.00, 
1977.00, 
1978.00, 
1979.00, 
1980.00, 
1981.00, 
1982.00, 
1983.00, 
1984.00, 
1985.00, 
1986.00, 
1987.00, 
1988.00, 
1989.00, 
1990.00, 
1991.00, 
1992.00, 
1993.00, 
1994.00, 
1995.00, 
1996.00, 
1997.00, 
1998.00, 
1999.00, 
2000.00, 
2001.00, 
2002.00, 
2003.00, 
2004.00, 
2005.00, 
2006.00, 
2007.00, 
2008.00, 
2009.00, 
2010.00, 
2011.00, 
2012.00, 
2013.00, 
2014.00, 
2015.00, 
2016.00, 
2017.00, 
2018.00, 
2019.00, 
2020.00, 
2021.00, 
2022.00, 
2023.00, 
2024.00, 
2025.00, 
2026.00, 
2027.00, 
2028.00, 
2029.00, 
2030.00, 
2031.00, 
2032.00, 
2033.00, 
2034.00, 
2035.00, 
2036.00, 
2037.00, 
2038.00, 
2039.00, 
2040.00, 
2041.00, 
2042.00, 
2043.00, 
2044.00, 
2045.00, 
2046.00, 
2047.00, 
2048.00, 
2049.00, 
2050.00, 
2051.00, 
2052.00, 
2053.00, 
2054.00, 
2055.00, 
2056.00, 
2057.00, 
2058.00, 
2059.00, 
2060.00, 
2061.00, 
2062.00, 
2063.00, 
2064.00, 
2065.00, 
2066.00, 
2067.00, 
2068.00, 
2069.00, 
2070.00, 
2071.00, 
2072.00, 
2073.00, 
2074.00, 
2075.00, 
2076.00, 
2077.00, 
2078.00, 
2079.00, 
2080.00, 
2081.00, 
2082.00, 
2083.00, 
2084.00, 
2085.00, 
2086.00, 
2087.00, 
2088.00, 
2089.00, 
2090.00, 
2091.00, 
2092.00, 
2093.00, 
2094.00, 
2095.00, 
2096.00, 
2097.00, 
2098.00, 
2099.00, 
2100.00, 
2101.00, 
2102.00, 
2103.00, 
2104.00, 
2105.00, 
2106.00, 
2107.00, 
2108.00, 
2109.00, 
2110.00, 
2111.00, 
2112.00, 
2113.00, 
2114.00, 
2115.00, 
2116.00, 
2117.00, 
2118.00, 
2119.00, 
2120.00, 
2121.00, 
2122.00, 
2123.00, 
2124.00, 
2125.00, 
2126.00, 
2127.00, 
2128.00, 
2129.00, 
2130.00, 
2131.00, 
2132.00, 
2133.00, 
2134.00, 
2135.00, 
2136.00, 
2137.00, 
2138.00, 
2139.00, 
2140.00, 
2141.00, 
2142.00, 
2143.00, 
2144.00, 
2145.00, 
2146.00, 
2147.00, 
2148.00, 
2149.00, 
2150.00, 
2151.00, 
2152.00, 
2153.00, 
2154.00, 
2155.00, 
2156.00, 
2157.00, 
2158.00, 
2159.00, 
2160.00, 
2161.00, 
2162.00, 
2163.00, 
2164.00, 
2165.00, 
2166.00, 
2167.00, 
2168.00, 
2169.00, 
2170.00, 
2171.00, 
2172.00, 
2173.00, 
2174.00, 
2175.00, 
2176.00, 
2177.00, 
2178.00, 
2179.00, 
2180.00, 
2181.00, 
2182.00, 
2183.00, 
2184.00, 
2185.00, 
2186.00, 
2187.00, 
2188.00, 
2189.00, 
2190.00, 
2191.00, 
2192.00, 
2193.00, 
2194.00, 
2195.00, 
2196.00, 
2197.00, 
2198.00, 
2199.00, 
2200.00, 
2201.00, 
2202.00, 
2203.00, 
2204.00, 
2205.00, 
2206.00, 
2207.00, 
2208.00, 
2209.00, 
2210.00, 
2211.00, 
2212.00, 
2213.00, 
2214.00, 
2215.00, 
2216.00, 
2217.00, 
2218.00, 
2219.00, 
2220.00, 
2221.00, 
2222.00, 
2223.00, 
2224.00, 
2225.00, 
2226.00, 
2227.00, 
2228.00, 
2229.00, 
2230.00, 
2231.00, 
2232.00, 
2233.00, 
2234.00, 
2235.00, 
2236.00, 
2237.00, 
2238.00, 
2239.00, 
2240.00, 
2241.00, 
2242.00, 
2243.00, 
2244.00, 
2245.00, 
2246.00, 
2247.00, 
2248.00, 
2249.00, 
2250.00, 
2251.00, 
2252.00, 
2253.00, 
2254.00, 
2255.00, 
2256.00, 
2257.00, 
2258.00, 
2259.00, 
2260.00, 
2261.00, 
2262.00, 
2263.00, 
2264.00, 
2265.00, 
2266.00, 
2267.00, 
2268.00, 
2269.00, 
2270.00, 
2271.00, 
2272.00, 
2273.00, 
2274.00, 
2275.00, 
2276.00, 
2277.00, 
2278.00, 
2279.00, 
2280.00, 
2281.00, 
2282.00, 
2283.00, 
2284.00, 
2285.00, 
2286.00, 
2287.00, 
2288.00, 
2289.00, 
2290.00, 
2291.00, 
2292.00, 
2293.00, 
2294.00, 
2295.00, 
2296.00, 
2297.00, 
2298.00, 
2299.00, 
2300.00, 
2301.00, 
2302.00, 
2303.00, 
2304.00, 
2305.00, 
2306.00, 
2307.00, 
2308.00, 
2309.00, 
2310.00, 
2311.00, 
2312.00, 
2313.00, 
2314.00, 
2315.00, 
2316.00, 
2317.00, 
2318.00, 
2319.00, 
2320.00, 
2321.00, 
2322.00, 
2323.00, 
2324.00, 
2325.00, 
2326.00, 
2327.00, 
2328.00, 
2329.00, 
2330.00, 
2331.00, 
2332.00, 
2333.00, 
2334.00, 
2335.00, 
2336.00, 
2337.00, 
2338.00, 
2339.00, 
2340.00, 
2341.00, 
2342.00, 
2343.00, 
2344.00, 
2345.00, 
2346.00, 
2347.00, 
2348.00, 
2349.00, 
2350.00, 
2351.00, 
2352.00, 
2353.00, 
2354.00, 
2355.00, 
2356.00, 
2357.00, 
2358.00, 
2359.00, 
2360.00, 
2361.00, 
2362.00, 
2363.00, 
2364.00, 
2365.00, 
2366.00, 
2367.00, 
2368.00, 
2369.00, 
2370.00, 
2371.00, 
2372.00, 
2373.00, 
2374.00, 
2375.00, 
2376.00, 
2377.00, 
2378.00, 
2379.00, 
2380.00, 
2381.00, 
2382.00, 
2383.00, 
2384.00, 
2385.00, 
2386.00, 
2387.00, 
2388.00, 
2389.00, 
2390.00, 
2391.00, 
2392.00, 
2393.00, 
2394.00, 
2395.00, 
2396.00, 
2397.00, 
2398.00, 
2399.00, 
2400.00, 
2401.00, 
2402.00, 
2403.00, 
2404.00, 
2405.00, 
2406.00, 
2407.00, 
2408.00, 
2409.00, 
2410.00, 
2411.00, 
2412.00, 
2413.00, 
2414.00, 
2415.00, 
2416.00, 
2417.00, 
2418.00, 
2419.00, 
2420.00, 
2421.00, 
2422.00, 
2423.00, 
2424.00, 
2425.00, 
2426.00, 
2427.00, 
2428.00, 
2429.00, 
2430.00, 
2431.00, 
2432.00, 
2433.00, 
2434.00, 
2435.00, 
2436.00, 
2437.00, 
2438.00, 
2439.00, 
2440.00, 
2441.00, 
2442.00, 
2443.00, 
2444.00, 
2445.00, 
2446.00, 
2447.00, 
2448.00, 
2449.00, 
2450.00, 
2451.00, 
2452.00, 
2453.00, 
2454.00, 
2455.00, 
2456.00, 
2457.00, 
2458.00, 
2459.00, 
2460.00, 
2461.00, 
2462.00, 
2463.00, 
2464.00, 
2465.00, 
2466.00, 
2467.00, 
2468.00, 
2469.00, 
2470.00, 
2471.00, 
2472.00, 
2473.00, 
2474.00, 
2475.00, 
2476.00, 
2477.00, 
2478.00, 
2479.00, 
2480.00, 
2481.00, 
2482.00, 
2483.00, 
2484.00, 
2485.00, 
2486.00, 
2487.00, 
2488.00, 
2489.00, 
2490.00, 
2491.00, 
2492.00, 
2493.00, 
2494.00, 
2495.00, 
2496.00, 
2497.00, 
2498.00, 
2499.00, 
2500.00, 
2501.00, 
2502.00, 
2503.00, 
2504.00, 
2505.00, 
2506.00, 
2507.00, 
2508.00, 
2509.00, 
2510.00, 
2511.00, 
2512.00, 
2513.00, 
2514.00, 
2515.00, 
2516.00, 
2517.00, 
2518.00, 
2519.00, 
2520.00, 
2521.00, 
2522.00, 
2523.00, 
2524.00, 
2525.00, 
2526.00, 
2527.00, 
2528.00, 
2529.00, 
2530.00, 
2531.00, 
2532.00, 
2533.00, 
2534.00, 
2535.00, 
2536.00, 
2537.00, 
2538.00, 
2539.00, 
2540.00, 
2541.00, 
2542.00, 
2543.00, 
2544.00, 
2545.00, 
2546.00, 
2547.00, 
2548.00, 
2549.00, 
2550.00, 
2551.00, 
2552.00, 
2553.00, 
2554.00, 
2555.00, 
2556.00, 
2557.00, 
2558.00, 
2559.00, 
2560.00, 
2561.00, 
2562.00, 
2563.00, 
2564.00, 
2565.00, 
2566.00, 
2567.00, 
2568.00, 
2569.00, 
2570.00, 
2571.00, 
2572.00, 
2573.00, 
2574.00, 
2575.00, 
2576.00, 
2577.00, 
2578.00, 
2579.00, 
2580.00, 
2581.00, 
2582.00, 
2583.00, 
2584.00, 
2585.00, 
2586.00, 
2587.00, 
2588.00, 
2589.00, 
2590.00, 
2591.00, 
2592.00, 
2593.00, 
2594.00, 
2595.00, 
2596.00, 
2597.00, 
2598.00, 
2599.00, 
2600.00, 
