"1cP5 - RawData"
"Wavelength nm.","T%"
200.00,0.002
201.00,0.000
202.00,0.002
203.00,-0.001
204.00,0.005
205.00,0.003
206.00,-0.001
207.00,0.003
208.00,0.001
209.00,-0.001
210.00,-0.000
211.00,-0.001
212.00,-0.000
213.00,0.000
214.00,0.001
215.00,0.001
216.00,-0.002
217.00,-0.000
218.00,0.002
219.00,0.001
220.00,-0.001
221.00,0.002
222.00,0.001
223.00,0.000
224.00,-0.001
225.00,-0.001
226.00,-0.000
227.00,-0.000
228.00,-0.000
229.00,-0.000
230.00,0.001
231.00,-0.001
232.00,-0.001
233.00,-0.002
234.00,-0.001
235.00,0.000
236.00,-0.000
237.00,0.001
238.00,0.001
239.00,-0.001
240.00,-0.001
241.00,0.001
242.00,-0.000
243.00,-0.000
244.00,0.000
245.00,0.001
246.00,0.001
247.00,-0.001
248.00,0.001
249.00,-0.001
250.00,0.000
251.00,-0.000
252.00,0.001
253.00,-0.000
254.00,0.001
255.00,0.001
256.00,0.001
257.00,0.000
258.00,0.002
259.00,-0.001
260.00,-0.000
261.00,-0.001
262.00,0.000
263.00,-0.001
264.00,-0.001
265.00,0.001
266.00,-0.001
267.00,-0.001
268.00,-0.000
269.00,0.001
270.00,0.001
271.00,0.000
272.00,0.001
273.00,-0.001
274.00,0.001
275.00,0.000
276.00,-0.001
277.00,0.000
278.00,0.001
279.00,0.000
280.00,-0.001
281.00,-0.001
282.00,0.000
283.00,0.001
284.00,-0.000
285.00,-0.001
286.00,0.001
287.00,0.001
288.00,-0.000
289.00,-0.003
290.00,0.002
291.00,0.000
292.00,0.000
293.00,0.001
294.00,-0.001
295.00,0.000
296.00,0.001
297.00,-0.001
298.00,-0.001
299.00,0.001
300.00,0.001
301.00,-0.000
302.00,0.002
303.00,0.001
304.00,0.000
305.00,0.002
306.00,0.002
307.00,0.003
308.00,0.005
309.00,0.010
310.00,0.013
311.00,0.025
312.00,0.038
313.00,0.056
314.00,0.082
315.00,0.119
316.00,0.180
317.00,0.250
318.00,0.338
319.00,0.458
320.00,0.608
321.00,0.798
322.00,1.009
323.00,1.278
324.00,1.580
325.00,1.901
326.00,2.259
327.00,2.683
328.00,3.127
329.00,3.536
330.00,4.143
331.00,4.662
332.00,5.234
333.00,5.865
334.00,6.452
335.00,7.076
336.00,7.722
337.00,8.397
338.00,9.031
339.00,9.636
340.00,10.294
341.00,10.922
342.00,11.536
343.00,12.031
344.00,12.602
345.00,13.168
346.00,13.647
347.00,14.104
348.00,14.554
349.00,15.001
350.00,15.372
351.00,15.760
352.00,16.090
353.00,16.435
354.00,16.752
355.00,17.035
356.00,17.302
357.00,17.513
358.00,17.790
359.00,18.029
360.00,18.250
361.00,18.365
362.00,18.538
363.00,18.676
364.00,18.764
365.00,18.872
366.00,18.960
367.00,19.069
368.00,19.084
369.00,19.116
370.00,19.190
371.00,19.181
372.00,19.155
373.00,19.127
374.00,19.132
375.00,19.106
376.00,18.983
377.00,18.937
378.00,18.812
379.00,18.718
380.00,18.708
381.00,18.653
382.00,18.659
383.00,18.667
384.00,18.696
385.00,18.756
386.00,18.752
387.00,18.845
388.00,18.921
389.00,18.905
390.00,18.949
391.00,18.963
392.00,19.016
393.00,19.010
394.00,19.046
395.00,19.057
396.00,19.040
397.00,19.037
398.00,19.038
399.00,19.059
400.00,19.044
401.00,19.048
402.00,19.039
403.00,19.018
404.00,18.984
405.00,18.951
406.00,18.967
407.00,18.927
408.00,18.913
409.00,18.871
410.00,18.852
411.00,18.804
412.00,18.735
413.00,18.778
414.00,18.743
415.00,18.780
416.00,18.802
417.00,18.764
418.00,18.812
419.00,18.874
420.00,18.941
421.00,18.920
422.00,18.934
423.00,18.985
424.00,19.016
425.00,19.028
426.00,19.066
427.00,19.117
428.00,19.164
429.00,19.168
430.00,19.238
431.00,19.289
432.00,19.318
433.00,19.369
434.00,19.437
435.00,19.515
436.00,19.551
437.00,19.604
438.00,19.706
439.00,19.749
440.00,19.813
441.00,19.876
442.00,19.967
443.00,20.067
444.00,20.177
445.00,20.220
446.00,20.336
447.00,20.409
448.00,20.529
449.00,20.632
450.00,20.752
451.00,20.809
452.00,20.913
453.00,21.031
454.00,21.132
455.00,21.252
456.00,21.338
457.00,21.489
458.00,21.575
459.00,21.723
460.00,21.866
461.00,21.962
462.00,22.055
463.00,22.266
464.00,22.386
465.00,22.505
466.00,22.608
467.00,22.787
468.00,22.923
469.00,22.982
470.00,23.088
471.00,23.214
472.00,23.369
473.00,23.432
474.00,23.591
475.00,23.689
476.00,23.801
477.00,23.931
478.00,24.074
479.00,24.245
480.00,24.385
481.00,24.500
482.00,24.670
483.00,24.824
484.00,24.978
485.00,25.159
486.00,25.288
487.00,25.424
488.00,25.581
489.00,25.716
490.00,25.890
491.00,26.045
492.00,26.198
493.00,26.426
494.00,26.579
495.00,26.556
496.00,26.712
497.00,26.826
498.00,26.984
499.00,27.154
500.00,27.330
501.00,27.406
502.00,27.543
503.00,27.682
504.00,27.727
505.00,27.908
506.00,28.067
507.00,28.114
508.00,28.215
509.00,28.440
510.00,28.584
511.00,28.657
512.00,28.856
513.00,28.991
514.00,29.093
515.00,29.268
516.00,29.389
517.00,29.484
518.00,29.584
519.00,29.644
520.00,29.744
521.00,29.843
522.00,29.943
523.00,30.023
524.00,30.107
525.00,30.242
526.00,30.340
527.00,30.403
528.00,30.505
529.00,30.724
530.00,30.869
531.00,30.934
532.00,31.003
533.00,31.117
534.00,31.231
535.00,31.324
536.00,31.364
537.00,31.448
538.00,31.555
539.00,31.554
540.00,31.712
541.00,31.736
542.00,31.826
543.00,31.895
544.00,31.962
545.00,32.038
546.00,32.089
547.00,32.241
548.00,32.290
549.00,32.379
550.00,32.461
551.00,32.500
552.00,32.628
553.00,32.650
554.00,32.727
555.00,32.785
556.00,32.882
557.00,32.944
558.00,32.948
559.00,33.078
560.00,33.116
561.00,33.164
562.00,33.255
563.00,33.315
564.00,33.354
565.00,33.332
566.00,33.418
567.00,33.469
568.00,33.510
569.00,33.588
570.00,33.637
571.00,33.663
572.00,33.711
573.00,33.684
574.00,33.752
575.00,33.770
576.00,33.741
577.00,33.832
578.00,33.929
579.00,33.969
580.00,33.991
581.00,34.162
582.00,34.211
583.00,34.168
584.00,34.296
585.00,34.390
586.00,34.420
587.00,34.466
588.00,34.489
589.00,34.477
590.00,34.574
591.00,34.647
592.00,34.584
593.00,34.638
594.00,34.698
595.00,34.824
596.00,34.917
597.00,34.984
598.00,34.987
599.00,35.036
600.00,35.060
601.00,35.058
602.00,35.092
603.00,35.115
604.00,35.188
605.00,35.276
606.00,35.274
607.00,35.348
608.00,35.510
609.00,35.556
610.00,35.401
611.00,35.519
612.00,35.545
613.00,35.648
614.00,35.695
615.00,35.811
616.00,35.871
617.00,35.822
618.00,35.855
619.00,35.962
620.00,35.992
621.00,36.093
622.00,36.150
623.00,36.185
624.00,36.301
625.00,36.376
626.00,36.377
627.00,36.448
628.00,36.507
629.00,36.562
630.00,36.603
631.00,36.623
632.00,36.757
633.00,36.843
634.00,36.910
635.00,37.017
636.00,37.084
637.00,37.137
638.00,37.187
639.00,37.298
640.00,37.343
641.00,37.399
642.00,37.528
643.00,37.576
644.00,37.654
645.00,37.753
646.00,37.952
647.00,37.983
648.00,38.027
649.00,38.161
650.00,38.063
651.00,38.257
652.00,38.314
653.00,38.371
654.00,38.404
655.00,38.614
656.00,38.892
657.00,38.739
658.00,39.107
659.00,38.534
660.00,39.080
661.00,39.071
662.00,39.211
663.00,39.370
664.00,39.662
665.00,39.852
666.00,39.749
667.00,39.845
668.00,39.961
669.00,40.183
670.00,40.368
671.00,40.209
672.00,40.420
673.00,40.431
674.00,40.553
675.00,40.672
676.00,40.900
677.00,41.030
678.00,40.858
679.00,41.082
680.00,41.172
681.00,41.277
682.00,41.382
683.00,41.325
684.00,41.687
685.00,41.740
686.00,41.639
687.00,41.866
688.00,41.891
689.00,41.978
690.00,42.331
691.00,42.464
692.00,42.245
693.00,42.410
694.00,42.588
695.00,42.748
696.00,42.799
697.00,42.780
698.00,42.860
699.00,43.037
700.00,43.106
701.00,43.224
702.00,43.357
703.00,43.492
704.00,43.501
705.00,43.365
706.00,43.500
707.00,44.060
708.00,43.998
709.00,44.178
710.00,44.548
711.00,44.129
712.00,44.147
713.00,44.390
714.00,44.508
715.00,44.556
716.00,44.600
717.00,44.789
718.00,44.847
719.00,44.827
720.00,44.905
721.00,49.358
722.00,49.325
723.00,49.389
724.00,49.362
725.00,49.465
726.00,49.423
727.00,49.480
728.00,49.563
729.00,49.589
730.00,49.711
731.00,49.676
732.00,49.760
733.00,49.807
734.00,49.888
735.00,49.887
736.00,49.880
737.00,49.972
738.00,50.016
739.00,50.128
740.00,50.101
741.00,50.185
742.00,50.261
743.00,50.222
744.00,50.218
745.00,50.275
746.00,50.351
747.00,50.279
748.00,50.317
749.00,50.331
750.00,50.349
751.00,50.360
752.00,50.415
753.00,50.388
754.00,50.413
755.00,50.450
756.00,50.434
757.00,50.517
758.00,50.526
759.00,50.470
760.00,50.511
761.00,50.630
762.00,50.577
763.00,50.619
764.00,50.624
765.00,50.646
766.00,50.669
767.00,50.731
768.00,50.762
769.00,50.737
770.00,50.877
771.00,50.722
772.00,50.860
773.00,50.829
774.00,50.819
775.00,50.932
776.00,50.830
777.00,50.909
778.00,50.917
779.00,50.974
780.00,50.844
781.00,50.909
782.00,50.888
783.00,50.894
784.00,50.915
785.00,50.835
786.00,50.968
787.00,50.857
788.00,50.844
789.00,50.918
790.00,50.947
791.00,51.013
792.00,50.930
793.00,50.856
794.00,50.889
795.00,50.892
796.00,50.925
797.00,50.841
798.00,50.967
799.00,50.814
800.00,50.869
801.00,50.837
802.00,50.865
803.00,50.876
804.00,50.759
805.00,50.856
806.00,50.745
807.00,50.789
808.00,50.806
809.00,50.790
810.00,50.720
811.00,50.773
812.00,50.814
813.00,50.695
814.00,50.732
815.00,50.758
816.00,50.689
817.00,50.705
818.00,50.594
819.00,50.742
820.00,50.618
821.00,50.577
822.00,50.644
823.00,50.574
824.00,50.626
825.00,50.635
826.00,50.536
827.00,50.600
828.00,50.632
829.00,50.552
830.00,50.536
831.00,52.953
832.00,52.920
833.00,52.866
834.00,52.904
835.00,52.881
836.00,52.860
837.00,52.855
838.00,52.818
839.00,52.822
840.00,52.766
841.00,52.778
842.00,52.755
843.00,52.752
844.00,52.778
845.00,52.685
846.00,52.720
847.00,52.666
848.00,52.691
849.00,52.602
850.00,52.619
851.00,52.541
852.00,52.580
853.00,52.522
854.00,52.519
855.00,52.466
856.00,52.495
857.00,52.422
858.00,52.390
859.00,52.380
860.00,52.383
861.00,52.375
862.00,52.344
863.00,52.356
864.00,52.317
865.00,52.348
866.00,52.323
867.00,52.309
868.00,52.290
869.00,52.260
870.00,52.345
871.00,52.321
872.00,52.263
873.00,52.251
874.00,52.253
875.00,52.231
876.00,52.223
877.00,52.224
878.00,52.239
879.00,52.187
880.00,52.194
881.00,52.160
882.00,52.190
883.00,52.134
884.00,52.113
885.00,52.115
886.00,52.096
887.00,52.058
888.00,52.044
889.00,52.043
890.00,52.004
891.00,51.979
892.00,51.958
893.00,51.918
894.00,51.938
895.00,51.925
896.00,51.907
897.00,51.871
898.00,51.834
899.00,51.862
900.00,51.837
901.00,51.828
902.00,51.816
903.00,51.857
904.00,51.829
905.00,51.777
906.00,51.760
907.00,51.739
908.00,51.693
909.00,51.687
910.00,51.656
911.00,51.669
912.00,51.645
913.00,51.633
914.00,51.632
915.00,51.596
916.00,51.558
917.00,51.553
918.00,51.549
919.00,51.501
920.00,51.469
921.00,51.464
922.00,51.462
923.00,51.452
924.00,51.398
925.00,51.403
926.00,51.539
927.00,51.372
928.00,51.347
929.00,51.355
930.00,51.313
931.00,51.306
932.00,51.263
933.00,51.264
934.00,51.253
935.00,51.219
936.00,51.220
937.00,51.194
938.00,51.192
939.00,51.173
940.00,51.176
941.00,51.131
942.00,51.120
943.00,51.098
944.00,51.049
945.00,51.056
946.00,51.080
947.00,51.066
948.00,50.998
949.00,50.976
950.00,50.965
951.00,50.947
952.00,50.928
953.00,50.884
954.00,50.864
955.00,50.814
956.00,50.817
957.00,50.775
958.00,50.793
959.00,50.729
960.00,50.725
961.00,50.735
962.00,50.748
963.00,50.688
964.00,50.703
965.00,50.710
966.00,50.669
967.00,50.670
968.00,50.643
969.00,50.661
970.00,50.623
971.00,50.663
972.00,50.626
973.00,50.667
974.00,50.686
975.00,50.630
976.00,50.650
977.00,50.635
978.00,50.687
979.00,50.633
980.00,50.633
981.00,50.644
982.00,50.602
983.00,50.644
984.00,50.635
985.00,50.619
986.00,50.595
987.00,50.692
988.00,50.604
989.00,50.579
990.00,50.580
991.00,50.569
992.00,50.583
993.00,50.543
994.00,50.533
995.00,50.506
996.00,50.497
997.00,50.487
998.00,50.470
999.00,50.483
1000.00,50.437
1001.00,50.428
1002.00,50.434
1003.00,50.431
1004.00,50.394
1005.00,50.371
1006.00,50.413
1007.00,50.380
1008.00,50.366
1009.00,50.339
1010.00,50.329
1011.00,50.327
1012.00,50.293
1013.00,50.292
1014.00,50.275
1015.00,50.267
1016.00,50.223
1017.00,50.236
1018.00,50.228
1019.00,50.201
1020.00,50.198
1021.00,50.173
1022.00,50.177
1023.00,50.120
1024.00,50.130
1025.00,50.113
1026.00,50.104
1027.00,50.084
1028.00,50.082
1029.00,50.055
1030.00,50.030
1031.00,50.047
1032.00,50.013
1033.00,50.009
1034.00,49.975
1035.00,49.938
1036.00,49.922
1037.00,49.914
1038.00,49.896
1039.00,49.863
1040.00,49.853
1041.00,49.834
1042.00,49.834
1043.00,49.799
1044.00,49.855
1045.00,49.826
1046.00,49.813
1047.00,49.837
1048.00,49.841
1049.00,49.847
1050.00,49.851
1051.00,49.888
1052.00,49.880
1053.00,49.873
1054.00,49.868
1055.00,49.891
1056.00,49.902
1057.00,49.900
1058.00,49.892
1059.00,49.895
1060.00,49.906
1061.00,49.892
1062.00,49.877
1063.00,49.883
1064.00,49.890
1065.00,49.879
1066.00,49.878
1067.00,49.863
1068.00,49.889
1069.00,49.840
1070.00,49.822
1071.00,49.809
1072.00,49.841
1073.00,49.794
1074.00,49.797
1075.00,49.787
1076.00,49.781
1077.00,49.778
1078.00,49.748
1079.00,49.756
1080.00,49.757
1081.00,49.737
1082.00,49.737
1083.00,49.727
1084.00,49.730
1085.00,49.720
1086.00,49.718
1087.00,49.748
1088.00,49.716
1089.00,49.705
1090.00,49.689
1091.00,49.694
1092.00,49.675
1093.00,49.685
1094.00,49.658
1095.00,49.640
1096.00,49.625
1097.00,49.624
1098.00,49.606
1099.00,49.613
1100.00,49.592
1101.00,49.582
1102.00,49.569
1103.00,49.572
1104.00,49.561
1105.00,49.578
1106.00,49.568
1107.00,49.545
1108.00,49.527
1109.00,49.510
1110.00,49.523
1111.00,49.512
1112.00,49.502
1113.00,49.495
1114.00,49.476
1115.00,49.487
1116.00,49.476
1117.00,49.455
1118.00,49.453
1119.00,49.463
1120.00,49.456
1121.00,49.462
1122.00,49.448
1123.00,49.435
1124.00,49.434
1125.00,49.420
1126.00,49.406
1127.00,49.422
1128.00,49.394
1129.00,49.378
1130.00,49.364
1131.00,49.361
1132.00,49.354
1133.00,49.354
1134.00,49.350
1135.00,49.337
1136.00,49.334
1137.00,49.341
1138.00,49.342
1139.00,49.343
1140.00,49.346
1141.00,49.344
1142.00,49.313
1143.00,49.341
1144.00,49.312
1145.00,49.321
1146.00,49.321
1147.00,49.316
1148.00,49.321
1149.00,49.327
1150.00,49.308
1151.00,49.320
1152.00,49.308
1153.00,49.311
1154.00,49.313
1155.00,49.315
1156.00,49.298
1157.00,49.311
1158.00,49.304
1159.00,49.298
1160.00,49.294
1161.00,49.310
1162.00,49.305
1163.00,49.289
1164.00,49.293
1165.00,49.301
1166.00,49.301
1167.00,49.296
1168.00,49.305
1169.00,49.289
1170.00,49.286
1171.00,49.277
1172.00,49.268
1173.00,49.277
1174.00,49.283
1175.00,49.262
1176.00,49.277
1177.00,49.254
1178.00,49.259
1179.00,49.281
1180.00,49.264
1181.00,49.295
1182.00,49.285
1183.00,49.285
1184.00,49.275
1185.00,49.283
1186.00,49.262
1187.00,49.277
1188.00,49.270
1189.00,49.259
1190.00,49.264
1191.00,49.258
1192.00,49.286
1193.00,49.275
1194.00,49.270
1195.00,49.243
1196.00,49.270
1197.00,49.272
1198.00,49.268
1199.00,49.271
1200.00,49.285
1201.00,49.311
1202.00,49.274
1203.00,49.271
1204.00,49.276
1205.00,49.286
1206.00,49.276
1207.00,49.268
1208.00,49.256
1209.00,49.278
1210.00,49.264
1211.00,49.262
1212.00,49.292
1213.00,49.241
1214.00,49.283
1215.00,49.259
1216.00,49.263
1217.00,49.274
1218.00,49.259
1219.00,49.271
1220.00,49.262
1221.00,49.289
1222.00,49.277
1223.00,49.306
1224.00,49.281
1225.00,49.272
1226.00,49.283
1227.00,49.277
1228.00,49.305
1229.00,49.284
1230.00,49.324
1231.00,49.335
1232.00,49.344
1233.00,49.340
1234.00,49.347
1235.00,49.332
1236.00,49.340
1237.00,49.350
1238.00,49.321
1239.00,49.332
1240.00,49.307
1241.00,49.323
1242.00,49.338
1243.00,49.342
1244.00,49.339
1245.00,49.377
1246.00,49.375
1247.00,49.359
1248.00,49.363
1249.00,49.356
1250.00,49.367
1251.00,49.363
1252.00,49.382
1253.00,49.383
1254.00,49.407
1255.00,49.378
1256.00,49.388
1257.00,49.387
1258.00,49.431
1259.00,49.423
1260.00,49.437
1261.00,49.435
1262.00,49.432
1263.00,49.433
1264.00,49.453
1265.00,49.446
1266.00,49.436
1267.00,49.456
1268.00,49.441
1269.00,49.462
1270.00,49.495
1271.00,49.491
1272.00,49.506
1273.00,49.523
1274.00,49.519
1275.00,49.537
1276.00,49.521
1277.00,49.529
1278.00,49.546
1279.00,49.541
1280.00,49.517
1281.00,49.557
1282.00,49.558
1283.00,49.538
1284.00,49.563
1285.00,49.541
1286.00,49.572
1287.00,49.558
1288.00,49.552
1289.00,49.575
1290.00,49.603
1291.00,49.589
1292.00,49.614
1293.00,49.600
1294.00,49.619
1295.00,49.627
1296.00,49.611
1297.00,49.657
1298.00,49.686
1299.00,49.659
1300.00,49.680
1301.00,49.653
1302.00,49.684
1303.00,49.676
1304.00,49.673
1305.00,49.705
1306.00,49.710
1307.00,49.716
1308.00,49.706
1309.00,49.724
1310.00,49.716
1311.00,49.709
1312.00,49.716
1313.00,49.739
1314.00,49.766
1315.00,49.760
1316.00,49.767
1317.00,49.792
1318.00,49.770
1319.00,49.794
1320.00,49.805
1321.00,49.973
1322.00,49.969
1323.00,49.946
1324.00,49.936
1325.00,49.930
1326.00,49.952
1327.00,49.941
1328.00,49.939
1329.00,49.936
1330.00,49.955
1331.00,49.971
1332.00,49.963
1333.00,49.962
1334.00,50.029
1335.00,50.020
1336.00,50.045
1337.00,50.067
1338.00,50.138
1339.00,50.177
1340.00,50.233
1341.00,50.300
1342.00,50.357
1343.00,50.414
1344.00,50.467
1345.00,50.526
1346.00,50.561
1347.00,50.575
1348.00,50.597
1349.00,50.612
1350.00,50.640
1351.00,50.647
1352.00,50.677
1353.00,50.649
1354.00,50.674
1355.00,50.648
1356.00,50.703
1357.00,50.684
1358.00,50.703
1359.00,50.710
1360.00,50.720
1361.00,50.701
1362.00,50.696
1363.00,50.733
1364.00,50.776
1365.00,50.710
1366.00,50.789
1367.00,50.743
1368.00,50.725
1369.00,50.745
1370.00,50.708
1371.00,50.676
1372.00,50.703
1373.00,50.720
1374.00,50.751
1375.00,50.716
1376.00,50.731
1377.00,50.723
1378.00,50.791
1379.00,50.728
1380.00,50.761
1381.00,50.776
1382.00,50.745
1383.00,50.762
1384.00,50.687
1385.00,50.727
1386.00,50.740
1387.00,50.705
1388.00,50.700
1389.00,50.720
1390.00,50.717
1391.00,50.686
1392.00,50.689
1393.00,50.735
1394.00,50.734
1395.00,50.690
1396.00,50.673
1397.00,50.740
1398.00,50.713
1399.00,50.746
1400.00,50.714
1401.00,50.705
1402.00,50.778
1403.00,50.754
1404.00,50.756
1405.00,50.771
1406.00,50.806
1407.00,50.782
1408.00,50.779
1409.00,50.826
1410.00,50.832
1411.00,50.781
1412.00,50.858
1413.00,50.795
1414.00,50.813
1415.00,50.835
1416.00,50.865
1417.00,50.893
1418.00,50.872
1419.00,50.883
1420.00,50.895
1421.00,50.938
1422.00,50.949
1423.00,51.020
1424.00,50.957
1425.00,50.987
1426.00,50.985
1427.00,51.026
1428.00,51.019
1429.00,51.037
1430.00,51.047
1431.00,51.070
1432.00,51.091
1433.00,51.116
1434.00,51.098
1435.00,51.162
1436.00,51.178
1437.00,51.168
1438.00,51.176
1439.00,51.219
1440.00,51.231
1441.00,51.225
1442.00,51.248
1443.00,51.283
1444.00,51.340
1445.00,51.293
1446.00,51.327
1447.00,51.355
1448.00,51.400
1449.00,51.387
1450.00,51.404
1451.00,51.419
1452.00,51.440
1453.00,51.432
1454.00,51.471
1455.00,51.477
1456.00,51.488
1457.00,51.467
1458.00,51.524
1459.00,51.533
1460.00,51.571
1461.00,51.565
1462.00,51.622
1463.00,51.620
1464.00,51.628
1465.00,51.671
1466.00,51.643
1467.00,51.667
1468.00,51.728
1469.00,51.680
1470.00,51.702
1471.00,51.729
1472.00,51.751
1473.00,51.766
1474.00,51.800
1475.00,51.817
1476.00,51.846
1477.00,51.822
1478.00,51.855
1479.00,51.873
1480.00,51.866
1481.00,51.885
1482.00,51.929
1483.00,51.927
1484.00,51.945
1485.00,51.943
1486.00,51.964
1487.00,51.997
1488.00,52.019
1489.00,52.000
1490.00,52.023
1491.00,52.036
1492.00,52.060
1493.00,52.036
1494.00,52.085
1495.00,52.080
1496.00,52.109
1497.00,52.091
1498.00,52.112
1499.00,52.123
1500.00,52.143
1501.00, 
1502.00, 
1503.00, 
1504.00, 
1505.00, 
1506.00, 
1507.00, 
1508.00, 
1509.00, 
1510.00, 
1511.00, 
1512.00, 
1513.00, 
1514.00, 
1515.00, 
1516.00, 
1517.00, 
1518.00, 
1519.00, 
1520.00, 
1521.00, 
1522.00, 
1523.00, 
1524.00, 
1525.00, 
1526.00, 
1527.00, 
1528.00, 
1529.00, 
1530.00, 
1531.00, 
1532.00, 
1533.00, 
1534.00, 
1535.00, 
1536.00, 
1537.00, 
1538.00, 
1539.00, 
1540.00, 
1541.00, 
1542.00, 
1543.00, 
1544.00, 
1545.00, 
1546.00, 
1547.00, 
1548.00, 
1549.00, 
1550.00, 
1551.00, 
1552.00, 
1553.00, 
1554.00, 
1555.00, 
1556.00, 
1557.00, 
1558.00, 
1559.00, 
1560.00, 
1561.00, 
1562.00, 
1563.00, 
1564.00, 
1565.00, 
1566.00, 
1567.00, 
1568.00, 
1569.00, 
1570.00, 
1571.00, 
1572.00, 
1573.00, 
1574.00, 
1575.00, 
1576.00, 
1577.00, 
1578.00, 
1579.00, 
1580.00, 
1581.00, 
1582.00, 
1583.00, 
1584.00, 
1585.00, 
1586.00, 
1587.00, 
1588.00, 
1589.00, 
1590.00, 
1591.00, 
1592.00, 
1593.00, 
1594.00, 
1595.00, 
1596.00, 
1597.00, 
1598.00, 
1599.00, 
1600.00, 
1601.00, 
1602.00, 
1603.00, 
1604.00, 
1605.00, 
1606.00, 
1607.00, 
1608.00, 
1609.00, 
1610.00, 
1611.00, 
1612.00, 
1613.00, 
1614.00, 
1615.00, 
1616.00, 
1617.00, 
1618.00, 
1619.00, 
1620.00, 
1621.00, 
1622.00, 
1623.00, 
1624.00, 
1625.00, 
1626.00, 
1627.00, 
1628.00, 
1629.00, 
1630.00, 
1631.00, 
1632.00, 
1633.00, 
1634.00, 
1635.00, 
1636.00, 
1637.00, 
1638.00, 
1639.00, 
1640.00, 
1641.00, 
1642.00, 
1643.00, 
1644.00, 
1645.00, 
1646.00, 
1647.00, 
1648.00, 
1649.00, 
1650.00, 
1651.00, 
1652.00, 
1653.00, 
1654.00, 
1655.00, 
1656.00, 
1657.00, 
1658.00, 
1659.00, 
1660.00, 
1661.00, 
1662.00, 
1663.00, 
1664.00, 
1665.00, 
1666.00, 
1667.00, 
1668.00, 
1669.00, 
1670.00, 
1671.00, 
1672.00, 
1673.00, 
1674.00, 
1675.00, 
1676.00, 
1677.00, 
1678.00, 
1679.00, 
1680.00, 
1681.00, 
1682.00, 
1683.00, 
1684.00, 
1685.00, 
1686.00, 
1687.00, 
1688.00, 
1689.00, 
1690.00, 
1691.00, 
1692.00, 
1693.00, 
1694.00, 
1695.00, 
1696.00, 
1697.00, 
1698.00, 
1699.00, 
1700.00, 
1701.00, 
1702.00, 
1703.00, 
1704.00, 
1705.00, 
1706.00, 
1707.00, 
1708.00, 
1709.00, 
1710.00, 
1711.00, 
1712.00, 
1713.00, 
1714.00, 
1715.00, 
1716.00, 
1717.00, 
1718.00, 
1719.00, 
1720.00, 
1721.00, 
1722.00, 
1723.00, 
1724.00, 
1725.00, 
1726.00, 
1727.00, 
1728.00, 
1729.00, 
1730.00, 
1731.00, 
1732.00, 
1733.00, 
1734.00, 
1735.00, 
1736.00, 
1737.00, 
1738.00, 
1739.00, 
1740.00, 
1741.00, 
1742.00, 
1743.00, 
1744.00, 
1745.00, 
1746.00, 
1747.00, 
1748.00, 
1749.00, 
1750.00, 
1751.00, 
1752.00, 
1753.00, 
1754.00, 
1755.00, 
1756.00, 
1757.00, 
1758.00, 
1759.00, 
1760.00, 
1761.00, 
1762.00, 
1763.00, 
1764.00, 
1765.00, 
1766.00, 
1767.00, 
1768.00, 
1769.00, 
1770.00, 
1771.00, 
1772.00, 
1773.00, 
1774.00, 
1775.00, 
1776.00, 
1777.00, 
1778.00, 
1779.00, 
1780.00, 
1781.00, 
1782.00, 
1783.00, 
1784.00, 
1785.00, 
1786.00, 
1787.00, 
1788.00, 
1789.00, 
1790.00, 
1791.00, 
1792.00, 
1793.00, 
1794.00, 
1795.00, 
1796.00, 
1797.00, 
1798.00, 
1799.00, 
1800.00, 
1801.00, 
1802.00, 
1803.00, 
1804.00, 
1805.00, 
1806.00, 
1807.00, 
1808.00, 
1809.00, 
1810.00, 
1811.00, 
1812.00, 
1813.00, 
1814.00, 
1815.00, 
1816.00, 
1817.00, 
1818.00, 
1819.00, 
1820.00, 
1821.00, 
1822.00, 
1823.00, 
1824.00, 
1825.00, 
1826.00, 
1827.00, 
1828.00, 
1829.00, 
1830.00, 
1831.00, 
1832.00, 
1833.00, 
1834.00, 
1835.00, 
1836.00, 
1837.00, 
1838.00, 
1839.00, 
1840.00, 
1841.00, 
1842.00, 
1843.00, 
1844.00, 
1845.00, 
1846.00, 
1847.00, 
1848.00, 
1849.00, 
1850.00, 
1851.00, 
1852.00, 
1853.00, 
1854.00, 
1855.00, 
1856.00, 
1857.00, 
1858.00, 
1859.00, 
1860.00, 
1861.00, 
1862.00, 
1863.00, 
1864.00, 
1865.00, 
1866.00, 
1867.00, 
1868.00, 
1869.00, 
1870.00, 
1871.00, 
1872.00, 
1873.00, 
1874.00, 
1875.00, 
1876.00, 
1877.00, 
1878.00, 
1879.00, 
1880.00, 
1881.00, 
1882.00, 
1883.00, 
1884.00, 
1885.00, 
1886.00, 
1887.00, 
1888.00, 
1889.00, 
1890.00, 
1891.00, 
1892.00, 
1893.00, 
1894.00, 
1895.00, 
1896.00, 
1897.00, 
1898.00, 
1899.00, 
1900.00, 
1901.00, 
1902.00, 
1903.00, 
1904.00, 
1905.00, 
1906.00, 
1907.00, 
1908.00, 
1909.00, 
1910.00, 
1911.00, 
1912.00, 
1913.00, 
1914.00, 
1915.00, 
1916.00, 
1917.00, 
1918.00, 
1919.00, 
1920.00, 
1921.00, 
1922.00, 
1923.00, 
1924.00, 
1925.00, 
1926.00, 
1927.00, 
1928.00, 
1929.00, 
1930.00, 
1931.00, 
1932.00, 
1933.00, 
1934.00, 
1935.00, 
1936.00, 
1937.00, 
1938.00, 
1939.00, 
1940.00, 
1941.00, 
1942.00, 
1943.00, 
1944.00, 
1945.00, 
1946.00, 
1947.00, 
1948.00, 
1949.00, 
1950.00, 
1951.00, 
1952.00, 
1953.00, 
1954.00, 
1955.00, 
1956.00, 
1957.00, 
1958.00, 
1959.00, 
1960.00, 
1961.00, 
1962.00, 
1963.00, 
1964.00, 
1965.00, 
1966.00, 
1967.00, 
1968.00, 
1969.00, 
1970.00, 
1971.00, 
1972.00, 
1973.00, 
1974.00, 
1975.00, 
1976.00, 
1977.00, 
1978.00, 
1979.00, 
1980.00, 
1981.00, 
1982.00, 
1983.00, 
1984.00, 
1985.00, 
1986.00, 
1987.00, 
1988.00, 
1989.00, 
1990.00, 
1991.00, 
1992.00, 
1993.00, 
1994.00, 
1995.00, 
1996.00, 
1997.00, 
1998.00, 
1999.00, 
2000.00, 
2001.00, 
2002.00, 
2003.00, 
2004.00, 
2005.00, 
2006.00, 
2007.00, 
2008.00, 
2009.00, 
2010.00, 
2011.00, 
2012.00, 
2013.00, 
2014.00, 
2015.00, 
2016.00, 
2017.00, 
2018.00, 
2019.00, 
2020.00, 
2021.00, 
2022.00, 
2023.00, 
2024.00, 
2025.00, 
2026.00, 
2027.00, 
2028.00, 
2029.00, 
2030.00, 
2031.00, 
2032.00, 
2033.00, 
2034.00, 
2035.00, 
2036.00, 
2037.00, 
2038.00, 
2039.00, 
2040.00, 
2041.00, 
2042.00, 
2043.00, 
2044.00, 
2045.00, 
2046.00, 
2047.00, 
2048.00, 
2049.00, 
2050.00, 
2051.00, 
2052.00, 
2053.00, 
2054.00, 
2055.00, 
2056.00, 
2057.00, 
2058.00, 
2059.00, 
2060.00, 
2061.00, 
2062.00, 
2063.00, 
2064.00, 
2065.00, 
2066.00, 
2067.00, 
2068.00, 
2069.00, 
2070.00, 
2071.00, 
2072.00, 
2073.00, 
2074.00, 
2075.00, 
2076.00, 
2077.00, 
2078.00, 
2079.00, 
2080.00, 
2081.00, 
2082.00, 
2083.00, 
2084.00, 
2085.00, 
2086.00, 
2087.00, 
2088.00, 
2089.00, 
2090.00, 
2091.00, 
2092.00, 
2093.00, 
2094.00, 
2095.00, 
2096.00, 
2097.00, 
2098.00, 
2099.00, 
2100.00, 
2101.00, 
2102.00, 
2103.00, 
2104.00, 
2105.00, 
2106.00, 
2107.00, 
2108.00, 
2109.00, 
2110.00, 
2111.00, 
2112.00, 
2113.00, 
2114.00, 
2115.00, 
2116.00, 
2117.00, 
2118.00, 
2119.00, 
2120.00, 
2121.00, 
2122.00, 
2123.00, 
2124.00, 
2125.00, 
2126.00, 
2127.00, 
2128.00, 
2129.00, 
2130.00, 
2131.00, 
2132.00, 
2133.00, 
2134.00, 
2135.00, 
2136.00, 
2137.00, 
2138.00, 
2139.00, 
2140.00, 
2141.00, 
2142.00, 
2143.00, 
2144.00, 
2145.00, 
2146.00, 
2147.00, 
2148.00, 
2149.00, 
2150.00, 
2151.00, 
2152.00, 
2153.00, 
2154.00, 
2155.00, 
2156.00, 
2157.00, 
2158.00, 
2159.00, 
2160.00, 
2161.00, 
2162.00, 
2163.00, 
2164.00, 
2165.00, 
2166.00, 
2167.00, 
2168.00, 
2169.00, 
2170.00, 
2171.00, 
2172.00, 
2173.00, 
2174.00, 
2175.00, 
2176.00, 
2177.00, 
2178.00, 
2179.00, 
2180.00, 
2181.00, 
2182.00, 
2183.00, 
2184.00, 
2185.00, 
2186.00, 
2187.00, 
2188.00, 
2189.00, 
2190.00, 
2191.00, 
2192.00, 
2193.00, 
2194.00, 
2195.00, 
2196.00, 
2197.00, 
2198.00, 
2199.00, 
2200.00, 
2201.00, 
2202.00, 
2203.00, 
2204.00, 
2205.00, 
2206.00, 
2207.00, 
2208.00, 
2209.00, 
2210.00, 
2211.00, 
2212.00, 
2213.00, 
2214.00, 
2215.00, 
2216.00, 
2217.00, 
2218.00, 
2219.00, 
2220.00, 
2221.00, 
2222.00, 
2223.00, 
2224.00, 
2225.00, 
2226.00, 
2227.00, 
2228.00, 
2229.00, 
2230.00, 
2231.00, 
2232.00, 
2233.00, 
2234.00, 
2235.00, 
2236.00, 
2237.00, 
2238.00, 
2239.00, 
2240.00, 
2241.00, 
2242.00, 
2243.00, 
2244.00, 
2245.00, 
2246.00, 
2247.00, 
2248.00, 
2249.00, 
2250.00, 
2251.00, 
2252.00, 
2253.00, 
2254.00, 
2255.00, 
2256.00, 
2257.00, 
2258.00, 
2259.00, 
2260.00, 
2261.00, 
2262.00, 
2263.00, 
2264.00, 
2265.00, 
2266.00, 
2267.00, 
2268.00, 
2269.00, 
2270.00, 
2271.00, 
2272.00, 
2273.00, 
2274.00, 
2275.00, 
2276.00, 
2277.00, 
2278.00, 
2279.00, 
2280.00, 
2281.00, 
2282.00, 
2283.00, 
2284.00, 
2285.00, 
2286.00, 
2287.00, 
2288.00, 
2289.00, 
2290.00, 
2291.00, 
2292.00, 
2293.00, 
2294.00, 
2295.00, 
2296.00, 
2297.00, 
2298.00, 
2299.00, 
2300.00, 
2301.00, 
2302.00, 
2303.00, 
2304.00, 
2305.00, 
2306.00, 
2307.00, 
2308.00, 
2309.00, 
2310.00, 
2311.00, 
2312.00, 
2313.00, 
2314.00, 
2315.00, 
2316.00, 
2317.00, 
2318.00, 
2319.00, 
2320.00, 
2321.00, 
2322.00, 
2323.00, 
2324.00, 
2325.00, 
2326.00, 
2327.00, 
2328.00, 
2329.00, 
2330.00, 
2331.00, 
2332.00, 
2333.00, 
2334.00, 
2335.00, 
2336.00, 
2337.00, 
2338.00, 
2339.00, 
2340.00, 
2341.00, 
2342.00, 
2343.00, 
2344.00, 
2345.00, 
2346.00, 
2347.00, 
2348.00, 
2349.00, 
2350.00, 
2351.00, 
2352.00, 
2353.00, 
2354.00, 
2355.00, 
2356.00, 
2357.00, 
2358.00, 
2359.00, 
2360.00, 
2361.00, 
2362.00, 
2363.00, 
2364.00, 
2365.00, 
2366.00, 
2367.00, 
2368.00, 
2369.00, 
2370.00, 
2371.00, 
2372.00, 
2373.00, 
2374.00, 
2375.00, 
2376.00, 
2377.00, 
2378.00, 
2379.00, 
2380.00, 
2381.00, 
2382.00, 
2383.00, 
2384.00, 
2385.00, 
2386.00, 
2387.00, 
2388.00, 
2389.00, 
2390.00, 
2391.00, 
2392.00, 
2393.00, 
2394.00, 
2395.00, 
2396.00, 
2397.00, 
2398.00, 
2399.00, 
2400.00, 
2401.00, 
2402.00, 
2403.00, 
2404.00, 
2405.00, 
2406.00, 
2407.00, 
2408.00, 
2409.00, 
2410.00, 
2411.00, 
2412.00, 
2413.00, 
2414.00, 
2415.00, 
2416.00, 
2417.00, 
2418.00, 
2419.00, 
2420.00, 
2421.00, 
2422.00, 
2423.00, 
2424.00, 
2425.00, 
2426.00, 
2427.00, 
2428.00, 
2429.00, 
2430.00, 
2431.00, 
2432.00, 
2433.00, 
2434.00, 
2435.00, 
2436.00, 
2437.00, 
2438.00, 
2439.00, 
2440.00, 
2441.00, 
2442.00, 
2443.00, 
2444.00, 
2445.00, 
2446.00, 
2447.00, 
2448.00, 
2449.00, 
2450.00, 
2451.00, 
2452.00, 
2453.00, 
2454.00, 
2455.00, 
2456.00, 
2457.00, 
2458.00, 
2459.00, 
2460.00, 
2461.00, 
2462.00, 
2463.00, 
2464.00, 
2465.00, 
2466.00, 
2467.00, 
2468.00, 
2469.00, 
2470.00, 
2471.00, 
2472.00, 
2473.00, 
2474.00, 
2475.00, 
2476.00, 
2477.00, 
2478.00, 
2479.00, 
2480.00, 
2481.00, 
2482.00, 
2483.00, 
2484.00, 
2485.00, 
2486.00, 
2487.00, 
2488.00, 
2489.00, 
2490.00, 
2491.00, 
2492.00, 
2493.00, 
2494.00, 
2495.00, 
2496.00, 
2497.00, 
2498.00, 
2499.00, 
2500.00, 
2501.00, 
2502.00, 
2503.00, 
2504.00, 
2505.00, 
2506.00, 
2507.00, 
2508.00, 
2509.00, 
2510.00, 
2511.00, 
2512.00, 
2513.00, 
2514.00, 
2515.00, 
2516.00, 
2517.00, 
2518.00, 
2519.00, 
2520.00, 
2521.00, 
2522.00, 
2523.00, 
2524.00, 
2525.00, 
2526.00, 
2527.00, 
2528.00, 
2529.00, 
2530.00, 
2531.00, 
2532.00, 
2533.00, 
2534.00, 
2535.00, 
2536.00, 
2537.00, 
2538.00, 
2539.00, 
2540.00, 
2541.00, 
2542.00, 
2543.00, 
2544.00, 
2545.00, 
2546.00, 
2547.00, 
2548.00, 
2549.00, 
2550.00, 
2551.00, 
2552.00, 
2553.00, 
2554.00, 
2555.00, 
2556.00, 
2557.00, 
2558.00, 
2559.00, 
2560.00, 
2561.00, 
2562.00, 
2563.00, 
2564.00, 
2565.00, 
2566.00, 
2567.00, 
2568.00, 
2569.00, 
2570.00, 
2571.00, 
2572.00, 
2573.00, 
2574.00, 
2575.00, 
2576.00, 
2577.00, 
2578.00, 
2579.00, 
2580.00, 
2581.00, 
2582.00, 
2583.00, 
2584.00, 
2585.00, 
2586.00, 
2587.00, 
2588.00, 
2589.00, 
2590.00, 
2591.00, 
2592.00, 
2593.00, 
2594.00, 
2595.00, 
2596.00, 
2597.00, 
2598.00, 
2599.00, 
2600.00, 
