"2aP2 - RawData"
"Wavelength nm.","T%"
200.00,0.004
201.00,0.003
202.00,0.005
203.00,-0.000
204.00,0.001
205.00,-0.001
206.00,0.003
207.00,0.000
208.00,0.005
209.00,0.003
210.00,0.003
211.00,0.004
212.00,0.002
213.00,0.001
214.00,0.002
215.00,0.002
216.00,-0.000
217.00,0.001
218.00,0.002
219.00,0.002
220.00,0.000
221.00,-0.000
222.00,-0.000
223.00,0.001
224.00,0.002
225.00,0.004
226.00,-0.000
227.00,0.001
228.00,0.001
229.00,0.002
230.00,0.003
231.00,0.003
232.00,0.002
233.00,0.004
234.00,0.003
235.00,0.000
236.00,0.001
237.00,0.002
238.00,0.003
239.00,0.001
240.00,-0.001
241.00,0.002
242.00,0.001
243.00,-0.000
244.00,0.001
245.00,-0.001
246.00,0.001
247.00,0.001
248.00,-0.000
249.00,-0.001
250.00,0.002
251.00,0.001
252.00,0.000
253.00,-0.000
254.00,0.000
255.00,0.000
256.00,0.001
257.00,0.000
258.00,0.001
259.00,0.001
260.00,0.002
261.00,0.001
262.00,0.000
263.00,0.001
264.00,-0.001
265.00,0.000
266.00,0.001
267.00,0.003
268.00,0.000
269.00,-0.000
270.00,0.001
271.00,0.001
272.00,-0.000
273.00,0.001
274.00,0.000
275.00,-0.001
276.00,0.001
277.00,0.000
278.00,-0.001
279.00,-0.000
280.00,0.002
281.00,0.002
282.00,0.002
283.00,-0.000
284.00,-0.001
285.00,-0.000
286.00,0.002
287.00,0.000
288.00,-0.000
289.00,0.000
290.00,0.001
291.00,-0.001
292.00,0.002
293.00,-0.000
294.00,0.001
295.00,0.001
296.00,0.000
297.00,0.001
298.00,-0.000
299.00,0.000
300.00,0.003
301.00,0.003
302.00,0.006
303.00,0.008
304.00,0.009
305.00,0.016
306.00,0.021
307.00,0.033
308.00,0.054
309.00,0.081
310.00,0.111
311.00,0.152
312.00,0.206
313.00,0.277
314.00,0.364
315.00,0.469
316.00,0.601
317.00,0.764
318.00,0.931
319.00,1.154
320.00,1.404
321.00,1.670
322.00,1.977
323.00,2.331
324.00,2.686
325.00,3.077
326.00,3.463
327.00,3.904
328.00,4.373
329.00,4.761
330.00,5.285
331.00,5.790
332.00,6.280
333.00,6.799
334.00,7.276
335.00,7.798
336.00,8.302
337.00,8.820
338.00,9.326
339.00,9.766
340.00,10.246
341.00,10.682
342.00,11.149
343.00,11.523
344.00,11.887
345.00,12.318
346.00,12.655
347.00,12.963
348.00,13.278
349.00,13.582
350.00,13.857
351.00,14.114
352.00,14.327
353.00,14.568
354.00,14.765
355.00,15.000
356.00,15.137
357.00,15.295
358.00,15.471
359.00,15.605
360.00,15.768
361.00,15.860
362.00,15.971
363.00,16.111
364.00,16.104
365.00,16.209
366.00,16.272
367.00,16.331
368.00,16.341
369.00,16.335
370.00,16.369
371.00,16.410
372.00,16.350
373.00,16.352
374.00,16.336
375.00,16.349
376.00,16.293
377.00,16.268
378.00,16.202
379.00,16.107
380.00,16.100
381.00,16.073
382.00,16.054
383.00,16.058
384.00,16.031
385.00,16.069
386.00,16.042
387.00,16.077
388.00,16.116
389.00,16.078
390.00,16.108
391.00,16.115
392.00,16.105
393.00,16.104
394.00,16.081
395.00,16.106
396.00,16.079
397.00,16.067
398.00,16.064
399.00,16.063
400.00,16.054
401.00,16.071
402.00,16.046
403.00,16.050
404.00,16.025
405.00,15.988
406.00,16.002
407.00,15.986
408.00,15.993
409.00,15.937
410.00,15.933
411.00,15.880
412.00,15.853
413.00,15.890
414.00,15.855
415.00,15.877
416.00,15.927
417.00,15.889
418.00,15.964
419.00,15.986
420.00,16.040
421.00,16.063
422.00,16.063
423.00,16.124
424.00,16.150
425.00,16.195
426.00,16.219
427.00,16.266
428.00,16.311
429.00,16.330
430.00,16.391
431.00,16.440
432.00,16.466
433.00,16.544
434.00,16.600
435.00,16.662
436.00,16.728
437.00,16.809
438.00,16.876
439.00,16.946
440.00,16.988
441.00,17.099
442.00,17.162
443.00,17.270
444.00,17.373
445.00,17.430
446.00,17.532
447.00,17.608
448.00,17.700
449.00,17.823
450.00,17.923
451.00,17.987
452.00,18.096
453.00,18.238
454.00,18.320
455.00,18.406
456.00,18.555
457.00,18.651
458.00,18.793
459.00,18.908
460.00,19.041
461.00,19.175
462.00,19.269
463.00,19.460
464.00,19.564
465.00,19.692
466.00,19.820
467.00,19.965
468.00,20.083
469.00,20.193
470.00,20.317
471.00,20.412
472.00,20.549
473.00,20.653
474.00,20.802
475.00,20.903
476.00,20.989
477.00,21.157
478.00,21.263
479.00,21.454
480.00,21.623
481.00,21.736
482.00,21.902
483.00,22.058
484.00,22.225
485.00,22.394
486.00,22.536
487.00,22.693
488.00,22.831
489.00,22.981
490.00,23.183
491.00,23.319
492.00,23.466
493.00,23.660
494.00,23.838
495.00,23.870
496.00,24.002
497.00,24.123
498.00,24.308
499.00,24.475
500.00,24.601
501.00,24.713
502.00,24.859
503.00,25.002
504.00,25.080
505.00,25.238
506.00,25.408
507.00,25.494
508.00,25.600
509.00,25.789
510.00,25.930
511.00,25.999
512.00,26.194
513.00,26.361
514.00,26.436
515.00,26.645
516.00,26.764
517.00,26.777
518.00,26.888
519.00,27.038
520.00,27.133
521.00,27.263
522.00,27.370
523.00,27.438
524.00,27.574
525.00,27.690
526.00,27.798
527.00,27.859
528.00,27.969
529.00,28.150
530.00,28.330
531.00,28.356
532.00,28.463
533.00,28.565
534.00,28.701
535.00,28.775
536.00,28.841
537.00,28.958
538.00,29.017
539.00,29.099
540.00,29.198
541.00,29.255
542.00,29.333
543.00,29.399
544.00,29.520
545.00,29.551
546.00,29.581
547.00,29.739
548.00,29.825
549.00,29.916
550.00,29.987
551.00,30.078
552.00,30.186
553.00,30.240
554.00,30.345
555.00,30.346
556.00,30.434
557.00,30.502
558.00,30.530
559.00,30.620
560.00,30.700
561.00,30.837
562.00,30.813
563.00,30.903
564.00,30.982
565.00,31.009
566.00,31.031
567.00,31.120
568.00,31.118
569.00,31.190
570.00,31.247
571.00,31.296
572.00,31.366
573.00,31.341
574.00,31.410
575.00,31.432
576.00,31.423
577.00,31.537
578.00,31.617
579.00,31.657
580.00,31.708
581.00,31.873
582.00,31.969
583.00,31.930
584.00,32.055
585.00,32.102
586.00,32.142
587.00,32.231
588.00,32.267
589.00,32.282
590.00,32.355
591.00,32.407
592.00,32.291
593.00,32.436
594.00,32.557
595.00,32.638
596.00,32.778
597.00,32.853
598.00,32.813
599.00,32.836
600.00,32.885
601.00,32.918
602.00,32.988
603.00,33.065
604.00,33.114
605.00,33.201
606.00,33.154
607.00,33.234
608.00,33.394
609.00,33.489
610.00,33.340
611.00,33.490
612.00,33.535
613.00,33.617
614.00,33.665
615.00,33.755
616.00,33.846
617.00,33.849
618.00,33.903
619.00,34.020
620.00,34.043
621.00,34.118
622.00,34.175
623.00,34.268
624.00,34.334
625.00,34.421
626.00,34.450
627.00,34.546
628.00,34.587
629.00,34.638
630.00,34.734
631.00,34.811
632.00,34.869
633.00,34.940
634.00,35.048
635.00,35.242
636.00,35.365
637.00,35.401
638.00,35.474
639.00,35.648
640.00,35.668
641.00,35.722
642.00,35.827
643.00,35.911
644.00,36.013
645.00,36.130
646.00,36.317
647.00,36.393
648.00,36.550
649.00,36.604
650.00,36.555
651.00,36.790
652.00,36.875
653.00,36.923
654.00,37.024
655.00,37.255
656.00,37.501
657.00,37.351
658.00,37.569
659.00,37.772
660.00,37.822
661.00,37.821
662.00,37.934
663.00,38.076
664.00,38.389
665.00,38.527
666.00,38.514
667.00,38.615
668.00,38.660
669.00,38.954
670.00,39.163
671.00,39.043
672.00,39.222
673.00,39.298
674.00,39.463
675.00,39.567
676.00,39.789
677.00,39.991
678.00,39.812
679.00,40.092
680.00,40.228
681.00,40.398
682.00,40.384
683.00,40.526
684.00,40.752
685.00,40.829
686.00,40.804
687.00,40.791
688.00,40.850
689.00,41.132
690.00,41.427
691.00,41.740
692.00,41.598
693.00,41.623
694.00,41.780
695.00,41.997
696.00,42.143
697.00,42.194
698.00,42.325
699.00,42.653
700.00,42.604
701.00,42.680
702.00,42.859
703.00,43.046
704.00,43.210
705.00,43.211
706.00,43.358
707.00,43.422
708.00,43.377
709.00,43.744
710.00,44.160
711.00,43.813
712.00,43.855
713.00,44.174
714.00,44.272
715.00,44.270
716.00,44.310
717.00,44.501
718.00,44.600
719.00,44.677
720.00,44.836
721.00,49.185
722.00,49.155
723.00,49.248
724.00,49.252
725.00,49.391
726.00,49.432
727.00,49.515
728.00,49.606
729.00,49.667
730.00,49.767
731.00,49.730
732.00,49.762
733.00,49.915
734.00,49.986
735.00,50.046
736.00,50.094
737.00,50.174
738.00,50.218
739.00,50.342
740.00,50.350
741.00,50.443
742.00,50.473
743.00,50.497
744.00,50.547
745.00,50.682
746.00,50.694
747.00,50.699
748.00,50.734
749.00,50.754
750.00,50.748
751.00,50.875
752.00,50.879
753.00,50.945
754.00,50.950
755.00,50.971
756.00,51.057
757.00,51.082
758.00,51.090
759.00,51.115
760.00,51.145
761.00,51.134
762.00,51.236
763.00,51.261
764.00,51.227
765.00,51.325
766.00,51.373
767.00,51.461
768.00,51.518
769.00,51.489
770.00,51.595
771.00,51.480
772.00,51.692
773.00,51.584
774.00,51.649
775.00,51.750
776.00,51.679
777.00,51.763
778.00,51.826
779.00,51.877
780.00,51.799
781.00,51.858
782.00,51.826
783.00,51.848
784.00,51.901
785.00,51.823
786.00,51.920
787.00,51.870
788.00,51.936
789.00,51.914
790.00,51.907
791.00,52.026
792.00,51.986
793.00,51.876
794.00,51.936
795.00,51.996
796.00,51.971
797.00,51.974
798.00,52.081
799.00,51.937
800.00,52.005
801.00,51.957
802.00,51.987
803.00,52.034
804.00,51.863
805.00,52.050
806.00,51.971
807.00,51.964
808.00,51.962
809.00,52.015
810.00,51.948
811.00,51.996
812.00,52.069
813.00,51.926
814.00,52.054
815.00,51.999
816.00,51.956
817.00,51.841
818.00,51.853
819.00,52.020
820.00,51.860
821.00,51.907
822.00,51.823
823.00,51.947
824.00,51.946
825.00,51.963
826.00,51.840
827.00,51.958
828.00,52.000
829.00,51.919
830.00,51.901
831.00,54.080
832.00,54.038
833.00,54.003
834.00,54.046
835.00,54.004
836.00,53.991
837.00,54.000
838.00,53.993
839.00,53.969
840.00,53.909
841.00,53.958
842.00,53.940
843.00,53.954
844.00,53.919
845.00,53.888
846.00,53.903
847.00,53.878
848.00,53.900
849.00,53.829
850.00,53.818
851.00,53.728
852.00,53.800
853.00,53.710
854.00,53.776
855.00,53.723
856.00,53.733
857.00,53.690
858.00,53.644
859.00,53.636
860.00,53.660
861.00,53.638
862.00,53.530
863.00,53.639
864.00,53.566
865.00,53.602
866.00,53.566
867.00,53.566
868.00,53.553
869.00,53.566
870.00,53.556
871.00,53.584
872.00,53.554
873.00,53.539
874.00,53.543
875.00,53.546
876.00,53.525
877.00,53.461
878.00,53.567
879.00,53.498
880.00,53.486
881.00,53.464
882.00,53.510
883.00,53.460
884.00,53.431
885.00,53.410
886.00,53.407
887.00,53.366
888.00,53.361
889.00,53.337
890.00,53.327
891.00,53.303
892.00,53.273
893.00,53.252
894.00,53.267
895.00,53.223
896.00,53.215
897.00,53.212
898.00,53.175
899.00,53.206
900.00,53.171
901.00,53.159
902.00,53.140
903.00,53.167
904.00,53.186
905.00,53.099
906.00,53.064
907.00,53.221
908.00,53.051
909.00,53.053
910.00,53.031
911.00,53.034
912.00,53.013
913.00,52.965
914.00,52.945
915.00,52.954
916.00,52.924
917.00,52.909
918.00,52.890
919.00,52.847
920.00,52.840
921.00,52.841
922.00,52.837
923.00,52.810
924.00,52.802
925.00,52.791
926.00,52.753
927.00,52.758
928.00,52.734
929.00,52.740
930.00,52.693
931.00,52.705
932.00,52.639
933.00,52.655
934.00,52.638
935.00,52.616
936.00,52.590
937.00,52.570
938.00,52.561
939.00,52.542
940.00,52.544
941.00,52.506
942.00,52.494
943.00,52.478
944.00,52.429
945.00,52.448
946.00,52.484
947.00,52.447
948.00,52.368
949.00,52.435
950.00,52.349
951.00,52.313
952.00,52.307
953.00,52.277
954.00,52.267
955.00,52.223
956.00,52.215
957.00,52.171
958.00,52.198
959.00,52.135
960.00,52.124
961.00,52.144
962.00,52.125
963.00,52.037
964.00,52.089
965.00,52.071
966.00,52.059
967.00,52.065
968.00,52.019
969.00,52.068
970.00,52.040
971.00,52.024
972.00,51.999
973.00,52.048
974.00,52.068
975.00,52.015
976.00,52.043
977.00,52.089
978.00,52.152
979.00,52.025
980.00,52.039
981.00,52.039
982.00,51.996
983.00,52.030
984.00,52.003
985.00,52.012
986.00,51.980
987.00,51.996
988.00,51.975
989.00,51.963
990.00,51.953
991.00,51.937
992.00,51.952
993.00,51.902
994.00,51.901
995.00,51.881
996.00,51.880
997.00,51.872
998.00,51.836
999.00,51.863
1000.00,51.814
1001.00,51.802
1002.00,51.813
1003.00,51.802
1004.00,51.777
1005.00,51.761
1006.00,51.803
1007.00,51.771
1008.00,51.734
1009.00,51.710
1010.00,51.749
1011.00,51.708
1012.00,51.666
1013.00,51.676
1014.00,51.640
1015.00,51.654
1016.00,51.625
1017.00,51.614
1018.00,51.598
1019.00,51.575
1020.00,51.567
1021.00,51.550
1022.00,51.540
1023.00,51.475
1024.00,51.510
1025.00,51.494
1026.00,51.470
1027.00,51.456
1028.00,51.453
1029.00,51.436
1030.00,51.416
1031.00,51.411
1032.00,51.388
1033.00,51.380
1034.00,51.340
1035.00,51.316
1036.00,51.294
1037.00,51.273
1038.00,51.265
1039.00,51.224
1040.00,51.220
1041.00,51.185
1042.00,51.186
1043.00,51.158
1044.00,51.199
1045.00,51.156
1046.00,51.117
1047.00,51.148
1048.00,51.170
1049.00,51.194
1050.00,51.189
1051.00,51.224
1052.00,51.226
1053.00,51.219
1054.00,51.240
1055.00,51.282
1056.00,51.262
1057.00,51.264
1058.00,51.256
1059.00,51.251
1060.00,51.275
1061.00,51.238
1062.00,51.234
1063.00,51.248
1064.00,51.241
1065.00,51.223
1066.00,51.214
1067.00,51.201
1068.00,51.206
1069.00,51.157
1070.00,51.159
1071.00,51.156
1072.00,51.189
1073.00,51.144
1074.00,51.149
1075.00,51.140
1076.00,51.139
1077.00,51.122
1078.00,51.082
1079.00,51.101
1080.00,51.095
1081.00,51.073
1082.00,51.090
1083.00,51.060
1084.00,51.049
1085.00,51.066
1086.00,51.025
1087.00,51.033
1088.00,51.015
1089.00,51.006
1090.00,51.005
1091.00,51.020
1092.00,50.981
1093.00,50.982
1094.00,50.961
1095.00,50.954
1096.00,50.938
1097.00,50.934
1098.00,50.930
1099.00,50.907
1100.00,50.896
1101.00,50.925
1102.00,50.880
1103.00,50.875
1104.00,50.873
1105.00,50.875
1106.00,50.843
1107.00,50.848
1108.00,50.839
1109.00,50.832
1110.00,50.833
1111.00,50.830
1112.00,50.792
1113.00,50.788
1114.00,50.774
1115.00,50.788
1116.00,50.772
1117.00,50.750
1118.00,50.749
1119.00,50.755
1120.00,50.747
1121.00,50.743
1122.00,50.723
1123.00,50.724
1124.00,50.710
1125.00,50.701
1126.00,50.707
1127.00,50.697
1128.00,50.678
1129.00,50.671
1130.00,50.652
1131.00,50.672
1132.00,50.652
1133.00,50.637
1134.00,50.641
1135.00,50.631
1136.00,50.615
1137.00,50.625
1138.00,50.630
1139.00,50.626
1140.00,50.611
1141.00,50.603
1142.00,50.594
1143.00,50.612
1144.00,50.571
1145.00,50.584
1146.00,50.569
1147.00,50.565
1148.00,50.569
1149.00,50.581
1150.00,50.568
1151.00,50.566
1152.00,50.549
1153.00,50.549
1154.00,50.542
1155.00,50.547
1156.00,50.539
1157.00,50.557
1158.00,50.529
1159.00,50.535
1160.00,50.524
1161.00,50.538
1162.00,50.550
1163.00,50.516
1164.00,50.537
1165.00,50.532
1166.00,50.524
1167.00,50.520
1168.00,50.530
1169.00,50.506
1170.00,50.519
1171.00,50.498
1172.00,50.495
1173.00,50.501
1174.00,50.499
1175.00,50.493
1176.00,50.497
1177.00,50.470
1178.00,50.491
1179.00,50.506
1180.00,50.481
1181.00,50.502
1182.00,50.487
1183.00,50.472
1184.00,50.477
1185.00,50.478
1186.00,50.470
1187.00,50.477
1188.00,50.466
1189.00,50.472
1190.00,50.471
1191.00,50.448
1192.00,50.477
1193.00,50.456
1194.00,50.457
1195.00,50.433
1196.00,50.452
1197.00,50.461
1198.00,50.443
1199.00,50.446
1200.00,50.456
1201.00,50.474
1202.00,50.445
1203.00,50.450
1204.00,50.442
1205.00,50.456
1206.00,50.440
1207.00,50.428
1208.00,50.425
1209.00,50.431
1210.00,50.412
1211.00,50.413
1212.00,50.431
1213.00,50.384
1214.00,50.427
1215.00,50.407
1216.00,50.414
1217.00,50.421
1218.00,50.404
1219.00,50.425
1220.00,50.425
1221.00,50.419
1222.00,50.414
1223.00,50.453
1224.00,50.421
1225.00,50.416
1226.00,50.422
1227.00,50.418
1228.00,50.444
1229.00,50.420
1230.00,50.476
1231.00,50.459
1232.00,50.471
1233.00,50.479
1234.00,50.483
1235.00,50.472
1236.00,50.470
1237.00,50.477
1238.00,50.461
1239.00,50.482
1240.00,50.450
1241.00,50.479
1242.00,50.492
1243.00,50.495
1244.00,50.497
1245.00,50.507
1246.00,50.501
1247.00,50.482
1248.00,50.488
1249.00,50.488
1250.00,50.492
1251.00,50.478
1252.00,50.490
1253.00,50.485
1254.00,50.502
1255.00,50.498
1256.00,50.486
1257.00,50.468
1258.00,50.530
1259.00,50.508
1260.00,50.526
1261.00,50.521
1262.00,50.504
1263.00,50.511
1264.00,50.503
1265.00,50.494
1266.00,50.497
1267.00,50.530
1268.00,50.515
1269.00,50.535
1270.00,50.536
1271.00,50.534
1272.00,50.552
1273.00,50.556
1274.00,50.566
1275.00,50.569
1276.00,50.562
1277.00,50.581
1278.00,50.588
1279.00,50.585
1280.00,50.577
1281.00,50.600
1282.00,50.597
1283.00,50.594
1284.00,50.642
1285.00,50.599
1286.00,50.623
1287.00,50.600
1288.00,50.627
1289.00,50.609
1290.00,50.641
1291.00,50.627
1292.00,50.630
1293.00,50.631
1294.00,50.653
1295.00,50.657
1296.00,50.652
1297.00,50.686
1298.00,50.696
1299.00,50.677
1300.00,50.703
1301.00,50.671
1302.00,50.699
1303.00,50.693
1304.00,50.667
1305.00,50.708
1306.00,50.686
1307.00,50.701
1308.00,50.693
1309.00,50.695
1310.00,50.714
1311.00,50.707
1312.00,50.709
1313.00,50.734
1314.00,50.752
1315.00,50.749
1316.00,50.736
1317.00,50.759
1318.00,50.764
1319.00,50.757
1320.00,50.762
1321.00,50.937
1322.00,50.947
1323.00,50.924
1324.00,50.930
1325.00,50.917
1326.00,50.928
1327.00,50.920
1328.00,50.911
1329.00,50.910
1330.00,50.912
1331.00,50.914
1332.00,50.914
1333.00,50.904
1334.00,50.945
1335.00,50.955
1336.00,50.965
1337.00,50.999
1338.00,51.070
1339.00,51.099
1340.00,51.157
1341.00,51.219
1342.00,51.267
1343.00,51.333
1344.00,51.367
1345.00,51.411
1346.00,51.461
1347.00,51.491
1348.00,51.517
1349.00,51.542
1350.00,51.574
1351.00,51.571
1352.00,51.579
1353.00,51.583
1354.00,51.602
1355.00,51.554
1356.00,51.602
1357.00,51.591
1358.00,51.590
1359.00,51.604
1360.00,51.597
1361.00,51.601
1362.00,51.602
1363.00,51.627
1364.00,51.637
1365.00,51.612
1366.00,51.746
1367.00,51.615
1368.00,51.617
1369.00,51.617
1370.00,51.615
1371.00,51.582
1372.00,51.591
1373.00,51.591
1374.00,51.624
1375.00,51.587
1376.00,51.605
1377.00,51.599
1378.00,51.629
1379.00,51.588
1380.00,51.603
1381.00,51.607
1382.00,51.557
1383.00,51.580
1384.00,51.511
1385.00,51.531
1386.00,51.589
1387.00,51.546
1388.00,51.510
1389.00,51.523
1390.00,51.593
1391.00,51.570
1392.00,51.555
1393.00,51.600
1394.00,51.585
1395.00,51.546
1396.00,51.520
1397.00,51.572
1398.00,51.595
1399.00,51.612
1400.00,51.563
1401.00,51.560
1402.00,51.594
1403.00,51.597
1404.00,51.605
1405.00,51.614
1406.00,51.640
1407.00,51.625
1408.00,51.604
1409.00,51.643
1410.00,51.663
1411.00,51.630
1412.00,51.674
1413.00,51.631
1414.00,51.664
1415.00,51.685
1416.00,51.698
1417.00,51.719
1418.00,51.703
1419.00,51.702
1420.00,51.731
1421.00,51.780
1422.00,51.747
1423.00,51.787
1424.00,51.781
1425.00,51.786
1426.00,51.800
1427.00,51.825
1428.00,51.812
1429.00,51.818
1430.00,51.824
1431.00,51.863
1432.00,51.868
1433.00,51.879
1434.00,51.878
1435.00,51.921
1436.00,51.938
1437.00,51.930
1438.00,51.959
1439.00,51.983
1440.00,52.012
1441.00,52.025
1442.00,52.033
1443.00,52.049
1444.00,52.083
1445.00,52.040
1446.00,52.073
1447.00,52.098
1448.00,52.151
1449.00,52.128
1450.00,52.129
1451.00,52.153
1452.00,52.159
1453.00,52.210
1454.00,52.219
1455.00,52.232
1456.00,52.280
1457.00,52.242
1458.00,52.278
1459.00,52.289
1460.00,52.307
1461.00,52.304
1462.00,52.347
1463.00,52.336
1464.00,52.348
1465.00,52.367
1466.00,52.352
1467.00,52.396
1468.00,52.446
1469.00,52.409
1470.00,52.446
1471.00,52.442
1472.00,52.444
1473.00,52.465
1474.00,52.487
1475.00,52.507
1476.00,52.523
1477.00,52.491
1478.00,52.539
1479.00,52.547
1480.00,52.544
1481.00,52.556
1482.00,52.575
1483.00,52.565
1484.00,52.590
1485.00,52.584
1486.00,52.613
1487.00,52.628
1488.00,52.638
1489.00,52.643
1490.00,52.656
1491.00,52.653
1492.00,52.686
1493.00,52.662
1494.00,52.720
1495.00,52.721
1496.00,52.735
1497.00,52.735
1498.00,52.740
1499.00,52.755
1500.00,52.789
1501.00, 
1502.00, 
1503.00, 
1504.00, 
1505.00, 
1506.00, 
1507.00, 
1508.00, 
1509.00, 
1510.00, 
1511.00, 
1512.00, 
1513.00, 
1514.00, 
1515.00, 
1516.00, 
1517.00, 
1518.00, 
1519.00, 
1520.00, 
1521.00, 
1522.00, 
1523.00, 
1524.00, 
1525.00, 
1526.00, 
1527.00, 
1528.00, 
1529.00, 
1530.00, 
1531.00, 
1532.00, 
1533.00, 
1534.00, 
1535.00, 
1536.00, 
1537.00, 
1538.00, 
1539.00, 
1540.00, 
1541.00, 
1542.00, 
1543.00, 
1544.00, 
1545.00, 
1546.00, 
1547.00, 
1548.00, 
1549.00, 
1550.00, 
1551.00, 
1552.00, 
1553.00, 
1554.00, 
1555.00, 
1556.00, 
1557.00, 
1558.00, 
1559.00, 
1560.00, 
1561.00, 
1562.00, 
1563.00, 
1564.00, 
1565.00, 
1566.00, 
1567.00, 
1568.00, 
1569.00, 
1570.00, 
1571.00, 
1572.00, 
1573.00, 
1574.00, 
1575.00, 
1576.00, 
1577.00, 
1578.00, 
1579.00, 
1580.00, 
1581.00, 
1582.00, 
1583.00, 
1584.00, 
1585.00, 
1586.00, 
1587.00, 
1588.00, 
1589.00, 
1590.00, 
1591.00, 
1592.00, 
1593.00, 
1594.00, 
1595.00, 
1596.00, 
1597.00, 
1598.00, 
1599.00, 
1600.00, 
1601.00, 
1602.00, 
1603.00, 
1604.00, 
1605.00, 
1606.00, 
1607.00, 
1608.00, 
1609.00, 
1610.00, 
1611.00, 
1612.00, 
1613.00, 
1614.00, 
1615.00, 
1616.00, 
1617.00, 
1618.00, 
1619.00, 
1620.00, 
1621.00, 
1622.00, 
1623.00, 
1624.00, 
1625.00, 
1626.00, 
1627.00, 
1628.00, 
1629.00, 
1630.00, 
1631.00, 
1632.00, 
1633.00, 
1634.00, 
1635.00, 
1636.00, 
1637.00, 
1638.00, 
1639.00, 
1640.00, 
1641.00, 
1642.00, 
1643.00, 
1644.00, 
1645.00, 
1646.00, 
1647.00, 
1648.00, 
1649.00, 
1650.00, 
1651.00, 
1652.00, 
1653.00, 
1654.00, 
1655.00, 
1656.00, 
1657.00, 
1658.00, 
1659.00, 
1660.00, 
1661.00, 
1662.00, 
1663.00, 
1664.00, 
1665.00, 
1666.00, 
1667.00, 
1668.00, 
1669.00, 
1670.00, 
1671.00, 
1672.00, 
1673.00, 
1674.00, 
1675.00, 
1676.00, 
1677.00, 
1678.00, 
1679.00, 
1680.00, 
1681.00, 
1682.00, 
1683.00, 
1684.00, 
1685.00, 
1686.00, 
1687.00, 
1688.00, 
1689.00, 
1690.00, 
1691.00, 
1692.00, 
1693.00, 
1694.00, 
1695.00, 
1696.00, 
1697.00, 
1698.00, 
1699.00, 
1700.00, 
1701.00, 
1702.00, 
1703.00, 
1704.00, 
1705.00, 
1706.00, 
1707.00, 
1708.00, 
1709.00, 
1710.00, 
1711.00, 
1712.00, 
1713.00, 
1714.00, 
1715.00, 
1716.00, 
1717.00, 
1718.00, 
1719.00, 
1720.00, 
1721.00, 
1722.00, 
1723.00, 
1724.00, 
1725.00, 
1726.00, 
1727.00, 
1728.00, 
1729.00, 
1730.00, 
1731.00, 
1732.00, 
1733.00, 
1734.00, 
1735.00, 
1736.00, 
1737.00, 
1738.00, 
1739.00, 
1740.00, 
1741.00, 
1742.00, 
1743.00, 
1744.00, 
1745.00, 
1746.00, 
1747.00, 
1748.00, 
1749.00, 
1750.00, 
1751.00, 
1752.00, 
1753.00, 
1754.00, 
1755.00, 
1756.00, 
1757.00, 
1758.00, 
1759.00, 
1760.00, 
1761.00, 
1762.00, 
1763.00, 
1764.00, 
1765.00, 
1766.00, 
1767.00, 
1768.00, 
1769.00, 
1770.00, 
1771.00, 
1772.00, 
1773.00, 
1774.00, 
1775.00, 
1776.00, 
1777.00, 
1778.00, 
1779.00, 
1780.00, 
1781.00, 
1782.00, 
1783.00, 
1784.00, 
1785.00, 
1786.00, 
1787.00, 
1788.00, 
1789.00, 
1790.00, 
1791.00, 
1792.00, 
1793.00, 
1794.00, 
1795.00, 
1796.00, 
1797.00, 
1798.00, 
1799.00, 
1800.00, 
1801.00, 
1802.00, 
1803.00, 
1804.00, 
1805.00, 
1806.00, 
1807.00, 
1808.00, 
1809.00, 
1810.00, 
1811.00, 
1812.00, 
1813.00, 
1814.00, 
1815.00, 
1816.00, 
1817.00, 
1818.00, 
1819.00, 
1820.00, 
1821.00, 
1822.00, 
1823.00, 
1824.00, 
1825.00, 
1826.00, 
1827.00, 
1828.00, 
1829.00, 
1830.00, 
1831.00, 
1832.00, 
1833.00, 
1834.00, 
1835.00, 
1836.00, 
1837.00, 
1838.00, 
1839.00, 
1840.00, 
1841.00, 
1842.00, 
1843.00, 
1844.00, 
1845.00, 
1846.00, 
1847.00, 
1848.00, 
1849.00, 
1850.00, 
1851.00, 
1852.00, 
1853.00, 
1854.00, 
1855.00, 
1856.00, 
1857.00, 
1858.00, 
1859.00, 
1860.00, 
1861.00, 
1862.00, 
1863.00, 
1864.00, 
1865.00, 
1866.00, 
1867.00, 
1868.00, 
1869.00, 
1870.00, 
1871.00, 
1872.00, 
1873.00, 
1874.00, 
1875.00, 
1876.00, 
1877.00, 
1878.00, 
1879.00, 
1880.00, 
1881.00, 
1882.00, 
1883.00, 
1884.00, 
1885.00, 
1886.00, 
1887.00, 
1888.00, 
1889.00, 
1890.00, 
1891.00, 
1892.00, 
1893.00, 
1894.00, 
1895.00, 
1896.00, 
1897.00, 
1898.00, 
1899.00, 
1900.00, 
1901.00, 
1902.00, 
1903.00, 
1904.00, 
1905.00, 
1906.00, 
1907.00, 
1908.00, 
1909.00, 
1910.00, 
1911.00, 
1912.00, 
1913.00, 
1914.00, 
1915.00, 
1916.00, 
1917.00, 
1918.00, 
1919.00, 
1920.00, 
1921.00, 
1922.00, 
1923.00, 
1924.00, 
1925.00, 
1926.00, 
1927.00, 
1928.00, 
1929.00, 
1930.00, 
1931.00, 
1932.00, 
1933.00, 
1934.00, 
1935.00, 
1936.00, 
1937.00, 
1938.00, 
1939.00, 
1940.00, 
1941.00, 
1942.00, 
1943.00, 
1944.00, 
1945.00, 
1946.00, 
1947.00, 
1948.00, 
1949.00, 
1950.00, 
1951.00, 
1952.00, 
1953.00, 
1954.00, 
1955.00, 
1956.00, 
1957.00, 
1958.00, 
1959.00, 
1960.00, 
1961.00, 
1962.00, 
1963.00, 
1964.00, 
1965.00, 
1966.00, 
1967.00, 
1968.00, 
1969.00, 
1970.00, 
1971.00, 
1972.00, 
1973.00, 
1974.00, 
1975.00, 
1976.00, 
1977.00, 
1978.00, 
1979.00, 
1980.00, 
1981.00, 
1982.00, 
1983.00, 
1984.00, 
1985.00, 
1986.00, 
1987.00, 
1988.00, 
1989.00, 
1990.00, 
1991.00, 
1992.00, 
1993.00, 
1994.00, 
1995.00, 
1996.00, 
1997.00, 
1998.00, 
1999.00, 
2000.00, 
2001.00, 
2002.00, 
2003.00, 
2004.00, 
2005.00, 
2006.00, 
2007.00, 
2008.00, 
2009.00, 
2010.00, 
2011.00, 
2012.00, 
2013.00, 
2014.00, 
2015.00, 
2016.00, 
2017.00, 
2018.00, 
2019.00, 
2020.00, 
2021.00, 
2022.00, 
2023.00, 
2024.00, 
2025.00, 
2026.00, 
2027.00, 
2028.00, 
2029.00, 
2030.00, 
2031.00, 
2032.00, 
2033.00, 
2034.00, 
2035.00, 
2036.00, 
2037.00, 
2038.00, 
2039.00, 
2040.00, 
2041.00, 
2042.00, 
2043.00, 
2044.00, 
2045.00, 
2046.00, 
2047.00, 
2048.00, 
2049.00, 
2050.00, 
2051.00, 
2052.00, 
2053.00, 
2054.00, 
2055.00, 
2056.00, 
2057.00, 
2058.00, 
2059.00, 
2060.00, 
2061.00, 
2062.00, 
2063.00, 
2064.00, 
2065.00, 
2066.00, 
2067.00, 
2068.00, 
2069.00, 
2070.00, 
2071.00, 
2072.00, 
2073.00, 
2074.00, 
2075.00, 
2076.00, 
2077.00, 
2078.00, 
2079.00, 
2080.00, 
2081.00, 
2082.00, 
2083.00, 
2084.00, 
2085.00, 
2086.00, 
2087.00, 
2088.00, 
2089.00, 
2090.00, 
2091.00, 
2092.00, 
2093.00, 
2094.00, 
2095.00, 
2096.00, 
2097.00, 
2098.00, 
2099.00, 
2100.00, 
2101.00, 
2102.00, 
2103.00, 
2104.00, 
2105.00, 
2106.00, 
2107.00, 
2108.00, 
2109.00, 
2110.00, 
2111.00, 
2112.00, 
2113.00, 
2114.00, 
2115.00, 
2116.00, 
2117.00, 
2118.00, 
2119.00, 
2120.00, 
2121.00, 
2122.00, 
2123.00, 
2124.00, 
2125.00, 
2126.00, 
2127.00, 
2128.00, 
2129.00, 
2130.00, 
2131.00, 
2132.00, 
2133.00, 
2134.00, 
2135.00, 
2136.00, 
2137.00, 
2138.00, 
2139.00, 
2140.00, 
2141.00, 
2142.00, 
2143.00, 
2144.00, 
2145.00, 
2146.00, 
2147.00, 
2148.00, 
2149.00, 
2150.00, 
2151.00, 
2152.00, 
2153.00, 
2154.00, 
2155.00, 
2156.00, 
2157.00, 
2158.00, 
2159.00, 
2160.00, 
2161.00, 
2162.00, 
2163.00, 
2164.00, 
2165.00, 
2166.00, 
2167.00, 
2168.00, 
2169.00, 
2170.00, 
2171.00, 
2172.00, 
2173.00, 
2174.00, 
2175.00, 
2176.00, 
2177.00, 
2178.00, 
2179.00, 
2180.00, 
2181.00, 
2182.00, 
2183.00, 
2184.00, 
2185.00, 
2186.00, 
2187.00, 
2188.00, 
2189.00, 
2190.00, 
2191.00, 
2192.00, 
2193.00, 
2194.00, 
2195.00, 
2196.00, 
2197.00, 
2198.00, 
2199.00, 
2200.00, 
2201.00, 
2202.00, 
2203.00, 
2204.00, 
2205.00, 
2206.00, 
2207.00, 
2208.00, 
2209.00, 
2210.00, 
2211.00, 
2212.00, 
2213.00, 
2214.00, 
2215.00, 
2216.00, 
2217.00, 
2218.00, 
2219.00, 
2220.00, 
2221.00, 
2222.00, 
2223.00, 
2224.00, 
2225.00, 
2226.00, 
2227.00, 
2228.00, 
2229.00, 
2230.00, 
2231.00, 
2232.00, 
2233.00, 
2234.00, 
2235.00, 
2236.00, 
2237.00, 
2238.00, 
2239.00, 
2240.00, 
2241.00, 
2242.00, 
2243.00, 
2244.00, 
2245.00, 
2246.00, 
2247.00, 
2248.00, 
2249.00, 
2250.00, 
2251.00, 
2252.00, 
2253.00, 
2254.00, 
2255.00, 
2256.00, 
2257.00, 
2258.00, 
2259.00, 
2260.00, 
2261.00, 
2262.00, 
2263.00, 
2264.00, 
2265.00, 
2266.00, 
2267.00, 
2268.00, 
2269.00, 
2270.00, 
2271.00, 
2272.00, 
2273.00, 
2274.00, 
2275.00, 
2276.00, 
2277.00, 
2278.00, 
2279.00, 
2280.00, 
2281.00, 
2282.00, 
2283.00, 
2284.00, 
2285.00, 
2286.00, 
2287.00, 
2288.00, 
2289.00, 
2290.00, 
2291.00, 
2292.00, 
2293.00, 
2294.00, 
2295.00, 
2296.00, 
2297.00, 
2298.00, 
2299.00, 
2300.00, 
2301.00, 
2302.00, 
2303.00, 
2304.00, 
2305.00, 
2306.00, 
2307.00, 
2308.00, 
2309.00, 
2310.00, 
2311.00, 
2312.00, 
2313.00, 
2314.00, 
2315.00, 
2316.00, 
2317.00, 
2318.00, 
2319.00, 
2320.00, 
2321.00, 
2322.00, 
2323.00, 
2324.00, 
2325.00, 
2326.00, 
2327.00, 
2328.00, 
2329.00, 
2330.00, 
2331.00, 
2332.00, 
2333.00, 
2334.00, 
2335.00, 
2336.00, 
2337.00, 
2338.00, 
2339.00, 
2340.00, 
2341.00, 
2342.00, 
2343.00, 
2344.00, 
2345.00, 
2346.00, 
2347.00, 
2348.00, 
2349.00, 
2350.00, 
2351.00, 
2352.00, 
2353.00, 
2354.00, 
2355.00, 
2356.00, 
2357.00, 
2358.00, 
2359.00, 
2360.00, 
2361.00, 
2362.00, 
2363.00, 
2364.00, 
2365.00, 
2366.00, 
2367.00, 
2368.00, 
2369.00, 
2370.00, 
2371.00, 
2372.00, 
2373.00, 
2374.00, 
2375.00, 
2376.00, 
2377.00, 
2378.00, 
2379.00, 
2380.00, 
2381.00, 
2382.00, 
2383.00, 
2384.00, 
2385.00, 
2386.00, 
2387.00, 
2388.00, 
2389.00, 
2390.00, 
2391.00, 
2392.00, 
2393.00, 
2394.00, 
2395.00, 
2396.00, 
2397.00, 
2398.00, 
2399.00, 
2400.00, 
2401.00, 
2402.00, 
2403.00, 
2404.00, 
2405.00, 
2406.00, 
2407.00, 
2408.00, 
2409.00, 
2410.00, 
2411.00, 
2412.00, 
2413.00, 
2414.00, 
2415.00, 
2416.00, 
2417.00, 
2418.00, 
2419.00, 
2420.00, 
2421.00, 
2422.00, 
2423.00, 
2424.00, 
2425.00, 
2426.00, 
2427.00, 
2428.00, 
2429.00, 
2430.00, 
2431.00, 
2432.00, 
2433.00, 
2434.00, 
2435.00, 
2436.00, 
2437.00, 
2438.00, 
2439.00, 
2440.00, 
2441.00, 
2442.00, 
2443.00, 
2444.00, 
2445.00, 
2446.00, 
2447.00, 
2448.00, 
2449.00, 
2450.00, 
2451.00, 
2452.00, 
2453.00, 
2454.00, 
2455.00, 
2456.00, 
2457.00, 
2458.00, 
2459.00, 
2460.00, 
2461.00, 
2462.00, 
2463.00, 
2464.00, 
2465.00, 
2466.00, 
2467.00, 
2468.00, 
2469.00, 
2470.00, 
2471.00, 
2472.00, 
2473.00, 
2474.00, 
2475.00, 
2476.00, 
2477.00, 
2478.00, 
2479.00, 
2480.00, 
2481.00, 
2482.00, 
2483.00, 
2484.00, 
2485.00, 
2486.00, 
2487.00, 
2488.00, 
2489.00, 
2490.00, 
2491.00, 
2492.00, 
2493.00, 
2494.00, 
2495.00, 
2496.00, 
2497.00, 
2498.00, 
2499.00, 
2500.00, 
2501.00, 
2502.00, 
2503.00, 
2504.00, 
2505.00, 
2506.00, 
2507.00, 
2508.00, 
2509.00, 
2510.00, 
2511.00, 
2512.00, 
2513.00, 
2514.00, 
2515.00, 
2516.00, 
2517.00, 
2518.00, 
2519.00, 
2520.00, 
2521.00, 
2522.00, 
2523.00, 
2524.00, 
2525.00, 
2526.00, 
2527.00, 
2528.00, 
2529.00, 
2530.00, 
2531.00, 
2532.00, 
2533.00, 
2534.00, 
2535.00, 
2536.00, 
2537.00, 
2538.00, 
2539.00, 
2540.00, 
2541.00, 
2542.00, 
2543.00, 
2544.00, 
2545.00, 
2546.00, 
2547.00, 
2548.00, 
2549.00, 
2550.00, 
2551.00, 
2552.00, 
2553.00, 
2554.00, 
2555.00, 
2556.00, 
2557.00, 
2558.00, 
2559.00, 
2560.00, 
2561.00, 
2562.00, 
2563.00, 
2564.00, 
2565.00, 
2566.00, 
2567.00, 
2568.00, 
2569.00, 
2570.00, 
2571.00, 
2572.00, 
2573.00, 
2574.00, 
2575.00, 
2576.00, 
2577.00, 
2578.00, 
2579.00, 
2580.00, 
2581.00, 
2582.00, 
2583.00, 
2584.00, 
2585.00, 
2586.00, 
2587.00, 
2588.00, 
2589.00, 
2590.00, 
2591.00, 
2592.00, 
2593.00, 
2594.00, 
2595.00, 
2596.00, 
2597.00, 
2598.00, 
2599.00, 
2600.00, 
