"2cP1 - RawData"
"Wavelength nm.","T%"
200.00,-0.000
201.00,0.001
202.00,0.003
203.00,0.001
204.00,0.003
205.00,0.001
206.00,0.001
207.00,0.001
208.00,0.001
209.00,-0.000
210.00,0.003
211.00,0.001
212.00,0.003
213.00,0.001
214.00,-0.002
215.00,0.001
216.00,0.003
217.00,0.003
218.00,0.001
219.00,-0.001
220.00,0.001
221.00,0.001
222.00,-0.000
223.00,-0.001
224.00,0.000
225.00,-0.001
226.00,0.002
227.00,-0.001
228.00,-0.001
229.00,0.002
230.00,0.000
231.00,0.000
232.00,0.002
233.00,0.001
234.00,-0.000
235.00,0.000
236.00,0.001
237.00,-0.001
238.00,0.000
239.00,0.001
240.00,0.001
241.00,-0.000
242.00,-0.001
243.00,0.001
244.00,0.000
245.00,0.001
246.00,0.002
247.00,0.001
248.00,0.001
249.00,0.002
250.00,0.001
251.00,0.000
252.00,0.002
253.00,-0.003
254.00,0.002
255.00,-0.000
256.00,0.001
257.00,-0.001
258.00,-0.001
259.00,-0.000
260.00,0.002
261.00,-0.002
262.00,-0.000
263.00,-0.000
264.00,0.002
265.00,-0.000
266.00,0.001
267.00,0.001
268.00,0.000
269.00,0.001
270.00,0.000
271.00,-0.001
272.00,0.000
273.00,-0.001
274.00,0.000
275.00,0.002
276.00,0.000
277.00,-0.000
278.00,0.002
279.00,-0.000
280.00,-0.002
281.00,-0.001
282.00,0.000
283.00,0.002
284.00,0.000
285.00,-0.001
286.00,0.001
287.00,0.001
288.00,0.001
289.00,0.001
290.00,0.001
291.00,-0.000
292.00,0.001
293.00,-0.002
294.00,-0.000
295.00,0.001
296.00,0.000
297.00,-0.000
298.00,-0.000
299.00,0.001
300.00,0.003
301.00,0.003
302.00,0.004
303.00,0.007
304.00,0.010
305.00,0.015
306.00,0.024
307.00,0.039
308.00,0.059
309.00,0.091
310.00,0.129
311.00,0.169
312.00,0.231
313.00,0.323
314.00,0.424
315.00,0.549
316.00,0.675
317.00,0.894
318.00,1.093
319.00,1.353
320.00,1.626
321.00,1.947
322.00,2.335
323.00,2.747
324.00,3.195
325.00,3.641
326.00,4.102
327.00,4.560
328.00,5.181
329.00,5.716
330.00,6.281
331.00,6.863
332.00,7.471
333.00,8.138
334.00,8.717
335.00,9.367
336.00,9.968
337.00,10.591
338.00,11.188
339.00,11.722
340.00,12.306
341.00,12.863
342.00,13.428
343.00,13.873
344.00,14.384
345.00,14.822
346.00,15.224
347.00,15.674
348.00,16.057
349.00,16.431
350.00,16.815
351.00,17.091
352.00,17.411
353.00,17.733
354.00,17.938
355.00,18.201
356.00,18.437
357.00,18.641
358.00,18.876
359.00,19.040
360.00,19.220
361.00,19.382
362.00,19.520
363.00,19.681
364.00,19.783
365.00,19.901
366.00,20.009
367.00,20.077
368.00,20.120
369.00,20.180
370.00,20.202
371.00,20.225
372.00,20.225
373.00,20.230
374.00,20.219
375.00,20.215
376.00,20.185
377.00,20.156
378.00,20.115
379.00,20.058
380.00,20.025
381.00,19.990
382.00,20.007
383.00,20.009
384.00,20.034
385.00,20.069
386.00,20.073
387.00,20.120
388.00,20.148
389.00,20.140
390.00,20.180
391.00,20.209
392.00,20.208
393.00,20.206
394.00,20.218
395.00,20.206
396.00,20.213
397.00,20.202
398.00,20.236
399.00,20.245
400.00,20.231
401.00,20.233
402.00,20.213
403.00,20.202
404.00,20.203
405.00,20.200
406.00,20.192
407.00,20.186
408.00,20.175
409.00,20.128
410.00,20.133
411.00,20.066
412.00,20.021
413.00,20.075
414.00,20.050
415.00,20.025
416.00,20.065
417.00,20.062
418.00,20.103
419.00,20.103
420.00,20.124
421.00,20.219
422.00,20.241
423.00,20.267
424.00,20.278
425.00,20.323
426.00,20.340
427.00,20.398
428.00,20.432
429.00,20.457
430.00,20.490
431.00,20.539
432.00,20.590
433.00,20.660
434.00,20.686
435.00,20.757
436.00,20.824
437.00,20.873
438.00,20.946
439.00,21.023
440.00,21.055
441.00,21.147
442.00,21.208
443.00,21.328
444.00,21.410
445.00,21.370
446.00,21.586
447.00,21.648
448.00,21.743
449.00,21.840
450.00,21.949
451.00,22.033
452.00,22.117
453.00,22.238
454.00,22.348
455.00,22.458
456.00,22.548
457.00,22.679
458.00,22.750
459.00,22.872
460.00,23.004
461.00,23.090
462.00,23.224
463.00,23.389
464.00,23.492
465.00,23.569
466.00,23.682
467.00,23.817
468.00,23.920
469.00,24.043
470.00,24.153
471.00,24.254
472.00,24.384
473.00,24.427
474.00,24.536
475.00,24.657
476.00,24.855
477.00,24.978
478.00,25.085
479.00,25.250
480.00,25.394
481.00,25.542
482.00,25.672
483.00,25.829
484.00,25.961
485.00,26.147
486.00,26.262
487.00,26.434
488.00,26.557
489.00,26.713
490.00,26.864
491.00,26.996
492.00,27.139
493.00,27.272
494.00,27.389
495.00,27.449
496.00,27.469
497.00,27.712
498.00,27.873
499.00,28.003
500.00,28.124
501.00,28.209
502.00,28.256
503.00,28.567
504.00,28.645
505.00,28.796
506.00,28.942
507.00,29.024
508.00,29.125
509.00,29.296
510.00,29.389
511.00,29.499
512.00,29.642
513.00,29.779
514.00,29.908
515.00,29.987
516.00,30.098
517.00,30.110
518.00,30.411
519.00,30.499
520.00,30.579
521.00,30.678
522.00,30.770
523.00,30.866
524.00,30.947
525.00,31.035
526.00,31.155
527.00,31.218
528.00,31.315
529.00,31.438
530.00,31.539
531.00,31.717
532.00,31.775
533.00,31.856
534.00,32.021
535.00,32.067
536.00,32.177
537.00,32.230
538.00,32.331
539.00,32.415
540.00,32.509
541.00,32.585
542.00,32.639
543.00,32.752
544.00,32.833
545.00,32.835
546.00,32.939
547.00,33.037
548.00,33.099
549.00,33.159
550.00,33.284
551.00,33.343
552.00,33.434
553.00,33.552
554.00,33.628
555.00,33.649
556.00,33.700
557.00,33.745
558.00,33.848
559.00,33.897
560.00,33.971
561.00,34.031
562.00,34.057
563.00,34.167
564.00,34.201
565.00,34.236
566.00,34.261
567.00,34.348
568.00,34.370
569.00,34.403
570.00,34.504
571.00,34.525
572.00,34.581
573.00,34.590
574.00,34.690
575.00,34.717
576.00,34.750
577.00,34.818
578.00,34.896
579.00,34.923
580.00,35.051
581.00,35.152
582.00,35.219
583.00,35.232
584.00,35.375
585.00,35.411
586.00,35.481
587.00,35.529
588.00,35.596
589.00,35.677
590.00,35.649
591.00,35.736
592.00,35.744
593.00,35.823
594.00,35.849
595.00,35.900
596.00,36.029
597.00,36.103
598.00,36.080
599.00,36.144
600.00,36.172
601.00,36.200
602.00,36.305
603.00,36.328
604.00,36.317
605.00,36.335
606.00,36.320
607.00,36.442
608.00,36.619
609.00,36.591
610.00,36.619
611.00,36.790
612.00,36.702
613.00,36.792
614.00,36.890
615.00,36.814
616.00,36.953
617.00,36.961
618.00,37.111
619.00,37.240
620.00,37.257
621.00,37.323
622.00,37.299
623.00,37.456
624.00,37.498
625.00,37.589
626.00,37.602
627.00,37.690
628.00,37.763
629.00,37.805
630.00,37.851
631.00,37.943
632.00,37.956
633.00,38.093
634.00,38.132
635.00,38.251
636.00,38.320
637.00,38.468
638.00,38.511
639.00,38.597
640.00,38.616
641.00,38.673
642.00,38.790
643.00,38.823
644.00,38.923
645.00,39.000
646.00,39.129
647.00,39.186
648.00,39.291
649.00,39.502
650.00,39.392
651.00,39.514
652.00,39.528
653.00,39.614
654.00,39.762
655.00,39.755
656.00,39.939
657.00,39.982
658.00,40.309
659.00,40.415
660.00,39.894
661.00,40.308
662.00,40.467
663.00,40.585
664.00,40.745
665.00,40.810
666.00,40.933
667.00,40.989
668.00,41.193
669.00,41.292
670.00,41.267
671.00,41.338
672.00,41.415
673.00,41.504
674.00,41.710
675.00,41.746
676.00,41.770
677.00,42.019
678.00,41.876
679.00,42.074
680.00,42.267
681.00,42.345
682.00,42.390
683.00,42.475
684.00,42.704
685.00,42.699
686.00,42.390
687.00,42.763
688.00,43.028
689.00,43.059
690.00,43.236
691.00,43.281
692.00,43.323
693.00,43.394
694.00,43.510
695.00,43.632
696.00,43.704
697.00,43.835
698.00,43.990
699.00,44.125
700.00,44.111
701.00,44.164
702.00,44.277
703.00,44.463
704.00,44.568
705.00,44.543
706.00,44.721
707.00,44.828
708.00,44.720
709.00,44.875
710.00,45.134
711.00,45.120
712.00,45.053
713.00,45.267
714.00,45.322
715.00,45.369
716.00,45.476
717.00,45.509
718.00,45.541
719.00,45.629
720.00,45.707
721.00,49.730
722.00,49.746
723.00,49.774
724.00,49.709
725.00,49.825
726.00,49.840
727.00,49.946
728.00,49.917
729.00,49.911
730.00,50.040
731.00,50.034
732.00,50.036
733.00,50.089
734.00,50.213
735.00,50.167
736.00,50.141
737.00,50.277
738.00,50.303
739.00,50.391
740.00,50.399
741.00,50.435
742.00,50.464
743.00,50.467
744.00,50.460
745.00,50.501
746.00,50.496
747.00,50.493
748.00,50.528
749.00,50.493
750.00,50.457
751.00,50.599
752.00,50.575
753.00,50.612
754.00,50.623
755.00,50.619
756.00,50.634
757.00,50.648
758.00,50.627
759.00,50.617
760.00,50.619
761.00,50.683
762.00,50.693
763.00,50.823
764.00,50.762
765.00,50.824
766.00,50.814
767.00,50.820
768.00,50.851
769.00,50.876
770.00,50.962
771.00,50.917
772.00,50.916
773.00,50.902
774.00,50.983
775.00,50.925
776.00,50.954
777.00,50.989
778.00,51.045
779.00,51.068
780.00,50.980
781.00,50.990
782.00,50.965
783.00,50.953
784.00,51.025
785.00,50.995
786.00,50.997
787.00,50.942
788.00,50.951
789.00,50.983
790.00,50.990
791.00,51.019
792.00,51.030
793.00,50.950
794.00,50.971
795.00,51.004
796.00,51.003
797.00,50.918
798.00,51.008
799.00,50.900
800.00,50.950
801.00,50.913
802.00,50.909
803.00,50.972
804.00,50.829
805.00,50.921
806.00,50.868
807.00,50.870
808.00,50.826
809.00,50.879
810.00,50.836
811.00,50.881
812.00,50.910
813.00,50.777
814.00,50.828
815.00,50.841
816.00,50.853
817.00,50.728
818.00,50.681
819.00,50.777
820.00,50.680
821.00,50.688
822.00,50.715
823.00,50.712
824.00,50.695
825.00,50.728
826.00,50.691
827.00,50.713
828.00,50.626
829.00,50.606
830.00,50.557
831.00,53.161
832.00,53.125
833.00,53.129
834.00,53.114
835.00,53.091
836.00,53.094
837.00,53.071
838.00,53.060
839.00,53.020
840.00,52.984
841.00,52.980
842.00,52.987
843.00,52.941
844.00,52.953
845.00,52.900
846.00,52.938
847.00,52.909
848.00,52.855
849.00,52.823
850.00,52.830
851.00,52.722
852.00,52.738
853.00,52.695
854.00,52.687
855.00,52.621
856.00,52.663
857.00,52.605
858.00,52.568
859.00,52.571
860.00,52.594
861.00,52.557
862.00,52.521
863.00,52.533
864.00,52.494
865.00,52.507
866.00,52.496
867.00,52.511
868.00,52.387
869.00,52.419
870.00,52.436
871.00,52.465
872.00,52.408
873.00,52.408
874.00,52.390
875.00,52.405
876.00,52.381
877.00,52.378
878.00,52.367
879.00,52.346
880.00,52.349
881.00,52.316
882.00,52.331
883.00,52.279
884.00,52.269
885.00,52.260
886.00,52.218
887.00,52.205
888.00,52.197
889.00,52.184
890.00,52.185
891.00,52.131
892.00,52.128
893.00,52.083
894.00,52.103
895.00,52.057
896.00,52.039
897.00,52.030
898.00,51.989
899.00,51.996
900.00,51.989
901.00,51.978
902.00,51.951
903.00,51.995
904.00,51.991
905.00,51.898
906.00,51.883
907.00,51.875
908.00,51.837
909.00,51.838
910.00,51.811
911.00,51.809
912.00,51.806
913.00,51.769
914.00,51.740
915.00,51.724
916.00,51.691
917.00,51.687
918.00,51.678
919.00,51.625
920.00,51.622
921.00,51.623
922.00,51.596
923.00,51.538
924.00,51.618
925.00,51.546
926.00,51.516
927.00,51.505
928.00,51.493
929.00,51.475
930.00,51.442
931.00,51.452
932.00,51.426
933.00,51.415
934.00,51.396
935.00,51.370
936.00,51.347
937.00,51.337
938.00,51.305
939.00,51.295
940.00,51.297
941.00,51.257
942.00,51.224
943.00,51.233
944.00,51.186
945.00,51.182
946.00,51.202
947.00,51.218
948.00,51.134
949.00,51.098
950.00,51.095
951.00,51.060
952.00,51.037
953.00,51.008
954.00,50.996
955.00,50.952
956.00,50.949
957.00,50.911
958.00,50.936
959.00,50.882
960.00,50.865
961.00,50.830
962.00,50.863
963.00,50.811
964.00,50.806
965.00,50.777
966.00,50.784
967.00,50.790
968.00,50.746
969.00,50.796
970.00,50.818
971.00,50.748
972.00,50.743
973.00,50.752
974.00,50.788
975.00,50.730
976.00,50.764
977.00,50.743
978.00,50.789
979.00,50.738
980.00,50.750
981.00,50.753
982.00,50.724
983.00,50.752
984.00,50.743
985.00,50.747
986.00,50.706
987.00,50.734
988.00,50.710
989.00,50.696
990.00,50.681
991.00,50.668
992.00,50.678
993.00,50.640
994.00,50.638
995.00,50.616
996.00,50.613
997.00,50.622
998.00,50.587
999.00,50.609
1000.00,50.551
1001.00,50.545
1002.00,50.550
1003.00,50.536
1004.00,50.512
1005.00,50.498
1006.00,50.521
1007.00,50.490
1008.00,50.462
1009.00,50.440
1010.00,50.440
1011.00,50.439
1012.00,50.405
1013.00,50.419
1014.00,50.363
1015.00,50.378
1016.00,50.367
1017.00,50.349
1018.00,50.329
1019.00,50.304
1020.00,50.294
1021.00,50.280
1022.00,50.269
1023.00,50.213
1024.00,50.228
1025.00,50.218
1026.00,50.214
1027.00,50.193
1028.00,50.187
1029.00,50.171
1030.00,50.136
1031.00,50.157
1032.00,50.143
1033.00,50.095
1034.00,50.048
1035.00,50.047
1036.00,50.026
1037.00,49.996
1038.00,49.990
1039.00,49.956
1040.00,49.967
1041.00,49.927
1042.00,49.919
1043.00,49.892
1044.00,49.924
1045.00,49.898
1046.00,49.892
1047.00,49.878
1048.00,49.916
1049.00,49.908
1050.00,49.913
1051.00,49.983
1052.00,49.966
1053.00,49.953
1054.00,49.978
1055.00,49.991
1056.00,49.993
1057.00,49.997
1058.00,49.993
1059.00,49.982
1060.00,49.994
1061.00,49.973
1062.00,49.960
1063.00,49.961
1064.00,49.947
1065.00,49.952
1066.00,49.940
1067.00,49.909
1068.00,49.938
1069.00,49.902
1070.00,49.885
1071.00,49.868
1072.00,49.880
1073.00,49.853
1074.00,49.855
1075.00,49.838
1076.00,49.829
1077.00,49.822
1078.00,49.799
1079.00,49.803
1080.00,49.797
1081.00,49.770
1082.00,49.783
1083.00,49.770
1084.00,49.759
1085.00,49.758
1086.00,49.750
1087.00,49.743
1088.00,49.725
1089.00,49.719
1090.00,49.715
1091.00,49.699
1092.00,49.684
1093.00,49.671
1094.00,49.654
1095.00,49.647
1096.00,49.643
1097.00,49.632
1098.00,49.620
1099.00,49.616
1100.00,49.586
1101.00,49.580
1102.00,49.585
1103.00,49.567
1104.00,49.567
1105.00,49.550
1106.00,49.540
1107.00,49.538
1108.00,49.521
1109.00,49.512
1110.00,49.507
1111.00,49.503
1112.00,49.500
1113.00,49.479
1114.00,49.479
1115.00,49.483
1116.00,49.471
1117.00,49.460
1118.00,49.454
1119.00,49.446
1120.00,49.446
1121.00,49.438
1122.00,49.422
1123.00,49.421
1124.00,49.414
1125.00,49.394
1126.00,49.396
1127.00,49.386
1128.00,49.385
1129.00,49.404
1130.00,49.358
1131.00,49.355
1132.00,49.340
1133.00,49.326
1134.00,49.348
1135.00,49.324
1136.00,49.312
1137.00,49.318
1138.00,49.313
1139.00,49.312
1140.00,49.300
1141.00,49.294
1142.00,49.293
1143.00,49.298
1144.00,49.266
1145.00,49.279
1146.00,49.273
1147.00,49.261
1148.00,49.261
1149.00,49.266
1150.00,49.269
1151.00,49.275
1152.00,49.245
1153.00,49.249
1154.00,49.238
1155.00,49.241
1156.00,49.237
1157.00,49.238
1158.00,49.224
1159.00,49.223
1160.00,49.211
1161.00,49.227
1162.00,49.210
1163.00,49.199
1164.00,49.203
1165.00,49.194
1166.00,49.182
1167.00,49.199
1168.00,49.194
1169.00,49.182
1170.00,49.189
1171.00,49.163
1172.00,49.169
1173.00,49.169
1174.00,49.175
1175.00,49.173
1176.00,49.165
1177.00,49.150
1178.00,49.164
1179.00,49.175
1180.00,49.146
1181.00,49.165
1182.00,49.164
1183.00,49.145
1184.00,49.141
1185.00,49.150
1186.00,49.138
1187.00,49.152
1188.00,49.137
1189.00,49.146
1190.00,49.143
1191.00,49.125
1192.00,49.143
1193.00,49.137
1194.00,49.148
1195.00,49.120
1196.00,49.122
1197.00,49.128
1198.00,49.130
1199.00,49.119
1200.00,49.122
1201.00,49.132
1202.00,49.116
1203.00,49.119
1204.00,49.109
1205.00,49.120
1206.00,49.108
1207.00,49.114
1208.00,49.105
1209.00,49.094
1210.00,49.091
1211.00,49.103
1212.00,49.110
1213.00,49.079
1214.00,49.120
1215.00,49.101
1216.00,49.089
1217.00,49.109
1218.00,49.082
1219.00,49.095
1220.00,49.093
1221.00,49.100
1222.00,49.097
1223.00,49.107
1224.00,49.100
1225.00,49.096
1226.00,49.094
1227.00,49.091
1228.00,49.110
1229.00,49.096
1230.00,49.147
1231.00,49.140
1232.00,49.138
1233.00,49.143
1234.00,49.145
1235.00,49.134
1236.00,49.150
1237.00,49.124
1238.00,49.130
1239.00,49.131
1240.00,49.120
1241.00,49.134
1242.00,49.140
1243.00,49.139
1244.00,49.138
1245.00,49.153
1246.00,49.158
1247.00,49.163
1248.00,49.154
1249.00,49.151
1250.00,49.164
1251.00,49.151
1252.00,49.175
1253.00,49.155
1254.00,49.163
1255.00,49.174
1256.00,49.158
1257.00,49.131
1258.00,49.185
1259.00,49.174
1260.00,49.195
1261.00,49.191
1262.00,49.177
1263.00,49.183
1264.00,49.190
1265.00,49.180
1266.00,49.201
1267.00,49.207
1268.00,49.215
1269.00,49.208
1270.00,49.214
1271.00,49.223
1272.00,49.229
1273.00,49.218
1274.00,49.233
1275.00,49.236
1276.00,49.230
1277.00,49.228
1278.00,49.241
1279.00,49.233
1280.00,49.243
1281.00,49.245
1282.00,49.261
1283.00,49.251
1284.00,49.268
1285.00,49.246
1286.00,49.268
1287.00,49.248
1288.00,49.274
1289.00,49.257
1290.00,49.278
1291.00,49.285
1292.00,49.297
1293.00,49.278
1294.00,49.295
1295.00,49.299
1296.00,49.314
1297.00,49.335
1298.00,49.320
1299.00,49.326
1300.00,49.331
1301.00,49.323
1302.00,49.332
1303.00,49.343
1304.00,49.332
1305.00,49.355
1306.00,49.347
1307.00,49.356
1308.00,49.350
1309.00,49.349
1310.00,49.365
1311.00,49.366
1312.00,49.362
1313.00,49.366
1314.00,49.388
1315.00,49.383
1316.00,49.384
1317.00,49.401
1318.00,49.406
1319.00,49.410
1320.00,49.429
1321.00,49.592
1322.00,49.619
1323.00,49.587
1324.00,49.598
1325.00,49.567
1326.00,49.594
1327.00,49.587
1328.00,49.579
1329.00,49.574
1330.00,49.582
1331.00,49.587
1332.00,49.595
1333.00,49.575
1334.00,49.634
1335.00,49.629
1336.00,49.646
1337.00,49.685
1338.00,49.755
1339.00,49.780
1340.00,49.836
1341.00,49.899
1342.00,49.960
1343.00,50.018
1344.00,50.056
1345.00,50.108
1346.00,50.164
1347.00,50.171
1348.00,50.210
1349.00,50.253
1350.00,50.236
1351.00,50.277
1352.00,50.258
1353.00,50.301
1354.00,50.283
1355.00,50.207
1356.00,50.265
1357.00,50.275
1358.00,50.269
1359.00,50.294
1360.00,50.339
1361.00,50.241
1362.00,50.266
1363.00,50.356
1364.00,50.261
1365.00,50.313
1366.00,50.317
1367.00,50.294
1368.00,50.250
1369.00,50.221
1370.00,50.279
1371.00,50.248
1372.00,50.268
1373.00,50.256
1374.00,50.272
1375.00,50.256
1376.00,50.272
1377.00,50.249
1378.00,50.303
1379.00,50.265
1380.00,50.266
1381.00,50.279
1382.00,50.221
1383.00,50.235
1384.00,50.197
1385.00,50.180
1386.00,50.266
1387.00,50.219
1388.00,50.170
1389.00,50.150
1390.00,50.280
1391.00,50.208
1392.00,50.226
1393.00,50.233
1394.00,50.212
1395.00,50.185
1396.00,50.107
1397.00,50.139
1398.00,50.252
1399.00,50.233
1400.00,50.216
1401.00,50.217
1402.00,50.252
1403.00,50.242
1404.00,50.248
1405.00,50.264
1406.00,50.252
1407.00,50.290
1408.00,50.245
1409.00,50.316
1410.00,50.307
1411.00,50.299
1412.00,50.317
1413.00,50.276
1414.00,50.298
1415.00,50.333
1416.00,50.352
1417.00,50.367
1418.00,50.359
1419.00,50.345
1420.00,50.381
1421.00,50.387
1422.00,50.384
1423.00,50.407
1424.00,50.412
1425.00,50.407
1426.00,50.431
1427.00,50.448
1428.00,50.465
1429.00,50.475
1430.00,50.490
1431.00,50.504
1432.00,50.511
1433.00,50.527
1434.00,50.531
1435.00,50.563
1436.00,50.571
1437.00,50.578
1438.00,50.592
1439.00,50.632
1440.00,50.629
1441.00,50.638
1442.00,50.665
1443.00,50.687
1444.00,50.690
1445.00,50.685
1446.00,50.694
1447.00,50.738
1448.00,50.768
1449.00,50.767
1450.00,50.759
1451.00,50.793
1452.00,50.792
1453.00,50.829
1454.00,50.818
1455.00,50.827
1456.00,50.873
1457.00,50.849
1458.00,50.878
1459.00,50.903
1460.00,50.899
1461.00,50.923
1462.00,50.945
1463.00,50.951
1464.00,50.959
1465.00,50.967
1466.00,50.969
1467.00,51.008
1468.00,51.035
1469.00,51.038
1470.00,51.052
1471.00,51.063
1472.00,51.078
1473.00,51.100
1474.00,51.101
1475.00,51.120
1476.00,51.126
1477.00,51.119
1478.00,51.153
1479.00,51.154
1480.00,51.156
1481.00,51.178
1482.00,51.205
1483.00,51.203
1484.00,51.219
1485.00,51.230
1486.00,51.229
1487.00,51.259
1488.00,51.252
1489.00,51.262
1490.00,51.272
1491.00,51.279
1492.00,51.299
1493.00,51.282
1494.00,51.323
1495.00,51.339
1496.00,51.320
1497.00,51.338
1498.00,51.320
1499.00,51.350
1500.00,51.385
1501.00, 
1502.00, 
1503.00, 
1504.00, 
1505.00, 
1506.00, 
1507.00, 
1508.00, 
1509.00, 
1510.00, 
1511.00, 
1512.00, 
1513.00, 
1514.00, 
1515.00, 
1516.00, 
1517.00, 
1518.00, 
1519.00, 
1520.00, 
1521.00, 
1522.00, 
1523.00, 
1524.00, 
1525.00, 
1526.00, 
1527.00, 
1528.00, 
1529.00, 
1530.00, 
1531.00, 
1532.00, 
1533.00, 
1534.00, 
1535.00, 
1536.00, 
1537.00, 
1538.00, 
1539.00, 
1540.00, 
1541.00, 
1542.00, 
1543.00, 
1544.00, 
1545.00, 
1546.00, 
1547.00, 
1548.00, 
1549.00, 
1550.00, 
1551.00, 
1552.00, 
1553.00, 
1554.00, 
1555.00, 
1556.00, 
1557.00, 
1558.00, 
1559.00, 
1560.00, 
1561.00, 
1562.00, 
1563.00, 
1564.00, 
1565.00, 
1566.00, 
1567.00, 
1568.00, 
1569.00, 
1570.00, 
1571.00, 
1572.00, 
1573.00, 
1574.00, 
1575.00, 
1576.00, 
1577.00, 
1578.00, 
1579.00, 
1580.00, 
1581.00, 
1582.00, 
1583.00, 
1584.00, 
1585.00, 
1586.00, 
1587.00, 
1588.00, 
1589.00, 
1590.00, 
1591.00, 
1592.00, 
1593.00, 
1594.00, 
1595.00, 
1596.00, 
1597.00, 
1598.00, 
1599.00, 
1600.00, 
1601.00, 
1602.00, 
1603.00, 
1604.00, 
1605.00, 
1606.00, 
1607.00, 
1608.00, 
1609.00, 
1610.00, 
1611.00, 
1612.00, 
1613.00, 
1614.00, 
1615.00, 
1616.00, 
1617.00, 
1618.00, 
1619.00, 
1620.00, 
1621.00, 
1622.00, 
1623.00, 
1624.00, 
1625.00, 
1626.00, 
1627.00, 
1628.00, 
1629.00, 
1630.00, 
1631.00, 
1632.00, 
1633.00, 
1634.00, 
1635.00, 
1636.00, 
1637.00, 
1638.00, 
1639.00, 
1640.00, 
1641.00, 
1642.00, 
1643.00, 
1644.00, 
1645.00, 
1646.00, 
1647.00, 
1648.00, 
1649.00, 
1650.00, 
1651.00, 
1652.00, 
1653.00, 
1654.00, 
1655.00, 
1656.00, 
1657.00, 
1658.00, 
1659.00, 
1660.00, 
1661.00, 
1662.00, 
1663.00, 
1664.00, 
1665.00, 
1666.00, 
1667.00, 
1668.00, 
1669.00, 
1670.00, 
1671.00, 
1672.00, 
1673.00, 
1674.00, 
1675.00, 
1676.00, 
1677.00, 
1678.00, 
1679.00, 
1680.00, 
1681.00, 
1682.00, 
1683.00, 
1684.00, 
1685.00, 
1686.00, 
1687.00, 
1688.00, 
1689.00, 
1690.00, 
1691.00, 
1692.00, 
1693.00, 
1694.00, 
1695.00, 
1696.00, 
1697.00, 
1698.00, 
1699.00, 
1700.00, 
1701.00, 
1702.00, 
1703.00, 
1704.00, 
1705.00, 
1706.00, 
1707.00, 
1708.00, 
1709.00, 
1710.00, 
1711.00, 
1712.00, 
1713.00, 
1714.00, 
1715.00, 
1716.00, 
1717.00, 
1718.00, 
1719.00, 
1720.00, 
1721.00, 
1722.00, 
1723.00, 
1724.00, 
1725.00, 
1726.00, 
1727.00, 
1728.00, 
1729.00, 
1730.00, 
1731.00, 
1732.00, 
1733.00, 
1734.00, 
1735.00, 
1736.00, 
1737.00, 
1738.00, 
1739.00, 
1740.00, 
1741.00, 
1742.00, 
1743.00, 
1744.00, 
1745.00, 
1746.00, 
1747.00, 
1748.00, 
1749.00, 
1750.00, 
1751.00, 
1752.00, 
1753.00, 
1754.00, 
1755.00, 
1756.00, 
1757.00, 
1758.00, 
1759.00, 
1760.00, 
1761.00, 
1762.00, 
1763.00, 
1764.00, 
1765.00, 
1766.00, 
1767.00, 
1768.00, 
1769.00, 
1770.00, 
1771.00, 
1772.00, 
1773.00, 
1774.00, 
1775.00, 
1776.00, 
1777.00, 
1778.00, 
1779.00, 
1780.00, 
1781.00, 
1782.00, 
1783.00, 
1784.00, 
1785.00, 
1786.00, 
1787.00, 
1788.00, 
1789.00, 
1790.00, 
1791.00, 
1792.00, 
1793.00, 
1794.00, 
1795.00, 
1796.00, 
1797.00, 
1798.00, 
1799.00, 
1800.00, 
1801.00, 
1802.00, 
1803.00, 
1804.00, 
1805.00, 
1806.00, 
1807.00, 
1808.00, 
1809.00, 
1810.00, 
1811.00, 
1812.00, 
1813.00, 
1814.00, 
1815.00, 
1816.00, 
1817.00, 
1818.00, 
1819.00, 
1820.00, 
1821.00, 
1822.00, 
1823.00, 
1824.00, 
1825.00, 
1826.00, 
1827.00, 
1828.00, 
1829.00, 
1830.00, 
1831.00, 
1832.00, 
1833.00, 
1834.00, 
1835.00, 
1836.00, 
1837.00, 
1838.00, 
1839.00, 
1840.00, 
1841.00, 
1842.00, 
1843.00, 
1844.00, 
1845.00, 
1846.00, 
1847.00, 
1848.00, 
1849.00, 
1850.00, 
1851.00, 
1852.00, 
1853.00, 
1854.00, 
1855.00, 
1856.00, 
1857.00, 
1858.00, 
1859.00, 
1860.00, 
1861.00, 
1862.00, 
1863.00, 
1864.00, 
1865.00, 
1866.00, 
1867.00, 
1868.00, 
1869.00, 
1870.00, 
1871.00, 
1872.00, 
1873.00, 
1874.00, 
1875.00, 
1876.00, 
1877.00, 
1878.00, 
1879.00, 
1880.00, 
1881.00, 
1882.00, 
1883.00, 
1884.00, 
1885.00, 
1886.00, 
1887.00, 
1888.00, 
1889.00, 
1890.00, 
1891.00, 
1892.00, 
1893.00, 
1894.00, 
1895.00, 
1896.00, 
1897.00, 
1898.00, 
1899.00, 
1900.00, 
1901.00, 
1902.00, 
1903.00, 
1904.00, 
1905.00, 
1906.00, 
1907.00, 
1908.00, 
1909.00, 
1910.00, 
1911.00, 
1912.00, 
1913.00, 
1914.00, 
1915.00, 
1916.00, 
1917.00, 
1918.00, 
1919.00, 
1920.00, 
1921.00, 
1922.00, 
1923.00, 
1924.00, 
1925.00, 
1926.00, 
1927.00, 
1928.00, 
1929.00, 
1930.00, 
1931.00, 
1932.00, 
1933.00, 
1934.00, 
1935.00, 
1936.00, 
1937.00, 
1938.00, 
1939.00, 
1940.00, 
1941.00, 
1942.00, 
1943.00, 
1944.00, 
1945.00, 
1946.00, 
1947.00, 
1948.00, 
1949.00, 
1950.00, 
1951.00, 
1952.00, 
1953.00, 
1954.00, 
1955.00, 
1956.00, 
1957.00, 
1958.00, 
1959.00, 
1960.00, 
1961.00, 
1962.00, 
1963.00, 
1964.00, 
1965.00, 
1966.00, 
1967.00, 
1968.00, 
1969.00, 
1970.00, 
1971.00, 
1972.00, 
1973.00, 
1974.00, 
1975.00, 
1976.00, 
1977.00, 
1978.00, 
1979.00, 
1980.00, 
1981.00, 
1982.00, 
1983.00, 
1984.00, 
1985.00, 
1986.00, 
1987.00, 
1988.00, 
1989.00, 
1990.00, 
1991.00, 
1992.00, 
1993.00, 
1994.00, 
1995.00, 
1996.00, 
1997.00, 
1998.00, 
1999.00, 
2000.00, 
2001.00, 
2002.00, 
2003.00, 
2004.00, 
2005.00, 
2006.00, 
2007.00, 
2008.00, 
2009.00, 
2010.00, 
2011.00, 
2012.00, 
2013.00, 
2014.00, 
2015.00, 
2016.00, 
2017.00, 
2018.00, 
2019.00, 
2020.00, 
2021.00, 
2022.00, 
2023.00, 
2024.00, 
2025.00, 
2026.00, 
2027.00, 
2028.00, 
2029.00, 
2030.00, 
2031.00, 
2032.00, 
2033.00, 
2034.00, 
2035.00, 
2036.00, 
2037.00, 
2038.00, 
2039.00, 
2040.00, 
2041.00, 
2042.00, 
2043.00, 
2044.00, 
2045.00, 
2046.00, 
2047.00, 
2048.00, 
2049.00, 
2050.00, 
2051.00, 
2052.00, 
2053.00, 
2054.00, 
2055.00, 
2056.00, 
2057.00, 
2058.00, 
2059.00, 
2060.00, 
2061.00, 
2062.00, 
2063.00, 
2064.00, 
2065.00, 
2066.00, 
2067.00, 
2068.00, 
2069.00, 
2070.00, 
2071.00, 
2072.00, 
2073.00, 
2074.00, 
2075.00, 
2076.00, 
2077.00, 
2078.00, 
2079.00, 
2080.00, 
2081.00, 
2082.00, 
2083.00, 
2084.00, 
2085.00, 
2086.00, 
2087.00, 
2088.00, 
2089.00, 
2090.00, 
2091.00, 
2092.00, 
2093.00, 
2094.00, 
2095.00, 
2096.00, 
2097.00, 
2098.00, 
2099.00, 
2100.00, 
2101.00, 
2102.00, 
2103.00, 
2104.00, 
2105.00, 
2106.00, 
2107.00, 
2108.00, 
2109.00, 
2110.00, 
2111.00, 
2112.00, 
2113.00, 
2114.00, 
2115.00, 
2116.00, 
2117.00, 
2118.00, 
2119.00, 
2120.00, 
2121.00, 
2122.00, 
2123.00, 
2124.00, 
2125.00, 
2126.00, 
2127.00, 
2128.00, 
2129.00, 
2130.00, 
2131.00, 
2132.00, 
2133.00, 
2134.00, 
2135.00, 
2136.00, 
2137.00, 
2138.00, 
2139.00, 
2140.00, 
2141.00, 
2142.00, 
2143.00, 
2144.00, 
2145.00, 
2146.00, 
2147.00, 
2148.00, 
2149.00, 
2150.00, 
2151.00, 
2152.00, 
2153.00, 
2154.00, 
2155.00, 
2156.00, 
2157.00, 
2158.00, 
2159.00, 
2160.00, 
2161.00, 
2162.00, 
2163.00, 
2164.00, 
2165.00, 
2166.00, 
2167.00, 
2168.00, 
2169.00, 
2170.00, 
2171.00, 
2172.00, 
2173.00, 
2174.00, 
2175.00, 
2176.00, 
2177.00, 
2178.00, 
2179.00, 
2180.00, 
2181.00, 
2182.00, 
2183.00, 
2184.00, 
2185.00, 
2186.00, 
2187.00, 
2188.00, 
2189.00, 
2190.00, 
2191.00, 
2192.00, 
2193.00, 
2194.00, 
2195.00, 
2196.00, 
2197.00, 
2198.00, 
2199.00, 
2200.00, 
2201.00, 
2202.00, 
2203.00, 
2204.00, 
2205.00, 
2206.00, 
2207.00, 
2208.00, 
2209.00, 
2210.00, 
2211.00, 
2212.00, 
2213.00, 
2214.00, 
2215.00, 
2216.00, 
2217.00, 
2218.00, 
2219.00, 
2220.00, 
2221.00, 
2222.00, 
2223.00, 
2224.00, 
2225.00, 
2226.00, 
2227.00, 
2228.00, 
2229.00, 
2230.00, 
2231.00, 
2232.00, 
2233.00, 
2234.00, 
2235.00, 
2236.00, 
2237.00, 
2238.00, 
2239.00, 
2240.00, 
2241.00, 
2242.00, 
2243.00, 
2244.00, 
2245.00, 
2246.00, 
2247.00, 
2248.00, 
2249.00, 
2250.00, 
2251.00, 
2252.00, 
2253.00, 
2254.00, 
2255.00, 
2256.00, 
2257.00, 
2258.00, 
2259.00, 
2260.00, 
2261.00, 
2262.00, 
2263.00, 
2264.00, 
2265.00, 
2266.00, 
2267.00, 
2268.00, 
2269.00, 
2270.00, 
2271.00, 
2272.00, 
2273.00, 
2274.00, 
2275.00, 
2276.00, 
2277.00, 
2278.00, 
2279.00, 
2280.00, 
2281.00, 
2282.00, 
2283.00, 
2284.00, 
2285.00, 
2286.00, 
2287.00, 
2288.00, 
2289.00, 
2290.00, 
2291.00, 
2292.00, 
2293.00, 
2294.00, 
2295.00, 
2296.00, 
2297.00, 
2298.00, 
2299.00, 
2300.00, 
2301.00, 
2302.00, 
2303.00, 
2304.00, 
2305.00, 
2306.00, 
2307.00, 
2308.00, 
2309.00, 
2310.00, 
2311.00, 
2312.00, 
2313.00, 
2314.00, 
2315.00, 
2316.00, 
2317.00, 
2318.00, 
2319.00, 
2320.00, 
2321.00, 
2322.00, 
2323.00, 
2324.00, 
2325.00, 
2326.00, 
2327.00, 
2328.00, 
2329.00, 
2330.00, 
2331.00, 
2332.00, 
2333.00, 
2334.00, 
2335.00, 
2336.00, 
2337.00, 
2338.00, 
2339.00, 
2340.00, 
2341.00, 
2342.00, 
2343.00, 
2344.00, 
2345.00, 
2346.00, 
2347.00, 
2348.00, 
2349.00, 
2350.00, 
2351.00, 
2352.00, 
2353.00, 
2354.00, 
2355.00, 
2356.00, 
2357.00, 
2358.00, 
2359.00, 
2360.00, 
2361.00, 
2362.00, 
2363.00, 
2364.00, 
2365.00, 
2366.00, 
2367.00, 
2368.00, 
2369.00, 
2370.00, 
2371.00, 
2372.00, 
2373.00, 
2374.00, 
2375.00, 
2376.00, 
2377.00, 
2378.00, 
2379.00, 
2380.00, 
2381.00, 
2382.00, 
2383.00, 
2384.00, 
2385.00, 
2386.00, 
2387.00, 
2388.00, 
2389.00, 
2390.00, 
2391.00, 
2392.00, 
2393.00, 
2394.00, 
2395.00, 
2396.00, 
2397.00, 
2398.00, 
2399.00, 
2400.00, 
2401.00, 
2402.00, 
2403.00, 
2404.00, 
2405.00, 
2406.00, 
2407.00, 
2408.00, 
2409.00, 
2410.00, 
2411.00, 
2412.00, 
2413.00, 
2414.00, 
2415.00, 
2416.00, 
2417.00, 
2418.00, 
2419.00, 
2420.00, 
2421.00, 
2422.00, 
2423.00, 
2424.00, 
2425.00, 
2426.00, 
2427.00, 
2428.00, 
2429.00, 
2430.00, 
2431.00, 
2432.00, 
2433.00, 
2434.00, 
2435.00, 
2436.00, 
2437.00, 
2438.00, 
2439.00, 
2440.00, 
2441.00, 
2442.00, 
2443.00, 
2444.00, 
2445.00, 
2446.00, 
2447.00, 
2448.00, 
2449.00, 
2450.00, 
2451.00, 
2452.00, 
2453.00, 
2454.00, 
2455.00, 
2456.00, 
2457.00, 
2458.00, 
2459.00, 
2460.00, 
2461.00, 
2462.00, 
2463.00, 
2464.00, 
2465.00, 
2466.00, 
2467.00, 
2468.00, 
2469.00, 
2470.00, 
2471.00, 
2472.00, 
2473.00, 
2474.00, 
2475.00, 
2476.00, 
2477.00, 
2478.00, 
2479.00, 
2480.00, 
2481.00, 
2482.00, 
2483.00, 
2484.00, 
2485.00, 
2486.00, 
2487.00, 
2488.00, 
2489.00, 
2490.00, 
2491.00, 
2492.00, 
2493.00, 
2494.00, 
2495.00, 
2496.00, 
2497.00, 
2498.00, 
2499.00, 
2500.00, 
2501.00, 
2502.00, 
2503.00, 
2504.00, 
2505.00, 
2506.00, 
2507.00, 
2508.00, 
2509.00, 
2510.00, 
2511.00, 
2512.00, 
2513.00, 
2514.00, 
2515.00, 
2516.00, 
2517.00, 
2518.00, 
2519.00, 
2520.00, 
2521.00, 
2522.00, 
2523.00, 
2524.00, 
2525.00, 
2526.00, 
2527.00, 
2528.00, 
2529.00, 
2530.00, 
2531.00, 
2532.00, 
2533.00, 
2534.00, 
2535.00, 
2536.00, 
2537.00, 
2538.00, 
2539.00, 
2540.00, 
2541.00, 
2542.00, 
2543.00, 
2544.00, 
2545.00, 
2546.00, 
2547.00, 
2548.00, 
2549.00, 
2550.00, 
2551.00, 
2552.00, 
2553.00, 
2554.00, 
2555.00, 
2556.00, 
2557.00, 
2558.00, 
2559.00, 
2560.00, 
2561.00, 
2562.00, 
2563.00, 
2564.00, 
2565.00, 
2566.00, 
2567.00, 
2568.00, 
2569.00, 
2570.00, 
2571.00, 
2572.00, 
2573.00, 
2574.00, 
2575.00, 
2576.00, 
2577.00, 
2578.00, 
2579.00, 
2580.00, 
2581.00, 
2582.00, 
2583.00, 
2584.00, 
2585.00, 
2586.00, 
2587.00, 
2588.00, 
2589.00, 
2590.00, 
2591.00, 
2592.00, 
2593.00, 
2594.00, 
2595.00, 
2596.00, 
2597.00, 
2598.00, 
2599.00, 
2600.00, 
