"2cP4 - RawData"
"Wavelength nm.","T%"
200.00,0.000
201.00,0.001
202.00,0.004
203.00,0.001
204.00,0.002
205.00,0.001
206.00,0.000
207.00,0.001
208.00,0.004
209.00,0.004
210.00,-0.000
211.00,0.002
212.00,0.001
213.00,0.002
214.00,0.001
215.00,0.001
216.00,0.002
217.00,0.004
218.00,0.003
219.00,0.003
220.00,0.002
221.00,-0.000
222.00,0.002
223.00,-0.001
224.00,0.000
225.00,0.000
226.00,0.001
227.00,0.002
228.00,0.000
229.00,-0.001
230.00,0.000
231.00,0.000
232.00,0.001
233.00,0.001
234.00,-0.001
235.00,0.002
236.00,0.001
237.00,-0.003
238.00,-0.001
239.00,0.000
240.00,0.000
241.00,-0.000
242.00,0.002
243.00,-0.000
244.00,0.000
245.00,0.000
246.00,-0.002
247.00,0.002
248.00,-0.001
249.00,0.001
250.00,-0.001
251.00,0.001
252.00,0.001
253.00,0.000
254.00,-0.000
255.00,-0.000
256.00,0.001
257.00,0.000
258.00,0.001
259.00,0.001
260.00,0.001
261.00,0.000
262.00,0.000
263.00,-0.000
264.00,0.000
265.00,0.001
266.00,0.001
267.00,-0.001
268.00,-0.000
269.00,0.000
270.00,0.001
271.00,-0.001
272.00,0.001
273.00,-0.001
274.00,-0.000
275.00,-0.001
276.00,-0.000
277.00,0.000
278.00,-0.001
279.00,-0.000
280.00,0.001
281.00,0.001
282.00,-0.001
283.00,0.000
284.00,0.001
285.00,0.000
286.00,0.000
287.00,-0.001
288.00,0.002
289.00,0.001
290.00,0.000
291.00,0.001
292.00,-0.001
293.00,0.000
294.00,-0.001
295.00,0.000
296.00,0.000
297.00,0.001
298.00,0.000
299.00,0.001
300.00,0.001
301.00,0.000
302.00,0.005
303.00,0.008
304.00,0.011
305.00,0.014
306.00,0.021
307.00,0.035
308.00,0.055
309.00,0.087
310.00,0.119
311.00,0.158
312.00,0.216
313.00,0.299
314.00,0.392
315.00,0.506
316.00,0.639
317.00,0.821
318.00,1.005
319.00,1.243
320.00,1.508
321.00,1.819
322.00,2.134
323.00,2.505
324.00,2.911
325.00,3.322
326.00,3.701
327.00,4.229
328.00,4.740
329.00,5.236
330.00,5.763
331.00,6.297
332.00,6.832
333.00,7.407
334.00,7.923
335.00,8.495
336.00,9.039
337.00,9.604
338.00,10.151
339.00,10.654
340.00,11.168
341.00,11.670
342.00,12.193
343.00,12.611
344.00,13.014
345.00,13.458
346.00,13.814
347.00,14.197
348.00,14.546
349.00,14.864
350.00,15.167
351.00,15.446
352.00,15.712
353.00,15.988
354.00,16.226
355.00,16.406
356.00,16.659
357.00,16.809
358.00,17.016
359.00,17.175
360.00,17.326
361.00,17.415
362.00,17.576
363.00,17.669
364.00,17.776
365.00,17.834
366.00,17.930
367.00,17.983
368.00,18.025
369.00,18.050
370.00,18.113
371.00,18.113
372.00,18.115
373.00,18.076
374.00,18.091
375.00,18.055
376.00,18.021
377.00,17.963
378.00,17.933
379.00,17.871
380.00,17.856
381.00,17.822
382.00,17.815
383.00,17.793
384.00,17.796
385.00,17.845
386.00,17.834
387.00,17.876
388.00,17.886
389.00,17.895
390.00,17.921
391.00,17.929
392.00,17.953
393.00,17.949
394.00,17.957
395.00,17.954
396.00,17.934
397.00,17.924
398.00,17.946
399.00,17.948
400.00,17.927
401.00,17.944
402.00,17.952
403.00,17.930
404.00,17.897
405.00,17.888
406.00,17.899
407.00,17.863
408.00,17.878
409.00,17.841
410.00,17.844
411.00,17.793
412.00,17.755
413.00,17.794
414.00,17.779
415.00,17.794
416.00,17.820
417.00,17.842
418.00,17.882
419.00,17.919
420.00,17.933
421.00,18.002
422.00,18.014
423.00,18.051
424.00,18.071
425.00,18.101
426.00,18.144
427.00,18.199
428.00,18.263
429.00,18.240
430.00,18.324
431.00,18.382
432.00,18.413
433.00,18.487
434.00,18.525
435.00,18.560
436.00,18.633
437.00,18.740
438.00,18.828
439.00,18.894
440.00,18.953
441.00,19.034
442.00,19.118
443.00,19.226
444.00,19.321
445.00,19.385
446.00,19.485
447.00,19.581
448.00,19.676
449.00,19.795
450.00,19.881
451.00,19.969
452.00,20.099
453.00,20.188
454.00,20.327
455.00,20.416
456.00,20.504
457.00,20.671
458.00,20.778
459.00,20.890
460.00,21.045
461.00,21.140
462.00,21.220
463.00,21.454
464.00,21.547
465.00,21.686
466.00,21.812
467.00,21.946
468.00,22.062
469.00,22.172
470.00,22.307
471.00,22.391
472.00,22.544
473.00,22.634
474.00,22.763
475.00,22.900
476.00,23.001
477.00,23.136
478.00,23.246
479.00,23.434
480.00,23.587
481.00,23.675
482.00,23.848
483.00,23.897
484.00,24.147
485.00,24.349
486.00,24.478
487.00,24.624
488.00,24.793
489.00,24.923
490.00,25.123
491.00,25.271
492.00,25.402
493.00,25.580
494.00,25.707
495.00,25.786
496.00,25.886
497.00,26.000
498.00,26.204
499.00,26.353
500.00,26.493
501.00,26.594
502.00,26.758
503.00,26.874
504.00,27.002
505.00,27.159
506.00,27.274
507.00,27.341
508.00,27.500
509.00,27.580
510.00,27.806
511.00,27.917
512.00,28.036
513.00,28.185
514.00,28.351
515.00,28.438
516.00,28.567
517.00,28.711
518.00,28.807
519.00,28.890
520.00,29.025
521.00,29.054
522.00,29.158
523.00,29.241
524.00,29.279
525.00,29.466
526.00,29.610
527.00,29.696
528.00,29.799
529.00,29.934
530.00,30.029
531.00,30.154
532.00,30.226
533.00,30.325
534.00,30.461
535.00,30.505
536.00,30.614
537.00,30.686
538.00,30.786
539.00,30.856
540.00,30.959
541.00,31.020
542.00,31.075
543.00,31.176
544.00,31.277
545.00,31.284
546.00,31.374
547.00,31.470
548.00,31.525
549.00,31.599
550.00,31.711
551.00,31.771
552.00,31.851
553.00,31.927
554.00,32.004
555.00,32.088
556.00,32.163
557.00,32.147
558.00,32.268
559.00,32.320
560.00,32.381
561.00,32.484
562.00,32.439
563.00,32.483
564.00,32.652
565.00,32.656
566.00,32.730
567.00,32.767
568.00,32.740
569.00,32.852
570.00,32.888
571.00,32.958
572.00,33.009
573.00,33.025
574.00,33.093
575.00,33.126
576.00,33.109
577.00,33.192
578.00,33.247
579.00,33.318
580.00,33.409
581.00,33.490
582.00,33.587
583.00,33.609
584.00,33.738
585.00,33.739
586.00,33.807
587.00,33.870
588.00,33.945
589.00,33.955
590.00,34.017
591.00,34.069
592.00,34.059
593.00,34.184
594.00,34.179
595.00,34.239
596.00,34.370
597.00,34.458
598.00,34.454
599.00,34.514
600.00,34.548
601.00,34.584
602.00,34.635
603.00,34.701
604.00,34.709
605.00,34.793
606.00,34.873
607.00,34.958
608.00,34.969
609.00,35.050
610.00,34.905
611.00,35.131
612.00,35.145
613.00,35.202
614.00,35.258
615.00,35.346
616.00,35.437
617.00,35.465
618.00,35.549
619.00,35.643
620.00,35.676
621.00,35.713
622.00,35.742
623.00,35.901
624.00,35.952
625.00,36.004
626.00,36.024
627.00,36.132
628.00,36.206
629.00,36.205
630.00,36.352
631.00,36.376
632.00,36.436
633.00,36.515
634.00,36.568
635.00,36.662
636.00,36.846
637.00,36.977
638.00,37.050
639.00,37.107
640.00,37.173
641.00,37.237
642.00,37.355
643.00,37.379
644.00,37.525
645.00,37.615
646.00,37.763
647.00,37.830
648.00,37.972
649.00,38.112
650.00,38.054
651.00,38.247
652.00,38.299
653.00,38.421
654.00,38.551
655.00,38.636
656.00,38.757
657.00,38.858
658.00,38.981
659.00,39.059
660.00,39.229
661.00,39.187
662.00,39.408
663.00,39.489
664.00,39.685
665.00,39.732
666.00,39.885
667.00,40.075
668.00,40.093
669.00,40.221
670.00,40.297
671.00,40.339
672.00,40.494
673.00,40.588
674.00,40.754
675.00,40.804
676.00,41.023
677.00,41.094
678.00,41.104
679.00,41.254
680.00,41.442
681.00,41.495
682.00,41.621
683.00,41.763
684.00,42.006
685.00,41.970
686.00,41.959
687.00,42.189
688.00,42.276
689.00,42.310
690.00,42.565
691.00,42.664
692.00,42.652
693.00,42.852
694.00,42.915
695.00,42.987
696.00,43.145
697.00,43.267
698.00,43.457
699.00,43.613
700.00,43.658
701.00,43.753
702.00,43.899
703.00,44.060
704.00,44.097
705.00,44.122
706.00,44.395
707.00,44.536
708.00,44.402
709.00,44.648
710.00,44.867
711.00,44.815
712.00,44.725
713.00,44.973
714.00,45.055
715.00,45.122
716.00,45.185
717.00,45.364
718.00,45.365
719.00,45.413
720.00,45.518
721.00,49.773
722.00,49.766
723.00,49.840
724.00,49.735
725.00,49.906
726.00,49.929
727.00,49.950
728.00,50.098
729.00,50.075
730.00,50.236
731.00,50.120
732.00,50.243
733.00,50.250
734.00,50.366
735.00,50.381
736.00,50.463
737.00,50.494
738.00,50.527
739.00,50.603
740.00,50.675
741.00,50.809
742.00,50.738
743.00,50.742
744.00,50.820
745.00,50.830
746.00,50.966
747.00,50.847
748.00,50.942
749.00,50.944
750.00,50.941
751.00,50.949
752.00,51.068
753.00,51.063
754.00,51.080
755.00,51.113
756.00,51.105
757.00,51.211
758.00,51.221
759.00,51.221
760.00,51.202
761.00,51.227
762.00,51.238
763.00,51.308
764.00,51.363
765.00,51.388
766.00,51.395
767.00,51.416
768.00,51.489
769.00,51.457
770.00,51.516
771.00,51.521
772.00,51.591
773.00,51.542
774.00,51.621
775.00,51.661
776.00,51.651
777.00,51.666
778.00,51.718
779.00,51.763
780.00,51.651
781.00,51.713
782.00,51.669
783.00,51.703
784.00,51.667
785.00,51.735
786.00,51.711
787.00,51.716
788.00,51.716
789.00,51.802
790.00,51.762
791.00,51.848
792.00,51.829
793.00,51.695
794.00,51.785
795.00,51.774
796.00,51.799
797.00,51.745
798.00,51.784
799.00,51.718
800.00,51.750
801.00,51.688
802.00,51.793
803.00,51.807
804.00,51.745
805.00,51.700
806.00,51.702
807.00,51.713
808.00,51.733
809.00,51.690
810.00,51.721
811.00,51.710
812.00,51.792
813.00,51.666
814.00,51.756
815.00,51.721
816.00,51.735
817.00,51.638
818.00,51.563
819.00,51.617
820.00,51.618
821.00,51.605
822.00,51.561
823.00,51.546
824.00,51.597
825.00,51.607
826.00,51.602
827.00,51.685
828.00,51.534
829.00,51.560
830.00,51.500
831.00,53.728
832.00,53.724
833.00,53.697
834.00,53.699
835.00,53.696
836.00,53.707
837.00,53.674
838.00,53.608
839.00,53.615
840.00,53.607
841.00,53.620
842.00,53.593
843.00,53.569
844.00,53.654
845.00,53.485
846.00,53.547
847.00,53.516
848.00,53.508
849.00,53.459
850.00,53.453
851.00,53.378
852.00,53.431
853.00,53.382
854.00,53.336
855.00,53.358
856.00,53.306
857.00,53.255
858.00,53.237
859.00,53.215
860.00,53.227
861.00,53.222
862.00,53.173
863.00,53.171
864.00,53.164
865.00,53.195
866.00,53.182
867.00,53.142
868.00,53.154
869.00,53.152
870.00,53.072
871.00,53.222
872.00,53.091
873.00,53.090
874.00,53.080
875.00,53.097
876.00,53.058
877.00,53.079
878.00,53.063
879.00,53.046
880.00,53.025
881.00,52.999
882.00,53.038
883.00,53.003
884.00,52.971
885.00,52.939
886.00,53.062
887.00,52.931
888.00,52.909
889.00,52.903
890.00,52.879
891.00,52.862
892.00,52.820
893.00,52.806
894.00,52.819
895.00,52.796
896.00,52.754
897.00,52.749
898.00,52.711
899.00,52.699
900.00,52.693
901.00,52.690
902.00,52.682
903.00,52.731
904.00,52.704
905.00,52.636
906.00,52.626
907.00,52.605
908.00,52.590
909.00,52.579
910.00,52.551
911.00,52.558
912.00,52.547
913.00,52.500
914.00,52.483
915.00,52.478
916.00,52.453
917.00,52.437
918.00,52.435
919.00,52.397
920.00,52.373
921.00,52.371
922.00,52.352
923.00,52.299
924.00,52.291
925.00,52.270
926.00,52.259
927.00,52.256
928.00,52.227
929.00,52.228
930.00,52.191
931.00,52.198
932.00,52.164
933.00,52.157
934.00,52.172
935.00,52.111
936.00,52.101
937.00,52.085
938.00,52.087
939.00,52.047
940.00,52.023
941.00,52.036
942.00,51.989
943.00,51.971
944.00,51.933
945.00,51.931
946.00,51.949
947.00,51.959
948.00,51.885
949.00,51.876
950.00,51.845
951.00,51.833
952.00,51.787
953.00,51.782
954.00,51.746
955.00,51.696
956.00,51.720
957.00,51.669
958.00,51.682
959.00,51.633
960.00,51.621
961.00,51.601
962.00,51.622
963.00,51.563
964.00,51.556
965.00,51.551
966.00,51.535
967.00,51.553
968.00,51.513
969.00,51.541
970.00,51.524
971.00,51.511
972.00,51.498
973.00,51.531
974.00,51.554
975.00,51.500
976.00,51.522
977.00,51.512
978.00,51.551
979.00,51.491
980.00,51.509
981.00,51.529
982.00,51.492
983.00,51.498
984.00,51.507
985.00,51.515
986.00,51.431
987.00,51.527
988.00,51.470
989.00,51.471
990.00,51.448
991.00,51.430
992.00,51.451
993.00,51.409
994.00,51.387
995.00,51.387
996.00,51.376
997.00,51.374
998.00,51.352
999.00,51.356
1000.00,51.307
1001.00,51.320
1002.00,51.388
1003.00,51.304
1004.00,51.276
1005.00,51.251
1006.00,51.291
1007.00,51.245
1008.00,51.210
1009.00,51.199
1010.00,51.187
1011.00,51.194
1012.00,51.148
1013.00,51.169
1014.00,51.135
1015.00,51.148
1016.00,51.114
1017.00,51.111
1018.00,51.088
1019.00,51.060
1020.00,51.048
1021.00,51.030
1022.00,51.041
1023.00,50.983
1024.00,50.996
1025.00,50.990
1026.00,50.984
1027.00,50.964
1028.00,50.956
1029.00,50.933
1030.00,50.900
1031.00,50.903
1032.00,50.861
1033.00,50.868
1034.00,50.831
1035.00,50.804
1036.00,50.792
1037.00,50.763
1038.00,50.754
1039.00,50.722
1040.00,50.732
1041.00,50.686
1042.00,50.692
1043.00,50.655
1044.00,50.703
1045.00,50.673
1046.00,50.661
1047.00,50.678
1048.00,50.686
1049.00,50.698
1050.00,50.702
1051.00,50.730
1052.00,50.729
1053.00,50.728
1054.00,50.747
1055.00,50.771
1056.00,50.765
1057.00,50.748
1058.00,50.750
1059.00,50.750
1060.00,50.751
1061.00,50.744
1062.00,50.720
1063.00,50.727
1064.00,50.705
1065.00,50.698
1066.00,50.700
1067.00,50.684
1068.00,50.701
1069.00,50.656
1070.00,50.645
1071.00,50.633
1072.00,50.658
1073.00,50.613
1074.00,50.618
1075.00,50.615
1076.00,50.606
1077.00,50.601
1078.00,50.569
1079.00,50.568
1080.00,50.578
1081.00,50.547
1082.00,50.556
1083.00,50.546
1084.00,50.535
1085.00,50.534
1086.00,50.526
1087.00,50.519
1088.00,50.505
1089.00,50.498
1090.00,50.493
1091.00,50.495
1092.00,50.483
1093.00,50.475
1094.00,50.448
1095.00,50.425
1096.00,50.422
1097.00,50.418
1098.00,50.406
1099.00,50.415
1100.00,50.387
1101.00,50.379
1102.00,50.374
1103.00,50.366
1104.00,50.357
1105.00,50.351
1106.00,50.338
1107.00,50.328
1108.00,50.327
1109.00,50.311
1110.00,50.315
1111.00,50.294
1112.00,50.282
1113.00,50.273
1114.00,50.256
1115.00,50.261
1116.00,50.245
1117.00,50.232
1118.00,50.230
1119.00,50.220
1120.00,50.226
1121.00,50.238
1122.00,50.238
1123.00,50.186
1124.00,50.184
1125.00,50.166
1126.00,50.160
1127.00,50.174
1128.00,50.153
1129.00,50.144
1130.00,50.130
1131.00,50.122
1132.00,50.121
1133.00,50.123
1134.00,50.121
1135.00,50.101
1136.00,50.096
1137.00,50.087
1138.00,50.094
1139.00,50.088
1140.00,50.071
1141.00,50.061
1142.00,50.053
1143.00,50.082
1144.00,50.042
1145.00,50.049
1146.00,50.045
1147.00,50.033
1148.00,50.047
1149.00,50.048
1150.00,50.037
1151.00,50.030
1152.00,50.014
1153.00,50.017
1154.00,50.024
1155.00,50.016
1156.00,50.003
1157.00,50.018
1158.00,49.999
1159.00,49.989
1160.00,49.993
1161.00,49.992
1162.00,49.988
1163.00,49.980
1164.00,49.980
1165.00,49.976
1166.00,49.969
1167.00,49.974
1168.00,49.992
1169.00,49.972
1170.00,49.972
1171.00,49.963
1172.00,49.958
1173.00,49.957
1174.00,49.958
1175.00,49.949
1176.00,49.961
1177.00,49.942
1178.00,49.945
1179.00,49.960
1180.00,49.939
1181.00,49.968
1182.00,49.963
1183.00,49.946
1184.00,49.930
1185.00,49.936
1186.00,49.914
1187.00,49.941
1188.00,49.926
1189.00,49.922
1190.00,49.929
1191.00,49.911
1192.00,49.932
1193.00,49.919
1194.00,49.917
1195.00,49.893
1196.00,49.914
1197.00,49.915
1198.00,49.909
1199.00,49.907
1200.00,49.906
1201.00,49.922
1202.00,49.906
1203.00,49.909
1204.00,49.907
1205.00,49.908
1206.00,49.896
1207.00,49.894
1208.00,49.881
1209.00,49.880
1210.00,49.876
1211.00,49.871
1212.00,49.893
1213.00,49.845
1214.00,49.885
1215.00,49.885
1216.00,49.876
1217.00,49.887
1218.00,49.870
1219.00,49.871
1220.00,49.878
1221.00,49.883
1222.00,49.869
1223.00,49.896
1224.00,49.880
1225.00,49.879
1226.00,49.896
1227.00,49.882
1228.00,49.902
1229.00,49.893
1230.00,49.936
1231.00,49.923
1232.00,49.931
1233.00,49.931
1234.00,49.942
1235.00,49.929
1236.00,49.925
1237.00,49.929
1238.00,49.912
1239.00,49.927
1240.00,49.915
1241.00,49.921
1242.00,49.920
1243.00,49.924
1244.00,49.932
1245.00,49.968
1246.00,49.961
1247.00,49.941
1248.00,49.956
1249.00,49.953
1250.00,49.952
1251.00,49.946
1252.00,49.948
1253.00,49.949
1254.00,49.963
1255.00,49.951
1256.00,49.953
1257.00,49.921
1258.00,49.973
1259.00,49.966
1260.00,49.985
1261.00,49.973
1262.00,49.948
1263.00,49.957
1264.00,49.971
1265.00,49.982
1266.00,49.986
1267.00,49.974
1268.00,49.981
1269.00,49.983
1270.00,50.007
1271.00,49.996
1272.00,49.999
1273.00,50.008
1274.00,50.011
1275.00,50.027
1276.00,50.031
1277.00,50.037
1278.00,50.059
1279.00,50.045
1280.00,50.043
1281.00,50.064
1282.00,50.052
1283.00,50.039
1284.00,50.068
1285.00,50.041
1286.00,50.078
1287.00,50.053
1288.00,50.065
1289.00,50.072
1290.00,50.090
1291.00,50.079
1292.00,50.090
1293.00,50.080
1294.00,50.090
1295.00,50.086
1296.00,50.077
1297.00,50.105
1298.00,50.116
1299.00,50.104
1300.00,50.126
1301.00,50.114
1302.00,50.125
1303.00,50.152
1304.00,50.125
1305.00,50.151
1306.00,50.135
1307.00,50.142
1308.00,50.150
1309.00,50.165
1310.00,50.175
1311.00,50.166
1312.00,50.156
1313.00,50.161
1314.00,50.180
1315.00,50.180
1316.00,50.187
1317.00,50.206
1318.00,50.192
1319.00,50.220
1320.00,50.227
1321.00,50.376
1322.00,50.392
1323.00,50.368
1324.00,50.367
1325.00,50.355
1326.00,50.373
1327.00,50.350
1328.00,50.354
1329.00,50.343
1330.00,50.360
1331.00,50.365
1332.00,50.362
1333.00,50.341
1334.00,50.417
1335.00,50.396
1336.00,50.432
1337.00,50.450
1338.00,50.514
1339.00,50.557
1340.00,50.614
1341.00,50.666
1342.00,50.728
1343.00,50.794
1344.00,50.840
1345.00,50.898
1346.00,50.943
1347.00,50.959
1348.00,50.975
1349.00,51.005
1350.00,51.034
1351.00,51.043
1352.00,51.030
1353.00,51.011
1354.00,51.065
1355.00,51.128
1356.00,51.060
1357.00,51.053
1358.00,51.076
1359.00,51.076
1360.00,51.137
1361.00,51.049
1362.00,51.061
1363.00,51.069
1364.00,51.049
1365.00,51.066
1366.00,51.128
1367.00,51.107
1368.00,51.075
1369.00,51.066
1370.00,51.042
1371.00,51.297
1372.00,51.048
1373.00,51.047
1374.00,51.074
1375.00,51.041
1376.00,51.057
1377.00,51.039
1378.00,51.115
1379.00,51.067
1380.00,51.065
1381.00,51.109
1382.00,51.006
1383.00,51.036
1384.00,50.979
1385.00,50.968
1386.00,51.051
1387.00,51.023
1388.00,50.989
1389.00,50.969
1390.00,51.035
1391.00,51.000
1392.00,51.016
1393.00,51.097
1394.00,51.048
1395.00,51.014
1396.00,50.979
1397.00,51.037
1398.00,51.057
1399.00,51.082
1400.00,51.000
1401.00,51.017
1402.00,51.064
1403.00,51.062
1404.00,51.066
1405.00,51.074
1406.00,51.088
1407.00,51.089
1408.00,51.076
1409.00,51.122
1410.00,51.124
1411.00,51.068
1412.00,51.136
1413.00,51.126
1414.00,51.115
1415.00,51.124
1416.00,51.162
1417.00,51.186
1418.00,51.183
1419.00,51.163
1420.00,51.186
1421.00,51.226
1422.00,51.221
1423.00,51.240
1424.00,51.240
1425.00,51.248
1426.00,51.241
1427.00,51.281
1428.00,51.285
1429.00,51.290
1430.00,51.304
1431.00,51.328
1432.00,51.336
1433.00,51.349
1434.00,51.348
1435.00,51.400
1436.00,51.389
1437.00,51.397
1438.00,51.401
1439.00,51.428
1440.00,51.436
1441.00,51.454
1442.00,51.472
1443.00,51.479
1444.00,51.522
1445.00,51.493
1446.00,51.501
1447.00,51.544
1448.00,51.564
1449.00,51.580
1450.00,51.576
1451.00,51.604
1452.00,51.605
1453.00,51.621
1454.00,51.652
1455.00,51.656
1456.00,51.668
1457.00,51.666
1458.00,51.711
1459.00,51.706
1460.00,51.732
1461.00,51.742
1462.00,51.771
1463.00,51.773
1464.00,51.773
1465.00,51.801
1466.00,51.804
1467.00,51.823
1468.00,51.867
1469.00,51.843
1470.00,51.862
1471.00,51.882
1472.00,51.890
1473.00,51.900
1474.00,51.930
1475.00,51.927
1476.00,51.952
1477.00,51.952
1478.00,51.979
1479.00,51.992
1480.00,51.985
1481.00,52.008
1482.00,52.039
1483.00,52.030
1484.00,52.039
1485.00,52.040
1486.00,52.041
1487.00,52.074
1488.00,52.087
1489.00,52.083
1490.00,52.104
1491.00,52.121
1492.00,52.133
1493.00,52.126
1494.00,52.158
1495.00,52.162
1496.00,52.160
1497.00,52.162
1498.00,52.177
1499.00,52.203
1500.00,52.218
1501.00, 
1502.00, 
1503.00, 
1504.00, 
1505.00, 
1506.00, 
1507.00, 
1508.00, 
1509.00, 
1510.00, 
1511.00, 
1512.00, 
1513.00, 
1514.00, 
1515.00, 
1516.00, 
1517.00, 
1518.00, 
1519.00, 
1520.00, 
1521.00, 
1522.00, 
1523.00, 
1524.00, 
1525.00, 
1526.00, 
1527.00, 
1528.00, 
1529.00, 
1530.00, 
1531.00, 
1532.00, 
1533.00, 
1534.00, 
1535.00, 
1536.00, 
1537.00, 
1538.00, 
1539.00, 
1540.00, 
1541.00, 
1542.00, 
1543.00, 
1544.00, 
1545.00, 
1546.00, 
1547.00, 
1548.00, 
1549.00, 
1550.00, 
1551.00, 
1552.00, 
1553.00, 
1554.00, 
1555.00, 
1556.00, 
1557.00, 
1558.00, 
1559.00, 
1560.00, 
1561.00, 
1562.00, 
1563.00, 
1564.00, 
1565.00, 
1566.00, 
1567.00, 
1568.00, 
1569.00, 
1570.00, 
1571.00, 
1572.00, 
1573.00, 
1574.00, 
1575.00, 
1576.00, 
1577.00, 
1578.00, 
1579.00, 
1580.00, 
1581.00, 
1582.00, 
1583.00, 
1584.00, 
1585.00, 
1586.00, 
1587.00, 
1588.00, 
1589.00, 
1590.00, 
1591.00, 
1592.00, 
1593.00, 
1594.00, 
1595.00, 
1596.00, 
1597.00, 
1598.00, 
1599.00, 
1600.00, 
1601.00, 
1602.00, 
1603.00, 
1604.00, 
1605.00, 
1606.00, 
1607.00, 
1608.00, 
1609.00, 
1610.00, 
1611.00, 
1612.00, 
1613.00, 
1614.00, 
1615.00, 
1616.00, 
1617.00, 
1618.00, 
1619.00, 
1620.00, 
1621.00, 
1622.00, 
1623.00, 
1624.00, 
1625.00, 
1626.00, 
1627.00, 
1628.00, 
1629.00, 
1630.00, 
1631.00, 
1632.00, 
1633.00, 
1634.00, 
1635.00, 
1636.00, 
1637.00, 
1638.00, 
1639.00, 
1640.00, 
1641.00, 
1642.00, 
1643.00, 
1644.00, 
1645.00, 
1646.00, 
1647.00, 
1648.00, 
1649.00, 
1650.00, 
1651.00, 
1652.00, 
1653.00, 
1654.00, 
1655.00, 
1656.00, 
1657.00, 
1658.00, 
1659.00, 
1660.00, 
1661.00, 
1662.00, 
1663.00, 
1664.00, 
1665.00, 
1666.00, 
1667.00, 
1668.00, 
1669.00, 
1670.00, 
1671.00, 
1672.00, 
1673.00, 
1674.00, 
1675.00, 
1676.00, 
1677.00, 
1678.00, 
1679.00, 
1680.00, 
1681.00, 
1682.00, 
1683.00, 
1684.00, 
1685.00, 
1686.00, 
1687.00, 
1688.00, 
1689.00, 
1690.00, 
1691.00, 
1692.00, 
1693.00, 
1694.00, 
1695.00, 
1696.00, 
1697.00, 
1698.00, 
1699.00, 
1700.00, 
1701.00, 
1702.00, 
1703.00, 
1704.00, 
1705.00, 
1706.00, 
1707.00, 
1708.00, 
1709.00, 
1710.00, 
1711.00, 
1712.00, 
1713.00, 
1714.00, 
1715.00, 
1716.00, 
1717.00, 
1718.00, 
1719.00, 
1720.00, 
1721.00, 
1722.00, 
1723.00, 
1724.00, 
1725.00, 
1726.00, 
1727.00, 
1728.00, 
1729.00, 
1730.00, 
1731.00, 
1732.00, 
1733.00, 
1734.00, 
1735.00, 
1736.00, 
1737.00, 
1738.00, 
1739.00, 
1740.00, 
1741.00, 
1742.00, 
1743.00, 
1744.00, 
1745.00, 
1746.00, 
1747.00, 
1748.00, 
1749.00, 
1750.00, 
1751.00, 
1752.00, 
1753.00, 
1754.00, 
1755.00, 
1756.00, 
1757.00, 
1758.00, 
1759.00, 
1760.00, 
1761.00, 
1762.00, 
1763.00, 
1764.00, 
1765.00, 
1766.00, 
1767.00, 
1768.00, 
1769.00, 
1770.00, 
1771.00, 
1772.00, 
1773.00, 
1774.00, 
1775.00, 
1776.00, 
1777.00, 
1778.00, 
1779.00, 
1780.00, 
1781.00, 
1782.00, 
1783.00, 
1784.00, 
1785.00, 
1786.00, 
1787.00, 
1788.00, 
1789.00, 
1790.00, 
1791.00, 
1792.00, 
1793.00, 
1794.00, 
1795.00, 
1796.00, 
1797.00, 
1798.00, 
1799.00, 
1800.00, 
1801.00, 
1802.00, 
1803.00, 
1804.00, 
1805.00, 
1806.00, 
1807.00, 
1808.00, 
1809.00, 
1810.00, 
1811.00, 
1812.00, 
1813.00, 
1814.00, 
1815.00, 
1816.00, 
1817.00, 
1818.00, 
1819.00, 
1820.00, 
1821.00, 
1822.00, 
1823.00, 
1824.00, 
1825.00, 
1826.00, 
1827.00, 
1828.00, 
1829.00, 
1830.00, 
1831.00, 
1832.00, 
1833.00, 
1834.00, 
1835.00, 
1836.00, 
1837.00, 
1838.00, 
1839.00, 
1840.00, 
1841.00, 
1842.00, 
1843.00, 
1844.00, 
1845.00, 
1846.00, 
1847.00, 
1848.00, 
1849.00, 
1850.00, 
1851.00, 
1852.00, 
1853.00, 
1854.00, 
1855.00, 
1856.00, 
1857.00, 
1858.00, 
1859.00, 
1860.00, 
1861.00, 
1862.00, 
1863.00, 
1864.00, 
1865.00, 
1866.00, 
1867.00, 
1868.00, 
1869.00, 
1870.00, 
1871.00, 
1872.00, 
1873.00, 
1874.00, 
1875.00, 
1876.00, 
1877.00, 
1878.00, 
1879.00, 
1880.00, 
1881.00, 
1882.00, 
1883.00, 
1884.00, 
1885.00, 
1886.00, 
1887.00, 
1888.00, 
1889.00, 
1890.00, 
1891.00, 
1892.00, 
1893.00, 
1894.00, 
1895.00, 
1896.00, 
1897.00, 
1898.00, 
1899.00, 
1900.00, 
1901.00, 
1902.00, 
1903.00, 
1904.00, 
1905.00, 
1906.00, 
1907.00, 
1908.00, 
1909.00, 
1910.00, 
1911.00, 
1912.00, 
1913.00, 
1914.00, 
1915.00, 
1916.00, 
1917.00, 
1918.00, 
1919.00, 
1920.00, 
1921.00, 
1922.00, 
1923.00, 
1924.00, 
1925.00, 
1926.00, 
1927.00, 
1928.00, 
1929.00, 
1930.00, 
1931.00, 
1932.00, 
1933.00, 
1934.00, 
1935.00, 
1936.00, 
1937.00, 
1938.00, 
1939.00, 
1940.00, 
1941.00, 
1942.00, 
1943.00, 
1944.00, 
1945.00, 
1946.00, 
1947.00, 
1948.00, 
1949.00, 
1950.00, 
1951.00, 
1952.00, 
1953.00, 
1954.00, 
1955.00, 
1956.00, 
1957.00, 
1958.00, 
1959.00, 
1960.00, 
1961.00, 
1962.00, 
1963.00, 
1964.00, 
1965.00, 
1966.00, 
1967.00, 
1968.00, 
1969.00, 
1970.00, 
1971.00, 
1972.00, 
1973.00, 
1974.00, 
1975.00, 
1976.00, 
1977.00, 
1978.00, 
1979.00, 
1980.00, 
1981.00, 
1982.00, 
1983.00, 
1984.00, 
1985.00, 
1986.00, 
1987.00, 
1988.00, 
1989.00, 
1990.00, 
1991.00, 
1992.00, 
1993.00, 
1994.00, 
1995.00, 
1996.00, 
1997.00, 
1998.00, 
1999.00, 
2000.00, 
2001.00, 
2002.00, 
2003.00, 
2004.00, 
2005.00, 
2006.00, 
2007.00, 
2008.00, 
2009.00, 
2010.00, 
2011.00, 
2012.00, 
2013.00, 
2014.00, 
2015.00, 
2016.00, 
2017.00, 
2018.00, 
2019.00, 
2020.00, 
2021.00, 
2022.00, 
2023.00, 
2024.00, 
2025.00, 
2026.00, 
2027.00, 
2028.00, 
2029.00, 
2030.00, 
2031.00, 
2032.00, 
2033.00, 
2034.00, 
2035.00, 
2036.00, 
2037.00, 
2038.00, 
2039.00, 
2040.00, 
2041.00, 
2042.00, 
2043.00, 
2044.00, 
2045.00, 
2046.00, 
2047.00, 
2048.00, 
2049.00, 
2050.00, 
2051.00, 
2052.00, 
2053.00, 
2054.00, 
2055.00, 
2056.00, 
2057.00, 
2058.00, 
2059.00, 
2060.00, 
2061.00, 
2062.00, 
2063.00, 
2064.00, 
2065.00, 
2066.00, 
2067.00, 
2068.00, 
2069.00, 
2070.00, 
2071.00, 
2072.00, 
2073.00, 
2074.00, 
2075.00, 
2076.00, 
2077.00, 
2078.00, 
2079.00, 
2080.00, 
2081.00, 
2082.00, 
2083.00, 
2084.00, 
2085.00, 
2086.00, 
2087.00, 
2088.00, 
2089.00, 
2090.00, 
2091.00, 
2092.00, 
2093.00, 
2094.00, 
2095.00, 
2096.00, 
2097.00, 
2098.00, 
2099.00, 
2100.00, 
2101.00, 
2102.00, 
2103.00, 
2104.00, 
2105.00, 
2106.00, 
2107.00, 
2108.00, 
2109.00, 
2110.00, 
2111.00, 
2112.00, 
2113.00, 
2114.00, 
2115.00, 
2116.00, 
2117.00, 
2118.00, 
2119.00, 
2120.00, 
2121.00, 
2122.00, 
2123.00, 
2124.00, 
2125.00, 
2126.00, 
2127.00, 
2128.00, 
2129.00, 
2130.00, 
2131.00, 
2132.00, 
2133.00, 
2134.00, 
2135.00, 
2136.00, 
2137.00, 
2138.00, 
2139.00, 
2140.00, 
2141.00, 
2142.00, 
2143.00, 
2144.00, 
2145.00, 
2146.00, 
2147.00, 
2148.00, 
2149.00, 
2150.00, 
2151.00, 
2152.00, 
2153.00, 
2154.00, 
2155.00, 
2156.00, 
2157.00, 
2158.00, 
2159.00, 
2160.00, 
2161.00, 
2162.00, 
2163.00, 
2164.00, 
2165.00, 
2166.00, 
2167.00, 
2168.00, 
2169.00, 
2170.00, 
2171.00, 
2172.00, 
2173.00, 
2174.00, 
2175.00, 
2176.00, 
2177.00, 
2178.00, 
2179.00, 
2180.00, 
2181.00, 
2182.00, 
2183.00, 
2184.00, 
2185.00, 
2186.00, 
2187.00, 
2188.00, 
2189.00, 
2190.00, 
2191.00, 
2192.00, 
2193.00, 
2194.00, 
2195.00, 
2196.00, 
2197.00, 
2198.00, 
2199.00, 
2200.00, 
2201.00, 
2202.00, 
2203.00, 
2204.00, 
2205.00, 
2206.00, 
2207.00, 
2208.00, 
2209.00, 
2210.00, 
2211.00, 
2212.00, 
2213.00, 
2214.00, 
2215.00, 
2216.00, 
2217.00, 
2218.00, 
2219.00, 
2220.00, 
2221.00, 
2222.00, 
2223.00, 
2224.00, 
2225.00, 
2226.00, 
2227.00, 
2228.00, 
2229.00, 
2230.00, 
2231.00, 
2232.00, 
2233.00, 
2234.00, 
2235.00, 
2236.00, 
2237.00, 
2238.00, 
2239.00, 
2240.00, 
2241.00, 
2242.00, 
2243.00, 
2244.00, 
2245.00, 
2246.00, 
2247.00, 
2248.00, 
2249.00, 
2250.00, 
2251.00, 
2252.00, 
2253.00, 
2254.00, 
2255.00, 
2256.00, 
2257.00, 
2258.00, 
2259.00, 
2260.00, 
2261.00, 
2262.00, 
2263.00, 
2264.00, 
2265.00, 
2266.00, 
2267.00, 
2268.00, 
2269.00, 
2270.00, 
2271.00, 
2272.00, 
2273.00, 
2274.00, 
2275.00, 
2276.00, 
2277.00, 
2278.00, 
2279.00, 
2280.00, 
2281.00, 
2282.00, 
2283.00, 
2284.00, 
2285.00, 
2286.00, 
2287.00, 
2288.00, 
2289.00, 
2290.00, 
2291.00, 
2292.00, 
2293.00, 
2294.00, 
2295.00, 
2296.00, 
2297.00, 
2298.00, 
2299.00, 
2300.00, 
2301.00, 
2302.00, 
2303.00, 
2304.00, 
2305.00, 
2306.00, 
2307.00, 
2308.00, 
2309.00, 
2310.00, 
2311.00, 
2312.00, 
2313.00, 
2314.00, 
2315.00, 
2316.00, 
2317.00, 
2318.00, 
2319.00, 
2320.00, 
2321.00, 
2322.00, 
2323.00, 
2324.00, 
2325.00, 
2326.00, 
2327.00, 
2328.00, 
2329.00, 
2330.00, 
2331.00, 
2332.00, 
2333.00, 
2334.00, 
2335.00, 
2336.00, 
2337.00, 
2338.00, 
2339.00, 
2340.00, 
2341.00, 
2342.00, 
2343.00, 
2344.00, 
2345.00, 
2346.00, 
2347.00, 
2348.00, 
2349.00, 
2350.00, 
2351.00, 
2352.00, 
2353.00, 
2354.00, 
2355.00, 
2356.00, 
2357.00, 
2358.00, 
2359.00, 
2360.00, 
2361.00, 
2362.00, 
2363.00, 
2364.00, 
2365.00, 
2366.00, 
2367.00, 
2368.00, 
2369.00, 
2370.00, 
2371.00, 
2372.00, 
2373.00, 
2374.00, 
2375.00, 
2376.00, 
2377.00, 
2378.00, 
2379.00, 
2380.00, 
2381.00, 
2382.00, 
2383.00, 
2384.00, 
2385.00, 
2386.00, 
2387.00, 
2388.00, 
2389.00, 
2390.00, 
2391.00, 
2392.00, 
2393.00, 
2394.00, 
2395.00, 
2396.00, 
2397.00, 
2398.00, 
2399.00, 
2400.00, 
2401.00, 
2402.00, 
2403.00, 
2404.00, 
2405.00, 
2406.00, 
2407.00, 
2408.00, 
2409.00, 
2410.00, 
2411.00, 
2412.00, 
2413.00, 
2414.00, 
2415.00, 
2416.00, 
2417.00, 
2418.00, 
2419.00, 
2420.00, 
2421.00, 
2422.00, 
2423.00, 
2424.00, 
2425.00, 
2426.00, 
2427.00, 
2428.00, 
2429.00, 
2430.00, 
2431.00, 
2432.00, 
2433.00, 
2434.00, 
2435.00, 
2436.00, 
2437.00, 
2438.00, 
2439.00, 
2440.00, 
2441.00, 
2442.00, 
2443.00, 
2444.00, 
2445.00, 
2446.00, 
2447.00, 
2448.00, 
2449.00, 
2450.00, 
2451.00, 
2452.00, 
2453.00, 
2454.00, 
2455.00, 
2456.00, 
2457.00, 
2458.00, 
2459.00, 
2460.00, 
2461.00, 
2462.00, 
2463.00, 
2464.00, 
2465.00, 
2466.00, 
2467.00, 
2468.00, 
2469.00, 
2470.00, 
2471.00, 
2472.00, 
2473.00, 
2474.00, 
2475.00, 
2476.00, 
2477.00, 
2478.00, 
2479.00, 
2480.00, 
2481.00, 
2482.00, 
2483.00, 
2484.00, 
2485.00, 
2486.00, 
2487.00, 
2488.00, 
2489.00, 
2490.00, 
2491.00, 
2492.00, 
2493.00, 
2494.00, 
2495.00, 
2496.00, 
2497.00, 
2498.00, 
2499.00, 
2500.00, 
2501.00, 
2502.00, 
2503.00, 
2504.00, 
2505.00, 
2506.00, 
2507.00, 
2508.00, 
2509.00, 
2510.00, 
2511.00, 
2512.00, 
2513.00, 
2514.00, 
2515.00, 
2516.00, 
2517.00, 
2518.00, 
2519.00, 
2520.00, 
2521.00, 
2522.00, 
2523.00, 
2524.00, 
2525.00, 
2526.00, 
2527.00, 
2528.00, 
2529.00, 
2530.00, 
2531.00, 
2532.00, 
2533.00, 
2534.00, 
2535.00, 
2536.00, 
2537.00, 
2538.00, 
2539.00, 
2540.00, 
2541.00, 
2542.00, 
2543.00, 
2544.00, 
2545.00, 
2546.00, 
2547.00, 
2548.00, 
2549.00, 
2550.00, 
2551.00, 
2552.00, 
2553.00, 
2554.00, 
2555.00, 
2556.00, 
2557.00, 
2558.00, 
2559.00, 
2560.00, 
2561.00, 
2562.00, 
2563.00, 
2564.00, 
2565.00, 
2566.00, 
2567.00, 
2568.00, 
2569.00, 
2570.00, 
2571.00, 
2572.00, 
2573.00, 
2574.00, 
2575.00, 
2576.00, 
2577.00, 
2578.00, 
2579.00, 
2580.00, 
2581.00, 
2582.00, 
2583.00, 
2584.00, 
2585.00, 
2586.00, 
2587.00, 
2588.00, 
2589.00, 
2590.00, 
2591.00, 
2592.00, 
2593.00, 
2594.00, 
2595.00, 
2596.00, 
2597.00, 
2598.00, 
2599.00, 
2600.00, 
