"2cP5 - RawData"
"Wavelength nm.","T%"
200.00,0.000
201.00,0.000
202.00,-0.003
203.00,0.003
204.00,-0.000
205.00,0.001
206.00,0.000
207.00,-0.001
208.00,0.004
209.00,-0.000
210.00,-0.000
211.00,0.002
212.00,-0.001
213.00,0.003
214.00,0.003
215.00,0.003
216.00,0.001
217.00,0.003
218.00,0.002
219.00,0.000
220.00,0.003
221.00,0.004
222.00,0.001
223.00,0.000
224.00,0.001
225.00,-0.000
226.00,-0.000
227.00,0.001
228.00,0.002
229.00,0.000
230.00,0.002
231.00,-0.001
232.00,-0.001
233.00,0.001
234.00,0.002
235.00,0.001
236.00,-0.001
237.00,0.001
238.00,-0.000
239.00,-0.000
240.00,-0.001
241.00,0.001
242.00,0.001
243.00,-0.001
244.00,0.000
245.00,0.001
246.00,0.001
247.00,0.002
248.00,0.001
249.00,0.002
250.00,0.000
251.00,0.000
252.00,0.000
253.00,-0.001
254.00,0.000
255.00,0.000
256.00,-0.001
257.00,-0.002
258.00,0.001
259.00,-0.001
260.00,-0.001
261.00,0.001
262.00,0.001
263.00,0.002
264.00,-0.001
265.00,-0.000
266.00,-0.000
267.00,0.003
268.00,0.000
269.00,-0.000
270.00,0.001
271.00,-0.001
272.00,-0.001
273.00,-0.000
274.00,-0.001
275.00,-0.001
276.00,0.001
277.00,0.001
278.00,-0.001
279.00,0.001
280.00,-0.000
281.00,-0.000
282.00,-0.001
283.00,-0.001
284.00,0.000
285.00,-0.002
286.00,0.000
287.00,-0.000
288.00,-0.000
289.00,0.000
290.00,0.000
291.00,-0.001
292.00,0.001
293.00,0.000
294.00,0.001
295.00,0.000
296.00,0.001
297.00,-0.000
298.00,0.001
299.00,0.002
300.00,0.002
301.00,0.003
302.00,0.003
303.00,0.005
304.00,0.008
305.00,0.013
306.00,0.021
307.00,0.032
308.00,0.052
309.00,0.080
310.00,0.111
311.00,0.152
312.00,0.206
313.00,0.275
314.00,0.368
315.00,0.485
316.00,0.617
317.00,0.776
318.00,0.952
319.00,1.175
320.00,1.423
321.00,1.686
322.00,2.006
323.00,2.381
324.00,2.764
325.00,3.159
326.00,3.548
327.00,4.006
328.00,4.466
329.00,4.937
330.00,5.439
331.00,5.926
332.00,6.455
333.00,6.984
334.00,7.490
335.00,8.037
336.00,8.534
337.00,9.072
338.00,9.588
339.00,10.050
340.00,10.532
341.00,11.010
342.00,11.480
343.00,11.870
344.00,12.279
345.00,12.669
346.00,13.049
347.00,13.399
348.00,13.698
349.00,13.992
350.00,14.301
351.00,14.521
352.00,14.812
353.00,15.050
354.00,15.220
355.00,15.447
356.00,15.643
357.00,15.798
358.00,15.987
359.00,16.155
360.00,16.286
361.00,16.392
362.00,16.516
363.00,16.623
364.00,16.691
365.00,16.757
366.00,16.809
367.00,16.872
368.00,16.920
369.00,16.939
370.00,16.961
371.00,16.964
372.00,16.931
373.00,16.933
374.00,16.963
375.00,16.925
376.00,16.859
377.00,16.849
378.00,16.789
379.00,16.703
380.00,16.691
381.00,16.677
382.00,16.673
383.00,16.657
384.00,16.644
385.00,16.675
386.00,16.690
387.00,16.679
388.00,16.690
389.00,16.673
390.00,16.727
391.00,16.738
392.00,16.758
393.00,16.745
394.00,16.724
395.00,16.732
396.00,16.704
397.00,16.700
398.00,16.747
399.00,16.723
400.00,16.709
401.00,16.711
402.00,16.693
403.00,16.675
404.00,16.684
405.00,16.678
406.00,16.682
407.00,16.653
408.00,16.651
409.00,16.629
410.00,16.618
411.00,16.557
412.00,16.529
413.00,16.554
414.00,16.543
415.00,16.560
416.00,16.595
417.00,16.591
418.00,16.629
419.00,16.675
420.00,16.696
421.00,16.752
422.00,16.772
423.00,16.795
424.00,16.841
425.00,16.864
426.00,16.914
427.00,16.967
428.00,16.984
429.00,17.018
430.00,17.083
431.00,17.120
432.00,17.158
433.00,17.184
434.00,17.297
435.00,17.348
436.00,17.421
437.00,17.481
438.00,17.576
439.00,17.625
440.00,17.690
441.00,17.755
442.00,17.835
443.00,17.957
444.00,18.045
445.00,18.104
446.00,18.219
447.00,18.276
448.00,18.372
449.00,18.506
450.00,18.611
451.00,18.704
452.00,18.797
453.00,18.907
454.00,19.019
455.00,19.107
456.00,19.240
457.00,19.382
458.00,19.478
459.00,19.587
460.00,19.733
461.00,19.838
462.00,19.979
463.00,20.144
464.00,20.267
465.00,20.363
466.00,20.508
467.00,20.631
468.00,20.759
469.00,20.895
470.00,21.001
471.00,21.109
472.00,21.229
473.00,21.327
474.00,21.445
475.00,21.573
476.00,21.682
477.00,21.804
478.00,21.951
479.00,22.129
480.00,22.282
481.00,22.425
482.00,22.588
483.00,22.733
484.00,22.878
485.00,23.056
486.00,23.209
487.00,23.338
488.00,23.512
489.00,23.657
490.00,23.837
491.00,23.952
492.00,24.123
493.00,24.301
494.00,24.461
495.00,24.506
496.00,24.645
497.00,24.769
498.00,24.911
499.00,25.083
500.00,25.240
501.00,25.319
502.00,25.486
503.00,25.601
504.00,25.672
505.00,25.918
506.00,26.027
507.00,26.125
508.00,26.259
509.00,26.417
510.00,26.566
511.00,26.687
512.00,26.828
513.00,26.971
514.00,27.147
515.00,27.237
516.00,27.368
517.00,27.480
518.00,27.601
519.00,27.716
520.00,27.797
521.00,27.907
522.00,28.010
523.00,28.076
524.00,28.168
525.00,28.301
526.00,28.418
527.00,28.501
528.00,28.586
529.00,28.747
530.00,28.894
531.00,29.012
532.00,29.093
533.00,29.205
534.00,29.314
535.00,29.383
536.00,29.491
537.00,29.577
538.00,29.678
539.00,29.696
540.00,29.804
541.00,29.867
542.00,29.923
543.00,30.039
544.00,30.124
545.00,30.169
546.00,30.234
547.00,30.314
548.00,30.417
549.00,30.510
550.00,30.582
551.00,30.671
552.00,30.774
553.00,30.842
554.00,30.957
555.00,30.946
556.00,31.054
557.00,31.122
558.00,31.175
559.00,31.277
560.00,31.320
561.00,31.422
562.00,31.427
563.00,31.481
564.00,31.551
565.00,31.588
566.00,31.602
567.00,31.698
568.00,31.724
569.00,31.775
570.00,31.812
571.00,31.881
572.00,31.937
573.00,31.918
574.00,32.009
575.00,32.033
576.00,32.038
577.00,32.130
578.00,32.143
579.00,32.235
580.00,32.344
581.00,32.438
582.00,32.503
583.00,32.531
584.00,32.647
585.00,32.656
586.00,32.767
587.00,32.877
588.00,32.871
589.00,32.861
590.00,32.908
591.00,32.999
592.00,32.951
593.00,33.010
594.00,33.084
595.00,33.195
596.00,33.257
597.00,33.382
598.00,33.382
599.00,33.443
600.00,33.509
601.00,33.518
602.00,33.567
603.00,33.611
604.00,33.622
605.00,33.685
606.00,33.745
607.00,33.781
608.00,33.918
609.00,33.926
610.00,33.883
611.00,34.021
612.00,33.983
613.00,34.002
614.00,34.142
615.00,34.234
616.00,34.362
617.00,34.361
618.00,34.472
619.00,34.546
620.00,34.532
621.00,34.631
622.00,34.652
623.00,34.784
624.00,34.851
625.00,34.886
626.00,34.943
627.00,35.051
628.00,35.136
629.00,35.109
630.00,35.239
631.00,35.276
632.00,35.361
633.00,35.437
634.00,35.467
635.00,35.639
636.00,35.791
637.00,35.854
638.00,35.906
639.00,35.962
640.00,36.046
641.00,36.109
642.00,36.255
643.00,36.316
644.00,36.389
645.00,36.517
646.00,36.661
647.00,36.691
648.00,36.852
649.00,36.933
650.00,36.870
651.00,37.062
652.00,37.131
653.00,37.280
654.00,37.409
655.00,37.502
656.00,37.721
657.00,37.750
658.00,37.901
659.00,38.044
660.00,38.066
661.00,38.012
662.00,38.235
663.00,38.352
664.00,38.527
665.00,38.662
666.00,38.769
667.00,38.905
668.00,38.986
669.00,39.180
670.00,39.250
671.00,39.243
672.00,39.390
673.00,39.497
674.00,39.678
675.00,39.760
676.00,39.891
677.00,40.064
678.00,39.994
679.00,40.207
680.00,40.324
681.00,40.502
682.00,40.599
683.00,40.740
684.00,40.962
685.00,40.937
686.00,40.897
687.00,41.138
688.00,41.287
689.00,41.300
690.00,41.562
691.00,41.737
692.00,41.614
693.00,41.752
694.00,41.887
695.00,42.089
696.00,42.160
697.00,42.342
698.00,42.403
699.00,42.544
700.00,42.656
701.00,42.765
702.00,42.909
703.00,43.092
704.00,43.188
705.00,43.189
706.00,43.290
707.00,43.459
708.00,43.430
709.00,43.683
710.00,44.028
711.00,43.794
712.00,43.837
713.00,44.105
714.00,44.165
715.00,44.176
716.00,44.261
717.00,44.425
718.00,44.497
719.00,44.583
720.00,44.734
721.00,48.941
722.00,48.961
723.00,49.068
724.00,49.047
725.00,49.180
726.00,49.176
727.00,49.322
728.00,49.359
729.00,49.391
730.00,49.494
731.00,49.502
732.00,49.602
733.00,49.622
734.00,49.710
735.00,49.771
736.00,49.777
737.00,49.882
738.00,49.943
739.00,49.972
740.00,50.069
741.00,50.112
742.00,50.140
743.00,50.172
744.00,50.183
745.00,50.298
746.00,50.347
747.00,50.309
748.00,50.327
749.00,50.370
750.00,50.351
751.00,50.410
752.00,50.483
753.00,50.547
754.00,50.526
755.00,50.568
756.00,50.598
757.00,50.633
758.00,50.652
759.00,50.648
760.00,50.709
761.00,50.731
762.00,50.803
763.00,50.926
764.00,50.808
765.00,50.863
766.00,50.864
767.00,50.937
768.00,50.982
769.00,51.046
770.00,51.157
771.00,51.061
772.00,51.198
773.00,51.131
774.00,51.194
775.00,51.165
776.00,51.162
777.00,51.226
778.00,51.275
779.00,51.350
780.00,51.245
781.00,51.280
782.00,51.286
783.00,51.319
784.00,51.407
785.00,51.322
786.00,51.363
787.00,51.349
788.00,51.365
789.00,51.402
790.00,51.372
791.00,51.439
792.00,51.457
793.00,51.334
794.00,51.410
795.00,51.442
796.00,51.458
797.00,51.408
798.00,51.470
799.00,51.449
800.00,51.406
801.00,51.411
802.00,51.432
803.00,51.408
804.00,51.352
805.00,51.399
806.00,51.392
807.00,51.371
808.00,51.405
809.00,51.394
810.00,51.381
811.00,51.338
812.00,51.445
813.00,51.347
814.00,51.415
815.00,51.369
816.00,51.342
817.00,51.271
818.00,51.263
819.00,51.364
820.00,51.299
821.00,51.380
822.00,51.225
823.00,51.321
824.00,51.365
825.00,51.349
826.00,51.302
827.00,51.406
828.00,51.314
829.00,51.303
830.00,51.336
831.00,53.508
832.00,53.452
833.00,53.408
834.00,53.454
835.00,53.403
836.00,53.400
837.00,53.390
838.00,53.373
839.00,53.382
840.00,53.326
841.00,53.343
842.00,53.366
843.00,53.333
844.00,53.288
845.00,53.291
846.00,53.309
847.00,53.285
848.00,53.260
849.00,53.191
850.00,53.201
851.00,53.129
852.00,53.170
853.00,53.112
854.00,53.121
855.00,53.036
856.00,53.082
857.00,53.050
858.00,52.936
859.00,53.011
860.00,52.973
861.00,52.977
862.00,52.915
863.00,52.942
864.00,52.933
865.00,52.963
866.00,52.928
867.00,52.912
868.00,52.913
869.00,52.908
870.00,52.922
871.00,52.907
872.00,52.877
873.00,52.869
874.00,52.857
875.00,52.844
876.00,52.852
877.00,52.874
878.00,52.890
879.00,52.846
880.00,52.861
881.00,52.798
882.00,52.848
883.00,52.787
884.00,52.760
885.00,52.719
886.00,52.727
887.00,52.719
888.00,52.671
889.00,52.681
890.00,52.682
891.00,52.640
892.00,52.625
893.00,52.586
894.00,52.619
895.00,52.580
896.00,52.568
897.00,52.557
898.00,52.527
899.00,52.525
900.00,52.518
901.00,52.477
902.00,52.492
903.00,52.523
904.00,52.533
905.00,52.446
906.00,52.450
907.00,52.428
908.00,52.378
909.00,52.381
910.00,52.336
911.00,52.366
912.00,52.336
913.00,52.325
914.00,52.305
915.00,52.266
916.00,52.257
917.00,52.227
918.00,52.235
919.00,52.193
920.00,52.174
921.00,52.175
922.00,52.142
923.00,52.107
924.00,52.104
925.00,52.093
926.00,52.070
927.00,52.082
928.00,52.041
929.00,52.057
930.00,52.005
931.00,52.012
932.00,51.958
933.00,51.970
934.00,51.940
935.00,51.918
936.00,51.890
937.00,51.864
938.00,51.871
939.00,51.860
940.00,51.864
941.00,51.822
942.00,51.827
943.00,51.793
944.00,51.738
945.00,51.782
946.00,51.796
947.00,51.805
948.00,51.715
949.00,51.699
950.00,51.674
951.00,51.641
952.00,51.629
953.00,51.587
954.00,51.579
955.00,51.540
956.00,51.525
957.00,51.500
958.00,51.496
959.00,51.424
960.00,51.435
961.00,51.427
962.00,51.440
963.00,51.393
964.00,51.388
965.00,51.383
966.00,51.361
967.00,51.364
968.00,51.327
969.00,51.361
970.00,51.340
971.00,51.338
972.00,51.319
973.00,51.349
974.00,51.381
975.00,51.334
976.00,51.360
977.00,51.340
978.00,51.376
979.00,51.323
980.00,51.351
981.00,51.345
982.00,51.331
983.00,51.345
984.00,51.333
985.00,51.352
986.00,51.297
987.00,51.318
988.00,51.295
989.00,51.271
990.00,51.270
991.00,51.262
992.00,51.276
993.00,51.231
994.00,51.236
995.00,51.218
996.00,51.209
997.00,51.193
998.00,51.168
999.00,51.186
1000.00,51.142
1001.00,51.124
1002.00,51.142
1003.00,51.132
1004.00,51.083
1005.00,51.075
1006.00,51.168
1007.00,51.070
1008.00,51.050
1009.00,51.038
1010.00,51.039
1011.00,51.032
1012.00,50.997
1013.00,51.019
1014.00,50.979
1015.00,50.982
1016.00,50.948
1017.00,50.944
1018.00,50.932
1019.00,50.902
1020.00,50.891
1021.00,50.876
1022.00,50.889
1023.00,50.816
1024.00,50.826
1025.00,50.806
1026.00,50.797
1027.00,50.775
1028.00,50.775
1029.00,50.775
1030.00,50.745
1031.00,50.738
1032.00,50.700
1033.00,50.697
1034.00,50.658
1035.00,50.630
1036.00,50.618
1037.00,50.590
1038.00,50.577
1039.00,50.540
1040.00,50.546
1041.00,50.512
1042.00,50.500
1043.00,50.489
1044.00,50.527
1045.00,50.504
1046.00,50.482
1047.00,50.482
1048.00,50.513
1049.00,50.509
1050.00,50.510
1051.00,50.550
1052.00,50.541
1053.00,50.542
1054.00,50.562
1055.00,50.585
1056.00,50.585
1057.00,50.583
1058.00,50.572
1059.00,50.576
1060.00,50.579
1061.00,50.560
1062.00,50.540
1063.00,50.537
1064.00,50.523
1065.00,50.536
1066.00,50.557
1067.00,50.551
1068.00,50.535
1069.00,50.494
1070.00,50.489
1071.00,50.476
1072.00,50.494
1073.00,50.463
1074.00,50.461
1075.00,50.450
1076.00,50.444
1077.00,50.428
1078.00,50.402
1079.00,50.404
1080.00,50.399
1081.00,50.370
1082.00,50.385
1083.00,50.370
1084.00,50.367
1085.00,50.365
1086.00,50.344
1087.00,50.350
1088.00,50.334
1089.00,50.327
1090.00,50.324
1091.00,50.318
1092.00,50.302
1093.00,50.286
1094.00,50.276
1095.00,50.271
1096.00,50.243
1097.00,50.227
1098.00,50.221
1099.00,50.234
1100.00,50.213
1101.00,50.200
1102.00,50.198
1103.00,50.201
1104.00,50.200
1105.00,50.175
1106.00,50.166
1107.00,50.156
1108.00,50.141
1109.00,50.133
1110.00,50.125
1111.00,50.122
1112.00,50.113
1113.00,50.099
1114.00,50.096
1115.00,50.100
1116.00,50.086
1117.00,50.066
1118.00,50.059
1119.00,50.053
1120.00,50.054
1121.00,50.033
1122.00,50.022
1123.00,50.014
1124.00,50.018
1125.00,50.000
1126.00,49.991
1127.00,50.024
1128.00,50.015
1129.00,49.978
1130.00,49.957
1131.00,49.968
1132.00,49.964
1133.00,49.956
1134.00,49.953
1135.00,49.937
1136.00,49.929
1137.00,49.928
1138.00,49.931
1139.00,49.940
1140.00,49.941
1141.00,49.942
1142.00,49.915
1143.00,49.930
1144.00,49.894
1145.00,49.903
1146.00,49.894
1147.00,49.896
1148.00,49.886
1149.00,49.893
1150.00,49.890
1151.00,49.888
1152.00,49.856
1153.00,49.861
1154.00,49.841
1155.00,49.842
1156.00,49.836
1157.00,49.853
1158.00,49.844
1159.00,49.848
1160.00,49.843
1161.00,49.857
1162.00,49.846
1163.00,49.828
1164.00,49.837
1165.00,49.828
1166.00,49.810
1167.00,49.822
1168.00,49.830
1169.00,49.813
1170.00,49.818
1171.00,49.805
1172.00,49.822
1173.00,49.815
1174.00,49.805
1175.00,49.811
1176.00,49.813
1177.00,49.797
1178.00,49.800
1179.00,49.805
1180.00,49.789
1181.00,49.812
1182.00,49.797
1183.00,49.785
1184.00,49.777
1185.00,49.782
1186.00,49.770
1187.00,49.774
1188.00,49.781
1189.00,49.781
1190.00,49.753
1191.00,49.752
1192.00,49.774
1193.00,49.754
1194.00,49.760
1195.00,49.745
1196.00,49.756
1197.00,49.757
1198.00,49.750
1199.00,49.748
1200.00,49.758
1201.00,49.768
1202.00,49.752
1203.00,49.755
1204.00,49.743
1205.00,49.752
1206.00,49.742
1207.00,49.731
1208.00,49.714
1209.00,49.710
1210.00,49.712
1211.00,49.724
1212.00,49.742
1213.00,49.704
1214.00,49.750
1215.00,49.723
1216.00,49.723
1217.00,49.733
1218.00,49.719
1219.00,49.741
1220.00,49.725
1221.00,49.739
1222.00,49.725
1223.00,49.737
1224.00,49.740
1225.00,49.738
1226.00,49.737
1227.00,49.727
1228.00,49.741
1229.00,49.725
1230.00,49.765
1231.00,49.759
1232.00,49.763
1233.00,49.766
1234.00,49.771
1235.00,49.765
1236.00,49.777
1237.00,49.764
1238.00,49.768
1239.00,49.779
1240.00,49.748
1241.00,49.759
1242.00,49.768
1243.00,49.769
1244.00,49.764
1245.00,49.780
1246.00,49.797
1247.00,49.794
1248.00,49.798
1249.00,49.826
1250.00,49.823
1251.00,49.778
1252.00,49.803
1253.00,49.794
1254.00,49.803
1255.00,49.793
1256.00,49.774
1257.00,49.770
1258.00,49.823
1259.00,49.809
1260.00,49.824
1261.00,49.826
1262.00,49.805
1263.00,49.815
1264.00,49.831
1265.00,49.823
1266.00,49.826
1267.00,49.830
1268.00,49.833
1269.00,49.841
1270.00,49.853
1271.00,49.853
1272.00,49.869
1273.00,49.876
1274.00,49.878
1275.00,49.883
1276.00,49.870
1277.00,49.876
1278.00,49.886
1279.00,49.877
1280.00,49.876
1281.00,49.888
1282.00,49.896
1283.00,49.891
1284.00,49.901
1285.00,49.886
1286.00,49.908
1287.00,49.891
1288.00,49.893
1289.00,49.895
1290.00,49.931
1291.00,49.926
1292.00,49.920
1293.00,49.915
1294.00,49.940
1295.00,49.935
1296.00,49.929
1297.00,49.958
1298.00,49.960
1299.00,49.948
1300.00,49.961
1301.00,49.957
1302.00,49.973
1303.00,49.989
1304.00,49.984
1305.00,50.001
1306.00,49.992
1307.00,50.015
1308.00,50.006
1309.00,50.003
1310.00,50.008
1311.00,49.993
1312.00,49.998
1313.00,50.013
1314.00,50.025
1315.00,50.028
1316.00,50.035
1317.00,50.049
1318.00,50.033
1319.00,50.042
1320.00,50.059
1321.00,50.232
1322.00,50.242
1323.00,50.210
1324.00,50.198
1325.00,50.185
1326.00,50.212
1327.00,50.205
1328.00,50.187
1329.00,50.188
1330.00,50.210
1331.00,50.204
1332.00,50.211
1333.00,50.184
1334.00,50.238
1335.00,50.240
1336.00,50.243
1337.00,50.299
1338.00,50.358
1339.00,50.398
1340.00,50.455
1341.00,50.511
1342.00,50.565
1343.00,50.646
1344.00,50.682
1345.00,50.737
1346.00,50.795
1347.00,50.799
1348.00,50.814
1349.00,50.851
1350.00,50.864
1351.00,50.885
1352.00,50.881
1353.00,50.872
1354.00,50.902
1355.00,50.843
1356.00,50.903
1357.00,50.906
1358.00,50.891
1359.00,50.919
1360.00,50.940
1361.00,50.871
1362.00,50.914
1363.00,50.911
1364.00,50.895
1365.00,50.903
1366.00,50.939
1367.00,50.908
1368.00,50.885
1369.00,50.877
1370.00,50.909
1371.00,50.855
1372.00,50.877
1373.00,50.886
1374.00,50.878
1375.00,50.877
1376.00,50.916
1377.00,50.768
1378.00,50.895
1379.00,50.933
1380.00,50.911
1381.00,50.942
1382.00,50.889
1383.00,50.884
1384.00,50.841
1385.00,50.812
1386.00,50.914
1387.00,50.867
1388.00,50.843
1389.00,50.842
1390.00,50.924
1391.00,50.854
1392.00,50.873
1393.00,50.897
1394.00,50.876
1395.00,50.905
1396.00,50.853
1397.00,50.862
1398.00,50.884
1399.00,50.884
1400.00,50.895
1401.00,50.878
1402.00,50.914
1403.00,50.917
1404.00,50.888
1405.00,50.899
1406.00,50.918
1407.00,50.931
1408.00,50.917
1409.00,50.968
1410.00,50.970
1411.00,50.932
1412.00,50.990
1413.00,50.944
1414.00,50.951
1415.00,50.980
1416.00,50.995
1417.00,51.023
1418.00,50.999
1419.00,50.997
1420.00,51.032
1421.00,51.059
1422.00,51.038
1423.00,51.064
1424.00,51.054
1425.00,51.080
1426.00,51.086
1427.00,51.094
1428.00,51.105
1429.00,51.107
1430.00,51.125
1431.00,51.164
1432.00,51.175
1433.00,51.178
1434.00,51.186
1435.00,51.230
1436.00,51.236
1437.00,51.226
1438.00,51.239
1439.00,51.273
1440.00,51.280
1441.00,51.271
1442.00,51.298
1443.00,51.325
1444.00,51.351
1445.00,51.319
1446.00,51.330
1447.00,51.385
1448.00,51.414
1449.00,51.416
1450.00,51.412
1451.00,51.439
1452.00,51.437
1453.00,51.465
1454.00,51.478
1455.00,51.492
1456.00,51.512
1457.00,51.507
1458.00,51.549
1459.00,51.559
1460.00,51.568
1461.00,51.578
1462.00,51.611
1463.00,51.604
1464.00,51.616
1465.00,51.629
1466.00,51.626
1467.00,51.658
1468.00,51.699
1469.00,51.673
1470.00,51.695
1471.00,51.707
1472.00,51.721
1473.00,51.749
1474.00,51.751
1475.00,51.784
1476.00,51.780
1477.00,51.774
1478.00,51.806
1479.00,51.808
1480.00,51.810
1481.00,51.824
1482.00,51.848
1483.00,51.855
1484.00,51.868
1485.00,51.873
1486.00,51.888
1487.00,51.911
1488.00,51.905
1489.00,51.923
1490.00,51.920
1491.00,51.945
1492.00,51.964
1493.00,51.942
1494.00,51.980
1495.00,51.975
1496.00,51.963
1497.00,51.971
1498.00,51.976
1499.00,51.999
1500.00,52.018
1501.00, 
1502.00, 
1503.00, 
1504.00, 
1505.00, 
1506.00, 
1507.00, 
1508.00, 
1509.00, 
1510.00, 
1511.00, 
1512.00, 
1513.00, 
1514.00, 
1515.00, 
1516.00, 
1517.00, 
1518.00, 
1519.00, 
1520.00, 
1521.00, 
1522.00, 
1523.00, 
1524.00, 
1525.00, 
1526.00, 
1527.00, 
1528.00, 
1529.00, 
1530.00, 
1531.00, 
1532.00, 
1533.00, 
1534.00, 
1535.00, 
1536.00, 
1537.00, 
1538.00, 
1539.00, 
1540.00, 
1541.00, 
1542.00, 
1543.00, 
1544.00, 
1545.00, 
1546.00, 
1547.00, 
1548.00, 
1549.00, 
1550.00, 
1551.00, 
1552.00, 
1553.00, 
1554.00, 
1555.00, 
1556.00, 
1557.00, 
1558.00, 
1559.00, 
1560.00, 
1561.00, 
1562.00, 
1563.00, 
1564.00, 
1565.00, 
1566.00, 
1567.00, 
1568.00, 
1569.00, 
1570.00, 
1571.00, 
1572.00, 
1573.00, 
1574.00, 
1575.00, 
1576.00, 
1577.00, 
1578.00, 
1579.00, 
1580.00, 
1581.00, 
1582.00, 
1583.00, 
1584.00, 
1585.00, 
1586.00, 
1587.00, 
1588.00, 
1589.00, 
1590.00, 
1591.00, 
1592.00, 
1593.00, 
1594.00, 
1595.00, 
1596.00, 
1597.00, 
1598.00, 
1599.00, 
1600.00, 
1601.00, 
1602.00, 
1603.00, 
1604.00, 
1605.00, 
1606.00, 
1607.00, 
1608.00, 
1609.00, 
1610.00, 
1611.00, 
1612.00, 
1613.00, 
1614.00, 
1615.00, 
1616.00, 
1617.00, 
1618.00, 
1619.00, 
1620.00, 
1621.00, 
1622.00, 
1623.00, 
1624.00, 
1625.00, 
1626.00, 
1627.00, 
1628.00, 
1629.00, 
1630.00, 
1631.00, 
1632.00, 
1633.00, 
1634.00, 
1635.00, 
1636.00, 
1637.00, 
1638.00, 
1639.00, 
1640.00, 
1641.00, 
1642.00, 
1643.00, 
1644.00, 
1645.00, 
1646.00, 
1647.00, 
1648.00, 
1649.00, 
1650.00, 
1651.00, 
1652.00, 
1653.00, 
1654.00, 
1655.00, 
1656.00, 
1657.00, 
1658.00, 
1659.00, 
1660.00, 
1661.00, 
1662.00, 
1663.00, 
1664.00, 
1665.00, 
1666.00, 
1667.00, 
1668.00, 
1669.00, 
1670.00, 
1671.00, 
1672.00, 
1673.00, 
1674.00, 
1675.00, 
1676.00, 
1677.00, 
1678.00, 
1679.00, 
1680.00, 
1681.00, 
1682.00, 
1683.00, 
1684.00, 
1685.00, 
1686.00, 
1687.00, 
1688.00, 
1689.00, 
1690.00, 
1691.00, 
1692.00, 
1693.00, 
1694.00, 
1695.00, 
1696.00, 
1697.00, 
1698.00, 
1699.00, 
1700.00, 
1701.00, 
1702.00, 
1703.00, 
1704.00, 
1705.00, 
1706.00, 
1707.00, 
1708.00, 
1709.00, 
1710.00, 
1711.00, 
1712.00, 
1713.00, 
1714.00, 
1715.00, 
1716.00, 
1717.00, 
1718.00, 
1719.00, 
1720.00, 
1721.00, 
1722.00, 
1723.00, 
1724.00, 
1725.00, 
1726.00, 
1727.00, 
1728.00, 
1729.00, 
1730.00, 
1731.00, 
1732.00, 
1733.00, 
1734.00, 
1735.00, 
1736.00, 
1737.00, 
1738.00, 
1739.00, 
1740.00, 
1741.00, 
1742.00, 
1743.00, 
1744.00, 
1745.00, 
1746.00, 
1747.00, 
1748.00, 
1749.00, 
1750.00, 
1751.00, 
1752.00, 
1753.00, 
1754.00, 
1755.00, 
1756.00, 
1757.00, 
1758.00, 
1759.00, 
1760.00, 
1761.00, 
1762.00, 
1763.00, 
1764.00, 
1765.00, 
1766.00, 
1767.00, 
1768.00, 
1769.00, 
1770.00, 
1771.00, 
1772.00, 
1773.00, 
1774.00, 
1775.00, 
1776.00, 
1777.00, 
1778.00, 
1779.00, 
1780.00, 
1781.00, 
1782.00, 
1783.00, 
1784.00, 
1785.00, 
1786.00, 
1787.00, 
1788.00, 
1789.00, 
1790.00, 
1791.00, 
1792.00, 
1793.00, 
1794.00, 
1795.00, 
1796.00, 
1797.00, 
1798.00, 
1799.00, 
1800.00, 
1801.00, 
1802.00, 
1803.00, 
1804.00, 
1805.00, 
1806.00, 
1807.00, 
1808.00, 
1809.00, 
1810.00, 
1811.00, 
1812.00, 
1813.00, 
1814.00, 
1815.00, 
1816.00, 
1817.00, 
1818.00, 
1819.00, 
1820.00, 
1821.00, 
1822.00, 
1823.00, 
1824.00, 
1825.00, 
1826.00, 
1827.00, 
1828.00, 
1829.00, 
1830.00, 
1831.00, 
1832.00, 
1833.00, 
1834.00, 
1835.00, 
1836.00, 
1837.00, 
1838.00, 
1839.00, 
1840.00, 
1841.00, 
1842.00, 
1843.00, 
1844.00, 
1845.00, 
1846.00, 
1847.00, 
1848.00, 
1849.00, 
1850.00, 
1851.00, 
1852.00, 
1853.00, 
1854.00, 
1855.00, 
1856.00, 
1857.00, 
1858.00, 
1859.00, 
1860.00, 
1861.00, 
1862.00, 
1863.00, 
1864.00, 
1865.00, 
1866.00, 
1867.00, 
1868.00, 
1869.00, 
1870.00, 
1871.00, 
1872.00, 
1873.00, 
1874.00, 
1875.00, 
1876.00, 
1877.00, 
1878.00, 
1879.00, 
1880.00, 
1881.00, 
1882.00, 
1883.00, 
1884.00, 
1885.00, 
1886.00, 
1887.00, 
1888.00, 
1889.00, 
1890.00, 
1891.00, 
1892.00, 
1893.00, 
1894.00, 
1895.00, 
1896.00, 
1897.00, 
1898.00, 
1899.00, 
1900.00, 
1901.00, 
1902.00, 
1903.00, 
1904.00, 
1905.00, 
1906.00, 
1907.00, 
1908.00, 
1909.00, 
1910.00, 
1911.00, 
1912.00, 
1913.00, 
1914.00, 
1915.00, 
1916.00, 
1917.00, 
1918.00, 
1919.00, 
1920.00, 
1921.00, 
1922.00, 
1923.00, 
1924.00, 
1925.00, 
1926.00, 
1927.00, 
1928.00, 
1929.00, 
1930.00, 
1931.00, 
1932.00, 
1933.00, 
1934.00, 
1935.00, 
1936.00, 
1937.00, 
1938.00, 
1939.00, 
1940.00, 
1941.00, 
1942.00, 
1943.00, 
1944.00, 
1945.00, 
1946.00, 
1947.00, 
1948.00, 
1949.00, 
1950.00, 
1951.00, 
1952.00, 
1953.00, 
1954.00, 
1955.00, 
1956.00, 
1957.00, 
1958.00, 
1959.00, 
1960.00, 
1961.00, 
1962.00, 
1963.00, 
1964.00, 
1965.00, 
1966.00, 
1967.00, 
1968.00, 
1969.00, 
1970.00, 
1971.00, 
1972.00, 
1973.00, 
1974.00, 
1975.00, 
1976.00, 
1977.00, 
1978.00, 
1979.00, 
1980.00, 
1981.00, 
1982.00, 
1983.00, 
1984.00, 
1985.00, 
1986.00, 
1987.00, 
1988.00, 
1989.00, 
1990.00, 
1991.00, 
1992.00, 
1993.00, 
1994.00, 
1995.00, 
1996.00, 
1997.00, 
1998.00, 
1999.00, 
2000.00, 
2001.00, 
2002.00, 
2003.00, 
2004.00, 
2005.00, 
2006.00, 
2007.00, 
2008.00, 
2009.00, 
2010.00, 
2011.00, 
2012.00, 
2013.00, 
2014.00, 
2015.00, 
2016.00, 
2017.00, 
2018.00, 
2019.00, 
2020.00, 
2021.00, 
2022.00, 
2023.00, 
2024.00, 
2025.00, 
2026.00, 
2027.00, 
2028.00, 
2029.00, 
2030.00, 
2031.00, 
2032.00, 
2033.00, 
2034.00, 
2035.00, 
2036.00, 
2037.00, 
2038.00, 
2039.00, 
2040.00, 
2041.00, 
2042.00, 
2043.00, 
2044.00, 
2045.00, 
2046.00, 
2047.00, 
2048.00, 
2049.00, 
2050.00, 
2051.00, 
2052.00, 
2053.00, 
2054.00, 
2055.00, 
2056.00, 
2057.00, 
2058.00, 
2059.00, 
2060.00, 
2061.00, 
2062.00, 
2063.00, 
2064.00, 
2065.00, 
2066.00, 
2067.00, 
2068.00, 
2069.00, 
2070.00, 
2071.00, 
2072.00, 
2073.00, 
2074.00, 
2075.00, 
2076.00, 
2077.00, 
2078.00, 
2079.00, 
2080.00, 
2081.00, 
2082.00, 
2083.00, 
2084.00, 
2085.00, 
2086.00, 
2087.00, 
2088.00, 
2089.00, 
2090.00, 
2091.00, 
2092.00, 
2093.00, 
2094.00, 
2095.00, 
2096.00, 
2097.00, 
2098.00, 
2099.00, 
2100.00, 
2101.00, 
2102.00, 
2103.00, 
2104.00, 
2105.00, 
2106.00, 
2107.00, 
2108.00, 
2109.00, 
2110.00, 
2111.00, 
2112.00, 
2113.00, 
2114.00, 
2115.00, 
2116.00, 
2117.00, 
2118.00, 
2119.00, 
2120.00, 
2121.00, 
2122.00, 
2123.00, 
2124.00, 
2125.00, 
2126.00, 
2127.00, 
2128.00, 
2129.00, 
2130.00, 
2131.00, 
2132.00, 
2133.00, 
2134.00, 
2135.00, 
2136.00, 
2137.00, 
2138.00, 
2139.00, 
2140.00, 
2141.00, 
2142.00, 
2143.00, 
2144.00, 
2145.00, 
2146.00, 
2147.00, 
2148.00, 
2149.00, 
2150.00, 
2151.00, 
2152.00, 
2153.00, 
2154.00, 
2155.00, 
2156.00, 
2157.00, 
2158.00, 
2159.00, 
2160.00, 
2161.00, 
2162.00, 
2163.00, 
2164.00, 
2165.00, 
2166.00, 
2167.00, 
2168.00, 
2169.00, 
2170.00, 
2171.00, 
2172.00, 
2173.00, 
2174.00, 
2175.00, 
2176.00, 
2177.00, 
2178.00, 
2179.00, 
2180.00, 
2181.00, 
2182.00, 
2183.00, 
2184.00, 
2185.00, 
2186.00, 
2187.00, 
2188.00, 
2189.00, 
2190.00, 
2191.00, 
2192.00, 
2193.00, 
2194.00, 
2195.00, 
2196.00, 
2197.00, 
2198.00, 
2199.00, 
2200.00, 
2201.00, 
2202.00, 
2203.00, 
2204.00, 
2205.00, 
2206.00, 
2207.00, 
2208.00, 
2209.00, 
2210.00, 
2211.00, 
2212.00, 
2213.00, 
2214.00, 
2215.00, 
2216.00, 
2217.00, 
2218.00, 
2219.00, 
2220.00, 
2221.00, 
2222.00, 
2223.00, 
2224.00, 
2225.00, 
2226.00, 
2227.00, 
2228.00, 
2229.00, 
2230.00, 
2231.00, 
2232.00, 
2233.00, 
2234.00, 
2235.00, 
2236.00, 
2237.00, 
2238.00, 
2239.00, 
2240.00, 
2241.00, 
2242.00, 
2243.00, 
2244.00, 
2245.00, 
2246.00, 
2247.00, 
2248.00, 
2249.00, 
2250.00, 
2251.00, 
2252.00, 
2253.00, 
2254.00, 
2255.00, 
2256.00, 
2257.00, 
2258.00, 
2259.00, 
2260.00, 
2261.00, 
2262.00, 
2263.00, 
2264.00, 
2265.00, 
2266.00, 
2267.00, 
2268.00, 
2269.00, 
2270.00, 
2271.00, 
2272.00, 
2273.00, 
2274.00, 
2275.00, 
2276.00, 
2277.00, 
2278.00, 
2279.00, 
2280.00, 
2281.00, 
2282.00, 
2283.00, 
2284.00, 
2285.00, 
2286.00, 
2287.00, 
2288.00, 
2289.00, 
2290.00, 
2291.00, 
2292.00, 
2293.00, 
2294.00, 
2295.00, 
2296.00, 
2297.00, 
2298.00, 
2299.00, 
2300.00, 
2301.00, 
2302.00, 
2303.00, 
2304.00, 
2305.00, 
2306.00, 
2307.00, 
2308.00, 
2309.00, 
2310.00, 
2311.00, 
2312.00, 
2313.00, 
2314.00, 
2315.00, 
2316.00, 
2317.00, 
2318.00, 
2319.00, 
2320.00, 
2321.00, 
2322.00, 
2323.00, 
2324.00, 
2325.00, 
2326.00, 
2327.00, 
2328.00, 
2329.00, 
2330.00, 
2331.00, 
2332.00, 
2333.00, 
2334.00, 
2335.00, 
2336.00, 
2337.00, 
2338.00, 
2339.00, 
2340.00, 
2341.00, 
2342.00, 
2343.00, 
2344.00, 
2345.00, 
2346.00, 
2347.00, 
2348.00, 
2349.00, 
2350.00, 
2351.00, 
2352.00, 
2353.00, 
2354.00, 
2355.00, 
2356.00, 
2357.00, 
2358.00, 
2359.00, 
2360.00, 
2361.00, 
2362.00, 
2363.00, 
2364.00, 
2365.00, 
2366.00, 
2367.00, 
2368.00, 
2369.00, 
2370.00, 
2371.00, 
2372.00, 
2373.00, 
2374.00, 
2375.00, 
2376.00, 
2377.00, 
2378.00, 
2379.00, 
2380.00, 
2381.00, 
2382.00, 
2383.00, 
2384.00, 
2385.00, 
2386.00, 
2387.00, 
2388.00, 
2389.00, 
2390.00, 
2391.00, 
2392.00, 
2393.00, 
2394.00, 
2395.00, 
2396.00, 
2397.00, 
2398.00, 
2399.00, 
2400.00, 
2401.00, 
2402.00, 
2403.00, 
2404.00, 
2405.00, 
2406.00, 
2407.00, 
2408.00, 
2409.00, 
2410.00, 
2411.00, 
2412.00, 
2413.00, 
2414.00, 
2415.00, 
2416.00, 
2417.00, 
2418.00, 
2419.00, 
2420.00, 
2421.00, 
2422.00, 
2423.00, 
2424.00, 
2425.00, 
2426.00, 
2427.00, 
2428.00, 
2429.00, 
2430.00, 
2431.00, 
2432.00, 
2433.00, 
2434.00, 
2435.00, 
2436.00, 
2437.00, 
2438.00, 
2439.00, 
2440.00, 
2441.00, 
2442.00, 
2443.00, 
2444.00, 
2445.00, 
2446.00, 
2447.00, 
2448.00, 
2449.00, 
2450.00, 
2451.00, 
2452.00, 
2453.00, 
2454.00, 
2455.00, 
2456.00, 
2457.00, 
2458.00, 
2459.00, 
2460.00, 
2461.00, 
2462.00, 
2463.00, 
2464.00, 
2465.00, 
2466.00, 
2467.00, 
2468.00, 
2469.00, 
2470.00, 
2471.00, 
2472.00, 
2473.00, 
2474.00, 
2475.00, 
2476.00, 
2477.00, 
2478.00, 
2479.00, 
2480.00, 
2481.00, 
2482.00, 
2483.00, 
2484.00, 
2485.00, 
2486.00, 
2487.00, 
2488.00, 
2489.00, 
2490.00, 
2491.00, 
2492.00, 
2493.00, 
2494.00, 
2495.00, 
2496.00, 
2497.00, 
2498.00, 
2499.00, 
2500.00, 
2501.00, 
2502.00, 
2503.00, 
2504.00, 
2505.00, 
2506.00, 
2507.00, 
2508.00, 
2509.00, 
2510.00, 
2511.00, 
2512.00, 
2513.00, 
2514.00, 
2515.00, 
2516.00, 
2517.00, 
2518.00, 
2519.00, 
2520.00, 
2521.00, 
2522.00, 
2523.00, 
2524.00, 
2525.00, 
2526.00, 
2527.00, 
2528.00, 
2529.00, 
2530.00, 
2531.00, 
2532.00, 
2533.00, 
2534.00, 
2535.00, 
2536.00, 
2537.00, 
2538.00, 
2539.00, 
2540.00, 
2541.00, 
2542.00, 
2543.00, 
2544.00, 
2545.00, 
2546.00, 
2547.00, 
2548.00, 
2549.00, 
2550.00, 
2551.00, 
2552.00, 
2553.00, 
2554.00, 
2555.00, 
2556.00, 
2557.00, 
2558.00, 
2559.00, 
2560.00, 
2561.00, 
2562.00, 
2563.00, 
2564.00, 
2565.00, 
2566.00, 
2567.00, 
2568.00, 
2569.00, 
2570.00, 
2571.00, 
2572.00, 
2573.00, 
2574.00, 
2575.00, 
2576.00, 
2577.00, 
2578.00, 
2579.00, 
2580.00, 
2581.00, 
2582.00, 
2583.00, 
2584.00, 
2585.00, 
2586.00, 
2587.00, 
2588.00, 
2589.00, 
2590.00, 
2591.00, 
2592.00, 
2593.00, 
2594.00, 
2595.00, 
2596.00, 
2597.00, 
2598.00, 
2599.00, 
2600.00, 
