"1aP2 - RawData"
"Wavelength nm.","T%"
200.00,0.000
201.00,-0.001
202.00,0.004
203.00,0.003
204.00,0.004
205.00,0.002
206.00,0.000
207.00,0.001
208.00,0.005
209.00,-0.001
210.00,-0.001
211.00,0.000
212.00,0.003
213.00,0.003
214.00,0.000
215.00,0.002
216.00,-0.001
217.00,-0.000
218.00,-0.002
219.00,-0.000
220.00,0.000
221.00,0.001
222.00,0.003
223.00,-0.002
224.00,-0.001
225.00,0.001
226.00,0.000
227.00,0.001
228.00,0.002
229.00,0.000
230.00,0.003
231.00,0.000
232.00,-0.002
233.00,0.002
234.00,0.000
235.00,0.003
236.00,-0.001
237.00,0.000
238.00,0.001
239.00,0.001
240.00,0.000
241.00,0.000
242.00,0.001
243.00,0.000
244.00,0.000
245.00,0.001
246.00,0.000
247.00,-0.000
248.00,0.003
249.00,0.001
250.00,0.001
251.00,-0.000
252.00,-0.001
253.00,0.001
254.00,0.001
255.00,0.000
256.00,-0.001
257.00,-0.000
258.00,0.002
259.00,0.000
260.00,0.001
261.00,0.001
262.00,0.001
263.00,0.003
264.00,0.002
265.00,-0.000
266.00,-0.003
267.00,0.001
268.00,0.000
269.00,-0.001
270.00,0.002
271.00,0.000
272.00,0.001
273.00,0.001
274.00,0.001
275.00,0.000
276.00,-0.001
277.00,-0.001
278.00,-0.001
279.00,-0.002
280.00,-0.000
281.00,-0.000
282.00,0.000
283.00,0.000
284.00,0.001
285.00,0.002
286.00,0.002
287.00,0.002
288.00,-0.001
289.00,0.001
290.00,0.002
291.00,0.001
292.00,-0.001
293.00,0.000
294.00,0.001
295.00,-0.000
296.00,0.000
297.00,0.001
298.00,0.002
299.00,0.003
300.00,0.006
301.00,0.008
302.00,0.010
303.00,0.014
304.00,0.022
305.00,0.035
306.00,0.055
307.00,0.081
308.00,0.124
309.00,0.192
310.00,0.265
311.00,0.359
312.00,0.488
313.00,0.648
314.00,0.848
315.00,1.092
316.00,1.381
317.00,1.744
318.00,2.119
319.00,2.609
320.00,3.153
321.00,3.723
322.00,4.403
323.00,5.148
324.00,5.866
325.00,6.672
326.00,7.502
327.00,8.275
328.00,9.295
329.00,10.225
330.00,11.202
331.00,12.172
332.00,13.145
333.00,14.119
334.00,15.108
335.00,16.141
336.00,17.071
337.00,18.053
338.00,18.995
339.00,19.844
340.00,20.682
341.00,21.542
342.00,22.300
343.00,23.088
344.00,23.834
345.00,24.501
346.00,25.168
347.00,25.803
348.00,26.386
349.00,26.937
350.00,27.486
351.00,27.938
352.00,28.378
353.00,28.791
354.00,29.210
355.00,29.555
356.00,29.919
357.00,30.242
358.00,30.521
359.00,30.787
360.00,31.091
361.00,31.254
362.00,31.485
363.00,31.718
364.00,31.916
365.00,32.012
366.00,32.190
367.00,32.300
368.00,32.379
369.00,32.437
370.00,32.523
371.00,32.533
372.00,32.473
373.00,32.617
374.00,32.604
375.00,32.613
376.00,32.507
377.00,32.520
378.00,32.447
379.00,32.364
380.00,32.335
381.00,32.367
382.00,32.361
383.00,32.398
384.00,32.483
385.00,32.520
386.00,32.619
387.00,32.656
388.00,32.748
389.00,32.771
390.00,32.839
391.00,32.922
392.00,32.972
393.00,33.022
394.00,33.019
395.00,33.132
396.00,33.113
397.00,33.104
398.00,33.165
399.00,33.171
400.00,33.249
401.00,33.168
402.00,33.193
403.00,33.188
404.00,33.157
405.00,33.188
406.00,33.180
407.00,33.157
408.00,33.196
409.00,33.148
410.00,33.068
411.00,33.083
412.00,33.052
413.00,33.061
414.00,33.066
415.00,33.045
416.00,33.106
417.00,33.070
418.00,33.098
419.00,33.170
420.00,33.135
421.00,33.296
422.00,33.329
423.00,33.335
424.00,33.385
425.00,33.433
426.00,33.473
427.00,33.523
428.00,33.488
429.00,33.549
430.00,33.629
431.00,33.646
432.00,33.682
433.00,33.810
434.00,33.813
435.00,33.950
436.00,33.933
437.00,33.901
438.00,34.127
439.00,34.146
440.00,34.239
441.00,34.315
442.00,34.386
443.00,34.448
444.00,34.558
445.00,34.633
446.00,34.675
447.00,34.826
448.00,34.905
449.00,34.953
450.00,35.102
451.00,35.170
452.00,35.234
453.00,35.405
454.00,35.486
455.00,35.571
456.00,35.672
457.00,35.754
458.00,35.777
459.00,36.051
460.00,36.092
461.00,36.199
462.00,36.356
463.00,36.431
464.00,36.605
465.00,36.678
466.00,36.781
467.00,36.882
468.00,36.966
469.00,37.092
470.00,37.134
471.00,37.237
472.00,37.364
473.00,37.449
474.00,37.573
475.00,37.634
476.00,37.699
477.00,37.811
478.00,37.911
479.00,38.062
480.00,38.196
481.00,38.266
482.00,38.458
483.00,38.548
484.00,38.658
485.00,38.833
486.00,38.972
487.00,39.086
488.00,39.241
489.00,39.393
490.00,39.470
491.00,39.542
492.00,39.669
493.00,39.869
494.00,39.871
495.00,39.971
496.00,40.099
497.00,40.201
498.00,40.325
499.00,40.472
500.00,40.548
501.00,40.612
502.00,40.738
503.00,40.835
504.00,40.922
505.00,40.999
506.00,41.119
507.00,41.237
508.00,41.255
509.00,41.424
510.00,41.519
511.00,41.583
512.00,41.645
513.00,41.785
514.00,41.884
515.00,42.010
516.00,42.025
517.00,42.186
518.00,42.303
519.00,42.307
520.00,42.381
521.00,42.404
522.00,42.518
523.00,42.552
524.00,42.607
525.00,42.666
526.00,42.773
527.00,42.781
528.00,42.853
529.00,42.904
530.00,42.985
531.00,43.197
532.00,43.246
533.00,43.325
534.00,43.353
535.00,43.426
536.00,43.534
537.00,43.514
538.00,43.642
539.00,43.657
540.00,43.697
541.00,43.686
542.00,43.676
543.00,43.776
544.00,43.946
545.00,43.846
546.00,43.922
547.00,44.011
548.00,44.059
549.00,44.044
550.00,44.156
551.00,44.240
552.00,44.245
553.00,44.287
554.00,44.438
555.00,44.390
556.00,44.436
557.00,44.484
558.00,44.532
559.00,44.618
560.00,44.617
561.00,44.702
562.00,44.775
563.00,44.808
564.00,44.818
565.00,44.816
566.00,44.823
567.00,44.799
568.00,44.845
569.00,44.927
570.00,44.801
571.00,44.876
572.00,44.967
573.00,44.937
574.00,44.992
575.00,44.956
576.00,45.011
577.00,45.066
578.00,45.081
579.00,45.122
580.00,45.105
581.00,45.252
582.00,45.398
583.00,45.407
584.00,45.487
585.00,45.484
586.00,45.450
587.00,45.570
588.00,45.553
589.00,45.592
590.00,45.744
591.00,45.698
592.00,45.639
593.00,45.625
594.00,45.754
595.00,45.653
596.00,45.720
597.00,45.999
598.00,45.935
599.00,45.880
600.00,45.991
601.00,45.985
602.00,45.908
603.00,46.030
604.00,45.990
605.00,46.035
606.00,46.097
607.00,46.068
608.00,46.107
609.00,46.036
610.00,46.154
611.00,46.175
612.00,46.107
613.00,46.259
614.00,46.168
615.00,46.237
616.00,46.327
617.00,46.344
618.00,46.379
619.00,46.348
620.00,46.439
621.00,46.488
622.00,46.548
623.00,46.624
624.00,46.631
625.00,46.669
626.00,46.609
627.00,46.760
628.00,46.760
629.00,46.715
630.00,46.823
631.00,46.812
632.00,46.895
633.00,46.999
634.00,46.947
635.00,47.048
636.00,47.146
637.00,47.207
638.00,47.224
639.00,47.307
640.00,47.291
641.00,47.283
642.00,47.348
643.00,47.353
644.00,47.530
645.00,47.446
646.00,47.609
647.00,47.633
648.00,47.648
649.00,47.678
650.00,47.661
651.00,47.739
652.00,47.815
653.00,47.831
654.00,47.929
655.00,47.929
656.00,47.929
657.00,48.128
658.00,48.025
659.00,47.917
660.00,48.245
661.00,48.294
662.00,48.377
663.00,48.327
664.00,48.475
665.00,48.531
666.00,48.484
667.00,48.650
668.00,48.625
669.00,48.615
670.00,48.887
671.00,48.869
672.00,48.941
673.00,49.031
674.00,48.966
675.00,49.003
676.00,49.177
677.00,49.145
678.00,49.121
679.00,49.256
680.00,49.397
681.00,49.451
682.00,49.466
683.00,49.473
684.00,49.574
685.00,49.620
686.00,49.619
687.00,49.640
688.00,49.697
689.00,49.624
690.00,49.797
691.00,49.831
692.00,49.936
693.00,50.014
694.00,49.881
695.00,50.028
696.00,49.945
697.00,50.118
698.00,50.120
699.00,50.352
700.00,50.346
701.00,50.287
702.00,50.411
703.00,50.429
704.00,50.550
705.00,50.347
706.00,50.433
707.00,50.651
708.00,50.512
709.00,50.587
710.00,50.862
711.00,50.650
712.00,50.715
713.00,50.796
714.00,50.775
715.00,50.890
716.00,50.905
717.00,50.820
718.00,50.932
719.00,51.050
720.00,51.110
721.00,55.424
722.00,55.364
723.00,55.368
724.00,55.331
725.00,55.293
726.00,55.286
727.00,55.258
728.00,55.297
729.00,55.270
730.00,55.288
731.00,55.218
732.00,55.306
733.00,55.189
734.00,55.296
735.00,55.325
736.00,55.286
737.00,55.287
738.00,55.275
739.00,55.292
740.00,55.259
741.00,55.320
742.00,55.351
743.00,55.281
744.00,55.270
745.00,55.291
746.00,55.236
747.00,55.205
748.00,55.190
749.00,55.087
750.00,55.062
751.00,55.147
752.00,55.094
753.00,55.064
754.00,55.093
755.00,54.985
756.00,54.989
757.00,55.009
758.00,55.056
759.00,55.040
760.00,55.075
761.00,55.053
762.00,55.007
763.00,55.079
764.00,54.900
765.00,54.983
766.00,54.942
767.00,54.985
768.00,54.947
769.00,54.920
770.00,54.943
771.00,54.931
772.00,54.992
773.00,54.876
774.00,54.961
775.00,54.935
776.00,54.832
777.00,54.992
778.00,54.775
779.00,54.850
780.00,54.815
781.00,54.845
782.00,54.774
783.00,54.787
784.00,54.805
785.00,54.686
786.00,54.792
787.00,54.725
788.00,54.597
789.00,54.695
790.00,54.590
791.00,54.690
792.00,54.542
793.00,54.540
794.00,54.556
795.00,54.586
796.00,54.624
797.00,54.518
798.00,54.552
799.00,54.385
800.00,54.476
801.00,54.436
802.00,54.391
803.00,54.333
804.00,54.334
805.00,54.389
806.00,54.235
807.00,54.274
808.00,54.301
809.00,54.279
810.00,54.213
811.00,54.200
812.00,54.278
813.00,54.067
814.00,54.203
815.00,54.083
816.00,54.052
817.00,54.127
818.00,53.998
819.00,54.056
820.00,53.984
821.00,54.023
822.00,53.923
823.00,53.941
824.00,54.025
825.00,53.894
826.00,53.910
827.00,53.897
828.00,53.943
829.00,53.872
830.00,53.894
831.00,56.321
832.00,56.321
833.00,56.263
834.00,56.253
835.00,56.223
836.00,56.278
837.00,56.245
838.00,56.197
839.00,56.191
840.00,56.155
841.00,56.142
842.00,56.094
843.00,56.097
844.00,56.081
845.00,56.037
846.00,56.038
847.00,55.983
848.00,55.833
849.00,55.953
850.00,55.911
851.00,55.835
852.00,55.873
853.00,55.792
854.00,55.775
855.00,55.754
856.00,55.748
857.00,55.684
858.00,55.671
859.00,55.664
860.00,55.632
861.00,55.632
862.00,55.621
863.00,55.597
864.00,55.588
865.00,55.614
866.00,55.610
867.00,55.562
868.00,55.512
869.00,55.529
870.00,55.518
871.00,55.507
872.00,55.485
873.00,55.507
874.00,55.433
875.00,55.403
876.00,55.543
877.00,55.448
878.00,55.487
879.00,55.435
880.00,55.418
881.00,55.390
882.00,55.432
883.00,55.369
884.00,55.319
885.00,55.320
886.00,55.340
887.00,55.315
888.00,55.234
889.00,55.259
890.00,55.241
891.00,55.178
892.00,55.179
893.00,55.189
894.00,55.178
895.00,55.127
896.00,55.115
897.00,55.127
898.00,55.073
899.00,55.066
900.00,55.043
901.00,55.037
902.00,55.038
903.00,55.009
904.00,55.000
905.00,54.989
906.00,54.993
907.00,54.967
908.00,54.897
909.00,54.884
910.00,54.837
911.00,54.881
912.00,54.828
913.00,54.802
914.00,54.794
915.00,54.744
916.00,54.788
917.00,54.673
918.00,54.748
919.00,54.684
920.00,54.691
921.00,54.678
922.00,54.663
923.00,54.654
924.00,54.600
925.00,54.600
926.00,54.606
927.00,54.588
928.00,54.552
929.00,54.569
930.00,54.485
931.00,54.520
932.00,54.459
933.00,54.468
934.00,54.471
935.00,54.420
936.00,54.397
937.00,54.377
938.00,54.361
939.00,54.362
940.00,54.344
941.00,54.344
942.00,54.309
943.00,54.296
944.00,54.238
945.00,54.247
946.00,54.246
947.00,54.203
948.00,54.194
949.00,54.171
950.00,54.155
951.00,54.139
952.00,54.105
953.00,54.085
954.00,54.047
955.00,53.981
956.00,54.004
957.00,53.963
958.00,53.964
959.00,53.910
960.00,53.913
961.00,53.898
962.00,53.916
963.00,53.877
964.00,53.910
965.00,53.878
966.00,53.855
967.00,53.860
968.00,53.835
969.00,53.841
970.00,53.821
971.00,53.853
972.00,53.768
973.00,53.832
974.00,53.848
975.00,53.825
976.00,53.847
977.00,53.885
978.00,53.856
979.00,53.801
980.00,53.831
981.00,53.858
982.00,53.814
983.00,53.805
984.00,53.805
985.00,53.826
986.00,53.770
987.00,53.803
988.00,53.747
989.00,53.785
990.00,53.766
991.00,53.719
992.00,53.775
993.00,53.730
994.00,53.718
995.00,53.705
996.00,53.702
997.00,53.700
998.00,53.654
999.00,53.662
1000.00,53.628
1001.00,53.638
1002.00,53.619
1003.00,53.614
1004.00,53.588
1005.00,53.562
1006.00,53.669
1007.00,53.583
1008.00,53.584
1009.00,53.551
1010.00,53.542
1011.00,53.529
1012.00,53.484
1013.00,53.503
1014.00,53.480
1015.00,53.492
1016.00,53.455
1017.00,53.466
1018.00,53.439
1019.00,53.424
1020.00,53.421
1021.00,53.392
1022.00,53.399
1023.00,53.342
1024.00,53.365
1025.00,53.353
1026.00,53.328
1027.00,53.299
1028.00,53.313
1029.00,53.281
1030.00,53.256
1031.00,53.266
1032.00,53.208
1033.00,53.227
1034.00,53.192
1035.00,53.175
1036.00,53.134
1037.00,53.136
1038.00,53.125
1039.00,53.096
1040.00,53.093
1041.00,53.055
1042.00,53.059
1043.00,53.013
1044.00,53.069
1045.00,53.024
1046.00,53.032
1047.00,53.058
1048.00,53.062
1049.00,53.071
1050.00,53.096
1051.00,53.122
1052.00,53.115
1053.00,53.140
1054.00,53.120
1055.00,53.131
1056.00,53.128
1057.00,53.143
1058.00,53.142
1059.00,53.100
1060.00,53.132
1061.00,53.138
1062.00,53.101
1063.00,53.107
1064.00,53.117
1065.00,53.099
1066.00,53.090
1067.00,53.088
1068.00,53.105
1069.00,53.078
1070.00,53.065
1071.00,53.054
1072.00,53.083
1073.00,53.039
1074.00,53.064
1075.00,53.049
1076.00,53.037
1077.00,53.016
1078.00,53.001
1079.00,53.004
1080.00,53.027
1081.00,53.004
1082.00,53.003
1083.00,52.995
1084.00,52.982
1085.00,52.978
1086.00,52.984
1087.00,52.948
1088.00,52.953
1089.00,52.933
1090.00,52.928
1091.00,52.941
1092.00,52.915
1093.00,52.903
1094.00,52.906
1095.00,52.876
1096.00,52.882
1097.00,52.883
1098.00,52.867
1099.00,52.860
1100.00,52.841
1101.00,52.831
1102.00,52.834
1103.00,52.818
1104.00,52.823
1105.00,52.833
1106.00,52.791
1107.00,52.789
1108.00,52.794
1109.00,52.752
1110.00,52.754
1111.00,52.733
1112.00,52.734
1113.00,52.751
1114.00,52.737
1115.00,52.740
1116.00,52.729
1117.00,52.705
1118.00,52.715
1119.00,52.720
1120.00,52.687
1121.00,52.702
1122.00,52.686
1123.00,52.659
1124.00,52.680
1125.00,52.672
1126.00,52.661
1127.00,52.670
1128.00,52.661
1129.00,52.647
1130.00,52.635
1131.00,52.610
1132.00,52.618
1133.00,52.611
1134.00,52.574
1135.00,52.600
1136.00,52.619
1137.00,52.612
1138.00,52.620
1139.00,52.611
1140.00,52.627
1141.00,52.603
1142.00,52.573
1143.00,52.601
1144.00,52.570
1145.00,52.551
1146.00,52.567
1147.00,52.570
1148.00,52.545
1149.00,52.579
1150.00,52.588
1151.00,52.586
1152.00,52.569
1153.00,52.563
1154.00,52.559
1155.00,52.553
1156.00,52.544
1157.00,52.575
1158.00,52.538
1159.00,52.540
1160.00,52.544
1161.00,52.553
1162.00,52.546
1163.00,52.544
1164.00,52.526
1165.00,52.536
1166.00,52.542
1167.00,52.524
1168.00,52.568
1169.00,52.538
1170.00,52.529
1171.00,52.534
1172.00,52.524
1173.00,52.533
1174.00,52.551
1175.00,52.532
1176.00,52.556
1177.00,52.538
1178.00,52.516
1179.00,52.543
1180.00,52.530
1181.00,52.538
1182.00,52.537
1183.00,52.551
1184.00,52.531
1185.00,52.552
1186.00,52.518
1187.00,52.543
1188.00,52.512
1189.00,52.519
1190.00,52.523
1191.00,52.517
1192.00,52.525
1193.00,52.522
1194.00,52.535
1195.00,52.506
1196.00,52.535
1197.00,52.516
1198.00,52.530
1199.00,52.535
1200.00,52.545
1201.00,52.563
1202.00,52.531
1203.00,52.536
1204.00,52.528
1205.00,52.540
1206.00,52.522
1207.00,52.536
1208.00,52.493
1209.00,52.518
1210.00,52.514
1211.00,52.507
1212.00,52.559
1213.00,52.511
1214.00,52.552
1215.00,52.538
1216.00,52.540
1217.00,52.544
1218.00,52.519
1219.00,52.510
1220.00,52.497
1221.00,52.527
1222.00,52.508
1223.00,52.558
1224.00,52.537
1225.00,52.521
1226.00,52.519
1227.00,52.515
1228.00,52.528
1229.00,52.545
1230.00,52.560
1231.00,52.543
1232.00,52.574
1233.00,52.547
1234.00,52.586
1235.00,52.575
1236.00,52.573
1237.00,52.581
1238.00,52.573
1239.00,52.578
1240.00,52.579
1241.00,52.577
1242.00,52.572
1243.00,52.587
1244.00,52.561
1245.00,52.596
1246.00,52.584
1247.00,52.598
1248.00,52.612
1249.00,52.624
1250.00,52.626
1251.00,52.631
1252.00,52.628
1253.00,52.606
1254.00,52.623
1255.00,52.595
1256.00,52.596
1257.00,52.592
1258.00,52.650
1259.00,52.636
1260.00,52.666
1261.00,52.661
1262.00,52.669
1263.00,52.643
1264.00,52.646
1265.00,52.656
1266.00,52.659
1267.00,52.700
1268.00,52.692
1269.00,52.693
1270.00,52.727
1271.00,52.691
1272.00,52.723
1273.00,52.738
1274.00,52.711
1275.00,52.721
1276.00,52.729
1277.00,52.734
1278.00,52.743
1279.00,52.740
1280.00,52.719
1281.00,52.770
1282.00,52.778
1283.00,52.752
1284.00,52.758
1285.00,52.742
1286.00,52.771
1287.00,52.755
1288.00,52.790
1289.00,52.764
1290.00,52.790
1291.00,52.792
1292.00,52.794
1293.00,52.800
1294.00,52.806
1295.00,52.848
1296.00,52.818
1297.00,52.860
1298.00,52.889
1299.00,52.835
1300.00,52.875
1301.00,52.839
1302.00,52.861
1303.00,52.883
1304.00,52.850
1305.00,52.875
1306.00,52.868
1307.00,52.857
1308.00,52.868
1309.00,52.853
1310.00,52.865
1311.00,52.861
1312.00,52.893
1313.00,52.922
1314.00,52.941
1315.00,52.938
1316.00,52.959
1317.00,52.977
1318.00,52.963
1319.00,52.968
1320.00,52.969
1321.00,53.125
1322.00,53.126
1323.00,53.111
1324.00,53.088
1325.00,53.095
1326.00,53.133
1327.00,53.102
1328.00,53.114
1329.00,53.102
1330.00,53.104
1331.00,53.119
1332.00,53.097
1333.00,53.085
1334.00,53.120
1335.00,53.132
1336.00,53.176
1337.00,53.198
1338.00,53.261
1339.00,53.331
1340.00,53.375
1341.00,53.438
1342.00,53.511
1343.00,53.541
1344.00,53.604
1345.00,53.642
1346.00,53.673
1347.00,53.709
1348.00,53.729
1349.00,53.737
1350.00,53.771
1351.00,53.772
1352.00,53.788
1353.00,53.832
1354.00,53.798
1355.00,53.723
1356.00,53.776
1357.00,53.790
1358.00,53.851
1359.00,53.824
1360.00,53.846
1361.00,53.863
1362.00,53.806
1363.00,53.737
1364.00,53.927
1365.00,53.839
1366.00,53.901
1367.00,53.862
1368.00,53.855
1369.00,53.874
1370.00,53.816
1371.00,53.831
1372.00,53.819
1373.00,53.817
1374.00,53.833
1375.00,53.826
1376.00,53.800
1377.00,53.765
1378.00,53.818
1379.00,53.829
1380.00,53.868
1381.00,53.902
1382.00,53.915
1383.00,53.879
1384.00,53.818
1385.00,53.836
1386.00,53.835
1387.00,53.870
1388.00,53.823
1389.00,53.812
1390.00,53.752
1391.00,53.818
1392.00,53.820
1393.00,53.816
1394.00,53.859
1395.00,53.814
1396.00,53.794
1397.00,53.910
1398.00,53.764
1399.00,53.848
1400.00,53.569
1401.00,53.764
1402.00,53.810
1403.00,53.857
1404.00,53.833
1405.00,53.864
1406.00,53.904
1407.00,53.858
1408.00,53.901
1409.00,53.885
1410.00,53.916
1411.00,53.839
1412.00,53.926
1413.00,53.925
1414.00,53.921
1415.00,53.891
1416.00,53.991
1417.00,54.070
1418.00,53.996
1419.00,53.957
1420.00,53.956
1421.00,54.012
1422.00,53.968
1423.00,53.987
1424.00,54.011
1425.00,54.037
1426.00,54.042
1427.00,54.068
1428.00,54.060
1429.00,54.084
1430.00,54.103
1431.00,54.080
1432.00,54.100
1433.00,54.118
1434.00,54.091
1435.00,54.170
1436.00,54.170
1437.00,54.159
1438.00,54.189
1439.00,54.223
1440.00,54.219
1441.00,54.241
1442.00,54.209
1443.00,54.264
1444.00,54.368
1445.00,54.287
1446.00,54.296
1447.00,54.325
1448.00,54.337
1449.00,54.366
1450.00,54.362
1451.00,54.368
1452.00,54.379
1453.00,54.387
1454.00,54.427
1455.00,54.428
1456.00,54.437
1457.00,54.460
1458.00,54.460
1459.00,54.478
1460.00,54.502
1461.00,54.532
1462.00,54.539
1463.00,54.566
1464.00,54.580
1465.00,54.564
1466.00,54.553
1467.00,54.569
1468.00,54.650
1469.00,54.617
1470.00,54.620
1471.00,54.650
1472.00,54.645
1473.00,54.668
1474.00,54.699
1475.00,54.688
1476.00,54.717
1477.00,54.696
1478.00,54.705
1479.00,54.736
1480.00,54.728
1481.00,54.732
1482.00,54.768
1483.00,54.778
1484.00,54.782
1485.00,54.799
1486.00,54.785
1487.00,54.830
1488.00,54.850
1489.00,54.818
1490.00,54.843
1491.00,54.861
1492.00,54.896
1493.00,54.867
1494.00,54.909
1495.00,54.906
1496.00,54.933
1497.00,54.900
1498.00,54.928
1499.00,54.946
1500.00,54.929
1501.00, 
1502.00, 
1503.00, 
1504.00, 
1505.00, 
1506.00, 
1507.00, 
1508.00, 
1509.00, 
1510.00, 
1511.00, 
1512.00, 
1513.00, 
1514.00, 
1515.00, 
1516.00, 
1517.00, 
1518.00, 
1519.00, 
1520.00, 
1521.00, 
1522.00, 
1523.00, 
1524.00, 
1525.00, 
1526.00, 
1527.00, 
1528.00, 
1529.00, 
1530.00, 
1531.00, 
1532.00, 
1533.00, 
1534.00, 
1535.00, 
1536.00, 
1537.00, 
1538.00, 
1539.00, 
1540.00, 
1541.00, 
1542.00, 
1543.00, 
1544.00, 
1545.00, 
1546.00, 
1547.00, 
1548.00, 
1549.00, 
1550.00, 
1551.00, 
1552.00, 
1553.00, 
1554.00, 
1555.00, 
1556.00, 
1557.00, 
1558.00, 
1559.00, 
1560.00, 
1561.00, 
1562.00, 
1563.00, 
1564.00, 
1565.00, 
1566.00, 
1567.00, 
1568.00, 
1569.00, 
1570.00, 
1571.00, 
1572.00, 
1573.00, 
1574.00, 
1575.00, 
1576.00, 
1577.00, 
1578.00, 
1579.00, 
1580.00, 
1581.00, 
1582.00, 
1583.00, 
1584.00, 
1585.00, 
1586.00, 
1587.00, 
1588.00, 
1589.00, 
1590.00, 
1591.00, 
1592.00, 
1593.00, 
1594.00, 
1595.00, 
1596.00, 
1597.00, 
1598.00, 
1599.00, 
1600.00, 
1601.00, 
1602.00, 
1603.00, 
1604.00, 
1605.00, 
1606.00, 
1607.00, 
1608.00, 
1609.00, 
1610.00, 
1611.00, 
1612.00, 
1613.00, 
1614.00, 
1615.00, 
1616.00, 
1617.00, 
1618.00, 
1619.00, 
1620.00, 
1621.00, 
1622.00, 
1623.00, 
1624.00, 
1625.00, 
1626.00, 
1627.00, 
1628.00, 
1629.00, 
1630.00, 
1631.00, 
1632.00, 
1633.00, 
1634.00, 
1635.00, 
1636.00, 
1637.00, 
1638.00, 
1639.00, 
1640.00, 
1641.00, 
1642.00, 
1643.00, 
1644.00, 
1645.00, 
1646.00, 
1647.00, 
1648.00, 
1649.00, 
1650.00, 
1651.00, 
1652.00, 
1653.00, 
1654.00, 
1655.00, 
1656.00, 
1657.00, 
1658.00, 
1659.00, 
1660.00, 
1661.00, 
1662.00, 
1663.00, 
1664.00, 
1665.00, 
1666.00, 
1667.00, 
1668.00, 
1669.00, 
1670.00, 
1671.00, 
1672.00, 
1673.00, 
1674.00, 
1675.00, 
1676.00, 
1677.00, 
1678.00, 
1679.00, 
1680.00, 
1681.00, 
1682.00, 
1683.00, 
1684.00, 
1685.00, 
1686.00, 
1687.00, 
1688.00, 
1689.00, 
1690.00, 
1691.00, 
1692.00, 
1693.00, 
1694.00, 
1695.00, 
1696.00, 
1697.00, 
1698.00, 
1699.00, 
1700.00, 
1701.00, 
1702.00, 
1703.00, 
1704.00, 
1705.00, 
1706.00, 
1707.00, 
1708.00, 
1709.00, 
1710.00, 
1711.00, 
1712.00, 
1713.00, 
1714.00, 
1715.00, 
1716.00, 
1717.00, 
1718.00, 
1719.00, 
1720.00, 
1721.00, 
1722.00, 
1723.00, 
1724.00, 
1725.00, 
1726.00, 
1727.00, 
1728.00, 
1729.00, 
1730.00, 
1731.00, 
1732.00, 
1733.00, 
1734.00, 
1735.00, 
1736.00, 
1737.00, 
1738.00, 
1739.00, 
1740.00, 
1741.00, 
1742.00, 
1743.00, 
1744.00, 
1745.00, 
1746.00, 
1747.00, 
1748.00, 
1749.00, 
1750.00, 
1751.00, 
1752.00, 
1753.00, 
1754.00, 
1755.00, 
1756.00, 
1757.00, 
1758.00, 
1759.00, 
1760.00, 
1761.00, 
1762.00, 
1763.00, 
1764.00, 
1765.00, 
1766.00, 
1767.00, 
1768.00, 
1769.00, 
1770.00, 
1771.00, 
1772.00, 
1773.00, 
1774.00, 
1775.00, 
1776.00, 
1777.00, 
1778.00, 
1779.00, 
1780.00, 
1781.00, 
1782.00, 
1783.00, 
1784.00, 
1785.00, 
1786.00, 
1787.00, 
1788.00, 
1789.00, 
1790.00, 
1791.00, 
1792.00, 
1793.00, 
1794.00, 
1795.00, 
1796.00, 
1797.00, 
1798.00, 
1799.00, 
1800.00, 
1801.00, 
1802.00, 
1803.00, 
1804.00, 
1805.00, 
1806.00, 
1807.00, 
1808.00, 
1809.00, 
1810.00, 
1811.00, 
1812.00, 
1813.00, 
1814.00, 
1815.00, 
1816.00, 
1817.00, 
1818.00, 
1819.00, 
1820.00, 
1821.00, 
1822.00, 
1823.00, 
1824.00, 
1825.00, 
1826.00, 
1827.00, 
1828.00, 
1829.00, 
1830.00, 
1831.00, 
1832.00, 
1833.00, 
1834.00, 
1835.00, 
1836.00, 
1837.00, 
1838.00, 
1839.00, 
1840.00, 
1841.00, 
1842.00, 
1843.00, 
1844.00, 
1845.00, 
1846.00, 
1847.00, 
1848.00, 
1849.00, 
1850.00, 
1851.00, 
1852.00, 
1853.00, 
1854.00, 
1855.00, 
1856.00, 
1857.00, 
1858.00, 
1859.00, 
1860.00, 
1861.00, 
1862.00, 
1863.00, 
1864.00, 
1865.00, 
1866.00, 
1867.00, 
1868.00, 
1869.00, 
1870.00, 
1871.00, 
1872.00, 
1873.00, 
1874.00, 
1875.00, 
1876.00, 
1877.00, 
1878.00, 
1879.00, 
1880.00, 
1881.00, 
1882.00, 
1883.00, 
1884.00, 
1885.00, 
1886.00, 
1887.00, 
1888.00, 
1889.00, 
1890.00, 
1891.00, 
1892.00, 
1893.00, 
1894.00, 
1895.00, 
1896.00, 
1897.00, 
1898.00, 
1899.00, 
1900.00, 
1901.00, 
1902.00, 
1903.00, 
1904.00, 
1905.00, 
1906.00, 
1907.00, 
1908.00, 
1909.00, 
1910.00, 
1911.00, 
1912.00, 
1913.00, 
1914.00, 
1915.00, 
1916.00, 
1917.00, 
1918.00, 
1919.00, 
1920.00, 
1921.00, 
1922.00, 
1923.00, 
1924.00, 
1925.00, 
1926.00, 
1927.00, 
1928.00, 
1929.00, 
1930.00, 
1931.00, 
1932.00, 
1933.00, 
1934.00, 
1935.00, 
1936.00, 
1937.00, 
1938.00, 
1939.00, 
1940.00, 
1941.00, 
1942.00, 
1943.00, 
1944.00, 
1945.00, 
1946.00, 
1947.00, 
1948.00, 
1949.00, 
1950.00, 
1951.00, 
1952.00, 
1953.00, 
1954.00, 
1955.00, 
1956.00, 
1957.00, 
1958.00, 
1959.00, 
1960.00, 
1961.00, 
1962.00, 
1963.00, 
1964.00, 
1965.00, 
1966.00, 
1967.00, 
1968.00, 
1969.00, 
1970.00, 
1971.00, 
1972.00, 
1973.00, 
1974.00, 
1975.00, 
1976.00, 
1977.00, 
1978.00, 
1979.00, 
1980.00, 
1981.00, 
1982.00, 
1983.00, 
1984.00, 
1985.00, 
1986.00, 
1987.00, 
1988.00, 
1989.00, 
1990.00, 
1991.00, 
1992.00, 
1993.00, 
1994.00, 
1995.00, 
1996.00, 
1997.00, 
1998.00, 
1999.00, 
2000.00, 
2001.00, 
2002.00, 
2003.00, 
2004.00, 
2005.00, 
2006.00, 
2007.00, 
2008.00, 
2009.00, 
2010.00, 
2011.00, 
2012.00, 
2013.00, 
2014.00, 
2015.00, 
2016.00, 
2017.00, 
2018.00, 
2019.00, 
2020.00, 
2021.00, 
2022.00, 
2023.00, 
2024.00, 
2025.00, 
2026.00, 
2027.00, 
2028.00, 
2029.00, 
2030.00, 
2031.00, 
2032.00, 
2033.00, 
2034.00, 
2035.00, 
2036.00, 
2037.00, 
2038.00, 
2039.00, 
2040.00, 
2041.00, 
2042.00, 
2043.00, 
2044.00, 
2045.00, 
2046.00, 
2047.00, 
2048.00, 
2049.00, 
2050.00, 
2051.00, 
2052.00, 
2053.00, 
2054.00, 
2055.00, 
2056.00, 
2057.00, 
2058.00, 
2059.00, 
2060.00, 
2061.00, 
2062.00, 
2063.00, 
2064.00, 
2065.00, 
2066.00, 
2067.00, 
2068.00, 
2069.00, 
2070.00, 
2071.00, 
2072.00, 
2073.00, 
2074.00, 
2075.00, 
2076.00, 
2077.00, 
2078.00, 
2079.00, 
2080.00, 
2081.00, 
2082.00, 
2083.00, 
2084.00, 
2085.00, 
2086.00, 
2087.00, 
2088.00, 
2089.00, 
2090.00, 
2091.00, 
2092.00, 
2093.00, 
2094.00, 
2095.00, 
2096.00, 
2097.00, 
2098.00, 
2099.00, 
2100.00, 
2101.00, 
2102.00, 
2103.00, 
2104.00, 
2105.00, 
2106.00, 
2107.00, 
2108.00, 
2109.00, 
2110.00, 
2111.00, 
2112.00, 
2113.00, 
2114.00, 
2115.00, 
2116.00, 
2117.00, 
2118.00, 
2119.00, 
2120.00, 
2121.00, 
2122.00, 
2123.00, 
2124.00, 
2125.00, 
2126.00, 
2127.00, 
2128.00, 
2129.00, 
2130.00, 
2131.00, 
2132.00, 
2133.00, 
2134.00, 
2135.00, 
2136.00, 
2137.00, 
2138.00, 
2139.00, 
2140.00, 
2141.00, 
2142.00, 
2143.00, 
2144.00, 
2145.00, 
2146.00, 
2147.00, 
2148.00, 
2149.00, 
2150.00, 
2151.00, 
2152.00, 
2153.00, 
2154.00, 
2155.00, 
2156.00, 
2157.00, 
2158.00, 
2159.00, 
2160.00, 
2161.00, 
2162.00, 
2163.00, 
2164.00, 
2165.00, 
2166.00, 
2167.00, 
2168.00, 
2169.00, 
2170.00, 
2171.00, 
2172.00, 
2173.00, 
2174.00, 
2175.00, 
2176.00, 
2177.00, 
2178.00, 
2179.00, 
2180.00, 
2181.00, 
2182.00, 
2183.00, 
2184.00, 
2185.00, 
2186.00, 
2187.00, 
2188.00, 
2189.00, 
2190.00, 
2191.00, 
2192.00, 
2193.00, 
2194.00, 
2195.00, 
2196.00, 
2197.00, 
2198.00, 
2199.00, 
2200.00, 
2201.00, 
2202.00, 
2203.00, 
2204.00, 
2205.00, 
2206.00, 
2207.00, 
2208.00, 
2209.00, 
2210.00, 
2211.00, 
2212.00, 
2213.00, 
2214.00, 
2215.00, 
2216.00, 
2217.00, 
2218.00, 
2219.00, 
2220.00, 
2221.00, 
2222.00, 
2223.00, 
2224.00, 
2225.00, 
2226.00, 
2227.00, 
2228.00, 
2229.00, 
2230.00, 
2231.00, 
2232.00, 
2233.00, 
2234.00, 
2235.00, 
2236.00, 
2237.00, 
2238.00, 
2239.00, 
2240.00, 
2241.00, 
2242.00, 
2243.00, 
2244.00, 
2245.00, 
2246.00, 
2247.00, 
2248.00, 
2249.00, 
2250.00, 
2251.00, 
2252.00, 
2253.00, 
2254.00, 
2255.00, 
2256.00, 
2257.00, 
2258.00, 
2259.00, 
2260.00, 
2261.00, 
2262.00, 
2263.00, 
2264.00, 
2265.00, 
2266.00, 
2267.00, 
2268.00, 
2269.00, 
2270.00, 
2271.00, 
2272.00, 
2273.00, 
2274.00, 
2275.00, 
2276.00, 
2277.00, 
2278.00, 
2279.00, 
2280.00, 
2281.00, 
2282.00, 
2283.00, 
2284.00, 
2285.00, 
2286.00, 
2287.00, 
2288.00, 
2289.00, 
2290.00, 
2291.00, 
2292.00, 
2293.00, 
2294.00, 
2295.00, 
2296.00, 
2297.00, 
2298.00, 
2299.00, 
2300.00, 
2301.00, 
2302.00, 
2303.00, 
2304.00, 
2305.00, 
2306.00, 
2307.00, 
2308.00, 
2309.00, 
2310.00, 
2311.00, 
2312.00, 
2313.00, 
2314.00, 
2315.00, 
2316.00, 
2317.00, 
2318.00, 
2319.00, 
2320.00, 
2321.00, 
2322.00, 
2323.00, 
2324.00, 
2325.00, 
2326.00, 
2327.00, 
2328.00, 
2329.00, 
2330.00, 
2331.00, 
2332.00, 
2333.00, 
2334.00, 
2335.00, 
2336.00, 
2337.00, 
2338.00, 
2339.00, 
2340.00, 
2341.00, 
2342.00, 
2343.00, 
2344.00, 
2345.00, 
2346.00, 
2347.00, 
2348.00, 
2349.00, 
2350.00, 
2351.00, 
2352.00, 
2353.00, 
2354.00, 
2355.00, 
2356.00, 
2357.00, 
2358.00, 
2359.00, 
2360.00, 
2361.00, 
2362.00, 
2363.00, 
2364.00, 
2365.00, 
2366.00, 
2367.00, 
2368.00, 
2369.00, 
2370.00, 
2371.00, 
2372.00, 
2373.00, 
2374.00, 
2375.00, 
2376.00, 
2377.00, 
2378.00, 
2379.00, 
2380.00, 
2381.00, 
2382.00, 
2383.00, 
2384.00, 
2385.00, 
2386.00, 
2387.00, 
2388.00, 
2389.00, 
2390.00, 
2391.00, 
2392.00, 
2393.00, 
2394.00, 
2395.00, 
2396.00, 
2397.00, 
2398.00, 
2399.00, 
2400.00, 
2401.00, 
2402.00, 
2403.00, 
2404.00, 
2405.00, 
2406.00, 
2407.00, 
2408.00, 
2409.00, 
2410.00, 
2411.00, 
2412.00, 
2413.00, 
2414.00, 
2415.00, 
2416.00, 
2417.00, 
2418.00, 
2419.00, 
2420.00, 
2421.00, 
2422.00, 
2423.00, 
2424.00, 
2425.00, 
2426.00, 
2427.00, 
2428.00, 
2429.00, 
2430.00, 
2431.00, 
2432.00, 
2433.00, 
2434.00, 
2435.00, 
2436.00, 
2437.00, 
2438.00, 
2439.00, 
2440.00, 
2441.00, 
2442.00, 
2443.00, 
2444.00, 
2445.00, 
2446.00, 
2447.00, 
2448.00, 
2449.00, 
2450.00, 
2451.00, 
2452.00, 
2453.00, 
2454.00, 
2455.00, 
2456.00, 
2457.00, 
2458.00, 
2459.00, 
2460.00, 
2461.00, 
2462.00, 
2463.00, 
2464.00, 
2465.00, 
2466.00, 
2467.00, 
2468.00, 
2469.00, 
2470.00, 
2471.00, 
2472.00, 
2473.00, 
2474.00, 
2475.00, 
2476.00, 
2477.00, 
2478.00, 
2479.00, 
2480.00, 
2481.00, 
2482.00, 
2483.00, 
2484.00, 
2485.00, 
2486.00, 
2487.00, 
2488.00, 
2489.00, 
2490.00, 
2491.00, 
2492.00, 
2493.00, 
2494.00, 
2495.00, 
2496.00, 
2497.00, 
2498.00, 
2499.00, 
2500.00, 
2501.00, 
2502.00, 
2503.00, 
2504.00, 
2505.00, 
2506.00, 
2507.00, 
2508.00, 
2509.00, 
2510.00, 
2511.00, 
2512.00, 
2513.00, 
2514.00, 
2515.00, 
2516.00, 
2517.00, 
2518.00, 
2519.00, 
2520.00, 
2521.00, 
2522.00, 
2523.00, 
2524.00, 
2525.00, 
2526.00, 
2527.00, 
2528.00, 
2529.00, 
2530.00, 
2531.00, 
2532.00, 
2533.00, 
2534.00, 
2535.00, 
2536.00, 
2537.00, 
2538.00, 
2539.00, 
2540.00, 
2541.00, 
2542.00, 
2543.00, 
2544.00, 
2545.00, 
2546.00, 
2547.00, 
2548.00, 
2549.00, 
2550.00, 
2551.00, 
2552.00, 
2553.00, 
2554.00, 
2555.00, 
2556.00, 
2557.00, 
2558.00, 
2559.00, 
2560.00, 
2561.00, 
2562.00, 
2563.00, 
2564.00, 
2565.00, 
2566.00, 
2567.00, 
2568.00, 
2569.00, 
2570.00, 
2571.00, 
2572.00, 
2573.00, 
2574.00, 
2575.00, 
2576.00, 
2577.00, 
2578.00, 
2579.00, 
2580.00, 
2581.00, 
2582.00, 
2583.00, 
2584.00, 
2585.00, 
2586.00, 
2587.00, 
2588.00, 
2589.00, 
2590.00, 
2591.00, 
2592.00, 
2593.00, 
2594.00, 
2595.00, 
2596.00, 
2597.00, 
2598.00, 
2599.00, 
2600.00, 
