"1cP4 - RawData"
"Wavelength nm.","T%"
200.00,0.003
201.00,0.001
202.00,0.004
203.00,0.002
204.00,0.002
205.00,0.002
206.00,0.001
207.00,-0.000
208.00,0.000
209.00,0.004
210.00,0.002
211.00,-0.001
212.00,0.002
213.00,0.002
214.00,0.001
215.00,0.002
216.00,0.003
217.00,0.000
218.00,0.001
219.00,0.001
220.00,0.004
221.00,0.003
222.00,0.003
223.00,0.000
224.00,-0.002
225.00,0.003
226.00,0.001
227.00,0.001
228.00,0.001
229.00,-0.000
230.00,0.001
231.00,0.002
232.00,0.003
233.00,0.001
234.00,0.001
235.00,0.002
236.00,0.001
237.00,-0.003
238.00,0.001
239.00,0.002
240.00,0.002
241.00,0.001
242.00,0.000
243.00,-0.001
244.00,0.000
245.00,0.002
246.00,-0.001
247.00,0.001
248.00,0.002
249.00,0.001
250.00,-0.000
251.00,0.000
252.00,0.002
253.00,0.002
254.00,0.001
255.00,-0.002
256.00,-0.000
257.00,0.001
258.00,-0.001
259.00,0.002
260.00,0.002
261.00,0.002
262.00,0.001
263.00,0.002
264.00,0.001
265.00,-0.000
266.00,0.000
267.00,0.001
268.00,-0.000
269.00,-0.001
270.00,0.002
271.00,0.001
272.00,0.000
273.00,0.001
274.00,-0.002
275.00,0.000
276.00,0.001
277.00,-0.001
278.00,0.001
279.00,0.001
280.00,0.001
281.00,-0.001
282.00,0.001
283.00,0.002
284.00,0.001
285.00,-0.000
286.00,0.003
287.00,0.001
288.00,0.002
289.00,0.001
290.00,0.001
291.00,-0.000
292.00,-0.001
293.00,0.001
294.00,-0.001
295.00,0.000
296.00,-0.000
297.00,-0.001
298.00,0.001
299.00,0.001
300.00,0.000
301.00,0.002
302.00,0.001
303.00,0.001
304.00,0.001
305.00,0.002
306.00,0.001
307.00,0.003
308.00,0.007
309.00,0.013
310.00,0.021
311.00,0.032
312.00,0.053
313.00,0.080
314.00,0.116
315.00,0.173
316.00,0.247
317.00,0.349
318.00,0.472
319.00,0.646
320.00,0.852
321.00,1.105
322.00,1.391
323.00,1.788
324.00,2.196
325.00,2.673
326.00,3.156
327.00,3.754
328.00,4.382
329.00,5.059
330.00,5.793
331.00,6.540
332.00,7.336
333.00,8.230
334.00,9.058
335.00,9.956
336.00,10.874
337.00,11.803
338.00,12.711
339.00,13.567
340.00,14.447
341.00,15.342
342.00,16.140
343.00,16.980
344.00,17.807
345.00,18.597
346.00,19.297
347.00,19.992
348.00,20.674
349.00,21.192
350.00,21.890
351.00,22.437
352.00,22.949
353.00,23.417
354.00,23.942
355.00,24.391
356.00,24.763
357.00,25.154
358.00,25.504
359.00,25.914
360.00,26.229
361.00,26.488
362.00,26.831
363.00,27.041
364.00,27.194
365.00,27.368
366.00,27.570
367.00,27.754
368.00,27.779
369.00,27.892
370.00,28.000
371.00,28.016
372.00,28.002
373.00,28.092
374.00,28.102
375.00,28.032
376.00,27.980
377.00,27.919
378.00,27.826
379.00,27.723
380.00,27.735
381.00,27.734
382.00,27.783
383.00,27.870
384.00,27.928
385.00,27.991
386.00,28.055
387.00,28.235
388.00,28.367
389.00,28.404
390.00,28.534
391.00,28.621
392.00,28.685
393.00,28.747
394.00,28.829
395.00,28.919
396.00,28.940
397.00,28.942
398.00,28.968
399.00,29.015
400.00,29.081
401.00,29.042
402.00,29.051
403.00,29.056
404.00,29.029
405.00,29.047
406.00,29.048
407.00,29.008
408.00,29.007
409.00,28.961
410.00,28.933
411.00,28.932
412.00,28.869
413.00,28.926
414.00,28.880
415.00,28.835
416.00,28.906
417.00,28.885
418.00,28.885
419.00,28.988
420.00,29.002
421.00,29.082
422.00,29.103
423.00,29.145
424.00,29.213
425.00,29.214
426.00,29.258
427.00,29.302
428.00,29.283
429.00,29.400
430.00,29.353
431.00,29.519
432.00,29.524
433.00,29.574
434.00,29.650
435.00,29.697
436.00,29.769
437.00,29.830
438.00,29.924
439.00,29.982
440.00,30.016
441.00,30.112
442.00,30.212
443.00,30.224
444.00,30.338
445.00,30.396
446.00,30.546
447.00,30.631
448.00,30.787
449.00,30.844
450.00,30.957
451.00,31.036
452.00,31.148
453.00,31.323
454.00,31.359
455.00,31.470
456.00,31.573
457.00,31.668
458.00,31.748
459.00,31.931
460.00,32.081
461.00,32.151
462.00,32.266
463.00,32.397
464.00,32.531
465.00,32.626
466.00,32.786
467.00,32.842
468.00,32.945
469.00,33.045
470.00,33.063
471.00,33.215
472.00,33.364
473.00,33.385
474.00,33.537
475.00,33.651
476.00,33.695
477.00,33.836
478.00,33.978
479.00,34.126
480.00,34.276
481.00,34.393
482.00,34.519
483.00,34.649
484.00,34.811
485.00,34.939
486.00,35.087
487.00,35.231
488.00,35.386
489.00,35.539
490.00,35.596
491.00,35.677
492.00,35.788
493.00,35.996
494.00,36.102
495.00,36.145
496.00,36.270
497.00,36.393
498.00,36.466
499.00,36.622
500.00,36.754
501.00,36.814
502.00,36.899
503.00,37.064
504.00,37.128
505.00,37.239
506.00,37.310
507.00,37.485
508.00,37.535
509.00,37.685
510.00,37.834
511.00,37.859
512.00,37.993
513.00,38.137
514.00,38.254
515.00,38.393
516.00,38.417
517.00,38.460
518.00,38.649
519.00,38.690
520.00,38.657
521.00,38.796
522.00,38.913
523.00,38.912
524.00,38.964
525.00,39.061
526.00,39.166
527.00,39.216
528.00,39.230
529.00,39.372
530.00,39.501
531.00,39.619
532.00,39.693
533.00,39.807
534.00,39.864
535.00,39.924
536.00,40.028
537.00,40.085
538.00,40.160
539.00,40.169
540.00,40.237
541.00,40.298
542.00,40.310
543.00,40.377
544.00,40.460
545.00,40.452
546.00,40.496
547.00,40.653
548.00,40.746
549.00,40.693
550.00,40.824
551.00,40.954
552.00,40.991
553.00,40.913
554.00,41.018
555.00,41.029
556.00,41.103
557.00,41.143
558.00,41.201
559.00,41.313
560.00,41.331
561.00,41.379
562.00,41.497
563.00,41.491
564.00,41.521
565.00,41.486
566.00,41.542
567.00,41.525
568.00,41.605
569.00,41.679
570.00,41.665
571.00,41.721
572.00,41.707
573.00,41.698
574.00,41.762
575.00,41.778
576.00,41.768
577.00,41.755
578.00,41.886
579.00,41.960
580.00,41.910
581.00,42.132
582.00,42.287
583.00,42.201
584.00,42.266
585.00,42.301
586.00,42.336
587.00,42.442
588.00,42.401
589.00,42.390
590.00,42.592
591.00,42.520
592.00,42.496
593.00,42.498
594.00,42.640
595.00,42.651
596.00,42.696
597.00,42.893
598.00,42.806
599.00,42.770
600.00,42.820
601.00,42.882
602.00,42.912
603.00,42.950
604.00,42.892
605.00,42.922
606.00,43.035
607.00,42.995
608.00,43.024
609.00,43.074
610.00,43.252
611.00,43.110
612.00,43.159
613.00,43.249
614.00,43.225
615.00,43.300
616.00,43.382
617.00,43.394
618.00,43.317
619.00,43.436
620.00,43.481
621.00,43.536
622.00,43.581
623.00,43.602
624.00,43.701
625.00,43.771
626.00,43.786
627.00,43.846
628.00,43.809
629.00,43.850
630.00,43.903
631.00,43.902
632.00,43.971
633.00,44.095
634.00,44.166
635.00,44.287
636.00,44.275
637.00,44.289
638.00,44.281
639.00,44.453
640.00,44.400
641.00,44.419
642.00,44.534
643.00,44.562
644.00,44.667
645.00,44.678
646.00,44.762
647.00,44.729
648.00,44.856
649.00,44.855
650.00,44.856
651.00,45.045
652.00,45.124
653.00,45.083
654.00,45.062
655.00,45.210
656.00,45.432
657.00,45.246
658.00,45.365
659.00,45.346
660.00,45.538
661.00,45.555
662.00,45.573
663.00,45.630
664.00,45.982
665.00,46.031
666.00,45.927
667.00,45.979
668.00,45.978
669.00,46.108
670.00,46.394
671.00,46.402
672.00,46.363
673.00,46.410
674.00,46.399
675.00,46.486
676.00,46.615
677.00,46.838
678.00,46.600
679.00,46.768
680.00,46.930
681.00,47.072
682.00,46.996
683.00,46.966
684.00,47.130
685.00,47.225
686.00,47.065
687.00,47.060
688.00,47.225
689.00,47.218
690.00,47.436
691.00,47.608
692.00,47.579
693.00,47.395
694.00,47.465
695.00,47.719
696.00,47.651
697.00,47.668
698.00,47.684
699.00,47.997
700.00,48.019
701.00,47.868
702.00,48.000
703.00,48.188
704.00,48.142
705.00,48.041
706.00,48.244
707.00,48.163
708.00,48.033
709.00,48.351
710.00,48.718
711.00,48.289
712.00,48.401
713.00,48.545
714.00,48.590
715.00,48.622
716.00,48.482
717.00,48.552
718.00,48.656
719.00,48.635
720.00,48.840
721.00,53.317
722.00,53.262
723.00,53.246
724.00,53.224
725.00,53.259
726.00,53.193
727.00,53.257
728.00,53.265
729.00,53.361
730.00,53.282
731.00,53.217
732.00,53.211
733.00,53.263
734.00,53.240
735.00,53.321
736.00,53.228
737.00,53.288
738.00,53.338
739.00,53.308
740.00,53.275
741.00,53.268
742.00,53.291
743.00,53.233
744.00,53.220
745.00,53.226
746.00,53.228
747.00,53.229
748.00,53.155
749.00,53.170
750.00,53.082
751.00,53.154
752.00,53.093
753.00,53.067
754.00,53.065
755.00,53.053
756.00,53.055
757.00,53.022
758.00,53.106
759.00,52.963
760.00,53.031
761.00,53.003
762.00,52.944
763.00,52.999
764.00,52.903
765.00,53.058
766.00,52.929
767.00,52.976
768.00,53.006
769.00,52.952
770.00,53.024
771.00,52.930
772.00,52.995
773.00,52.924
774.00,52.984
775.00,52.912
776.00,52.876
777.00,52.918
778.00,52.826
779.00,52.909
780.00,52.825
781.00,52.846
782.00,52.785
783.00,52.777
784.00,52.797
785.00,52.726
786.00,52.704
787.00,52.694
788.00,52.625
789.00,52.687
790.00,52.582
791.00,52.713
792.00,52.564
793.00,52.554
794.00,52.539
795.00,52.521
796.00,52.570
797.00,52.510
798.00,52.571
799.00,52.443
800.00,52.438
801.00,52.402
802.00,52.364
803.00,52.288
804.00,52.233
805.00,52.317
806.00,52.247
807.00,52.244
808.00,52.273
809.00,52.271
810.00,52.164
811.00,52.104
812.00,52.231
813.00,52.090
814.00,52.120
815.00,52.065
816.00,52.058
817.00,52.070
818.00,51.988
819.00,52.012
820.00,51.994
821.00,51.958
822.00,51.865
823.00,51.850
824.00,51.962
825.00,51.735
826.00,51.844
827.00,51.705
828.00,51.839
829.00,51.713
830.00,51.773
831.00,54.044
832.00,54.025
833.00,53.996
834.00,53.990
835.00,53.921
836.00,53.996
837.00,53.968
838.00,53.918
839.00,53.867
840.00,53.823
841.00,53.846
842.00,53.784
843.00,53.778
844.00,53.784
845.00,53.705
846.00,53.718
847.00,53.679
848.00,53.519
849.00,53.590
850.00,53.577
851.00,53.522
852.00,53.562
853.00,53.447
854.00,53.437
855.00,53.395
856.00,53.404
857.00,53.364
858.00,53.332
859.00,53.316
860.00,53.298
861.00,53.304
862.00,53.253
863.00,53.243
864.00,53.352
865.00,53.249
866.00,53.175
867.00,53.167
868.00,53.127
869.00,53.166
870.00,53.152
871.00,53.125
872.00,53.105
873.00,53.145
874.00,53.050
875.00,53.076
876.00,53.104
877.00,53.039
878.00,53.027
879.00,53.083
880.00,52.958
881.00,52.949
882.00,52.991
883.00,52.911
884.00,52.922
885.00,52.894
886.00,52.900
887.00,52.865
888.00,52.821
889.00,52.798
890.00,52.784
891.00,52.724
892.00,52.714
893.00,52.710
894.00,52.702
895.00,52.666
896.00,52.643
897.00,52.635
898.00,52.593
899.00,52.572
900.00,52.557
901.00,52.568
902.00,52.570
903.00,52.545
904.00,52.510
905.00,52.520
906.00,52.496
907.00,52.395
908.00,52.407
909.00,52.400
910.00,52.354
911.00,52.384
912.00,52.345
913.00,52.316
914.00,52.285
915.00,52.249
916.00,52.300
917.00,52.196
918.00,52.217
919.00,52.226
920.00,52.161
921.00,52.146
922.00,52.151
923.00,52.133
924.00,52.099
925.00,52.097
926.00,52.077
927.00,52.054
928.00,52.044
929.00,52.029
930.00,51.987
931.00,51.986
932.00,51.942
933.00,51.917
934.00,51.914
935.00,51.902
936.00,51.870
937.00,51.851
938.00,51.830
939.00,51.834
940.00,51.793
941.00,51.781
942.00,51.759
943.00,51.735
944.00,51.694
945.00,51.705
946.00,51.702
947.00,51.643
948.00,51.644
949.00,51.636
950.00,51.605
951.00,51.572
952.00,51.546
953.00,51.523
954.00,51.493
955.00,51.454
956.00,51.446
957.00,51.415
958.00,51.414
959.00,51.377
960.00,51.369
961.00,51.361
962.00,51.368
963.00,51.308
964.00,51.315
965.00,51.304
966.00,51.273
967.00,51.285
968.00,51.265
969.00,51.277
970.00,51.262
971.00,51.289
972.00,51.223
973.00,51.272
974.00,51.286
975.00,51.249
976.00,51.248
977.00,51.242
978.00,51.269
979.00,51.193
980.00,51.244
981.00,51.259
982.00,51.223
983.00,51.235
984.00,51.230
985.00,51.230
986.00,51.191
987.00,51.207
988.00,51.174
989.00,51.167
990.00,51.173
991.00,51.147
992.00,51.169
993.00,51.137
994.00,51.112
995.00,51.110
996.00,51.089
997.00,51.083
998.00,51.040
999.00,51.052
1000.00,51.026
1001.00,51.021
1002.00,51.000
1003.00,51.009
1004.00,50.983
1005.00,50.943
1006.00,50.986
1007.00,50.955
1008.00,50.940
1009.00,50.911
1010.00,50.917
1011.00,50.916
1012.00,50.876
1013.00,50.874
1014.00,50.852
1015.00,50.867
1016.00,50.829
1017.00,50.832
1018.00,50.815
1019.00,50.780
1020.00,50.791
1021.00,50.771
1022.00,50.762
1023.00,50.711
1024.00,50.709
1025.00,50.692
1026.00,50.681
1027.00,50.645
1028.00,50.670
1029.00,50.645
1030.00,50.606
1031.00,50.621
1032.00,50.587
1033.00,50.584
1034.00,50.557
1035.00,50.521
1036.00,50.497
1037.00,50.482
1038.00,50.468
1039.00,50.447
1040.00,50.442
1041.00,50.398
1042.00,50.399
1043.00,50.367
1044.00,50.414
1045.00,50.404
1046.00,50.381
1047.00,50.413
1048.00,50.442
1049.00,50.438
1050.00,50.452
1051.00,50.506
1052.00,50.458
1053.00,50.454
1054.00,50.439
1055.00,50.469
1056.00,50.483
1057.00,50.479
1058.00,50.475
1059.00,50.465
1060.00,50.470
1061.00,50.462
1062.00,50.433
1063.00,50.444
1064.00,50.446
1065.00,50.424
1066.00,50.420
1067.00,50.425
1068.00,50.450
1069.00,50.425
1070.00,50.420
1071.00,50.405
1072.00,50.406
1073.00,50.362
1074.00,50.377
1075.00,50.357
1076.00,50.350
1077.00,50.341
1078.00,50.321
1079.00,50.331
1080.00,50.340
1081.00,50.325
1082.00,50.316
1083.00,50.306
1084.00,50.309
1085.00,50.301
1086.00,50.294
1087.00,50.305
1088.00,50.273
1089.00,50.261
1090.00,50.245
1091.00,50.270
1092.00,50.261
1093.00,50.241
1094.00,50.227
1095.00,50.210
1096.00,50.203
1097.00,50.190
1098.00,50.172
1099.00,50.171
1100.00,50.154
1101.00,50.139
1102.00,50.138
1103.00,50.142
1104.00,50.127
1105.00,50.133
1106.00,50.111
1107.00,50.105
1108.00,50.096
1109.00,50.080
1110.00,50.089
1111.00,50.077
1112.00,50.060
1113.00,50.069
1114.00,50.055
1115.00,50.058
1116.00,50.051
1117.00,50.023
1118.00,50.007
1119.00,50.013
1120.00,49.996
1121.00,50.009
1122.00,49.999
1123.00,49.981
1124.00,49.993
1125.00,49.988
1126.00,49.973
1127.00,49.979
1128.00,49.953
1129.00,49.952
1130.00,49.945
1131.00,49.938
1132.00,49.951
1133.00,49.911
1134.00,49.884
1135.00,49.915
1136.00,49.922
1137.00,49.918
1138.00,49.917
1139.00,49.908
1140.00,49.914
1141.00,49.898
1142.00,49.874
1143.00,49.898
1144.00,49.875
1145.00,49.865
1146.00,49.889
1147.00,49.897
1148.00,49.890
1149.00,49.881
1150.00,49.882
1151.00,49.879
1152.00,49.858
1153.00,49.852
1154.00,49.853
1155.00,49.855
1156.00,49.839
1157.00,49.857
1158.00,49.850
1159.00,49.845
1160.00,49.847
1161.00,49.851
1162.00,49.852
1163.00,49.847
1164.00,49.842
1165.00,49.853
1166.00,49.852
1167.00,49.821
1168.00,49.847
1169.00,49.839
1170.00,49.826
1171.00,49.829
1172.00,49.820
1173.00,49.818
1174.00,49.822
1175.00,49.809
1176.00,49.829
1177.00,49.817
1178.00,49.823
1179.00,49.854
1180.00,49.839
1181.00,49.838
1182.00,49.844
1183.00,49.827
1184.00,49.817
1185.00,49.831
1186.00,49.805
1187.00,49.820
1188.00,49.819
1189.00,49.825
1190.00,49.830
1191.00,49.821
1192.00,49.842
1193.00,49.842
1194.00,49.843
1195.00,49.808
1196.00,49.838
1197.00,49.830
1198.00,49.811
1199.00,49.813
1200.00,49.808
1201.00,49.833
1202.00,49.826
1203.00,49.822
1204.00,49.837
1205.00,49.820
1206.00,49.822
1207.00,49.858
1208.00,49.814
1209.00,49.836
1210.00,49.844
1211.00,49.824
1212.00,49.853
1213.00,49.817
1214.00,49.832
1215.00,49.818
1216.00,49.815
1217.00,49.825
1218.00,49.813
1219.00,49.820
1220.00,49.833
1221.00,49.870
1222.00,49.831
1223.00,49.866
1224.00,49.859
1225.00,49.825
1226.00,49.839
1227.00,49.836
1228.00,49.847
1229.00,49.856
1230.00,49.891
1231.00,49.869
1232.00,49.886
1233.00,49.885
1234.00,49.915
1235.00,49.910
1236.00,49.910
1237.00,49.926
1238.00,49.910
1239.00,49.914
1240.00,49.899
1241.00,49.910
1242.00,49.905
1243.00,49.925
1244.00,49.899
1245.00,49.931
1246.00,49.946
1247.00,49.932
1248.00,49.941
1249.00,49.939
1250.00,49.953
1251.00,49.945
1252.00,49.925
1253.00,49.958
1254.00,50.006
1255.00,49.945
1256.00,49.950
1257.00,49.944
1258.00,49.997
1259.00,49.978
1260.00,49.993
1261.00,49.996
1262.00,49.987
1263.00,49.984
1264.00,50.005
1265.00,50.023
1266.00,50.005
1267.00,50.030
1268.00,50.033
1269.00,50.029
1270.00,50.052
1271.00,50.037
1272.00,50.049
1273.00,50.056
1274.00,50.046
1275.00,50.060
1276.00,50.069
1277.00,50.073
1278.00,50.095
1279.00,50.091
1280.00,50.076
1281.00,50.100
1282.00,50.097
1283.00,50.097
1284.00,50.108
1285.00,50.102
1286.00,50.140
1287.00,50.135
1288.00,50.133
1289.00,50.133
1290.00,50.174
1291.00,50.167
1292.00,50.174
1293.00,50.167
1294.00,50.180
1295.00,50.198
1296.00,50.182
1297.00,50.222
1298.00,50.230
1299.00,50.197
1300.00,50.246
1301.00,50.226
1302.00,50.237
1303.00,50.244
1304.00,50.223
1305.00,50.251
1306.00,50.256
1307.00,50.261
1308.00,50.282
1309.00,50.275
1310.00,50.262
1311.00,50.277
1312.00,50.278
1313.00,50.291
1314.00,50.329
1315.00,50.335
1316.00,50.350
1317.00,50.358
1318.00,50.353
1319.00,50.360
1320.00,50.356
1321.00,50.526
1322.00,50.532
1323.00,50.518
1324.00,50.502
1325.00,50.506
1326.00,50.528
1327.00,50.514
1328.00,50.522
1329.00,50.524
1330.00,50.524
1331.00,50.532
1332.00,50.521
1333.00,50.555
1334.00,50.596
1335.00,50.587
1336.00,50.633
1337.00,50.667
1338.00,50.706
1339.00,50.772
1340.00,50.810
1341.00,50.883
1342.00,50.924
1343.00,50.962
1344.00,51.023
1345.00,51.090
1346.00,51.099
1347.00,51.134
1348.00,51.152
1349.00,51.176
1350.00,51.213
1351.00,51.215
1352.00,51.237
1353.00,51.315
1354.00,51.235
1355.00,51.230
1356.00,51.261
1357.00,51.278
1358.00,51.276
1359.00,51.388
1360.00,51.680
1361.00,51.301
1362.00,51.334
1363.00,51.262
1364.00,51.310
1365.00,51.312
1366.00,51.378
1367.00,51.292
1368.00,51.351
1369.00,51.338
1370.00,51.319
1371.00,51.233
1372.00,51.294
1373.00,51.306
1374.00,51.319
1375.00,51.311
1376.00,51.289
1377.00,51.286
1378.00,51.422
1379.00,51.348
1380.00,51.334
1381.00,51.383
1382.00,51.307
1383.00,51.357
1384.00,51.292
1385.00,51.303
1386.00,51.314
1387.00,51.317
1388.00,51.309
1389.00,51.322
1390.00,51.250
1391.00,51.319
1392.00,51.309
1393.00,51.315
1394.00,51.314
1395.00,51.308
1396.00,51.272
1397.00,51.408
1398.00,51.279
1399.00,51.342
1400.00,51.039
1401.00,51.290
1402.00,51.332
1403.00,51.352
1404.00,51.357
1405.00,51.358
1406.00,51.395
1407.00,51.374
1408.00,51.377
1409.00,51.380
1410.00,51.407
1411.00,51.395
1412.00,51.428
1413.00,51.424
1414.00,51.382
1415.00,51.407
1416.00,51.462
1417.00,51.476
1418.00,51.451
1419.00,51.471
1420.00,51.476
1421.00,51.547
1422.00,51.513
1423.00,51.532
1424.00,51.555
1425.00,51.569
1426.00,51.556
1427.00,51.597
1428.00,51.598
1429.00,51.610
1430.00,51.627
1431.00,51.656
1432.00,51.681
1433.00,51.696
1434.00,51.694
1435.00,51.772
1436.00,51.754
1437.00,51.735
1438.00,51.774
1439.00,51.806
1440.00,51.796
1441.00,51.814
1442.00,51.820
1443.00,51.858
1444.00,51.934
1445.00,51.867
1446.00,51.907
1447.00,51.954
1448.00,51.981
1449.00,52.003
1450.00,51.988
1451.00,51.994
1452.00,52.030
1453.00,52.018
1454.00,52.052
1455.00,52.075
1456.00,52.089
1457.00,52.098
1458.00,52.123
1459.00,52.129
1460.00,52.163
1461.00,52.151
1462.00,52.176
1463.00,52.200
1464.00,52.195
1465.00,52.249
1466.00,52.231
1467.00,52.251
1468.00,52.330
1469.00,52.281
1470.00,52.292
1471.00,52.318
1472.00,52.324
1473.00,52.336
1474.00,52.358
1475.00,52.384
1476.00,52.423
1477.00,52.390
1478.00,52.406
1479.00,52.470
1480.00,52.475
1481.00,52.462
1482.00,52.500
1483.00,52.523
1484.00,52.522
1485.00,52.532
1486.00,52.536
1487.00,52.577
1488.00,52.589
1489.00,52.569
1490.00,52.621
1491.00,52.633
1492.00,52.651
1493.00,52.662
1494.00,52.678
1495.00,52.666
1496.00,52.701
1497.00,52.676
1498.00,52.712
1499.00,52.715
1500.00,52.720
1501.00, 
1502.00, 
1503.00, 
1504.00, 
1505.00, 
1506.00, 
1507.00, 
1508.00, 
1509.00, 
1510.00, 
1511.00, 
1512.00, 
1513.00, 
1514.00, 
1515.00, 
1516.00, 
1517.00, 
1518.00, 
1519.00, 
1520.00, 
1521.00, 
1522.00, 
1523.00, 
1524.00, 
1525.00, 
1526.00, 
1527.00, 
1528.00, 
1529.00, 
1530.00, 
1531.00, 
1532.00, 
1533.00, 
1534.00, 
1535.00, 
1536.00, 
1537.00, 
1538.00, 
1539.00, 
1540.00, 
1541.00, 
1542.00, 
1543.00, 
1544.00, 
1545.00, 
1546.00, 
1547.00, 
1548.00, 
1549.00, 
1550.00, 
1551.00, 
1552.00, 
1553.00, 
1554.00, 
1555.00, 
1556.00, 
1557.00, 
1558.00, 
1559.00, 
1560.00, 
1561.00, 
1562.00, 
1563.00, 
1564.00, 
1565.00, 
1566.00, 
1567.00, 
1568.00, 
1569.00, 
1570.00, 
1571.00, 
1572.00, 
1573.00, 
1574.00, 
1575.00, 
1576.00, 
1577.00, 
1578.00, 
1579.00, 
1580.00, 
1581.00, 
1582.00, 
1583.00, 
1584.00, 
1585.00, 
1586.00, 
1587.00, 
1588.00, 
1589.00, 
1590.00, 
1591.00, 
1592.00, 
1593.00, 
1594.00, 
1595.00, 
1596.00, 
1597.00, 
1598.00, 
1599.00, 
1600.00, 
1601.00, 
1602.00, 
1603.00, 
1604.00, 
1605.00, 
1606.00, 
1607.00, 
1608.00, 
1609.00, 
1610.00, 
1611.00, 
1612.00, 
1613.00, 
1614.00, 
1615.00, 
1616.00, 
1617.00, 
1618.00, 
1619.00, 
1620.00, 
1621.00, 
1622.00, 
1623.00, 
1624.00, 
1625.00, 
1626.00, 
1627.00, 
1628.00, 
1629.00, 
1630.00, 
1631.00, 
1632.00, 
1633.00, 
1634.00, 
1635.00, 
1636.00, 
1637.00, 
1638.00, 
1639.00, 
1640.00, 
1641.00, 
1642.00, 
1643.00, 
1644.00, 
1645.00, 
1646.00, 
1647.00, 
1648.00, 
1649.00, 
1650.00, 
1651.00, 
1652.00, 
1653.00, 
1654.00, 
1655.00, 
1656.00, 
1657.00, 
1658.00, 
1659.00, 
1660.00, 
1661.00, 
1662.00, 
1663.00, 
1664.00, 
1665.00, 
1666.00, 
1667.00, 
1668.00, 
1669.00, 
1670.00, 
1671.00, 
1672.00, 
1673.00, 
1674.00, 
1675.00, 
1676.00, 
1677.00, 
1678.00, 
1679.00, 
1680.00, 
1681.00, 
1682.00, 
1683.00, 
1684.00, 
1685.00, 
1686.00, 
1687.00, 
1688.00, 
1689.00, 
1690.00, 
1691.00, 
1692.00, 
1693.00, 
1694.00, 
1695.00, 
1696.00, 
1697.00, 
1698.00, 
1699.00, 
1700.00, 
1701.00, 
1702.00, 
1703.00, 
1704.00, 
1705.00, 
1706.00, 
1707.00, 
1708.00, 
1709.00, 
1710.00, 
1711.00, 
1712.00, 
1713.00, 
1714.00, 
1715.00, 
1716.00, 
1717.00, 
1718.00, 
1719.00, 
1720.00, 
1721.00, 
1722.00, 
1723.00, 
1724.00, 
1725.00, 
1726.00, 
1727.00, 
1728.00, 
1729.00, 
1730.00, 
1731.00, 
1732.00, 
1733.00, 
1734.00, 
1735.00, 
1736.00, 
1737.00, 
1738.00, 
1739.00, 
1740.00, 
1741.00, 
1742.00, 
1743.00, 
1744.00, 
1745.00, 
1746.00, 
1747.00, 
1748.00, 
1749.00, 
1750.00, 
1751.00, 
1752.00, 
1753.00, 
1754.00, 
1755.00, 
1756.00, 
1757.00, 
1758.00, 
1759.00, 
1760.00, 
1761.00, 
1762.00, 
1763.00, 
1764.00, 
1765.00, 
1766.00, 
1767.00, 
1768.00, 
1769.00, 
1770.00, 
1771.00, 
1772.00, 
1773.00, 
1774.00, 
1775.00, 
1776.00, 
1777.00, 
1778.00, 
1779.00, 
1780.00, 
1781.00, 
1782.00, 
1783.00, 
1784.00, 
1785.00, 
1786.00, 
1787.00, 
1788.00, 
1789.00, 
1790.00, 
1791.00, 
1792.00, 
1793.00, 
1794.00, 
1795.00, 
1796.00, 
1797.00, 
1798.00, 
1799.00, 
1800.00, 
1801.00, 
1802.00, 
1803.00, 
1804.00, 
1805.00, 
1806.00, 
1807.00, 
1808.00, 
1809.00, 
1810.00, 
1811.00, 
1812.00, 
1813.00, 
1814.00, 
1815.00, 
1816.00, 
1817.00, 
1818.00, 
1819.00, 
1820.00, 
1821.00, 
1822.00, 
1823.00, 
1824.00, 
1825.00, 
1826.00, 
1827.00, 
1828.00, 
1829.00, 
1830.00, 
1831.00, 
1832.00, 
1833.00, 
1834.00, 
1835.00, 
1836.00, 
1837.00, 
1838.00, 
1839.00, 
1840.00, 
1841.00, 
1842.00, 
1843.00, 
1844.00, 
1845.00, 
1846.00, 
1847.00, 
1848.00, 
1849.00, 
1850.00, 
1851.00, 
1852.00, 
1853.00, 
1854.00, 
1855.00, 
1856.00, 
1857.00, 
1858.00, 
1859.00, 
1860.00, 
1861.00, 
1862.00, 
1863.00, 
1864.00, 
1865.00, 
1866.00, 
1867.00, 
1868.00, 
1869.00, 
1870.00, 
1871.00, 
1872.00, 
1873.00, 
1874.00, 
1875.00, 
1876.00, 
1877.00, 
1878.00, 
1879.00, 
1880.00, 
1881.00, 
1882.00, 
1883.00, 
1884.00, 
1885.00, 
1886.00, 
1887.00, 
1888.00, 
1889.00, 
1890.00, 
1891.00, 
1892.00, 
1893.00, 
1894.00, 
1895.00, 
1896.00, 
1897.00, 
1898.00, 
1899.00, 
1900.00, 
1901.00, 
1902.00, 
1903.00, 
1904.00, 
1905.00, 
1906.00, 
1907.00, 
1908.00, 
1909.00, 
1910.00, 
1911.00, 
1912.00, 
1913.00, 
1914.00, 
1915.00, 
1916.00, 
1917.00, 
1918.00, 
1919.00, 
1920.00, 
1921.00, 
1922.00, 
1923.00, 
1924.00, 
1925.00, 
1926.00, 
1927.00, 
1928.00, 
1929.00, 
1930.00, 
1931.00, 
1932.00, 
1933.00, 
1934.00, 
1935.00, 
1936.00, 
1937.00, 
1938.00, 
1939.00, 
1940.00, 
1941.00, 
1942.00, 
1943.00, 
1944.00, 
1945.00, 
1946.00, 
1947.00, 
1948.00, 
1949.00, 
1950.00, 
1951.00, 
1952.00, 
1953.00, 
1954.00, 
1955.00, 
1956.00, 
1957.00, 
1958.00, 
1959.00, 
1960.00, 
1961.00, 
1962.00, 
1963.00, 
1964.00, 
1965.00, 
1966.00, 
1967.00, 
1968.00, 
1969.00, 
1970.00, 
1971.00, 
1972.00, 
1973.00, 
1974.00, 
1975.00, 
1976.00, 
1977.00, 
1978.00, 
1979.00, 
1980.00, 
1981.00, 
1982.00, 
1983.00, 
1984.00, 
1985.00, 
1986.00, 
1987.00, 
1988.00, 
1989.00, 
1990.00, 
1991.00, 
1992.00, 
1993.00, 
1994.00, 
1995.00, 
1996.00, 
1997.00, 
1998.00, 
1999.00, 
2000.00, 
2001.00, 
2002.00, 
2003.00, 
2004.00, 
2005.00, 
2006.00, 
2007.00, 
2008.00, 
2009.00, 
2010.00, 
2011.00, 
2012.00, 
2013.00, 
2014.00, 
2015.00, 
2016.00, 
2017.00, 
2018.00, 
2019.00, 
2020.00, 
2021.00, 
2022.00, 
2023.00, 
2024.00, 
2025.00, 
2026.00, 
2027.00, 
2028.00, 
2029.00, 
2030.00, 
2031.00, 
2032.00, 
2033.00, 
2034.00, 
2035.00, 
2036.00, 
2037.00, 
2038.00, 
2039.00, 
2040.00, 
2041.00, 
2042.00, 
2043.00, 
2044.00, 
2045.00, 
2046.00, 
2047.00, 
2048.00, 
2049.00, 
2050.00, 
2051.00, 
2052.00, 
2053.00, 
2054.00, 
2055.00, 
2056.00, 
2057.00, 
2058.00, 
2059.00, 
2060.00, 
2061.00, 
2062.00, 
2063.00, 
2064.00, 
2065.00, 
2066.00, 
2067.00, 
2068.00, 
2069.00, 
2070.00, 
2071.00, 
2072.00, 
2073.00, 
2074.00, 
2075.00, 
2076.00, 
2077.00, 
2078.00, 
2079.00, 
2080.00, 
2081.00, 
2082.00, 
2083.00, 
2084.00, 
2085.00, 
2086.00, 
2087.00, 
2088.00, 
2089.00, 
2090.00, 
2091.00, 
2092.00, 
2093.00, 
2094.00, 
2095.00, 
2096.00, 
2097.00, 
2098.00, 
2099.00, 
2100.00, 
2101.00, 
2102.00, 
2103.00, 
2104.00, 
2105.00, 
2106.00, 
2107.00, 
2108.00, 
2109.00, 
2110.00, 
2111.00, 
2112.00, 
2113.00, 
2114.00, 
2115.00, 
2116.00, 
2117.00, 
2118.00, 
2119.00, 
2120.00, 
2121.00, 
2122.00, 
2123.00, 
2124.00, 
2125.00, 
2126.00, 
2127.00, 
2128.00, 
2129.00, 
2130.00, 
2131.00, 
2132.00, 
2133.00, 
2134.00, 
2135.00, 
2136.00, 
2137.00, 
2138.00, 
2139.00, 
2140.00, 
2141.00, 
2142.00, 
2143.00, 
2144.00, 
2145.00, 
2146.00, 
2147.00, 
2148.00, 
2149.00, 
2150.00, 
2151.00, 
2152.00, 
2153.00, 
2154.00, 
2155.00, 
2156.00, 
2157.00, 
2158.00, 
2159.00, 
2160.00, 
2161.00, 
2162.00, 
2163.00, 
2164.00, 
2165.00, 
2166.00, 
2167.00, 
2168.00, 
2169.00, 
2170.00, 
2171.00, 
2172.00, 
2173.00, 
2174.00, 
2175.00, 
2176.00, 
2177.00, 
2178.00, 
2179.00, 
2180.00, 
2181.00, 
2182.00, 
2183.00, 
2184.00, 
2185.00, 
2186.00, 
2187.00, 
2188.00, 
2189.00, 
2190.00, 
2191.00, 
2192.00, 
2193.00, 
2194.00, 
2195.00, 
2196.00, 
2197.00, 
2198.00, 
2199.00, 
2200.00, 
2201.00, 
2202.00, 
2203.00, 
2204.00, 
2205.00, 
2206.00, 
2207.00, 
2208.00, 
2209.00, 
2210.00, 
2211.00, 
2212.00, 
2213.00, 
2214.00, 
2215.00, 
2216.00, 
2217.00, 
2218.00, 
2219.00, 
2220.00, 
2221.00, 
2222.00, 
2223.00, 
2224.00, 
2225.00, 
2226.00, 
2227.00, 
2228.00, 
2229.00, 
2230.00, 
2231.00, 
2232.00, 
2233.00, 
2234.00, 
2235.00, 
2236.00, 
2237.00, 
2238.00, 
2239.00, 
2240.00, 
2241.00, 
2242.00, 
2243.00, 
2244.00, 
2245.00, 
2246.00, 
2247.00, 
2248.00, 
2249.00, 
2250.00, 
2251.00, 
2252.00, 
2253.00, 
2254.00, 
2255.00, 
2256.00, 
2257.00, 
2258.00, 
2259.00, 
2260.00, 
2261.00, 
2262.00, 
2263.00, 
2264.00, 
2265.00, 
2266.00, 
2267.00, 
2268.00, 
2269.00, 
2270.00, 
2271.00, 
2272.00, 
2273.00, 
2274.00, 
2275.00, 
2276.00, 
2277.00, 
2278.00, 
2279.00, 
2280.00, 
2281.00, 
2282.00, 
2283.00, 
2284.00, 
2285.00, 
2286.00, 
2287.00, 
2288.00, 
2289.00, 
2290.00, 
2291.00, 
2292.00, 
2293.00, 
2294.00, 
2295.00, 
2296.00, 
2297.00, 
2298.00, 
2299.00, 
2300.00, 
2301.00, 
2302.00, 
2303.00, 
2304.00, 
2305.00, 
2306.00, 
2307.00, 
2308.00, 
2309.00, 
2310.00, 
2311.00, 
2312.00, 
2313.00, 
2314.00, 
2315.00, 
2316.00, 
2317.00, 
2318.00, 
2319.00, 
2320.00, 
2321.00, 
2322.00, 
2323.00, 
2324.00, 
2325.00, 
2326.00, 
2327.00, 
2328.00, 
2329.00, 
2330.00, 
2331.00, 
2332.00, 
2333.00, 
2334.00, 
2335.00, 
2336.00, 
2337.00, 
2338.00, 
2339.00, 
2340.00, 
2341.00, 
2342.00, 
2343.00, 
2344.00, 
2345.00, 
2346.00, 
2347.00, 
2348.00, 
2349.00, 
2350.00, 
2351.00, 
2352.00, 
2353.00, 
2354.00, 
2355.00, 
2356.00, 
2357.00, 
2358.00, 
2359.00, 
2360.00, 
2361.00, 
2362.00, 
2363.00, 
2364.00, 
2365.00, 
2366.00, 
2367.00, 
2368.00, 
2369.00, 
2370.00, 
2371.00, 
2372.00, 
2373.00, 
2374.00, 
2375.00, 
2376.00, 
2377.00, 
2378.00, 
2379.00, 
2380.00, 
2381.00, 
2382.00, 
2383.00, 
2384.00, 
2385.00, 
2386.00, 
2387.00, 
2388.00, 
2389.00, 
2390.00, 
2391.00, 
2392.00, 
2393.00, 
2394.00, 
2395.00, 
2396.00, 
2397.00, 
2398.00, 
2399.00, 
2400.00, 
2401.00, 
2402.00, 
2403.00, 
2404.00, 
2405.00, 
2406.00, 
2407.00, 
2408.00, 
2409.00, 
2410.00, 
2411.00, 
2412.00, 
2413.00, 
2414.00, 
2415.00, 
2416.00, 
2417.00, 
2418.00, 
2419.00, 
2420.00, 
2421.00, 
2422.00, 
2423.00, 
2424.00, 
2425.00, 
2426.00, 
2427.00, 
2428.00, 
2429.00, 
2430.00, 
2431.00, 
2432.00, 
2433.00, 
2434.00, 
2435.00, 
2436.00, 
2437.00, 
2438.00, 
2439.00, 
2440.00, 
2441.00, 
2442.00, 
2443.00, 
2444.00, 
2445.00, 
2446.00, 
2447.00, 
2448.00, 
2449.00, 
2450.00, 
2451.00, 
2452.00, 
2453.00, 
2454.00, 
2455.00, 
2456.00, 
2457.00, 
2458.00, 
2459.00, 
2460.00, 
2461.00, 
2462.00, 
2463.00, 
2464.00, 
2465.00, 
2466.00, 
2467.00, 
2468.00, 
2469.00, 
2470.00, 
2471.00, 
2472.00, 
2473.00, 
2474.00, 
2475.00, 
2476.00, 
2477.00, 
2478.00, 
2479.00, 
2480.00, 
2481.00, 
2482.00, 
2483.00, 
2484.00, 
2485.00, 
2486.00, 
2487.00, 
2488.00, 
2489.00, 
2490.00, 
2491.00, 
2492.00, 
2493.00, 
2494.00, 
2495.00, 
2496.00, 
2497.00, 
2498.00, 
2499.00, 
2500.00, 
2501.00, 
2502.00, 
2503.00, 
2504.00, 
2505.00, 
2506.00, 
2507.00, 
2508.00, 
2509.00, 
2510.00, 
2511.00, 
2512.00, 
2513.00, 
2514.00, 
2515.00, 
2516.00, 
2517.00, 
2518.00, 
2519.00, 
2520.00, 
2521.00, 
2522.00, 
2523.00, 
2524.00, 
2525.00, 
2526.00, 
2527.00, 
2528.00, 
2529.00, 
2530.00, 
2531.00, 
2532.00, 
2533.00, 
2534.00, 
2535.00, 
2536.00, 
2537.00, 
2538.00, 
2539.00, 
2540.00, 
2541.00, 
2542.00, 
2543.00, 
2544.00, 
2545.00, 
2546.00, 
2547.00, 
2548.00, 
2549.00, 
2550.00, 
2551.00, 
2552.00, 
2553.00, 
2554.00, 
2555.00, 
2556.00, 
2557.00, 
2558.00, 
2559.00, 
2560.00, 
2561.00, 
2562.00, 
2563.00, 
2564.00, 
2565.00, 
2566.00, 
2567.00, 
2568.00, 
2569.00, 
2570.00, 
2571.00, 
2572.00, 
2573.00, 
2574.00, 
2575.00, 
2576.00, 
2577.00, 
2578.00, 
2579.00, 
2580.00, 
2581.00, 
2582.00, 
2583.00, 
2584.00, 
2585.00, 
2586.00, 
2587.00, 
2588.00, 
2589.00, 
2590.00, 
2591.00, 
2592.00, 
2593.00, 
2594.00, 
2595.00, 
2596.00, 
2597.00, 
2598.00, 
2599.00, 
2600.00, 
