"2aP2 - RawData"
"Wavelength nm.","T%"
200.00,0.002
201.00,0.002
202.00,0.001
203.00,-0.000
204.00,0.003
205.00,0.000
206.00,0.000
207.00,0.001
208.00,-0.000
209.00,-0.001
210.00,0.000
211.00,0.001
212.00,0.003
213.00,0.004
214.00,0.002
215.00,0.001
216.00,0.001
217.00,0.002
218.00,0.002
219.00,0.003
220.00,0.001
221.00,0.003
222.00,0.002
223.00,0.005
224.00,0.001
225.00,0.004
226.00,0.002
227.00,0.001
228.00,0.003
229.00,0.001
230.00,0.003
231.00,0.003
232.00,-0.000
233.00,0.003
234.00,0.001
235.00,0.002
236.00,0.001
237.00,0.003
238.00,0.003
239.00,0.002
240.00,0.001
241.00,0.002
242.00,0.000
243.00,0.001
244.00,-0.000
245.00,0.000
246.00,0.002
247.00,0.003
248.00,0.001
249.00,0.002
250.00,0.001
251.00,0.000
252.00,-0.000
253.00,0.002
254.00,0.001
255.00,0.001
256.00,0.001
257.00,0.000
258.00,0.001
259.00,0.001
260.00,0.003
261.00,0.001
262.00,0.001
263.00,0.002
264.00,0.001
265.00,0.001
266.00,0.000
267.00,0.003
268.00,0.001
269.00,0.003
270.00,0.000
271.00,0.001
272.00,0.002
273.00,-0.001
274.00,-0.000
275.00,-0.000
276.00,0.001
277.00,0.000
278.00,-0.001
279.00,0.002
280.00,-0.002
281.00,0.001
282.00,0.002
283.00,-0.001
284.00,-0.002
285.00,-0.001
286.00,0.000
287.00,-0.000
288.00,0.002
289.00,0.002
290.00,0.001
291.00,-0.000
292.00,0.001
293.00,-0.002
294.00,0.001
295.00,-0.000
296.00,0.001
297.00,0.001
298.00,0.002
299.00,0.001
300.00,0.001
301.00,0.003
302.00,0.006
303.00,0.007
304.00,0.012
305.00,0.020
306.00,0.032
307.00,0.044
308.00,0.072
309.00,0.110
310.00,0.153
311.00,0.207
312.00,0.287
313.00,0.393
314.00,0.507
315.00,0.650
316.00,0.836
317.00,1.064
318.00,1.294
319.00,1.609
320.00,1.943
321.00,2.321
322.00,2.759
323.00,3.251
324.00,3.739
325.00,4.274
326.00,4.767
327.00,5.432
328.00,6.061
329.00,6.701
330.00,7.399
331.00,8.085
332.00,8.772
333.00,9.530
334.00,10.232
335.00,10.943
336.00,11.641
337.00,12.334
338.00,13.018
339.00,13.696
340.00,14.320
341.00,15.012
342.00,15.586
343.00,16.150
344.00,16.745
345.00,17.302
346.00,17.803
347.00,18.299
348.00,18.751
349.00,19.195
350.00,19.586
351.00,19.912
352.00,20.326
353.00,20.540
354.00,20.979
355.00,21.268
356.00,21.519
357.00,21.749
358.00,22.017
359.00,22.275
360.00,22.511
361.00,22.693
362.00,22.919
363.00,23.068
364.00,23.203
365.00,23.287
366.00,23.423
367.00,23.524
368.00,23.553
369.00,23.605
370.00,23.695
371.00,23.707
372.00,23.674
373.00,23.769
374.00,23.789
375.00,23.724
376.00,23.792
377.00,23.704
378.00,23.674
379.00,23.600
380.00,23.589
381.00,23.602
382.00,23.597
383.00,23.607
384.00,23.679
385.00,23.715
386.00,23.756
387.00,23.815
388.00,23.868
389.00,23.881
390.00,23.914
391.00,23.968
392.00,24.006
393.00,23.984
394.00,24.025
395.00,24.085
396.00,24.076
397.00,24.081
398.00,24.077
399.00,24.103
400.00,24.155
401.00,24.107
402.00,24.129
403.00,24.108
404.00,24.120
405.00,24.094
406.00,24.107
407.00,24.104
408.00,24.102
409.00,24.058
410.00,24.023
411.00,24.035
412.00,24.002
413.00,24.023
414.00,23.983
415.00,24.008
416.00,24.041
417.00,24.022
418.00,24.040
419.00,24.116
420.00,24.168
421.00,24.261
422.00,24.268
423.00,24.326
424.00,24.387
425.00,24.391
426.00,24.469
427.00,24.493
428.00,24.505
429.00,24.579
430.00,24.621
431.00,24.676
432.00,24.723
433.00,24.797
434.00,24.840
435.00,24.931
436.00,24.995
437.00,25.063
438.00,25.196
439.00,25.233
440.00,25.312
441.00,25.357
442.00,25.461
443.00,25.559
444.00,25.675
445.00,25.752
446.00,25.841
447.00,25.968
448.00,26.049
449.00,26.108
450.00,26.264
451.00,26.319
452.00,26.448
453.00,26.598
454.00,26.710
455.00,26.778
456.00,26.925
457.00,27.017
458.00,27.134
459.00,27.241
460.00,27.383
461.00,27.513
462.00,27.662
463.00,27.812
464.00,27.926
465.00,28.032
466.00,28.223
467.00,28.302
468.00,28.444
469.00,28.532
470.00,28.629
471.00,28.744
472.00,28.879
473.00,29.002
474.00,29.130
475.00,29.211
476.00,29.345
477.00,29.444
478.00,29.583
479.00,29.747
480.00,29.888
481.00,30.009
482.00,30.189
483.00,30.300
484.00,30.511
485.00,30.616
486.00,30.800
487.00,30.968
488.00,31.102
489.00,31.276
490.00,31.349
491.00,31.465
492.00,31.605
493.00,31.757
494.00,31.881
495.00,31.986
496.00,32.096
497.00,32.191
498.00,32.333
499.00,32.497
500.00,32.579
501.00,32.699
502.00,32.838
503.00,32.960
504.00,33.042
505.00,33.213
506.00,33.315
507.00,33.425
508.00,33.550
509.00,33.733
510.00,33.830
511.00,33.877
512.00,34.075
513.00,34.199
514.00,34.241
515.00,34.433
516.00,34.514
517.00,34.549
518.00,34.757
519.00,34.812
520.00,34.832
521.00,34.915
522.00,35.069
523.00,35.089
524.00,35.251
525.00,35.312
526.00,35.370
527.00,35.439
528.00,35.484
529.00,35.628
530.00,35.775
531.00,35.937
532.00,35.973
533.00,36.078
534.00,36.198
535.00,36.227
536.00,36.321
537.00,36.402
538.00,36.459
539.00,36.475
540.00,36.567
541.00,36.646
542.00,36.671
543.00,36.752
544.00,36.873
545.00,36.890
546.00,36.927
547.00,37.038
548.00,37.139
549.00,37.144
550.00,37.173
551.00,37.352
552.00,37.412
553.00,37.391
554.00,37.461
555.00,37.520
556.00,37.584
557.00,37.662
558.00,37.713
559.00,37.740
560.00,37.815
561.00,37.863
562.00,37.921
563.00,37.981
564.00,38.021
565.00,38.058
566.00,38.076
567.00,38.082
568.00,38.167
569.00,38.210
570.00,38.186
571.00,38.259
572.00,38.294
573.00,38.280
574.00,38.342
575.00,38.362
576.00,38.370
577.00,38.405
578.00,38.545
579.00,38.601
580.00,38.538
581.00,38.734
582.00,38.888
583.00,38.822
584.00,38.891
585.00,38.998
586.00,38.972
587.00,39.058
588.00,39.103
589.00,39.062
590.00,39.253
591.00,39.251
592.00,39.186
593.00,39.270
594.00,39.384
595.00,39.313
596.00,39.386
597.00,39.636
598.00,39.593
599.00,39.659
600.00,39.692
601.00,39.693
602.00,39.670
603.00,39.737
604.00,39.755
605.00,39.784
606.00,39.857
607.00,39.873
608.00,39.874
609.00,39.965
610.00,40.125
611.00,40.004
612.00,40.001
613.00,40.112
614.00,40.111
615.00,40.213
616.00,40.318
617.00,40.299
618.00,40.292
619.00,40.320
620.00,40.299
621.00,40.453
622.00,40.739
623.00,40.687
624.00,40.708
625.00,40.818
626.00,40.821
627.00,40.902
628.00,40.875
629.00,40.921
630.00,41.016
631.00,41.024
632.00,41.184
633.00,41.298
634.00,41.304
635.00,41.456
636.00,41.586
637.00,41.553
638.00,41.557
639.00,41.741
640.00,41.745
641.00,41.754
642.00,41.879
643.00,41.915
644.00,41.961
645.00,42.023
646.00,42.180
647.00,42.322
648.00,42.304
649.00,42.311
650.00,42.365
651.00,42.537
652.00,42.638
653.00,42.627
654.00,42.645
655.00,42.901
656.00,43.062
657.00,42.957
658.00,43.019
659.00,43.126
660.00,43.211
661.00,43.272
662.00,43.292
663.00,43.409
664.00,43.638
665.00,43.819
666.00,43.779
667.00,43.836
668.00,43.836
669.00,43.993
670.00,44.257
671.00,44.250
672.00,44.324
673.00,44.407
674.00,44.377
675.00,44.490
676.00,44.696
677.00,44.757
678.00,44.742
679.00,44.952
680.00,45.100
681.00,45.278
682.00,45.045
683.00,45.107
684.00,45.494
685.00,45.555
686.00,45.333
687.00,45.515
688.00,45.600
689.00,45.569
690.00,45.840
691.00,46.023
692.00,45.984
693.00,45.957
694.00,46.031
695.00,46.342
696.00,46.385
697.00,46.353
698.00,46.419
699.00,46.703
700.00,46.695
701.00,46.702
702.00,46.819
703.00,46.945
704.00,47.025
705.00,46.893
706.00,47.086
707.00,47.063
708.00,46.999
709.00,47.353
710.00,47.698
711.00,47.354
712.00,47.468
713.00,47.650
714.00,47.642
715.00,47.724
716.00,47.580
717.00,47.795
718.00,47.967
719.00,47.985
720.00,48.110
721.00,52.546
722.00,52.511
723.00,52.543
724.00,52.472
725.00,52.533
726.00,52.517
727.00,52.594
728.00,52.616
729.00,52.704
730.00,52.628
731.00,52.633
732.00,52.760
733.00,52.736
734.00,52.780
735.00,52.896
736.00,52.811
737.00,52.915
738.00,52.948
739.00,52.961
740.00,52.998
741.00,52.977
742.00,53.030
743.00,53.032
744.00,53.002
745.00,53.098
746.00,53.018
747.00,53.071
748.00,53.042
749.00,53.110
750.00,53.018
751.00,53.137
752.00,53.020
753.00,53.095
754.00,53.067
755.00,53.062
756.00,53.133
757.00,53.042
758.00,53.117
759.00,53.106
760.00,53.136
761.00,53.124
762.00,53.104
763.00,53.173
764.00,53.127
765.00,53.272
766.00,53.224
767.00,53.293
768.00,53.203
769.00,53.268
770.00,53.249
771.00,53.282
772.00,53.349
773.00,53.237
774.00,53.332
775.00,53.252
776.00,53.343
777.00,53.313
778.00,53.232
779.00,53.351
780.00,53.347
781.00,53.301
782.00,53.300
783.00,53.355
784.00,53.310
785.00,53.263
786.00,53.312
787.00,53.308
788.00,53.292
789.00,53.293
790.00,53.279
791.00,53.308
792.00,53.238
793.00,53.183
794.00,53.227
795.00,53.248
796.00,53.141
797.00,53.209
798.00,53.340
799.00,53.175
800.00,53.205
801.00,53.154
802.00,53.118
803.00,53.105
804.00,53.012
805.00,53.143
806.00,53.131
807.00,53.105
808.00,53.058
809.00,53.093
810.00,53.018
811.00,53.027
812.00,53.093
813.00,52.961
814.00,52.972
815.00,52.973
816.00,52.974
817.00,52.995
818.00,52.853
819.00,52.889
820.00,52.862
821.00,52.783
822.00,52.791
823.00,52.861
824.00,52.815
825.00,52.732
826.00,52.764
827.00,52.880
828.00,52.890
829.00,52.770
830.00,52.805
831.00,54.926
832.00,54.894
833.00,54.881
834.00,54.890
835.00,54.850
836.00,54.877
837.00,54.851
838.00,54.800
839.00,54.819
840.00,54.777
841.00,54.779
842.00,54.712
843.00,54.726
844.00,54.664
845.00,54.724
846.00,54.660
847.00,54.672
848.00,54.474
849.00,54.579
850.00,54.563
851.00,54.489
852.00,54.540
853.00,54.445
854.00,54.452
855.00,54.386
856.00,54.428
857.00,54.384
858.00,54.326
859.00,54.302
860.00,54.311
861.00,54.341
862.00,54.284
863.00,54.288
864.00,54.230
865.00,54.315
866.00,54.244
867.00,54.260
868.00,54.200
869.00,54.223
870.00,54.133
871.00,54.216
872.00,54.134
873.00,54.192
874.00,54.111
875.00,54.139
876.00,54.156
877.00,54.120
878.00,54.121
879.00,54.100
880.00,54.089
881.00,54.061
882.00,54.093
883.00,54.007
884.00,54.010
885.00,53.987
886.00,53.990
887.00,53.974
888.00,53.910
889.00,53.918
890.00,53.903
891.00,53.847
892.00,53.850
893.00,53.820
894.00,53.825
895.00,53.789
896.00,53.777
897.00,53.739
898.00,53.723
899.00,53.693
900.00,53.690
901.00,53.700
902.00,53.705
903.00,53.668
904.00,53.657
905.00,53.637
906.00,53.656
907.00,53.604
908.00,53.581
909.00,53.566
910.00,53.524
911.00,53.536
912.00,53.527
913.00,53.474
914.00,53.449
915.00,53.400
916.00,53.475
917.00,53.362
918.00,53.387
919.00,53.349
920.00,53.324
921.00,53.301
922.00,53.301
923.00,53.308
924.00,53.259
925.00,53.241
926.00,53.335
927.00,53.214
928.00,53.171
929.00,53.186
930.00,53.146
931.00,53.172
932.00,53.111
933.00,53.097
934.00,53.086
935.00,53.066
936.00,53.041
937.00,53.028
938.00,53.004
939.00,53.022
940.00,52.966
941.00,52.980
942.00,53.069
943.00,52.948
944.00,52.891
945.00,52.921
946.00,52.887
947.00,52.867
948.00,52.862
949.00,52.840
950.00,52.807
951.00,52.781
952.00,52.766
953.00,52.735
954.00,52.721
955.00,52.665
956.00,52.665
957.00,52.614
958.00,52.653
959.00,52.576
960.00,52.573
961.00,52.555
962.00,52.559
963.00,52.507
964.00,52.518
965.00,52.513
966.00,52.472
967.00,52.459
968.00,52.439
969.00,52.502
970.00,52.454
971.00,52.465
972.00,52.459
973.00,52.462
974.00,52.466
975.00,52.442
976.00,52.474
977.00,52.419
978.00,52.473
979.00,52.424
980.00,52.446
981.00,52.442
982.00,52.428
983.00,52.446
984.00,52.413
985.00,52.438
986.00,52.393
987.00,52.418
988.00,52.358
989.00,52.372
990.00,52.369
991.00,52.345
992.00,52.370
993.00,52.346
994.00,52.329
995.00,52.312
996.00,52.293
997.00,52.297
998.00,52.272
999.00,52.266
1000.00,52.231
1001.00,52.232
1002.00,52.218
1003.00,52.213
1004.00,52.201
1005.00,52.177
1006.00,52.206
1007.00,52.183
1008.00,52.177
1009.00,52.143
1010.00,52.119
1011.00,52.136
1012.00,52.121
1013.00,52.093
1014.00,52.064
1015.00,52.095
1016.00,52.041
1017.00,52.029
1018.00,52.011
1019.00,51.994
1020.00,51.996
1021.00,51.951
1022.00,51.978
1023.00,51.916
1024.00,51.917
1025.00,51.919
1026.00,51.893
1027.00,51.850
1028.00,51.868
1029.00,51.853
1030.00,51.829
1031.00,51.829
1032.00,51.757
1033.00,51.794
1034.00,51.757
1035.00,51.724
1036.00,51.697
1037.00,51.684
1038.00,51.670
1039.00,51.646
1040.00,51.642
1041.00,51.612
1042.00,51.616
1043.00,51.578
1044.00,51.608
1045.00,51.596
1046.00,51.609
1047.00,51.625
1048.00,51.637
1049.00,51.660
1050.00,51.629
1051.00,51.667
1052.00,51.671
1053.00,51.671
1054.00,51.646
1055.00,51.680
1056.00,51.689
1057.00,51.680
1058.00,51.667
1059.00,51.646
1060.00,51.663
1061.00,51.642
1062.00,51.631
1063.00,51.663
1064.00,51.666
1065.00,51.641
1066.00,51.635
1067.00,51.628
1068.00,51.653
1069.00,51.603
1070.00,51.585
1071.00,51.562
1072.00,51.585
1073.00,51.546
1074.00,51.555
1075.00,51.545
1076.00,51.542
1077.00,51.521
1078.00,51.486
1079.00,51.496
1080.00,51.505
1081.00,51.485
1082.00,51.486
1083.00,51.468
1084.00,51.469
1085.00,51.467
1086.00,51.449
1087.00,51.444
1088.00,51.418
1089.00,51.406
1090.00,51.412
1091.00,51.419
1092.00,51.390
1093.00,51.383
1094.00,51.400
1095.00,51.360
1096.00,51.341
1097.00,51.343
1098.00,51.325
1099.00,51.326
1100.00,51.306
1101.00,51.302
1102.00,51.298
1103.00,51.293
1104.00,51.275
1105.00,51.277
1106.00,51.258
1107.00,51.251
1108.00,51.242
1109.00,51.237
1110.00,51.231
1111.00,51.219
1112.00,51.208
1113.00,51.211
1114.00,51.195
1115.00,51.195
1116.00,51.175
1117.00,51.172
1118.00,51.165
1119.00,51.167
1120.00,51.150
1121.00,51.154
1122.00,51.128
1123.00,51.117
1124.00,51.127
1125.00,51.114
1126.00,51.109
1127.00,51.103
1128.00,51.092
1129.00,51.086
1130.00,51.066
1131.00,51.059
1132.00,51.054
1133.00,51.056
1134.00,51.009
1135.00,51.020
1136.00,51.027
1137.00,51.022
1138.00,51.019
1139.00,51.048
1140.00,51.070
1141.00,51.014
1142.00,50.991
1143.00,51.026
1144.00,50.980
1145.00,50.984
1146.00,50.991
1147.00,50.985
1148.00,50.966
1149.00,50.976
1150.00,50.988
1151.00,50.988
1152.00,50.975
1153.00,50.952
1154.00,50.959
1155.00,50.965
1156.00,50.930
1157.00,50.949
1158.00,50.940
1159.00,50.927
1160.00,50.934
1161.00,50.941
1162.00,50.942
1163.00,50.927
1164.00,50.931
1165.00,50.945
1166.00,50.923
1167.00,50.924
1168.00,50.957
1169.00,50.934
1170.00,50.929
1171.00,50.900
1172.00,50.905
1173.00,50.916
1174.00,50.910
1175.00,50.908
1176.00,50.917
1177.00,50.888
1178.00,50.880
1179.00,50.902
1180.00,50.886
1181.00,50.881
1182.00,50.869
1183.00,50.869
1184.00,50.870
1185.00,50.891
1186.00,50.887
1187.00,50.886
1188.00,50.871
1189.00,50.858
1190.00,50.858
1191.00,50.852
1192.00,50.870
1193.00,50.854
1194.00,50.869
1195.00,50.860
1196.00,50.865
1197.00,50.857
1198.00,50.871
1199.00,50.841
1200.00,50.841
1201.00,50.888
1202.00,50.838
1203.00,50.838
1204.00,50.826
1205.00,50.844
1206.00,50.866
1207.00,50.859
1208.00,50.830
1209.00,50.856
1210.00,50.845
1211.00,50.828
1212.00,50.848
1213.00,50.840
1214.00,50.843
1215.00,50.828
1216.00,50.861
1217.00,50.864
1218.00,50.835
1219.00,50.837
1220.00,50.844
1221.00,50.855
1222.00,50.832
1223.00,50.860
1224.00,50.855
1225.00,50.834
1226.00,50.829
1227.00,50.827
1228.00,50.863
1229.00,50.845
1230.00,50.865
1231.00,50.884
1232.00,50.905
1233.00,50.883
1234.00,50.903
1235.00,50.892
1236.00,50.872
1237.00,50.885
1238.00,50.887
1239.00,50.905
1240.00,50.875
1241.00,50.883
1242.00,50.916
1243.00,50.907
1244.00,50.882
1245.00,50.918
1246.00,50.934
1247.00,50.923
1248.00,50.900
1249.00,50.921
1250.00,50.947
1251.00,50.916
1252.00,50.906
1253.00,50.926
1254.00,50.939
1255.00,50.923
1256.00,50.927
1257.00,50.895
1258.00,50.931
1259.00,50.927
1260.00,50.953
1261.00,50.958
1262.00,50.961
1263.00,50.932
1264.00,50.955
1265.00,50.941
1266.00,50.907
1267.00,50.938
1268.00,50.956
1269.00,50.951
1270.00,50.961
1271.00,50.970
1272.00,50.994
1273.00,50.980
1274.00,50.998
1275.00,51.017
1276.00,51.015
1277.00,51.015
1278.00,51.016
1279.00,51.022
1280.00,50.999
1281.00,51.018
1282.00,51.031
1283.00,51.045
1284.00,51.031
1285.00,51.012
1286.00,51.054
1287.00,51.031
1288.00,51.021
1289.00,51.031
1290.00,51.067
1291.00,51.065
1292.00,51.050
1293.00,51.061
1294.00,51.083
1295.00,51.088
1296.00,51.073
1297.00,51.105
1298.00,51.112
1299.00,51.086
1300.00,51.108
1301.00,51.093
1302.00,51.107
1303.00,51.090
1304.00,51.078
1305.00,51.125
1306.00,51.133
1307.00,51.148
1308.00,51.143
1309.00,51.167
1310.00,51.144
1311.00,51.133
1312.00,51.154
1313.00,51.159
1314.00,51.181
1315.00,51.177
1316.00,51.229
1317.00,51.236
1318.00,51.190
1319.00,51.218
1320.00,51.223
1321.00,51.359
1322.00,51.377
1323.00,51.341
1324.00,51.314
1325.00,51.341
1326.00,51.368
1327.00,51.353
1328.00,51.338
1329.00,51.373
1330.00,51.368
1331.00,51.352
1332.00,51.323
1333.00,51.354
1334.00,51.373
1335.00,51.395
1336.00,51.406
1337.00,51.436
1338.00,51.485
1339.00,51.535
1340.00,51.586
1341.00,51.669
1342.00,51.728
1343.00,51.760
1344.00,51.829
1345.00,51.885
1346.00,51.902
1347.00,51.914
1348.00,51.944
1349.00,51.991
1350.00,51.970
1351.00,52.021
1352.00,52.040
1353.00,52.128
1354.00,51.999
1355.00,51.999
1356.00,52.075
1357.00,52.037
1358.00,52.043
1359.00,52.065
1360.00,52.009
1361.00,52.015
1362.00,52.089
1363.00,52.042
1364.00,52.141
1365.00,52.034
1366.00,52.125
1367.00,52.215
1368.00,52.087
1369.00,52.070
1370.00,52.074
1371.00,51.954
1372.00,52.003
1373.00,52.042
1374.00,52.054
1375.00,52.050
1376.00,51.980
1377.00,52.037
1378.00,52.034
1379.00,52.090
1380.00,52.102
1381.00,52.193
1382.00,52.013
1383.00,52.063
1384.00,52.030
1385.00,52.020
1386.00,52.041
1387.00,52.043
1388.00,52.035
1389.00,52.028
1390.00,52.024
1391.00,52.145
1392.00,52.041
1393.00,51.999
1394.00,52.019
1395.00,52.091
1396.00,52.008
1397.00,52.106
1398.00,52.058
1399.00,52.089
1400.00,51.749
1401.00,52.040
1402.00,52.046
1403.00,52.039
1404.00,52.072
1405.00,52.039
1406.00,52.104
1407.00,52.096
1408.00,52.093
1409.00,52.063
1410.00,52.116
1411.00,52.122
1412.00,52.130
1413.00,52.104
1414.00,52.115
1415.00,52.133
1416.00,52.175
1417.00,52.170
1418.00,52.136
1419.00,52.145
1420.00,52.156
1421.00,52.209
1422.00,52.189
1423.00,52.206
1424.00,52.223
1425.00,52.244
1426.00,52.251
1427.00,52.272
1428.00,52.266
1429.00,52.298
1430.00,52.294
1431.00,52.299
1432.00,52.313
1433.00,52.329
1434.00,52.332
1435.00,52.377
1436.00,52.377
1437.00,52.381
1438.00,52.391
1439.00,52.414
1440.00,52.431
1441.00,52.437
1442.00,52.422
1443.00,52.488
1444.00,52.576
1445.00,52.489
1446.00,52.505
1447.00,52.537
1448.00,52.580
1449.00,52.580
1450.00,52.588
1451.00,52.618
1452.00,52.639
1453.00,52.619
1454.00,52.662
1455.00,52.676
1456.00,52.679
1457.00,52.687
1458.00,52.713
1459.00,52.715
1460.00,52.745
1461.00,52.743
1462.00,52.784
1463.00,52.789
1464.00,52.780
1465.00,52.817
1466.00,52.806
1467.00,52.823
1468.00,52.886
1469.00,52.854
1470.00,52.874
1471.00,52.886
1472.00,52.886
1473.00,52.920
1474.00,52.930
1475.00,52.931
1476.00,52.965
1477.00,52.950
1478.00,52.958
1479.00,52.998
1480.00,52.985
1481.00,52.984
1482.00,53.021
1483.00,53.035
1484.00,53.062
1485.00,53.067
1486.00,53.063
1487.00,53.105
1488.00,53.121
1489.00,53.096
1490.00,53.133
1491.00,53.152
1492.00,53.164
1493.00,53.157
1494.00,53.172
1495.00,53.174
1496.00,53.194
1497.00,53.173
1498.00,53.225
1499.00,53.218
1500.00,53.215
1501.00, 
1502.00, 
1503.00, 
1504.00, 
1505.00, 
1506.00, 
1507.00, 
1508.00, 
1509.00, 
1510.00, 
1511.00, 
1512.00, 
1513.00, 
1514.00, 
1515.00, 
1516.00, 
1517.00, 
1518.00, 
1519.00, 
1520.00, 
1521.00, 
1522.00, 
1523.00, 
1524.00, 
1525.00, 
1526.00, 
1527.00, 
1528.00, 
1529.00, 
1530.00, 
1531.00, 
1532.00, 
1533.00, 
1534.00, 
1535.00, 
1536.00, 
1537.00, 
1538.00, 
1539.00, 
1540.00, 
1541.00, 
1542.00, 
1543.00, 
1544.00, 
1545.00, 
1546.00, 
1547.00, 
1548.00, 
1549.00, 
1550.00, 
1551.00, 
1552.00, 
1553.00, 
1554.00, 
1555.00, 
1556.00, 
1557.00, 
1558.00, 
1559.00, 
1560.00, 
1561.00, 
1562.00, 
1563.00, 
1564.00, 
1565.00, 
1566.00, 
1567.00, 
1568.00, 
1569.00, 
1570.00, 
1571.00, 
1572.00, 
1573.00, 
1574.00, 
1575.00, 
1576.00, 
1577.00, 
1578.00, 
1579.00, 
1580.00, 
1581.00, 
1582.00, 
1583.00, 
1584.00, 
1585.00, 
1586.00, 
1587.00, 
1588.00, 
1589.00, 
1590.00, 
1591.00, 
1592.00, 
1593.00, 
1594.00, 
1595.00, 
1596.00, 
1597.00, 
1598.00, 
1599.00, 
1600.00, 
1601.00, 
1602.00, 
1603.00, 
1604.00, 
1605.00, 
1606.00, 
1607.00, 
1608.00, 
1609.00, 
1610.00, 
1611.00, 
1612.00, 
1613.00, 
1614.00, 
1615.00, 
1616.00, 
1617.00, 
1618.00, 
1619.00, 
1620.00, 
1621.00, 
1622.00, 
1623.00, 
1624.00, 
1625.00, 
1626.00, 
1627.00, 
1628.00, 
1629.00, 
1630.00, 
1631.00, 
1632.00, 
1633.00, 
1634.00, 
1635.00, 
1636.00, 
1637.00, 
1638.00, 
1639.00, 
1640.00, 
1641.00, 
1642.00, 
1643.00, 
1644.00, 
1645.00, 
1646.00, 
1647.00, 
1648.00, 
1649.00, 
1650.00, 
1651.00, 
1652.00, 
1653.00, 
1654.00, 
1655.00, 
1656.00, 
1657.00, 
1658.00, 
1659.00, 
1660.00, 
1661.00, 
1662.00, 
1663.00, 
1664.00, 
1665.00, 
1666.00, 
1667.00, 
1668.00, 
1669.00, 
1670.00, 
1671.00, 
1672.00, 
1673.00, 
1674.00, 
1675.00, 
1676.00, 
1677.00, 
1678.00, 
1679.00, 
1680.00, 
1681.00, 
1682.00, 
1683.00, 
1684.00, 
1685.00, 
1686.00, 
1687.00, 
1688.00, 
1689.00, 
1690.00, 
1691.00, 
1692.00, 
1693.00, 
1694.00, 
1695.00, 
1696.00, 
1697.00, 
1698.00, 
1699.00, 
1700.00, 
1701.00, 
1702.00, 
1703.00, 
1704.00, 
1705.00, 
1706.00, 
1707.00, 
1708.00, 
1709.00, 
1710.00, 
1711.00, 
1712.00, 
1713.00, 
1714.00, 
1715.00, 
1716.00, 
1717.00, 
1718.00, 
1719.00, 
1720.00, 
1721.00, 
1722.00, 
1723.00, 
1724.00, 
1725.00, 
1726.00, 
1727.00, 
1728.00, 
1729.00, 
1730.00, 
1731.00, 
1732.00, 
1733.00, 
1734.00, 
1735.00, 
1736.00, 
1737.00, 
1738.00, 
1739.00, 
1740.00, 
1741.00, 
1742.00, 
1743.00, 
1744.00, 
1745.00, 
1746.00, 
1747.00, 
1748.00, 
1749.00, 
1750.00, 
1751.00, 
1752.00, 
1753.00, 
1754.00, 
1755.00, 
1756.00, 
1757.00, 
1758.00, 
1759.00, 
1760.00, 
1761.00, 
1762.00, 
1763.00, 
1764.00, 
1765.00, 
1766.00, 
1767.00, 
1768.00, 
1769.00, 
1770.00, 
1771.00, 
1772.00, 
1773.00, 
1774.00, 
1775.00, 
1776.00, 
1777.00, 
1778.00, 
1779.00, 
1780.00, 
1781.00, 
1782.00, 
1783.00, 
1784.00, 
1785.00, 
1786.00, 
1787.00, 
1788.00, 
1789.00, 
1790.00, 
1791.00, 
1792.00, 
1793.00, 
1794.00, 
1795.00, 
1796.00, 
1797.00, 
1798.00, 
1799.00, 
1800.00, 
1801.00, 
1802.00, 
1803.00, 
1804.00, 
1805.00, 
1806.00, 
1807.00, 
1808.00, 
1809.00, 
1810.00, 
1811.00, 
1812.00, 
1813.00, 
1814.00, 
1815.00, 
1816.00, 
1817.00, 
1818.00, 
1819.00, 
1820.00, 
1821.00, 
1822.00, 
1823.00, 
1824.00, 
1825.00, 
1826.00, 
1827.00, 
1828.00, 
1829.00, 
1830.00, 
1831.00, 
1832.00, 
1833.00, 
1834.00, 
1835.00, 
1836.00, 
1837.00, 
1838.00, 
1839.00, 
1840.00, 
1841.00, 
1842.00, 
1843.00, 
1844.00, 
1845.00, 
1846.00, 
1847.00, 
1848.00, 
1849.00, 
1850.00, 
1851.00, 
1852.00, 
1853.00, 
1854.00, 
1855.00, 
1856.00, 
1857.00, 
1858.00, 
1859.00, 
1860.00, 
1861.00, 
1862.00, 
1863.00, 
1864.00, 
1865.00, 
1866.00, 
1867.00, 
1868.00, 
1869.00, 
1870.00, 
1871.00, 
1872.00, 
1873.00, 
1874.00, 
1875.00, 
1876.00, 
1877.00, 
1878.00, 
1879.00, 
1880.00, 
1881.00, 
1882.00, 
1883.00, 
1884.00, 
1885.00, 
1886.00, 
1887.00, 
1888.00, 
1889.00, 
1890.00, 
1891.00, 
1892.00, 
1893.00, 
1894.00, 
1895.00, 
1896.00, 
1897.00, 
1898.00, 
1899.00, 
1900.00, 
1901.00, 
1902.00, 
1903.00, 
1904.00, 
1905.00, 
1906.00, 
1907.00, 
1908.00, 
1909.00, 
1910.00, 
1911.00, 
1912.00, 
1913.00, 
1914.00, 
1915.00, 
1916.00, 
1917.00, 
1918.00, 
1919.00, 
1920.00, 
1921.00, 
1922.00, 
1923.00, 
1924.00, 
1925.00, 
1926.00, 
1927.00, 
1928.00, 
1929.00, 
1930.00, 
1931.00, 
1932.00, 
1933.00, 
1934.00, 
1935.00, 
1936.00, 
1937.00, 
1938.00, 
1939.00, 
1940.00, 
1941.00, 
1942.00, 
1943.00, 
1944.00, 
1945.00, 
1946.00, 
1947.00, 
1948.00, 
1949.00, 
1950.00, 
1951.00, 
1952.00, 
1953.00, 
1954.00, 
1955.00, 
1956.00, 
1957.00, 
1958.00, 
1959.00, 
1960.00, 
1961.00, 
1962.00, 
1963.00, 
1964.00, 
1965.00, 
1966.00, 
1967.00, 
1968.00, 
1969.00, 
1970.00, 
1971.00, 
1972.00, 
1973.00, 
1974.00, 
1975.00, 
1976.00, 
1977.00, 
1978.00, 
1979.00, 
1980.00, 
1981.00, 
1982.00, 
1983.00, 
1984.00, 
1985.00, 
1986.00, 
1987.00, 
1988.00, 
1989.00, 
1990.00, 
1991.00, 
1992.00, 
1993.00, 
1994.00, 
1995.00, 
1996.00, 
1997.00, 
1998.00, 
1999.00, 
2000.00, 
2001.00, 
2002.00, 
2003.00, 
2004.00, 
2005.00, 
2006.00, 
2007.00, 
2008.00, 
2009.00, 
2010.00, 
2011.00, 
2012.00, 
2013.00, 
2014.00, 
2015.00, 
2016.00, 
2017.00, 
2018.00, 
2019.00, 
2020.00, 
2021.00, 
2022.00, 
2023.00, 
2024.00, 
2025.00, 
2026.00, 
2027.00, 
2028.00, 
2029.00, 
2030.00, 
2031.00, 
2032.00, 
2033.00, 
2034.00, 
2035.00, 
2036.00, 
2037.00, 
2038.00, 
2039.00, 
2040.00, 
2041.00, 
2042.00, 
2043.00, 
2044.00, 
2045.00, 
2046.00, 
2047.00, 
2048.00, 
2049.00, 
2050.00, 
2051.00, 
2052.00, 
2053.00, 
2054.00, 
2055.00, 
2056.00, 
2057.00, 
2058.00, 
2059.00, 
2060.00, 
2061.00, 
2062.00, 
2063.00, 
2064.00, 
2065.00, 
2066.00, 
2067.00, 
2068.00, 
2069.00, 
2070.00, 
2071.00, 
2072.00, 
2073.00, 
2074.00, 
2075.00, 
2076.00, 
2077.00, 
2078.00, 
2079.00, 
2080.00, 
2081.00, 
2082.00, 
2083.00, 
2084.00, 
2085.00, 
2086.00, 
2087.00, 
2088.00, 
2089.00, 
2090.00, 
2091.00, 
2092.00, 
2093.00, 
2094.00, 
2095.00, 
2096.00, 
2097.00, 
2098.00, 
2099.00, 
2100.00, 
2101.00, 
2102.00, 
2103.00, 
2104.00, 
2105.00, 
2106.00, 
2107.00, 
2108.00, 
2109.00, 
2110.00, 
2111.00, 
2112.00, 
2113.00, 
2114.00, 
2115.00, 
2116.00, 
2117.00, 
2118.00, 
2119.00, 
2120.00, 
2121.00, 
2122.00, 
2123.00, 
2124.00, 
2125.00, 
2126.00, 
2127.00, 
2128.00, 
2129.00, 
2130.00, 
2131.00, 
2132.00, 
2133.00, 
2134.00, 
2135.00, 
2136.00, 
2137.00, 
2138.00, 
2139.00, 
2140.00, 
2141.00, 
2142.00, 
2143.00, 
2144.00, 
2145.00, 
2146.00, 
2147.00, 
2148.00, 
2149.00, 
2150.00, 
2151.00, 
2152.00, 
2153.00, 
2154.00, 
2155.00, 
2156.00, 
2157.00, 
2158.00, 
2159.00, 
2160.00, 
2161.00, 
2162.00, 
2163.00, 
2164.00, 
2165.00, 
2166.00, 
2167.00, 
2168.00, 
2169.00, 
2170.00, 
2171.00, 
2172.00, 
2173.00, 
2174.00, 
2175.00, 
2176.00, 
2177.00, 
2178.00, 
2179.00, 
2180.00, 
2181.00, 
2182.00, 
2183.00, 
2184.00, 
2185.00, 
2186.00, 
2187.00, 
2188.00, 
2189.00, 
2190.00, 
2191.00, 
2192.00, 
2193.00, 
2194.00, 
2195.00, 
2196.00, 
2197.00, 
2198.00, 
2199.00, 
2200.00, 
2201.00, 
2202.00, 
2203.00, 
2204.00, 
2205.00, 
2206.00, 
2207.00, 
2208.00, 
2209.00, 
2210.00, 
2211.00, 
2212.00, 
2213.00, 
2214.00, 
2215.00, 
2216.00, 
2217.00, 
2218.00, 
2219.00, 
2220.00, 
2221.00, 
2222.00, 
2223.00, 
2224.00, 
2225.00, 
2226.00, 
2227.00, 
2228.00, 
2229.00, 
2230.00, 
2231.00, 
2232.00, 
2233.00, 
2234.00, 
2235.00, 
2236.00, 
2237.00, 
2238.00, 
2239.00, 
2240.00, 
2241.00, 
2242.00, 
2243.00, 
2244.00, 
2245.00, 
2246.00, 
2247.00, 
2248.00, 
2249.00, 
2250.00, 
2251.00, 
2252.00, 
2253.00, 
2254.00, 
2255.00, 
2256.00, 
2257.00, 
2258.00, 
2259.00, 
2260.00, 
2261.00, 
2262.00, 
2263.00, 
2264.00, 
2265.00, 
2266.00, 
2267.00, 
2268.00, 
2269.00, 
2270.00, 
2271.00, 
2272.00, 
2273.00, 
2274.00, 
2275.00, 
2276.00, 
2277.00, 
2278.00, 
2279.00, 
2280.00, 
2281.00, 
2282.00, 
2283.00, 
2284.00, 
2285.00, 
2286.00, 
2287.00, 
2288.00, 
2289.00, 
2290.00, 
2291.00, 
2292.00, 
2293.00, 
2294.00, 
2295.00, 
2296.00, 
2297.00, 
2298.00, 
2299.00, 
2300.00, 
2301.00, 
2302.00, 
2303.00, 
2304.00, 
2305.00, 
2306.00, 
2307.00, 
2308.00, 
2309.00, 
2310.00, 
2311.00, 
2312.00, 
2313.00, 
2314.00, 
2315.00, 
2316.00, 
2317.00, 
2318.00, 
2319.00, 
2320.00, 
2321.00, 
2322.00, 
2323.00, 
2324.00, 
2325.00, 
2326.00, 
2327.00, 
2328.00, 
2329.00, 
2330.00, 
2331.00, 
2332.00, 
2333.00, 
2334.00, 
2335.00, 
2336.00, 
2337.00, 
2338.00, 
2339.00, 
2340.00, 
2341.00, 
2342.00, 
2343.00, 
2344.00, 
2345.00, 
2346.00, 
2347.00, 
2348.00, 
2349.00, 
2350.00, 
2351.00, 
2352.00, 
2353.00, 
2354.00, 
2355.00, 
2356.00, 
2357.00, 
2358.00, 
2359.00, 
2360.00, 
2361.00, 
2362.00, 
2363.00, 
2364.00, 
2365.00, 
2366.00, 
2367.00, 
2368.00, 
2369.00, 
2370.00, 
2371.00, 
2372.00, 
2373.00, 
2374.00, 
2375.00, 
2376.00, 
2377.00, 
2378.00, 
2379.00, 
2380.00, 
2381.00, 
2382.00, 
2383.00, 
2384.00, 
2385.00, 
2386.00, 
2387.00, 
2388.00, 
2389.00, 
2390.00, 
2391.00, 
2392.00, 
2393.00, 
2394.00, 
2395.00, 
2396.00, 
2397.00, 
2398.00, 
2399.00, 
2400.00, 
2401.00, 
2402.00, 
2403.00, 
2404.00, 
2405.00, 
2406.00, 
2407.00, 
2408.00, 
2409.00, 
2410.00, 
2411.00, 
2412.00, 
2413.00, 
2414.00, 
2415.00, 
2416.00, 
2417.00, 
2418.00, 
2419.00, 
2420.00, 
2421.00, 
2422.00, 
2423.00, 
2424.00, 
2425.00, 
2426.00, 
2427.00, 
2428.00, 
2429.00, 
2430.00, 
2431.00, 
2432.00, 
2433.00, 
2434.00, 
2435.00, 
2436.00, 
2437.00, 
2438.00, 
2439.00, 
2440.00, 
2441.00, 
2442.00, 
2443.00, 
2444.00, 
2445.00, 
2446.00, 
2447.00, 
2448.00, 
2449.00, 
2450.00, 
2451.00, 
2452.00, 
2453.00, 
2454.00, 
2455.00, 
2456.00, 
2457.00, 
2458.00, 
2459.00, 
2460.00, 
2461.00, 
2462.00, 
2463.00, 
2464.00, 
2465.00, 
2466.00, 
2467.00, 
2468.00, 
2469.00, 
2470.00, 
2471.00, 
2472.00, 
2473.00, 
2474.00, 
2475.00, 
2476.00, 
2477.00, 
2478.00, 
2479.00, 
2480.00, 
2481.00, 
2482.00, 
2483.00, 
2484.00, 
2485.00, 
2486.00, 
2487.00, 
2488.00, 
2489.00, 
2490.00, 
2491.00, 
2492.00, 
2493.00, 
2494.00, 
2495.00, 
2496.00, 
2497.00, 
2498.00, 
2499.00, 
2500.00, 
2501.00, 
2502.00, 
2503.00, 
2504.00, 
2505.00, 
2506.00, 
2507.00, 
2508.00, 
2509.00, 
2510.00, 
2511.00, 
2512.00, 
2513.00, 
2514.00, 
2515.00, 
2516.00, 
2517.00, 
2518.00, 
2519.00, 
2520.00, 
2521.00, 
2522.00, 
2523.00, 
2524.00, 
2525.00, 
2526.00, 
2527.00, 
2528.00, 
2529.00, 
2530.00, 
2531.00, 
2532.00, 
2533.00, 
2534.00, 
2535.00, 
2536.00, 
2537.00, 
2538.00, 
2539.00, 
2540.00, 
2541.00, 
2542.00, 
2543.00, 
2544.00, 
2545.00, 
2546.00, 
2547.00, 
2548.00, 
2549.00, 
2550.00, 
2551.00, 
2552.00, 
2553.00, 
2554.00, 
2555.00, 
2556.00, 
2557.00, 
2558.00, 
2559.00, 
2560.00, 
2561.00, 
2562.00, 
2563.00, 
2564.00, 
2565.00, 
2566.00, 
2567.00, 
2568.00, 
2569.00, 
2570.00, 
2571.00, 
2572.00, 
2573.00, 
2574.00, 
2575.00, 
2576.00, 
2577.00, 
2578.00, 
2579.00, 
2580.00, 
2581.00, 
2582.00, 
2583.00, 
2584.00, 
2585.00, 
2586.00, 
2587.00, 
2588.00, 
2589.00, 
2590.00, 
2591.00, 
2592.00, 
2593.00, 
2594.00, 
2595.00, 
2596.00, 
2597.00, 
2598.00, 
2599.00, 
2600.00, 
