"2bP2 - RawData"
"Wavelength nm.","T%"
200.00,0.001
201.00,0.000
202.00,0.004
203.00,-0.002
204.00,0.002
205.00,0.002
206.00,0.001
207.00,0.003
208.00,-0.002
209.00,0.003
210.00,0.002
211.00,0.003
212.00,0.002
213.00,0.001
214.00,0.001
215.00,-0.000
216.00,-0.002
217.00,0.002
218.00,0.002
219.00,0.002
220.00,0.002
221.00,0.001
222.00,-0.001
223.00,0.002
224.00,0.002
225.00,0.001
226.00,0.005
227.00,-0.001
228.00,-0.001
229.00,-0.002
230.00,0.002
231.00,-0.001
232.00,0.002
233.00,0.001
234.00,0.001
235.00,0.002
236.00,0.002
237.00,0.001
238.00,0.002
239.00,0.001
240.00,0.000
241.00,-0.000
242.00,0.000
243.00,0.000
244.00,0.001
245.00,0.002
246.00,0.002
247.00,0.001
248.00,-0.001
249.00,0.001
250.00,0.001
251.00,0.001
252.00,0.002
253.00,0.002
254.00,-0.000
255.00,0.002
256.00,0.001
257.00,0.001
258.00,0.000
259.00,-0.001
260.00,-0.000
261.00,0.002
262.00,0.002
263.00,0.002
264.00,0.001
265.00,-0.001
266.00,-0.000
267.00,-0.000
268.00,0.001
269.00,0.000
270.00,-0.000
271.00,-0.001
272.00,-0.000
273.00,0.001
274.00,-0.000
275.00,0.001
276.00,0.001
277.00,-0.001
278.00,-0.000
279.00,0.001
280.00,0.000
281.00,0.002
282.00,0.001
283.00,0.001
284.00,-0.000
285.00,-0.000
286.00,0.001
287.00,0.000
288.00,-0.000
289.00,0.001
290.00,0.002
291.00,0.001
292.00,-0.000
293.00,0.000
294.00,-0.000
295.00,0.000
296.00,0.001
297.00,-0.000
298.00,0.002
299.00,0.002
300.00,0.003
301.00,0.004
302.00,0.007
303.00,0.011
304.00,0.017
305.00,0.027
306.00,0.044
307.00,0.065
308.00,0.099
309.00,0.150
310.00,0.209
311.00,0.280
312.00,0.378
313.00,0.508
314.00,0.662
315.00,0.859
316.00,1.085
317.00,1.369
318.00,1.662
319.00,2.067
320.00,2.423
321.00,2.939
322.00,3.471
323.00,4.093
324.00,4.691
325.00,5.337
326.00,6.019
327.00,6.764
328.00,7.516
329.00,8.299
330.00,9.132
331.00,9.915
332.00,10.752
333.00,11.643
334.00,12.482
335.00,13.323
336.00,14.156
337.00,15.029
338.00,15.855
339.00,16.611
340.00,17.361
341.00,18.165
342.00,18.865
343.00,19.543
344.00,20.223
345.00,20.878
346.00,21.453
347.00,22.034
348.00,22.595
349.00,23.091
350.00,23.584
351.00,23.940
352.00,24.383
353.00,24.706
354.00,25.189
355.00,25.541
356.00,25.829
357.00,26.110
358.00,26.425
359.00,26.735
360.00,27.016
361.00,27.188
362.00,27.498
363.00,27.668
364.00,27.790
365.00,27.919
366.00,28.113
367.00,28.191
368.00,28.263
369.00,28.368
370.00,28.451
371.00,28.418
372.00,28.443
373.00,28.580
374.00,28.572
375.00,28.522
376.00,28.552
377.00,28.499
378.00,28.412
379.00,28.382
380.00,28.383
381.00,28.359
382.00,28.391
383.00,28.437
384.00,28.441
385.00,28.520
386.00,28.567
387.00,28.619
388.00,28.714
389.00,28.738
390.00,28.809
391.00,28.856
392.00,28.885
393.00,28.884
394.00,28.953
395.00,28.981
396.00,28.970
397.00,28.995
398.00,29.014
399.00,29.051
400.00,29.087
401.00,29.060
402.00,29.055
403.00,29.029
404.00,29.052
405.00,29.063
406.00,29.055
407.00,28.999
408.00,29.022
409.00,28.980
410.00,28.923
411.00,28.936
412.00,28.909
413.00,28.923
414.00,28.898
415.00,28.901
416.00,28.979
417.00,28.908
418.00,28.914
419.00,28.973
420.00,29.021
421.00,29.141
422.00,29.133
423.00,29.148
424.00,29.194
425.00,29.231
426.00,29.292
427.00,29.370
428.00,29.314
429.00,29.393
430.00,29.399
431.00,29.474
432.00,29.552
433.00,29.589
434.00,29.659
435.00,29.723
436.00,29.767
437.00,29.832
438.00,29.951
439.00,29.967
440.00,30.022
441.00,30.095
442.00,30.188
443.00,30.253
444.00,30.336
445.00,30.443
446.00,30.555
447.00,30.618
448.00,30.738
449.00,30.805
450.00,30.907
451.00,31.021
452.00,31.094
453.00,31.212
454.00,31.311
455.00,31.377
456.00,31.520
457.00,31.615
458.00,31.692
459.00,31.793
460.00,31.938
461.00,32.017
462.00,32.180
463.00,32.312
464.00,32.417
465.00,32.548
466.00,32.685
467.00,32.799
468.00,32.900
469.00,32.948
470.00,33.000
471.00,33.136
472.00,33.246
473.00,33.340
474.00,33.469
475.00,33.536
476.00,33.621
477.00,33.698
478.00,33.830
479.00,34.007
480.00,34.129
481.00,34.260
482.00,34.432
483.00,34.524
484.00,34.708
485.00,34.821
486.00,35.006
487.00,35.106
488.00,35.241
489.00,35.413
490.00,35.483
491.00,35.563
492.00,35.694
493.00,35.876
494.00,35.927
495.00,36.010
496.00,36.128
497.00,36.203
498.00,36.330
499.00,36.524
500.00,36.547
501.00,36.568
502.00,36.735
503.00,36.823
504.00,36.961
505.00,37.067
506.00,37.217
507.00,37.319
508.00,37.438
509.00,37.566
510.00,37.656
511.00,37.731
512.00,37.871
513.00,38.014
514.00,38.074
515.00,38.228
516.00,38.311
517.00,38.344
518.00,38.537
519.00,38.538
520.00,38.534
521.00,38.707
522.00,38.791
523.00,38.750
524.00,38.880
525.00,38.979
526.00,39.009
527.00,39.091
528.00,39.165
529.00,39.300
530.00,39.396
531.00,39.557
532.00,39.616
533.00,39.723
534.00,39.797
535.00,39.864
536.00,39.922
537.00,39.996
538.00,40.057
539.00,40.091
540.00,40.162
541.00,40.194
542.00,40.246
543.00,40.318
544.00,40.461
545.00,40.407
546.00,40.438
547.00,40.552
548.00,40.640
549.00,40.588
550.00,40.661
551.00,40.830
552.00,40.869
553.00,40.786
554.00,40.917
555.00,40.952
556.00,40.952
557.00,41.094
558.00,41.164
559.00,41.106
560.00,41.214
561.00,41.347
562.00,41.352
563.00,41.394
564.00,41.453
565.00,41.483
566.00,41.464
567.00,41.495
568.00,41.511
569.00,41.574
570.00,41.564
571.00,41.584
572.00,41.653
573.00,41.565
574.00,41.579
575.00,41.590
576.00,41.739
577.00,41.676
578.00,41.813
579.00,41.872
580.00,41.843
581.00,42.012
582.00,42.204
583.00,42.108
584.00,42.181
585.00,42.385
586.00,42.384
587.00,42.346
588.00,42.299
589.00,42.230
590.00,42.571
591.00,42.644
592.00,42.555
593.00,42.578
594.00,42.679
595.00,42.692
596.00,42.757
597.00,42.911
598.00,42.851
599.00,42.845
600.00,42.895
601.00,42.905
602.00,42.883
603.00,42.915
604.00,42.911
605.00,42.942
606.00,43.035
607.00,43.005
608.00,43.030
609.00,43.125
610.00,43.308
611.00,43.182
612.00,43.173
613.00,43.193
614.00,43.284
615.00,43.421
616.00,43.337
617.00,43.336
618.00,43.409
619.00,43.503
620.00,43.539
621.00,43.620
622.00,43.704
623.00,43.743
624.00,43.811
625.00,43.812
626.00,43.821
627.00,43.938
628.00,43.885
629.00,43.936
630.00,43.996
631.00,44.032
632.00,44.119
633.00,44.253
634.00,44.279
635.00,44.357
636.00,44.463
637.00,44.409
638.00,44.458
639.00,44.575
640.00,44.523
641.00,44.492
642.00,44.633
643.00,44.656
644.00,44.689
645.00,44.740
646.00,44.924
647.00,44.950
648.00,44.936
649.00,44.927
650.00,44.959
651.00,45.116
652.00,45.161
653.00,45.147
654.00,45.199
655.00,45.394
656.00,45.656
657.00,45.440
658.00,45.486
659.00,45.648
660.00,45.710
661.00,45.721
662.00,45.749
663.00,45.773
664.00,45.997
665.00,46.130
666.00,46.055
667.00,46.111
668.00,45.958
669.00,46.142
670.00,46.474
671.00,46.410
672.00,46.457
673.00,46.521
674.00,46.543
675.00,46.571
676.00,46.818
677.00,46.823
678.00,46.794
679.00,47.114
680.00,47.116
681.00,47.313
682.00,47.201
683.00,47.198
684.00,47.246
685.00,47.282
686.00,47.085
687.00,47.356
688.00,47.444
689.00,47.329
690.00,47.638
691.00,47.886
692.00,47.775
693.00,47.687
694.00,47.842
695.00,47.955
696.00,48.101
697.00,47.870
698.00,47.908
699.00,48.163
700.00,48.075
701.00,48.199
702.00,48.218
703.00,48.228
704.00,48.061
705.00,48.391
706.00,48.806
707.00,48.466
708.00,48.392
709.00,48.716
710.00,49.139
711.00,48.657
712.00,48.760
713.00,48.930
714.00,49.011
715.00,48.901
716.00,48.880
717.00,49.082
718.00,49.164
719.00,49.175
720.00,49.309
721.00,53.756
722.00,53.631
723.00,53.700
724.00,53.631
725.00,53.717
726.00,53.563
727.00,53.649
728.00,53.712
729.00,53.739
730.00,53.650
731.00,53.660
732.00,53.716
733.00,53.743
734.00,53.600
735.00,53.761
736.00,53.785
737.00,53.732
738.00,53.865
739.00,53.727
740.00,53.822
741.00,53.755
742.00,53.847
743.00,53.840
744.00,53.777
745.00,53.810
746.00,53.760
747.00,53.844
748.00,53.726
749.00,53.651
750.00,53.667
751.00,53.780
752.00,53.710
753.00,53.751
754.00,53.660
755.00,53.637
756.00,53.690
757.00,53.634
758.00,53.701
759.00,53.643
760.00,53.651
761.00,53.656
762.00,53.638
763.00,53.677
764.00,53.535
765.00,53.680
766.00,53.654
767.00,53.652
768.00,53.657
769.00,53.702
770.00,53.684
771.00,53.636
772.00,53.691
773.00,53.641
774.00,53.672
775.00,53.580
776.00,53.683
777.00,53.653
778.00,53.581
779.00,53.684
780.00,53.567
781.00,53.696
782.00,53.626
783.00,53.584
784.00,53.620
785.00,53.484
786.00,53.521
787.00,53.498
788.00,53.475
789.00,53.456
790.00,53.377
791.00,53.516
792.00,53.395
793.00,53.328
794.00,53.324
795.00,53.466
796.00,53.335
797.00,53.312
798.00,53.404
799.00,53.247
800.00,53.258
801.00,53.295
802.00,53.269
803.00,53.190
804.00,53.193
805.00,53.263
806.00,53.192
807.00,53.171
808.00,53.149
809.00,53.144
810.00,53.095
811.00,53.111
812.00,53.148
813.00,53.076
814.00,53.118
815.00,53.012
816.00,52.958
817.00,53.023
818.00,52.889
819.00,52.873
820.00,52.907
821.00,52.915
822.00,52.803
823.00,52.852
824.00,52.816
825.00,52.930
826.00,52.773
827.00,52.807
828.00,52.919
829.00,52.712
830.00,52.784
831.00,55.172
832.00,55.184
833.00,55.116
834.00,55.101
835.00,55.063
836.00,55.098
837.00,55.043
838.00,55.048
839.00,55.029
840.00,54.991
841.00,55.010
842.00,54.936
843.00,54.951
844.00,54.926
845.00,54.871
846.00,54.886
847.00,54.852
848.00,54.620
849.00,54.810
850.00,54.771
851.00,54.656
852.00,54.744
853.00,54.613
854.00,54.651
855.00,54.570
856.00,54.599
857.00,54.544
858.00,54.513
859.00,54.502
860.00,54.493
861.00,54.483
862.00,54.463
863.00,54.449
864.00,54.309
865.00,54.434
866.00,54.362
867.00,54.409
868.00,54.333
869.00,54.370
870.00,54.344
871.00,54.333
872.00,54.284
873.00,54.332
874.00,54.270
875.00,54.274
876.00,54.282
877.00,54.240
878.00,54.261
879.00,54.152
880.00,54.235
881.00,54.172
882.00,54.223
883.00,54.109
884.00,54.107
885.00,54.110
886.00,54.126
887.00,54.088
888.00,54.055
889.00,54.026
890.00,54.038
891.00,53.955
892.00,53.977
893.00,53.939
894.00,53.946
895.00,53.882
896.00,53.898
897.00,53.861
898.00,53.818
899.00,53.808
900.00,53.822
901.00,53.806
902.00,53.831
903.00,53.775
904.00,53.807
905.00,53.752
906.00,53.768
907.00,53.682
908.00,53.676
909.00,53.654
910.00,53.600
911.00,53.642
912.00,53.622
913.00,53.571
914.00,53.546
915.00,53.509
916.00,53.526
917.00,53.455
918.00,53.495
919.00,53.456
920.00,53.415
921.00,53.406
922.00,53.369
923.00,53.380
924.00,53.357
925.00,53.342
926.00,53.348
927.00,53.315
928.00,53.304
929.00,53.299
930.00,53.241
931.00,53.256
932.00,53.217
933.00,53.213
934.00,53.084
935.00,53.120
936.00,53.134
937.00,53.144
938.00,53.078
939.00,53.109
940.00,53.058
941.00,53.057
942.00,53.013
943.00,53.026
944.00,52.950
945.00,52.972
946.00,52.969
947.00,52.958
948.00,52.915
949.00,52.861
950.00,52.919
951.00,52.849
952.00,52.835
953.00,52.795
954.00,52.788
955.00,52.733
956.00,52.745
957.00,52.683
958.00,52.705
959.00,52.636
960.00,52.637
961.00,52.618
962.00,52.615
963.00,52.590
964.00,52.600
965.00,52.614
966.00,52.547
967.00,52.542
968.00,52.517
969.00,52.546
970.00,52.528
971.00,52.547
972.00,52.495
973.00,52.551
974.00,52.560
975.00,52.526
976.00,52.545
977.00,52.506
978.00,52.551
979.00,52.489
980.00,52.532
981.00,52.536
982.00,52.513
983.00,52.507
984.00,52.493
985.00,52.528
986.00,52.463
987.00,52.509
988.00,52.457
989.00,52.465
990.00,52.465
991.00,52.448
992.00,52.456
993.00,52.406
994.00,52.409
995.00,52.394
996.00,52.386
997.00,52.385
998.00,52.357
999.00,52.365
1000.00,52.307
1001.00,52.332
1002.00,52.319
1003.00,52.305
1004.00,52.286
1005.00,52.268
1006.00,52.303
1007.00,52.255
1008.00,52.263
1009.00,52.230
1010.00,52.206
1011.00,52.234
1012.00,52.183
1013.00,52.185
1014.00,52.134
1015.00,52.162
1016.00,52.124
1017.00,52.122
1018.00,52.092
1019.00,52.073
1020.00,52.084
1021.00,52.040
1022.00,52.050
1023.00,52.000
1024.00,52.011
1025.00,51.985
1026.00,51.967
1027.00,51.952
1028.00,51.961
1029.00,51.946
1030.00,51.904
1031.00,51.921
1032.00,51.853
1033.00,51.866
1034.00,51.857
1035.00,51.811
1036.00,51.779
1037.00,51.764
1038.00,51.765
1039.00,51.732
1040.00,51.719
1041.00,51.690
1042.00,51.687
1043.00,51.653
1044.00,51.677
1045.00,51.675
1046.00,51.656
1047.00,51.675
1048.00,51.701
1049.00,51.723
1050.00,51.720
1051.00,51.742
1052.00,51.762
1053.00,51.767
1054.00,51.734
1055.00,51.767
1056.00,51.787
1057.00,51.782
1058.00,51.759
1059.00,51.745
1060.00,51.774
1061.00,51.732
1062.00,51.714
1063.00,51.746
1064.00,51.740
1065.00,51.704
1066.00,51.707
1067.00,51.707
1068.00,51.721
1069.00,51.673
1070.00,51.653
1071.00,51.642
1072.00,51.659
1073.00,51.620
1074.00,51.640
1075.00,51.619
1076.00,51.608
1077.00,51.590
1078.00,51.573
1079.00,51.575
1080.00,51.576
1081.00,51.565
1082.00,51.572
1083.00,51.550
1084.00,51.536
1085.00,51.551
1086.00,51.533
1087.00,51.510
1088.00,51.494
1089.00,51.501
1090.00,51.481
1091.00,51.481
1092.00,51.480
1093.00,51.483
1094.00,51.443
1095.00,51.422
1096.00,51.421
1097.00,51.429
1098.00,51.389
1099.00,51.398
1100.00,51.418
1101.00,51.401
1102.00,51.409
1103.00,51.409
1104.00,51.367
1105.00,51.349
1106.00,51.332
1107.00,51.346
1108.00,51.324
1109.00,51.297
1110.00,51.294
1111.00,51.307
1112.00,51.296
1113.00,51.291
1114.00,51.291
1115.00,51.299
1116.00,51.266
1117.00,51.247
1118.00,51.257
1119.00,51.254
1120.00,51.212
1121.00,51.229
1122.00,51.220
1123.00,51.196
1124.00,51.197
1125.00,51.208
1126.00,51.211
1127.00,51.192
1128.00,51.165
1129.00,51.166
1130.00,51.151
1131.00,51.127
1132.00,51.123
1133.00,51.140
1134.00,51.086
1135.00,51.118
1136.00,51.135
1137.00,51.136
1138.00,51.119
1139.00,51.117
1140.00,51.132
1141.00,51.110
1142.00,51.077
1143.00,51.101
1144.00,51.088
1145.00,51.080
1146.00,51.070
1147.00,51.075
1148.00,51.067
1149.00,51.054
1150.00,51.056
1151.00,51.077
1152.00,51.047
1153.00,51.032
1154.00,51.030
1155.00,51.045
1156.00,51.028
1157.00,51.036
1158.00,51.040
1159.00,51.023
1160.00,51.003
1161.00,51.031
1162.00,51.017
1163.00,51.031
1164.00,51.040
1165.00,51.026
1166.00,51.024
1167.00,51.008
1168.00,51.030
1169.00,51.015
1170.00,51.015
1171.00,50.997
1172.00,50.985
1173.00,50.997
1174.00,50.986
1175.00,50.977
1176.00,50.994
1177.00,50.981
1178.00,50.998
1179.00,51.018
1180.00,50.964
1181.00,51.004
1182.00,50.993
1183.00,50.961
1184.00,50.967
1185.00,50.979
1186.00,50.950
1187.00,50.954
1188.00,50.974
1189.00,50.985
1190.00,50.952
1191.00,50.946
1192.00,50.988
1193.00,50.962
1194.00,50.956
1195.00,50.949
1196.00,50.986
1197.00,50.968
1198.00,50.960
1199.00,50.966
1200.00,50.977
1201.00,50.974
1202.00,50.950
1203.00,50.961
1204.00,50.949
1205.00,50.945
1206.00,50.945
1207.00,50.950
1208.00,50.926
1209.00,50.940
1210.00,50.951
1211.00,50.955
1212.00,50.951
1213.00,50.900
1214.00,50.939
1215.00,50.943
1216.00,50.934
1217.00,50.955
1218.00,50.947
1219.00,50.949
1220.00,50.920
1221.00,50.945
1222.00,50.965
1223.00,50.949
1224.00,50.927
1225.00,50.963
1226.00,50.943
1227.00,50.902
1228.00,50.924
1229.00,50.956
1230.00,50.964
1231.00,50.947
1232.00,50.990
1233.00,50.987
1234.00,50.964
1235.00,50.945
1236.00,50.970
1237.00,50.974
1238.00,50.951
1239.00,50.977
1240.00,50.978
1241.00,50.959
1242.00,50.959
1243.00,50.996
1244.00,50.970
1245.00,50.978
1246.00,51.014
1247.00,51.009
1248.00,50.982
1249.00,50.975
1250.00,51.001
1251.00,50.977
1252.00,50.967
1253.00,50.994
1254.00,51.057
1255.00,51.018
1256.00,50.980
1257.00,50.969
1258.00,51.043
1259.00,51.012
1260.00,51.018
1261.00,51.026
1262.00,51.020
1263.00,51.009
1264.00,51.035
1265.00,51.054
1266.00,51.042
1267.00,51.050
1268.00,51.048
1269.00,51.077
1270.00,51.116
1271.00,51.094
1272.00,51.069
1273.00,51.088
1274.00,51.081
1275.00,51.087
1276.00,51.090
1277.00,51.097
1278.00,51.106
1279.00,51.088
1280.00,51.099
1281.00,51.121
1282.00,51.116
1283.00,51.126
1284.00,51.120
1285.00,51.115
1286.00,51.128
1287.00,51.132
1288.00,51.145
1289.00,51.131
1290.00,51.145
1291.00,51.154
1292.00,51.161
1293.00,51.139
1294.00,51.152
1295.00,51.187
1296.00,51.169
1297.00,51.163
1298.00,51.182
1299.00,51.178
1300.00,51.185
1301.00,51.162
1302.00,51.199
1303.00,51.206
1304.00,51.175
1305.00,51.202
1306.00,51.234
1307.00,51.219
1308.00,51.215
1309.00,51.226
1310.00,51.246
1311.00,51.219
1312.00,51.210
1313.00,51.243
1314.00,51.277
1315.00,51.261
1316.00,51.272
1317.00,51.310
1318.00,51.288
1319.00,51.272
1320.00,51.304
1321.00,51.458
1322.00,51.444
1323.00,51.443
1324.00,51.438
1325.00,51.421
1326.00,51.418
1327.00,51.426
1328.00,51.419
1329.00,51.440
1330.00,51.419
1331.00,51.433
1332.00,51.416
1333.00,51.421
1334.00,51.436
1335.00,51.486
1336.00,51.499
1337.00,51.542
1338.00,51.567
1339.00,51.641
1340.00,51.679
1341.00,51.755
1342.00,51.813
1343.00,51.865
1344.00,51.919
1345.00,51.957
1346.00,52.003
1347.00,52.021
1348.00,52.051
1349.00,52.077
1350.00,52.089
1351.00,52.106
1352.00,52.100
1353.00,52.188
1354.00,52.117
1355.00,52.077
1356.00,52.161
1357.00,52.145
1358.00,52.148
1359.00,52.183
1360.00,52.044
1361.00,52.080
1362.00,52.191
1363.00,52.195
1364.00,52.225
1365.00,52.215
1366.00,52.203
1367.00,52.162
1368.00,52.176
1369.00,52.223
1370.00,52.174
1371.00,52.036
1372.00,52.138
1373.00,52.137
1374.00,52.123
1375.00,52.146
1376.00,52.101
1377.00,52.119
1378.00,52.080
1379.00,52.179
1380.00,52.094
1381.00,52.143
1382.00,52.147
1383.00,52.127
1384.00,52.101
1385.00,52.082
1386.00,52.101
1387.00,52.112
1388.00,52.095
1389.00,52.026
1390.00,52.188
1391.00,52.046
1392.00,52.101
1393.00,52.049
1394.00,52.085
1395.00,52.186
1396.00,52.086
1397.00,52.155
1398.00,52.133
1399.00,52.207
1400.00,51.853
1401.00,52.083
1402.00,52.056
1403.00,52.112
1404.00,52.125
1405.00,52.126
1406.00,52.141
1407.00,52.164
1408.00,52.194
1409.00,52.106
1410.00,52.175
1411.00,52.208
1412.00,52.196
1413.00,52.135
1414.00,52.185
1415.00,52.195
1416.00,52.211
1417.00,52.231
1418.00,52.223
1419.00,52.237
1420.00,52.235
1421.00,52.273
1422.00,52.265
1423.00,52.292
1424.00,52.305
1425.00,52.320
1426.00,52.331
1427.00,52.330
1428.00,52.342
1429.00,52.354
1430.00,52.364
1431.00,52.380
1432.00,52.367
1433.00,52.393
1434.00,52.405
1435.00,52.447
1436.00,52.432
1437.00,52.442
1438.00,52.482
1439.00,52.484
1440.00,52.498
1441.00,52.520
1442.00,52.511
1443.00,52.531
1444.00,52.601
1445.00,52.569
1446.00,52.549
1447.00,52.587
1448.00,52.661
1449.00,52.643
1450.00,52.631
1451.00,52.650
1452.00,52.691
1453.00,52.673
1454.00,52.695
1455.00,52.715
1456.00,52.732
1457.00,52.723
1458.00,52.741
1459.00,52.768
1460.00,52.794
1461.00,52.795
1462.00,52.819
1463.00,52.849
1464.00,52.835
1465.00,52.848
1466.00,52.845
1467.00,52.874
1468.00,52.931
1469.00,52.899
1470.00,52.917
1471.00,52.928
1472.00,52.932
1473.00,52.962
1474.00,52.981
1475.00,52.995
1476.00,53.009
1477.00,53.003
1478.00,53.015
1479.00,53.021
1480.00,53.023
1481.00,53.029
1482.00,53.073
1483.00,53.079
1484.00,53.095
1485.00,53.101
1486.00,53.076
1487.00,53.110
1488.00,53.128
1489.00,53.123
1490.00,53.141
1491.00,53.149
1492.00,53.174
1493.00,53.174
1494.00,53.197
1495.00,53.201
1496.00,53.226
1497.00,53.200
1498.00,53.217
1499.00,53.229
1500.00,53.244
1501.00, 
1502.00, 
1503.00, 
1504.00, 
1505.00, 
1506.00, 
1507.00, 
1508.00, 
1509.00, 
1510.00, 
1511.00, 
1512.00, 
1513.00, 
1514.00, 
1515.00, 
1516.00, 
1517.00, 
1518.00, 
1519.00, 
1520.00, 
1521.00, 
1522.00, 
1523.00, 
1524.00, 
1525.00, 
1526.00, 
1527.00, 
1528.00, 
1529.00, 
1530.00, 
1531.00, 
1532.00, 
1533.00, 
1534.00, 
1535.00, 
1536.00, 
1537.00, 
1538.00, 
1539.00, 
1540.00, 
1541.00, 
1542.00, 
1543.00, 
1544.00, 
1545.00, 
1546.00, 
1547.00, 
1548.00, 
1549.00, 
1550.00, 
1551.00, 
1552.00, 
1553.00, 
1554.00, 
1555.00, 
1556.00, 
1557.00, 
1558.00, 
1559.00, 
1560.00, 
1561.00, 
1562.00, 
1563.00, 
1564.00, 
1565.00, 
1566.00, 
1567.00, 
1568.00, 
1569.00, 
1570.00, 
1571.00, 
1572.00, 
1573.00, 
1574.00, 
1575.00, 
1576.00, 
1577.00, 
1578.00, 
1579.00, 
1580.00, 
1581.00, 
1582.00, 
1583.00, 
1584.00, 
1585.00, 
1586.00, 
1587.00, 
1588.00, 
1589.00, 
1590.00, 
1591.00, 
1592.00, 
1593.00, 
1594.00, 
1595.00, 
1596.00, 
1597.00, 
1598.00, 
1599.00, 
1600.00, 
1601.00, 
1602.00, 
1603.00, 
1604.00, 
1605.00, 
1606.00, 
1607.00, 
1608.00, 
1609.00, 
1610.00, 
1611.00, 
1612.00, 
1613.00, 
1614.00, 
1615.00, 
1616.00, 
1617.00, 
1618.00, 
1619.00, 
1620.00, 
1621.00, 
1622.00, 
1623.00, 
1624.00, 
1625.00, 
1626.00, 
1627.00, 
1628.00, 
1629.00, 
1630.00, 
1631.00, 
1632.00, 
1633.00, 
1634.00, 
1635.00, 
1636.00, 
1637.00, 
1638.00, 
1639.00, 
1640.00, 
1641.00, 
1642.00, 
1643.00, 
1644.00, 
1645.00, 
1646.00, 
1647.00, 
1648.00, 
1649.00, 
1650.00, 
1651.00, 
1652.00, 
1653.00, 
1654.00, 
1655.00, 
1656.00, 
1657.00, 
1658.00, 
1659.00, 
1660.00, 
1661.00, 
1662.00, 
1663.00, 
1664.00, 
1665.00, 
1666.00, 
1667.00, 
1668.00, 
1669.00, 
1670.00, 
1671.00, 
1672.00, 
1673.00, 
1674.00, 
1675.00, 
1676.00, 
1677.00, 
1678.00, 
1679.00, 
1680.00, 
1681.00, 
1682.00, 
1683.00, 
1684.00, 
1685.00, 
1686.00, 
1687.00, 
1688.00, 
1689.00, 
1690.00, 
1691.00, 
1692.00, 
1693.00, 
1694.00, 
1695.00, 
1696.00, 
1697.00, 
1698.00, 
1699.00, 
1700.00, 
1701.00, 
1702.00, 
1703.00, 
1704.00, 
1705.00, 
1706.00, 
1707.00, 
1708.00, 
1709.00, 
1710.00, 
1711.00, 
1712.00, 
1713.00, 
1714.00, 
1715.00, 
1716.00, 
1717.00, 
1718.00, 
1719.00, 
1720.00, 
1721.00, 
1722.00, 
1723.00, 
1724.00, 
1725.00, 
1726.00, 
1727.00, 
1728.00, 
1729.00, 
1730.00, 
1731.00, 
1732.00, 
1733.00, 
1734.00, 
1735.00, 
1736.00, 
1737.00, 
1738.00, 
1739.00, 
1740.00, 
1741.00, 
1742.00, 
1743.00, 
1744.00, 
1745.00, 
1746.00, 
1747.00, 
1748.00, 
1749.00, 
1750.00, 
1751.00, 
1752.00, 
1753.00, 
1754.00, 
1755.00, 
1756.00, 
1757.00, 
1758.00, 
1759.00, 
1760.00, 
1761.00, 
1762.00, 
1763.00, 
1764.00, 
1765.00, 
1766.00, 
1767.00, 
1768.00, 
1769.00, 
1770.00, 
1771.00, 
1772.00, 
1773.00, 
1774.00, 
1775.00, 
1776.00, 
1777.00, 
1778.00, 
1779.00, 
1780.00, 
1781.00, 
1782.00, 
1783.00, 
1784.00, 
1785.00, 
1786.00, 
1787.00, 
1788.00, 
1789.00, 
1790.00, 
1791.00, 
1792.00, 
1793.00, 
1794.00, 
1795.00, 
1796.00, 
1797.00, 
1798.00, 
1799.00, 
1800.00, 
1801.00, 
1802.00, 
1803.00, 
1804.00, 
1805.00, 
1806.00, 
1807.00, 
1808.00, 
1809.00, 
1810.00, 
1811.00, 
1812.00, 
1813.00, 
1814.00, 
1815.00, 
1816.00, 
1817.00, 
1818.00, 
1819.00, 
1820.00, 
1821.00, 
1822.00, 
1823.00, 
1824.00, 
1825.00, 
1826.00, 
1827.00, 
1828.00, 
1829.00, 
1830.00, 
1831.00, 
1832.00, 
1833.00, 
1834.00, 
1835.00, 
1836.00, 
1837.00, 
1838.00, 
1839.00, 
1840.00, 
1841.00, 
1842.00, 
1843.00, 
1844.00, 
1845.00, 
1846.00, 
1847.00, 
1848.00, 
1849.00, 
1850.00, 
1851.00, 
1852.00, 
1853.00, 
1854.00, 
1855.00, 
1856.00, 
1857.00, 
1858.00, 
1859.00, 
1860.00, 
1861.00, 
1862.00, 
1863.00, 
1864.00, 
1865.00, 
1866.00, 
1867.00, 
1868.00, 
1869.00, 
1870.00, 
1871.00, 
1872.00, 
1873.00, 
1874.00, 
1875.00, 
1876.00, 
1877.00, 
1878.00, 
1879.00, 
1880.00, 
1881.00, 
1882.00, 
1883.00, 
1884.00, 
1885.00, 
1886.00, 
1887.00, 
1888.00, 
1889.00, 
1890.00, 
1891.00, 
1892.00, 
1893.00, 
1894.00, 
1895.00, 
1896.00, 
1897.00, 
1898.00, 
1899.00, 
1900.00, 
1901.00, 
1902.00, 
1903.00, 
1904.00, 
1905.00, 
1906.00, 
1907.00, 
1908.00, 
1909.00, 
1910.00, 
1911.00, 
1912.00, 
1913.00, 
1914.00, 
1915.00, 
1916.00, 
1917.00, 
1918.00, 
1919.00, 
1920.00, 
1921.00, 
1922.00, 
1923.00, 
1924.00, 
1925.00, 
1926.00, 
1927.00, 
1928.00, 
1929.00, 
1930.00, 
1931.00, 
1932.00, 
1933.00, 
1934.00, 
1935.00, 
1936.00, 
1937.00, 
1938.00, 
1939.00, 
1940.00, 
1941.00, 
1942.00, 
1943.00, 
1944.00, 
1945.00, 
1946.00, 
1947.00, 
1948.00, 
1949.00, 
1950.00, 
1951.00, 
1952.00, 
1953.00, 
1954.00, 
1955.00, 
1956.00, 
1957.00, 
1958.00, 
1959.00, 
1960.00, 
1961.00, 
1962.00, 
1963.00, 
1964.00, 
1965.00, 
1966.00, 
1967.00, 
1968.00, 
1969.00, 
1970.00, 
1971.00, 
1972.00, 
1973.00, 
1974.00, 
1975.00, 
1976.00, 
1977.00, 
1978.00, 
1979.00, 
1980.00, 
1981.00, 
1982.00, 
1983.00, 
1984.00, 
1985.00, 
1986.00, 
1987.00, 
1988.00, 
1989.00, 
1990.00, 
1991.00, 
1992.00, 
1993.00, 
1994.00, 
1995.00, 
1996.00, 
1997.00, 
1998.00, 
1999.00, 
2000.00, 
2001.00, 
2002.00, 
2003.00, 
2004.00, 
2005.00, 
2006.00, 
2007.00, 
2008.00, 
2009.00, 
2010.00, 
2011.00, 
2012.00, 
2013.00, 
2014.00, 
2015.00, 
2016.00, 
2017.00, 
2018.00, 
2019.00, 
2020.00, 
2021.00, 
2022.00, 
2023.00, 
2024.00, 
2025.00, 
2026.00, 
2027.00, 
2028.00, 
2029.00, 
2030.00, 
2031.00, 
2032.00, 
2033.00, 
2034.00, 
2035.00, 
2036.00, 
2037.00, 
2038.00, 
2039.00, 
2040.00, 
2041.00, 
2042.00, 
2043.00, 
2044.00, 
2045.00, 
2046.00, 
2047.00, 
2048.00, 
2049.00, 
2050.00, 
2051.00, 
2052.00, 
2053.00, 
2054.00, 
2055.00, 
2056.00, 
2057.00, 
2058.00, 
2059.00, 
2060.00, 
2061.00, 
2062.00, 
2063.00, 
2064.00, 
2065.00, 
2066.00, 
2067.00, 
2068.00, 
2069.00, 
2070.00, 
2071.00, 
2072.00, 
2073.00, 
2074.00, 
2075.00, 
2076.00, 
2077.00, 
2078.00, 
2079.00, 
2080.00, 
2081.00, 
2082.00, 
2083.00, 
2084.00, 
2085.00, 
2086.00, 
2087.00, 
2088.00, 
2089.00, 
2090.00, 
2091.00, 
2092.00, 
2093.00, 
2094.00, 
2095.00, 
2096.00, 
2097.00, 
2098.00, 
2099.00, 
2100.00, 
2101.00, 
2102.00, 
2103.00, 
2104.00, 
2105.00, 
2106.00, 
2107.00, 
2108.00, 
2109.00, 
2110.00, 
2111.00, 
2112.00, 
2113.00, 
2114.00, 
2115.00, 
2116.00, 
2117.00, 
2118.00, 
2119.00, 
2120.00, 
2121.00, 
2122.00, 
2123.00, 
2124.00, 
2125.00, 
2126.00, 
2127.00, 
2128.00, 
2129.00, 
2130.00, 
2131.00, 
2132.00, 
2133.00, 
2134.00, 
2135.00, 
2136.00, 
2137.00, 
2138.00, 
2139.00, 
2140.00, 
2141.00, 
2142.00, 
2143.00, 
2144.00, 
2145.00, 
2146.00, 
2147.00, 
2148.00, 
2149.00, 
2150.00, 
2151.00, 
2152.00, 
2153.00, 
2154.00, 
2155.00, 
2156.00, 
2157.00, 
2158.00, 
2159.00, 
2160.00, 
2161.00, 
2162.00, 
2163.00, 
2164.00, 
2165.00, 
2166.00, 
2167.00, 
2168.00, 
2169.00, 
2170.00, 
2171.00, 
2172.00, 
2173.00, 
2174.00, 
2175.00, 
2176.00, 
2177.00, 
2178.00, 
2179.00, 
2180.00, 
2181.00, 
2182.00, 
2183.00, 
2184.00, 
2185.00, 
2186.00, 
2187.00, 
2188.00, 
2189.00, 
2190.00, 
2191.00, 
2192.00, 
2193.00, 
2194.00, 
2195.00, 
2196.00, 
2197.00, 
2198.00, 
2199.00, 
2200.00, 
2201.00, 
2202.00, 
2203.00, 
2204.00, 
2205.00, 
2206.00, 
2207.00, 
2208.00, 
2209.00, 
2210.00, 
2211.00, 
2212.00, 
2213.00, 
2214.00, 
2215.00, 
2216.00, 
2217.00, 
2218.00, 
2219.00, 
2220.00, 
2221.00, 
2222.00, 
2223.00, 
2224.00, 
2225.00, 
2226.00, 
2227.00, 
2228.00, 
2229.00, 
2230.00, 
2231.00, 
2232.00, 
2233.00, 
2234.00, 
2235.00, 
2236.00, 
2237.00, 
2238.00, 
2239.00, 
2240.00, 
2241.00, 
2242.00, 
2243.00, 
2244.00, 
2245.00, 
2246.00, 
2247.00, 
2248.00, 
2249.00, 
2250.00, 
2251.00, 
2252.00, 
2253.00, 
2254.00, 
2255.00, 
2256.00, 
2257.00, 
2258.00, 
2259.00, 
2260.00, 
2261.00, 
2262.00, 
2263.00, 
2264.00, 
2265.00, 
2266.00, 
2267.00, 
2268.00, 
2269.00, 
2270.00, 
2271.00, 
2272.00, 
2273.00, 
2274.00, 
2275.00, 
2276.00, 
2277.00, 
2278.00, 
2279.00, 
2280.00, 
2281.00, 
2282.00, 
2283.00, 
2284.00, 
2285.00, 
2286.00, 
2287.00, 
2288.00, 
2289.00, 
2290.00, 
2291.00, 
2292.00, 
2293.00, 
2294.00, 
2295.00, 
2296.00, 
2297.00, 
2298.00, 
2299.00, 
2300.00, 
2301.00, 
2302.00, 
2303.00, 
2304.00, 
2305.00, 
2306.00, 
2307.00, 
2308.00, 
2309.00, 
2310.00, 
2311.00, 
2312.00, 
2313.00, 
2314.00, 
2315.00, 
2316.00, 
2317.00, 
2318.00, 
2319.00, 
2320.00, 
2321.00, 
2322.00, 
2323.00, 
2324.00, 
2325.00, 
2326.00, 
2327.00, 
2328.00, 
2329.00, 
2330.00, 
2331.00, 
2332.00, 
2333.00, 
2334.00, 
2335.00, 
2336.00, 
2337.00, 
2338.00, 
2339.00, 
2340.00, 
2341.00, 
2342.00, 
2343.00, 
2344.00, 
2345.00, 
2346.00, 
2347.00, 
2348.00, 
2349.00, 
2350.00, 
2351.00, 
2352.00, 
2353.00, 
2354.00, 
2355.00, 
2356.00, 
2357.00, 
2358.00, 
2359.00, 
2360.00, 
2361.00, 
2362.00, 
2363.00, 
2364.00, 
2365.00, 
2366.00, 
2367.00, 
2368.00, 
2369.00, 
2370.00, 
2371.00, 
2372.00, 
2373.00, 
2374.00, 
2375.00, 
2376.00, 
2377.00, 
2378.00, 
2379.00, 
2380.00, 
2381.00, 
2382.00, 
2383.00, 
2384.00, 
2385.00, 
2386.00, 
2387.00, 
2388.00, 
2389.00, 
2390.00, 
2391.00, 
2392.00, 
2393.00, 
2394.00, 
2395.00, 
2396.00, 
2397.00, 
2398.00, 
2399.00, 
2400.00, 
2401.00, 
2402.00, 
2403.00, 
2404.00, 
2405.00, 
2406.00, 
2407.00, 
2408.00, 
2409.00, 
2410.00, 
2411.00, 
2412.00, 
2413.00, 
2414.00, 
2415.00, 
2416.00, 
2417.00, 
2418.00, 
2419.00, 
2420.00, 
2421.00, 
2422.00, 
2423.00, 
2424.00, 
2425.00, 
2426.00, 
2427.00, 
2428.00, 
2429.00, 
2430.00, 
2431.00, 
2432.00, 
2433.00, 
2434.00, 
2435.00, 
2436.00, 
2437.00, 
2438.00, 
2439.00, 
2440.00, 
2441.00, 
2442.00, 
2443.00, 
2444.00, 
2445.00, 
2446.00, 
2447.00, 
2448.00, 
2449.00, 
2450.00, 
2451.00, 
2452.00, 
2453.00, 
2454.00, 
2455.00, 
2456.00, 
2457.00, 
2458.00, 
2459.00, 
2460.00, 
2461.00, 
2462.00, 
2463.00, 
2464.00, 
2465.00, 
2466.00, 
2467.00, 
2468.00, 
2469.00, 
2470.00, 
2471.00, 
2472.00, 
2473.00, 
2474.00, 
2475.00, 
2476.00, 
2477.00, 
2478.00, 
2479.00, 
2480.00, 
2481.00, 
2482.00, 
2483.00, 
2484.00, 
2485.00, 
2486.00, 
2487.00, 
2488.00, 
2489.00, 
2490.00, 
2491.00, 
2492.00, 
2493.00, 
2494.00, 
2495.00, 
2496.00, 
2497.00, 
2498.00, 
2499.00, 
2500.00, 
2501.00, 
2502.00, 
2503.00, 
2504.00, 
2505.00, 
2506.00, 
2507.00, 
2508.00, 
2509.00, 
2510.00, 
2511.00, 
2512.00, 
2513.00, 
2514.00, 
2515.00, 
2516.00, 
2517.00, 
2518.00, 
2519.00, 
2520.00, 
2521.00, 
2522.00, 
2523.00, 
2524.00, 
2525.00, 
2526.00, 
2527.00, 
2528.00, 
2529.00, 
2530.00, 
2531.00, 
2532.00, 
2533.00, 
2534.00, 
2535.00, 
2536.00, 
2537.00, 
2538.00, 
2539.00, 
2540.00, 
2541.00, 
2542.00, 
2543.00, 
2544.00, 
2545.00, 
2546.00, 
2547.00, 
2548.00, 
2549.00, 
2550.00, 
2551.00, 
2552.00, 
2553.00, 
2554.00, 
2555.00, 
2556.00, 
2557.00, 
2558.00, 
2559.00, 
2560.00, 
2561.00, 
2562.00, 
2563.00, 
2564.00, 
2565.00, 
2566.00, 
2567.00, 
2568.00, 
2569.00, 
2570.00, 
2571.00, 
2572.00, 
2573.00, 
2574.00, 
2575.00, 
2576.00, 
2577.00, 
2578.00, 
2579.00, 
2580.00, 
2581.00, 
2582.00, 
2583.00, 
2584.00, 
2585.00, 
2586.00, 
2587.00, 
2588.00, 
2589.00, 
2590.00, 
2591.00, 
2592.00, 
2593.00, 
2594.00, 
2595.00, 
2596.00, 
2597.00, 
2598.00, 
2599.00, 
2600.00, 
