"2cP2 - RawData"
"Wavelength nm.","T%"
200.00,0.003
201.00,0.004
202.00,0.006
203.00,0.002
204.00,0.002
205.00,0.003
206.00,0.002
207.00,0.001
208.00,0.004
209.00,0.004
210.00,0.001
211.00,0.000
212.00,0.002
213.00,0.001
214.00,0.001
215.00,0.002
216.00,0.003
217.00,0.001
218.00,0.003
219.00,-0.000
220.00,-0.001
221.00,0.004
222.00,0.003
223.00,-0.000
224.00,0.002
225.00,0.001
226.00,-0.001
227.00,0.000
228.00,0.001
229.00,0.002
230.00,0.002
231.00,0.001
232.00,0.000
233.00,0.000
234.00,-0.000
235.00,0.001
236.00,0.001
237.00,0.000
238.00,0.000
239.00,0.002
240.00,0.001
241.00,0.001
242.00,0.001
243.00,0.002
244.00,0.000
245.00,0.001
246.00,0.001
247.00,-0.000
248.00,-0.000
249.00,0.003
250.00,-0.000
251.00,-0.000
252.00,0.003
253.00,0.000
254.00,-0.000
255.00,-0.000
256.00,-0.001
257.00,-0.000
258.00,0.000
259.00,0.002
260.00,-0.001
261.00,0.001
262.00,-0.001
263.00,0.000
264.00,0.002
265.00,-0.001
266.00,0.000
267.00,0.000
268.00,0.002
269.00,-0.001
270.00,0.001
271.00,0.000
272.00,-0.000
273.00,0.002
274.00,0.001
275.00,-0.001
276.00,0.000
277.00,0.001
278.00,0.002
279.00,-0.000
280.00,-0.001
281.00,0.001
282.00,-0.000
283.00,0.000
284.00,0.001
285.00,0.002
286.00,-0.000
287.00,-0.001
288.00,-0.001
289.00,0.002
290.00,0.002
291.00,0.001
292.00,-0.001
293.00,0.000
294.00,-0.000
295.00,-0.000
296.00,0.000
297.00,0.001
298.00,0.002
299.00,0.003
300.00,0.006
301.00,0.008
302.00,0.011
303.00,0.017
304.00,0.025
305.00,0.041
306.00,0.061
307.00,0.094
308.00,0.144
309.00,0.226
310.00,0.317
311.00,0.412
312.00,0.574
313.00,0.781
314.00,1.021
315.00,1.323
316.00,1.691
317.00,2.149
318.00,2.630
319.00,3.237
320.00,3.918
321.00,4.701
322.00,5.546
323.00,6.520
324.00,7.528
325.00,8.613
326.00,9.683
327.00,10.930
328.00,12.159
329.00,13.461
330.00,14.808
331.00,16.182
332.00,17.506
333.00,18.941
334.00,20.411
335.00,21.806
336.00,23.196
337.00,24.565
338.00,25.990
339.00,27.290
340.00,28.518
341.00,29.771
342.00,30.964
343.00,32.066
344.00,33.282
345.00,34.330
346.00,35.349
347.00,36.332
348.00,37.228
349.00,38.066
350.00,38.907
351.00,39.618
352.00,40.312
353.00,40.964
354.00,41.725
355.00,42.358
356.00,42.897
357.00,43.506
358.00,43.980
359.00,44.510
360.00,44.997
361.00,45.410
362.00,45.923
363.00,46.280
364.00,46.685
365.00,46.847
366.00,47.170
367.00,47.447
368.00,47.603
369.00,47.810
370.00,48.029
371.00,48.172
372.00,48.224
373.00,48.402
374.00,48.530
375.00,48.485
376.00,48.574
377.00,48.517
378.00,48.580
379.00,48.551
380.00,48.575
381.00,48.691
382.00,48.781
383.00,48.881
384.00,49.067
385.00,49.278
386.00,49.482
387.00,49.472
388.00,49.721
389.00,49.865
390.00,50.103
391.00,50.267
392.00,50.401
393.00,50.502
394.00,50.612
395.00,50.703
396.00,50.753
397.00,50.901
398.00,50.918
399.00,51.048
400.00,51.287
401.00,51.173
402.00,51.258
403.00,51.240
404.00,51.296
405.00,51.329
406.00,51.362
407.00,51.366
408.00,51.407
409.00,51.258
410.00,51.232
411.00,51.257
412.00,51.217
413.00,51.195
414.00,51.186
415.00,51.155
416.00,51.230
417.00,51.161
418.00,51.174
419.00,51.235
420.00,51.295
421.00,51.445
422.00,51.430
423.00,51.473
424.00,51.522
425.00,51.460
426.00,51.525
427.00,51.584
428.00,51.523
429.00,51.575
430.00,51.538
431.00,51.557
432.00,51.532
433.00,51.585
434.00,51.618
435.00,51.681
436.00,51.607
437.00,51.703
438.00,51.740
439.00,51.718
440.00,51.731
441.00,51.782
442.00,51.787
443.00,51.780
444.00,51.886
445.00,51.939
446.00,51.856
447.00,51.977
448.00,51.995
449.00,52.075
450.00,52.098
451.00,52.123
452.00,52.129
453.00,52.223
454.00,52.212
455.00,52.212
456.00,52.298
457.00,52.299
458.00,52.270
459.00,52.349
460.00,52.432
461.00,52.437
462.00,52.485
463.00,52.521
464.00,52.551
465.00,52.523
466.00,52.606
467.00,52.624
468.00,52.615
469.00,52.569
470.00,52.564
471.00,52.557
472.00,52.507
473.00,52.564
474.00,52.674
475.00,52.603
476.00,52.462
477.00,52.530
478.00,52.525
479.00,52.667
480.00,52.687
481.00,52.730
482.00,52.797
483.00,52.825
484.00,52.933
485.00,52.964
486.00,53.027
487.00,53.121
488.00,53.176
489.00,53.277
490.00,53.229
491.00,53.149
492.00,53.132
493.00,53.183
494.00,53.323
495.00,53.292
496.00,53.280
497.00,53.295
498.00,53.319
499.00,53.419
500.00,53.400
501.00,53.375
502.00,53.428
503.00,53.460
504.00,53.336
505.00,53.447
506.00,53.475
507.00,53.473
508.00,53.413
509.00,53.596
510.00,53.629
511.00,53.515
512.00,53.657
513.00,53.681
514.00,53.606
515.00,53.788
516.00,53.847
517.00,53.599
518.00,53.643
519.00,53.749
520.00,53.631
521.00,53.753
522.00,53.821
523.00,53.666
524.00,53.691
525.00,53.782
526.00,53.696
527.00,53.675
528.00,53.615
529.00,53.731
530.00,53.913
531.00,53.894
532.00,53.934
533.00,53.983
534.00,54.001
535.00,53.983
536.00,54.028
537.00,54.056
538.00,54.054
539.00,53.999
540.00,54.073
541.00,54.010
542.00,53.956
543.00,54.090
544.00,54.186
545.00,54.048
546.00,53.950
547.00,54.090
548.00,54.210
549.00,54.109
550.00,54.194
551.00,54.264
552.00,54.243
553.00,54.180
554.00,54.212
555.00,54.174
556.00,54.161
557.00,54.201
558.00,54.165
559.00,54.292
560.00,54.314
561.00,54.167
562.00,54.205
563.00,54.323
564.00,54.217
565.00,54.260
566.00,54.191
567.00,54.167
568.00,54.220
569.00,54.255
570.00,54.202
571.00,54.199
572.00,54.204
573.00,54.108
574.00,54.162
575.00,54.169
576.00,54.124
577.00,54.018
578.00,54.263
579.00,54.310
580.00,54.207
581.00,54.403
582.00,54.550
583.00,54.430
584.00,54.451
585.00,54.502
586.00,54.510
587.00,54.581
588.00,54.514
589.00,54.440
590.00,54.708
591.00,54.647
592.00,54.493
593.00,54.488
594.00,54.624
595.00,54.573
596.00,54.626
597.00,54.884
598.00,54.659
599.00,54.595
600.00,54.603
601.00,54.566
602.00,54.566
603.00,54.584
604.00,54.515
605.00,54.456
606.00,54.564
607.00,54.451
608.00,54.370
609.00,54.478
610.00,54.651
611.00,54.433
612.00,54.445
613.00,54.524
614.00,54.371
615.00,54.505
616.00,54.551
617.00,54.458
618.00,54.337
619.00,54.305
620.00,54.355
621.00,54.441
622.00,54.470
623.00,54.375
624.00,54.408
625.00,54.432
626.00,54.374
627.00,54.387
628.00,54.297
629.00,54.332
630.00,54.286
631.00,54.329
632.00,54.331
633.00,54.382
634.00,54.267
635.00,54.448
636.00,54.423
637.00,54.281
638.00,54.226
639.00,54.348
640.00,54.300
641.00,54.255
642.00,54.249
643.00,54.282
644.00,54.279
645.00,54.143
646.00,54.269
647.00,54.273
648.00,54.215
649.00,54.120
650.00,54.021
651.00,54.132
652.00,54.173
653.00,53.943
654.00,53.942
655.00,54.146
656.00,54.225
657.00,53.902
658.00,54.061
659.00,54.085
660.00,54.031
661.00,53.986
662.00,53.926
663.00,53.889
664.00,54.149
665.00,54.124
666.00,53.951
667.00,53.891
668.00,53.753
669.00,53.855
670.00,54.022
671.00,53.935
672.00,53.992
673.00,53.861
674.00,53.773
675.00,53.774
676.00,53.940
677.00,53.946
678.00,53.696
679.00,53.764
680.00,53.808
681.00,53.929
682.00,53.649
683.00,53.577
684.00,53.680
685.00,53.671
686.00,53.408
687.00,53.412
688.00,53.471
689.00,53.362
690.00,53.594
691.00,53.796
692.00,53.512
693.00,53.290
694.00,53.262
695.00,53.359
696.00,53.438
697.00,53.208
698.00,53.203
699.00,53.485
700.00,53.340
701.00,53.117
702.00,53.083
703.00,53.206
704.00,53.118
705.00,52.970
706.00,53.005
707.00,53.035
708.00,52.800
709.00,53.071
710.00,53.464
711.00,52.786
712.00,52.851
713.00,52.917
714.00,52.984
715.00,52.895
716.00,52.765
717.00,52.818
718.00,52.744
719.00,52.793
720.00,52.856
721.00,57.369
722.00,57.244
723.00,57.172
724.00,57.002
725.00,56.948
726.00,56.898
727.00,56.888
728.00,56.778
729.00,56.843
730.00,56.670
731.00,56.627
732.00,56.630
733.00,56.448
734.00,56.514
735.00,56.440
736.00,56.316
737.00,56.319
738.00,56.306
739.00,56.238
740.00,56.120
741.00,56.163
742.00,56.147
743.00,55.993
744.00,55.912
745.00,55.855
746.00,55.789
747.00,55.728
748.00,55.665
749.00,55.526
750.00,55.507
751.00,55.530
752.00,55.357
753.00,55.307
754.00,55.180
755.00,55.228
756.00,55.132
757.00,55.136
758.00,55.114
759.00,55.019
760.00,55.034
761.00,54.919
762.00,54.884
763.00,54.855
764.00,54.823
765.00,54.750
766.00,54.643
767.00,54.686
768.00,54.634
769.00,54.734
770.00,54.591
771.00,54.574
772.00,54.562
773.00,54.387
774.00,54.522
775.00,54.362
776.00,54.352
777.00,54.345
778.00,54.286
779.00,54.305
780.00,54.231
781.00,54.151
782.00,54.129
783.00,54.091
784.00,54.036
785.00,54.000
786.00,53.979
787.00,53.899
788.00,53.750
789.00,53.800
790.00,53.760
791.00,53.716
792.00,53.715
793.00,53.590
794.00,53.573
795.00,53.565
796.00,53.511
797.00,53.512
798.00,53.479
799.00,53.346
800.00,53.369
801.00,53.332
802.00,53.267
803.00,53.127
804.00,53.155
805.00,53.262
806.00,53.135
807.00,53.093
808.00,53.058
809.00,53.058
810.00,52.894
811.00,52.898
812.00,52.983
813.00,52.829
814.00,52.800
815.00,52.736
816.00,52.731
817.00,52.771
818.00,52.654
819.00,52.626
820.00,52.575
821.00,52.557
822.00,52.429
823.00,52.455
824.00,52.463
825.00,52.485
826.00,52.404
827.00,52.343
828.00,52.508
829.00,52.279
830.00,52.315
831.00,54.875
832.00,54.829
833.00,54.767
834.00,54.765
835.00,54.708
836.00,54.722
837.00,54.661
838.00,54.621
839.00,54.596
840.00,54.565
841.00,54.573
842.00,54.486
843.00,54.449
844.00,54.469
845.00,54.381
846.00,54.394
847.00,54.379
848.00,54.130
849.00,54.224
850.00,54.209
851.00,54.125
852.00,54.163
853.00,54.044
854.00,54.072
855.00,53.945
856.00,53.937
857.00,54.113
858.00,53.897
859.00,53.856
860.00,53.819
861.00,53.807
862.00,53.789
863.00,53.783
864.00,53.707
865.00,53.746
866.00,53.700
867.00,53.695
868.00,53.646
869.00,53.649
870.00,53.611
871.00,53.540
872.00,53.708
873.00,53.604
874.00,53.520
875.00,53.540
876.00,53.574
877.00,53.483
878.00,53.477
879.00,53.441
880.00,53.419
881.00,53.386
882.00,53.414
883.00,53.317
884.00,53.327
885.00,53.295
886.00,53.288
887.00,53.268
888.00,53.227
889.00,53.205
890.00,53.194
891.00,53.125
892.00,53.126
893.00,53.077
894.00,53.086
895.00,53.036
896.00,53.015
897.00,52.988
898.00,52.967
899.00,52.928
900.00,52.935
901.00,52.923
902.00,52.925
903.00,52.889
904.00,52.869
905.00,52.834
906.00,52.855
907.00,52.795
908.00,52.758
909.00,52.752
910.00,52.698
911.00,52.721
912.00,52.709
913.00,52.649
914.00,52.609
915.00,52.562
916.00,52.596
917.00,52.477
918.00,52.534
919.00,52.494
920.00,52.452
921.00,52.441
922.00,52.449
923.00,52.426
924.00,52.361
925.00,52.410
926.00,52.559
927.00,52.339
928.00,52.306
929.00,52.298
930.00,52.261
931.00,52.278
932.00,52.218
933.00,52.203
934.00,52.176
935.00,52.157
936.00,52.136
937.00,52.125
938.00,52.093
939.00,52.099
940.00,52.051
941.00,52.055
942.00,52.002
943.00,52.019
944.00,51.956
945.00,51.961
946.00,51.934
947.00,51.903
948.00,51.883
949.00,51.854
950.00,51.841
951.00,51.812
952.00,51.786
953.00,51.763
954.00,51.756
955.00,51.704
956.00,51.706
957.00,51.693
958.00,51.656
959.00,51.615
960.00,51.605
961.00,51.579
962.00,51.583
963.00,51.543
964.00,51.548
965.00,51.522
966.00,51.499
967.00,51.516
968.00,51.480
969.00,51.487
970.00,51.486
971.00,51.486
972.00,51.435
973.00,51.516
974.00,51.494
975.00,51.476
976.00,51.483
977.00,51.447
978.00,51.496
979.00,51.458
980.00,51.476
981.00,51.485
982.00,51.458
983.00,51.458
984.00,51.441
985.00,51.457
986.00,51.406
987.00,51.421
988.00,51.398
989.00,51.382
990.00,51.384
991.00,51.348
992.00,51.384
993.00,51.345
994.00,51.333
995.00,51.330
996.00,51.306
997.00,51.307
998.00,51.265
999.00,51.282
1000.00,51.238
1001.00,51.252
1002.00,51.217
1003.00,51.223
1004.00,51.212
1005.00,51.169
1006.00,51.209
1007.00,51.167
1008.00,51.159
1009.00,51.130
1010.00,51.123
1011.00,51.121
1012.00,51.085
1013.00,51.091
1014.00,51.049
1015.00,51.063
1016.00,51.029
1017.00,51.029
1018.00,50.992
1019.00,50.954
1020.00,50.960
1021.00,50.933
1022.00,50.929
1023.00,50.888
1024.00,50.893
1025.00,50.878
1026.00,50.870
1027.00,50.847
1028.00,50.852
1029.00,50.829
1030.00,50.801
1031.00,50.818
1032.00,50.774
1033.00,50.787
1034.00,50.803
1035.00,50.711
1036.00,50.688
1037.00,50.676
1038.00,50.659
1039.00,50.647
1040.00,50.641
1041.00,50.595
1042.00,50.579
1043.00,50.543
1044.00,50.584
1045.00,50.578
1046.00,50.570
1047.00,50.592
1048.00,50.609
1049.00,50.617
1050.00,50.614
1051.00,50.649
1052.00,50.654
1053.00,50.650
1054.00,50.636
1055.00,50.666
1056.00,50.678
1057.00,50.670
1058.00,50.662
1059.00,50.644
1060.00,50.656
1061.00,50.648
1062.00,50.627
1063.00,50.652
1064.00,50.636
1065.00,50.627
1066.00,50.617
1067.00,50.612
1068.00,50.624
1069.00,50.589
1070.00,50.569
1071.00,50.545
1072.00,50.563
1073.00,50.530
1074.00,50.547
1075.00,50.522
1076.00,50.516
1077.00,50.515
1078.00,50.497
1079.00,50.491
1080.00,50.498
1081.00,50.480
1082.00,50.469
1083.00,50.461
1084.00,50.450
1085.00,50.450
1086.00,50.445
1087.00,50.435
1088.00,50.418
1089.00,50.424
1090.00,50.407
1091.00,50.399
1092.00,50.384
1093.00,50.380
1094.00,50.367
1095.00,50.345
1096.00,50.332
1097.00,50.330
1098.00,50.316
1099.00,50.314
1100.00,50.318
1101.00,50.293
1102.00,50.285
1103.00,50.280
1104.00,50.273
1105.00,50.272
1106.00,50.252
1107.00,50.249
1108.00,50.248
1109.00,50.244
1110.00,50.267
1111.00,50.229
1112.00,50.214
1113.00,50.206
1114.00,50.209
1115.00,50.205
1116.00,50.195
1117.00,50.173
1118.00,50.172
1119.00,50.160
1120.00,50.148
1121.00,50.153
1122.00,50.144
1123.00,50.123
1124.00,50.138
1125.00,50.144
1126.00,50.116
1127.00,50.109
1128.00,50.097
1129.00,50.083
1130.00,50.073
1131.00,50.068
1132.00,50.052
1133.00,50.058
1134.00,50.003
1135.00,50.038
1136.00,50.042
1137.00,50.042
1138.00,50.039
1139.00,50.028
1140.00,50.035
1141.00,50.013
1142.00,50.013
1143.00,50.019
1144.00,50.002
1145.00,49.995
1146.00,50.009
1147.00,49.996
1148.00,49.991
1149.00,50.004
1150.00,50.002
1151.00,49.999
1152.00,49.984
1153.00,49.977
1154.00,49.974
1155.00,49.970
1156.00,49.947
1157.00,49.953
1158.00,49.954
1159.00,49.946
1160.00,49.952
1161.00,49.952
1162.00,49.949
1163.00,49.954
1164.00,49.953
1165.00,49.954
1166.00,49.964
1167.00,49.931
1168.00,49.948
1169.00,49.944
1170.00,49.956
1171.00,49.942
1172.00,49.917
1173.00,49.935
1174.00,49.930
1175.00,49.929
1176.00,49.935
1177.00,49.930
1178.00,49.923
1179.00,49.944
1180.00,49.945
1181.00,49.941
1182.00,49.928
1183.00,49.913
1184.00,49.912
1185.00,49.917
1186.00,49.912
1187.00,49.904
1188.00,49.904
1189.00,49.903
1190.00,49.902
1191.00,49.905
1192.00,49.913
1193.00,49.905
1194.00,49.916
1195.00,49.888
1196.00,49.904
1197.00,49.914
1198.00,49.924
1199.00,49.922
1200.00,49.933
1201.00,49.959
1202.00,49.904
1203.00,49.893
1204.00,49.882
1205.00,49.890
1206.00,49.894
1207.00,49.901
1208.00,49.878
1209.00,49.887
1210.00,49.904
1211.00,49.892
1212.00,49.906
1213.00,49.869
1214.00,49.889
1215.00,49.886
1216.00,49.885
1217.00,49.911
1218.00,49.883
1219.00,49.892
1220.00,49.880
1221.00,49.896
1222.00,49.897
1223.00,49.914
1224.00,49.921
1225.00,49.914
1226.00,49.916
1227.00,49.897
1228.00,49.905
1229.00,49.932
1230.00,49.945
1231.00,49.939
1232.00,49.963
1233.00,49.954
1234.00,49.969
1235.00,49.953
1236.00,49.960
1237.00,49.957
1238.00,49.946
1239.00,49.960
1240.00,49.949
1241.00,49.946
1242.00,49.958
1243.00,49.991
1244.00,49.949
1245.00,49.979
1246.00,50.004
1247.00,49.994
1248.00,49.978
1249.00,49.985
1250.00,50.008
1251.00,49.997
1252.00,49.992
1253.00,49.982
1254.00,50.014
1255.00,50.015
1256.00,49.968
1257.00,49.983
1258.00,50.047
1259.00,50.035
1260.00,50.046
1261.00,50.042
1262.00,50.028
1263.00,50.029
1264.00,50.044
1265.00,50.056
1266.00,50.042
1267.00,50.050
1268.00,50.062
1269.00,50.048
1270.00,50.057
1271.00,50.060
1272.00,50.063
1273.00,50.069
1274.00,50.072
1275.00,50.074
1276.00,50.081
1277.00,50.067
1278.00,50.090
1279.00,50.094
1280.00,50.101
1281.00,50.115
1282.00,50.114
1283.00,50.134
1284.00,50.105
1285.00,50.094
1286.00,50.124
1287.00,50.144
1288.00,50.140
1289.00,50.132
1290.00,50.160
1291.00,50.166
1292.00,50.170
1293.00,50.163
1294.00,50.164
1295.00,50.172
1296.00,50.165
1297.00,50.187
1298.00,50.207
1299.00,50.193
1300.00,50.203
1301.00,50.201
1302.00,50.218
1303.00,50.231
1304.00,50.199
1305.00,50.230
1306.00,50.247
1307.00,50.257
1308.00,50.256
1309.00,50.264
1310.00,50.273
1311.00,50.264
1312.00,50.259
1313.00,50.264
1314.00,50.290
1315.00,50.294
1316.00,50.299
1317.00,50.314
1318.00,50.308
1319.00,50.309
1320.00,50.336
1321.00,50.473
1322.00,50.487
1323.00,50.479
1324.00,50.447
1325.00,50.453
1326.00,50.482
1327.00,50.465
1328.00,50.453
1329.00,50.476
1330.00,50.472
1331.00,50.488
1332.00,50.457
1333.00,50.495
1334.00,50.514
1335.00,50.541
1336.00,50.542
1337.00,50.607
1338.00,50.636
1339.00,50.690
1340.00,50.742
1341.00,50.802
1342.00,50.871
1343.00,50.916
1344.00,50.977
1345.00,51.041
1346.00,51.068
1347.00,51.087
1348.00,51.115
1349.00,51.149
1350.00,51.162
1351.00,51.176
1352.00,51.172
1353.00,51.206
1354.00,51.175
1355.00,51.152
1356.00,51.217
1357.00,51.207
1358.00,51.212
1359.00,51.246
1360.00,51.213
1361.00,51.149
1362.00,51.199
1363.00,51.218
1364.00,51.261
1365.00,51.258
1366.00,51.280
1367.00,51.248
1368.00,51.195
1369.00,51.246
1370.00,51.246
1371.00,51.158
1372.00,51.210
1373.00,51.213
1374.00,51.207
1375.00,51.191
1376.00,51.166
1377.00,51.183
1378.00,51.218
1379.00,51.226
1380.00,51.175
1381.00,51.262
1382.00,51.179
1383.00,51.210
1384.00,51.163
1385.00,51.118
1386.00,51.180
1387.00,51.221
1388.00,51.159
1389.00,51.194
1390.00,51.229
1391.00,51.197
1392.00,51.201
1393.00,51.186
1394.00,51.151
1395.00,51.233
1396.00,51.153
1397.00,51.221
1398.00,51.195
1399.00,51.202
1400.00,50.863
1401.00,51.170
1402.00,51.150
1403.00,51.174
1404.00,51.174
1405.00,51.202
1406.00,51.213
1407.00,51.241
1408.00,51.229
1409.00,51.193
1410.00,51.225
1411.00,51.298
1412.00,51.361
1413.00,51.432
1414.00,51.251
1415.00,51.281
1416.00,51.313
1417.00,51.317
1418.00,51.298
1419.00,51.315
1420.00,51.324
1421.00,51.379
1422.00,51.368
1423.00,51.357
1424.00,51.399
1425.00,51.413
1426.00,51.418
1427.00,51.430
1428.00,51.439
1429.00,51.434
1430.00,51.452
1431.00,51.469
1432.00,51.483
1433.00,51.502
1434.00,51.493
1435.00,51.547
1436.00,51.556
1437.00,51.538
1438.00,51.569
1439.00,51.596
1440.00,51.599
1441.00,51.599
1442.00,51.594
1443.00,51.649
1444.00,51.752
1445.00,51.696
1446.00,51.651
1447.00,51.694
1448.00,51.714
1449.00,51.733
1450.00,51.729
1451.00,51.733
1452.00,51.766
1453.00,51.777
1454.00,51.794
1455.00,51.807
1456.00,51.819
1457.00,51.837
1458.00,51.858
1459.00,51.869
1460.00,51.893
1461.00,51.901
1462.00,51.912
1463.00,51.941
1464.00,51.943
1465.00,51.963
1466.00,51.952
1467.00,51.971
1468.00,52.029
1469.00,52.012
1470.00,52.015
1471.00,52.046
1472.00,52.045
1473.00,52.059
1474.00,52.070
1475.00,52.093
1476.00,52.113
1477.00,52.106
1478.00,52.124
1479.00,52.150
1480.00,52.148
1481.00,52.150
1482.00,52.188
1483.00,52.185
1484.00,52.189
1485.00,52.206
1486.00,52.199
1487.00,52.229
1488.00,52.249
1489.00,52.242
1490.00,52.280
1491.00,52.288
1492.00,52.289
1493.00,52.293
1494.00,52.301
1495.00,52.306
1496.00,52.317
1497.00,52.312
1498.00,52.324
1499.00,52.346
1500.00,52.364
1501.00, 
1502.00, 
1503.00, 
1504.00, 
1505.00, 
1506.00, 
1507.00, 
1508.00, 
1509.00, 
1510.00, 
1511.00, 
1512.00, 
1513.00, 
1514.00, 
1515.00, 
1516.00, 
1517.00, 
1518.00, 
1519.00, 
1520.00, 
1521.00, 
1522.00, 
1523.00, 
1524.00, 
1525.00, 
1526.00, 
1527.00, 
1528.00, 
1529.00, 
1530.00, 
1531.00, 
1532.00, 
1533.00, 
1534.00, 
1535.00, 
1536.00, 
1537.00, 
1538.00, 
1539.00, 
1540.00, 
1541.00, 
1542.00, 
1543.00, 
1544.00, 
1545.00, 
1546.00, 
1547.00, 
1548.00, 
1549.00, 
1550.00, 
1551.00, 
1552.00, 
1553.00, 
1554.00, 
1555.00, 
1556.00, 
1557.00, 
1558.00, 
1559.00, 
1560.00, 
1561.00, 
1562.00, 
1563.00, 
1564.00, 
1565.00, 
1566.00, 
1567.00, 
1568.00, 
1569.00, 
1570.00, 
1571.00, 
1572.00, 
1573.00, 
1574.00, 
1575.00, 
1576.00, 
1577.00, 
1578.00, 
1579.00, 
1580.00, 
1581.00, 
1582.00, 
1583.00, 
1584.00, 
1585.00, 
1586.00, 
1587.00, 
1588.00, 
1589.00, 
1590.00, 
1591.00, 
1592.00, 
1593.00, 
1594.00, 
1595.00, 
1596.00, 
1597.00, 
1598.00, 
1599.00, 
1600.00, 
1601.00, 
1602.00, 
1603.00, 
1604.00, 
1605.00, 
1606.00, 
1607.00, 
1608.00, 
1609.00, 
1610.00, 
1611.00, 
1612.00, 
1613.00, 
1614.00, 
1615.00, 
1616.00, 
1617.00, 
1618.00, 
1619.00, 
1620.00, 
1621.00, 
1622.00, 
1623.00, 
1624.00, 
1625.00, 
1626.00, 
1627.00, 
1628.00, 
1629.00, 
1630.00, 
1631.00, 
1632.00, 
1633.00, 
1634.00, 
1635.00, 
1636.00, 
1637.00, 
1638.00, 
1639.00, 
1640.00, 
1641.00, 
1642.00, 
1643.00, 
1644.00, 
1645.00, 
1646.00, 
1647.00, 
1648.00, 
1649.00, 
1650.00, 
1651.00, 
1652.00, 
1653.00, 
1654.00, 
1655.00, 
1656.00, 
1657.00, 
1658.00, 
1659.00, 
1660.00, 
1661.00, 
1662.00, 
1663.00, 
1664.00, 
1665.00, 
1666.00, 
1667.00, 
1668.00, 
1669.00, 
1670.00, 
1671.00, 
1672.00, 
1673.00, 
1674.00, 
1675.00, 
1676.00, 
1677.00, 
1678.00, 
1679.00, 
1680.00, 
1681.00, 
1682.00, 
1683.00, 
1684.00, 
1685.00, 
1686.00, 
1687.00, 
1688.00, 
1689.00, 
1690.00, 
1691.00, 
1692.00, 
1693.00, 
1694.00, 
1695.00, 
1696.00, 
1697.00, 
1698.00, 
1699.00, 
1700.00, 
1701.00, 
1702.00, 
1703.00, 
1704.00, 
1705.00, 
1706.00, 
1707.00, 
1708.00, 
1709.00, 
1710.00, 
1711.00, 
1712.00, 
1713.00, 
1714.00, 
1715.00, 
1716.00, 
1717.00, 
1718.00, 
1719.00, 
1720.00, 
1721.00, 
1722.00, 
1723.00, 
1724.00, 
1725.00, 
1726.00, 
1727.00, 
1728.00, 
1729.00, 
1730.00, 
1731.00, 
1732.00, 
1733.00, 
1734.00, 
1735.00, 
1736.00, 
1737.00, 
1738.00, 
1739.00, 
1740.00, 
1741.00, 
1742.00, 
1743.00, 
1744.00, 
1745.00, 
1746.00, 
1747.00, 
1748.00, 
1749.00, 
1750.00, 
1751.00, 
1752.00, 
1753.00, 
1754.00, 
1755.00, 
1756.00, 
1757.00, 
1758.00, 
1759.00, 
1760.00, 
1761.00, 
1762.00, 
1763.00, 
1764.00, 
1765.00, 
1766.00, 
1767.00, 
1768.00, 
1769.00, 
1770.00, 
1771.00, 
1772.00, 
1773.00, 
1774.00, 
1775.00, 
1776.00, 
1777.00, 
1778.00, 
1779.00, 
1780.00, 
1781.00, 
1782.00, 
1783.00, 
1784.00, 
1785.00, 
1786.00, 
1787.00, 
1788.00, 
1789.00, 
1790.00, 
1791.00, 
1792.00, 
1793.00, 
1794.00, 
1795.00, 
1796.00, 
1797.00, 
1798.00, 
1799.00, 
1800.00, 
1801.00, 
1802.00, 
1803.00, 
1804.00, 
1805.00, 
1806.00, 
1807.00, 
1808.00, 
1809.00, 
1810.00, 
1811.00, 
1812.00, 
1813.00, 
1814.00, 
1815.00, 
1816.00, 
1817.00, 
1818.00, 
1819.00, 
1820.00, 
1821.00, 
1822.00, 
1823.00, 
1824.00, 
1825.00, 
1826.00, 
1827.00, 
1828.00, 
1829.00, 
1830.00, 
1831.00, 
1832.00, 
1833.00, 
1834.00, 
1835.00, 
1836.00, 
1837.00, 
1838.00, 
1839.00, 
1840.00, 
1841.00, 
1842.00, 
1843.00, 
1844.00, 
1845.00, 
1846.00, 
1847.00, 
1848.00, 
1849.00, 
1850.00, 
1851.00, 
1852.00, 
1853.00, 
1854.00, 
1855.00, 
1856.00, 
1857.00, 
1858.00, 
1859.00, 
1860.00, 
1861.00, 
1862.00, 
1863.00, 
1864.00, 
1865.00, 
1866.00, 
1867.00, 
1868.00, 
1869.00, 
1870.00, 
1871.00, 
1872.00, 
1873.00, 
1874.00, 
1875.00, 
1876.00, 
1877.00, 
1878.00, 
1879.00, 
1880.00, 
1881.00, 
1882.00, 
1883.00, 
1884.00, 
1885.00, 
1886.00, 
1887.00, 
1888.00, 
1889.00, 
1890.00, 
1891.00, 
1892.00, 
1893.00, 
1894.00, 
1895.00, 
1896.00, 
1897.00, 
1898.00, 
1899.00, 
1900.00, 
1901.00, 
1902.00, 
1903.00, 
1904.00, 
1905.00, 
1906.00, 
1907.00, 
1908.00, 
1909.00, 
1910.00, 
1911.00, 
1912.00, 
1913.00, 
1914.00, 
1915.00, 
1916.00, 
1917.00, 
1918.00, 
1919.00, 
1920.00, 
1921.00, 
1922.00, 
1923.00, 
1924.00, 
1925.00, 
1926.00, 
1927.00, 
1928.00, 
1929.00, 
1930.00, 
1931.00, 
1932.00, 
1933.00, 
1934.00, 
1935.00, 
1936.00, 
1937.00, 
1938.00, 
1939.00, 
1940.00, 
1941.00, 
1942.00, 
1943.00, 
1944.00, 
1945.00, 
1946.00, 
1947.00, 
1948.00, 
1949.00, 
1950.00, 
1951.00, 
1952.00, 
1953.00, 
1954.00, 
1955.00, 
1956.00, 
1957.00, 
1958.00, 
1959.00, 
1960.00, 
1961.00, 
1962.00, 
1963.00, 
1964.00, 
1965.00, 
1966.00, 
1967.00, 
1968.00, 
1969.00, 
1970.00, 
1971.00, 
1972.00, 
1973.00, 
1974.00, 
1975.00, 
1976.00, 
1977.00, 
1978.00, 
1979.00, 
1980.00, 
1981.00, 
1982.00, 
1983.00, 
1984.00, 
1985.00, 
1986.00, 
1987.00, 
1988.00, 
1989.00, 
1990.00, 
1991.00, 
1992.00, 
1993.00, 
1994.00, 
1995.00, 
1996.00, 
1997.00, 
1998.00, 
1999.00, 
2000.00, 
2001.00, 
2002.00, 
2003.00, 
2004.00, 
2005.00, 
2006.00, 
2007.00, 
2008.00, 
2009.00, 
2010.00, 
2011.00, 
2012.00, 
2013.00, 
2014.00, 
2015.00, 
2016.00, 
2017.00, 
2018.00, 
2019.00, 
2020.00, 
2021.00, 
2022.00, 
2023.00, 
2024.00, 
2025.00, 
2026.00, 
2027.00, 
2028.00, 
2029.00, 
2030.00, 
2031.00, 
2032.00, 
2033.00, 
2034.00, 
2035.00, 
2036.00, 
2037.00, 
2038.00, 
2039.00, 
2040.00, 
2041.00, 
2042.00, 
2043.00, 
2044.00, 
2045.00, 
2046.00, 
2047.00, 
2048.00, 
2049.00, 
2050.00, 
2051.00, 
2052.00, 
2053.00, 
2054.00, 
2055.00, 
2056.00, 
2057.00, 
2058.00, 
2059.00, 
2060.00, 
2061.00, 
2062.00, 
2063.00, 
2064.00, 
2065.00, 
2066.00, 
2067.00, 
2068.00, 
2069.00, 
2070.00, 
2071.00, 
2072.00, 
2073.00, 
2074.00, 
2075.00, 
2076.00, 
2077.00, 
2078.00, 
2079.00, 
2080.00, 
2081.00, 
2082.00, 
2083.00, 
2084.00, 
2085.00, 
2086.00, 
2087.00, 
2088.00, 
2089.00, 
2090.00, 
2091.00, 
2092.00, 
2093.00, 
2094.00, 
2095.00, 
2096.00, 
2097.00, 
2098.00, 
2099.00, 
2100.00, 
2101.00, 
2102.00, 
2103.00, 
2104.00, 
2105.00, 
2106.00, 
2107.00, 
2108.00, 
2109.00, 
2110.00, 
2111.00, 
2112.00, 
2113.00, 
2114.00, 
2115.00, 
2116.00, 
2117.00, 
2118.00, 
2119.00, 
2120.00, 
2121.00, 
2122.00, 
2123.00, 
2124.00, 
2125.00, 
2126.00, 
2127.00, 
2128.00, 
2129.00, 
2130.00, 
2131.00, 
2132.00, 
2133.00, 
2134.00, 
2135.00, 
2136.00, 
2137.00, 
2138.00, 
2139.00, 
2140.00, 
2141.00, 
2142.00, 
2143.00, 
2144.00, 
2145.00, 
2146.00, 
2147.00, 
2148.00, 
2149.00, 
2150.00, 
2151.00, 
2152.00, 
2153.00, 
2154.00, 
2155.00, 
2156.00, 
2157.00, 
2158.00, 
2159.00, 
2160.00, 
2161.00, 
2162.00, 
2163.00, 
2164.00, 
2165.00, 
2166.00, 
2167.00, 
2168.00, 
2169.00, 
2170.00, 
2171.00, 
2172.00, 
2173.00, 
2174.00, 
2175.00, 
2176.00, 
2177.00, 
2178.00, 
2179.00, 
2180.00, 
2181.00, 
2182.00, 
2183.00, 
2184.00, 
2185.00, 
2186.00, 
2187.00, 
2188.00, 
2189.00, 
2190.00, 
2191.00, 
2192.00, 
2193.00, 
2194.00, 
2195.00, 
2196.00, 
2197.00, 
2198.00, 
2199.00, 
2200.00, 
2201.00, 
2202.00, 
2203.00, 
2204.00, 
2205.00, 
2206.00, 
2207.00, 
2208.00, 
2209.00, 
2210.00, 
2211.00, 
2212.00, 
2213.00, 
2214.00, 
2215.00, 
2216.00, 
2217.00, 
2218.00, 
2219.00, 
2220.00, 
2221.00, 
2222.00, 
2223.00, 
2224.00, 
2225.00, 
2226.00, 
2227.00, 
2228.00, 
2229.00, 
2230.00, 
2231.00, 
2232.00, 
2233.00, 
2234.00, 
2235.00, 
2236.00, 
2237.00, 
2238.00, 
2239.00, 
2240.00, 
2241.00, 
2242.00, 
2243.00, 
2244.00, 
2245.00, 
2246.00, 
2247.00, 
2248.00, 
2249.00, 
2250.00, 
2251.00, 
2252.00, 
2253.00, 
2254.00, 
2255.00, 
2256.00, 
2257.00, 
2258.00, 
2259.00, 
2260.00, 
2261.00, 
2262.00, 
2263.00, 
2264.00, 
2265.00, 
2266.00, 
2267.00, 
2268.00, 
2269.00, 
2270.00, 
2271.00, 
2272.00, 
2273.00, 
2274.00, 
2275.00, 
2276.00, 
2277.00, 
2278.00, 
2279.00, 
2280.00, 
2281.00, 
2282.00, 
2283.00, 
2284.00, 
2285.00, 
2286.00, 
2287.00, 
2288.00, 
2289.00, 
2290.00, 
2291.00, 
2292.00, 
2293.00, 
2294.00, 
2295.00, 
2296.00, 
2297.00, 
2298.00, 
2299.00, 
2300.00, 
2301.00, 
2302.00, 
2303.00, 
2304.00, 
2305.00, 
2306.00, 
2307.00, 
2308.00, 
2309.00, 
2310.00, 
2311.00, 
2312.00, 
2313.00, 
2314.00, 
2315.00, 
2316.00, 
2317.00, 
2318.00, 
2319.00, 
2320.00, 
2321.00, 
2322.00, 
2323.00, 
2324.00, 
2325.00, 
2326.00, 
2327.00, 
2328.00, 
2329.00, 
2330.00, 
2331.00, 
2332.00, 
2333.00, 
2334.00, 
2335.00, 
2336.00, 
2337.00, 
2338.00, 
2339.00, 
2340.00, 
2341.00, 
2342.00, 
2343.00, 
2344.00, 
2345.00, 
2346.00, 
2347.00, 
2348.00, 
2349.00, 
2350.00, 
2351.00, 
2352.00, 
2353.00, 
2354.00, 
2355.00, 
2356.00, 
2357.00, 
2358.00, 
2359.00, 
2360.00, 
2361.00, 
2362.00, 
2363.00, 
2364.00, 
2365.00, 
2366.00, 
2367.00, 
2368.00, 
2369.00, 
2370.00, 
2371.00, 
2372.00, 
2373.00, 
2374.00, 
2375.00, 
2376.00, 
2377.00, 
2378.00, 
2379.00, 
2380.00, 
2381.00, 
2382.00, 
2383.00, 
2384.00, 
2385.00, 
2386.00, 
2387.00, 
2388.00, 
2389.00, 
2390.00, 
2391.00, 
2392.00, 
2393.00, 
2394.00, 
2395.00, 
2396.00, 
2397.00, 
2398.00, 
2399.00, 
2400.00, 
2401.00, 
2402.00, 
2403.00, 
2404.00, 
2405.00, 
2406.00, 
2407.00, 
2408.00, 
2409.00, 
2410.00, 
2411.00, 
2412.00, 
2413.00, 
2414.00, 
2415.00, 
2416.00, 
2417.00, 
2418.00, 
2419.00, 
2420.00, 
2421.00, 
2422.00, 
2423.00, 
2424.00, 
2425.00, 
2426.00, 
2427.00, 
2428.00, 
2429.00, 
2430.00, 
2431.00, 
2432.00, 
2433.00, 
2434.00, 
2435.00, 
2436.00, 
2437.00, 
2438.00, 
2439.00, 
2440.00, 
2441.00, 
2442.00, 
2443.00, 
2444.00, 
2445.00, 
2446.00, 
2447.00, 
2448.00, 
2449.00, 
2450.00, 
2451.00, 
2452.00, 
2453.00, 
2454.00, 
2455.00, 
2456.00, 
2457.00, 
2458.00, 
2459.00, 
2460.00, 
2461.00, 
2462.00, 
2463.00, 
2464.00, 
2465.00, 
2466.00, 
2467.00, 
2468.00, 
2469.00, 
2470.00, 
2471.00, 
2472.00, 
2473.00, 
2474.00, 
2475.00, 
2476.00, 
2477.00, 
2478.00, 
2479.00, 
2480.00, 
2481.00, 
2482.00, 
2483.00, 
2484.00, 
2485.00, 
2486.00, 
2487.00, 
2488.00, 
2489.00, 
2490.00, 
2491.00, 
2492.00, 
2493.00, 
2494.00, 
2495.00, 
2496.00, 
2497.00, 
2498.00, 
2499.00, 
2500.00, 
2501.00, 
2502.00, 
2503.00, 
2504.00, 
2505.00, 
2506.00, 
2507.00, 
2508.00, 
2509.00, 
2510.00, 
2511.00, 
2512.00, 
2513.00, 
2514.00, 
2515.00, 
2516.00, 
2517.00, 
2518.00, 
2519.00, 
2520.00, 
2521.00, 
2522.00, 
2523.00, 
2524.00, 
2525.00, 
2526.00, 
2527.00, 
2528.00, 
2529.00, 
2530.00, 
2531.00, 
2532.00, 
2533.00, 
2534.00, 
2535.00, 
2536.00, 
2537.00, 
2538.00, 
2539.00, 
2540.00, 
2541.00, 
2542.00, 
2543.00, 
2544.00, 
2545.00, 
2546.00, 
2547.00, 
2548.00, 
2549.00, 
2550.00, 
2551.00, 
2552.00, 
2553.00, 
2554.00, 
2555.00, 
2556.00, 
2557.00, 
2558.00, 
2559.00, 
2560.00, 
2561.00, 
2562.00, 
2563.00, 
2564.00, 
2565.00, 
2566.00, 
2567.00, 
2568.00, 
2569.00, 
2570.00, 
2571.00, 
2572.00, 
2573.00, 
2574.00, 
2575.00, 
2576.00, 
2577.00, 
2578.00, 
2579.00, 
2580.00, 
2581.00, 
2582.00, 
2583.00, 
2584.00, 
2585.00, 
2586.00, 
2587.00, 
2588.00, 
2589.00, 
2590.00, 
2591.00, 
2592.00, 
2593.00, 
2594.00, 
2595.00, 
2596.00, 
2597.00, 
2598.00, 
2599.00, 
2600.00, 
