"2cP3 - RawData"
"Wavelength nm.","T%"
200.00,0.001
201.00,0.003
202.00,0.000
203.00,-0.001
204.00,0.002
205.00,-0.000
206.00,0.003
207.00,-0.000
208.00,0.003
209.00,0.002
210.00,0.001
211.00,-0.001
212.00,0.001
213.00,0.001
214.00,0.000
215.00,0.002
216.00,0.001
217.00,0.002
218.00,0.002
219.00,0.001
220.00,0.002
221.00,0.001
222.00,-0.003
223.00,-0.002
224.00,0.000
225.00,-0.000
226.00,-0.002
227.00,0.003
228.00,0.002
229.00,0.000
230.00,0.003
231.00,0.002
232.00,0.003
233.00,0.001
234.00,-0.001
235.00,0.000
236.00,-0.000
237.00,0.002
238.00,0.002
239.00,-0.000
240.00,0.000
241.00,0.001
242.00,-0.000
243.00,0.001
244.00,0.001
245.00,0.002
246.00,-0.000
247.00,0.001
248.00,0.000
249.00,-0.000
250.00,0.001
251.00,0.000
252.00,-0.001
253.00,0.000
254.00,0.001
255.00,0.000
256.00,-0.001
257.00,-0.001
258.00,0.003
259.00,0.001
260.00,-0.001
261.00,0.002
262.00,0.000
263.00,0.001
264.00,0.003
265.00,-0.001
266.00,-0.000
267.00,0.001
268.00,-0.001
269.00,-0.000
270.00,0.002
271.00,-0.000
272.00,0.000
273.00,0.000
274.00,0.001
275.00,0.001
276.00,0.000
277.00,-0.000
278.00,0.000
279.00,0.000
280.00,-0.001
281.00,0.000
282.00,0.001
283.00,0.001
284.00,0.000
285.00,0.001
286.00,0.000
287.00,0.000
288.00,0.001
289.00,0.001
290.00,-0.001
291.00,0.001
292.00,0.002
293.00,0.000
294.00,0.001
295.00,-0.000
296.00,0.001
297.00,0.002
298.00,0.002
299.00,0.001
300.00,0.003
301.00,0.007
302.00,0.008
303.00,0.011
304.00,0.017
305.00,0.027
306.00,0.040
307.00,0.061
308.00,0.096
309.00,0.149
310.00,0.209
311.00,0.279
312.00,0.388
313.00,0.517
314.00,0.685
315.00,0.896
316.00,1.139
317.00,1.454
318.00,1.798
319.00,2.223
320.00,2.696
321.00,3.232
322.00,3.833
323.00,4.507
324.00,5.241
325.00,5.984
326.00,6.765
327.00,7.653
328.00,8.574
329.00,9.484
330.00,10.492
331.00,11.441
332.00,12.393
333.00,13.475
334.00,14.532
335.00,15.580
336.00,16.570
337.00,17.644
338.00,18.655
339.00,19.591
340.00,20.555
341.00,21.525
342.00,22.400
343.00,23.267
344.00,24.135
345.00,24.945
346.00,25.690
347.00,26.419
348.00,27.133
349.00,27.803
350.00,28.463
351.00,28.994
352.00,29.562
353.00,30.053
354.00,30.564
355.00,31.071
356.00,31.547
357.00,31.961
358.00,32.335
359.00,32.746
360.00,33.157
361.00,33.397
362.00,33.833
363.00,34.108
364.00,34.347
365.00,34.551
366.00,34.773
367.00,34.984
368.00,35.117
369.00,35.273
370.00,35.423
371.00,35.514
372.00,35.562
373.00,35.666
374.00,35.765
375.00,35.736
376.00,35.807
377.00,35.806
378.00,35.794
379.00,35.772
380.00,35.821
381.00,35.815
382.00,35.949
383.00,36.028
384.00,36.082
385.00,36.174
386.00,36.283
387.00,36.402
388.00,36.534
389.00,36.617
390.00,36.782
391.00,36.892
392.00,36.913
393.00,36.978
394.00,37.050
395.00,37.143
396.00,37.154
397.00,37.203
398.00,37.299
399.00,37.384
400.00,37.381
401.00,37.386
402.00,37.412
403.00,37.470
404.00,37.462
405.00,37.495
406.00,37.499
407.00,37.477
408.00,37.536
409.00,37.473
410.00,37.423
411.00,37.384
412.00,37.404
413.00,37.385
414.00,37.375
415.00,37.405
416.00,37.432
417.00,37.387
418.00,37.399
419.00,37.485
420.00,37.560
421.00,37.635
422.00,37.648
423.00,37.664
424.00,37.731
425.00,37.722
426.00,37.783
427.00,37.785
428.00,37.727
429.00,37.848
430.00,37.799
431.00,37.948
432.00,37.991
433.00,38.019
434.00,38.055
435.00,38.141
436.00,38.167
437.00,38.199
438.00,38.289
439.00,38.295
440.00,38.343
441.00,38.412
442.00,38.451
443.00,38.470
444.00,38.550
445.00,38.676
446.00,38.761
447.00,38.798
448.00,38.890
449.00,38.942
450.00,39.059
451.00,39.102
452.00,39.104
453.00,39.225
454.00,39.300
455.00,39.366
456.00,39.516
457.00,39.590
458.00,39.581
459.00,39.697
460.00,39.796
461.00,39.863
462.00,39.975
463.00,40.065
464.00,40.128
465.00,40.197
466.00,40.324
467.00,40.384
468.00,40.406
469.00,40.477
470.00,40.509
471.00,40.611
472.00,40.649
473.00,40.711
474.00,40.843
475.00,40.873
476.00,40.908
477.00,41.010
478.00,41.068
479.00,41.205
480.00,41.281
481.00,41.431
482.00,41.512
483.00,41.614
484.00,41.761
485.00,41.810
486.00,41.921
487.00,42.057
488.00,42.222
489.00,42.320
490.00,42.352
491.00,42.398
492.00,42.448
493.00,42.590
494.00,42.674
495.00,42.714
496.00,42.755
497.00,42.864
498.00,42.981
499.00,43.035
500.00,43.071
501.00,43.104
502.00,43.139
503.00,43.349
504.00,43.352
505.00,43.479
506.00,43.531
507.00,43.661
508.00,43.682
509.00,43.846
510.00,43.921
511.00,43.858
512.00,44.128
513.00,44.204
514.00,44.199
515.00,44.304
516.00,44.367
517.00,44.254
518.00,44.538
519.00,44.527
520.00,44.461
521.00,44.628
522.00,44.682
523.00,44.685
524.00,44.807
525.00,44.870
526.00,44.872
527.00,44.869
528.00,44.920
529.00,45.081
530.00,45.203
531.00,45.219
532.00,45.323
533.00,45.441
534.00,45.514
535.00,45.538
536.00,45.593
537.00,45.652
538.00,45.714
539.00,45.695
540.00,45.792
541.00,45.827
542.00,45.820
543.00,45.904
544.00,46.028
545.00,46.012
546.00,46.036
547.00,46.113
548.00,46.239
549.00,46.155
550.00,46.227
551.00,46.349
552.00,46.418
553.00,46.375
554.00,46.426
555.00,46.451
556.00,46.467
557.00,46.549
558.00,46.599
559.00,46.698
560.00,46.683
561.00,46.748
562.00,46.812
563.00,46.795
564.00,46.869
565.00,46.831
566.00,46.808
567.00,46.835
568.00,46.919
569.00,46.995
570.00,46.937
571.00,47.048
572.00,47.059
573.00,46.928
574.00,47.015
575.00,47.117
576.00,47.099
577.00,47.125
578.00,47.278
579.00,47.294
580.00,47.249
581.00,47.475
582.00,47.629
583.00,47.481
584.00,47.582
585.00,47.687
586.00,47.703
587.00,47.795
588.00,47.825
589.00,47.713
590.00,47.961
591.00,47.938
592.00,47.834
593.00,47.800
594.00,47.948
595.00,47.975
596.00,48.094
597.00,48.267
598.00,48.128
599.00,48.079
600.00,48.101
601.00,48.153
602.00,48.172
603.00,48.147
604.00,48.026
605.00,48.211
606.00,48.347
607.00,48.196
608.00,48.229
609.00,48.338
610.00,48.494
611.00,48.335
612.00,48.355
613.00,48.425
614.00,48.386
615.00,48.495
616.00,48.574
617.00,48.523
618.00,48.463
619.00,48.527
620.00,48.582
621.00,48.642
622.00,48.649
623.00,48.618
624.00,48.692
625.00,48.768
626.00,48.709
627.00,48.787
628.00,48.832
629.00,48.845
630.00,48.872
631.00,48.792
632.00,48.887
633.00,48.924
634.00,48.997
635.00,49.068
636.00,49.079
637.00,49.085
638.00,49.066
639.00,49.233
640.00,49.238
641.00,49.139
642.00,49.247
643.00,49.274
644.00,49.240
645.00,49.243
646.00,49.388
647.00,49.402
648.00,49.396
649.00,49.335
650.00,49.320
651.00,49.465
652.00,49.529
653.00,49.381
654.00,49.388
655.00,49.589
656.00,49.739
657.00,49.465
658.00,49.528
659.00,49.701
660.00,49.739
661.00,49.669
662.00,49.724
663.00,49.708
664.00,50.008
665.00,50.040
666.00,49.878
667.00,49.866
668.00,49.856
669.00,50.035
670.00,50.189
671.00,50.121
672.00,50.128
673.00,50.069
674.00,50.012
675.00,50.070
676.00,50.284
677.00,50.371
678.00,50.089
679.00,50.238
680.00,50.302
681.00,50.402
682.00,50.290
683.00,50.309
684.00,50.373
685.00,50.407
686.00,50.232
687.00,50.345
688.00,50.356
689.00,50.312
690.00,50.635
691.00,50.757
692.00,50.495
693.00,50.383
694.00,50.402
695.00,50.534
696.00,50.536
697.00,50.450
698.00,50.492
699.00,50.673
700.00,50.756
701.00,50.549
702.00,50.528
703.00,50.597
704.00,50.685
705.00,50.474
706.00,50.691
707.00,50.723
708.00,50.567
709.00,50.812
710.00,51.170
711.00,50.594
712.00,50.675
713.00,50.801
714.00,50.941
715.00,50.819
716.00,50.666
717.00,50.818
718.00,50.921
719.00,50.867
720.00,50.951
721.00,55.395
722.00,55.305
723.00,55.297
724.00,55.190
725.00,55.261
726.00,55.137
727.00,55.179
728.00,55.105
729.00,55.134
730.00,55.100
731.00,54.966
732.00,55.053
733.00,54.983
734.00,55.010
735.00,55.017
736.00,54.938
737.00,55.020
738.00,54.918
739.00,54.882
740.00,54.872
741.00,54.885
742.00,54.863
743.00,54.792
744.00,54.759
745.00,54.751
746.00,54.682
747.00,54.668
748.00,54.574
749.00,54.595
750.00,54.440
751.00,54.553
752.00,54.402
753.00,54.385
754.00,54.329
755.00,54.287
756.00,54.226
757.00,54.267
758.00,54.367
759.00,54.196
760.00,54.258
761.00,54.216
762.00,54.168
763.00,54.151
764.00,54.041
765.00,54.162
766.00,54.074
767.00,54.098
768.00,54.066
769.00,54.058
770.00,53.989
771.00,53.982
772.00,53.989
773.00,53.945
774.00,53.931
775.00,53.904
776.00,53.917
777.00,53.888
778.00,53.853
779.00,53.876
780.00,53.757
781.00,53.841
782.00,53.752
783.00,53.751
784.00,53.696
785.00,53.587
786.00,53.660
787.00,53.641
788.00,53.558
789.00,53.530
790.00,53.490
791.00,53.539
792.00,53.467
793.00,53.400
794.00,53.404
795.00,53.410
796.00,53.310
797.00,53.317
798.00,53.362
799.00,53.276
800.00,53.265
801.00,53.228
802.00,53.158
803.00,53.093
804.00,53.078
805.00,53.115
806.00,53.052
807.00,52.995
808.00,52.965
809.00,53.004
810.00,52.956
811.00,52.883
812.00,53.010
813.00,52.860
814.00,52.803
815.00,52.792
816.00,52.763
817.00,52.820
818.00,52.729
819.00,52.800
820.00,52.627
821.00,52.639
822.00,52.522
823.00,52.547
824.00,52.585
825.00,52.568
826.00,52.487
827.00,52.454
828.00,52.624
829.00,52.398
830.00,52.533
831.00,55.061
832.00,55.017
833.00,54.986
834.00,54.973
835.00,54.924
836.00,54.978
837.00,54.979
838.00,54.837
839.00,54.857
840.00,54.827
841.00,54.810
842.00,54.726
843.00,54.738
844.00,54.739
845.00,54.681
846.00,54.678
847.00,54.628
848.00,54.446
849.00,54.521
850.00,54.503
851.00,54.429
852.00,54.456
853.00,54.334
854.00,54.356
855.00,54.299
856.00,54.299
857.00,54.252
858.00,54.217
859.00,54.157
860.00,54.151
861.00,54.180
862.00,54.112
863.00,54.105
864.00,54.062
865.00,54.101
866.00,54.032
867.00,54.054
868.00,53.985
869.00,54.001
870.00,53.971
871.00,53.951
872.00,53.913
873.00,53.970
874.00,53.860
875.00,53.901
876.00,53.916
877.00,53.866
878.00,53.836
879.00,53.923
880.00,53.804
881.00,53.804
882.00,53.813
883.00,53.738
884.00,53.736
885.00,53.688
886.00,53.698
887.00,53.661
888.00,53.638
889.00,53.613
890.00,53.595
891.00,53.527
892.00,53.535
893.00,53.497
894.00,53.495
895.00,53.463
896.00,53.447
897.00,53.439
898.00,53.422
899.00,53.395
900.00,53.379
901.00,53.356
902.00,53.361
903.00,53.306
904.00,53.304
905.00,53.282
906.00,53.285
907.00,53.229
908.00,53.216
909.00,53.189
910.00,53.135
911.00,53.167
912.00,53.159
913.00,53.079
914.00,53.050
915.00,53.018
916.00,53.063
917.00,52.961
918.00,53.008
919.00,52.953
920.00,52.933
921.00,52.904
922.00,52.901
923.00,52.903
924.00,52.838
925.00,52.814
926.00,52.832
927.00,52.818
928.00,52.788
929.00,52.789
930.00,52.724
931.00,52.754
932.00,52.684
933.00,52.682
934.00,52.687
935.00,52.640
936.00,52.608
937.00,52.612
938.00,52.581
939.00,52.595
940.00,52.546
941.00,52.538
942.00,52.490
943.00,52.498
944.00,52.425
945.00,52.468
946.00,52.427
947.00,52.395
948.00,52.384
949.00,52.365
950.00,52.345
951.00,52.310
952.00,52.277
953.00,52.252
954.00,52.230
955.00,52.165
956.00,52.181
957.00,52.139
958.00,52.150
959.00,52.103
960.00,52.099
961.00,52.082
962.00,52.085
963.00,52.013
964.00,52.025
965.00,52.006
966.00,51.981
967.00,51.997
968.00,51.959
969.00,51.994
970.00,51.968
971.00,51.981
972.00,51.933
973.00,51.971
974.00,51.968
975.00,51.948
976.00,51.974
977.00,51.939
978.00,51.989
979.00,51.896
980.00,51.939
981.00,51.950
982.00,51.928
983.00,51.930
984.00,51.908
985.00,51.918
986.00,51.883
987.00,51.909
988.00,51.864
989.00,51.873
990.00,51.866
991.00,51.828
992.00,51.861
993.00,51.823
994.00,51.799
995.00,51.791
996.00,51.752
997.00,51.765
998.00,51.731
999.00,51.754
1000.00,51.714
1001.00,51.714
1002.00,51.695
1003.00,51.698
1004.00,51.684
1005.00,51.648
1006.00,51.677
1007.00,51.638
1008.00,51.627
1009.00,51.594
1010.00,51.590
1011.00,51.596
1012.00,51.546
1013.00,51.547
1014.00,51.510
1015.00,51.532
1016.00,51.491
1017.00,51.491
1018.00,51.455
1019.00,51.431
1020.00,51.442
1021.00,51.404
1022.00,51.419
1023.00,51.362
1024.00,51.368
1025.00,51.354
1026.00,51.339
1027.00,51.312
1028.00,51.314
1029.00,51.284
1030.00,51.249
1031.00,51.264
1032.00,51.205
1033.00,51.226
1034.00,51.206
1035.00,51.160
1036.00,51.138
1037.00,51.121
1038.00,51.101
1039.00,51.078
1040.00,51.055
1041.00,51.023
1042.00,51.028
1043.00,51.012
1044.00,51.044
1045.00,51.022
1046.00,51.000
1047.00,51.030
1048.00,51.039
1049.00,51.055
1050.00,51.053
1051.00,51.077
1052.00,51.087
1053.00,51.095
1054.00,51.072
1055.00,51.103
1056.00,51.120
1057.00,51.107
1058.00,51.107
1059.00,51.086
1060.00,51.100
1061.00,51.082
1062.00,51.062
1063.00,51.075
1064.00,51.070
1065.00,51.047
1066.00,51.041
1067.00,51.038
1068.00,51.050
1069.00,51.024
1070.00,51.017
1071.00,51.009
1072.00,51.009
1073.00,50.972
1074.00,50.984
1075.00,50.966
1076.00,50.950
1077.00,50.946
1078.00,50.915
1079.00,50.913
1080.00,50.918
1081.00,50.904
1082.00,50.891
1083.00,50.881
1084.00,50.868
1085.00,50.871
1086.00,50.869
1087.00,50.852
1088.00,50.837
1089.00,50.833
1090.00,50.816
1091.00,50.822
1092.00,50.809
1093.00,50.796
1094.00,50.783
1095.00,50.757
1096.00,50.752
1097.00,50.751
1098.00,50.724
1099.00,50.725
1100.00,50.715
1101.00,50.697
1102.00,50.698
1103.00,50.698
1104.00,50.677
1105.00,50.682
1106.00,50.664
1107.00,50.664
1108.00,50.653
1109.00,50.625
1110.00,50.639
1111.00,50.631
1112.00,50.612
1113.00,50.614
1114.00,50.622
1115.00,50.618
1116.00,50.619
1117.00,50.613
1118.00,50.576
1119.00,50.573
1120.00,50.550
1121.00,50.566
1122.00,50.536
1123.00,50.528
1124.00,50.540
1125.00,50.526
1126.00,50.516
1127.00,50.517
1128.00,50.504
1129.00,50.490
1130.00,50.485
1131.00,50.476
1132.00,50.467
1133.00,50.467
1134.00,50.410
1135.00,50.448
1136.00,50.446
1137.00,50.442
1138.00,50.444
1139.00,50.429
1140.00,50.434
1141.00,50.422
1142.00,50.407
1143.00,50.429
1144.00,50.395
1145.00,50.381
1146.00,50.388
1147.00,50.387
1148.00,50.384
1149.00,50.396
1150.00,50.379
1151.00,50.381
1152.00,50.367
1153.00,50.347
1154.00,50.354
1155.00,50.345
1156.00,50.325
1157.00,50.350
1158.00,50.354
1159.00,50.335
1160.00,50.333
1161.00,50.331
1162.00,50.320
1163.00,50.324
1164.00,50.314
1165.00,50.324
1166.00,50.327
1167.00,50.307
1168.00,50.337
1169.00,50.311
1170.00,50.311
1171.00,50.306
1172.00,50.293
1173.00,50.311
1174.00,50.303
1175.00,50.307
1176.00,50.319
1177.00,50.296
1178.00,50.304
1179.00,50.310
1180.00,50.297
1181.00,50.296
1182.00,50.299
1183.00,50.270
1184.00,50.271
1185.00,50.282
1186.00,50.253
1187.00,50.284
1188.00,50.273
1189.00,50.272
1190.00,50.276
1191.00,50.274
1192.00,50.286
1193.00,50.280
1194.00,50.267
1195.00,50.237
1196.00,50.264
1197.00,50.257
1198.00,50.262
1199.00,50.245
1200.00,50.246
1201.00,50.276
1202.00,50.260
1203.00,50.253
1204.00,50.246
1205.00,50.245
1206.00,50.234
1207.00,50.238
1208.00,50.219
1209.00,50.244
1210.00,50.241
1211.00,50.222
1212.00,50.250
1213.00,50.215
1214.00,50.227
1215.00,50.226
1216.00,50.223
1217.00,50.233
1218.00,50.216
1219.00,50.220
1220.00,50.231
1221.00,50.229
1222.00,50.216
1223.00,50.247
1224.00,50.239
1225.00,50.210
1226.00,50.224
1227.00,50.202
1228.00,50.227
1229.00,50.236
1230.00,50.246
1231.00,50.272
1232.00,50.275
1233.00,50.263
1234.00,50.298
1235.00,50.256
1236.00,50.255
1237.00,50.262
1238.00,50.250
1239.00,50.260
1240.00,50.256
1241.00,50.264
1242.00,50.284
1243.00,50.306
1244.00,50.260
1245.00,50.298
1246.00,50.310
1247.00,50.286
1248.00,50.284
1249.00,50.275
1250.00,50.288
1251.00,50.289
1252.00,50.263
1253.00,50.302
1254.00,50.342
1255.00,50.289
1256.00,50.275
1257.00,50.254
1258.00,50.309
1259.00,50.328
1260.00,50.326
1261.00,50.342
1262.00,50.324
1263.00,50.317
1264.00,50.339
1265.00,50.341
1266.00,50.329
1267.00,50.347
1268.00,50.348
1269.00,50.343
1270.00,50.354
1271.00,50.344
1272.00,50.354
1273.00,50.371
1274.00,50.375
1275.00,50.392
1276.00,50.399
1277.00,50.387
1278.00,50.414
1279.00,50.406
1280.00,50.400
1281.00,50.422
1282.00,50.411
1283.00,50.419
1284.00,50.416
1285.00,50.388
1286.00,50.427
1287.00,50.419
1288.00,50.411
1289.00,50.416
1290.00,50.454
1291.00,50.458
1292.00,50.450
1293.00,50.434
1294.00,50.454
1295.00,50.480
1296.00,50.450
1297.00,50.489
1298.00,50.506
1299.00,50.479
1300.00,50.491
1301.00,50.481
1302.00,50.496
1303.00,50.499
1304.00,50.472
1305.00,50.500
1306.00,50.524
1307.00,50.516
1308.00,50.530
1309.00,50.535
1310.00,50.516
1311.00,50.499
1312.00,50.539
1313.00,50.564
1314.00,50.568
1315.00,50.552
1316.00,50.566
1317.00,50.604
1318.00,50.585
1319.00,50.592
1320.00,50.607
1321.00,50.747
1322.00,50.771
1323.00,50.748
1324.00,50.734
1325.00,50.753
1326.00,50.770
1327.00,50.757
1328.00,50.757
1329.00,50.775
1330.00,50.751
1331.00,50.779
1332.00,50.754
1333.00,50.786
1334.00,50.794
1335.00,50.800
1336.00,50.835
1337.00,50.868
1338.00,50.899
1339.00,50.982
1340.00,51.023
1341.00,51.094
1342.00,51.154
1343.00,51.177
1344.00,51.253
1345.00,51.308
1346.00,51.320
1347.00,51.370
1348.00,51.398
1349.00,51.408
1350.00,51.427
1351.00,51.420
1352.00,51.420
1353.00,51.528
1354.00,51.435
1355.00,51.415
1356.00,51.488
1357.00,51.510
1358.00,51.490
1359.00,51.457
1360.00,51.776
1361.00,51.440
1362.00,51.465
1363.00,51.493
1364.00,51.581
1365.00,51.511
1366.00,51.509
1367.00,51.474
1368.00,51.500
1369.00,51.528
1370.00,51.505
1371.00,51.436
1372.00,51.491
1373.00,51.473
1374.00,51.467
1375.00,51.470
1376.00,51.433
1377.00,51.482
1378.00,51.448
1379.00,51.465
1380.00,51.438
1381.00,51.445
1382.00,51.411
1383.00,51.451
1384.00,51.390
1385.00,51.404
1386.00,51.452
1387.00,51.487
1388.00,51.421
1389.00,51.417
1390.00,51.162
1391.00,51.476
1392.00,51.491
1393.00,51.347
1394.00,51.441
1395.00,51.460
1396.00,51.402
1397.00,51.443
1398.00,51.469
1399.00,51.489
1400.00,51.105
1401.00,51.402
1402.00,51.422
1403.00,51.464
1404.00,51.477
1405.00,51.475
1406.00,51.504
1407.00,51.505
1408.00,51.523
1409.00,51.464
1410.00,51.533
1411.00,51.571
1412.00,51.523
1413.00,51.517
1414.00,51.547
1415.00,51.571
1416.00,51.600
1417.00,51.583
1418.00,51.570
1419.00,51.594
1420.00,51.609
1421.00,51.658
1422.00,51.643
1423.00,51.638
1424.00,51.677
1425.00,51.690
1426.00,51.695
1427.00,51.722
1428.00,51.716
1429.00,51.714
1430.00,51.755
1431.00,51.751
1432.00,51.787
1433.00,51.796
1434.00,51.776
1435.00,51.844
1436.00,51.836
1437.00,51.819
1438.00,51.854
1439.00,51.869
1440.00,51.869
1441.00,51.893
1442.00,51.882
1443.00,51.945
1444.00,51.979
1445.00,51.940
1446.00,51.957
1447.00,51.988
1448.00,52.015
1449.00,52.026
1450.00,52.005
1451.00,52.013
1452.00,52.040
1453.00,52.055
1454.00,52.094
1455.00,52.115
1456.00,52.130
1457.00,52.149
1458.00,52.160
1459.00,52.168
1460.00,52.197
1461.00,52.194
1462.00,52.202
1463.00,52.230
1464.00,52.223
1465.00,52.261
1466.00,52.247
1467.00,52.262
1468.00,52.329
1469.00,52.301
1470.00,52.302
1471.00,52.338
1472.00,52.335
1473.00,52.345
1474.00,52.380
1475.00,52.379
1476.00,52.414
1477.00,52.397
1478.00,52.409
1479.00,52.451
1480.00,52.436
1481.00,52.440
1482.00,52.482
1483.00,52.490
1484.00,52.502
1485.00,52.525
1486.00,52.509
1487.00,52.556
1488.00,52.564
1489.00,52.555
1490.00,52.588
1491.00,52.592
1492.00,52.600
1493.00,52.604
1494.00,52.614
1495.00,52.616
1496.00,52.644
1497.00,52.628
1498.00,52.652
1499.00,52.669
1500.00,52.677
1501.00, 
1502.00, 
1503.00, 
1504.00, 
1505.00, 
1506.00, 
1507.00, 
1508.00, 
1509.00, 
1510.00, 
1511.00, 
1512.00, 
1513.00, 
1514.00, 
1515.00, 
1516.00, 
1517.00, 
1518.00, 
1519.00, 
1520.00, 
1521.00, 
1522.00, 
1523.00, 
1524.00, 
1525.00, 
1526.00, 
1527.00, 
1528.00, 
1529.00, 
1530.00, 
1531.00, 
1532.00, 
1533.00, 
1534.00, 
1535.00, 
1536.00, 
1537.00, 
1538.00, 
1539.00, 
1540.00, 
1541.00, 
1542.00, 
1543.00, 
1544.00, 
1545.00, 
1546.00, 
1547.00, 
1548.00, 
1549.00, 
1550.00, 
1551.00, 
1552.00, 
1553.00, 
1554.00, 
1555.00, 
1556.00, 
1557.00, 
1558.00, 
1559.00, 
1560.00, 
1561.00, 
1562.00, 
1563.00, 
1564.00, 
1565.00, 
1566.00, 
1567.00, 
1568.00, 
1569.00, 
1570.00, 
1571.00, 
1572.00, 
1573.00, 
1574.00, 
1575.00, 
1576.00, 
1577.00, 
1578.00, 
1579.00, 
1580.00, 
1581.00, 
1582.00, 
1583.00, 
1584.00, 
1585.00, 
1586.00, 
1587.00, 
1588.00, 
1589.00, 
1590.00, 
1591.00, 
1592.00, 
1593.00, 
1594.00, 
1595.00, 
1596.00, 
1597.00, 
1598.00, 
1599.00, 
1600.00, 
1601.00, 
1602.00, 
1603.00, 
1604.00, 
1605.00, 
1606.00, 
1607.00, 
1608.00, 
1609.00, 
1610.00, 
1611.00, 
1612.00, 
1613.00, 
1614.00, 
1615.00, 
1616.00, 
1617.00, 
1618.00, 
1619.00, 
1620.00, 
1621.00, 
1622.00, 
1623.00, 
1624.00, 
1625.00, 
1626.00, 
1627.00, 
1628.00, 
1629.00, 
1630.00, 
1631.00, 
1632.00, 
1633.00, 
1634.00, 
1635.00, 
1636.00, 
1637.00, 
1638.00, 
1639.00, 
1640.00, 
1641.00, 
1642.00, 
1643.00, 
1644.00, 
1645.00, 
1646.00, 
1647.00, 
1648.00, 
1649.00, 
1650.00, 
1651.00, 
1652.00, 
1653.00, 
1654.00, 
1655.00, 
1656.00, 
1657.00, 
1658.00, 
1659.00, 
1660.00, 
1661.00, 
1662.00, 
1663.00, 
1664.00, 
1665.00, 
1666.00, 
1667.00, 
1668.00, 
1669.00, 
1670.00, 
1671.00, 
1672.00, 
1673.00, 
1674.00, 
1675.00, 
1676.00, 
1677.00, 
1678.00, 
1679.00, 
1680.00, 
1681.00, 
1682.00, 
1683.00, 
1684.00, 
1685.00, 
1686.00, 
1687.00, 
1688.00, 
1689.00, 
1690.00, 
1691.00, 
1692.00, 
1693.00, 
1694.00, 
1695.00, 
1696.00, 
1697.00, 
1698.00, 
1699.00, 
1700.00, 
1701.00, 
1702.00, 
1703.00, 
1704.00, 
1705.00, 
1706.00, 
1707.00, 
1708.00, 
1709.00, 
1710.00, 
1711.00, 
1712.00, 
1713.00, 
1714.00, 
1715.00, 
1716.00, 
1717.00, 
1718.00, 
1719.00, 
1720.00, 
1721.00, 
1722.00, 
1723.00, 
1724.00, 
1725.00, 
1726.00, 
1727.00, 
1728.00, 
1729.00, 
1730.00, 
1731.00, 
1732.00, 
1733.00, 
1734.00, 
1735.00, 
1736.00, 
1737.00, 
1738.00, 
1739.00, 
1740.00, 
1741.00, 
1742.00, 
1743.00, 
1744.00, 
1745.00, 
1746.00, 
1747.00, 
1748.00, 
1749.00, 
1750.00, 
1751.00, 
1752.00, 
1753.00, 
1754.00, 
1755.00, 
1756.00, 
1757.00, 
1758.00, 
1759.00, 
1760.00, 
1761.00, 
1762.00, 
1763.00, 
1764.00, 
1765.00, 
1766.00, 
1767.00, 
1768.00, 
1769.00, 
1770.00, 
1771.00, 
1772.00, 
1773.00, 
1774.00, 
1775.00, 
1776.00, 
1777.00, 
1778.00, 
1779.00, 
1780.00, 
1781.00, 
1782.00, 
1783.00, 
1784.00, 
1785.00, 
1786.00, 
1787.00, 
1788.00, 
1789.00, 
1790.00, 
1791.00, 
1792.00, 
1793.00, 
1794.00, 
1795.00, 
1796.00, 
1797.00, 
1798.00, 
1799.00, 
1800.00, 
1801.00, 
1802.00, 
1803.00, 
1804.00, 
1805.00, 
1806.00, 
1807.00, 
1808.00, 
1809.00, 
1810.00, 
1811.00, 
1812.00, 
1813.00, 
1814.00, 
1815.00, 
1816.00, 
1817.00, 
1818.00, 
1819.00, 
1820.00, 
1821.00, 
1822.00, 
1823.00, 
1824.00, 
1825.00, 
1826.00, 
1827.00, 
1828.00, 
1829.00, 
1830.00, 
1831.00, 
1832.00, 
1833.00, 
1834.00, 
1835.00, 
1836.00, 
1837.00, 
1838.00, 
1839.00, 
1840.00, 
1841.00, 
1842.00, 
1843.00, 
1844.00, 
1845.00, 
1846.00, 
1847.00, 
1848.00, 
1849.00, 
1850.00, 
1851.00, 
1852.00, 
1853.00, 
1854.00, 
1855.00, 
1856.00, 
1857.00, 
1858.00, 
1859.00, 
1860.00, 
1861.00, 
1862.00, 
1863.00, 
1864.00, 
1865.00, 
1866.00, 
1867.00, 
1868.00, 
1869.00, 
1870.00, 
1871.00, 
1872.00, 
1873.00, 
1874.00, 
1875.00, 
1876.00, 
1877.00, 
1878.00, 
1879.00, 
1880.00, 
1881.00, 
1882.00, 
1883.00, 
1884.00, 
1885.00, 
1886.00, 
1887.00, 
1888.00, 
1889.00, 
1890.00, 
1891.00, 
1892.00, 
1893.00, 
1894.00, 
1895.00, 
1896.00, 
1897.00, 
1898.00, 
1899.00, 
1900.00, 
1901.00, 
1902.00, 
1903.00, 
1904.00, 
1905.00, 
1906.00, 
1907.00, 
1908.00, 
1909.00, 
1910.00, 
1911.00, 
1912.00, 
1913.00, 
1914.00, 
1915.00, 
1916.00, 
1917.00, 
1918.00, 
1919.00, 
1920.00, 
1921.00, 
1922.00, 
1923.00, 
1924.00, 
1925.00, 
1926.00, 
1927.00, 
1928.00, 
1929.00, 
1930.00, 
1931.00, 
1932.00, 
1933.00, 
1934.00, 
1935.00, 
1936.00, 
1937.00, 
1938.00, 
1939.00, 
1940.00, 
1941.00, 
1942.00, 
1943.00, 
1944.00, 
1945.00, 
1946.00, 
1947.00, 
1948.00, 
1949.00, 
1950.00, 
1951.00, 
1952.00, 
1953.00, 
1954.00, 
1955.00, 
1956.00, 
1957.00, 
1958.00, 
1959.00, 
1960.00, 
1961.00, 
1962.00, 
1963.00, 
1964.00, 
1965.00, 
1966.00, 
1967.00, 
1968.00, 
1969.00, 
1970.00, 
1971.00, 
1972.00, 
1973.00, 
1974.00, 
1975.00, 
1976.00, 
1977.00, 
1978.00, 
1979.00, 
1980.00, 
1981.00, 
1982.00, 
1983.00, 
1984.00, 
1985.00, 
1986.00, 
1987.00, 
1988.00, 
1989.00, 
1990.00, 
1991.00, 
1992.00, 
1993.00, 
1994.00, 
1995.00, 
1996.00, 
1997.00, 
1998.00, 
1999.00, 
2000.00, 
2001.00, 
2002.00, 
2003.00, 
2004.00, 
2005.00, 
2006.00, 
2007.00, 
2008.00, 
2009.00, 
2010.00, 
2011.00, 
2012.00, 
2013.00, 
2014.00, 
2015.00, 
2016.00, 
2017.00, 
2018.00, 
2019.00, 
2020.00, 
2021.00, 
2022.00, 
2023.00, 
2024.00, 
2025.00, 
2026.00, 
2027.00, 
2028.00, 
2029.00, 
2030.00, 
2031.00, 
2032.00, 
2033.00, 
2034.00, 
2035.00, 
2036.00, 
2037.00, 
2038.00, 
2039.00, 
2040.00, 
2041.00, 
2042.00, 
2043.00, 
2044.00, 
2045.00, 
2046.00, 
2047.00, 
2048.00, 
2049.00, 
2050.00, 
2051.00, 
2052.00, 
2053.00, 
2054.00, 
2055.00, 
2056.00, 
2057.00, 
2058.00, 
2059.00, 
2060.00, 
2061.00, 
2062.00, 
2063.00, 
2064.00, 
2065.00, 
2066.00, 
2067.00, 
2068.00, 
2069.00, 
2070.00, 
2071.00, 
2072.00, 
2073.00, 
2074.00, 
2075.00, 
2076.00, 
2077.00, 
2078.00, 
2079.00, 
2080.00, 
2081.00, 
2082.00, 
2083.00, 
2084.00, 
2085.00, 
2086.00, 
2087.00, 
2088.00, 
2089.00, 
2090.00, 
2091.00, 
2092.00, 
2093.00, 
2094.00, 
2095.00, 
2096.00, 
2097.00, 
2098.00, 
2099.00, 
2100.00, 
2101.00, 
2102.00, 
2103.00, 
2104.00, 
2105.00, 
2106.00, 
2107.00, 
2108.00, 
2109.00, 
2110.00, 
2111.00, 
2112.00, 
2113.00, 
2114.00, 
2115.00, 
2116.00, 
2117.00, 
2118.00, 
2119.00, 
2120.00, 
2121.00, 
2122.00, 
2123.00, 
2124.00, 
2125.00, 
2126.00, 
2127.00, 
2128.00, 
2129.00, 
2130.00, 
2131.00, 
2132.00, 
2133.00, 
2134.00, 
2135.00, 
2136.00, 
2137.00, 
2138.00, 
2139.00, 
2140.00, 
2141.00, 
2142.00, 
2143.00, 
2144.00, 
2145.00, 
2146.00, 
2147.00, 
2148.00, 
2149.00, 
2150.00, 
2151.00, 
2152.00, 
2153.00, 
2154.00, 
2155.00, 
2156.00, 
2157.00, 
2158.00, 
2159.00, 
2160.00, 
2161.00, 
2162.00, 
2163.00, 
2164.00, 
2165.00, 
2166.00, 
2167.00, 
2168.00, 
2169.00, 
2170.00, 
2171.00, 
2172.00, 
2173.00, 
2174.00, 
2175.00, 
2176.00, 
2177.00, 
2178.00, 
2179.00, 
2180.00, 
2181.00, 
2182.00, 
2183.00, 
2184.00, 
2185.00, 
2186.00, 
2187.00, 
2188.00, 
2189.00, 
2190.00, 
2191.00, 
2192.00, 
2193.00, 
2194.00, 
2195.00, 
2196.00, 
2197.00, 
2198.00, 
2199.00, 
2200.00, 
2201.00, 
2202.00, 
2203.00, 
2204.00, 
2205.00, 
2206.00, 
2207.00, 
2208.00, 
2209.00, 
2210.00, 
2211.00, 
2212.00, 
2213.00, 
2214.00, 
2215.00, 
2216.00, 
2217.00, 
2218.00, 
2219.00, 
2220.00, 
2221.00, 
2222.00, 
2223.00, 
2224.00, 
2225.00, 
2226.00, 
2227.00, 
2228.00, 
2229.00, 
2230.00, 
2231.00, 
2232.00, 
2233.00, 
2234.00, 
2235.00, 
2236.00, 
2237.00, 
2238.00, 
2239.00, 
2240.00, 
2241.00, 
2242.00, 
2243.00, 
2244.00, 
2245.00, 
2246.00, 
2247.00, 
2248.00, 
2249.00, 
2250.00, 
2251.00, 
2252.00, 
2253.00, 
2254.00, 
2255.00, 
2256.00, 
2257.00, 
2258.00, 
2259.00, 
2260.00, 
2261.00, 
2262.00, 
2263.00, 
2264.00, 
2265.00, 
2266.00, 
2267.00, 
2268.00, 
2269.00, 
2270.00, 
2271.00, 
2272.00, 
2273.00, 
2274.00, 
2275.00, 
2276.00, 
2277.00, 
2278.00, 
2279.00, 
2280.00, 
2281.00, 
2282.00, 
2283.00, 
2284.00, 
2285.00, 
2286.00, 
2287.00, 
2288.00, 
2289.00, 
2290.00, 
2291.00, 
2292.00, 
2293.00, 
2294.00, 
2295.00, 
2296.00, 
2297.00, 
2298.00, 
2299.00, 
2300.00, 
2301.00, 
2302.00, 
2303.00, 
2304.00, 
2305.00, 
2306.00, 
2307.00, 
2308.00, 
2309.00, 
2310.00, 
2311.00, 
2312.00, 
2313.00, 
2314.00, 
2315.00, 
2316.00, 
2317.00, 
2318.00, 
2319.00, 
2320.00, 
2321.00, 
2322.00, 
2323.00, 
2324.00, 
2325.00, 
2326.00, 
2327.00, 
2328.00, 
2329.00, 
2330.00, 
2331.00, 
2332.00, 
2333.00, 
2334.00, 
2335.00, 
2336.00, 
2337.00, 
2338.00, 
2339.00, 
2340.00, 
2341.00, 
2342.00, 
2343.00, 
2344.00, 
2345.00, 
2346.00, 
2347.00, 
2348.00, 
2349.00, 
2350.00, 
2351.00, 
2352.00, 
2353.00, 
2354.00, 
2355.00, 
2356.00, 
2357.00, 
2358.00, 
2359.00, 
2360.00, 
2361.00, 
2362.00, 
2363.00, 
2364.00, 
2365.00, 
2366.00, 
2367.00, 
2368.00, 
2369.00, 
2370.00, 
2371.00, 
2372.00, 
2373.00, 
2374.00, 
2375.00, 
2376.00, 
2377.00, 
2378.00, 
2379.00, 
2380.00, 
2381.00, 
2382.00, 
2383.00, 
2384.00, 
2385.00, 
2386.00, 
2387.00, 
2388.00, 
2389.00, 
2390.00, 
2391.00, 
2392.00, 
2393.00, 
2394.00, 
2395.00, 
2396.00, 
2397.00, 
2398.00, 
2399.00, 
2400.00, 
2401.00, 
2402.00, 
2403.00, 
2404.00, 
2405.00, 
2406.00, 
2407.00, 
2408.00, 
2409.00, 
2410.00, 
2411.00, 
2412.00, 
2413.00, 
2414.00, 
2415.00, 
2416.00, 
2417.00, 
2418.00, 
2419.00, 
2420.00, 
2421.00, 
2422.00, 
2423.00, 
2424.00, 
2425.00, 
2426.00, 
2427.00, 
2428.00, 
2429.00, 
2430.00, 
2431.00, 
2432.00, 
2433.00, 
2434.00, 
2435.00, 
2436.00, 
2437.00, 
2438.00, 
2439.00, 
2440.00, 
2441.00, 
2442.00, 
2443.00, 
2444.00, 
2445.00, 
2446.00, 
2447.00, 
2448.00, 
2449.00, 
2450.00, 
2451.00, 
2452.00, 
2453.00, 
2454.00, 
2455.00, 
2456.00, 
2457.00, 
2458.00, 
2459.00, 
2460.00, 
2461.00, 
2462.00, 
2463.00, 
2464.00, 
2465.00, 
2466.00, 
2467.00, 
2468.00, 
2469.00, 
2470.00, 
2471.00, 
2472.00, 
2473.00, 
2474.00, 
2475.00, 
2476.00, 
2477.00, 
2478.00, 
2479.00, 
2480.00, 
2481.00, 
2482.00, 
2483.00, 
2484.00, 
2485.00, 
2486.00, 
2487.00, 
2488.00, 
2489.00, 
2490.00, 
2491.00, 
2492.00, 
2493.00, 
2494.00, 
2495.00, 
2496.00, 
2497.00, 
2498.00, 
2499.00, 
2500.00, 
2501.00, 
2502.00, 
2503.00, 
2504.00, 
2505.00, 
2506.00, 
2507.00, 
2508.00, 
2509.00, 
2510.00, 
2511.00, 
2512.00, 
2513.00, 
2514.00, 
2515.00, 
2516.00, 
2517.00, 
2518.00, 
2519.00, 
2520.00, 
2521.00, 
2522.00, 
2523.00, 
2524.00, 
2525.00, 
2526.00, 
2527.00, 
2528.00, 
2529.00, 
2530.00, 
2531.00, 
2532.00, 
2533.00, 
2534.00, 
2535.00, 
2536.00, 
2537.00, 
2538.00, 
2539.00, 
2540.00, 
2541.00, 
2542.00, 
2543.00, 
2544.00, 
2545.00, 
2546.00, 
2547.00, 
2548.00, 
2549.00, 
2550.00, 
2551.00, 
2552.00, 
2553.00, 
2554.00, 
2555.00, 
2556.00, 
2557.00, 
2558.00, 
2559.00, 
2560.00, 
2561.00, 
2562.00, 
2563.00, 
2564.00, 
2565.00, 
2566.00, 
2567.00, 
2568.00, 
2569.00, 
2570.00, 
2571.00, 
2572.00, 
2573.00, 
2574.00, 
2575.00, 
2576.00, 
2577.00, 
2578.00, 
2579.00, 
2580.00, 
2581.00, 
2582.00, 
2583.00, 
2584.00, 
2585.00, 
2586.00, 
2587.00, 
2588.00, 
2589.00, 
2590.00, 
2591.00, 
2592.00, 
2593.00, 
2594.00, 
2595.00, 
2596.00, 
2597.00, 
2598.00, 
2599.00, 
2600.00, 
