"2cP4 - RawData"
"Wavelength nm.","T%"
200.00,-0.001
201.00,0.000
202.00,0.000
203.00,0.002
204.00,0.004
205.00,-0.002
206.00,0.002
207.00,0.000
208.00,0.003
209.00,0.002
210.00,0.002
211.00,0.003
212.00,-0.000
213.00,0.003
214.00,0.004
215.00,0.001
216.00,0.000
217.00,-0.000
218.00,0.001
219.00,-0.000
220.00,0.005
221.00,-0.001
222.00,-0.001
223.00,-0.000
224.00,0.003
225.00,-0.001
226.00,0.000
227.00,0.001
228.00,0.003
229.00,-0.000
230.00,0.000
231.00,-0.000
232.00,0.003
233.00,0.000
234.00,0.002
235.00,-0.000
236.00,0.002
237.00,0.001
238.00,0.000
239.00,0.002
240.00,0.001
241.00,0.002
242.00,0.001
243.00,-0.000
244.00,-0.000
245.00,0.000
246.00,0.001
247.00,0.002
248.00,-0.001
249.00,-0.001
250.00,0.001
251.00,-0.000
252.00,0.001
253.00,0.000
254.00,0.002
255.00,-0.002
256.00,-0.000
257.00,-0.001
258.00,0.000
259.00,0.002
260.00,-0.000
261.00,-0.000
262.00,-0.001
263.00,0.002
264.00,0.003
265.00,0.001
266.00,0.001
267.00,0.001
268.00,-0.000
269.00,0.001
270.00,0.001
271.00,0.000
272.00,-0.000
273.00,0.001
274.00,-0.001
275.00,0.001
276.00,0.001
277.00,-0.000
278.00,-0.001
279.00,0.000
280.00,0.001
281.00,0.001
282.00,0.001
283.00,0.001
284.00,0.000
285.00,0.000
286.00,0.000
287.00,-0.000
288.00,-0.000
289.00,0.002
290.00,0.002
291.00,0.000
292.00,-0.000
293.00,0.000
294.00,-0.002
295.00,0.001
296.00,0.000
297.00,0.001
298.00,0.000
299.00,0.002
300.00,0.002
301.00,0.002
302.00,0.006
303.00,0.010
304.00,0.012
305.00,0.022
306.00,0.034
307.00,0.048
308.00,0.078
309.00,0.122
310.00,0.171
311.00,0.234
312.00,0.311
313.00,0.420
314.00,0.553
315.00,0.721
316.00,0.927
317.00,1.178
318.00,1.440
319.00,1.773
320.00,2.149
321.00,2.586
322.00,3.054
323.00,3.601
324.00,4.160
325.00,4.740
326.00,5.363
327.00,6.048
328.00,6.776
329.00,7.496
330.00,8.283
331.00,9.038
332.00,9.799
333.00,10.615
334.00,11.416
335.00,12.223
336.00,13.064
337.00,13.852
338.00,14.599
339.00,15.362
340.00,16.062
341.00,16.844
342.00,17.524
343.00,18.144
344.00,18.814
345.00,19.439
346.00,20.023
347.00,20.583
348.00,21.085
349.00,21.573
350.00,22.069
351.00,22.445
352.00,22.858
353.00,23.201
354.00,23.627
355.00,24.039
356.00,24.297
357.00,24.613
358.00,24.836
359.00,25.170
360.00,25.442
361.00,25.579
362.00,25.892
363.00,26.071
364.00,26.245
365.00,26.338
366.00,26.505
367.00,26.653
368.00,26.676
369.00,26.784
370.00,26.883
371.00,26.864
372.00,26.934
373.00,27.019
374.00,27.084
375.00,27.056
376.00,27.034
377.00,27.020
378.00,26.976
379.00,26.940
380.00,26.957
381.00,26.922
382.00,26.992
383.00,27.005
384.00,27.078
385.00,27.121
386.00,27.169
387.00,27.241
388.00,27.318
389.00,27.360
390.00,27.410
391.00,27.514
392.00,27.538
393.00,27.557
394.00,27.632
395.00,27.662
396.00,27.669
397.00,27.684
398.00,27.705
399.00,27.761
400.00,27.834
401.00,27.783
402.00,27.817
403.00,27.792
404.00,27.793
405.00,27.803
406.00,27.810
407.00,27.792
408.00,27.816
409.00,27.753
410.00,27.759
411.00,27.741
412.00,27.728
413.00,27.709
414.00,27.735
415.00,27.746
416.00,27.767
417.00,27.732
418.00,27.765
419.00,27.874
420.00,27.892
421.00,28.014
422.00,28.019
423.00,28.056
424.00,28.124
425.00,28.144
426.00,28.217
427.00,28.255
428.00,28.252
429.00,28.327
430.00,28.352
431.00,28.451
432.00,28.503
433.00,28.540
434.00,28.592
435.00,28.691
436.00,28.752
437.00,28.793
438.00,28.919
439.00,28.954
440.00,29.010
441.00,29.149
442.00,29.208
443.00,29.286
444.00,29.338
445.00,29.459
446.00,29.568
447.00,29.639
448.00,29.766
449.00,29.853
450.00,29.937
451.00,30.064
452.00,30.145
453.00,30.317
454.00,30.375
455.00,30.467
456.00,30.592
457.00,30.696
458.00,30.780
459.00,30.905
460.00,31.048
461.00,31.145
462.00,31.266
463.00,31.430
464.00,31.503
465.00,31.634
466.00,31.809
467.00,31.928
468.00,31.985
469.00,32.123
470.00,32.193
471.00,32.288
472.00,32.374
473.00,32.474
474.00,32.669
475.00,32.713
476.00,32.797
477.00,32.879
478.00,33.031
479.00,33.180
480.00,33.313
481.00,33.450
482.00,33.582
483.00,33.728
484.00,33.915
485.00,33.994
486.00,34.181
487.00,34.326
488.00,34.473
489.00,34.635
490.00,34.716
491.00,34.781
492.00,34.881
493.00,35.071
494.00,35.146
495.00,35.282
496.00,35.374
497.00,35.457
498.00,35.607
499.00,35.704
500.00,35.810
501.00,35.895
502.00,36.029
503.00,36.184
504.00,36.183
505.00,36.377
506.00,36.436
507.00,36.571
508.00,36.644
509.00,36.819
510.00,36.895
511.00,36.927
512.00,37.179
513.00,37.270
514.00,37.306
515.00,37.433
516.00,37.466
517.00,37.492
518.00,37.769
519.00,37.768
520.00,37.784
521.00,37.921
522.00,37.995
523.00,37.990
524.00,38.140
525.00,38.206
526.00,38.291
527.00,38.292
528.00,38.353
529.00,38.490
530.00,38.670
531.00,38.763
532.00,38.811
533.00,38.899
534.00,39.018
535.00,39.026
536.00,39.095
537.00,39.196
538.00,39.269
539.00,39.274
540.00,39.360
541.00,39.455
542.00,39.463
543.00,39.546
544.00,39.642
545.00,39.631
546.00,39.668
547.00,39.793
548.00,39.891
549.00,39.893
550.00,39.907
551.00,40.062
552.00,40.119
553.00,40.087
554.00,40.189
555.00,40.223
556.00,40.249
557.00,40.302
558.00,40.368
559.00,40.426
560.00,40.500
561.00,40.562
562.00,40.612
563.00,40.629
564.00,40.684
565.00,40.680
566.00,40.704
567.00,40.735
568.00,40.763
569.00,40.877
570.00,40.866
571.00,40.924
572.00,40.921
573.00,40.865
574.00,40.974
575.00,41.007
576.00,41.026
577.00,41.078
578.00,41.164
579.00,41.169
580.00,41.158
581.00,41.394
582.00,41.506
583.00,41.401
584.00,41.523
585.00,41.591
586.00,41.520
587.00,41.739
588.00,41.774
589.00,41.640
590.00,41.815
591.00,41.922
592.00,41.787
593.00,41.821
594.00,41.992
595.00,41.997
596.00,42.137
597.00,42.326
598.00,42.186
599.00,42.154
600.00,42.195
601.00,42.253
602.00,42.262
603.00,42.339
604.00,42.342
605.00,42.338
606.00,42.406
607.00,42.377
608.00,42.376
609.00,42.477
610.00,42.666
611.00,42.536
612.00,42.481
613.00,42.692
614.00,42.695
615.00,42.646
616.00,42.645
617.00,42.881
618.00,42.891
619.00,42.838
620.00,42.956
621.00,43.034
622.00,43.103
623.00,43.132
624.00,43.173
625.00,43.215
626.00,43.209
627.00,43.308
628.00,43.351
629.00,43.386
630.00,43.444
631.00,43.445
632.00,43.453
633.00,43.655
634.00,43.716
635.00,43.829
636.00,43.848
637.00,43.833
638.00,43.892
639.00,44.067
640.00,44.057
641.00,44.000
642.00,44.122
643.00,44.221
644.00,44.245
645.00,44.270
646.00,44.455
647.00,44.495
648.00,44.524
649.00,44.489
650.00,44.529
651.00,44.680
652.00,44.746
653.00,44.720
654.00,44.763
655.00,45.005
656.00,45.180
657.00,44.990
658.00,45.026
659.00,45.237
660.00,45.278
661.00,45.376
662.00,45.378
663.00,45.416
664.00,45.652
665.00,45.775
666.00,45.653
667.00,45.727
668.00,45.719
669.00,45.868
670.00,46.169
671.00,46.127
672.00,46.185
673.00,46.207
674.00,46.119
675.00,46.215
676.00,46.494
677.00,46.594
678.00,46.573
679.00,46.918
680.00,46.771
681.00,46.897
682.00,46.729
683.00,46.844
684.00,46.991
685.00,47.053
686.00,46.986
687.00,47.082
688.00,47.129
689.00,47.135
690.00,47.419
691.00,47.593
692.00,47.428
693.00,47.363
694.00,47.574
695.00,47.642
696.00,47.642
697.00,47.535
698.00,47.586
699.00,47.914
700.00,47.972
701.00,47.866
702.00,47.812
703.00,47.999
704.00,48.303
705.00,48.103
706.00,48.234
707.00,48.258
708.00,48.177
709.00,48.475
710.00,48.857
711.00,48.350
712.00,48.519
713.00,48.626
714.00,48.723
715.00,48.750
716.00,48.582
717.00,48.741
718.00,48.861
719.00,48.841
720.00,48.920
721.00,53.475
722.00,53.481
723.00,53.404
724.00,53.410
725.00,53.435
726.00,53.472
727.00,53.483
728.00,53.421
729.00,53.500
730.00,53.440
731.00,53.402
732.00,53.513
733.00,53.476
734.00,53.527
735.00,53.587
736.00,53.510
737.00,53.558
738.00,53.635
739.00,53.559
740.00,53.562
741.00,53.612
742.00,53.631
743.00,53.605
744.00,53.589
745.00,53.610
746.00,53.586
747.00,53.585
748.00,53.571
749.00,53.504
750.00,53.467
751.00,53.557
752.00,53.492
753.00,53.484
754.00,53.438
755.00,53.446
756.00,53.475
757.00,53.447
758.00,53.542
759.00,53.449
760.00,53.460
761.00,53.512
762.00,53.422
763.00,53.523
764.00,53.418
765.00,53.438
766.00,53.384
767.00,53.459
768.00,53.446
769.00,53.442
770.00,53.459
771.00,53.488
772.00,53.460
773.00,53.388
774.00,53.464
775.00,53.442
776.00,53.413
777.00,53.461
778.00,53.432
779.00,53.489
780.00,53.406
781.00,53.443
782.00,53.454
783.00,53.399
784.00,53.373
785.00,53.405
786.00,53.371
787.00,53.300
788.00,53.335
789.00,53.278
790.00,53.227
791.00,53.265
792.00,53.253
793.00,53.171
794.00,53.144
795.00,53.173
796.00,53.242
797.00,53.163
798.00,53.175
799.00,53.085
800.00,53.161
801.00,53.078
802.00,53.043
803.00,53.037
804.00,52.995
805.00,53.016
806.00,52.951
807.00,53.001
808.00,52.990
809.00,52.913
810.00,52.897
811.00,52.899
812.00,52.946
813.00,52.819
814.00,52.858
815.00,52.842
816.00,52.729
817.00,52.789
818.00,52.736
819.00,52.686
820.00,52.704
821.00,52.733
822.00,52.627
823.00,52.650
824.00,52.706
825.00,52.697
826.00,52.601
827.00,52.599
828.00,52.666
829.00,52.545
830.00,52.622
831.00,54.664
832.00,54.633
833.00,54.603
834.00,54.622
835.00,54.555
836.00,54.604
837.00,54.567
838.00,54.563
839.00,54.520
840.00,54.458
841.00,54.477
842.00,54.419
843.00,54.411
844.00,54.414
845.00,54.412
846.00,54.366
847.00,54.325
848.00,54.135
849.00,54.253
850.00,54.217
851.00,54.123
852.00,54.226
853.00,54.101
854.00,54.124
855.00,54.024
856.00,54.055
857.00,54.030
858.00,53.973
859.00,53.919
860.00,53.953
861.00,53.921
862.00,53.870
863.00,53.903
864.00,53.845
865.00,53.879
866.00,53.808
867.00,53.859
868.00,53.783
869.00,53.783
870.00,53.772
871.00,53.783
872.00,53.746
873.00,53.800
874.00,53.713
875.00,53.738
876.00,53.756
877.00,53.689
878.00,53.685
879.00,53.715
880.00,53.630
881.00,53.617
882.00,53.661
883.00,53.560
884.00,53.578
885.00,53.542
886.00,53.549
887.00,53.506
888.00,53.479
889.00,53.438
890.00,53.463
891.00,53.366
892.00,53.399
893.00,53.376
894.00,53.377
895.00,53.325
896.00,53.330
897.00,53.292
898.00,53.273
899.00,53.279
900.00,53.241
901.00,53.228
902.00,53.239
903.00,53.188
904.00,53.220
905.00,53.161
906.00,53.202
907.00,53.161
908.00,53.117
909.00,53.074
910.00,53.050
911.00,53.074
912.00,53.055
913.00,53.023
914.00,53.006
915.00,52.934
916.00,52.973
917.00,52.880
918.00,52.861
919.00,52.888
920.00,52.844
921.00,52.840
922.00,52.814
923.00,52.803
924.00,52.768
925.00,52.776
926.00,52.765
927.00,52.734
928.00,52.710
929.00,52.702
930.00,52.655
931.00,52.692
932.00,52.635
933.00,52.629
934.00,52.677
935.00,52.598
936.00,52.564
937.00,52.564
938.00,52.498
939.00,52.556
940.00,52.495
941.00,52.477
942.00,52.425
943.00,52.458
944.00,52.388
945.00,52.412
946.00,52.377
947.00,52.371
948.00,52.338
949.00,52.289
950.00,52.303
951.00,52.269
952.00,52.238
953.00,52.214
954.00,52.214
955.00,52.164
956.00,52.172
957.00,52.119
958.00,52.148
959.00,52.115
960.00,52.061
961.00,52.054
962.00,52.063
963.00,51.994
964.00,52.012
965.00,52.005
966.00,51.981
967.00,51.987
968.00,51.952
969.00,52.001
970.00,51.967
971.00,51.975
972.00,51.940
973.00,51.982
974.00,51.979
975.00,51.946
976.00,51.985
977.00,51.956
978.00,51.987
979.00,51.913
980.00,51.984
981.00,51.988
982.00,51.925
983.00,51.944
984.00,51.915
985.00,51.934
986.00,51.889
987.00,51.924
988.00,51.872
989.00,51.861
990.00,51.853
991.00,51.833
992.00,51.859
993.00,51.803
994.00,51.812
995.00,51.840
996.00,51.786
997.00,51.797
998.00,51.765
999.00,51.789
1000.00,51.727
1001.00,51.726
1002.00,51.722
1003.00,51.713
1004.00,51.687
1005.00,51.661
1006.00,51.711
1007.00,51.669
1008.00,51.659
1009.00,51.646
1010.00,51.638
1011.00,51.638
1012.00,51.583
1013.00,51.594
1014.00,51.545
1015.00,51.553
1016.00,51.529
1017.00,51.529
1018.00,51.504
1019.00,51.475
1020.00,51.492
1021.00,51.459
1022.00,51.448
1023.00,51.400
1024.00,51.407
1025.00,51.375
1026.00,51.351
1027.00,51.350
1028.00,51.363
1029.00,51.328
1030.00,51.298
1031.00,51.316
1032.00,51.259
1033.00,51.262
1034.00,51.241
1035.00,51.214
1036.00,51.193
1037.00,51.172
1038.00,51.168
1039.00,51.150
1040.00,51.134
1041.00,51.099
1042.00,51.090
1043.00,51.067
1044.00,51.076
1045.00,51.049
1046.00,51.046
1047.00,51.077
1048.00,51.079
1049.00,51.109
1050.00,51.100
1051.00,51.137
1052.00,51.145
1053.00,51.151
1054.00,51.156
1055.00,51.194
1056.00,51.226
1057.00,51.172
1058.00,51.157
1059.00,51.135
1060.00,51.159
1061.00,51.142
1062.00,51.116
1063.00,51.131
1064.00,51.139
1065.00,51.124
1066.00,51.105
1067.00,51.087
1068.00,51.118
1069.00,51.070
1070.00,51.039
1071.00,51.031
1072.00,51.063
1073.00,51.012
1074.00,51.015
1075.00,51.005
1076.00,51.001
1077.00,50.975
1078.00,50.944
1079.00,50.954
1080.00,50.953
1081.00,50.933
1082.00,50.947
1083.00,50.922
1084.00,50.911
1085.00,50.918
1086.00,50.922
1087.00,50.925
1088.00,50.874
1089.00,50.873
1090.00,50.879
1091.00,50.878
1092.00,50.849
1093.00,50.853
1094.00,50.831
1095.00,50.793
1096.00,50.789
1097.00,50.796
1098.00,50.782
1099.00,50.786
1100.00,50.795
1101.00,50.798
1102.00,50.786
1103.00,50.755
1104.00,50.759
1105.00,50.757
1106.00,50.713
1107.00,50.726
1108.00,50.723
1109.00,50.703
1110.00,50.702
1111.00,50.684
1112.00,50.678
1113.00,50.663
1114.00,50.647
1115.00,50.668
1116.00,50.655
1117.00,50.629
1118.00,50.620
1119.00,50.630
1120.00,50.600
1121.00,50.607
1122.00,50.594
1123.00,50.593
1124.00,50.597
1125.00,50.574
1126.00,50.584
1127.00,50.577
1128.00,50.547
1129.00,50.541
1130.00,50.529
1131.00,50.520
1132.00,50.511
1133.00,50.508
1134.00,50.464
1135.00,50.489
1136.00,50.486
1137.00,50.498
1138.00,50.495
1139.00,50.488
1140.00,50.490
1141.00,50.477
1142.00,50.456
1143.00,50.476
1144.00,50.437
1145.00,50.445
1146.00,50.458
1147.00,50.447
1148.00,50.448
1149.00,50.459
1150.00,50.443
1151.00,50.440
1152.00,50.431
1153.00,50.418
1154.00,50.413
1155.00,50.408
1156.00,50.406
1157.00,50.414
1158.00,50.395
1159.00,50.400
1160.00,50.411
1161.00,50.401
1162.00,50.397
1163.00,50.413
1164.00,50.391
1165.00,50.385
1166.00,50.389
1167.00,50.372
1168.00,50.391
1169.00,50.378
1170.00,50.381
1171.00,50.367
1172.00,50.352
1173.00,50.365
1174.00,50.362
1175.00,50.356
1176.00,50.374
1177.00,50.345
1178.00,50.353
1179.00,50.401
1180.00,50.356
1181.00,50.375
1182.00,50.377
1183.00,50.348
1184.00,50.342
1185.00,50.355
1186.00,50.328
1187.00,50.330
1188.00,50.318
1189.00,50.332
1190.00,50.327
1191.00,50.321
1192.00,50.358
1193.00,50.351
1194.00,50.345
1195.00,50.317
1196.00,50.353
1197.00,50.342
1198.00,50.317
1199.00,50.302
1200.00,50.302
1201.00,50.330
1202.00,50.297
1203.00,50.300
1204.00,50.318
1205.00,50.300
1206.00,50.310
1207.00,50.310
1208.00,50.288
1209.00,50.304
1210.00,50.293
1211.00,50.289
1212.00,50.305
1213.00,50.267
1214.00,50.295
1215.00,50.285
1216.00,50.305
1217.00,50.301
1218.00,50.291
1219.00,50.311
1220.00,50.286
1221.00,50.295
1222.00,50.289
1223.00,50.311
1224.00,50.294
1225.00,50.287
1226.00,50.288
1227.00,50.271
1228.00,50.289
1229.00,50.287
1230.00,50.311
1231.00,50.311
1232.00,50.317
1233.00,50.322
1234.00,50.335
1235.00,50.307
1236.00,50.314
1237.00,50.333
1238.00,50.328
1239.00,50.335
1240.00,50.322
1241.00,50.323
1242.00,50.333
1243.00,50.353
1244.00,50.332
1245.00,50.369
1246.00,50.368
1247.00,50.356
1248.00,50.366
1249.00,50.360
1250.00,50.377
1251.00,50.371
1252.00,50.354
1253.00,50.368
1254.00,50.396
1255.00,50.366
1256.00,50.351
1257.00,50.325
1258.00,50.397
1259.00,50.387
1260.00,50.389
1261.00,50.383
1262.00,50.378
1263.00,50.372
1264.00,50.386
1265.00,50.387
1266.00,50.385
1267.00,50.407
1268.00,50.397
1269.00,50.415
1270.00,50.441
1271.00,50.420
1272.00,50.423
1273.00,50.430
1274.00,50.430
1275.00,50.437
1276.00,50.437
1277.00,50.437
1278.00,50.460
1279.00,50.433
1280.00,50.441
1281.00,50.472
1282.00,50.454
1283.00,50.471
1284.00,50.484
1285.00,50.463
1286.00,50.477
1287.00,50.473
1288.00,50.482
1289.00,50.483
1290.00,50.495
1291.00,50.511
1292.00,50.511
1293.00,50.487
1294.00,50.509
1295.00,50.534
1296.00,50.511
1297.00,50.535
1298.00,50.544
1299.00,50.538
1300.00,50.554
1301.00,50.511
1302.00,50.542
1303.00,50.544
1304.00,50.514
1305.00,50.545
1306.00,50.557
1307.00,50.554
1308.00,50.570
1309.00,50.571
1310.00,50.588
1311.00,50.586
1312.00,50.570
1313.00,50.594
1314.00,50.630
1315.00,50.607
1316.00,50.622
1317.00,50.646
1318.00,50.622
1319.00,50.619
1320.00,50.620
1321.00,50.810
1322.00,50.807
1323.00,50.777
1324.00,50.757
1325.00,50.770
1326.00,50.780
1327.00,50.767
1328.00,50.776
1329.00,50.772
1330.00,50.755
1331.00,50.787
1332.00,50.773
1333.00,50.783
1334.00,50.792
1335.00,50.833
1336.00,50.858
1337.00,50.883
1338.00,50.940
1339.00,51.009
1340.00,51.046
1341.00,51.101
1342.00,51.171
1343.00,51.205
1344.00,51.248
1345.00,51.307
1346.00,51.331
1347.00,51.348
1348.00,51.392
1349.00,51.421
1350.00,51.435
1351.00,51.440
1352.00,51.438
1353.00,51.553
1354.00,51.464
1355.00,51.376
1356.00,51.468
1357.00,51.486
1358.00,51.448
1359.00,51.611
1360.00,51.778
1361.00,51.352
1362.00,51.441
1363.00,51.542
1364.00,51.604
1365.00,51.512
1366.00,51.506
1367.00,51.481
1368.00,51.492
1369.00,51.528
1370.00,51.499
1371.00,51.434
1372.00,51.483
1373.00,51.465
1374.00,51.488
1375.00,51.459
1376.00,51.429
1377.00,51.476
1378.00,51.411
1379.00,51.487
1380.00,51.429
1381.00,51.475
1382.00,51.509
1383.00,51.460
1384.00,51.421
1385.00,51.447
1386.00,51.463
1387.00,51.464
1388.00,51.425
1389.00,51.413
1390.00,51.428
1391.00,51.462
1392.00,51.431
1393.00,51.353
1394.00,51.397
1395.00,51.461
1396.00,51.389
1397.00,51.407
1398.00,51.492
1399.00,51.526
1400.00,51.176
1401.00,51.385
1402.00,51.399
1403.00,51.448
1404.00,51.461
1405.00,51.486
1406.00,51.498
1407.00,51.525
1408.00,51.530
1409.00,51.457
1410.00,51.517
1411.00,51.550
1412.00,51.518
1413.00,51.520
1414.00,51.535
1415.00,51.562
1416.00,51.588
1417.00,51.576
1418.00,51.571
1419.00,51.571
1420.00,51.610
1421.00,51.610
1422.00,51.613
1423.00,51.623
1424.00,51.653
1425.00,51.662
1426.00,51.678
1427.00,51.712
1428.00,51.697
1429.00,51.698
1430.00,51.723
1431.00,51.733
1432.00,51.746
1433.00,51.751
1434.00,51.745
1435.00,51.817
1436.00,51.826
1437.00,51.835
1438.00,51.859
1439.00,51.873
1440.00,51.866
1441.00,51.879
1442.00,51.876
1443.00,51.918
1444.00,51.951
1445.00,51.901
1446.00,51.930
1447.00,51.954
1448.00,51.995
1449.00,52.022
1450.00,51.991
1451.00,52.007
1452.00,52.040
1453.00,52.039
1454.00,52.044
1455.00,52.065
1456.00,52.090
1457.00,52.113
1458.00,52.111
1459.00,52.141
1460.00,52.186
1461.00,52.174
1462.00,52.180
1463.00,52.196
1464.00,52.199
1465.00,52.233
1466.00,52.227
1467.00,52.215
1468.00,52.297
1469.00,52.259
1470.00,52.278
1471.00,52.311
1472.00,52.303
1473.00,52.305
1474.00,52.330
1475.00,52.344
1476.00,52.356
1477.00,52.328
1478.00,52.348
1479.00,52.393
1480.00,52.364
1481.00,52.395
1482.00,52.445
1483.00,52.442
1484.00,52.464
1485.00,52.479
1486.00,52.457
1487.00,52.495
1488.00,52.507
1489.00,52.499
1490.00,52.519
1491.00,52.514
1492.00,52.548
1493.00,52.558
1494.00,52.564
1495.00,52.577
1496.00,52.592
1497.00,52.581
1498.00,52.599
1499.00,52.602
1500.00,52.631
1501.00, 
1502.00, 
1503.00, 
1504.00, 
1505.00, 
1506.00, 
1507.00, 
1508.00, 
1509.00, 
1510.00, 
1511.00, 
1512.00, 
1513.00, 
1514.00, 
1515.00, 
1516.00, 
1517.00, 
1518.00, 
1519.00, 
1520.00, 
1521.00, 
1522.00, 
1523.00, 
1524.00, 
1525.00, 
1526.00, 
1527.00, 
1528.00, 
1529.00, 
1530.00, 
1531.00, 
1532.00, 
1533.00, 
1534.00, 
1535.00, 
1536.00, 
1537.00, 
1538.00, 
1539.00, 
1540.00, 
1541.00, 
1542.00, 
1543.00, 
1544.00, 
1545.00, 
1546.00, 
1547.00, 
1548.00, 
1549.00, 
1550.00, 
1551.00, 
1552.00, 
1553.00, 
1554.00, 
1555.00, 
1556.00, 
1557.00, 
1558.00, 
1559.00, 
1560.00, 
1561.00, 
1562.00, 
1563.00, 
1564.00, 
1565.00, 
1566.00, 
1567.00, 
1568.00, 
1569.00, 
1570.00, 
1571.00, 
1572.00, 
1573.00, 
1574.00, 
1575.00, 
1576.00, 
1577.00, 
1578.00, 
1579.00, 
1580.00, 
1581.00, 
1582.00, 
1583.00, 
1584.00, 
1585.00, 
1586.00, 
1587.00, 
1588.00, 
1589.00, 
1590.00, 
1591.00, 
1592.00, 
1593.00, 
1594.00, 
1595.00, 
1596.00, 
1597.00, 
1598.00, 
1599.00, 
1600.00, 
1601.00, 
1602.00, 
1603.00, 
1604.00, 
1605.00, 
1606.00, 
1607.00, 
1608.00, 
1609.00, 
1610.00, 
1611.00, 
1612.00, 
1613.00, 
1614.00, 
1615.00, 
1616.00, 
1617.00, 
1618.00, 
1619.00, 
1620.00, 
1621.00, 
1622.00, 
1623.00, 
1624.00, 
1625.00, 
1626.00, 
1627.00, 
1628.00, 
1629.00, 
1630.00, 
1631.00, 
1632.00, 
1633.00, 
1634.00, 
1635.00, 
1636.00, 
1637.00, 
1638.00, 
1639.00, 
1640.00, 
1641.00, 
1642.00, 
1643.00, 
1644.00, 
1645.00, 
1646.00, 
1647.00, 
1648.00, 
1649.00, 
1650.00, 
1651.00, 
1652.00, 
1653.00, 
1654.00, 
1655.00, 
1656.00, 
1657.00, 
1658.00, 
1659.00, 
1660.00, 
1661.00, 
1662.00, 
1663.00, 
1664.00, 
1665.00, 
1666.00, 
1667.00, 
1668.00, 
1669.00, 
1670.00, 
1671.00, 
1672.00, 
1673.00, 
1674.00, 
1675.00, 
1676.00, 
1677.00, 
1678.00, 
1679.00, 
1680.00, 
1681.00, 
1682.00, 
1683.00, 
1684.00, 
1685.00, 
1686.00, 
1687.00, 
1688.00, 
1689.00, 
1690.00, 
1691.00, 
1692.00, 
1693.00, 
1694.00, 
1695.00, 
1696.00, 
1697.00, 
1698.00, 
1699.00, 
1700.00, 
1701.00, 
1702.00, 
1703.00, 
1704.00, 
1705.00, 
1706.00, 
1707.00, 
1708.00, 
1709.00, 
1710.00, 
1711.00, 
1712.00, 
1713.00, 
1714.00, 
1715.00, 
1716.00, 
1717.00, 
1718.00, 
1719.00, 
1720.00, 
1721.00, 
1722.00, 
1723.00, 
1724.00, 
1725.00, 
1726.00, 
1727.00, 
1728.00, 
1729.00, 
1730.00, 
1731.00, 
1732.00, 
1733.00, 
1734.00, 
1735.00, 
1736.00, 
1737.00, 
1738.00, 
1739.00, 
1740.00, 
1741.00, 
1742.00, 
1743.00, 
1744.00, 
1745.00, 
1746.00, 
1747.00, 
1748.00, 
1749.00, 
1750.00, 
1751.00, 
1752.00, 
1753.00, 
1754.00, 
1755.00, 
1756.00, 
1757.00, 
1758.00, 
1759.00, 
1760.00, 
1761.00, 
1762.00, 
1763.00, 
1764.00, 
1765.00, 
1766.00, 
1767.00, 
1768.00, 
1769.00, 
1770.00, 
1771.00, 
1772.00, 
1773.00, 
1774.00, 
1775.00, 
1776.00, 
1777.00, 
1778.00, 
1779.00, 
1780.00, 
1781.00, 
1782.00, 
1783.00, 
1784.00, 
1785.00, 
1786.00, 
1787.00, 
1788.00, 
1789.00, 
1790.00, 
1791.00, 
1792.00, 
1793.00, 
1794.00, 
1795.00, 
1796.00, 
1797.00, 
1798.00, 
1799.00, 
1800.00, 
1801.00, 
1802.00, 
1803.00, 
1804.00, 
1805.00, 
1806.00, 
1807.00, 
1808.00, 
1809.00, 
1810.00, 
1811.00, 
1812.00, 
1813.00, 
1814.00, 
1815.00, 
1816.00, 
1817.00, 
1818.00, 
1819.00, 
1820.00, 
1821.00, 
1822.00, 
1823.00, 
1824.00, 
1825.00, 
1826.00, 
1827.00, 
1828.00, 
1829.00, 
1830.00, 
1831.00, 
1832.00, 
1833.00, 
1834.00, 
1835.00, 
1836.00, 
1837.00, 
1838.00, 
1839.00, 
1840.00, 
1841.00, 
1842.00, 
1843.00, 
1844.00, 
1845.00, 
1846.00, 
1847.00, 
1848.00, 
1849.00, 
1850.00, 
1851.00, 
1852.00, 
1853.00, 
1854.00, 
1855.00, 
1856.00, 
1857.00, 
1858.00, 
1859.00, 
1860.00, 
1861.00, 
1862.00, 
1863.00, 
1864.00, 
1865.00, 
1866.00, 
1867.00, 
1868.00, 
1869.00, 
1870.00, 
1871.00, 
1872.00, 
1873.00, 
1874.00, 
1875.00, 
1876.00, 
1877.00, 
1878.00, 
1879.00, 
1880.00, 
1881.00, 
1882.00, 
1883.00, 
1884.00, 
1885.00, 
1886.00, 
1887.00, 
1888.00, 
1889.00, 
1890.00, 
1891.00, 
1892.00, 
1893.00, 
1894.00, 
1895.00, 
1896.00, 
1897.00, 
1898.00, 
1899.00, 
1900.00, 
1901.00, 
1902.00, 
1903.00, 
1904.00, 
1905.00, 
1906.00, 
1907.00, 
1908.00, 
1909.00, 
1910.00, 
1911.00, 
1912.00, 
1913.00, 
1914.00, 
1915.00, 
1916.00, 
1917.00, 
1918.00, 
1919.00, 
1920.00, 
1921.00, 
1922.00, 
1923.00, 
1924.00, 
1925.00, 
1926.00, 
1927.00, 
1928.00, 
1929.00, 
1930.00, 
1931.00, 
1932.00, 
1933.00, 
1934.00, 
1935.00, 
1936.00, 
1937.00, 
1938.00, 
1939.00, 
1940.00, 
1941.00, 
1942.00, 
1943.00, 
1944.00, 
1945.00, 
1946.00, 
1947.00, 
1948.00, 
1949.00, 
1950.00, 
1951.00, 
1952.00, 
1953.00, 
1954.00, 
1955.00, 
1956.00, 
1957.00, 
1958.00, 
1959.00, 
1960.00, 
1961.00, 
1962.00, 
1963.00, 
1964.00, 
1965.00, 
1966.00, 
1967.00, 
1968.00, 
1969.00, 
1970.00, 
1971.00, 
1972.00, 
1973.00, 
1974.00, 
1975.00, 
1976.00, 
1977.00, 
1978.00, 
1979.00, 
1980.00, 
1981.00, 
1982.00, 
1983.00, 
1984.00, 
1985.00, 
1986.00, 
1987.00, 
1988.00, 
1989.00, 
1990.00, 
1991.00, 
1992.00, 
1993.00, 
1994.00, 
1995.00, 
1996.00, 
1997.00, 
1998.00, 
1999.00, 
2000.00, 
2001.00, 
2002.00, 
2003.00, 
2004.00, 
2005.00, 
2006.00, 
2007.00, 
2008.00, 
2009.00, 
2010.00, 
2011.00, 
2012.00, 
2013.00, 
2014.00, 
2015.00, 
2016.00, 
2017.00, 
2018.00, 
2019.00, 
2020.00, 
2021.00, 
2022.00, 
2023.00, 
2024.00, 
2025.00, 
2026.00, 
2027.00, 
2028.00, 
2029.00, 
2030.00, 
2031.00, 
2032.00, 
2033.00, 
2034.00, 
2035.00, 
2036.00, 
2037.00, 
2038.00, 
2039.00, 
2040.00, 
2041.00, 
2042.00, 
2043.00, 
2044.00, 
2045.00, 
2046.00, 
2047.00, 
2048.00, 
2049.00, 
2050.00, 
2051.00, 
2052.00, 
2053.00, 
2054.00, 
2055.00, 
2056.00, 
2057.00, 
2058.00, 
2059.00, 
2060.00, 
2061.00, 
2062.00, 
2063.00, 
2064.00, 
2065.00, 
2066.00, 
2067.00, 
2068.00, 
2069.00, 
2070.00, 
2071.00, 
2072.00, 
2073.00, 
2074.00, 
2075.00, 
2076.00, 
2077.00, 
2078.00, 
2079.00, 
2080.00, 
2081.00, 
2082.00, 
2083.00, 
2084.00, 
2085.00, 
2086.00, 
2087.00, 
2088.00, 
2089.00, 
2090.00, 
2091.00, 
2092.00, 
2093.00, 
2094.00, 
2095.00, 
2096.00, 
2097.00, 
2098.00, 
2099.00, 
2100.00, 
2101.00, 
2102.00, 
2103.00, 
2104.00, 
2105.00, 
2106.00, 
2107.00, 
2108.00, 
2109.00, 
2110.00, 
2111.00, 
2112.00, 
2113.00, 
2114.00, 
2115.00, 
2116.00, 
2117.00, 
2118.00, 
2119.00, 
2120.00, 
2121.00, 
2122.00, 
2123.00, 
2124.00, 
2125.00, 
2126.00, 
2127.00, 
2128.00, 
2129.00, 
2130.00, 
2131.00, 
2132.00, 
2133.00, 
2134.00, 
2135.00, 
2136.00, 
2137.00, 
2138.00, 
2139.00, 
2140.00, 
2141.00, 
2142.00, 
2143.00, 
2144.00, 
2145.00, 
2146.00, 
2147.00, 
2148.00, 
2149.00, 
2150.00, 
2151.00, 
2152.00, 
2153.00, 
2154.00, 
2155.00, 
2156.00, 
2157.00, 
2158.00, 
2159.00, 
2160.00, 
2161.00, 
2162.00, 
2163.00, 
2164.00, 
2165.00, 
2166.00, 
2167.00, 
2168.00, 
2169.00, 
2170.00, 
2171.00, 
2172.00, 
2173.00, 
2174.00, 
2175.00, 
2176.00, 
2177.00, 
2178.00, 
2179.00, 
2180.00, 
2181.00, 
2182.00, 
2183.00, 
2184.00, 
2185.00, 
2186.00, 
2187.00, 
2188.00, 
2189.00, 
2190.00, 
2191.00, 
2192.00, 
2193.00, 
2194.00, 
2195.00, 
2196.00, 
2197.00, 
2198.00, 
2199.00, 
2200.00, 
2201.00, 
2202.00, 
2203.00, 
2204.00, 
2205.00, 
2206.00, 
2207.00, 
2208.00, 
2209.00, 
2210.00, 
2211.00, 
2212.00, 
2213.00, 
2214.00, 
2215.00, 
2216.00, 
2217.00, 
2218.00, 
2219.00, 
2220.00, 
2221.00, 
2222.00, 
2223.00, 
2224.00, 
2225.00, 
2226.00, 
2227.00, 
2228.00, 
2229.00, 
2230.00, 
2231.00, 
2232.00, 
2233.00, 
2234.00, 
2235.00, 
2236.00, 
2237.00, 
2238.00, 
2239.00, 
2240.00, 
2241.00, 
2242.00, 
2243.00, 
2244.00, 
2245.00, 
2246.00, 
2247.00, 
2248.00, 
2249.00, 
2250.00, 
2251.00, 
2252.00, 
2253.00, 
2254.00, 
2255.00, 
2256.00, 
2257.00, 
2258.00, 
2259.00, 
2260.00, 
2261.00, 
2262.00, 
2263.00, 
2264.00, 
2265.00, 
2266.00, 
2267.00, 
2268.00, 
2269.00, 
2270.00, 
2271.00, 
2272.00, 
2273.00, 
2274.00, 
2275.00, 
2276.00, 
2277.00, 
2278.00, 
2279.00, 
2280.00, 
2281.00, 
2282.00, 
2283.00, 
2284.00, 
2285.00, 
2286.00, 
2287.00, 
2288.00, 
2289.00, 
2290.00, 
2291.00, 
2292.00, 
2293.00, 
2294.00, 
2295.00, 
2296.00, 
2297.00, 
2298.00, 
2299.00, 
2300.00, 
2301.00, 
2302.00, 
2303.00, 
2304.00, 
2305.00, 
2306.00, 
2307.00, 
2308.00, 
2309.00, 
2310.00, 
2311.00, 
2312.00, 
2313.00, 
2314.00, 
2315.00, 
2316.00, 
2317.00, 
2318.00, 
2319.00, 
2320.00, 
2321.00, 
2322.00, 
2323.00, 
2324.00, 
2325.00, 
2326.00, 
2327.00, 
2328.00, 
2329.00, 
2330.00, 
2331.00, 
2332.00, 
2333.00, 
2334.00, 
2335.00, 
2336.00, 
2337.00, 
2338.00, 
2339.00, 
2340.00, 
2341.00, 
2342.00, 
2343.00, 
2344.00, 
2345.00, 
2346.00, 
2347.00, 
2348.00, 
2349.00, 
2350.00, 
2351.00, 
2352.00, 
2353.00, 
2354.00, 
2355.00, 
2356.00, 
2357.00, 
2358.00, 
2359.00, 
2360.00, 
2361.00, 
2362.00, 
2363.00, 
2364.00, 
2365.00, 
2366.00, 
2367.00, 
2368.00, 
2369.00, 
2370.00, 
2371.00, 
2372.00, 
2373.00, 
2374.00, 
2375.00, 
2376.00, 
2377.00, 
2378.00, 
2379.00, 
2380.00, 
2381.00, 
2382.00, 
2383.00, 
2384.00, 
2385.00, 
2386.00, 
2387.00, 
2388.00, 
2389.00, 
2390.00, 
2391.00, 
2392.00, 
2393.00, 
2394.00, 
2395.00, 
2396.00, 
2397.00, 
2398.00, 
2399.00, 
2400.00, 
2401.00, 
2402.00, 
2403.00, 
2404.00, 
2405.00, 
2406.00, 
2407.00, 
2408.00, 
2409.00, 
2410.00, 
2411.00, 
2412.00, 
2413.00, 
2414.00, 
2415.00, 
2416.00, 
2417.00, 
2418.00, 
2419.00, 
2420.00, 
2421.00, 
2422.00, 
2423.00, 
2424.00, 
2425.00, 
2426.00, 
2427.00, 
2428.00, 
2429.00, 
2430.00, 
2431.00, 
2432.00, 
2433.00, 
2434.00, 
2435.00, 
2436.00, 
2437.00, 
2438.00, 
2439.00, 
2440.00, 
2441.00, 
2442.00, 
2443.00, 
2444.00, 
2445.00, 
2446.00, 
2447.00, 
2448.00, 
2449.00, 
2450.00, 
2451.00, 
2452.00, 
2453.00, 
2454.00, 
2455.00, 
2456.00, 
2457.00, 
2458.00, 
2459.00, 
2460.00, 
2461.00, 
2462.00, 
2463.00, 
2464.00, 
2465.00, 
2466.00, 
2467.00, 
2468.00, 
2469.00, 
2470.00, 
2471.00, 
2472.00, 
2473.00, 
2474.00, 
2475.00, 
2476.00, 
2477.00, 
2478.00, 
2479.00, 
2480.00, 
2481.00, 
2482.00, 
2483.00, 
2484.00, 
2485.00, 
2486.00, 
2487.00, 
2488.00, 
2489.00, 
2490.00, 
2491.00, 
2492.00, 
2493.00, 
2494.00, 
2495.00, 
2496.00, 
2497.00, 
2498.00, 
2499.00, 
2500.00, 
2501.00, 
2502.00, 
2503.00, 
2504.00, 
2505.00, 
2506.00, 
2507.00, 
2508.00, 
2509.00, 
2510.00, 
2511.00, 
2512.00, 
2513.00, 
2514.00, 
2515.00, 
2516.00, 
2517.00, 
2518.00, 
2519.00, 
2520.00, 
2521.00, 
2522.00, 
2523.00, 
2524.00, 
2525.00, 
2526.00, 
2527.00, 
2528.00, 
2529.00, 
2530.00, 
2531.00, 
2532.00, 
2533.00, 
2534.00, 
2535.00, 
2536.00, 
2537.00, 
2538.00, 
2539.00, 
2540.00, 
2541.00, 
2542.00, 
2543.00, 
2544.00, 
2545.00, 
2546.00, 
2547.00, 
2548.00, 
2549.00, 
2550.00, 
2551.00, 
2552.00, 
2553.00, 
2554.00, 
2555.00, 
2556.00, 
2557.00, 
2558.00, 
2559.00, 
2560.00, 
2561.00, 
2562.00, 
2563.00, 
2564.00, 
2565.00, 
2566.00, 
2567.00, 
2568.00, 
2569.00, 
2570.00, 
2571.00, 
2572.00, 
2573.00, 
2574.00, 
2575.00, 
2576.00, 
2577.00, 
2578.00, 
2579.00, 
2580.00, 
2581.00, 
2582.00, 
2583.00, 
2584.00, 
2585.00, 
2586.00, 
2587.00, 
2588.00, 
2589.00, 
2590.00, 
2591.00, 
2592.00, 
2593.00, 
2594.00, 
2595.00, 
2596.00, 
2597.00, 
2598.00, 
2599.00, 
2600.00, 
