"2cP5 - RawData"
"Wavelength nm.","T%"
200.00,0.004
201.00,-0.001
202.00,0.001
203.00,0.001
204.00,0.000
205.00,0.006
206.00,0.000
207.00,0.002
208.00,0.002
209.00,0.004
210.00,0.002
211.00,0.001
212.00,0.000
213.00,0.001
214.00,0.001
215.00,0.002
216.00,0.004
217.00,0.006
218.00,0.006
219.00,0.000
220.00,0.001
221.00,0.001
222.00,0.001
223.00,0.001
224.00,0.004
225.00,0.002
226.00,0.002
227.00,-0.001
228.00,-0.001
229.00,0.001
230.00,0.003
231.00,0.001
232.00,0.000
233.00,0.000
234.00,0.001
235.00,0.001
236.00,0.002
237.00,0.002
238.00,0.002
239.00,-0.000
240.00,-0.001
241.00,0.002
242.00,0.002
243.00,-0.000
244.00,0.002
245.00,0.000
246.00,0.001
247.00,0.001
248.00,0.002
249.00,-0.001
250.00,0.001
251.00,0.000
252.00,0.000
253.00,0.000
254.00,0.001
255.00,0.001
256.00,0.000
257.00,0.002
258.00,0.000
259.00,0.001
260.00,0.001
261.00,0.002
262.00,0.001
263.00,0.000
264.00,0.001
265.00,0.001
266.00,0.001
267.00,0.001
268.00,0.002
269.00,0.000
270.00,-0.001
271.00,0.002
272.00,0.002
273.00,0.001
274.00,0.001
275.00,-0.000
276.00,0.000
277.00,0.000
278.00,0.002
279.00,0.000
280.00,0.001
281.00,-0.000
282.00,0.000
283.00,0.002
284.00,0.000
285.00,0.001
286.00,0.002
287.00,0.001
288.00,0.001
289.00,-0.000
290.00,0.001
291.00,0.001
292.00,0.001
293.00,0.000
294.00,0.000
295.00,0.000
296.00,0.002
297.00,-0.000
298.00,0.000
299.00,-0.001
300.00,0.005
301.00,0.003
302.00,0.006
303.00,0.008
304.00,0.012
305.00,0.021
306.00,0.031
307.00,0.046
308.00,0.074
309.00,0.111
310.00,0.153
311.00,0.206
312.00,0.285
313.00,0.388
314.00,0.512
315.00,0.663
316.00,0.843
317.00,1.070
318.00,1.315
319.00,1.635
320.00,1.987
321.00,2.368
322.00,2.809
323.00,3.307
324.00,3.815
325.00,4.364
326.00,4.943
327.00,5.547
328.00,6.227
329.00,6.772
330.00,7.564
331.00,8.254
332.00,9.026
333.00,9.759
334.00,10.482
335.00,11.205
336.00,11.958
337.00,12.685
338.00,13.393
339.00,14.061
340.00,14.746
341.00,15.428
342.00,15.983
343.00,16.630
344.00,17.205
345.00,17.808
346.00,18.339
347.00,18.838
348.00,19.310
349.00,19.746
350.00,20.153
351.00,20.564
352.00,20.894
353.00,21.223
354.00,21.602
355.00,21.911
356.00,22.170
357.00,22.415
358.00,22.665
359.00,22.931
360.00,23.179
361.00,23.396
362.00,23.642
363.00,23.792
364.00,23.913
365.00,24.019
366.00,24.180
367.00,24.258
368.00,24.306
369.00,24.402
370.00,24.439
371.00,24.469
372.00,24.454
373.00,24.542
374.00,24.567
375.00,24.527
376.00,24.564
377.00,24.505
378.00,24.414
379.00,24.429
380.00,24.363
381.00,24.382
382.00,24.401
383.00,24.429
384.00,24.465
385.00,24.495
386.00,24.553
387.00,24.613
388.00,24.706
389.00,24.707
390.00,24.764
391.00,24.828
392.00,24.851
393.00,24.867
394.00,24.922
395.00,24.955
396.00,24.948
397.00,24.966
398.00,24.965
399.00,25.008
400.00,25.052
401.00,24.996
402.00,25.021
403.00,25.010
404.00,25.017
405.00,25.046
406.00,24.998
407.00,24.973
408.00,24.994
409.00,24.967
410.00,24.912
411.00,24.911
412.00,24.905
413.00,24.925
414.00,24.874
415.00,24.895
416.00,24.960
417.00,24.933
418.00,24.959
419.00,25.022
420.00,25.073
421.00,25.203
422.00,25.206
423.00,25.258
424.00,25.293
425.00,25.313
426.00,25.366
427.00,25.453
428.00,25.434
429.00,25.501
430.00,25.558
431.00,25.614
432.00,25.643
433.00,25.725
434.00,25.797
435.00,25.875
436.00,25.927
437.00,25.967
438.00,26.069
439.00,26.075
440.00,26.216
441.00,26.303
442.00,26.389
443.00,26.457
444.00,26.555
445.00,26.651
446.00,26.760
447.00,26.842
448.00,26.959
449.00,27.063
450.00,27.164
451.00,27.232
452.00,27.343
453.00,27.496
454.00,27.551
455.00,27.683
456.00,27.808
457.00,27.919
458.00,27.998
459.00,28.142
460.00,28.285
461.00,28.392
462.00,28.487
463.00,28.655
464.00,28.777
465.00,28.888
466.00,29.067
467.00,29.137
468.00,29.208
469.00,29.432
470.00,29.411
471.00,29.575
472.00,29.683
473.00,29.777
474.00,29.966
475.00,30.039
476.00,30.123
477.00,30.230
478.00,30.341
479.00,30.567
480.00,30.605
481.00,30.770
482.00,30.999
483.00,30.998
484.00,31.270
485.00,31.422
486.00,31.600
487.00,31.731
488.00,31.887
489.00,32.066
490.00,32.095
491.00,32.210
492.00,32.336
493.00,32.527
494.00,32.602
495.00,32.748
496.00,32.765
497.00,32.978
498.00,33.104
499.00,33.276
500.00,33.379
501.00,33.457
502.00,33.622
503.00,33.771
504.00,33.819
505.00,33.949
506.00,34.054
507.00,34.183
508.00,34.304
509.00,34.475
510.00,34.587
511.00,34.629
512.00,34.826
513.00,34.938
514.00,35.014
515.00,35.151
516.00,35.252
517.00,35.282
518.00,35.468
519.00,35.512
520.00,35.522
521.00,35.640
522.00,35.711
523.00,35.757
524.00,35.867
525.00,35.962
526.00,36.004
527.00,36.067
528.00,36.136
529.00,36.252
530.00,36.424
531.00,36.596
532.00,36.692
533.00,36.778
534.00,36.864
535.00,36.935
536.00,37.025
537.00,37.098
538.00,37.125
539.00,37.192
540.00,37.284
541.00,37.292
542.00,37.299
543.00,37.405
544.00,37.559
545.00,37.578
546.00,37.555
547.00,37.647
548.00,37.734
549.00,37.819
550.00,37.946
551.00,37.958
552.00,37.900
553.00,37.930
554.00,38.148
555.00,38.240
556.00,38.288
557.00,38.335
558.00,38.368
559.00,38.387
560.00,38.490
561.00,38.540
562.00,38.596
563.00,38.654
564.00,38.700
565.00,38.702
566.00,38.705
567.00,38.734
568.00,38.798
569.00,38.880
570.00,38.876
571.00,38.903
572.00,38.964
573.00,38.924
574.00,38.974
575.00,38.994
576.00,39.042
577.00,39.081
578.00,39.198
579.00,39.266
580.00,39.239
581.00,39.417
582.00,39.543
583.00,39.477
584.00,39.564
585.00,39.604
586.00,39.666
587.00,39.775
588.00,39.724
589.00,39.697
590.00,39.934
591.00,39.914
592.00,39.854
593.00,39.889
594.00,40.035
595.00,40.017
596.00,40.107
597.00,40.268
598.00,40.243
599.00,40.275
600.00,40.284
601.00,40.295
602.00,40.269
603.00,40.340
604.00,40.312
605.00,40.383
606.00,40.504
607.00,40.427
608.00,40.429
609.00,40.563
610.00,40.746
611.00,40.591
612.00,40.627
613.00,40.764
614.00,40.702
615.00,40.821
616.00,40.912
617.00,40.906
618.00,40.853
619.00,40.892
620.00,41.007
621.00,41.034
622.00,41.168
623.00,41.224
624.00,41.192
625.00,41.252
626.00,41.324
627.00,41.312
628.00,41.405
629.00,41.487
630.00,41.530
631.00,41.500
632.00,41.623
633.00,41.760
634.00,41.789
635.00,41.905
636.00,41.960
637.00,41.894
638.00,42.027
639.00,42.138
640.00,42.098
641.00,42.021
642.00,42.294
643.00,42.312
644.00,42.372
645.00,42.436
646.00,42.590
647.00,42.610
648.00,42.643
649.00,42.648
650.00,42.674
651.00,42.834
652.00,42.970
653.00,42.892
654.00,42.927
655.00,43.221
656.00,43.386
657.00,43.194
658.00,43.262
659.00,43.321
660.00,43.384
661.00,43.455
662.00,43.554
663.00,43.583
664.00,43.884
665.00,44.028
666.00,43.961
667.00,44.065
668.00,44.005
669.00,44.122
670.00,44.448
671.00,44.388
672.00,44.454
673.00,44.514
674.00,44.572
675.00,44.633
676.00,44.797
677.00,44.969
678.00,44.854
679.00,44.922
680.00,45.084
681.00,45.280
682.00,45.207
683.00,45.227
684.00,45.314
685.00,45.345
686.00,45.170
687.00,45.679
688.00,45.925
689.00,45.582
690.00,45.873
691.00,46.092
692.00,46.000
693.00,45.947
694.00,46.174
695.00,46.337
696.00,46.358
697.00,46.177
698.00,46.282
699.00,46.687
700.00,46.595
701.00,46.563
702.00,46.742
703.00,46.871
704.00,46.861
705.00,46.722
706.00,46.895
707.00,46.996
708.00,46.885
709.00,47.173
710.00,47.582
711.00,47.225
712.00,47.271
713.00,47.436
714.00,47.550
715.00,47.568
716.00,47.499
717.00,47.611
718.00,47.792
719.00,47.833
720.00,47.938
721.00,52.287
722.00,52.289
723.00,52.265
724.00,52.246
725.00,52.313
726.00,52.240
727.00,52.370
728.00,52.338
729.00,52.447
730.00,52.405
731.00,52.379
732.00,52.430
733.00,52.445
734.00,52.467
735.00,52.520
736.00,52.531
737.00,52.516
738.00,52.614
739.00,52.560
740.00,52.594
741.00,52.608
742.00,52.663
743.00,52.693
744.00,52.677
745.00,52.712
746.00,52.740
747.00,52.718
748.00,52.656
749.00,52.627
750.00,52.595
751.00,52.682
752.00,52.613
753.00,52.667
754.00,52.614
755.00,52.624
756.00,52.648
757.00,52.651
758.00,52.703
759.00,52.659
760.00,52.773
761.00,52.677
762.00,52.710
763.00,52.728
764.00,52.672
765.00,52.750
766.00,52.737
767.00,52.814
768.00,52.748
769.00,52.780
770.00,52.793
771.00,52.826
772.00,52.819
773.00,52.712
774.00,52.869
775.00,52.776
776.00,52.770
777.00,52.931
778.00,52.831
779.00,52.843
780.00,52.757
781.00,52.824
782.00,52.732
783.00,52.839
784.00,52.808
785.00,52.778
786.00,52.820
787.00,52.763
788.00,52.780
789.00,52.784
790.00,52.694
791.00,52.728
792.00,52.677
793.00,52.615
794.00,52.661
795.00,52.705
796.00,52.646
797.00,52.642
798.00,52.681
799.00,52.653
800.00,52.670
801.00,52.629
802.00,52.624
803.00,52.484
804.00,52.414
805.00,52.564
806.00,52.469
807.00,52.533
808.00,52.532
809.00,52.497
810.00,52.451
811.00,52.478
812.00,52.433
813.00,52.375
814.00,52.433
815.00,52.317
816.00,52.343
817.00,52.409
818.00,52.319
819.00,52.369
820.00,52.228
821.00,52.279
822.00,52.188
823.00,52.200
824.00,52.212
825.00,52.283
826.00,52.113
827.00,52.128
828.00,52.358
829.00,52.132
830.00,52.235
831.00,54.256
832.00,54.348
833.00,54.202
834.00,54.211
835.00,54.177
836.00,54.227
837.00,54.180
838.00,54.171
839.00,54.172
840.00,54.142
841.00,54.141
842.00,54.051
843.00,54.100
844.00,54.061
845.00,54.041
846.00,54.007
847.00,53.978
848.00,53.821
849.00,53.922
850.00,53.914
851.00,53.829
852.00,53.884
853.00,53.765
854.00,53.792
855.00,53.731
856.00,53.760
857.00,53.673
858.00,53.693
859.00,53.620
860.00,53.634
861.00,53.633
862.00,53.576
863.00,53.588
864.00,53.536
865.00,53.600
866.00,53.512
867.00,53.555
868.00,53.481
869.00,53.516
870.00,53.483
871.00,53.490
872.00,53.452
873.00,53.533
874.00,53.427
875.00,53.447
876.00,53.475
877.00,53.387
878.00,53.443
879.00,53.383
880.00,53.361
881.00,53.325
882.00,53.393
883.00,53.293
884.00,53.314
885.00,53.282
886.00,53.285
887.00,53.230
888.00,53.215
889.00,53.192
890.00,53.215
891.00,53.128
892.00,53.160
893.00,53.103
894.00,53.122
895.00,53.084
896.00,53.105
897.00,53.052
898.00,52.985
899.00,53.152
900.00,52.997
901.00,52.990
902.00,53.013
903.00,52.962
904.00,52.985
905.00,52.941
906.00,52.962
907.00,52.905
908.00,52.854
909.00,52.854
910.00,52.795
911.00,52.830
912.00,52.797
913.00,52.766
914.00,52.757
915.00,52.716
916.00,52.737
917.00,52.636
918.00,52.688
919.00,52.664
920.00,52.625
921.00,52.624
922.00,52.604
923.00,52.595
924.00,52.547
925.00,52.536
926.00,52.519
927.00,52.523
928.00,52.471
929.00,52.501
930.00,52.429
931.00,52.467
932.00,52.398
933.00,52.420
934.00,52.396
935.00,52.384
936.00,52.352
937.00,52.341
938.00,52.315
939.00,52.322
940.00,52.287
941.00,52.288
942.00,52.240
943.00,52.255
944.00,52.200
945.00,52.219
946.00,52.202
947.00,52.155
948.00,52.153
949.00,52.125
950.00,52.106
951.00,52.081
952.00,52.055
953.00,52.006
954.00,52.003
955.00,51.950
956.00,51.952
957.00,51.900
958.00,51.920
959.00,51.891
960.00,51.859
961.00,51.842
962.00,51.845
963.00,51.794
964.00,51.804
965.00,51.805
966.00,51.755
967.00,51.763
968.00,51.745
969.00,51.784
970.00,51.740
971.00,51.760
972.00,51.737
973.00,51.774
974.00,51.734
975.00,51.746
976.00,51.778
977.00,51.741
978.00,51.788
979.00,51.727
980.00,51.755
981.00,51.757
982.00,51.721
983.00,51.733
984.00,51.761
985.00,51.745
986.00,51.704
987.00,51.736
988.00,51.688
989.00,51.684
990.00,51.681
991.00,51.651
992.00,51.680
993.00,51.630
994.00,51.616
995.00,51.633
996.00,51.606
997.00,51.611
998.00,51.582
999.00,51.590
1000.00,51.520
1001.00,51.537
1002.00,51.541
1003.00,51.519
1004.00,51.480
1005.00,51.483
1006.00,51.535
1007.00,51.470
1008.00,51.462
1009.00,51.439
1010.00,51.426
1011.00,51.406
1012.00,51.365
1013.00,51.375
1014.00,51.324
1015.00,51.353
1016.00,51.317
1017.00,51.333
1018.00,51.294
1019.00,51.267
1020.00,51.298
1021.00,51.235
1022.00,51.240
1023.00,51.194
1024.00,51.210
1025.00,51.178
1026.00,51.157
1027.00,51.151
1028.00,51.155
1029.00,51.123
1030.00,51.093
1031.00,51.107
1032.00,51.047
1033.00,51.061
1034.00,51.048
1035.00,51.009
1036.00,50.978
1037.00,50.967
1038.00,50.967
1039.00,50.952
1040.00,50.920
1041.00,50.893
1042.00,50.894
1043.00,50.859
1044.00,50.889
1045.00,50.867
1046.00,50.844
1047.00,50.858
1048.00,50.877
1049.00,50.905
1050.00,50.919
1051.00,50.940
1052.00,50.950
1053.00,50.953
1054.00,50.934
1055.00,50.948
1056.00,50.957
1057.00,50.954
1058.00,50.948
1059.00,50.940
1060.00,50.981
1061.00,50.968
1062.00,50.939
1063.00,50.949
1064.00,50.936
1065.00,50.909
1066.00,50.905
1067.00,50.888
1068.00,50.924
1069.00,50.870
1070.00,50.857
1071.00,50.860
1072.00,50.896
1073.00,50.848
1074.00,50.858
1075.00,50.839
1076.00,50.827
1077.00,50.801
1078.00,50.774
1079.00,50.779
1080.00,50.797
1081.00,50.796
1082.00,50.765
1083.00,50.756
1084.00,50.743
1085.00,50.748
1086.00,50.733
1087.00,50.721
1088.00,50.687
1089.00,50.678
1090.00,50.669
1091.00,50.682
1092.00,50.679
1093.00,50.676
1094.00,50.663
1095.00,50.667
1096.00,50.630
1097.00,50.627
1098.00,50.616
1099.00,50.602
1100.00,50.584
1101.00,50.578
1102.00,50.573
1103.00,50.575
1104.00,50.573
1105.00,50.579
1106.00,50.540
1107.00,50.547
1108.00,50.533
1109.00,50.514
1110.00,50.488
1111.00,50.471
1112.00,50.466
1113.00,50.471
1114.00,50.483
1115.00,50.487
1116.00,50.487
1117.00,50.463
1118.00,50.449
1119.00,50.449
1120.00,50.442
1121.00,50.434
1122.00,50.389
1123.00,50.378
1124.00,50.396
1125.00,50.382
1126.00,50.390
1127.00,50.396
1128.00,50.353
1129.00,50.345
1130.00,50.347
1131.00,50.352
1132.00,50.332
1133.00,50.326
1134.00,50.259
1135.00,50.305
1136.00,50.304
1137.00,50.307
1138.00,50.295
1139.00,50.290
1140.00,50.300
1141.00,50.289
1142.00,50.265
1143.00,50.270
1144.00,50.244
1145.00,50.258
1146.00,50.259
1147.00,50.257
1148.00,50.253
1149.00,50.264
1150.00,50.247
1151.00,50.258
1152.00,50.246
1153.00,50.236
1154.00,50.214
1155.00,50.220
1156.00,50.211
1157.00,50.220
1158.00,50.217
1159.00,50.210
1160.00,50.208
1161.00,50.208
1162.00,50.202
1163.00,50.210
1164.00,50.209
1165.00,50.203
1166.00,50.208
1167.00,50.193
1168.00,50.205
1169.00,50.185
1170.00,50.191
1171.00,50.174
1172.00,50.164
1173.00,50.173
1174.00,50.186
1175.00,50.180
1176.00,50.171
1177.00,50.171
1178.00,50.173
1179.00,50.175
1180.00,50.164
1181.00,50.175
1182.00,50.173
1183.00,50.143
1184.00,50.145
1185.00,50.174
1186.00,50.158
1187.00,50.171
1188.00,50.191
1189.00,50.159
1190.00,50.146
1191.00,50.151
1192.00,50.170
1193.00,50.159
1194.00,50.160
1195.00,50.129
1196.00,50.160
1197.00,50.159
1198.00,50.138
1199.00,50.126
1200.00,50.125
1201.00,50.142
1202.00,50.114
1203.00,50.116
1204.00,50.120
1205.00,50.127
1206.00,50.108
1207.00,50.123
1208.00,50.108
1209.00,50.102
1210.00,50.097
1211.00,50.107
1212.00,50.128
1213.00,50.088
1214.00,50.113
1215.00,50.106
1216.00,50.097
1217.00,50.111
1218.00,50.090
1219.00,50.112
1220.00,50.097
1221.00,50.101
1222.00,50.096
1223.00,50.112
1224.00,50.105
1225.00,50.094
1226.00,50.110
1227.00,50.084
1228.00,50.100
1229.00,50.113
1230.00,50.147
1231.00,50.132
1232.00,50.148
1233.00,50.147
1234.00,50.166
1235.00,50.146
1236.00,50.145
1237.00,50.153
1238.00,50.146
1239.00,50.149
1240.00,50.145
1241.00,50.153
1242.00,50.153
1243.00,50.167
1244.00,50.126
1245.00,50.163
1246.00,50.172
1247.00,50.155
1248.00,50.158
1249.00,50.152
1250.00,50.179
1251.00,50.173
1252.00,50.174
1253.00,50.151
1254.00,50.192
1255.00,50.192
1256.00,50.128
1257.00,50.133
1258.00,50.186
1259.00,50.178
1260.00,50.186
1261.00,50.203
1262.00,50.217
1263.00,50.221
1264.00,50.198
1265.00,50.206
1266.00,50.195
1267.00,50.212
1268.00,50.218
1269.00,50.214
1270.00,50.227
1271.00,50.229
1272.00,50.239
1273.00,50.256
1274.00,50.256
1275.00,50.272
1276.00,50.281
1277.00,50.280
1278.00,50.290
1279.00,50.274
1280.00,50.274
1281.00,50.287
1282.00,50.275
1283.00,50.290
1284.00,50.281
1285.00,50.271
1286.00,50.295
1287.00,50.296
1288.00,50.296
1289.00,50.280
1290.00,50.314
1291.00,50.313
1292.00,50.312
1293.00,50.295
1294.00,50.315
1295.00,50.337
1296.00,50.321
1297.00,50.346
1298.00,50.365
1299.00,50.337
1300.00,50.337
1301.00,50.333
1302.00,50.360
1303.00,50.349
1304.00,50.325
1305.00,50.362
1306.00,50.381
1307.00,50.370
1308.00,50.382
1309.00,50.398
1310.00,50.384
1311.00,50.355
1312.00,50.383
1313.00,50.397
1314.00,50.416
1315.00,50.414
1316.00,50.437
1317.00,50.465
1318.00,50.452
1319.00,50.450
1320.00,50.465
1321.00,50.622
1322.00,50.615
1323.00,50.605
1324.00,50.593
1325.00,50.578
1326.00,50.598
1327.00,50.606
1328.00,50.605
1329.00,50.599
1330.00,50.591
1331.00,50.601
1332.00,50.591
1333.00,50.589
1334.00,50.597
1335.00,50.637
1336.00,50.634
1337.00,50.701
1338.00,50.737
1339.00,50.812
1340.00,50.857
1341.00,50.915
1342.00,50.985
1343.00,51.020
1344.00,51.087
1345.00,51.135
1346.00,51.152
1347.00,51.167
1348.00,51.214
1349.00,51.228
1350.00,51.257
1351.00,51.253
1352.00,51.249
1353.00,51.417
1354.00,51.295
1355.00,51.423
1356.00,51.343
1357.00,51.306
1358.00,51.258
1359.00,51.313
1360.00,51.226
1361.00,51.308
1362.00,51.276
1363.00,51.392
1364.00,51.430
1365.00,51.331
1366.00,51.281
1367.00,51.325
1368.00,51.314
1369.00,51.310
1370.00,51.328
1371.00,51.211
1372.00,51.312
1373.00,51.300
1374.00,51.283
1375.00,51.305
1376.00,51.248
1377.00,51.251
1378.00,51.221
1379.00,51.283
1380.00,51.195
1381.00,51.293
1382.00,51.257
1383.00,51.285
1384.00,51.227
1385.00,51.197
1386.00,51.288
1387.00,51.306
1388.00,51.227
1389.00,51.208
1390.00,51.264
1391.00,51.344
1392.00,51.291
1393.00,51.187
1394.00,51.249
1395.00,51.287
1396.00,51.206
1397.00,51.287
1398.00,51.335
1399.00,51.354
1400.00,50.911
1401.00,51.252
1402.00,51.216
1403.00,51.275
1404.00,51.288
1405.00,51.318
1406.00,51.306
1407.00,51.329
1408.00,51.348
1409.00,51.286
1410.00,51.328
1411.00,51.394
1412.00,51.331
1413.00,51.295
1414.00,51.371
1415.00,51.416
1416.00,51.432
1417.00,51.404
1418.00,51.358
1419.00,51.397
1420.00,51.419
1421.00,51.452
1422.00,51.408
1423.00,51.432
1424.00,51.444
1425.00,51.493
1426.00,51.480
1427.00,51.515
1428.00,51.499
1429.00,51.519
1430.00,51.541
1431.00,51.534
1432.00,51.545
1433.00,51.557
1434.00,51.551
1435.00,51.603
1436.00,51.610
1437.00,51.610
1438.00,51.645
1439.00,51.655
1440.00,51.661
1441.00,51.661
1442.00,51.657
1443.00,51.704
1444.00,51.753
1445.00,51.702
1446.00,51.711
1447.00,51.774
1448.00,51.856
1449.00,51.812
1450.00,51.794
1451.00,51.809
1452.00,51.856
1453.00,51.841
1454.00,51.851
1455.00,51.871
1456.00,51.890
1457.00,51.898
1458.00,51.917
1459.00,51.937
1460.00,51.966
1461.00,51.968
1462.00,52.005
1463.00,52.022
1464.00,52.010
1465.00,52.010
1466.00,51.998
1467.00,52.021
1468.00,52.072
1469.00,52.043
1470.00,52.066
1471.00,52.099
1472.00,52.096
1473.00,52.124
1474.00,52.150
1475.00,52.163
1476.00,52.161
1477.00,52.145
1478.00,52.163
1479.00,52.188
1480.00,52.189
1481.00,52.201
1482.00,52.251
1483.00,52.255
1484.00,52.255
1485.00,52.269
1486.00,52.258
1487.00,52.282
1488.00,52.299
1489.00,52.309
1490.00,52.329
1491.00,52.339
1492.00,52.360
1493.00,52.373
1494.00,52.376
1495.00,52.369
1496.00,52.402
1497.00,52.395
1498.00,52.389
1499.00,52.405
1500.00,52.423
1501.00, 
1502.00, 
1503.00, 
1504.00, 
1505.00, 
1506.00, 
1507.00, 
1508.00, 
1509.00, 
1510.00, 
1511.00, 
1512.00, 
1513.00, 
1514.00, 
1515.00, 
1516.00, 
1517.00, 
1518.00, 
1519.00, 
1520.00, 
1521.00, 
1522.00, 
1523.00, 
1524.00, 
1525.00, 
1526.00, 
1527.00, 
1528.00, 
1529.00, 
1530.00, 
1531.00, 
1532.00, 
1533.00, 
1534.00, 
1535.00, 
1536.00, 
1537.00, 
1538.00, 
1539.00, 
1540.00, 
1541.00, 
1542.00, 
1543.00, 
1544.00, 
1545.00, 
1546.00, 
1547.00, 
1548.00, 
1549.00, 
1550.00, 
1551.00, 
1552.00, 
1553.00, 
1554.00, 
1555.00, 
1556.00, 
1557.00, 
1558.00, 
1559.00, 
1560.00, 
1561.00, 
1562.00, 
1563.00, 
1564.00, 
1565.00, 
1566.00, 
1567.00, 
1568.00, 
1569.00, 
1570.00, 
1571.00, 
1572.00, 
1573.00, 
1574.00, 
1575.00, 
1576.00, 
1577.00, 
1578.00, 
1579.00, 
1580.00, 
1581.00, 
1582.00, 
1583.00, 
1584.00, 
1585.00, 
1586.00, 
1587.00, 
1588.00, 
1589.00, 
1590.00, 
1591.00, 
1592.00, 
1593.00, 
1594.00, 
1595.00, 
1596.00, 
1597.00, 
1598.00, 
1599.00, 
1600.00, 
1601.00, 
1602.00, 
1603.00, 
1604.00, 
1605.00, 
1606.00, 
1607.00, 
1608.00, 
1609.00, 
1610.00, 
1611.00, 
1612.00, 
1613.00, 
1614.00, 
1615.00, 
1616.00, 
1617.00, 
1618.00, 
1619.00, 
1620.00, 
1621.00, 
1622.00, 
1623.00, 
1624.00, 
1625.00, 
1626.00, 
1627.00, 
1628.00, 
1629.00, 
1630.00, 
1631.00, 
1632.00, 
1633.00, 
1634.00, 
1635.00, 
1636.00, 
1637.00, 
1638.00, 
1639.00, 
1640.00, 
1641.00, 
1642.00, 
1643.00, 
1644.00, 
1645.00, 
1646.00, 
1647.00, 
1648.00, 
1649.00, 
1650.00, 
1651.00, 
1652.00, 
1653.00, 
1654.00, 
1655.00, 
1656.00, 
1657.00, 
1658.00, 
1659.00, 
1660.00, 
1661.00, 
1662.00, 
1663.00, 
1664.00, 
1665.00, 
1666.00, 
1667.00, 
1668.00, 
1669.00, 
1670.00, 
1671.00, 
1672.00, 
1673.00, 
1674.00, 
1675.00, 
1676.00, 
1677.00, 
1678.00, 
1679.00, 
1680.00, 
1681.00, 
1682.00, 
1683.00, 
1684.00, 
1685.00, 
1686.00, 
1687.00, 
1688.00, 
1689.00, 
1690.00, 
1691.00, 
1692.00, 
1693.00, 
1694.00, 
1695.00, 
1696.00, 
1697.00, 
1698.00, 
1699.00, 
1700.00, 
1701.00, 
1702.00, 
1703.00, 
1704.00, 
1705.00, 
1706.00, 
1707.00, 
1708.00, 
1709.00, 
1710.00, 
1711.00, 
1712.00, 
1713.00, 
1714.00, 
1715.00, 
1716.00, 
1717.00, 
1718.00, 
1719.00, 
1720.00, 
1721.00, 
1722.00, 
1723.00, 
1724.00, 
1725.00, 
1726.00, 
1727.00, 
1728.00, 
1729.00, 
1730.00, 
1731.00, 
1732.00, 
1733.00, 
1734.00, 
1735.00, 
1736.00, 
1737.00, 
1738.00, 
1739.00, 
1740.00, 
1741.00, 
1742.00, 
1743.00, 
1744.00, 
1745.00, 
1746.00, 
1747.00, 
1748.00, 
1749.00, 
1750.00, 
1751.00, 
1752.00, 
1753.00, 
1754.00, 
1755.00, 
1756.00, 
1757.00, 
1758.00, 
1759.00, 
1760.00, 
1761.00, 
1762.00, 
1763.00, 
1764.00, 
1765.00, 
1766.00, 
1767.00, 
1768.00, 
1769.00, 
1770.00, 
1771.00, 
1772.00, 
1773.00, 
1774.00, 
1775.00, 
1776.00, 
1777.00, 
1778.00, 
1779.00, 
1780.00, 
1781.00, 
1782.00, 
1783.00, 
1784.00, 
1785.00, 
1786.00, 
1787.00, 
1788.00, 
1789.00, 
1790.00, 
1791.00, 
1792.00, 
1793.00, 
1794.00, 
1795.00, 
1796.00, 
1797.00, 
1798.00, 
1799.00, 
1800.00, 
1801.00, 
1802.00, 
1803.00, 
1804.00, 
1805.00, 
1806.00, 
1807.00, 
1808.00, 
1809.00, 
1810.00, 
1811.00, 
1812.00, 
1813.00, 
1814.00, 
1815.00, 
1816.00, 
1817.00, 
1818.00, 
1819.00, 
1820.00, 
1821.00, 
1822.00, 
1823.00, 
1824.00, 
1825.00, 
1826.00, 
1827.00, 
1828.00, 
1829.00, 
1830.00, 
1831.00, 
1832.00, 
1833.00, 
1834.00, 
1835.00, 
1836.00, 
1837.00, 
1838.00, 
1839.00, 
1840.00, 
1841.00, 
1842.00, 
1843.00, 
1844.00, 
1845.00, 
1846.00, 
1847.00, 
1848.00, 
1849.00, 
1850.00, 
1851.00, 
1852.00, 
1853.00, 
1854.00, 
1855.00, 
1856.00, 
1857.00, 
1858.00, 
1859.00, 
1860.00, 
1861.00, 
1862.00, 
1863.00, 
1864.00, 
1865.00, 
1866.00, 
1867.00, 
1868.00, 
1869.00, 
1870.00, 
1871.00, 
1872.00, 
1873.00, 
1874.00, 
1875.00, 
1876.00, 
1877.00, 
1878.00, 
1879.00, 
1880.00, 
1881.00, 
1882.00, 
1883.00, 
1884.00, 
1885.00, 
1886.00, 
1887.00, 
1888.00, 
1889.00, 
1890.00, 
1891.00, 
1892.00, 
1893.00, 
1894.00, 
1895.00, 
1896.00, 
1897.00, 
1898.00, 
1899.00, 
1900.00, 
1901.00, 
1902.00, 
1903.00, 
1904.00, 
1905.00, 
1906.00, 
1907.00, 
1908.00, 
1909.00, 
1910.00, 
1911.00, 
1912.00, 
1913.00, 
1914.00, 
1915.00, 
1916.00, 
1917.00, 
1918.00, 
1919.00, 
1920.00, 
1921.00, 
1922.00, 
1923.00, 
1924.00, 
1925.00, 
1926.00, 
1927.00, 
1928.00, 
1929.00, 
1930.00, 
1931.00, 
1932.00, 
1933.00, 
1934.00, 
1935.00, 
1936.00, 
1937.00, 
1938.00, 
1939.00, 
1940.00, 
1941.00, 
1942.00, 
1943.00, 
1944.00, 
1945.00, 
1946.00, 
1947.00, 
1948.00, 
1949.00, 
1950.00, 
1951.00, 
1952.00, 
1953.00, 
1954.00, 
1955.00, 
1956.00, 
1957.00, 
1958.00, 
1959.00, 
1960.00, 
1961.00, 
1962.00, 
1963.00, 
1964.00, 
1965.00, 
1966.00, 
1967.00, 
1968.00, 
1969.00, 
1970.00, 
1971.00, 
1972.00, 
1973.00, 
1974.00, 
1975.00, 
1976.00, 
1977.00, 
1978.00, 
1979.00, 
1980.00, 
1981.00, 
1982.00, 
1983.00, 
1984.00, 
1985.00, 
1986.00, 
1987.00, 
1988.00, 
1989.00, 
1990.00, 
1991.00, 
1992.00, 
1993.00, 
1994.00, 
1995.00, 
1996.00, 
1997.00, 
1998.00, 
1999.00, 
2000.00, 
2001.00, 
2002.00, 
2003.00, 
2004.00, 
2005.00, 
2006.00, 
2007.00, 
2008.00, 
2009.00, 
2010.00, 
2011.00, 
2012.00, 
2013.00, 
2014.00, 
2015.00, 
2016.00, 
2017.00, 
2018.00, 
2019.00, 
2020.00, 
2021.00, 
2022.00, 
2023.00, 
2024.00, 
2025.00, 
2026.00, 
2027.00, 
2028.00, 
2029.00, 
2030.00, 
2031.00, 
2032.00, 
2033.00, 
2034.00, 
2035.00, 
2036.00, 
2037.00, 
2038.00, 
2039.00, 
2040.00, 
2041.00, 
2042.00, 
2043.00, 
2044.00, 
2045.00, 
2046.00, 
2047.00, 
2048.00, 
2049.00, 
2050.00, 
2051.00, 
2052.00, 
2053.00, 
2054.00, 
2055.00, 
2056.00, 
2057.00, 
2058.00, 
2059.00, 
2060.00, 
2061.00, 
2062.00, 
2063.00, 
2064.00, 
2065.00, 
2066.00, 
2067.00, 
2068.00, 
2069.00, 
2070.00, 
2071.00, 
2072.00, 
2073.00, 
2074.00, 
2075.00, 
2076.00, 
2077.00, 
2078.00, 
2079.00, 
2080.00, 
2081.00, 
2082.00, 
2083.00, 
2084.00, 
2085.00, 
2086.00, 
2087.00, 
2088.00, 
2089.00, 
2090.00, 
2091.00, 
2092.00, 
2093.00, 
2094.00, 
2095.00, 
2096.00, 
2097.00, 
2098.00, 
2099.00, 
2100.00, 
2101.00, 
2102.00, 
2103.00, 
2104.00, 
2105.00, 
2106.00, 
2107.00, 
2108.00, 
2109.00, 
2110.00, 
2111.00, 
2112.00, 
2113.00, 
2114.00, 
2115.00, 
2116.00, 
2117.00, 
2118.00, 
2119.00, 
2120.00, 
2121.00, 
2122.00, 
2123.00, 
2124.00, 
2125.00, 
2126.00, 
2127.00, 
2128.00, 
2129.00, 
2130.00, 
2131.00, 
2132.00, 
2133.00, 
2134.00, 
2135.00, 
2136.00, 
2137.00, 
2138.00, 
2139.00, 
2140.00, 
2141.00, 
2142.00, 
2143.00, 
2144.00, 
2145.00, 
2146.00, 
2147.00, 
2148.00, 
2149.00, 
2150.00, 
2151.00, 
2152.00, 
2153.00, 
2154.00, 
2155.00, 
2156.00, 
2157.00, 
2158.00, 
2159.00, 
2160.00, 
2161.00, 
2162.00, 
2163.00, 
2164.00, 
2165.00, 
2166.00, 
2167.00, 
2168.00, 
2169.00, 
2170.00, 
2171.00, 
2172.00, 
2173.00, 
2174.00, 
2175.00, 
2176.00, 
2177.00, 
2178.00, 
2179.00, 
2180.00, 
2181.00, 
2182.00, 
2183.00, 
2184.00, 
2185.00, 
2186.00, 
2187.00, 
2188.00, 
2189.00, 
2190.00, 
2191.00, 
2192.00, 
2193.00, 
2194.00, 
2195.00, 
2196.00, 
2197.00, 
2198.00, 
2199.00, 
2200.00, 
2201.00, 
2202.00, 
2203.00, 
2204.00, 
2205.00, 
2206.00, 
2207.00, 
2208.00, 
2209.00, 
2210.00, 
2211.00, 
2212.00, 
2213.00, 
2214.00, 
2215.00, 
2216.00, 
2217.00, 
2218.00, 
2219.00, 
2220.00, 
2221.00, 
2222.00, 
2223.00, 
2224.00, 
2225.00, 
2226.00, 
2227.00, 
2228.00, 
2229.00, 
2230.00, 
2231.00, 
2232.00, 
2233.00, 
2234.00, 
2235.00, 
2236.00, 
2237.00, 
2238.00, 
2239.00, 
2240.00, 
2241.00, 
2242.00, 
2243.00, 
2244.00, 
2245.00, 
2246.00, 
2247.00, 
2248.00, 
2249.00, 
2250.00, 
2251.00, 
2252.00, 
2253.00, 
2254.00, 
2255.00, 
2256.00, 
2257.00, 
2258.00, 
2259.00, 
2260.00, 
2261.00, 
2262.00, 
2263.00, 
2264.00, 
2265.00, 
2266.00, 
2267.00, 
2268.00, 
2269.00, 
2270.00, 
2271.00, 
2272.00, 
2273.00, 
2274.00, 
2275.00, 
2276.00, 
2277.00, 
2278.00, 
2279.00, 
2280.00, 
2281.00, 
2282.00, 
2283.00, 
2284.00, 
2285.00, 
2286.00, 
2287.00, 
2288.00, 
2289.00, 
2290.00, 
2291.00, 
2292.00, 
2293.00, 
2294.00, 
2295.00, 
2296.00, 
2297.00, 
2298.00, 
2299.00, 
2300.00, 
2301.00, 
2302.00, 
2303.00, 
2304.00, 
2305.00, 
2306.00, 
2307.00, 
2308.00, 
2309.00, 
2310.00, 
2311.00, 
2312.00, 
2313.00, 
2314.00, 
2315.00, 
2316.00, 
2317.00, 
2318.00, 
2319.00, 
2320.00, 
2321.00, 
2322.00, 
2323.00, 
2324.00, 
2325.00, 
2326.00, 
2327.00, 
2328.00, 
2329.00, 
2330.00, 
2331.00, 
2332.00, 
2333.00, 
2334.00, 
2335.00, 
2336.00, 
2337.00, 
2338.00, 
2339.00, 
2340.00, 
2341.00, 
2342.00, 
2343.00, 
2344.00, 
2345.00, 
2346.00, 
2347.00, 
2348.00, 
2349.00, 
2350.00, 
2351.00, 
2352.00, 
2353.00, 
2354.00, 
2355.00, 
2356.00, 
2357.00, 
2358.00, 
2359.00, 
2360.00, 
2361.00, 
2362.00, 
2363.00, 
2364.00, 
2365.00, 
2366.00, 
2367.00, 
2368.00, 
2369.00, 
2370.00, 
2371.00, 
2372.00, 
2373.00, 
2374.00, 
2375.00, 
2376.00, 
2377.00, 
2378.00, 
2379.00, 
2380.00, 
2381.00, 
2382.00, 
2383.00, 
2384.00, 
2385.00, 
2386.00, 
2387.00, 
2388.00, 
2389.00, 
2390.00, 
2391.00, 
2392.00, 
2393.00, 
2394.00, 
2395.00, 
2396.00, 
2397.00, 
2398.00, 
2399.00, 
2400.00, 
2401.00, 
2402.00, 
2403.00, 
2404.00, 
2405.00, 
2406.00, 
2407.00, 
2408.00, 
2409.00, 
2410.00, 
2411.00, 
2412.00, 
2413.00, 
2414.00, 
2415.00, 
2416.00, 
2417.00, 
2418.00, 
2419.00, 
2420.00, 
2421.00, 
2422.00, 
2423.00, 
2424.00, 
2425.00, 
2426.00, 
2427.00, 
2428.00, 
2429.00, 
2430.00, 
2431.00, 
2432.00, 
2433.00, 
2434.00, 
2435.00, 
2436.00, 
2437.00, 
2438.00, 
2439.00, 
2440.00, 
2441.00, 
2442.00, 
2443.00, 
2444.00, 
2445.00, 
2446.00, 
2447.00, 
2448.00, 
2449.00, 
2450.00, 
2451.00, 
2452.00, 
2453.00, 
2454.00, 
2455.00, 
2456.00, 
2457.00, 
2458.00, 
2459.00, 
2460.00, 
2461.00, 
2462.00, 
2463.00, 
2464.00, 
2465.00, 
2466.00, 
2467.00, 
2468.00, 
2469.00, 
2470.00, 
2471.00, 
2472.00, 
2473.00, 
2474.00, 
2475.00, 
2476.00, 
2477.00, 
2478.00, 
2479.00, 
2480.00, 
2481.00, 
2482.00, 
2483.00, 
2484.00, 
2485.00, 
2486.00, 
2487.00, 
2488.00, 
2489.00, 
2490.00, 
2491.00, 
2492.00, 
2493.00, 
2494.00, 
2495.00, 
2496.00, 
2497.00, 
2498.00, 
2499.00, 
2500.00, 
2501.00, 
2502.00, 
2503.00, 
2504.00, 
2505.00, 
2506.00, 
2507.00, 
2508.00, 
2509.00, 
2510.00, 
2511.00, 
2512.00, 
2513.00, 
2514.00, 
2515.00, 
2516.00, 
2517.00, 
2518.00, 
2519.00, 
2520.00, 
2521.00, 
2522.00, 
2523.00, 
2524.00, 
2525.00, 
2526.00, 
2527.00, 
2528.00, 
2529.00, 
2530.00, 
2531.00, 
2532.00, 
2533.00, 
2534.00, 
2535.00, 
2536.00, 
2537.00, 
2538.00, 
2539.00, 
2540.00, 
2541.00, 
2542.00, 
2543.00, 
2544.00, 
2545.00, 
2546.00, 
2547.00, 
2548.00, 
2549.00, 
2550.00, 
2551.00, 
2552.00, 
2553.00, 
2554.00, 
2555.00, 
2556.00, 
2557.00, 
2558.00, 
2559.00, 
2560.00, 
2561.00, 
2562.00, 
2563.00, 
2564.00, 
2565.00, 
2566.00, 
2567.00, 
2568.00, 
2569.00, 
2570.00, 
2571.00, 
2572.00, 
2573.00, 
2574.00, 
2575.00, 
2576.00, 
2577.00, 
2578.00, 
2579.00, 
2580.00, 
2581.00, 
2582.00, 
2583.00, 
2584.00, 
2585.00, 
2586.00, 
2587.00, 
2588.00, 
2589.00, 
2590.00, 
2591.00, 
2592.00, 
2593.00, 
2594.00, 
2595.00, 
2596.00, 
2597.00, 
2598.00, 
2599.00, 
2600.00, 
