"1bP2 - RawData"
"Wavelength nm.","T%"
200.00,0.004
201.00,0.004
202.00,0.003
203.00,0.001
204.00,0.004
205.00,0.000
206.00,0.000
207.00,-0.000
208.00,0.003
209.00,0.002
210.00,-0.001
211.00,0.001
212.00,0.002
213.00,0.001
214.00,0.002
215.00,-0.000
216.00,0.004
217.00,0.000
218.00,0.002
219.00,-0.001
220.00,0.002
221.00,0.000
222.00,-0.002
223.00,0.001
224.00,0.001
225.00,-0.000
226.00,0.000
227.00,0.002
228.00,0.000
229.00,-0.000
230.00,-0.000
231.00,0.001
232.00,-0.002
233.00,0.001
234.00,0.002
235.00,0.001
236.00,0.000
237.00,0.001
238.00,0.000
239.00,0.002
240.00,-0.001
241.00,0.001
242.00,0.001
243.00,0.001
244.00,-0.001
245.00,-0.000
246.00,-0.001
247.00,-0.001
248.00,-0.000
249.00,0.001
250.00,-0.001
251.00,0.001
252.00,-0.001
253.00,0.001
254.00,0.000
255.00,0.001
256.00,0.002
257.00,0.001
258.00,-0.001
259.00,0.001
260.00,0.000
261.00,0.000
262.00,0.001
263.00,-0.000
264.00,0.001
265.00,0.001
266.00,0.001
267.00,0.000
268.00,0.001
269.00,0.001
270.00,0.001
271.00,0.001
272.00,-0.001
273.00,0.000
274.00,0.000
275.00,0.001
276.00,0.002
277.00,0.000
278.00,-0.001
279.00,-0.000
280.00,-0.000
281.00,0.001
282.00,0.002
283.00,-0.001
284.00,-0.001
285.00,0.000
286.00,-0.002
287.00,0.000
288.00,-0.001
289.00,0.002
290.00,-0.000
291.00,0.001
292.00,-0.000
293.00,0.000
294.00,0.001
295.00,0.001
296.00,-0.000
297.00,0.001
298.00,0.002
299.00,0.003
300.00,0.004
301.00,0.005
302.00,0.009
303.00,0.017
304.00,0.022
305.00,0.033
306.00,0.053
307.00,0.078
308.00,0.120
309.00,0.184
310.00,0.251
311.00,0.342
312.00,0.461
313.00,0.621
314.00,0.805
315.00,1.042
316.00,1.308
317.00,1.644
318.00,2.008
319.00,2.439
320.00,2.934
321.00,3.493
322.00,4.094
323.00,4.782
324.00,5.510
325.00,6.204
326.00,6.917
327.00,7.774
328.00,8.616
329.00,9.483
330.00,10.358
331.00,11.206
332.00,12.093
333.00,13.072
334.00,13.922
335.00,14.854
336.00,15.711
337.00,16.594
338.00,17.438
339.00,18.185
340.00,18.998
341.00,19.771
342.00,20.483
343.00,21.216
344.00,21.831
345.00,22.560
346.00,23.110
347.00,23.643
348.00,24.188
349.00,24.603
350.00,25.063
351.00,25.529
352.00,25.850
353.00,26.267
354.00,26.640
355.00,26.965
356.00,27.207
357.00,27.462
358.00,27.748
359.00,28.104
360.00,28.322
361.00,28.449
362.00,28.614
363.00,28.857
364.00,28.922
365.00,29.061
366.00,29.150
367.00,29.218
368.00,29.291
369.00,29.327
370.00,29.428
371.00,29.435
372.00,29.407
373.00,29.403
374.00,29.475
375.00,29.458
376.00,29.370
377.00,29.286
378.00,29.226
379.00,29.132
380.00,29.091
381.00,29.103
382.00,29.091
383.00,29.102
384.00,29.120
385.00,29.219
386.00,29.246
387.00,29.229
388.00,29.353
389.00,29.277
390.00,29.372
391.00,29.391
392.00,29.482
393.00,29.455
394.00,29.473
395.00,29.514
396.00,29.503
397.00,29.570
398.00,29.521
399.00,29.514
400.00,29.538
401.00,29.506
402.00,29.522
403.00,29.499
404.00,29.543
405.00,29.494
406.00,29.499
407.00,29.399
408.00,29.417
409.00,29.367
410.00,29.277
411.00,29.277
412.00,29.228
413.00,29.307
414.00,29.233
415.00,29.211
416.00,29.342
417.00,29.265
418.00,29.323
419.00,29.381
420.00,29.453
421.00,29.421
422.00,29.419
423.00,29.516
424.00,29.543
425.00,29.543
426.00,29.599
427.00,29.658
428.00,29.667
429.00,29.688
430.00,29.719
431.00,29.795
432.00,29.797
433.00,29.846
434.00,29.920
435.00,30.004
436.00,30.033
437.00,30.104
438.00,30.170
439.00,30.205
440.00,30.303
441.00,30.366
442.00,30.438
443.00,30.478
444.00,30.605
445.00,30.682
446.00,30.786
447.00,30.849
448.00,30.957
449.00,31.053
450.00,31.170
451.00,31.197
452.00,31.317
453.00,31.430
454.00,31.494
455.00,31.617
456.00,31.739
457.00,31.787
458.00,31.890
459.00,32.050
460.00,32.160
461.00,32.304
462.00,32.353
463.00,32.530
464.00,32.620
465.00,32.680
466.00,32.822
467.00,32.976
468.00,33.038
469.00,33.147
470.00,33.221
471.00,33.277
472.00,33.383
473.00,33.446
474.00,33.515
475.00,33.649
476.00,33.758
477.00,33.780
478.00,33.930
479.00,34.072
480.00,34.222
481.00,34.317
482.00,34.512
483.00,34.629
484.00,34.790
485.00,34.966
486.00,35.082
487.00,35.178
488.00,35.250
489.00,35.475
490.00,35.564
491.00,35.653
492.00,35.910
493.00,36.043
494.00,35.977
495.00,36.145
496.00,36.257
497.00,36.340
498.00,36.444
499.00,36.561
500.00,36.716
501.00,36.782
502.00,36.938
503.00,37.059
504.00,37.066
505.00,37.181
506.00,37.284
507.00,37.327
508.00,37.402
509.00,37.627
510.00,37.749
511.00,37.758
512.00,37.953
513.00,38.107
514.00,38.134
515.00,38.289
516.00,38.395
517.00,38.425
518.00,38.506
519.00,38.575
520.00,38.608
521.00,38.734
522.00,38.787
523.00,38.812
524.00,38.906
525.00,38.985
526.00,39.109
527.00,39.099
528.00,39.182
529.00,39.374
530.00,39.527
531.00,39.594
532.00,39.644
533.00,39.723
534.00,39.769
535.00,39.884
536.00,39.941
537.00,40.032
538.00,40.073
539.00,40.097
540.00,40.185
541.00,40.141
542.00,40.237
543.00,40.238
544.00,40.340
545.00,40.390
546.00,40.415
547.00,40.569
548.00,40.577
549.00,40.621
550.00,40.689
551.00,40.794
552.00,40.843
553.00,40.852
554.00,40.938
555.00,40.959
556.00,40.988
557.00,41.087
558.00,41.121
559.00,41.127
560.00,41.209
561.00,41.257
562.00,41.302
563.00,41.385
564.00,41.370
565.00,41.379
566.00,41.374
567.00,41.414
568.00,41.460
569.00,41.533
570.00,41.495
571.00,41.572
572.00,41.615
573.00,41.536
574.00,41.515
575.00,41.525
576.00,41.538
577.00,41.601
578.00,41.747
579.00,41.803
580.00,41.805
581.00,41.935
582.00,42.021
583.00,42.025
584.00,42.115
585.00,42.179
586.00,42.200
587.00,42.276
588.00,42.333
589.00,42.209
590.00,42.244
591.00,42.310
592.00,42.236
593.00,42.396
594.00,42.432
595.00,42.501
596.00,42.584
597.00,42.582
598.00,42.620
599.00,42.626
600.00,42.675
601.00,42.695
602.00,42.709
603.00,42.709
604.00,42.723
605.00,42.738
606.00,42.771
607.00,42.774
608.00,42.974
609.00,43.058
610.00,42.881
611.00,42.914
612.00,42.993
613.00,42.962
614.00,43.049
615.00,43.123
616.00,43.152
617.00,43.070
618.00,43.115
619.00,43.313
620.00,43.296
621.00,43.331
622.00,43.350
623.00,43.456
624.00,43.510
625.00,43.588
626.00,43.613
627.00,43.614
628.00,43.674
629.00,43.650
630.00,43.624
631.00,43.697
632.00,43.794
633.00,43.919
634.00,43.975
635.00,44.055
636.00,44.082
637.00,44.069
638.00,44.140
639.00,44.221
640.00,44.200
641.00,44.283
642.00,44.290
643.00,44.396
644.00,44.491
645.00,44.504
646.00,44.619
647.00,44.646
648.00,44.700
649.00,44.710
650.00,44.665
651.00,44.773
652.00,44.871
653.00,44.874
654.00,44.914
655.00,44.990
656.00,45.287
657.00,45.115
658.00,45.332
659.00,45.332
660.00,45.090
661.00,45.513
662.00,45.323
663.00,45.478
664.00,45.732
665.00,45.816
666.00,45.689
667.00,45.868
668.00,45.869
669.00,46.096
670.00,46.240
671.00,46.069
672.00,46.118
673.00,46.253
674.00,46.248
675.00,46.327
676.00,46.533
677.00,46.608
678.00,46.289
679.00,46.416
680.00,46.452
681.00,46.658
682.00,46.707
683.00,46.545
684.00,46.540
685.00,46.563
686.00,46.475
687.00,47.059
688.00,47.298
689.00,47.077
690.00,47.274
691.00,47.494
692.00,47.024
693.00,47.068
694.00,47.212
695.00,47.355
696.00,47.468
697.00,47.360
698.00,47.294
699.00,47.450
700.00,48.103
701.00,48.117
702.00,47.862
703.00,48.139
704.00,48.043
705.00,47.953
706.00,48.050
707.00,47.930
708.00,48.070
709.00,48.580
710.00,48.339
711.00,48.218
712.00,48.245
713.00,48.321
714.00,48.363
715.00,48.434
716.00,48.416
717.00,48.537
718.00,48.689
719.00,48.621
720.00,48.609
721.00,53.356
722.00,53.294
723.00,53.310
724.00,53.245
725.00,53.284
726.00,53.294
727.00,53.283
728.00,53.360
729.00,53.321
730.00,53.355
731.00,53.308
732.00,53.274
733.00,53.320
734.00,53.332
735.00,53.417
736.00,53.335
737.00,53.388
738.00,53.486
739.00,53.406
740.00,53.471
741.00,53.404
742.00,53.508
743.00,53.419
744.00,53.432
745.00,53.471
746.00,53.400
747.00,53.389
748.00,53.315
749.00,53.307
750.00,53.311
751.00,53.278
752.00,53.279
753.00,53.365
754.00,53.229
755.00,53.238
756.00,53.240
757.00,53.232
758.00,53.299
759.00,53.272
760.00,53.260
761.00,53.259
762.00,53.253
763.00,53.280
764.00,53.229
765.00,53.241
766.00,53.263
767.00,53.231
768.00,53.238
769.00,53.209
770.00,53.259
771.00,53.136
772.00,53.238
773.00,53.236
774.00,53.227
775.00,53.227
776.00,53.162
777.00,53.183
778.00,53.217
779.00,53.214
780.00,53.207
781.00,53.149
782.00,53.149
783.00,53.182
784.00,53.199
785.00,53.043
786.00,53.158
787.00,53.066
788.00,53.178
789.00,53.076
790.00,53.061
791.00,53.153
792.00,52.987
793.00,53.035
794.00,53.009
795.00,52.894
796.00,52.946
797.00,52.912
798.00,52.906
799.00,52.830
800.00,52.872
801.00,52.892
802.00,52.853
803.00,52.871
804.00,52.753
805.00,52.826
806.00,52.709
807.00,52.686
808.00,52.758
809.00,52.708
810.00,52.678
811.00,52.702
812.00,52.703
813.00,52.619
814.00,52.670
815.00,52.641
816.00,52.609
817.00,52.576
818.00,52.530
819.00,52.498
820.00,52.486
821.00,52.517
822.00,52.464
823.00,52.400
824.00,52.516
825.00,52.367
826.00,52.491
827.00,52.502
828.00,52.452
829.00,52.446
830.00,52.474
831.00,54.984
832.00,54.955
833.00,54.910
834.00,54.909
835.00,54.897
836.00,54.900
837.00,54.855
838.00,54.819
839.00,54.828
840.00,54.712
841.00,54.782
842.00,54.737
843.00,54.767
844.00,54.718
845.00,54.692
846.00,54.731
847.00,54.651
848.00,54.678
849.00,54.555
850.00,54.563
851.00,54.514
852.00,54.529
853.00,54.467
854.00,54.459
855.00,54.396
856.00,54.421
857.00,54.371
858.00,54.362
859.00,54.327
860.00,54.348
861.00,54.305
862.00,54.248
863.00,54.286
864.00,54.240
865.00,54.266
866.00,54.247
867.00,54.240
868.00,54.227
869.00,54.216
870.00,54.229
871.00,54.181
872.00,54.191
873.00,54.148
874.00,54.166
875.00,54.138
876.00,54.143
877.00,54.131
878.00,54.134
879.00,54.097
880.00,54.090
881.00,54.082
882.00,54.103
883.00,54.043
884.00,53.993
885.00,53.981
886.00,53.985
887.00,53.958
888.00,53.929
889.00,53.913
890.00,53.915
891.00,53.891
892.00,53.892
893.00,53.845
894.00,53.891
895.00,53.832
896.00,53.775
897.00,53.760
898.00,53.792
899.00,53.662
900.00,53.730
901.00,53.717
902.00,53.743
903.00,53.697
904.00,53.706
905.00,53.673
906.00,53.683
907.00,53.646
908.00,53.608
909.00,53.634
910.00,53.563
911.00,53.551
912.00,53.546
913.00,53.516
914.00,53.508
915.00,53.460
916.00,53.432
917.00,53.400
918.00,53.446
919.00,53.415
920.00,53.364
921.00,53.362
922.00,53.357
923.00,53.344
924.00,53.292
925.00,53.271
926.00,53.279
927.00,53.281
928.00,53.239
929.00,53.244
930.00,53.210
931.00,53.194
932.00,53.165
933.00,53.198
934.00,53.167
935.00,53.152
936.00,53.101
937.00,53.110
938.00,53.109
939.00,53.089
940.00,53.065
941.00,53.059
942.00,53.028
943.00,53.017
944.00,52.950
945.00,52.969
946.00,52.976
947.00,52.942
948.00,52.902
949.00,52.901
950.00,52.877
951.00,52.871
952.00,52.842
953.00,52.793
954.00,52.783
955.00,52.732
956.00,52.739
957.00,52.702
958.00,52.706
959.00,52.647
960.00,52.660
961.00,52.698
962.00,52.658
963.00,52.607
964.00,52.596
965.00,52.600
966.00,52.574
967.00,52.567
968.00,52.548
969.00,52.570
970.00,52.547
971.00,52.583
972.00,52.498
973.00,52.555
974.00,52.567
975.00,52.517
976.00,52.550
977.00,52.537
978.00,52.570
979.00,52.520
980.00,52.543
981.00,52.545
982.00,52.523
983.00,52.525
984.00,52.552
985.00,52.570
986.00,52.561
987.00,52.573
988.00,52.520
989.00,52.513
990.00,52.498
991.00,52.464
992.00,52.504
993.00,52.448
994.00,52.439
995.00,52.441
996.00,52.418
997.00,52.417
998.00,52.396
999.00,52.415
1000.00,52.353
1001.00,52.350
1002.00,52.342
1003.00,52.354
1004.00,52.322
1005.00,52.280
1006.00,52.332
1007.00,52.317
1008.00,52.279
1009.00,52.257
1010.00,52.254
1011.00,52.239
1012.00,52.230
1013.00,52.248
1014.00,52.213
1015.00,52.232
1016.00,52.169
1017.00,52.179
1018.00,52.175
1019.00,52.145
1020.00,52.137
1021.00,52.121
1022.00,52.146
1023.00,52.061
1024.00,52.063
1025.00,52.061
1026.00,52.054
1027.00,52.015
1028.00,52.018
1029.00,52.023
1030.00,51.977
1031.00,51.997
1032.00,51.959
1033.00,51.941
1034.00,51.921
1035.00,51.867
1036.00,51.858
1037.00,51.848
1038.00,51.815
1039.00,51.789
1040.00,51.775
1041.00,51.743
1042.00,51.760
1043.00,51.730
1044.00,51.767
1045.00,51.760
1046.00,51.740
1047.00,51.775
1048.00,51.786
1049.00,51.770
1050.00,51.770
1051.00,51.827
1052.00,51.810
1053.00,51.816
1054.00,51.820
1055.00,51.843
1056.00,51.868
1057.00,51.852
1058.00,51.848
1059.00,51.844
1060.00,51.857
1061.00,51.879
1062.00,51.839
1063.00,51.829
1064.00,51.845
1065.00,51.842
1066.00,51.817
1067.00,51.819
1068.00,51.835
1069.00,51.788
1070.00,51.794
1071.00,51.755
1072.00,51.792
1073.00,51.767
1074.00,51.761
1075.00,51.760
1076.00,51.765
1077.00,51.752
1078.00,51.719
1079.00,51.729
1080.00,51.771
1081.00,51.774
1082.00,51.738
1083.00,51.741
1084.00,51.710
1085.00,51.710
1086.00,51.705
1087.00,51.704
1088.00,51.682
1089.00,51.674
1090.00,51.656
1091.00,51.686
1092.00,51.680
1093.00,51.641
1094.00,51.641
1095.00,51.638
1096.00,51.599
1097.00,51.613
1098.00,51.604
1099.00,51.592
1100.00,51.580
1101.00,51.565
1102.00,51.573
1103.00,51.583
1104.00,51.559
1105.00,51.559
1106.00,51.540
1107.00,51.524
1108.00,51.525
1109.00,51.518
1110.00,51.506
1111.00,51.498
1112.00,51.465
1113.00,51.489
1114.00,51.486
1115.00,51.457
1116.00,51.459
1117.00,51.454
1118.00,51.438
1119.00,51.454
1120.00,51.443
1121.00,51.440
1122.00,51.434
1123.00,51.417
1124.00,51.438
1125.00,51.441
1126.00,51.409
1127.00,51.413
1128.00,51.386
1129.00,51.393
1130.00,51.359
1131.00,51.361
1132.00,51.366
1133.00,51.379
1134.00,51.351
1135.00,51.342
1136.00,51.342
1137.00,51.336
1138.00,51.344
1139.00,51.353
1140.00,51.334
1141.00,51.345
1142.00,51.330
1143.00,51.336
1144.00,51.311
1145.00,51.303
1146.00,51.306
1147.00,51.303
1148.00,51.285
1149.00,51.314
1150.00,51.308
1151.00,51.300
1152.00,51.302
1153.00,51.311
1154.00,51.287
1155.00,51.278
1156.00,51.260
1157.00,51.291
1158.00,51.272
1159.00,51.269
1160.00,51.297
1161.00,51.287
1162.00,51.274
1163.00,51.281
1164.00,51.294
1165.00,51.292
1166.00,51.312
1167.00,51.272
1168.00,51.303
1169.00,51.289
1170.00,51.271
1171.00,51.250
1172.00,51.268
1173.00,51.246
1174.00,51.281
1175.00,51.290
1176.00,51.264
1177.00,51.270
1178.00,51.247
1179.00,51.272
1180.00,51.272
1181.00,51.268
1182.00,51.266
1183.00,51.278
1184.00,51.257
1185.00,51.275
1186.00,51.254
1187.00,51.256
1188.00,51.264
1189.00,51.256
1190.00,51.262
1191.00,51.248
1192.00,51.253
1193.00,51.257
1194.00,51.269
1195.00,51.245
1196.00,51.285
1197.00,51.280
1198.00,51.258
1199.00,51.260
1200.00,51.252
1201.00,51.284
1202.00,51.257
1203.00,51.239
1204.00,51.252
1205.00,51.287
1206.00,51.259
1207.00,51.262
1208.00,51.244
1209.00,51.248
1210.00,51.267
1211.00,51.247
1212.00,51.273
1213.00,51.245
1214.00,51.262
1215.00,51.254
1216.00,51.262
1217.00,51.251
1218.00,51.256
1219.00,51.263
1220.00,51.245
1221.00,51.279
1222.00,51.228
1223.00,51.280
1224.00,51.269
1225.00,51.236
1226.00,51.258
1227.00,51.250
1228.00,51.255
1229.00,51.260
1230.00,51.293
1231.00,51.298
1232.00,51.329
1233.00,51.308
1234.00,51.303
1235.00,51.318
1236.00,51.310
1237.00,51.317
1238.00,51.314
1239.00,51.312
1240.00,51.303
1241.00,51.324
1242.00,51.324
1243.00,51.344
1244.00,51.303
1245.00,51.342
1246.00,51.352
1247.00,51.316
1248.00,51.325
1249.00,51.341
1250.00,51.339
1251.00,51.330
1252.00,51.338
1253.00,51.323
1254.00,51.358
1255.00,51.321
1256.00,51.333
1257.00,51.365
1258.00,51.367
1259.00,51.366
1260.00,51.397
1261.00,51.391
1262.00,51.395
1263.00,51.379
1264.00,51.374
1265.00,51.399
1266.00,51.385
1267.00,51.411
1268.00,51.411
1269.00,51.383
1270.00,51.438
1271.00,51.433
1272.00,51.435
1273.00,51.465
1274.00,51.449
1275.00,51.460
1276.00,51.458
1277.00,51.449
1278.00,51.480
1279.00,51.480
1280.00,51.456
1281.00,51.501
1282.00,51.512
1283.00,51.455
1284.00,51.483
1285.00,51.479
1286.00,51.488
1287.00,51.489
1288.00,51.484
1289.00,51.487
1290.00,51.532
1291.00,51.504
1292.00,51.507
1293.00,51.528
1294.00,51.536
1295.00,51.549
1296.00,51.544
1297.00,51.548
1298.00,51.593
1299.00,51.546
1300.00,51.581
1301.00,51.568
1302.00,51.583
1303.00,51.605
1304.00,51.583
1305.00,51.592
1306.00,51.609
1307.00,51.620
1308.00,51.623
1309.00,51.635
1310.00,51.625
1311.00,51.609
1312.00,51.613
1313.00,51.604
1314.00,51.638
1315.00,51.655
1316.00,51.624
1317.00,51.656
1318.00,51.668
1319.00,51.667
1320.00,51.678
1321.00,51.826
1322.00,51.802
1323.00,51.800
1324.00,51.789
1325.00,51.813
1326.00,51.822
1327.00,51.797
1328.00,51.806
1329.00,51.800
1330.00,51.823
1331.00,51.819
1332.00,51.823
1333.00,51.814
1334.00,51.836
1335.00,51.862
1336.00,51.898
1337.00,51.902
1338.00,51.921
1339.00,52.006
1340.00,52.092
1341.00,52.176
1342.00,52.218
1343.00,52.243
1344.00,52.297
1345.00,52.368
1346.00,52.383
1347.00,52.407
1348.00,52.428
1349.00,52.431
1350.00,52.442
1351.00,52.464
1352.00,52.463
1353.00,52.444
1354.00,52.484
1355.00,52.451
1356.00,52.562
1357.00,52.489
1358.00,52.486
1359.00,52.535
1360.00,52.459
1361.00,52.632
1362.00,52.486
1363.00,52.526
1364.00,52.722
1365.00,52.527
1366.00,52.575
1367.00,52.588
1368.00,52.467
1369.00,52.522
1370.00,52.555
1371.00,52.522
1372.00,52.499
1373.00,52.526
1374.00,52.538
1375.00,52.505
1376.00,52.494
1377.00,52.480
1378.00,52.503
1379.00,52.521
1380.00,52.503
1381.00,52.564
1382.00,52.550
1383.00,52.543
1384.00,52.478
1385.00,52.450
1386.00,52.633
1387.00,52.549
1388.00,52.485
1389.00,52.461
1390.00,52.446
1391.00,52.551
1392.00,52.477
1393.00,52.406
1394.00,52.525
1395.00,52.527
1396.00,52.456
1397.00,52.488
1398.00,52.489
1399.00,52.494
1400.00,52.413
1401.00,52.451
1402.00,52.258
1403.00,52.517
1404.00,52.497
1405.00,52.527
1406.00,52.534
1407.00,52.538
1408.00,52.608
1409.00,52.513
1410.00,52.568
1411.00,52.517
1412.00,52.626
1413.00,52.538
1414.00,52.575
1415.00,52.550
1416.00,52.644
1417.00,52.621
1418.00,52.580
1419.00,52.610
1420.00,52.613
1421.00,52.668
1422.00,52.651
1423.00,52.670
1424.00,52.670
1425.00,52.692
1426.00,52.686
1427.00,52.716
1428.00,52.693
1429.00,52.688
1430.00,52.753
1431.00,52.750
1432.00,52.744
1433.00,52.800
1434.00,52.753
1435.00,52.826
1436.00,52.829
1437.00,52.802
1438.00,52.848
1439.00,52.851
1440.00,52.876
1441.00,52.902
1442.00,52.907
1443.00,52.909
1444.00,52.956
1445.00,52.931
1446.00,52.948
1447.00,52.983
1448.00,53.030
1449.00,53.002
1450.00,53.020
1451.00,53.031
1452.00,53.048
1453.00,53.037
1454.00,53.076
1455.00,53.108
1456.00,53.089
1457.00,53.098
1458.00,53.136
1459.00,53.122
1460.00,53.154
1461.00,53.148
1462.00,53.182
1463.00,53.187
1464.00,53.201
1465.00,53.218
1466.00,53.220
1467.00,53.227
1468.00,53.309
1469.00,53.251
1470.00,53.260
1471.00,53.292
1472.00,53.278
1473.00,53.303
1474.00,53.330
1475.00,53.334
1476.00,53.356
1477.00,53.333
1478.00,53.359
1479.00,53.370
1480.00,53.372
1481.00,53.366
1482.00,53.415
1483.00,53.418
1484.00,53.437
1485.00,53.443
1486.00,53.448
1487.00,53.472
1488.00,53.508
1489.00,53.461
1490.00,53.492
1491.00,53.510
1492.00,53.545
1493.00,53.512
1494.00,53.541
1495.00,53.530
1496.00,53.571
1497.00,53.549
1498.00,53.572
1499.00,53.579
1500.00,53.572
1501.00, 
1502.00, 
1503.00, 
1504.00, 
1505.00, 
1506.00, 
1507.00, 
1508.00, 
1509.00, 
1510.00, 
1511.00, 
1512.00, 
1513.00, 
1514.00, 
1515.00, 
1516.00, 
1517.00, 
1518.00, 
1519.00, 
1520.00, 
1521.00, 
1522.00, 
1523.00, 
1524.00, 
1525.00, 
1526.00, 
1527.00, 
1528.00, 
1529.00, 
1530.00, 
1531.00, 
1532.00, 
1533.00, 
1534.00, 
1535.00, 
1536.00, 
1537.00, 
1538.00, 
1539.00, 
1540.00, 
1541.00, 
1542.00, 
1543.00, 
1544.00, 
1545.00, 
1546.00, 
1547.00, 
1548.00, 
1549.00, 
1550.00, 
1551.00, 
1552.00, 
1553.00, 
1554.00, 
1555.00, 
1556.00, 
1557.00, 
1558.00, 
1559.00, 
1560.00, 
1561.00, 
1562.00, 
1563.00, 
1564.00, 
1565.00, 
1566.00, 
1567.00, 
1568.00, 
1569.00, 
1570.00, 
1571.00, 
1572.00, 
1573.00, 
1574.00, 
1575.00, 
1576.00, 
1577.00, 
1578.00, 
1579.00, 
1580.00, 
1581.00, 
1582.00, 
1583.00, 
1584.00, 
1585.00, 
1586.00, 
1587.00, 
1588.00, 
1589.00, 
1590.00, 
1591.00, 
1592.00, 
1593.00, 
1594.00, 
1595.00, 
1596.00, 
1597.00, 
1598.00, 
1599.00, 
1600.00, 
1601.00, 
1602.00, 
1603.00, 
1604.00, 
1605.00, 
1606.00, 
1607.00, 
1608.00, 
1609.00, 
1610.00, 
1611.00, 
1612.00, 
1613.00, 
1614.00, 
1615.00, 
1616.00, 
1617.00, 
1618.00, 
1619.00, 
1620.00, 
1621.00, 
1622.00, 
1623.00, 
1624.00, 
1625.00, 
1626.00, 
1627.00, 
1628.00, 
1629.00, 
1630.00, 
1631.00, 
1632.00, 
1633.00, 
1634.00, 
1635.00, 
1636.00, 
1637.00, 
1638.00, 
1639.00, 
1640.00, 
1641.00, 
1642.00, 
1643.00, 
1644.00, 
1645.00, 
1646.00, 
1647.00, 
1648.00, 
1649.00, 
1650.00, 
1651.00, 
1652.00, 
1653.00, 
1654.00, 
1655.00, 
1656.00, 
1657.00, 
1658.00, 
1659.00, 
1660.00, 
1661.00, 
1662.00, 
1663.00, 
1664.00, 
1665.00, 
1666.00, 
1667.00, 
1668.00, 
1669.00, 
1670.00, 
1671.00, 
1672.00, 
1673.00, 
1674.00, 
1675.00, 
1676.00, 
1677.00, 
1678.00, 
1679.00, 
1680.00, 
1681.00, 
1682.00, 
1683.00, 
1684.00, 
1685.00, 
1686.00, 
1687.00, 
1688.00, 
1689.00, 
1690.00, 
1691.00, 
1692.00, 
1693.00, 
1694.00, 
1695.00, 
1696.00, 
1697.00, 
1698.00, 
1699.00, 
1700.00, 
1701.00, 
1702.00, 
1703.00, 
1704.00, 
1705.00, 
1706.00, 
1707.00, 
1708.00, 
1709.00, 
1710.00, 
1711.00, 
1712.00, 
1713.00, 
1714.00, 
1715.00, 
1716.00, 
1717.00, 
1718.00, 
1719.00, 
1720.00, 
1721.00, 
1722.00, 
1723.00, 
1724.00, 
1725.00, 
1726.00, 
1727.00, 
1728.00, 
1729.00, 
1730.00, 
1731.00, 
1732.00, 
1733.00, 
1734.00, 
1735.00, 
1736.00, 
1737.00, 
1738.00, 
1739.00, 
1740.00, 
1741.00, 
1742.00, 
1743.00, 
1744.00, 
1745.00, 
1746.00, 
1747.00, 
1748.00, 
1749.00, 
1750.00, 
1751.00, 
1752.00, 
1753.00, 
1754.00, 
1755.00, 
1756.00, 
1757.00, 
1758.00, 
1759.00, 
1760.00, 
1761.00, 
1762.00, 
1763.00, 
1764.00, 
1765.00, 
1766.00, 
1767.00, 
1768.00, 
1769.00, 
1770.00, 
1771.00, 
1772.00, 
1773.00, 
1774.00, 
1775.00, 
1776.00, 
1777.00, 
1778.00, 
1779.00, 
1780.00, 
1781.00, 
1782.00, 
1783.00, 
1784.00, 
1785.00, 
1786.00, 
1787.00, 
1788.00, 
1789.00, 
1790.00, 
1791.00, 
1792.00, 
1793.00, 
1794.00, 
1795.00, 
1796.00, 
1797.00, 
1798.00, 
1799.00, 
1800.00, 
1801.00, 
1802.00, 
1803.00, 
1804.00, 
1805.00, 
1806.00, 
1807.00, 
1808.00, 
1809.00, 
1810.00, 
1811.00, 
1812.00, 
1813.00, 
1814.00, 
1815.00, 
1816.00, 
1817.00, 
1818.00, 
1819.00, 
1820.00, 
1821.00, 
1822.00, 
1823.00, 
1824.00, 
1825.00, 
1826.00, 
1827.00, 
1828.00, 
1829.00, 
1830.00, 
1831.00, 
1832.00, 
1833.00, 
1834.00, 
1835.00, 
1836.00, 
1837.00, 
1838.00, 
1839.00, 
1840.00, 
1841.00, 
1842.00, 
1843.00, 
1844.00, 
1845.00, 
1846.00, 
1847.00, 
1848.00, 
1849.00, 
1850.00, 
1851.00, 
1852.00, 
1853.00, 
1854.00, 
1855.00, 
1856.00, 
1857.00, 
1858.00, 
1859.00, 
1860.00, 
1861.00, 
1862.00, 
1863.00, 
1864.00, 
1865.00, 
1866.00, 
1867.00, 
1868.00, 
1869.00, 
1870.00, 
1871.00, 
1872.00, 
1873.00, 
1874.00, 
1875.00, 
1876.00, 
1877.00, 
1878.00, 
1879.00, 
1880.00, 
1881.00, 
1882.00, 
1883.00, 
1884.00, 
1885.00, 
1886.00, 
1887.00, 
1888.00, 
1889.00, 
1890.00, 
1891.00, 
1892.00, 
1893.00, 
1894.00, 
1895.00, 
1896.00, 
1897.00, 
1898.00, 
1899.00, 
1900.00, 
1901.00, 
1902.00, 
1903.00, 
1904.00, 
1905.00, 
1906.00, 
1907.00, 
1908.00, 
1909.00, 
1910.00, 
1911.00, 
1912.00, 
1913.00, 
1914.00, 
1915.00, 
1916.00, 
1917.00, 
1918.00, 
1919.00, 
1920.00, 
1921.00, 
1922.00, 
1923.00, 
1924.00, 
1925.00, 
1926.00, 
1927.00, 
1928.00, 
1929.00, 
1930.00, 
1931.00, 
1932.00, 
1933.00, 
1934.00, 
1935.00, 
1936.00, 
1937.00, 
1938.00, 
1939.00, 
1940.00, 
1941.00, 
1942.00, 
1943.00, 
1944.00, 
1945.00, 
1946.00, 
1947.00, 
1948.00, 
1949.00, 
1950.00, 
1951.00, 
1952.00, 
1953.00, 
1954.00, 
1955.00, 
1956.00, 
1957.00, 
1958.00, 
1959.00, 
1960.00, 
1961.00, 
1962.00, 
1963.00, 
1964.00, 
1965.00, 
1966.00, 
1967.00, 
1968.00, 
1969.00, 
1970.00, 
1971.00, 
1972.00, 
1973.00, 
1974.00, 
1975.00, 
1976.00, 
1977.00, 
1978.00, 
1979.00, 
1980.00, 
1981.00, 
1982.00, 
1983.00, 
1984.00, 
1985.00, 
1986.00, 
1987.00, 
1988.00, 
1989.00, 
1990.00, 
1991.00, 
1992.00, 
1993.00, 
1994.00, 
1995.00, 
1996.00, 
1997.00, 
1998.00, 
1999.00, 
2000.00, 
2001.00, 
2002.00, 
2003.00, 
2004.00, 
2005.00, 
2006.00, 
2007.00, 
2008.00, 
2009.00, 
2010.00, 
2011.00, 
2012.00, 
2013.00, 
2014.00, 
2015.00, 
2016.00, 
2017.00, 
2018.00, 
2019.00, 
2020.00, 
2021.00, 
2022.00, 
2023.00, 
2024.00, 
2025.00, 
2026.00, 
2027.00, 
2028.00, 
2029.00, 
2030.00, 
2031.00, 
2032.00, 
2033.00, 
2034.00, 
2035.00, 
2036.00, 
2037.00, 
2038.00, 
2039.00, 
2040.00, 
2041.00, 
2042.00, 
2043.00, 
2044.00, 
2045.00, 
2046.00, 
2047.00, 
2048.00, 
2049.00, 
2050.00, 
2051.00, 
2052.00, 
2053.00, 
2054.00, 
2055.00, 
2056.00, 
2057.00, 
2058.00, 
2059.00, 
2060.00, 
2061.00, 
2062.00, 
2063.00, 
2064.00, 
2065.00, 
2066.00, 
2067.00, 
2068.00, 
2069.00, 
2070.00, 
2071.00, 
2072.00, 
2073.00, 
2074.00, 
2075.00, 
2076.00, 
2077.00, 
2078.00, 
2079.00, 
2080.00, 
2081.00, 
2082.00, 
2083.00, 
2084.00, 
2085.00, 
2086.00, 
2087.00, 
2088.00, 
2089.00, 
2090.00, 
2091.00, 
2092.00, 
2093.00, 
2094.00, 
2095.00, 
2096.00, 
2097.00, 
2098.00, 
2099.00, 
2100.00, 
2101.00, 
2102.00, 
2103.00, 
2104.00, 
2105.00, 
2106.00, 
2107.00, 
2108.00, 
2109.00, 
2110.00, 
2111.00, 
2112.00, 
2113.00, 
2114.00, 
2115.00, 
2116.00, 
2117.00, 
2118.00, 
2119.00, 
2120.00, 
2121.00, 
2122.00, 
2123.00, 
2124.00, 
2125.00, 
2126.00, 
2127.00, 
2128.00, 
2129.00, 
2130.00, 
2131.00, 
2132.00, 
2133.00, 
2134.00, 
2135.00, 
2136.00, 
2137.00, 
2138.00, 
2139.00, 
2140.00, 
2141.00, 
2142.00, 
2143.00, 
2144.00, 
2145.00, 
2146.00, 
2147.00, 
2148.00, 
2149.00, 
2150.00, 
2151.00, 
2152.00, 
2153.00, 
2154.00, 
2155.00, 
2156.00, 
2157.00, 
2158.00, 
2159.00, 
2160.00, 
2161.00, 
2162.00, 
2163.00, 
2164.00, 
2165.00, 
2166.00, 
2167.00, 
2168.00, 
2169.00, 
2170.00, 
2171.00, 
2172.00, 
2173.00, 
2174.00, 
2175.00, 
2176.00, 
2177.00, 
2178.00, 
2179.00, 
2180.00, 
2181.00, 
2182.00, 
2183.00, 
2184.00, 
2185.00, 
2186.00, 
2187.00, 
2188.00, 
2189.00, 
2190.00, 
2191.00, 
2192.00, 
2193.00, 
2194.00, 
2195.00, 
2196.00, 
2197.00, 
2198.00, 
2199.00, 
2200.00, 
2201.00, 
2202.00, 
2203.00, 
2204.00, 
2205.00, 
2206.00, 
2207.00, 
2208.00, 
2209.00, 
2210.00, 
2211.00, 
2212.00, 
2213.00, 
2214.00, 
2215.00, 
2216.00, 
2217.00, 
2218.00, 
2219.00, 
2220.00, 
2221.00, 
2222.00, 
2223.00, 
2224.00, 
2225.00, 
2226.00, 
2227.00, 
2228.00, 
2229.00, 
2230.00, 
2231.00, 
2232.00, 
2233.00, 
2234.00, 
2235.00, 
2236.00, 
2237.00, 
2238.00, 
2239.00, 
2240.00, 
2241.00, 
2242.00, 
2243.00, 
2244.00, 
2245.00, 
2246.00, 
2247.00, 
2248.00, 
2249.00, 
2250.00, 
2251.00, 
2252.00, 
2253.00, 
2254.00, 
2255.00, 
2256.00, 
2257.00, 
2258.00, 
2259.00, 
2260.00, 
2261.00, 
2262.00, 
2263.00, 
2264.00, 
2265.00, 
2266.00, 
2267.00, 
2268.00, 
2269.00, 
2270.00, 
2271.00, 
2272.00, 
2273.00, 
2274.00, 
2275.00, 
2276.00, 
2277.00, 
2278.00, 
2279.00, 
2280.00, 
2281.00, 
2282.00, 
2283.00, 
2284.00, 
2285.00, 
2286.00, 
2287.00, 
2288.00, 
2289.00, 
2290.00, 
2291.00, 
2292.00, 
2293.00, 
2294.00, 
2295.00, 
2296.00, 
2297.00, 
2298.00, 
2299.00, 
2300.00, 
2301.00, 
2302.00, 
2303.00, 
2304.00, 
2305.00, 
2306.00, 
2307.00, 
2308.00, 
2309.00, 
2310.00, 
2311.00, 
2312.00, 
2313.00, 
2314.00, 
2315.00, 
2316.00, 
2317.00, 
2318.00, 
2319.00, 
2320.00, 
2321.00, 
2322.00, 
2323.00, 
2324.00, 
2325.00, 
2326.00, 
2327.00, 
2328.00, 
2329.00, 
2330.00, 
2331.00, 
2332.00, 
2333.00, 
2334.00, 
2335.00, 
2336.00, 
2337.00, 
2338.00, 
2339.00, 
2340.00, 
2341.00, 
2342.00, 
2343.00, 
2344.00, 
2345.00, 
2346.00, 
2347.00, 
2348.00, 
2349.00, 
2350.00, 
2351.00, 
2352.00, 
2353.00, 
2354.00, 
2355.00, 
2356.00, 
2357.00, 
2358.00, 
2359.00, 
2360.00, 
2361.00, 
2362.00, 
2363.00, 
2364.00, 
2365.00, 
2366.00, 
2367.00, 
2368.00, 
2369.00, 
2370.00, 
2371.00, 
2372.00, 
2373.00, 
2374.00, 
2375.00, 
2376.00, 
2377.00, 
2378.00, 
2379.00, 
2380.00, 
2381.00, 
2382.00, 
2383.00, 
2384.00, 
2385.00, 
2386.00, 
2387.00, 
2388.00, 
2389.00, 
2390.00, 
2391.00, 
2392.00, 
2393.00, 
2394.00, 
2395.00, 
2396.00, 
2397.00, 
2398.00, 
2399.00, 
2400.00, 
2401.00, 
2402.00, 
2403.00, 
2404.00, 
2405.00, 
2406.00, 
2407.00, 
2408.00, 
2409.00, 
2410.00, 
2411.00, 
2412.00, 
2413.00, 
2414.00, 
2415.00, 
2416.00, 
2417.00, 
2418.00, 
2419.00, 
2420.00, 
2421.00, 
2422.00, 
2423.00, 
2424.00, 
2425.00, 
2426.00, 
2427.00, 
2428.00, 
2429.00, 
2430.00, 
2431.00, 
2432.00, 
2433.00, 
2434.00, 
2435.00, 
2436.00, 
2437.00, 
2438.00, 
2439.00, 
2440.00, 
2441.00, 
2442.00, 
2443.00, 
2444.00, 
2445.00, 
2446.00, 
2447.00, 
2448.00, 
2449.00, 
2450.00, 
2451.00, 
2452.00, 
2453.00, 
2454.00, 
2455.00, 
2456.00, 
2457.00, 
2458.00, 
2459.00, 
2460.00, 
2461.00, 
2462.00, 
2463.00, 
2464.00, 
2465.00, 
2466.00, 
2467.00, 
2468.00, 
2469.00, 
2470.00, 
2471.00, 
2472.00, 
2473.00, 
2474.00, 
2475.00, 
2476.00, 
2477.00, 
2478.00, 
2479.00, 
2480.00, 
2481.00, 
2482.00, 
2483.00, 
2484.00, 
2485.00, 
2486.00, 
2487.00, 
2488.00, 
2489.00, 
2490.00, 
2491.00, 
2492.00, 
2493.00, 
2494.00, 
2495.00, 
2496.00, 
2497.00, 
2498.00, 
2499.00, 
2500.00, 
2501.00, 
2502.00, 
2503.00, 
2504.00, 
2505.00, 
2506.00, 
2507.00, 
2508.00, 
2509.00, 
2510.00, 
2511.00, 
2512.00, 
2513.00, 
2514.00, 
2515.00, 
2516.00, 
2517.00, 
2518.00, 
2519.00, 
2520.00, 
2521.00, 
2522.00, 
2523.00, 
2524.00, 
2525.00, 
2526.00, 
2527.00, 
2528.00, 
2529.00, 
2530.00, 
2531.00, 
2532.00, 
2533.00, 
2534.00, 
2535.00, 
2536.00, 
2537.00, 
2538.00, 
2539.00, 
2540.00, 
2541.00, 
2542.00, 
2543.00, 
2544.00, 
2545.00, 
2546.00, 
2547.00, 
2548.00, 
2549.00, 
2550.00, 
2551.00, 
2552.00, 
2553.00, 
2554.00, 
2555.00, 
2556.00, 
2557.00, 
2558.00, 
2559.00, 
2560.00, 
2561.00, 
2562.00, 
2563.00, 
2564.00, 
2565.00, 
2566.00, 
2567.00, 
2568.00, 
2569.00, 
2570.00, 
2571.00, 
2572.00, 
2573.00, 
2574.00, 
2575.00, 
2576.00, 
2577.00, 
2578.00, 
2579.00, 
2580.00, 
2581.00, 
2582.00, 
2583.00, 
2584.00, 
2585.00, 
2586.00, 
2587.00, 
2588.00, 
2589.00, 
2590.00, 
2591.00, 
2592.00, 
2593.00, 
2594.00, 
2595.00, 
2596.00, 
2597.00, 
2598.00, 
2599.00, 
2600.00, 
