"1cP1 - RawData"
"Wavelength nm.","T%"
200.00,-0.000
201.00,0.000
202.00,0.000
203.00,-0.001
204.00,-0.001
205.00,0.002
206.00,0.001
207.00,0.002
208.00,0.000
209.00,0.004
210.00,-0.001
211.00,0.004
212.00,0.001
213.00,-0.001
214.00,0.000
215.00,0.000
216.00,0.001
217.00,0.000
218.00,0.002
219.00,-0.000
220.00,0.003
221.00,0.001
222.00,0.001
223.00,0.002
224.00,0.002
225.00,0.002
226.00,-0.000
227.00,0.000
228.00,-0.001
229.00,-0.001
230.00,0.002
231.00,-0.000
232.00,0.000
233.00,-0.000
234.00,0.001
235.00,-0.000
236.00,-0.001
237.00,0.000
238.00,0.001
239.00,-0.001
240.00,-0.001
241.00,-0.001
242.00,0.002
243.00,0.001
244.00,-0.000
245.00,0.001
246.00,0.002
247.00,0.002
248.00,0.001
249.00,0.002
250.00,0.001
251.00,0.001
252.00,0.002
253.00,-0.001
254.00,0.002
255.00,-0.000
256.00,0.003
257.00,-0.002
258.00,-0.001
259.00,-0.001
260.00,-0.000
261.00,-0.000
262.00,0.001
263.00,0.001
264.00,-0.001
265.00,-0.001
266.00,-0.001
267.00,-0.002
268.00,0.001
269.00,-0.001
270.00,0.002
271.00,-0.002
272.00,0.001
273.00,-0.000
274.00,-0.001
275.00,0.001
276.00,0.001
277.00,0.001
278.00,0.000
279.00,0.001
280.00,0.001
281.00,-0.001
282.00,-0.001
283.00,0.001
284.00,-0.000
285.00,0.002
286.00,0.000
287.00,-0.003
288.00,0.001
289.00,-0.001
290.00,0.003
291.00,-0.001
292.00,0.001
293.00,0.000
294.00,0.000
295.00,0.001
296.00,0.002
297.00,0.001
298.00,-0.000
299.00,0.003
300.00,0.001
301.00,0.001
302.00,0.001
303.00,0.001
304.00,-0.000
305.00,0.000
306.00,0.003
307.00,0.004
308.00,0.007
309.00,0.011
310.00,0.019
311.00,0.027
312.00,0.041
313.00,0.067
314.00,0.098
315.00,0.145
316.00,0.210
317.00,0.299
318.00,0.402
319.00,0.546
320.00,0.719
321.00,0.920
322.00,1.191
323.00,1.507
324.00,1.876
325.00,2.241
326.00,2.670
327.00,3.166
328.00,3.714
329.00,4.283
330.00,4.891
331.00,5.557
332.00,6.251
333.00,6.986
334.00,7.684
335.00,8.438
336.00,9.161
337.00,10.012
338.00,10.814
339.00,11.533
340.00,12.320
341.00,13.052
342.00,13.762
343.00,14.455
344.00,15.121
345.00,15.809
346.00,16.418
347.00,17.020
348.00,17.469
349.00,18.110
350.00,18.622
351.00,19.080
352.00,19.498
353.00,19.932
354.00,20.350
355.00,20.717
356.00,21.011
357.00,21.291
358.00,21.671
359.00,22.004
360.00,22.305
361.00,22.448
362.00,22.713
363.00,22.898
364.00,23.021
365.00,23.142
366.00,23.293
367.00,23.382
368.00,23.461
369.00,23.530
370.00,23.611
371.00,23.664
372.00,23.646
373.00,23.643
374.00,23.696
375.00,23.614
376.00,23.543
377.00,23.427
378.00,23.324
379.00,23.251
380.00,23.234
381.00,23.219
382.00,23.235
383.00,23.309
384.00,23.379
385.00,23.411
386.00,23.463
387.00,23.557
388.00,23.697
389.00,23.711
390.00,23.780
391.00,23.821
392.00,23.883
393.00,23.905
394.00,23.944
395.00,23.991
396.00,23.971
397.00,24.028
398.00,24.033
399.00,24.026
400.00,24.017
401.00,24.021
402.00,24.056
403.00,24.008
404.00,24.049
405.00,24.042
406.00,24.013
407.00,23.958
408.00,23.976
409.00,23.876
410.00,23.812
411.00,23.827
412.00,23.785
413.00,23.804
414.00,23.767
415.00,23.762
416.00,23.842
417.00,23.787
418.00,23.823
419.00,23.883
420.00,23.943
421.00,23.952
422.00,23.965
423.00,24.027
424.00,24.060
425.00,24.078
426.00,24.077
427.00,24.121
428.00,24.137
429.00,24.178
430.00,24.222
431.00,24.292
432.00,24.311
433.00,24.367
434.00,24.421
435.00,24.500
436.00,24.524
437.00,24.583
438.00,24.648
439.00,24.696
440.00,24.797
441.00,24.856
442.00,24.907
443.00,24.982
444.00,25.115
445.00,25.193
446.00,25.274
447.00,25.334
448.00,25.475
449.00,25.597
450.00,25.676
451.00,25.763
452.00,25.871
453.00,25.960
454.00,26.053
455.00,26.169
456.00,26.278
457.00,26.383
458.00,26.466
459.00,26.631
460.00,26.745
461.00,26.872
462.00,26.942
463.00,27.103
464.00,27.219
465.00,27.306
466.00,27.436
467.00,27.560
468.00,27.687
469.00,27.783
470.00,27.866
471.00,27.944
472.00,28.083
473.00,28.127
474.00,28.248
475.00,28.379
476.00,28.464
477.00,28.577
478.00,28.698
479.00,28.869
480.00,28.985
481.00,29.105
482.00,29.278
483.00,29.401
484.00,29.548
485.00,29.748
486.00,29.922
487.00,29.889
488.00,30.080
489.00,30.231
490.00,30.395
491.00,30.520
492.00,30.788
493.00,30.896
494.00,30.874
495.00,31.028
496.00,31.149
497.00,31.270
498.00,31.406
499.00,31.558
500.00,31.683
501.00,31.763
502.00,31.904
503.00,32.019
504.00,32.034
505.00,32.221
506.00,32.360
507.00,32.415
508.00,32.567
509.00,32.697
510.00,32.829
511.00,32.907
512.00,33.071
513.00,33.212
514.00,33.304
515.00,33.472
516.00,33.568
517.00,33.641
518.00,33.810
519.00,33.853
520.00,33.934
521.00,34.008
522.00,34.086
523.00,34.109
524.00,34.209
525.00,34.294
526.00,34.454
527.00,34.515
528.00,34.570
529.00,34.753
530.00,34.901
531.00,35.013
532.00,35.124
533.00,35.178
534.00,35.251
535.00,35.387
536.00,35.450
537.00,35.528
538.00,35.565
539.00,35.640
540.00,35.722
541.00,35.751
542.00,35.823
543.00,35.903
544.00,35.991
545.00,36.041
546.00,36.098
547.00,36.259
548.00,36.337
549.00,36.351
550.00,36.464
551.00,36.571
552.00,36.606
553.00,36.674
554.00,36.768
555.00,36.802
556.00,36.877
557.00,36.962
558.00,36.978
559.00,37.067
560.00,37.094
561.00,37.129
562.00,37.228
563.00,37.291
564.00,37.301
565.00,37.289
566.00,37.339
567.00,37.341
568.00,37.369
569.00,37.548
570.00,37.569
571.00,37.493
572.00,37.589
573.00,37.582
574.00,37.579
575.00,37.660
576.00,37.679
577.00,37.719
578.00,37.801
579.00,37.890
580.00,37.897
581.00,38.066
582.00,38.159
583.00,38.110
584.00,38.247
585.00,38.336
586.00,38.326
587.00,38.369
588.00,38.376
589.00,38.272
590.00,38.514
591.00,38.565
592.00,38.488
593.00,38.601
594.00,38.626
595.00,38.705
596.00,38.784
597.00,38.833
598.00,38.905
599.00,38.918
600.00,38.993
601.00,38.966
602.00,38.970
603.00,38.984
604.00,39.038
605.00,39.147
606.00,39.176
607.00,39.200
608.00,39.315
609.00,39.421
610.00,39.293
611.00,39.344
612.00,39.430
613.00,39.412
614.00,39.400
615.00,39.579
616.00,39.734
617.00,39.691
618.00,39.654
619.00,39.759
620.00,39.760
621.00,39.865
622.00,39.883
623.00,40.008
624.00,40.036
625.00,40.062
626.00,40.161
627.00,40.176
628.00,40.225
629.00,40.256
630.00,40.253
631.00,40.358
632.00,40.399
633.00,40.543
634.00,40.629
635.00,40.685
636.00,40.669
637.00,40.756
638.00,40.800
639.00,40.834
640.00,40.910
641.00,40.996
642.00,41.061
643.00,41.100
644.00,41.166
645.00,41.211
646.00,41.378
647.00,41.452
648.00,41.436
649.00,41.451
650.00,41.459
651.00,41.651
652.00,41.748
653.00,41.715
654.00,41.749
655.00,41.927
656.00,42.218
657.00,42.068
658.00,42.222
659.00,42.277
660.00,42.083
661.00,42.417
662.00,42.364
663.00,42.494
664.00,42.725
665.00,42.873
666.00,42.785
667.00,42.788
668.00,42.945
669.00,43.141
670.00,43.286
671.00,43.149
672.00,43.265
673.00,43.363
674.00,43.368
675.00,43.441
676.00,43.723
677.00,43.805
678.00,43.641
679.00,43.792
680.00,43.943
681.00,44.069
682.00,43.976
683.00,44.031
684.00,44.114
685.00,44.228
686.00,44.175
687.00,44.338
688.00,44.408
689.00,44.340
690.00,44.654
691.00,44.906
692.00,44.622
693.00,44.609
694.00,44.903
695.00,45.051
696.00,45.099
697.00,45.018
698.00,45.113
699.00,45.263
700.00,45.419
701.00,45.376
702.00,45.399
703.00,45.692
704.00,45.670
705.00,45.612
706.00,45.661
707.00,45.573
708.00,45.804
709.00,46.259
710.00,45.946
711.00,45.842
712.00,45.798
713.00,46.150
714.00,46.329
715.00,46.236
716.00,46.225
717.00,46.447
718.00,46.533
719.00,46.461
720.00,46.472
721.00,51.097
722.00,51.011
723.00,51.067
724.00,51.015
725.00,51.076
726.00,51.135
727.00,51.099
728.00,51.149
729.00,51.192
730.00,51.243
731.00,51.217
732.00,51.192
733.00,51.252
734.00,51.290
735.00,51.298
736.00,51.232
737.00,51.366
738.00,51.402
739.00,51.319
740.00,51.396
741.00,51.380
742.00,51.434
743.00,51.380
744.00,51.437
745.00,51.483
746.00,51.377
747.00,51.431
748.00,51.335
749.00,51.435
750.00,51.375
751.00,51.410
752.00,51.373
753.00,51.399
754.00,51.347
755.00,51.294
756.00,51.324
757.00,51.332
758.00,51.396
759.00,51.368
760.00,51.407
761.00,51.376
762.00,51.405
763.00,51.411
764.00,51.432
765.00,51.456
766.00,51.431
767.00,51.387
768.00,51.415
769.00,51.446
770.00,51.481
771.00,51.404
772.00,51.413
773.00,51.410
774.00,51.427
775.00,51.508
776.00,51.413
777.00,51.421
778.00,51.435
779.00,51.456
780.00,51.402
781.00,51.390
782.00,51.449
783.00,51.426
784.00,51.501
785.00,51.277
786.00,51.372
787.00,51.356
788.00,51.372
789.00,51.306
790.00,51.306
791.00,51.347
792.00,51.318
793.00,51.274
794.00,51.226
795.00,51.186
796.00,51.263
797.00,51.204
798.00,51.253
799.00,51.107
800.00,51.214
801.00,51.221
802.00,51.157
803.00,51.103
804.00,51.048
805.00,51.112
806.00,51.007
807.00,51.026
808.00,51.051
809.00,51.006
810.00,51.056
811.00,50.953
812.00,51.006
813.00,50.898
814.00,51.005
815.00,50.952
816.00,50.939
817.00,50.916
818.00,50.805
819.00,50.821
820.00,50.840
821.00,50.893
822.00,50.825
823.00,50.719
824.00,50.771
825.00,50.749
826.00,50.744
827.00,50.765
828.00,50.824
829.00,50.769
830.00,50.818
831.00,52.973
832.00,53.057
833.00,52.952
834.00,52.896
835.00,52.882
836.00,52.912
837.00,52.864
838.00,52.817
839.00,52.841
840.00,52.729
841.00,52.780
842.00,52.750
843.00,52.745
844.00,52.723
845.00,52.687
846.00,52.706
847.00,52.675
848.00,52.646
849.00,52.592
850.00,52.563
851.00,52.509
852.00,52.545
853.00,52.433
854.00,52.449
855.00,52.354
856.00,52.407
857.00,52.350
858.00,52.303
859.00,52.252
860.00,52.417
861.00,52.275
862.00,52.221
863.00,52.232
864.00,52.197
865.00,52.239
866.00,52.190
867.00,52.203
868.00,52.151
869.00,52.156
870.00,52.150
871.00,52.112
872.00,52.129
873.00,52.099
874.00,52.071
875.00,52.148
876.00,52.067
877.00,52.039
878.00,52.061
879.00,52.033
880.00,52.031
881.00,52.012
882.00,52.039
883.00,51.983
884.00,51.954
885.00,51.925
886.00,51.932
887.00,51.875
888.00,51.878
889.00,51.851
890.00,51.857
891.00,51.833
892.00,51.805
893.00,51.754
894.00,51.775
895.00,51.721
896.00,51.704
897.00,51.676
898.00,51.697
899.00,51.550
900.00,51.657
901.00,51.625
902.00,51.631
903.00,51.499
904.00,51.575
905.00,51.565
906.00,51.578
907.00,51.524
908.00,51.518
909.00,51.526
910.00,51.443
911.00,51.441
912.00,51.445
913.00,51.392
914.00,51.312
915.00,51.397
916.00,51.299
917.00,51.271
918.00,51.315
919.00,51.273
920.00,51.229
921.00,51.245
922.00,51.228
923.00,51.204
924.00,51.142
925.00,51.142
926.00,51.140
927.00,51.134
928.00,51.090
929.00,51.101
930.00,51.049
931.00,51.045
932.00,51.013
933.00,51.029
934.00,50.988
935.00,50.999
936.00,50.935
937.00,50.944
938.00,50.959
939.00,50.931
940.00,50.896
941.00,50.900
942.00,50.862
943.00,50.873
944.00,50.807
945.00,50.816
946.00,50.817
947.00,50.795
948.00,50.742
949.00,50.724
950.00,50.691
951.00,50.695
952.00,50.661
953.00,50.614
954.00,50.620
955.00,50.562
956.00,50.567
957.00,50.510
958.00,50.523
959.00,50.470
960.00,50.466
961.00,50.443
962.00,50.463
963.00,50.406
964.00,50.400
965.00,50.412
966.00,50.392
967.00,50.380
968.00,50.356
969.00,50.384
970.00,50.370
971.00,50.393
972.00,50.324
973.00,50.371
974.00,50.380
975.00,50.334
976.00,50.375
977.00,50.342
978.00,50.385
979.00,50.327
980.00,50.355
981.00,50.351
982.00,50.330
983.00,50.321
984.00,50.325
985.00,50.350
986.00,50.299
987.00,50.323
988.00,50.295
989.00,50.292
990.00,50.278
991.00,50.277
992.00,50.280
993.00,50.244
994.00,50.220
995.00,50.230
996.00,50.213
997.00,50.205
998.00,50.186
999.00,50.202
1000.00,50.150
1001.00,50.144
1002.00,50.112
1003.00,50.127
1004.00,50.098
1005.00,50.054
1006.00,50.106
1007.00,50.055
1008.00,50.049
1009.00,50.039
1010.00,50.033
1011.00,50.019
1012.00,49.994
1013.00,50.001
1014.00,49.966
1015.00,49.984
1016.00,49.915
1017.00,49.936
1018.00,49.917
1019.00,49.881
1020.00,49.899
1021.00,49.864
1022.00,49.866
1023.00,49.832
1024.00,49.836
1025.00,49.810
1026.00,49.799
1027.00,49.783
1028.00,49.779
1029.00,49.763
1030.00,49.723
1031.00,49.754
1032.00,49.700
1033.00,49.694
1034.00,49.676
1035.00,49.626
1036.00,49.614
1037.00,49.604
1038.00,49.581
1039.00,49.546
1040.00,49.547
1041.00,49.513
1042.00,49.518
1043.00,49.488
1044.00,49.520
1045.00,49.504
1046.00,49.472
1047.00,49.512
1048.00,49.517
1049.00,49.506
1050.00,49.523
1051.00,49.579
1052.00,49.572
1053.00,49.575
1054.00,49.569
1055.00,49.592
1056.00,49.606
1057.00,49.593
1058.00,49.593
1059.00,49.590
1060.00,49.609
1061.00,49.609
1062.00,49.594
1063.00,49.578
1064.00,49.584
1065.00,49.558
1066.00,49.550
1067.00,49.557
1068.00,49.561
1069.00,49.524
1070.00,49.520
1071.00,49.490
1072.00,49.532
1073.00,49.495
1074.00,49.483
1075.00,49.481
1076.00,49.486
1077.00,49.456
1078.00,49.445
1079.00,49.429
1080.00,49.442
1081.00,49.432
1082.00,49.410
1083.00,49.417
1084.00,49.415
1085.00,49.407
1086.00,49.399
1087.00,49.401
1088.00,49.377
1089.00,49.381
1090.00,49.372
1091.00,49.375
1092.00,49.366
1093.00,49.325
1094.00,49.323
1095.00,49.324
1096.00,49.299
1097.00,49.302
1098.00,49.287
1099.00,49.284
1100.00,49.276
1101.00,49.257
1102.00,49.260
1103.00,49.280
1104.00,49.246
1105.00,49.244
1106.00,49.232
1107.00,49.217
1108.00,49.211
1109.00,49.201
1110.00,49.197
1111.00,49.187
1112.00,49.160
1113.00,49.180
1114.00,49.168
1115.00,49.150
1116.00,49.150
1117.00,49.145
1118.00,49.127
1119.00,49.143
1120.00,49.126
1121.00,49.117
1122.00,49.112
1123.00,49.103
1124.00,49.103
1125.00,49.104
1126.00,49.087
1127.00,49.113
1128.00,49.107
1129.00,49.127
1130.00,49.072
1131.00,49.059
1132.00,49.050
1133.00,49.058
1134.00,49.036
1135.00,49.025
1136.00,49.019
1137.00,49.012
1138.00,49.014
1139.00,49.028
1140.00,49.014
1141.00,49.021
1142.00,48.995
1143.00,49.008
1144.00,48.991
1145.00,48.992
1146.00,49.008
1147.00,49.003
1148.00,48.983
1149.00,49.008
1150.00,48.998
1151.00,48.999
1152.00,48.992
1153.00,48.986
1154.00,48.962
1155.00,48.975
1156.00,48.954
1157.00,48.976
1158.00,48.952
1159.00,48.939
1160.00,48.961
1161.00,48.969
1162.00,48.951
1163.00,48.961
1164.00,48.967
1165.00,48.963
1166.00,48.972
1167.00,48.951
1168.00,48.978
1169.00,48.952
1170.00,48.941
1171.00,48.937
1172.00,48.930
1173.00,48.923
1174.00,48.952
1175.00,48.937
1176.00,48.929
1177.00,48.932
1178.00,48.930
1179.00,48.952
1180.00,48.942
1181.00,48.942
1182.00,48.933
1183.00,48.941
1184.00,48.922
1185.00,48.933
1186.00,48.909
1187.00,48.903
1188.00,48.915
1189.00,48.903
1190.00,48.903
1191.00,48.903
1192.00,48.906
1193.00,48.908
1194.00,48.916
1195.00,48.886
1196.00,48.934
1197.00,48.928
1198.00,48.907
1199.00,48.923
1200.00,48.905
1201.00,48.930
1202.00,48.911
1203.00,48.894
1204.00,48.903
1205.00,48.925
1206.00,48.908
1207.00,48.918
1208.00,48.902
1209.00,48.914
1210.00,48.920
1211.00,48.897
1212.00,48.919
1213.00,48.886
1214.00,48.900
1215.00,48.888
1216.00,48.908
1217.00,48.906
1218.00,48.904
1219.00,48.923
1220.00,48.898
1221.00,48.930
1222.00,48.905
1223.00,48.929
1224.00,48.928
1225.00,48.895
1226.00,48.916
1227.00,48.909
1228.00,48.915
1229.00,48.922
1230.00,48.947
1231.00,48.929
1232.00,48.970
1233.00,48.971
1234.00,48.967
1235.00,48.971
1236.00,48.962
1237.00,48.991
1238.00,48.983
1239.00,48.982
1240.00,48.976
1241.00,48.984
1242.00,48.995
1243.00,49.015
1244.00,48.972
1245.00,49.012
1246.00,49.014
1247.00,48.990
1248.00,49.006
1249.00,49.011
1250.00,49.030
1251.00,49.021
1252.00,49.042
1253.00,49.045
1254.00,49.069
1255.00,49.034
1256.00,49.042
1257.00,49.060
1258.00,49.062
1259.00,49.066
1260.00,49.092
1261.00,49.088
1262.00,49.088
1263.00,49.081
1264.00,49.087
1265.00,49.095
1266.00,49.086
1267.00,49.104
1268.00,49.102
1269.00,49.082
1270.00,49.120
1271.00,49.120
1272.00,49.118
1273.00,49.143
1274.00,49.128
1275.00,49.125
1276.00,49.131
1277.00,49.129
1278.00,49.163
1279.00,49.168
1280.00,49.154
1281.00,49.187
1282.00,49.212
1283.00,49.168
1284.00,49.201
1285.00,49.185
1286.00,49.211
1287.00,49.212
1288.00,49.201
1289.00,49.206
1290.00,49.247
1291.00,49.220
1292.00,49.233
1293.00,49.242
1294.00,49.255
1295.00,49.257
1296.00,49.262
1297.00,49.269
1298.00,49.315
1299.00,49.282
1300.00,49.301
1301.00,49.293
1302.00,49.305
1303.00,49.318
1304.00,49.310
1305.00,49.321
1306.00,49.330
1307.00,49.338
1308.00,49.344
1309.00,49.357
1310.00,49.335
1311.00,49.345
1312.00,49.354
1313.00,49.357
1314.00,49.395
1315.00,49.417
1316.00,49.402
1317.00,49.452
1318.00,49.437
1319.00,49.431
1320.00,49.439
1321.00,49.602
1322.00,49.602
1323.00,49.592
1324.00,49.572
1325.00,49.581
1326.00,49.612
1327.00,49.570
1328.00,49.594
1329.00,49.579
1330.00,49.610
1331.00,49.602
1332.00,49.593
1333.00,49.609
1334.00,49.633
1335.00,49.640
1336.00,49.668
1337.00,49.713
1338.00,49.746
1339.00,49.805
1340.00,49.844
1341.00,49.933
1342.00,50.012
1343.00,50.051
1344.00,50.123
1345.00,50.193
1346.00,50.208
1347.00,50.218
1348.00,50.248
1349.00,50.258
1350.00,50.288
1351.00,50.287
1352.00,50.307
1353.00,50.354
1354.00,50.320
1355.00,50.455
1356.00,50.349
1357.00,50.338
1358.00,50.367
1359.00,50.400
1360.00,50.342
1361.00,50.467
1362.00,50.358
1363.00,50.419
1364.00,50.470
1365.00,50.381
1366.00,50.451
1367.00,50.400
1368.00,50.303
1369.00,50.409
1370.00,50.385
1371.00,50.321
1372.00,50.370
1373.00,50.384
1374.00,50.393
1375.00,50.381
1376.00,50.357
1377.00,50.336
1378.00,50.343
1379.00,50.389
1380.00,50.390
1381.00,50.416
1382.00,50.396
1383.00,50.398
1384.00,50.341
1385.00,50.344
1386.00,50.411
1387.00,50.292
1388.00,50.372
1389.00,50.355
1390.00,50.363
1391.00,50.383
1392.00,50.346
1393.00,50.266
1394.00,50.366
1395.00,50.390
1396.00,50.309
1397.00,50.298
1398.00,50.366
1399.00,50.346
1400.00,50.318
1401.00,50.311
1402.00,50.446
1403.00,50.464
1404.00,50.377
1405.00,50.415
1406.00,50.422
1407.00,50.424
1408.00,50.524
1409.00,50.400
1410.00,50.448
1411.00,50.397
1412.00,50.476
1413.00,50.446
1414.00,50.474
1415.00,50.467
1416.00,50.506
1417.00,50.541
1418.00,50.493
1419.00,50.525
1420.00,50.517
1421.00,50.551
1422.00,50.568
1423.00,50.586
1424.00,50.592
1425.00,50.620
1426.00,50.618
1427.00,50.661
1428.00,50.648
1429.00,50.671
1430.00,50.689
1431.00,50.706
1432.00,50.691
1433.00,50.727
1434.00,50.712
1435.00,50.779
1436.00,50.789
1437.00,50.768
1438.00,50.808
1439.00,50.808
1440.00,50.814
1441.00,50.868
1442.00,50.852
1443.00,50.918
1444.00,50.975
1445.00,50.888
1446.00,50.934
1447.00,50.956
1448.00,51.005
1449.00,51.017
1450.00,51.023
1451.00,51.045
1452.00,51.076
1453.00,51.057
1454.00,51.087
1455.00,51.116
1456.00,51.129
1457.00,51.128
1458.00,51.157
1459.00,51.168
1460.00,51.194
1461.00,51.208
1462.00,51.236
1463.00,51.261
1464.00,51.289
1465.00,51.276
1466.00,51.274
1467.00,51.292
1468.00,51.364
1469.00,51.311
1470.00,51.322
1471.00,51.348
1472.00,51.362
1473.00,51.392
1474.00,51.425
1475.00,51.440
1476.00,51.461
1477.00,51.480
1478.00,51.475
1479.00,51.502
1480.00,51.523
1481.00,51.502
1482.00,51.562
1483.00,51.568
1484.00,51.587
1485.00,51.584
1486.00,51.585
1487.00,51.623
1488.00,51.647
1489.00,51.613
1490.00,51.644
1491.00,51.650
1492.00,51.681
1493.00,51.658
1494.00,51.688
1495.00,51.690
1496.00,51.722
1497.00,51.705
1498.00,51.722
1499.00,51.747
1500.00,51.746
1501.00, 
1502.00, 
1503.00, 
1504.00, 
1505.00, 
1506.00, 
1507.00, 
1508.00, 
1509.00, 
1510.00, 
1511.00, 
1512.00, 
1513.00, 
1514.00, 
1515.00, 
1516.00, 
1517.00, 
1518.00, 
1519.00, 
1520.00, 
1521.00, 
1522.00, 
1523.00, 
1524.00, 
1525.00, 
1526.00, 
1527.00, 
1528.00, 
1529.00, 
1530.00, 
1531.00, 
1532.00, 
1533.00, 
1534.00, 
1535.00, 
1536.00, 
1537.00, 
1538.00, 
1539.00, 
1540.00, 
1541.00, 
1542.00, 
1543.00, 
1544.00, 
1545.00, 
1546.00, 
1547.00, 
1548.00, 
1549.00, 
1550.00, 
1551.00, 
1552.00, 
1553.00, 
1554.00, 
1555.00, 
1556.00, 
1557.00, 
1558.00, 
1559.00, 
1560.00, 
1561.00, 
1562.00, 
1563.00, 
1564.00, 
1565.00, 
1566.00, 
1567.00, 
1568.00, 
1569.00, 
1570.00, 
1571.00, 
1572.00, 
1573.00, 
1574.00, 
1575.00, 
1576.00, 
1577.00, 
1578.00, 
1579.00, 
1580.00, 
1581.00, 
1582.00, 
1583.00, 
1584.00, 
1585.00, 
1586.00, 
1587.00, 
1588.00, 
1589.00, 
1590.00, 
1591.00, 
1592.00, 
1593.00, 
1594.00, 
1595.00, 
1596.00, 
1597.00, 
1598.00, 
1599.00, 
1600.00, 
1601.00, 
1602.00, 
1603.00, 
1604.00, 
1605.00, 
1606.00, 
1607.00, 
1608.00, 
1609.00, 
1610.00, 
1611.00, 
1612.00, 
1613.00, 
1614.00, 
1615.00, 
1616.00, 
1617.00, 
1618.00, 
1619.00, 
1620.00, 
1621.00, 
1622.00, 
1623.00, 
1624.00, 
1625.00, 
1626.00, 
1627.00, 
1628.00, 
1629.00, 
1630.00, 
1631.00, 
1632.00, 
1633.00, 
1634.00, 
1635.00, 
1636.00, 
1637.00, 
1638.00, 
1639.00, 
1640.00, 
1641.00, 
1642.00, 
1643.00, 
1644.00, 
1645.00, 
1646.00, 
1647.00, 
1648.00, 
1649.00, 
1650.00, 
1651.00, 
1652.00, 
1653.00, 
1654.00, 
1655.00, 
1656.00, 
1657.00, 
1658.00, 
1659.00, 
1660.00, 
1661.00, 
1662.00, 
1663.00, 
1664.00, 
1665.00, 
1666.00, 
1667.00, 
1668.00, 
1669.00, 
1670.00, 
1671.00, 
1672.00, 
1673.00, 
1674.00, 
1675.00, 
1676.00, 
1677.00, 
1678.00, 
1679.00, 
1680.00, 
1681.00, 
1682.00, 
1683.00, 
1684.00, 
1685.00, 
1686.00, 
1687.00, 
1688.00, 
1689.00, 
1690.00, 
1691.00, 
1692.00, 
1693.00, 
1694.00, 
1695.00, 
1696.00, 
1697.00, 
1698.00, 
1699.00, 
1700.00, 
1701.00, 
1702.00, 
1703.00, 
1704.00, 
1705.00, 
1706.00, 
1707.00, 
1708.00, 
1709.00, 
1710.00, 
1711.00, 
1712.00, 
1713.00, 
1714.00, 
1715.00, 
1716.00, 
1717.00, 
1718.00, 
1719.00, 
1720.00, 
1721.00, 
1722.00, 
1723.00, 
1724.00, 
1725.00, 
1726.00, 
1727.00, 
1728.00, 
1729.00, 
1730.00, 
1731.00, 
1732.00, 
1733.00, 
1734.00, 
1735.00, 
1736.00, 
1737.00, 
1738.00, 
1739.00, 
1740.00, 
1741.00, 
1742.00, 
1743.00, 
1744.00, 
1745.00, 
1746.00, 
1747.00, 
1748.00, 
1749.00, 
1750.00, 
1751.00, 
1752.00, 
1753.00, 
1754.00, 
1755.00, 
1756.00, 
1757.00, 
1758.00, 
1759.00, 
1760.00, 
1761.00, 
1762.00, 
1763.00, 
1764.00, 
1765.00, 
1766.00, 
1767.00, 
1768.00, 
1769.00, 
1770.00, 
1771.00, 
1772.00, 
1773.00, 
1774.00, 
1775.00, 
1776.00, 
1777.00, 
1778.00, 
1779.00, 
1780.00, 
1781.00, 
1782.00, 
1783.00, 
1784.00, 
1785.00, 
1786.00, 
1787.00, 
1788.00, 
1789.00, 
1790.00, 
1791.00, 
1792.00, 
1793.00, 
1794.00, 
1795.00, 
1796.00, 
1797.00, 
1798.00, 
1799.00, 
1800.00, 
1801.00, 
1802.00, 
1803.00, 
1804.00, 
1805.00, 
1806.00, 
1807.00, 
1808.00, 
1809.00, 
1810.00, 
1811.00, 
1812.00, 
1813.00, 
1814.00, 
1815.00, 
1816.00, 
1817.00, 
1818.00, 
1819.00, 
1820.00, 
1821.00, 
1822.00, 
1823.00, 
1824.00, 
1825.00, 
1826.00, 
1827.00, 
1828.00, 
1829.00, 
1830.00, 
1831.00, 
1832.00, 
1833.00, 
1834.00, 
1835.00, 
1836.00, 
1837.00, 
1838.00, 
1839.00, 
1840.00, 
1841.00, 
1842.00, 
1843.00, 
1844.00, 
1845.00, 
1846.00, 
1847.00, 
1848.00, 
1849.00, 
1850.00, 
1851.00, 
1852.00, 
1853.00, 
1854.00, 
1855.00, 
1856.00, 
1857.00, 
1858.00, 
1859.00, 
1860.00, 
1861.00, 
1862.00, 
1863.00, 
1864.00, 
1865.00, 
1866.00, 
1867.00, 
1868.00, 
1869.00, 
1870.00, 
1871.00, 
1872.00, 
1873.00, 
1874.00, 
1875.00, 
1876.00, 
1877.00, 
1878.00, 
1879.00, 
1880.00, 
1881.00, 
1882.00, 
1883.00, 
1884.00, 
1885.00, 
1886.00, 
1887.00, 
1888.00, 
1889.00, 
1890.00, 
1891.00, 
1892.00, 
1893.00, 
1894.00, 
1895.00, 
1896.00, 
1897.00, 
1898.00, 
1899.00, 
1900.00, 
1901.00, 
1902.00, 
1903.00, 
1904.00, 
1905.00, 
1906.00, 
1907.00, 
1908.00, 
1909.00, 
1910.00, 
1911.00, 
1912.00, 
1913.00, 
1914.00, 
1915.00, 
1916.00, 
1917.00, 
1918.00, 
1919.00, 
1920.00, 
1921.00, 
1922.00, 
1923.00, 
1924.00, 
1925.00, 
1926.00, 
1927.00, 
1928.00, 
1929.00, 
1930.00, 
1931.00, 
1932.00, 
1933.00, 
1934.00, 
1935.00, 
1936.00, 
1937.00, 
1938.00, 
1939.00, 
1940.00, 
1941.00, 
1942.00, 
1943.00, 
1944.00, 
1945.00, 
1946.00, 
1947.00, 
1948.00, 
1949.00, 
1950.00, 
1951.00, 
1952.00, 
1953.00, 
1954.00, 
1955.00, 
1956.00, 
1957.00, 
1958.00, 
1959.00, 
1960.00, 
1961.00, 
1962.00, 
1963.00, 
1964.00, 
1965.00, 
1966.00, 
1967.00, 
1968.00, 
1969.00, 
1970.00, 
1971.00, 
1972.00, 
1973.00, 
1974.00, 
1975.00, 
1976.00, 
1977.00, 
1978.00, 
1979.00, 
1980.00, 
1981.00, 
1982.00, 
1983.00, 
1984.00, 
1985.00, 
1986.00, 
1987.00, 
1988.00, 
1989.00, 
1990.00, 
1991.00, 
1992.00, 
1993.00, 
1994.00, 
1995.00, 
1996.00, 
1997.00, 
1998.00, 
1999.00, 
2000.00, 
2001.00, 
2002.00, 
2003.00, 
2004.00, 
2005.00, 
2006.00, 
2007.00, 
2008.00, 
2009.00, 
2010.00, 
2011.00, 
2012.00, 
2013.00, 
2014.00, 
2015.00, 
2016.00, 
2017.00, 
2018.00, 
2019.00, 
2020.00, 
2021.00, 
2022.00, 
2023.00, 
2024.00, 
2025.00, 
2026.00, 
2027.00, 
2028.00, 
2029.00, 
2030.00, 
2031.00, 
2032.00, 
2033.00, 
2034.00, 
2035.00, 
2036.00, 
2037.00, 
2038.00, 
2039.00, 
2040.00, 
2041.00, 
2042.00, 
2043.00, 
2044.00, 
2045.00, 
2046.00, 
2047.00, 
2048.00, 
2049.00, 
2050.00, 
2051.00, 
2052.00, 
2053.00, 
2054.00, 
2055.00, 
2056.00, 
2057.00, 
2058.00, 
2059.00, 
2060.00, 
2061.00, 
2062.00, 
2063.00, 
2064.00, 
2065.00, 
2066.00, 
2067.00, 
2068.00, 
2069.00, 
2070.00, 
2071.00, 
2072.00, 
2073.00, 
2074.00, 
2075.00, 
2076.00, 
2077.00, 
2078.00, 
2079.00, 
2080.00, 
2081.00, 
2082.00, 
2083.00, 
2084.00, 
2085.00, 
2086.00, 
2087.00, 
2088.00, 
2089.00, 
2090.00, 
2091.00, 
2092.00, 
2093.00, 
2094.00, 
2095.00, 
2096.00, 
2097.00, 
2098.00, 
2099.00, 
2100.00, 
2101.00, 
2102.00, 
2103.00, 
2104.00, 
2105.00, 
2106.00, 
2107.00, 
2108.00, 
2109.00, 
2110.00, 
2111.00, 
2112.00, 
2113.00, 
2114.00, 
2115.00, 
2116.00, 
2117.00, 
2118.00, 
2119.00, 
2120.00, 
2121.00, 
2122.00, 
2123.00, 
2124.00, 
2125.00, 
2126.00, 
2127.00, 
2128.00, 
2129.00, 
2130.00, 
2131.00, 
2132.00, 
2133.00, 
2134.00, 
2135.00, 
2136.00, 
2137.00, 
2138.00, 
2139.00, 
2140.00, 
2141.00, 
2142.00, 
2143.00, 
2144.00, 
2145.00, 
2146.00, 
2147.00, 
2148.00, 
2149.00, 
2150.00, 
2151.00, 
2152.00, 
2153.00, 
2154.00, 
2155.00, 
2156.00, 
2157.00, 
2158.00, 
2159.00, 
2160.00, 
2161.00, 
2162.00, 
2163.00, 
2164.00, 
2165.00, 
2166.00, 
2167.00, 
2168.00, 
2169.00, 
2170.00, 
2171.00, 
2172.00, 
2173.00, 
2174.00, 
2175.00, 
2176.00, 
2177.00, 
2178.00, 
2179.00, 
2180.00, 
2181.00, 
2182.00, 
2183.00, 
2184.00, 
2185.00, 
2186.00, 
2187.00, 
2188.00, 
2189.00, 
2190.00, 
2191.00, 
2192.00, 
2193.00, 
2194.00, 
2195.00, 
2196.00, 
2197.00, 
2198.00, 
2199.00, 
2200.00, 
2201.00, 
2202.00, 
2203.00, 
2204.00, 
2205.00, 
2206.00, 
2207.00, 
2208.00, 
2209.00, 
2210.00, 
2211.00, 
2212.00, 
2213.00, 
2214.00, 
2215.00, 
2216.00, 
2217.00, 
2218.00, 
2219.00, 
2220.00, 
2221.00, 
2222.00, 
2223.00, 
2224.00, 
2225.00, 
2226.00, 
2227.00, 
2228.00, 
2229.00, 
2230.00, 
2231.00, 
2232.00, 
2233.00, 
2234.00, 
2235.00, 
2236.00, 
2237.00, 
2238.00, 
2239.00, 
2240.00, 
2241.00, 
2242.00, 
2243.00, 
2244.00, 
2245.00, 
2246.00, 
2247.00, 
2248.00, 
2249.00, 
2250.00, 
2251.00, 
2252.00, 
2253.00, 
2254.00, 
2255.00, 
2256.00, 
2257.00, 
2258.00, 
2259.00, 
2260.00, 
2261.00, 
2262.00, 
2263.00, 
2264.00, 
2265.00, 
2266.00, 
2267.00, 
2268.00, 
2269.00, 
2270.00, 
2271.00, 
2272.00, 
2273.00, 
2274.00, 
2275.00, 
2276.00, 
2277.00, 
2278.00, 
2279.00, 
2280.00, 
2281.00, 
2282.00, 
2283.00, 
2284.00, 
2285.00, 
2286.00, 
2287.00, 
2288.00, 
2289.00, 
2290.00, 
2291.00, 
2292.00, 
2293.00, 
2294.00, 
2295.00, 
2296.00, 
2297.00, 
2298.00, 
2299.00, 
2300.00, 
2301.00, 
2302.00, 
2303.00, 
2304.00, 
2305.00, 
2306.00, 
2307.00, 
2308.00, 
2309.00, 
2310.00, 
2311.00, 
2312.00, 
2313.00, 
2314.00, 
2315.00, 
2316.00, 
2317.00, 
2318.00, 
2319.00, 
2320.00, 
2321.00, 
2322.00, 
2323.00, 
2324.00, 
2325.00, 
2326.00, 
2327.00, 
2328.00, 
2329.00, 
2330.00, 
2331.00, 
2332.00, 
2333.00, 
2334.00, 
2335.00, 
2336.00, 
2337.00, 
2338.00, 
2339.00, 
2340.00, 
2341.00, 
2342.00, 
2343.00, 
2344.00, 
2345.00, 
2346.00, 
2347.00, 
2348.00, 
2349.00, 
2350.00, 
2351.00, 
2352.00, 
2353.00, 
2354.00, 
2355.00, 
2356.00, 
2357.00, 
2358.00, 
2359.00, 
2360.00, 
2361.00, 
2362.00, 
2363.00, 
2364.00, 
2365.00, 
2366.00, 
2367.00, 
2368.00, 
2369.00, 
2370.00, 
2371.00, 
2372.00, 
2373.00, 
2374.00, 
2375.00, 
2376.00, 
2377.00, 
2378.00, 
2379.00, 
2380.00, 
2381.00, 
2382.00, 
2383.00, 
2384.00, 
2385.00, 
2386.00, 
2387.00, 
2388.00, 
2389.00, 
2390.00, 
2391.00, 
2392.00, 
2393.00, 
2394.00, 
2395.00, 
2396.00, 
2397.00, 
2398.00, 
2399.00, 
2400.00, 
2401.00, 
2402.00, 
2403.00, 
2404.00, 
2405.00, 
2406.00, 
2407.00, 
2408.00, 
2409.00, 
2410.00, 
2411.00, 
2412.00, 
2413.00, 
2414.00, 
2415.00, 
2416.00, 
2417.00, 
2418.00, 
2419.00, 
2420.00, 
2421.00, 
2422.00, 
2423.00, 
2424.00, 
2425.00, 
2426.00, 
2427.00, 
2428.00, 
2429.00, 
2430.00, 
2431.00, 
2432.00, 
2433.00, 
2434.00, 
2435.00, 
2436.00, 
2437.00, 
2438.00, 
2439.00, 
2440.00, 
2441.00, 
2442.00, 
2443.00, 
2444.00, 
2445.00, 
2446.00, 
2447.00, 
2448.00, 
2449.00, 
2450.00, 
2451.00, 
2452.00, 
2453.00, 
2454.00, 
2455.00, 
2456.00, 
2457.00, 
2458.00, 
2459.00, 
2460.00, 
2461.00, 
2462.00, 
2463.00, 
2464.00, 
2465.00, 
2466.00, 
2467.00, 
2468.00, 
2469.00, 
2470.00, 
2471.00, 
2472.00, 
2473.00, 
2474.00, 
2475.00, 
2476.00, 
2477.00, 
2478.00, 
2479.00, 
2480.00, 
2481.00, 
2482.00, 
2483.00, 
2484.00, 
2485.00, 
2486.00, 
2487.00, 
2488.00, 
2489.00, 
2490.00, 
2491.00, 
2492.00, 
2493.00, 
2494.00, 
2495.00, 
2496.00, 
2497.00, 
2498.00, 
2499.00, 
2500.00, 
2501.00, 
2502.00, 
2503.00, 
2504.00, 
2505.00, 
2506.00, 
2507.00, 
2508.00, 
2509.00, 
2510.00, 
2511.00, 
2512.00, 
2513.00, 
2514.00, 
2515.00, 
2516.00, 
2517.00, 
2518.00, 
2519.00, 
2520.00, 
2521.00, 
2522.00, 
2523.00, 
2524.00, 
2525.00, 
2526.00, 
2527.00, 
2528.00, 
2529.00, 
2530.00, 
2531.00, 
2532.00, 
2533.00, 
2534.00, 
2535.00, 
2536.00, 
2537.00, 
2538.00, 
2539.00, 
2540.00, 
2541.00, 
2542.00, 
2543.00, 
2544.00, 
2545.00, 
2546.00, 
2547.00, 
2548.00, 
2549.00, 
2550.00, 
2551.00, 
2552.00, 
2553.00, 
2554.00, 
2555.00, 
2556.00, 
2557.00, 
2558.00, 
2559.00, 
2560.00, 
2561.00, 
2562.00, 
2563.00, 
2564.00, 
2565.00, 
2566.00, 
2567.00, 
2568.00, 
2569.00, 
2570.00, 
2571.00, 
2572.00, 
2573.00, 
2574.00, 
2575.00, 
2576.00, 
2577.00, 
2578.00, 
2579.00, 
2580.00, 
2581.00, 
2582.00, 
2583.00, 
2584.00, 
2585.00, 
2586.00, 
2587.00, 
2588.00, 
2589.00, 
2590.00, 
2591.00, 
2592.00, 
2593.00, 
2594.00, 
2595.00, 
2596.00, 
2597.00, 
2598.00, 
2599.00, 
2600.00, 
