"2aP2 - RawData"
"Wavelength nm.","T%"
200.00,-0.000
201.00,0.001
202.00,0.000
203.00,0.004
204.00,0.001
205.00,0.001
206.00,0.000
207.00,0.002
208.00,0.002
209.00,0.001
210.00,0.001
211.00,0.003
212.00,0.003
213.00,0.002
214.00,0.000
215.00,-0.000
216.00,-0.001
217.00,0.002
218.00,0.002
219.00,0.002
220.00,0.003
221.00,-0.000
222.00,0.000
223.00,0.001
224.00,0.002
225.00,0.004
226.00,0.002
227.00,0.000
228.00,0.002
229.00,0.003
230.00,0.000
231.00,0.003
232.00,0.003
233.00,0.002
234.00,0.000
235.00,0.001
236.00,0.000
237.00,0.001
238.00,0.001
239.00,0.003
240.00,0.001
241.00,0.000
242.00,0.001
243.00,0.002
244.00,0.001
245.00,-0.000
246.00,0.000
247.00,0.000
248.00,0.001
249.00,0.001
250.00,0.000
251.00,0.002
252.00,0.001
253.00,0.002
254.00,0.001
255.00,0.000
256.00,0.002
257.00,0.001
258.00,0.001
259.00,-0.000
260.00,-0.000
261.00,0.002
262.00,0.001
263.00,-0.002
264.00,-0.001
265.00,0.001
266.00,0.001
267.00,0.000
268.00,-0.001
269.00,0.001
270.00,-0.000
271.00,0.001
272.00,0.000
273.00,0.001
274.00,-0.000
275.00,0.000
276.00,0.001
277.00,0.002
278.00,-0.000
279.00,0.000
280.00,0.000
281.00,-0.000
282.00,-0.000
283.00,-0.000
284.00,0.000
285.00,0.001
286.00,-0.001
287.00,-0.000
288.00,-0.000
289.00,-0.000
290.00,0.002
291.00,-0.001
292.00,0.000
293.00,0.001
294.00,-0.001
295.00,-0.000
296.00,0.000
297.00,0.000
298.00,0.000
299.00,0.002
300.00,0.001
301.00,0.003
302.00,0.006
303.00,0.008
304.00,0.010
305.00,0.017
306.00,0.025
307.00,0.035
308.00,0.056
309.00,0.088
310.00,0.127
311.00,0.167
312.00,0.226
313.00,0.308
314.00,0.401
315.00,0.519
316.00,0.668
317.00,0.842
318.00,1.046
319.00,1.280
320.00,1.544
321.00,1.849
322.00,2.171
323.00,2.563
324.00,2.962
325.00,3.378
326.00,3.805
327.00,4.284
328.00,4.795
329.00,5.298
330.00,5.827
331.00,6.383
332.00,6.903
333.00,7.504
334.00,7.969
335.00,8.608
336.00,9.149
337.00,9.705
338.00,10.258
339.00,10.761
340.00,11.279
341.00,11.780
342.00,12.242
343.00,12.671
344.00,13.142
345.00,13.575
346.00,13.986
347.00,14.328
348.00,14.659
349.00,15.016
350.00,15.317
351.00,15.639
352.00,15.844
353.00,16.117
354.00,16.374
355.00,16.570
356.00,16.758
357.00,16.931
358.00,17.117
359.00,17.353
360.00,17.514
361.00,17.604
362.00,17.764
363.00,17.864
364.00,17.938
365.00,18.002
366.00,18.063
367.00,18.134
368.00,18.158
369.00,18.185
370.00,18.244
371.00,18.273
372.00,18.220
373.00,18.221
374.00,18.245
375.00,18.227
376.00,18.171
377.00,18.113
378.00,18.057
379.00,17.980
380.00,17.981
381.00,17.944
382.00,17.938
383.00,17.958
384.00,17.976
385.00,17.974
386.00,17.940
387.00,17.994
388.00,18.037
389.00,18.016
390.00,18.037
391.00,18.052
392.00,18.077
393.00,18.033
394.00,18.080
395.00,18.082
396.00,18.062
397.00,18.094
398.00,18.052
399.00,18.048
400.00,18.025
401.00,18.049
402.00,18.043
403.00,18.025
404.00,18.033
405.00,18.022
406.00,18.003
407.00,17.975
408.00,17.983
409.00,17.932
410.00,17.883
411.00,17.905
412.00,17.888
413.00,17.914
414.00,17.842
415.00,17.874
416.00,17.929
417.00,17.916
418.00,17.960
419.00,18.006
420.00,18.075
421.00,18.081
422.00,18.100
423.00,18.168
424.00,18.206
425.00,18.227
426.00,18.233
427.00,18.319
428.00,18.342
429.00,18.367
430.00,18.432
431.00,18.490
432.00,18.545
433.00,18.608
434.00,18.657
435.00,18.745
436.00,18.787
437.00,18.848
438.00,18.920
439.00,18.996
440.00,19.073
441.00,19.181
442.00,19.248
443.00,19.329
444.00,19.432
445.00,19.525
446.00,19.617
447.00,19.722
448.00,19.789
449.00,19.923
450.00,20.041
451.00,20.099
452.00,20.240
453.00,20.347
454.00,20.436
455.00,20.569
456.00,20.688
457.00,20.789
458.00,20.896
459.00,21.041
460.00,21.191
461.00,21.294
462.00,21.423
463.00,21.556
464.00,21.689
465.00,21.831
466.00,21.938
467.00,22.083
468.00,22.211
469.00,22.327
470.00,22.445
471.00,22.555
472.00,22.644
473.00,22.721
474.00,22.917
475.00,22.992
476.00,23.169
477.00,23.283
478.00,23.417
479.00,23.586
480.00,23.737
481.00,23.864
482.00,24.042
483.00,24.171
484.00,24.347
485.00,24.507
486.00,24.705
487.00,24.796
488.00,24.904
489.00,25.126
490.00,25.249
491.00,25.418
492.00,25.630
493.00,25.811
494.00,25.793
495.00,25.975
496.00,26.108
497.00,26.238
498.00,26.404
499.00,26.549
500.00,26.709
501.00,26.809
502.00,26.968
503.00,27.113
504.00,27.181
505.00,27.312
506.00,27.454
507.00,27.534
508.00,27.685
509.00,27.879
510.00,27.985
511.00,28.095
512.00,28.293
513.00,28.403
514.00,28.522
515.00,28.692
516.00,28.760
517.00,28.903
518.00,29.056
519.00,29.148
520.00,29.228
521.00,29.311
522.00,29.423
523.00,29.450
524.00,29.593
525.00,29.680
526.00,29.799
527.00,29.846
528.00,29.952
529.00,30.144
530.00,30.265
531.00,30.398
532.00,30.503
533.00,30.566
534.00,30.680
535.00,30.783
536.00,30.871
537.00,30.949
538.00,31.018
539.00,31.094
540.00,31.176
541.00,31.220
542.00,31.309
543.00,31.378
544.00,31.480
545.00,31.534
546.00,31.560
547.00,31.706
548.00,31.782
549.00,31.845
550.00,31.945
551.00,32.049
552.00,32.125
553.00,32.173
554.00,32.223
555.00,32.274
556.00,32.390
557.00,32.500
558.00,32.488
559.00,32.541
560.00,32.654
561.00,32.697
562.00,32.742
563.00,32.812
564.00,32.833
565.00,32.864
566.00,32.902
567.00,32.928
568.00,32.977
569.00,33.077
570.00,33.060
571.00,33.179
572.00,33.204
573.00,33.099
574.00,33.180
575.00,33.332
576.00,33.262
577.00,33.370
578.00,33.476
579.00,33.509
580.00,33.552
581.00,33.691
582.00,33.791
583.00,33.835
584.00,33.935
585.00,33.997
586.00,34.017
587.00,34.087
588.00,34.126
589.00,34.093
590.00,34.217
591.00,34.270
592.00,34.211
593.00,34.306
594.00,34.373
595.00,34.490
596.00,34.516
597.00,34.589
598.00,34.663
599.00,34.674
600.00,34.766
601.00,34.744
602.00,34.724
603.00,34.791
604.00,34.909
605.00,34.860
606.00,34.839
607.00,35.032
608.00,35.279
609.00,35.268
610.00,35.195
611.00,35.265
612.00,35.352
613.00,35.387
614.00,35.429
615.00,35.511
616.00,35.624
617.00,35.639
618.00,35.643
619.00,35.777
620.00,35.756
621.00,35.809
622.00,35.924
623.00,35.972
624.00,36.110
625.00,36.172
626.00,36.155
627.00,36.148
628.00,36.389
629.00,36.506
630.00,36.467
631.00,36.562
632.00,36.627
633.00,36.742
634.00,36.846
635.00,36.938
636.00,36.996
637.00,37.062
638.00,37.159
639.00,37.274
640.00,37.305
641.00,37.436
642.00,37.507
643.00,37.536
644.00,37.680
645.00,37.785
646.00,37.898
647.00,38.005
648.00,38.057
649.00,38.102
650.00,38.150
651.00,38.362
652.00,38.507
653.00,38.503
654.00,38.561
655.00,38.773
656.00,39.058
657.00,38.879
658.00,39.065
659.00,39.153
660.00,39.175
661.00,39.185
662.00,39.445
663.00,39.608
664.00,39.825
665.00,40.010
666.00,39.949
667.00,40.097
668.00,40.204
669.00,40.470
670.00,40.608
671.00,40.507
672.00,40.682
673.00,40.758
674.00,40.854
675.00,40.939
676.00,41.227
677.00,41.374
678.00,41.221
679.00,41.463
680.00,41.622
681.00,41.801
682.00,41.725
683.00,41.761
684.00,41.996
685.00,42.185
686.00,42.075
687.00,42.249
688.00,42.364
689.00,42.327
690.00,42.728
691.00,42.957
692.00,42.712
693.00,42.878
694.00,43.223
695.00,43.302
696.00,43.382
697.00,43.385
698.00,43.461
699.00,43.752
700.00,43.814
701.00,43.861
702.00,43.977
703.00,44.230
704.00,44.286
705.00,44.237
706.00,44.312
707.00,44.310
708.00,44.609
709.00,45.137
710.00,44.835
711.00,44.861
712.00,44.970
713.00,45.199
714.00,45.235
715.00,45.226
716.00,45.287
717.00,45.521
718.00,45.635
719.00,45.643
720.00,45.658
721.00,50.130
722.00,50.157
723.00,50.232
724.00,50.223
725.00,50.378
726.00,50.374
727.00,50.442
728.00,50.520
729.00,50.570
730.00,50.637
731.00,50.667
732.00,50.680
733.00,50.729
734.00,50.838
735.00,50.883
736.00,50.929
737.00,51.043
738.00,51.097
739.00,51.185
740.00,51.195
741.00,51.193
742.00,51.304
743.00,51.294
744.00,51.356
745.00,51.345
746.00,51.372
747.00,51.417
748.00,51.365
749.00,51.405
750.00,51.457
751.00,51.562
752.00,51.525
753.00,51.615
754.00,51.578
755.00,51.615
756.00,51.683
757.00,51.663
758.00,51.746
759.00,51.730
760.00,51.807
761.00,51.806
762.00,51.796
763.00,51.899
764.00,51.991
765.00,51.931
766.00,51.954
767.00,51.994
768.00,51.986
769.00,52.039
770.00,52.090
771.00,52.092
772.00,52.094
773.00,52.174
774.00,52.184
775.00,52.234
776.00,52.162
777.00,52.217
778.00,52.271
779.00,52.288
780.00,52.268
781.00,52.317
782.00,52.294
783.00,52.283
784.00,52.444
785.00,52.211
786.00,52.311
787.00,52.349
788.00,52.418
789.00,52.415
790.00,52.368
791.00,52.382
792.00,52.324
793.00,52.346
794.00,52.332
795.00,52.319
796.00,52.409
797.00,52.365
798.00,52.349
799.00,52.250
800.00,52.343
801.00,52.466
802.00,52.413
803.00,52.338
804.00,52.316
805.00,52.402
806.00,52.314
807.00,52.373
808.00,52.415
809.00,52.348
810.00,52.305
811.00,52.335
812.00,52.312
813.00,52.292
814.00,52.320
815.00,52.334
816.00,52.301
817.00,52.369
818.00,52.187
819.00,52.258
820.00,52.249
821.00,52.311
822.00,52.214
823.00,52.115
824.00,52.223
825.00,52.180
826.00,52.224
827.00,52.244
828.00,52.248
829.00,52.213
830.00,52.347
831.00,54.352
832.00,54.358
833.00,54.325
834.00,54.337
835.00,54.320
836.00,54.326
837.00,54.300
838.00,54.278
839.00,54.292
840.00,54.202
841.00,54.256
842.00,54.175
843.00,54.227
844.00,54.195
845.00,54.130
846.00,54.189
847.00,54.131
848.00,54.136
849.00,54.082
850.00,54.078
851.00,54.091
852.00,54.076
853.00,53.991
854.00,53.993
855.00,53.917
856.00,53.960
857.00,53.876
858.00,53.867
859.00,53.837
860.00,53.879
861.00,53.873
862.00,53.797
863.00,53.851
864.00,53.773
865.00,53.858
866.00,53.808
867.00,53.834
868.00,53.790
869.00,53.816
870.00,53.776
871.00,53.732
872.00,53.869
873.00,53.745
874.00,53.786
875.00,53.709
876.00,53.769
877.00,53.716
878.00,53.740
879.00,53.702
880.00,53.729
881.00,53.709
882.00,53.754
883.00,53.676
884.00,53.633
885.00,53.626
886.00,53.612
887.00,53.590
888.00,53.563
889.00,53.534
890.00,53.537
891.00,53.517
892.00,53.509
893.00,53.463
894.00,53.516
895.00,53.454
896.00,53.436
897.00,53.402
898.00,53.452
899.00,53.282
900.00,53.412
901.00,53.363
902.00,53.386
903.00,53.341
904.00,53.340
905.00,53.326
906.00,53.322
907.00,53.286
908.00,53.258
909.00,53.258
910.00,53.205
911.00,53.211
912.00,53.211
913.00,53.134
914.00,53.142
915.00,53.100
916.00,53.062
917.00,53.045
918.00,53.059
919.00,53.028
920.00,53.007
921.00,53.010
922.00,52.990
923.00,52.993
924.00,52.940
925.00,52.941
926.00,52.887
927.00,52.941
928.00,52.884
929.00,52.893
930.00,52.843
931.00,52.840
932.00,52.827
933.00,52.842
934.00,52.797
935.00,52.794
936.00,52.745
937.00,52.749
938.00,52.750
939.00,52.741
940.00,52.683
941.00,52.690
942.00,52.716
943.00,52.669
944.00,52.600
945.00,52.620
946.00,52.629
947.00,52.606
948.00,52.567
949.00,52.550
950.00,52.529
951.00,52.517
952.00,52.499
953.00,52.448
954.00,52.447
955.00,52.397
956.00,52.406
957.00,52.344
958.00,52.360
959.00,52.306
960.00,52.304
961.00,52.294
962.00,52.296
963.00,52.255
964.00,52.265
965.00,52.262
966.00,52.234
967.00,52.224
968.00,52.185
969.00,52.218
970.00,52.189
971.00,52.215
972.00,52.154
973.00,52.209
974.00,52.230
975.00,52.174
976.00,52.204
977.00,52.187
978.00,52.230
979.00,52.174
980.00,52.205
981.00,52.196
982.00,52.167
983.00,52.177
984.00,52.204
985.00,52.192
986.00,52.145
987.00,52.179
988.00,52.131
989.00,52.132
990.00,52.130
991.00,52.103
992.00,52.122
993.00,52.088
994.00,52.070
995.00,52.070
996.00,52.061
997.00,52.057
998.00,52.027
999.00,52.035
1000.00,51.996
1001.00,51.990
1002.00,51.966
1003.00,51.987
1004.00,51.943
1005.00,51.916
1006.00,52.012
1007.00,51.919
1008.00,51.896
1009.00,51.873
1010.00,51.863
1011.00,51.864
1012.00,51.827
1013.00,51.842
1014.00,51.821
1015.00,51.826
1016.00,51.778
1017.00,51.799
1018.00,51.782
1019.00,51.742
1020.00,51.743
1021.00,51.746
1022.00,51.727
1023.00,51.667
1024.00,51.682
1025.00,51.662
1026.00,51.642
1027.00,51.615
1028.00,51.617
1029.00,51.602
1030.00,51.559
1031.00,51.585
1032.00,51.532
1033.00,51.529
1034.00,51.509
1035.00,51.462
1036.00,51.448
1037.00,51.423
1038.00,51.410
1039.00,51.383
1040.00,51.388
1041.00,51.352
1042.00,51.356
1043.00,51.318
1044.00,51.345
1045.00,51.336
1046.00,51.311
1047.00,51.350
1048.00,51.357
1049.00,51.361
1050.00,51.365
1051.00,51.415
1052.00,51.395
1053.00,51.393
1054.00,51.393
1055.00,51.429
1056.00,51.456
1057.00,51.422
1058.00,51.431
1059.00,51.421
1060.00,51.432
1061.00,51.413
1062.00,51.398
1063.00,51.392
1064.00,51.391
1065.00,51.371
1066.00,51.375
1067.00,51.350
1068.00,51.371
1069.00,51.343
1070.00,51.331
1071.00,51.311
1072.00,51.338
1073.00,51.310
1074.00,51.294
1075.00,51.289
1076.00,51.286
1077.00,51.266
1078.00,51.267
1079.00,51.262
1080.00,51.247
1081.00,51.234
1082.00,51.220
1083.00,51.227
1084.00,51.218
1085.00,51.210
1086.00,51.193
1087.00,51.192
1088.00,51.171
1089.00,51.161
1090.00,51.148
1091.00,51.149
1092.00,51.138
1093.00,51.130
1094.00,51.121
1095.00,51.114
1096.00,51.099
1097.00,51.106
1098.00,51.075
1099.00,51.070
1100.00,51.084
1101.00,51.042
1102.00,51.047
1103.00,51.056
1104.00,51.042
1105.00,51.036
1106.00,51.013
1107.00,51.010
1108.00,51.004
1109.00,50.981
1110.00,50.977
1111.00,50.972
1112.00,50.956
1113.00,50.987
1114.00,50.957
1115.00,50.940
1116.00,50.933
1117.00,50.928
1118.00,50.909
1119.00,50.911
1120.00,50.888
1121.00,50.905
1122.00,50.879
1123.00,50.869
1124.00,50.876
1125.00,50.865
1126.00,50.851
1127.00,50.857
1128.00,50.831
1129.00,50.824
1130.00,50.803
1131.00,50.808
1132.00,50.816
1133.00,50.803
1134.00,50.780
1135.00,50.778
1136.00,50.762
1137.00,50.769
1138.00,50.790
1139.00,50.790
1140.00,50.773
1141.00,50.773
1142.00,50.744
1143.00,50.759
1144.00,50.724
1145.00,50.730
1146.00,50.736
1147.00,50.724
1148.00,50.723
1149.00,50.746
1150.00,50.733
1151.00,50.735
1152.00,50.710
1153.00,50.697
1154.00,50.689
1155.00,50.712
1156.00,50.696
1157.00,50.736
1158.00,50.729
1159.00,50.701
1160.00,50.716
1161.00,50.711
1162.00,50.698
1163.00,50.701
1164.00,50.705
1165.00,50.697
1166.00,50.694
1167.00,50.669
1168.00,50.696
1169.00,50.680
1170.00,50.667
1171.00,50.645
1172.00,50.649
1173.00,50.642
1174.00,50.663
1175.00,50.646
1176.00,50.643
1177.00,50.632
1178.00,50.623
1179.00,50.648
1180.00,50.630
1181.00,50.651
1182.00,50.634
1183.00,50.641
1184.00,50.622
1185.00,50.634
1186.00,50.612
1187.00,50.622
1188.00,50.629
1189.00,50.610
1190.00,50.618
1191.00,50.606
1192.00,50.614
1193.00,50.618
1194.00,50.622
1195.00,50.603
1196.00,50.638
1197.00,50.614
1198.00,50.609
1199.00,50.613
1200.00,50.608
1201.00,50.632
1202.00,50.604
1203.00,50.594
1204.00,50.599
1205.00,50.617
1206.00,50.604
1207.00,50.609
1208.00,50.582
1209.00,50.586
1210.00,50.587
1211.00,50.572
1212.00,50.603
1213.00,50.558
1214.00,50.588
1215.00,50.582
1216.00,50.581
1217.00,50.584
1218.00,50.568
1219.00,50.576
1220.00,50.561
1221.00,50.583
1222.00,50.560
1223.00,50.595
1224.00,50.586
1225.00,50.575
1226.00,50.586
1227.00,50.576
1228.00,50.597
1229.00,50.587
1230.00,50.609
1231.00,50.608
1232.00,50.632
1233.00,50.620
1234.00,50.621
1235.00,50.630
1236.00,50.621
1237.00,50.644
1238.00,50.630
1239.00,50.635
1240.00,50.615
1241.00,50.626
1242.00,50.634
1243.00,50.644
1244.00,50.609
1245.00,50.657
1246.00,50.659
1247.00,50.635
1248.00,50.636
1249.00,50.653
1250.00,50.676
1251.00,50.644
1252.00,50.641
1253.00,50.638
1254.00,50.672
1255.00,50.642
1256.00,50.635
1257.00,50.649
1258.00,50.676
1259.00,50.675
1260.00,50.699
1261.00,50.691
1262.00,50.673
1263.00,50.657
1264.00,50.665
1265.00,50.669
1266.00,50.673
1267.00,50.703
1268.00,50.696
1269.00,50.680
1270.00,50.722
1271.00,50.721
1272.00,50.723
1273.00,50.736
1274.00,50.732
1275.00,50.741
1276.00,50.724
1277.00,50.718
1278.00,50.741
1279.00,50.728
1280.00,50.719
1281.00,50.749
1282.00,50.757
1283.00,50.747
1284.00,50.769
1285.00,50.746
1286.00,50.773
1287.00,50.762
1288.00,50.753
1289.00,50.760
1290.00,50.783
1291.00,50.775
1292.00,50.790
1293.00,50.807
1294.00,50.821
1295.00,50.828
1296.00,50.837
1297.00,50.839
1298.00,50.866
1299.00,50.832
1300.00,50.857
1301.00,50.830
1302.00,50.845
1303.00,50.855
1304.00,50.837
1305.00,50.866
1306.00,50.872
1307.00,50.873
1308.00,50.875
1309.00,50.890
1310.00,50.890
1311.00,50.884
1312.00,50.883
1313.00,50.888
1314.00,50.915
1315.00,50.919
1316.00,50.909
1317.00,50.946
1318.00,50.920
1319.00,50.938
1320.00,50.949
1321.00,51.088
1322.00,51.093
1323.00,51.087
1324.00,51.094
1325.00,51.073
1326.00,51.074
1327.00,51.073
1328.00,51.073
1329.00,51.058
1330.00,51.090
1331.00,51.071
1332.00,51.059
1333.00,51.089
1334.00,51.101
1335.00,51.116
1336.00,51.159
1337.00,51.175
1338.00,51.231
1339.00,51.283
1340.00,51.315
1341.00,51.404
1342.00,51.452
1343.00,51.488
1344.00,51.555
1345.00,51.601
1346.00,51.637
1347.00,51.682
1348.00,51.711
1349.00,51.704
1350.00,51.719
1351.00,51.737
1352.00,51.783
1353.00,51.576
1354.00,51.754
1355.00,51.730
1356.00,51.776
1357.00,51.772
1358.00,51.788
1359.00,51.772
1360.00,51.728
1361.00,51.794
1362.00,51.743
1363.00,51.844
1364.00,51.887
1365.00,51.760
1366.00,51.809
1367.00,51.735
1368.00,51.637
1369.00,51.804
1370.00,51.756
1371.00,51.730
1372.00,51.742
1373.00,51.770
1374.00,51.791
1375.00,51.765
1376.00,51.727
1377.00,51.718
1378.00,51.632
1379.00,51.768
1380.00,51.818
1381.00,51.856
1382.00,51.778
1383.00,51.770
1384.00,51.715
1385.00,51.748
1386.00,51.770
1387.00,51.752
1388.00,51.718
1389.00,51.752
1390.00,51.729
1391.00,51.752
1392.00,51.713
1393.00,51.653
1394.00,51.745
1395.00,51.760
1396.00,51.689
1397.00,51.739
1398.00,51.746
1399.00,51.754
1400.00,51.688
1401.00,51.720
1402.00,51.789
1403.00,51.752
1404.00,51.755
1405.00,51.790
1406.00,51.802
1407.00,51.823
1408.00,51.888
1409.00,51.783
1410.00,51.840
1411.00,51.797
1412.00,51.871
1413.00,51.810
1414.00,51.840
1415.00,51.854
1416.00,51.894
1417.00,51.892
1418.00,51.863
1419.00,51.892
1420.00,51.890
1421.00,51.935
1422.00,51.921
1423.00,51.941
1424.00,51.939
1425.00,51.955
1426.00,51.966
1427.00,51.999
1428.00,51.972
1429.00,52.004
1430.00,52.015
1431.00,52.030
1432.00,52.043
1433.00,52.069
1434.00,52.039
1435.00,52.124
1436.00,52.118
1437.00,52.114
1438.00,52.140
1439.00,52.150
1440.00,52.178
1441.00,52.174
1442.00,52.166
1443.00,52.210
1444.00,52.250
1445.00,52.222
1446.00,52.262
1447.00,52.281
1448.00,52.320
1449.00,52.302
1450.00,52.314
1451.00,52.336
1452.00,52.350
1453.00,52.345
1454.00,52.372
1455.00,52.398
1456.00,52.394
1457.00,52.413
1458.00,52.431
1459.00,52.424
1460.00,52.454
1461.00,52.444
1462.00,52.489
1463.00,52.497
1464.00,52.488
1465.00,52.518
1466.00,52.510
1467.00,52.530
1468.00,52.601
1469.00,52.549
1470.00,52.591
1471.00,52.612
1472.00,52.602
1473.00,52.638
1474.00,52.665
1475.00,52.676
1476.00,52.693
1477.00,52.688
1478.00,52.691
1479.00,52.719
1480.00,52.712
1481.00,52.716
1482.00,52.763
1483.00,52.748
1484.00,52.777
1485.00,52.775
1486.00,52.765
1487.00,52.810
1488.00,52.850
1489.00,52.810
1490.00,52.850
1491.00,52.844
1492.00,52.892
1493.00,52.874
1494.00,52.891
1495.00,52.908
1496.00,52.920
1497.00,52.904
1498.00,52.951
1499.00,52.939
1500.00,52.941
1501.00, 
1502.00, 
1503.00, 
1504.00, 
1505.00, 
1506.00, 
1507.00, 
1508.00, 
1509.00, 
1510.00, 
1511.00, 
1512.00, 
1513.00, 
1514.00, 
1515.00, 
1516.00, 
1517.00, 
1518.00, 
1519.00, 
1520.00, 
1521.00, 
1522.00, 
1523.00, 
1524.00, 
1525.00, 
1526.00, 
1527.00, 
1528.00, 
1529.00, 
1530.00, 
1531.00, 
1532.00, 
1533.00, 
1534.00, 
1535.00, 
1536.00, 
1537.00, 
1538.00, 
1539.00, 
1540.00, 
1541.00, 
1542.00, 
1543.00, 
1544.00, 
1545.00, 
1546.00, 
1547.00, 
1548.00, 
1549.00, 
1550.00, 
1551.00, 
1552.00, 
1553.00, 
1554.00, 
1555.00, 
1556.00, 
1557.00, 
1558.00, 
1559.00, 
1560.00, 
1561.00, 
1562.00, 
1563.00, 
1564.00, 
1565.00, 
1566.00, 
1567.00, 
1568.00, 
1569.00, 
1570.00, 
1571.00, 
1572.00, 
1573.00, 
1574.00, 
1575.00, 
1576.00, 
1577.00, 
1578.00, 
1579.00, 
1580.00, 
1581.00, 
1582.00, 
1583.00, 
1584.00, 
1585.00, 
1586.00, 
1587.00, 
1588.00, 
1589.00, 
1590.00, 
1591.00, 
1592.00, 
1593.00, 
1594.00, 
1595.00, 
1596.00, 
1597.00, 
1598.00, 
1599.00, 
1600.00, 
1601.00, 
1602.00, 
1603.00, 
1604.00, 
1605.00, 
1606.00, 
1607.00, 
1608.00, 
1609.00, 
1610.00, 
1611.00, 
1612.00, 
1613.00, 
1614.00, 
1615.00, 
1616.00, 
1617.00, 
1618.00, 
1619.00, 
1620.00, 
1621.00, 
1622.00, 
1623.00, 
1624.00, 
1625.00, 
1626.00, 
1627.00, 
1628.00, 
1629.00, 
1630.00, 
1631.00, 
1632.00, 
1633.00, 
1634.00, 
1635.00, 
1636.00, 
1637.00, 
1638.00, 
1639.00, 
1640.00, 
1641.00, 
1642.00, 
1643.00, 
1644.00, 
1645.00, 
1646.00, 
1647.00, 
1648.00, 
1649.00, 
1650.00, 
1651.00, 
1652.00, 
1653.00, 
1654.00, 
1655.00, 
1656.00, 
1657.00, 
1658.00, 
1659.00, 
1660.00, 
1661.00, 
1662.00, 
1663.00, 
1664.00, 
1665.00, 
1666.00, 
1667.00, 
1668.00, 
1669.00, 
1670.00, 
1671.00, 
1672.00, 
1673.00, 
1674.00, 
1675.00, 
1676.00, 
1677.00, 
1678.00, 
1679.00, 
1680.00, 
1681.00, 
1682.00, 
1683.00, 
1684.00, 
1685.00, 
1686.00, 
1687.00, 
1688.00, 
1689.00, 
1690.00, 
1691.00, 
1692.00, 
1693.00, 
1694.00, 
1695.00, 
1696.00, 
1697.00, 
1698.00, 
1699.00, 
1700.00, 
1701.00, 
1702.00, 
1703.00, 
1704.00, 
1705.00, 
1706.00, 
1707.00, 
1708.00, 
1709.00, 
1710.00, 
1711.00, 
1712.00, 
1713.00, 
1714.00, 
1715.00, 
1716.00, 
1717.00, 
1718.00, 
1719.00, 
1720.00, 
1721.00, 
1722.00, 
1723.00, 
1724.00, 
1725.00, 
1726.00, 
1727.00, 
1728.00, 
1729.00, 
1730.00, 
1731.00, 
1732.00, 
1733.00, 
1734.00, 
1735.00, 
1736.00, 
1737.00, 
1738.00, 
1739.00, 
1740.00, 
1741.00, 
1742.00, 
1743.00, 
1744.00, 
1745.00, 
1746.00, 
1747.00, 
1748.00, 
1749.00, 
1750.00, 
1751.00, 
1752.00, 
1753.00, 
1754.00, 
1755.00, 
1756.00, 
1757.00, 
1758.00, 
1759.00, 
1760.00, 
1761.00, 
1762.00, 
1763.00, 
1764.00, 
1765.00, 
1766.00, 
1767.00, 
1768.00, 
1769.00, 
1770.00, 
1771.00, 
1772.00, 
1773.00, 
1774.00, 
1775.00, 
1776.00, 
1777.00, 
1778.00, 
1779.00, 
1780.00, 
1781.00, 
1782.00, 
1783.00, 
1784.00, 
1785.00, 
1786.00, 
1787.00, 
1788.00, 
1789.00, 
1790.00, 
1791.00, 
1792.00, 
1793.00, 
1794.00, 
1795.00, 
1796.00, 
1797.00, 
1798.00, 
1799.00, 
1800.00, 
1801.00, 
1802.00, 
1803.00, 
1804.00, 
1805.00, 
1806.00, 
1807.00, 
1808.00, 
1809.00, 
1810.00, 
1811.00, 
1812.00, 
1813.00, 
1814.00, 
1815.00, 
1816.00, 
1817.00, 
1818.00, 
1819.00, 
1820.00, 
1821.00, 
1822.00, 
1823.00, 
1824.00, 
1825.00, 
1826.00, 
1827.00, 
1828.00, 
1829.00, 
1830.00, 
1831.00, 
1832.00, 
1833.00, 
1834.00, 
1835.00, 
1836.00, 
1837.00, 
1838.00, 
1839.00, 
1840.00, 
1841.00, 
1842.00, 
1843.00, 
1844.00, 
1845.00, 
1846.00, 
1847.00, 
1848.00, 
1849.00, 
1850.00, 
1851.00, 
1852.00, 
1853.00, 
1854.00, 
1855.00, 
1856.00, 
1857.00, 
1858.00, 
1859.00, 
1860.00, 
1861.00, 
1862.00, 
1863.00, 
1864.00, 
1865.00, 
1866.00, 
1867.00, 
1868.00, 
1869.00, 
1870.00, 
1871.00, 
1872.00, 
1873.00, 
1874.00, 
1875.00, 
1876.00, 
1877.00, 
1878.00, 
1879.00, 
1880.00, 
1881.00, 
1882.00, 
1883.00, 
1884.00, 
1885.00, 
1886.00, 
1887.00, 
1888.00, 
1889.00, 
1890.00, 
1891.00, 
1892.00, 
1893.00, 
1894.00, 
1895.00, 
1896.00, 
1897.00, 
1898.00, 
1899.00, 
1900.00, 
1901.00, 
1902.00, 
1903.00, 
1904.00, 
1905.00, 
1906.00, 
1907.00, 
1908.00, 
1909.00, 
1910.00, 
1911.00, 
1912.00, 
1913.00, 
1914.00, 
1915.00, 
1916.00, 
1917.00, 
1918.00, 
1919.00, 
1920.00, 
1921.00, 
1922.00, 
1923.00, 
1924.00, 
1925.00, 
1926.00, 
1927.00, 
1928.00, 
1929.00, 
1930.00, 
1931.00, 
1932.00, 
1933.00, 
1934.00, 
1935.00, 
1936.00, 
1937.00, 
1938.00, 
1939.00, 
1940.00, 
1941.00, 
1942.00, 
1943.00, 
1944.00, 
1945.00, 
1946.00, 
1947.00, 
1948.00, 
1949.00, 
1950.00, 
1951.00, 
1952.00, 
1953.00, 
1954.00, 
1955.00, 
1956.00, 
1957.00, 
1958.00, 
1959.00, 
1960.00, 
1961.00, 
1962.00, 
1963.00, 
1964.00, 
1965.00, 
1966.00, 
1967.00, 
1968.00, 
1969.00, 
1970.00, 
1971.00, 
1972.00, 
1973.00, 
1974.00, 
1975.00, 
1976.00, 
1977.00, 
1978.00, 
1979.00, 
1980.00, 
1981.00, 
1982.00, 
1983.00, 
1984.00, 
1985.00, 
1986.00, 
1987.00, 
1988.00, 
1989.00, 
1990.00, 
1991.00, 
1992.00, 
1993.00, 
1994.00, 
1995.00, 
1996.00, 
1997.00, 
1998.00, 
1999.00, 
2000.00, 
2001.00, 
2002.00, 
2003.00, 
2004.00, 
2005.00, 
2006.00, 
2007.00, 
2008.00, 
2009.00, 
2010.00, 
2011.00, 
2012.00, 
2013.00, 
2014.00, 
2015.00, 
2016.00, 
2017.00, 
2018.00, 
2019.00, 
2020.00, 
2021.00, 
2022.00, 
2023.00, 
2024.00, 
2025.00, 
2026.00, 
2027.00, 
2028.00, 
2029.00, 
2030.00, 
2031.00, 
2032.00, 
2033.00, 
2034.00, 
2035.00, 
2036.00, 
2037.00, 
2038.00, 
2039.00, 
2040.00, 
2041.00, 
2042.00, 
2043.00, 
2044.00, 
2045.00, 
2046.00, 
2047.00, 
2048.00, 
2049.00, 
2050.00, 
2051.00, 
2052.00, 
2053.00, 
2054.00, 
2055.00, 
2056.00, 
2057.00, 
2058.00, 
2059.00, 
2060.00, 
2061.00, 
2062.00, 
2063.00, 
2064.00, 
2065.00, 
2066.00, 
2067.00, 
2068.00, 
2069.00, 
2070.00, 
2071.00, 
2072.00, 
2073.00, 
2074.00, 
2075.00, 
2076.00, 
2077.00, 
2078.00, 
2079.00, 
2080.00, 
2081.00, 
2082.00, 
2083.00, 
2084.00, 
2085.00, 
2086.00, 
2087.00, 
2088.00, 
2089.00, 
2090.00, 
2091.00, 
2092.00, 
2093.00, 
2094.00, 
2095.00, 
2096.00, 
2097.00, 
2098.00, 
2099.00, 
2100.00, 
2101.00, 
2102.00, 
2103.00, 
2104.00, 
2105.00, 
2106.00, 
2107.00, 
2108.00, 
2109.00, 
2110.00, 
2111.00, 
2112.00, 
2113.00, 
2114.00, 
2115.00, 
2116.00, 
2117.00, 
2118.00, 
2119.00, 
2120.00, 
2121.00, 
2122.00, 
2123.00, 
2124.00, 
2125.00, 
2126.00, 
2127.00, 
2128.00, 
2129.00, 
2130.00, 
2131.00, 
2132.00, 
2133.00, 
2134.00, 
2135.00, 
2136.00, 
2137.00, 
2138.00, 
2139.00, 
2140.00, 
2141.00, 
2142.00, 
2143.00, 
2144.00, 
2145.00, 
2146.00, 
2147.00, 
2148.00, 
2149.00, 
2150.00, 
2151.00, 
2152.00, 
2153.00, 
2154.00, 
2155.00, 
2156.00, 
2157.00, 
2158.00, 
2159.00, 
2160.00, 
2161.00, 
2162.00, 
2163.00, 
2164.00, 
2165.00, 
2166.00, 
2167.00, 
2168.00, 
2169.00, 
2170.00, 
2171.00, 
2172.00, 
2173.00, 
2174.00, 
2175.00, 
2176.00, 
2177.00, 
2178.00, 
2179.00, 
2180.00, 
2181.00, 
2182.00, 
2183.00, 
2184.00, 
2185.00, 
2186.00, 
2187.00, 
2188.00, 
2189.00, 
2190.00, 
2191.00, 
2192.00, 
2193.00, 
2194.00, 
2195.00, 
2196.00, 
2197.00, 
2198.00, 
2199.00, 
2200.00, 
2201.00, 
2202.00, 
2203.00, 
2204.00, 
2205.00, 
2206.00, 
2207.00, 
2208.00, 
2209.00, 
2210.00, 
2211.00, 
2212.00, 
2213.00, 
2214.00, 
2215.00, 
2216.00, 
2217.00, 
2218.00, 
2219.00, 
2220.00, 
2221.00, 
2222.00, 
2223.00, 
2224.00, 
2225.00, 
2226.00, 
2227.00, 
2228.00, 
2229.00, 
2230.00, 
2231.00, 
2232.00, 
2233.00, 
2234.00, 
2235.00, 
2236.00, 
2237.00, 
2238.00, 
2239.00, 
2240.00, 
2241.00, 
2242.00, 
2243.00, 
2244.00, 
2245.00, 
2246.00, 
2247.00, 
2248.00, 
2249.00, 
2250.00, 
2251.00, 
2252.00, 
2253.00, 
2254.00, 
2255.00, 
2256.00, 
2257.00, 
2258.00, 
2259.00, 
2260.00, 
2261.00, 
2262.00, 
2263.00, 
2264.00, 
2265.00, 
2266.00, 
2267.00, 
2268.00, 
2269.00, 
2270.00, 
2271.00, 
2272.00, 
2273.00, 
2274.00, 
2275.00, 
2276.00, 
2277.00, 
2278.00, 
2279.00, 
2280.00, 
2281.00, 
2282.00, 
2283.00, 
2284.00, 
2285.00, 
2286.00, 
2287.00, 
2288.00, 
2289.00, 
2290.00, 
2291.00, 
2292.00, 
2293.00, 
2294.00, 
2295.00, 
2296.00, 
2297.00, 
2298.00, 
2299.00, 
2300.00, 
2301.00, 
2302.00, 
2303.00, 
2304.00, 
2305.00, 
2306.00, 
2307.00, 
2308.00, 
2309.00, 
2310.00, 
2311.00, 
2312.00, 
2313.00, 
2314.00, 
2315.00, 
2316.00, 
2317.00, 
2318.00, 
2319.00, 
2320.00, 
2321.00, 
2322.00, 
2323.00, 
2324.00, 
2325.00, 
2326.00, 
2327.00, 
2328.00, 
2329.00, 
2330.00, 
2331.00, 
2332.00, 
2333.00, 
2334.00, 
2335.00, 
2336.00, 
2337.00, 
2338.00, 
2339.00, 
2340.00, 
2341.00, 
2342.00, 
2343.00, 
2344.00, 
2345.00, 
2346.00, 
2347.00, 
2348.00, 
2349.00, 
2350.00, 
2351.00, 
2352.00, 
2353.00, 
2354.00, 
2355.00, 
2356.00, 
2357.00, 
2358.00, 
2359.00, 
2360.00, 
2361.00, 
2362.00, 
2363.00, 
2364.00, 
2365.00, 
2366.00, 
2367.00, 
2368.00, 
2369.00, 
2370.00, 
2371.00, 
2372.00, 
2373.00, 
2374.00, 
2375.00, 
2376.00, 
2377.00, 
2378.00, 
2379.00, 
2380.00, 
2381.00, 
2382.00, 
2383.00, 
2384.00, 
2385.00, 
2386.00, 
2387.00, 
2388.00, 
2389.00, 
2390.00, 
2391.00, 
2392.00, 
2393.00, 
2394.00, 
2395.00, 
2396.00, 
2397.00, 
2398.00, 
2399.00, 
2400.00, 
2401.00, 
2402.00, 
2403.00, 
2404.00, 
2405.00, 
2406.00, 
2407.00, 
2408.00, 
2409.00, 
2410.00, 
2411.00, 
2412.00, 
2413.00, 
2414.00, 
2415.00, 
2416.00, 
2417.00, 
2418.00, 
2419.00, 
2420.00, 
2421.00, 
2422.00, 
2423.00, 
2424.00, 
2425.00, 
2426.00, 
2427.00, 
2428.00, 
2429.00, 
2430.00, 
2431.00, 
2432.00, 
2433.00, 
2434.00, 
2435.00, 
2436.00, 
2437.00, 
2438.00, 
2439.00, 
2440.00, 
2441.00, 
2442.00, 
2443.00, 
2444.00, 
2445.00, 
2446.00, 
2447.00, 
2448.00, 
2449.00, 
2450.00, 
2451.00, 
2452.00, 
2453.00, 
2454.00, 
2455.00, 
2456.00, 
2457.00, 
2458.00, 
2459.00, 
2460.00, 
2461.00, 
2462.00, 
2463.00, 
2464.00, 
2465.00, 
2466.00, 
2467.00, 
2468.00, 
2469.00, 
2470.00, 
2471.00, 
2472.00, 
2473.00, 
2474.00, 
2475.00, 
2476.00, 
2477.00, 
2478.00, 
2479.00, 
2480.00, 
2481.00, 
2482.00, 
2483.00, 
2484.00, 
2485.00, 
2486.00, 
2487.00, 
2488.00, 
2489.00, 
2490.00, 
2491.00, 
2492.00, 
2493.00, 
2494.00, 
2495.00, 
2496.00, 
2497.00, 
2498.00, 
2499.00, 
2500.00, 
2501.00, 
2502.00, 
2503.00, 
2504.00, 
2505.00, 
2506.00, 
2507.00, 
2508.00, 
2509.00, 
2510.00, 
2511.00, 
2512.00, 
2513.00, 
2514.00, 
2515.00, 
2516.00, 
2517.00, 
2518.00, 
2519.00, 
2520.00, 
2521.00, 
2522.00, 
2523.00, 
2524.00, 
2525.00, 
2526.00, 
2527.00, 
2528.00, 
2529.00, 
2530.00, 
2531.00, 
2532.00, 
2533.00, 
2534.00, 
2535.00, 
2536.00, 
2537.00, 
2538.00, 
2539.00, 
2540.00, 
2541.00, 
2542.00, 
2543.00, 
2544.00, 
2545.00, 
2546.00, 
2547.00, 
2548.00, 
2549.00, 
2550.00, 
2551.00, 
2552.00, 
2553.00, 
2554.00, 
2555.00, 
2556.00, 
2557.00, 
2558.00, 
2559.00, 
2560.00, 
2561.00, 
2562.00, 
2563.00, 
2564.00, 
2565.00, 
2566.00, 
2567.00, 
2568.00, 
2569.00, 
2570.00, 
2571.00, 
2572.00, 
2573.00, 
2574.00, 
2575.00, 
2576.00, 
2577.00, 
2578.00, 
2579.00, 
2580.00, 
2581.00, 
2582.00, 
2583.00, 
2584.00, 
2585.00, 
2586.00, 
2587.00, 
2588.00, 
2589.00, 
2590.00, 
2591.00, 
2592.00, 
2593.00, 
2594.00, 
2595.00, 
2596.00, 
2597.00, 
2598.00, 
2599.00, 
2600.00, 
