"1aP2 - RawData"
"Wavelength nm.","T%"
200.00,0.002
201.00,0.001
202.00,0.002
203.00,0.001
204.00,0.001
205.00,0.003
206.00,0.003
207.00,0.003
208.00,0.005
209.00,0.001
210.00,0.003
211.00,0.002
212.00,0.003
213.00,0.003
214.00,0.002
215.00,0.001
216.00,-0.000
217.00,0.004
218.00,0.002
219.00,-0.001
220.00,-0.002
221.00,-0.002
222.00,0.002
223.00,-0.000
224.00,0.003
225.00,-0.001
226.00,0.001
227.00,0.000
228.00,-0.001
229.00,0.001
230.00,0.000
231.00,0.002
232.00,-0.001
233.00,0.002
234.00,0.001
235.00,0.001
236.00,-0.000
237.00,0.002
238.00,-0.001
239.00,0.001
240.00,-0.000
241.00,0.002
242.00,-0.000
243.00,-0.000
244.00,0.001
245.00,0.000
246.00,0.001
247.00,-0.000
248.00,0.002
249.00,0.001
250.00,0.002
251.00,0.001
252.00,0.001
253.00,-0.002
254.00,0.002
255.00,0.000
256.00,0.001
257.00,-0.000
258.00,0.000
259.00,-0.000
260.00,-0.000
261.00,0.001
262.00,0.002
263.00,0.001
264.00,0.000
265.00,0.001
266.00,0.002
267.00,0.000
268.00,0.001
269.00,-0.001
270.00,-0.000
271.00,-0.000
272.00,-0.002
273.00,0.000
274.00,0.000
275.00,0.001
276.00,0.000
277.00,0.001
278.00,0.001
279.00,0.001
280.00,0.001
281.00,-0.001
282.00,-0.001
283.00,0.001
284.00,-0.000
285.00,-0.001
286.00,0.002
287.00,0.000
288.00,-0.000
289.00,0.001
290.00,0.001
291.00,0.001
292.00,-0.000
293.00,-0.001
294.00,-0.001
295.00,0.001
296.00,0.000
297.00,0.001
298.00,0.002
299.00,0.003
300.00,0.004
301.00,0.008
302.00,0.010
303.00,0.013
304.00,0.022
305.00,0.034
306.00,0.051
307.00,0.082
308.00,0.131
309.00,0.197
310.00,0.270
311.00,0.371
312.00,0.480
313.00,0.675
314.00,0.887
315.00,1.140
316.00,1.439
317.00,1.796
318.00,2.251
319.00,2.716
320.00,3.296
321.00,3.869
322.00,4.639
323.00,5.415
324.00,6.207
325.00,7.063
326.00,7.867
327.00,8.776
328.00,9.807
329.00,10.825
330.00,11.761
331.00,12.756
332.00,13.787
333.00,14.911
334.00,15.872
335.00,16.891
336.00,17.903
337.00,18.991
338.00,19.962
339.00,20.812
340.00,21.709
341.00,22.711
342.00,23.570
343.00,24.286
344.00,24.998
345.00,25.755
346.00,26.519
347.00,27.174
348.00,27.724
349.00,28.314
350.00,28.726
351.00,29.365
352.00,29.762
353.00,30.345
354.00,30.789
355.00,31.099
356.00,31.465
357.00,31.802
358.00,32.112
359.00,32.392
360.00,32.779
361.00,32.913
362.00,33.141
363.00,33.402
364.00,33.601
365.00,33.737
366.00,33.822
367.00,33.972
368.00,34.116
369.00,34.217
370.00,34.282
371.00,34.406
372.00,34.309
373.00,34.327
374.00,34.363
375.00,34.380
376.00,34.274
377.00,34.230
378.00,34.322
379.00,34.206
380.00,34.122
381.00,34.202
382.00,34.115
383.00,34.089
384.00,34.297
385.00,34.351
386.00,34.421
387.00,34.505
388.00,34.622
389.00,34.644
390.00,34.684
391.00,34.842
392.00,34.827
393.00,34.875
394.00,34.939
395.00,34.939
396.00,35.034
397.00,35.060
398.00,35.001
399.00,35.121
400.00,35.160
401.00,35.177
402.00,35.307
403.00,35.198
404.00,35.230
405.00,35.261
406.00,35.339
407.00,35.210
408.00,35.188
409.00,35.152
410.00,35.101
411.00,35.065
412.00,35.003
413.00,35.070
414.00,35.109
415.00,35.084
416.00,35.203
417.00,35.232
418.00,35.227
419.00,35.322
420.00,35.362
421.00,35.282
422.00,35.317
423.00,35.348
424.00,35.354
425.00,35.424
426.00,35.416
427.00,35.503
428.00,35.495
429.00,35.523
430.00,35.593
431.00,35.716
432.00,35.679
433.00,35.673
434.00,35.811
435.00,35.845
436.00,35.916
437.00,36.010
438.00,36.069
439.00,36.075
440.00,36.193
441.00,36.348
442.00,36.419
443.00,36.470
444.00,36.526
445.00,36.636
446.00,36.750
447.00,36.816
448.00,36.867
449.00,36.928
450.00,37.095
451.00,37.115
452.00,37.162
453.00,37.291
454.00,37.435
455.00,37.585
456.00,37.585
457.00,37.707
458.00,37.768
459.00,37.936
460.00,38.102
461.00,38.155
462.00,38.304
463.00,38.418
464.00,38.512
465.00,38.604
466.00,38.766
467.00,38.823
468.00,38.922
469.00,39.020
470.00,39.077
471.00,39.108
472.00,39.165
473.00,39.278
474.00,39.350
475.00,39.400
476.00,39.439
477.00,39.566
478.00,39.698
479.00,39.813
480.00,39.905
481.00,39.993
482.00,40.220
483.00,40.318
484.00,40.473
485.00,40.592
486.00,40.684
487.00,40.848
488.00,40.988
489.00,41.271
490.00,41.374
491.00,41.182
492.00,41.302
493.00,41.430
494.00,41.614
495.00,41.639
496.00,41.750
497.00,41.875
498.00,41.958
499.00,41.978
500.00,42.066
501.00,41.977
502.00,42.202
503.00,42.322
504.00,42.462
505.00,42.643
506.00,42.555
507.00,42.685
508.00,42.777
509.00,42.978
510.00,42.863
511.00,42.980
512.00,43.140
513.00,43.326
514.00,43.347
515.00,43.438
516.00,43.436
517.00,43.584
518.00,43.688
519.00,43.684
520.00,43.719
521.00,43.767
522.00,43.908
523.00,43.875
524.00,44.092
525.00,44.045
526.00,44.145
527.00,44.333
528.00,44.421
529.00,44.484
530.00,44.596
531.00,44.669
532.00,44.768
533.00,44.713
534.00,44.713
535.00,44.857
536.00,44.855
537.00,44.906
538.00,44.952
539.00,44.894
540.00,44.980
541.00,45.118
542.00,45.006
543.00,45.116
544.00,45.124
545.00,45.185
546.00,45.270
547.00,45.323
548.00,45.437
549.00,45.411
550.00,45.540
551.00,45.592
552.00,45.496
553.00,45.598
554.00,45.683
555.00,45.711
556.00,45.710
557.00,45.708
558.00,45.797
559.00,45.818
560.00,45.869
561.00,45.930
562.00,45.968
563.00,45.988
564.00,46.033
565.00,45.976
566.00,46.047
567.00,45.997
568.00,46.081
569.00,46.055
570.00,46.089
571.00,46.095
572.00,46.025
573.00,46.185
574.00,46.078
575.00,46.074
576.00,46.089
577.00,46.111
578.00,46.259
579.00,46.243
580.00,46.316
581.00,46.378
582.00,46.459
583.00,46.466
584.00,46.537
585.00,46.482
586.00,46.562
587.00,46.785
588.00,46.690
589.00,46.725
590.00,46.773
591.00,46.645
592.00,46.820
593.00,46.794
594.00,46.849
595.00,46.937
596.00,46.936
597.00,46.913
598.00,47.007
599.00,47.168
600.00,46.956
601.00,46.790
602.00,46.797
603.00,47.052
604.00,47.011
605.00,47.075
606.00,47.066
607.00,47.278
608.00,47.283
609.00,47.292
610.00,47.339
611.00,47.278
612.00,47.279
613.00,47.249
614.00,47.357
615.00,47.351
616.00,47.254
617.00,47.487
618.00,47.510
619.00,47.370
620.00,47.375
621.00,47.432
622.00,47.436
623.00,47.601
624.00,47.586
625.00,47.568
626.00,47.780
627.00,47.603
628.00,47.678
629.00,47.721
630.00,47.660
631.00,47.718
632.00,47.693
633.00,47.884
634.00,47.825
635.00,47.991
636.00,48.083
637.00,48.149
638.00,48.088
639.00,48.183
640.00,48.165
641.00,48.197
642.00,48.354
643.00,48.322
644.00,48.382
645.00,48.484
646.00,48.550
647.00,48.606
648.00,48.557
649.00,48.709
650.00,48.708
651.00,48.671
652.00,48.722
653.00,48.757
654.00,48.828
655.00,48.930
656.00,49.015
657.00,49.114
658.00,49.179
659.00,49.285
660.00,48.689
661.00,49.220
662.00,49.218
663.00,49.156
664.00,49.456
665.00,49.268
666.00,49.289
667.00,49.377
668.00,49.898
669.00,49.557
670.00,49.527
671.00,49.762
672.00,49.864
673.00,49.582
674.00,49.771
675.00,49.767
676.00,49.808
677.00,49.896
678.00,49.979
679.00,50.213
680.00,49.852
681.00,49.993
682.00,50.060
683.00,50.114
684.00,50.049
685.00,50.127
686.00,50.122
687.00,50.021
688.00,50.103
689.00,50.236
690.00,50.461
691.00,50.521
692.00,50.320
693.00,50.298
694.00,50.345
695.00,50.466
696.00,50.542
697.00,50.505
698.00,50.528
699.00,50.655
700.00,50.636
701.00,50.752
702.00,50.871
703.00,50.910
704.00,50.826
705.00,51.113
706.00,50.753
707.00,50.801
708.00,50.735
709.00,50.873
710.00,50.843
711.00,50.725
712.00,51.122
713.00,50.986
714.00,51.130
715.00,51.229
716.00,50.853
717.00,51.142
718.00,51.020
719.00,51.249
720.00,51.162
721.00,56.101
722.00,55.972
723.00,56.116
724.00,56.072
725.00,55.837
726.00,55.903
727.00,55.980
728.00,55.941
729.00,55.849
730.00,55.961
731.00,56.043
732.00,55.926
733.00,55.846
734.00,55.796
735.00,55.739
736.00,55.858
737.00,55.807
738.00,55.800
739.00,55.763
740.00,55.818
741.00,55.754
742.00,55.854
743.00,55.775
744.00,55.817
745.00,55.696
746.00,55.771
747.00,55.732
748.00,55.727
749.00,55.686
750.00,55.631
751.00,55.621
752.00,55.631
753.00,55.456
754.00,55.413
755.00,55.526
756.00,55.512
757.00,55.451
758.00,55.413
759.00,55.606
760.00,55.445
761.00,55.472
762.00,55.423
763.00,55.315
764.00,55.370
765.00,55.308
766.00,55.331
767.00,55.264
768.00,55.294
769.00,55.259
770.00,55.317
771.00,55.209
772.00,55.325
773.00,55.242
774.00,55.143
775.00,55.408
776.00,55.244
777.00,55.244
778.00,55.134
779.00,55.347
780.00,55.210
781.00,55.143
782.00,55.346
783.00,55.055
784.00,55.043
785.00,55.043
786.00,54.954
787.00,55.088
788.00,54.947
789.00,55.069
790.00,54.953
791.00,55.037
792.00,54.977
793.00,54.982
794.00,54.939
795.00,54.759
796.00,54.819
797.00,54.756
798.00,54.767
799.00,54.617
800.00,54.685
801.00,54.804
802.00,54.613
803.00,54.767
804.00,54.695
805.00,54.610
806.00,54.593
807.00,54.489
808.00,54.580
809.00,54.451
810.00,54.524
811.00,54.372
812.00,54.497
813.00,54.526
814.00,54.301
815.00,54.476
816.00,54.372
817.00,54.325
818.00,54.303
819.00,54.378
820.00,54.225
821.00,54.106
822.00,54.335
823.00,54.029
824.00,54.167
825.00,54.043
826.00,54.278
827.00,54.063
828.00,54.079
829.00,54.056
830.00,53.946
831.00,56.445
832.00,56.461
833.00,56.600
834.00,56.548
835.00,56.537
836.00,56.461
837.00,56.524
838.00,56.437
839.00,56.450
840.00,56.257
841.00,56.338
842.00,56.296
843.00,56.326
844.00,56.218
845.00,56.162
846.00,56.076
847.00,56.090
848.00,56.183
849.00,56.149
850.00,56.074
851.00,56.102
852.00,55.999
853.00,55.944
854.00,55.951
855.00,56.023
856.00,55.806
857.00,55.878
858.00,55.870
859.00,55.797
860.00,55.818
861.00,55.827
862.00,55.805
863.00,55.776
864.00,55.692
865.00,55.672
866.00,55.700
867.00,55.663
868.00,55.676
869.00,55.676
870.00,55.691
871.00,55.665
872.00,55.663
873.00,55.558
874.00,55.670
875.00,55.553
876.00,55.565
877.00,55.591
878.00,55.552
879.00,55.521
880.00,55.494
881.00,55.483
882.00,55.482
883.00,55.512
884.00,55.401
885.00,55.391
886.00,55.440
887.00,55.362
888.00,55.326
889.00,55.384
890.00,55.329
891.00,55.281
892.00,55.293
893.00,55.245
894.00,55.294
895.00,55.212
896.00,55.211
897.00,55.186
898.00,55.125
899.00,55.129
900.00,55.155
901.00,55.157
902.00,55.104
903.00,55.098
904.00,55.053
905.00,55.123
906.00,55.031
907.00,55.050
908.00,55.007
909.00,55.056
910.00,54.960
911.00,55.002
912.00,54.927
913.00,54.888
914.00,54.925
915.00,54.861
916.00,54.816
917.00,54.825
918.00,54.809
919.00,54.797
920.00,54.759
921.00,54.783
922.00,54.780
923.00,54.747
924.00,54.705
925.00,54.689
926.00,54.691
927.00,54.706
928.00,54.622
929.00,54.627
930.00,54.639
931.00,54.610
932.00,54.565
933.00,54.584
934.00,54.775
935.00,54.501
936.00,54.518
937.00,54.509
938.00,54.492
939.00,54.453
940.00,54.453
941.00,54.444
942.00,54.448
943.00,54.363
944.00,54.384
945.00,54.362
946.00,54.347
947.00,54.317
948.00,54.276
949.00,54.286
950.00,54.257
951.00,54.252
952.00,54.202
953.00,54.220
954.00,54.167
955.00,54.106
956.00,54.126
957.00,54.098
958.00,54.081
959.00,54.065
960.00,54.020
961.00,54.027
962.00,54.026
963.00,54.015
964.00,53.984
965.00,54.026
966.00,53.975
967.00,53.974
968.00,53.941
969.00,53.964
970.00,53.942
971.00,53.938
972.00,53.934
973.00,53.908
974.00,53.971
975.00,53.958
976.00,53.947
977.00,53.956
978.00,53.961
979.00,53.954
980.00,53.941
981.00,53.969
982.00,53.935
983.00,53.968
984.00,53.951
985.00,53.954
986.00,53.927
987.00,53.938
988.00,53.943
989.00,53.898
990.00,53.909
991.00,53.891
992.00,53.887
993.00,53.845
994.00,53.833
995.00,53.887
996.00,53.813
997.00,53.811
998.00,53.797
999.00,53.787
1000.00,53.764
1001.00,53.746
1002.00,53.777
1003.00,53.725
1004.00,53.744
1005.00,53.708
1006.00,53.724
1007.00,53.723
1008.00,53.688
1009.00,53.705
1010.00,53.657
1011.00,53.693
1012.00,53.650
1013.00,53.622
1014.00,53.609
1015.00,53.599
1016.00,53.621
1017.00,53.552
1018.00,53.552
1019.00,53.560
1020.00,53.597
1021.00,53.542
1022.00,53.514
1023.00,53.514
1024.00,53.467
1025.00,53.468
1026.00,53.493
1027.00,53.442
1028.00,53.425
1029.00,53.436
1030.00,53.391
1031.00,53.387
1032.00,53.401
1033.00,53.366
1034.00,53.325
1035.00,53.298
1036.00,53.288
1037.00,53.246
1038.00,53.224
1039.00,53.200
1040.00,53.200
1041.00,53.180
1042.00,53.169
1043.00,53.163
1044.00,53.205
1045.00,53.155
1046.00,53.182
1047.00,53.203
1048.00,53.187
1049.00,53.209
1050.00,53.193
1051.00,53.221
1052.00,53.245
1053.00,53.261
1054.00,53.274
1055.00,53.265
1056.00,53.303
1057.00,53.298
1058.00,53.288
1059.00,53.283
1060.00,53.289
1061.00,53.284
1062.00,53.271
1063.00,53.260
1064.00,53.261
1065.00,53.254
1066.00,53.231
1067.00,53.211
1068.00,53.233
1069.00,53.223
1070.00,53.194
1071.00,53.208
1072.00,53.195
1073.00,53.200
1074.00,53.177
1075.00,53.174
1076.00,53.167
1077.00,53.162
1078.00,53.152
1079.00,53.140
1080.00,53.139
1081.00,53.118
1082.00,53.117
1083.00,53.101
1084.00,53.095
1085.00,53.108
1086.00,53.103
1087.00,53.103
1088.00,53.086
1089.00,53.066
1090.00,53.071
1091.00,53.092
1092.00,53.062
1093.00,53.040
1094.00,53.024
1095.00,53.023
1096.00,52.998
1097.00,52.968
1098.00,52.984
1099.00,52.997
1100.00,52.975
1101.00,52.999
1102.00,53.020
1103.00,52.982
1104.00,52.950
1105.00,52.953
1106.00,52.970
1107.00,52.933
1108.00,52.932
1109.00,52.919
1110.00,52.918
1111.00,52.896
1112.00,52.890
1113.00,52.882
1114.00,52.875
1115.00,52.905
1116.00,52.882
1117.00,52.878
1118.00,52.849
1119.00,52.904
1120.00,52.844
1121.00,52.900
1122.00,52.863
1123.00,52.780
1124.00,52.851
1125.00,52.809
1126.00,52.838
1127.00,52.816
1128.00,52.806
1129.00,52.788
1130.00,52.784
1131.00,52.774
1132.00,52.771
1133.00,52.750
1134.00,52.738
1135.00,52.775
1136.00,52.746
1137.00,52.782
1138.00,52.754
1139.00,52.760
1140.00,52.745
1141.00,52.723
1142.00,52.722
1143.00,52.785
1144.00,52.726
1145.00,52.723
1146.00,52.740
1147.00,52.712
1148.00,52.734
1149.00,52.719
1150.00,52.756
1151.00,52.702
1152.00,52.706
1153.00,52.749
1154.00,52.720
1155.00,52.712
1156.00,52.705
1157.00,52.701
1158.00,52.688
1159.00,52.689
1160.00,52.695
1161.00,52.704
1162.00,52.736
1163.00,52.726
1164.00,52.706
1165.00,52.714
1166.00,52.689
1167.00,52.677
1168.00,52.699
1169.00,52.681
1170.00,52.697
1171.00,52.683
1172.00,52.670
1173.00,52.684
1174.00,52.656
1175.00,52.663
1176.00,52.677
1177.00,52.676
1178.00,52.673
1179.00,52.658
1180.00,52.650
1181.00,52.667
1182.00,52.642
1183.00,52.666
1184.00,52.646
1185.00,52.657
1186.00,52.642
1187.00,52.665
1188.00,52.672
1189.00,52.666
1190.00,52.670
1191.00,52.634
1192.00,52.696
1193.00,52.663
1194.00,52.676
1195.00,52.677
1196.00,52.658
1197.00,52.706
1198.00,52.694
1199.00,52.702
1200.00,52.693
1201.00,52.702
1202.00,52.670
1203.00,52.695
1204.00,52.692
1205.00,52.688
1206.00,52.681
1207.00,52.689
1208.00,52.669
1209.00,52.655
1210.00,52.679
1211.00,52.649
1212.00,52.663
1213.00,52.653
1214.00,52.663
1215.00,52.645
1216.00,52.628
1217.00,52.652
1218.00,52.666
1219.00,52.678
1220.00,52.683
1221.00,52.694
1222.00,52.691
1223.00,52.678
1224.00,52.701
1225.00,52.681
1226.00,52.697
1227.00,52.708
1228.00,52.696
1229.00,52.706
1230.00,52.751
1231.00,52.760
1232.00,52.738
1233.00,52.738
1234.00,52.756
1235.00,52.752
1236.00,52.764
1237.00,52.764
1238.00,52.759
1239.00,52.753
1240.00,52.727
1241.00,52.761
1242.00,52.770
1243.00,52.741
1244.00,52.746
1245.00,52.755
1246.00,52.765
1247.00,52.763
1248.00,52.763
1249.00,52.786
1250.00,52.786
1251.00,52.792
1252.00,52.799
1253.00,52.829
1254.00,52.818
1255.00,52.787
1256.00,52.773
1257.00,52.776
1258.00,52.803
1259.00,52.792
1260.00,52.830
1261.00,52.836
1262.00,52.828
1263.00,52.830
1264.00,52.837
1265.00,52.848
1266.00,52.832
1267.00,52.846
1268.00,52.838
1269.00,52.847
1270.00,52.846
1271.00,52.861
1272.00,52.872
1273.00,52.861
1274.00,52.874
1275.00,52.900
1276.00,52.899
1277.00,52.908
1278.00,52.930
1279.00,52.916
1280.00,52.918
1281.00,52.923
1282.00,52.954
1283.00,52.912
1284.00,52.955
1285.00,52.963
1286.00,52.937
1287.00,52.938
1288.00,52.934
1289.00,52.941
1290.00,52.964
1291.00,52.960
1292.00,52.965
1293.00,52.969
1294.00,52.969
1295.00,52.988
1296.00,52.990
1297.00,52.999
1298.00,52.985
1299.00,52.996
1300.00,53.032
1301.00,53.007
1302.00,53.056
1303.00,53.026
1304.00,53.050
1305.00,53.059
1306.00,53.086
1307.00,53.059
1308.00,53.034
1309.00,53.067
1310.00,53.070
1311.00,53.075
1312.00,53.073
1313.00,53.080
1314.00,53.096
1315.00,53.143
1316.00,53.133
1317.00,53.128
1318.00,53.133
1319.00,53.152
1320.00,53.147
1321.00,53.287
1322.00,53.296
1323.00,53.253
1324.00,53.266
1325.00,53.251
1326.00,53.261
1327.00,53.263
1328.00,53.260
1329.00,53.250
1330.00,53.245
1331.00,53.275
1332.00,53.284
1333.00,53.283
1334.00,53.289
1335.00,53.317
1336.00,53.359
1337.00,53.349
1338.00,53.440
1339.00,53.474
1340.00,53.529
1341.00,53.612
1342.00,53.653
1343.00,53.719
1344.00,53.743
1345.00,53.813
1346.00,53.850
1347.00,53.892
1348.00,53.797
1349.00,53.957
1350.00,53.892
1351.00,53.930
1352.00,53.890
1353.00,53.982
1354.00,53.927
1355.00,53.782
1356.00,54.102
1357.00,53.947
1358.00,54.166
1359.00,53.909
1360.00,53.978
1361.00,54.372
1362.00,53.880
1363.00,54.192
1364.00,54.024
1365.00,53.932
1366.00,54.158
1367.00,54.184
1368.00,53.822
1369.00,54.085
1370.00,53.858
1371.00,53.986
1372.00,53.979
1373.00,54.162
1374.00,54.005
1375.00,54.131
1376.00,53.679
1377.00,54.356
1378.00,53.889
1379.00,54.544
1380.00,53.991
1381.00,54.487
1382.00,53.867
1383.00,54.150
1384.00,53.863
1385.00,53.572
1386.00,53.656
1387.00,53.890
1388.00,53.977
1389.00,53.906
1390.00,51.920
1391.00,53.872
1392.00,53.903
1393.00,53.971
1394.00,53.990
1395.00,53.750
1396.00,53.990
1397.00,53.940
1398.00,53.929
1399.00,53.915
1400.00,53.913
1401.00,53.936
1402.00,54.046
1403.00,54.115
1404.00,53.950
1405.00,53.945
1406.00,54.053
1407.00,53.903
1408.00,53.966
1409.00,53.979
1410.00,54.134
1411.00,53.933
1412.00,54.260
1413.00,54.179
1414.00,54.010
1415.00,53.998
1416.00,54.052
1417.00,54.235
1418.00,53.978
1419.00,54.171
1420.00,54.111
1421.00,54.161
1422.00,54.126
1423.00,54.180
1424.00,54.165
1425.00,54.192
1426.00,54.195
1427.00,54.172
1428.00,54.220
1429.00,54.240
1430.00,54.250
1431.00,54.216
1432.00,54.301
1433.00,54.268
1434.00,54.289
1435.00,54.298
1436.00,54.314
1437.00,54.287
1438.00,54.368
1439.00,54.364
1440.00,54.417
1441.00,54.390
1442.00,54.372
1443.00,54.369
1444.00,54.816
1445.00,54.417
1446.00,54.449
1447.00,54.479
1448.00,54.471
1449.00,54.507
1450.00,54.500
1451.00,54.565
1452.00,54.545
1453.00,54.553
1454.00,54.572
1455.00,54.578
1456.00,54.581
1457.00,54.598
1458.00,54.574
1459.00,54.631
1460.00,54.625
1461.00,54.661
1462.00,54.650
1463.00,54.683
1464.00,54.661
1465.00,54.722
1466.00,54.717
1467.00,54.685
1468.00,54.744
1469.00,54.813
1470.00,54.794
1471.00,54.766
1472.00,54.815
1473.00,54.821
1474.00,54.835
1475.00,54.840
1476.00,54.868
1477.00,54.822
1478.00,54.852
1479.00,54.882
1480.00,54.903
1481.00,54.913
1482.00,54.926
1483.00,54.947
1484.00,54.962
1485.00,54.982
1486.00,55.020
1487.00,55.054
1488.00,55.031
1489.00,55.028
1490.00,55.055
1491.00,55.051
1492.00,55.053
1493.00,55.024
1494.00,55.063
1495.00,55.078
1496.00,55.098
1497.00,55.099
1498.00,55.110
1499.00,55.128
1500.00,55.113
1501.00, 
1502.00, 
1503.00, 
1504.00, 
1505.00, 
1506.00, 
1507.00, 
1508.00, 
1509.00, 
1510.00, 
1511.00, 
1512.00, 
1513.00, 
1514.00, 
1515.00, 
1516.00, 
1517.00, 
1518.00, 
1519.00, 
1520.00, 
1521.00, 
1522.00, 
1523.00, 
1524.00, 
1525.00, 
1526.00, 
1527.00, 
1528.00, 
1529.00, 
1530.00, 
1531.00, 
1532.00, 
1533.00, 
1534.00, 
1535.00, 
1536.00, 
1537.00, 
1538.00, 
1539.00, 
1540.00, 
1541.00, 
1542.00, 
1543.00, 
1544.00, 
1545.00, 
1546.00, 
1547.00, 
1548.00, 
1549.00, 
1550.00, 
1551.00, 
1552.00, 
1553.00, 
1554.00, 
1555.00, 
1556.00, 
1557.00, 
1558.00, 
1559.00, 
1560.00, 
1561.00, 
1562.00, 
1563.00, 
1564.00, 
1565.00, 
1566.00, 
1567.00, 
1568.00, 
1569.00, 
1570.00, 
1571.00, 
1572.00, 
1573.00, 
1574.00, 
1575.00, 
1576.00, 
1577.00, 
1578.00, 
1579.00, 
1580.00, 
1581.00, 
1582.00, 
1583.00, 
1584.00, 
1585.00, 
1586.00, 
1587.00, 
1588.00, 
1589.00, 
1590.00, 
1591.00, 
1592.00, 
1593.00, 
1594.00, 
1595.00, 
1596.00, 
1597.00, 
1598.00, 
1599.00, 
1600.00, 
1601.00, 
1602.00, 
1603.00, 
1604.00, 
1605.00, 
1606.00, 
1607.00, 
1608.00, 
1609.00, 
1610.00, 
1611.00, 
1612.00, 
1613.00, 
1614.00, 
1615.00, 
1616.00, 
1617.00, 
1618.00, 
1619.00, 
1620.00, 
1621.00, 
1622.00, 
1623.00, 
1624.00, 
1625.00, 
1626.00, 
1627.00, 
1628.00, 
1629.00, 
1630.00, 
1631.00, 
1632.00, 
1633.00, 
1634.00, 
1635.00, 
1636.00, 
1637.00, 
1638.00, 
1639.00, 
1640.00, 
1641.00, 
1642.00, 
1643.00, 
1644.00, 
1645.00, 
1646.00, 
1647.00, 
1648.00, 
1649.00, 
1650.00, 
1651.00, 
1652.00, 
1653.00, 
1654.00, 
1655.00, 
1656.00, 
1657.00, 
1658.00, 
1659.00, 
1660.00, 
1661.00, 
1662.00, 
1663.00, 
1664.00, 
1665.00, 
1666.00, 
1667.00, 
1668.00, 
1669.00, 
1670.00, 
1671.00, 
1672.00, 
1673.00, 
1674.00, 
1675.00, 
1676.00, 
1677.00, 
1678.00, 
1679.00, 
1680.00, 
1681.00, 
1682.00, 
1683.00, 
1684.00, 
1685.00, 
1686.00, 
1687.00, 
1688.00, 
1689.00, 
1690.00, 
1691.00, 
1692.00, 
1693.00, 
1694.00, 
1695.00, 
1696.00, 
1697.00, 
1698.00, 
1699.00, 
1700.00, 
1701.00, 
1702.00, 
1703.00, 
1704.00, 
1705.00, 
1706.00, 
1707.00, 
1708.00, 
1709.00, 
1710.00, 
1711.00, 
1712.00, 
1713.00, 
1714.00, 
1715.00, 
1716.00, 
1717.00, 
1718.00, 
1719.00, 
1720.00, 
1721.00, 
1722.00, 
1723.00, 
1724.00, 
1725.00, 
1726.00, 
1727.00, 
1728.00, 
1729.00, 
1730.00, 
1731.00, 
1732.00, 
1733.00, 
1734.00, 
1735.00, 
1736.00, 
1737.00, 
1738.00, 
1739.00, 
1740.00, 
1741.00, 
1742.00, 
1743.00, 
1744.00, 
1745.00, 
1746.00, 
1747.00, 
1748.00, 
1749.00, 
1750.00, 
1751.00, 
1752.00, 
1753.00, 
1754.00, 
1755.00, 
1756.00, 
1757.00, 
1758.00, 
1759.00, 
1760.00, 
1761.00, 
1762.00, 
1763.00, 
1764.00, 
1765.00, 
1766.00, 
1767.00, 
1768.00, 
1769.00, 
1770.00, 
1771.00, 
1772.00, 
1773.00, 
1774.00, 
1775.00, 
1776.00, 
1777.00, 
1778.00, 
1779.00, 
1780.00, 
1781.00, 
1782.00, 
1783.00, 
1784.00, 
1785.00, 
1786.00, 
1787.00, 
1788.00, 
1789.00, 
1790.00, 
1791.00, 
1792.00, 
1793.00, 
1794.00, 
1795.00, 
1796.00, 
1797.00, 
1798.00, 
1799.00, 
1800.00, 
1801.00, 
1802.00, 
1803.00, 
1804.00, 
1805.00, 
1806.00, 
1807.00, 
1808.00, 
1809.00, 
1810.00, 
1811.00, 
1812.00, 
1813.00, 
1814.00, 
1815.00, 
1816.00, 
1817.00, 
1818.00, 
1819.00, 
1820.00, 
1821.00, 
1822.00, 
1823.00, 
1824.00, 
1825.00, 
1826.00, 
1827.00, 
1828.00, 
1829.00, 
1830.00, 
1831.00, 
1832.00, 
1833.00, 
1834.00, 
1835.00, 
1836.00, 
1837.00, 
1838.00, 
1839.00, 
1840.00, 
1841.00, 
1842.00, 
1843.00, 
1844.00, 
1845.00, 
1846.00, 
1847.00, 
1848.00, 
1849.00, 
1850.00, 
1851.00, 
1852.00, 
1853.00, 
1854.00, 
1855.00, 
1856.00, 
1857.00, 
1858.00, 
1859.00, 
1860.00, 
1861.00, 
1862.00, 
1863.00, 
1864.00, 
1865.00, 
1866.00, 
1867.00, 
1868.00, 
1869.00, 
1870.00, 
1871.00, 
1872.00, 
1873.00, 
1874.00, 
1875.00, 
1876.00, 
1877.00, 
1878.00, 
1879.00, 
1880.00, 
1881.00, 
1882.00, 
1883.00, 
1884.00, 
1885.00, 
1886.00, 
1887.00, 
1888.00, 
1889.00, 
1890.00, 
1891.00, 
1892.00, 
1893.00, 
1894.00, 
1895.00, 
1896.00, 
1897.00, 
1898.00, 
1899.00, 
1900.00, 
1901.00, 
1902.00, 
1903.00, 
1904.00, 
1905.00, 
1906.00, 
1907.00, 
1908.00, 
1909.00, 
1910.00, 
1911.00, 
1912.00, 
1913.00, 
1914.00, 
1915.00, 
1916.00, 
1917.00, 
1918.00, 
1919.00, 
1920.00, 
1921.00, 
1922.00, 
1923.00, 
1924.00, 
1925.00, 
1926.00, 
1927.00, 
1928.00, 
1929.00, 
1930.00, 
1931.00, 
1932.00, 
1933.00, 
1934.00, 
1935.00, 
1936.00, 
1937.00, 
1938.00, 
1939.00, 
1940.00, 
1941.00, 
1942.00, 
1943.00, 
1944.00, 
1945.00, 
1946.00, 
1947.00, 
1948.00, 
1949.00, 
1950.00, 
1951.00, 
1952.00, 
1953.00, 
1954.00, 
1955.00, 
1956.00, 
1957.00, 
1958.00, 
1959.00, 
1960.00, 
1961.00, 
1962.00, 
1963.00, 
1964.00, 
1965.00, 
1966.00, 
1967.00, 
1968.00, 
1969.00, 
1970.00, 
1971.00, 
1972.00, 
1973.00, 
1974.00, 
1975.00, 
1976.00, 
1977.00, 
1978.00, 
1979.00, 
1980.00, 
1981.00, 
1982.00, 
1983.00, 
1984.00, 
1985.00, 
1986.00, 
1987.00, 
1988.00, 
1989.00, 
1990.00, 
1991.00, 
1992.00, 
1993.00, 
1994.00, 
1995.00, 
1996.00, 
1997.00, 
1998.00, 
1999.00, 
2000.00, 
2001.00, 
2002.00, 
2003.00, 
2004.00, 
2005.00, 
2006.00, 
2007.00, 
2008.00, 
2009.00, 
2010.00, 
2011.00, 
2012.00, 
2013.00, 
2014.00, 
2015.00, 
2016.00, 
2017.00, 
2018.00, 
2019.00, 
2020.00, 
2021.00, 
2022.00, 
2023.00, 
2024.00, 
2025.00, 
2026.00, 
2027.00, 
2028.00, 
2029.00, 
2030.00, 
2031.00, 
2032.00, 
2033.00, 
2034.00, 
2035.00, 
2036.00, 
2037.00, 
2038.00, 
2039.00, 
2040.00, 
2041.00, 
2042.00, 
2043.00, 
2044.00, 
2045.00, 
2046.00, 
2047.00, 
2048.00, 
2049.00, 
2050.00, 
2051.00, 
2052.00, 
2053.00, 
2054.00, 
2055.00, 
2056.00, 
2057.00, 
2058.00, 
2059.00, 
2060.00, 
2061.00, 
2062.00, 
2063.00, 
2064.00, 
2065.00, 
2066.00, 
2067.00, 
2068.00, 
2069.00, 
2070.00, 
2071.00, 
2072.00, 
2073.00, 
2074.00, 
2075.00, 
2076.00, 
2077.00, 
2078.00, 
2079.00, 
2080.00, 
2081.00, 
2082.00, 
2083.00, 
2084.00, 
2085.00, 
2086.00, 
2087.00, 
2088.00, 
2089.00, 
2090.00, 
2091.00, 
2092.00, 
2093.00, 
2094.00, 
2095.00, 
2096.00, 
2097.00, 
2098.00, 
2099.00, 
2100.00, 
2101.00, 
2102.00, 
2103.00, 
2104.00, 
2105.00, 
2106.00, 
2107.00, 
2108.00, 
2109.00, 
2110.00, 
2111.00, 
2112.00, 
2113.00, 
2114.00, 
2115.00, 
2116.00, 
2117.00, 
2118.00, 
2119.00, 
2120.00, 
2121.00, 
2122.00, 
2123.00, 
2124.00, 
2125.00, 
2126.00, 
2127.00, 
2128.00, 
2129.00, 
2130.00, 
2131.00, 
2132.00, 
2133.00, 
2134.00, 
2135.00, 
2136.00, 
2137.00, 
2138.00, 
2139.00, 
2140.00, 
2141.00, 
2142.00, 
2143.00, 
2144.00, 
2145.00, 
2146.00, 
2147.00, 
2148.00, 
2149.00, 
2150.00, 
2151.00, 
2152.00, 
2153.00, 
2154.00, 
2155.00, 
2156.00, 
2157.00, 
2158.00, 
2159.00, 
2160.00, 
2161.00, 
2162.00, 
2163.00, 
2164.00, 
2165.00, 
2166.00, 
2167.00, 
2168.00, 
2169.00, 
2170.00, 
2171.00, 
2172.00, 
2173.00, 
2174.00, 
2175.00, 
2176.00, 
2177.00, 
2178.00, 
2179.00, 
2180.00, 
2181.00, 
2182.00, 
2183.00, 
2184.00, 
2185.00, 
2186.00, 
2187.00, 
2188.00, 
2189.00, 
2190.00, 
2191.00, 
2192.00, 
2193.00, 
2194.00, 
2195.00, 
2196.00, 
2197.00, 
2198.00, 
2199.00, 
2200.00, 
2201.00, 
2202.00, 
2203.00, 
2204.00, 
2205.00, 
2206.00, 
2207.00, 
2208.00, 
2209.00, 
2210.00, 
2211.00, 
2212.00, 
2213.00, 
2214.00, 
2215.00, 
2216.00, 
2217.00, 
2218.00, 
2219.00, 
2220.00, 
2221.00, 
2222.00, 
2223.00, 
2224.00, 
2225.00, 
2226.00, 
2227.00, 
2228.00, 
2229.00, 
2230.00, 
2231.00, 
2232.00, 
2233.00, 
2234.00, 
2235.00, 
2236.00, 
2237.00, 
2238.00, 
2239.00, 
2240.00, 
2241.00, 
2242.00, 
2243.00, 
2244.00, 
2245.00, 
2246.00, 
2247.00, 
2248.00, 
2249.00, 
2250.00, 
2251.00, 
2252.00, 
2253.00, 
2254.00, 
2255.00, 
2256.00, 
2257.00, 
2258.00, 
2259.00, 
2260.00, 
2261.00, 
2262.00, 
2263.00, 
2264.00, 
2265.00, 
2266.00, 
2267.00, 
2268.00, 
2269.00, 
2270.00, 
2271.00, 
2272.00, 
2273.00, 
2274.00, 
2275.00, 
2276.00, 
2277.00, 
2278.00, 
2279.00, 
2280.00, 
2281.00, 
2282.00, 
2283.00, 
2284.00, 
2285.00, 
2286.00, 
2287.00, 
2288.00, 
2289.00, 
2290.00, 
2291.00, 
2292.00, 
2293.00, 
2294.00, 
2295.00, 
2296.00, 
2297.00, 
2298.00, 
2299.00, 
2300.00, 
2301.00, 
2302.00, 
2303.00, 
2304.00, 
2305.00, 
2306.00, 
2307.00, 
2308.00, 
2309.00, 
2310.00, 
2311.00, 
2312.00, 
2313.00, 
2314.00, 
2315.00, 
2316.00, 
2317.00, 
2318.00, 
2319.00, 
2320.00, 
2321.00, 
2322.00, 
2323.00, 
2324.00, 
2325.00, 
2326.00, 
2327.00, 
2328.00, 
2329.00, 
2330.00, 
2331.00, 
2332.00, 
2333.00, 
2334.00, 
2335.00, 
2336.00, 
2337.00, 
2338.00, 
2339.00, 
2340.00, 
2341.00, 
2342.00, 
2343.00, 
2344.00, 
2345.00, 
2346.00, 
2347.00, 
2348.00, 
2349.00, 
2350.00, 
2351.00, 
2352.00, 
2353.00, 
2354.00, 
2355.00, 
2356.00, 
2357.00, 
2358.00, 
2359.00, 
2360.00, 
2361.00, 
2362.00, 
2363.00, 
2364.00, 
2365.00, 
2366.00, 
2367.00, 
2368.00, 
2369.00, 
2370.00, 
2371.00, 
2372.00, 
2373.00, 
2374.00, 
2375.00, 
2376.00, 
2377.00, 
2378.00, 
2379.00, 
2380.00, 
2381.00, 
2382.00, 
2383.00, 
2384.00, 
2385.00, 
2386.00, 
2387.00, 
2388.00, 
2389.00, 
2390.00, 
2391.00, 
2392.00, 
2393.00, 
2394.00, 
2395.00, 
2396.00, 
2397.00, 
2398.00, 
2399.00, 
2400.00, 
2401.00, 
2402.00, 
2403.00, 
2404.00, 
2405.00, 
2406.00, 
2407.00, 
2408.00, 
2409.00, 
2410.00, 
2411.00, 
2412.00, 
2413.00, 
2414.00, 
2415.00, 
2416.00, 
2417.00, 
2418.00, 
2419.00, 
2420.00, 
2421.00, 
2422.00, 
2423.00, 
2424.00, 
2425.00, 
2426.00, 
2427.00, 
2428.00, 
2429.00, 
2430.00, 
2431.00, 
2432.00, 
2433.00, 
2434.00, 
2435.00, 
2436.00, 
2437.00, 
2438.00, 
2439.00, 
2440.00, 
2441.00, 
2442.00, 
2443.00, 
2444.00, 
2445.00, 
2446.00, 
2447.00, 
2448.00, 
2449.00, 
2450.00, 
2451.00, 
2452.00, 
2453.00, 
2454.00, 
2455.00, 
2456.00, 
2457.00, 
2458.00, 
2459.00, 
2460.00, 
2461.00, 
2462.00, 
2463.00, 
2464.00, 
2465.00, 
2466.00, 
2467.00, 
2468.00, 
2469.00, 
2470.00, 
2471.00, 
2472.00, 
2473.00, 
2474.00, 
2475.00, 
2476.00, 
2477.00, 
2478.00, 
2479.00, 
2480.00, 
2481.00, 
2482.00, 
2483.00, 
2484.00, 
2485.00, 
2486.00, 
2487.00, 
2488.00, 
2489.00, 
2490.00, 
2491.00, 
2492.00, 
2493.00, 
2494.00, 
2495.00, 
2496.00, 
2497.00, 
2498.00, 
2499.00, 
2500.00, 
2501.00, 
2502.00, 
2503.00, 
2504.00, 
2505.00, 
2506.00, 
2507.00, 
2508.00, 
2509.00, 
2510.00, 
2511.00, 
2512.00, 
2513.00, 
2514.00, 
2515.00, 
2516.00, 
2517.00, 
2518.00, 
2519.00, 
2520.00, 
2521.00, 
2522.00, 
2523.00, 
2524.00, 
2525.00, 
2526.00, 
2527.00, 
2528.00, 
2529.00, 
2530.00, 
2531.00, 
2532.00, 
2533.00, 
2534.00, 
2535.00, 
2536.00, 
2537.00, 
2538.00, 
2539.00, 
2540.00, 
2541.00, 
2542.00, 
2543.00, 
2544.00, 
2545.00, 
2546.00, 
2547.00, 
2548.00, 
2549.00, 
2550.00, 
2551.00, 
2552.00, 
2553.00, 
2554.00, 
2555.00, 
2556.00, 
2557.00, 
2558.00, 
2559.00, 
2560.00, 
2561.00, 
2562.00, 
2563.00, 
2564.00, 
2565.00, 
2566.00, 
2567.00, 
2568.00, 
2569.00, 
2570.00, 
2571.00, 
2572.00, 
2573.00, 
2574.00, 
2575.00, 
2576.00, 
2577.00, 
2578.00, 
2579.00, 
2580.00, 
2581.00, 
2582.00, 
2583.00, 
2584.00, 
2585.00, 
2586.00, 
2587.00, 
2588.00, 
2589.00, 
2590.00, 
2591.00, 
2592.00, 
2593.00, 
2594.00, 
2595.00, 
2596.00, 
2597.00, 
2598.00, 
2599.00, 
2600.00, 
