"1bP2 - RawData"
"Wavelength nm.","T%"
200.00,0.001
201.00,0.002
202.00,0.001
203.00,-0.000
204.00,0.004
205.00,0.001
206.00,-0.001
207.00,0.003
208.00,0.002
209.00,-0.000
210.00,-0.000
211.00,0.000
212.00,0.001
213.00,0.002
214.00,0.002
215.00,0.000
216.00,0.001
217.00,0.002
218.00,0.001
219.00,-0.001
220.00,0.000
221.00,0.001
222.00,0.000
223.00,0.002
224.00,0.002
225.00,0.004
226.00,0.001
227.00,0.002
228.00,-0.001
229.00,0.003
230.00,0.003
231.00,0.001
232.00,-0.000
233.00,0.001
234.00,0.001
235.00,0.002
236.00,0.001
237.00,0.002
238.00,0.000
239.00,0.000
240.00,0.001
241.00,0.002
242.00,0.000
243.00,0.001
244.00,-0.001
245.00,0.000
246.00,0.002
247.00,0.002
248.00,0.000
249.00,0.001
250.00,-0.000
251.00,-0.001
252.00,0.001
253.00,-0.000
254.00,-0.000
255.00,0.000
256.00,0.000
257.00,-0.000
258.00,0.001
259.00,0.000
260.00,0.001
261.00,0.001
262.00,-0.001
263.00,0.001
264.00,0.000
265.00,-0.000
266.00,0.000
267.00,0.000
268.00,0.001
269.00,0.001
270.00,0.002
271.00,-0.000
272.00,0.001
273.00,0.003
274.00,0.001
275.00,0.001
276.00,-0.000
277.00,0.001
278.00,-0.000
279.00,0.001
280.00,0.002
281.00,0.001
282.00,0.000
283.00,0.001
284.00,0.001
285.00,-0.002
286.00,0.001
287.00,0.001
288.00,-0.000
289.00,0.000
290.00,-0.000
291.00,0.000
292.00,0.001
293.00,0.001
294.00,0.000
295.00,-0.001
296.00,-0.000
297.00,0.001
298.00,0.002
299.00,0.002
300.00,0.006
301.00,0.009
302.00,0.011
303.00,0.017
304.00,0.027
305.00,0.036
306.00,0.059
307.00,0.092
308.00,0.145
309.00,0.223
310.00,0.299
311.00,0.410
312.00,0.560
313.00,0.763
314.00,0.972
315.00,1.262
316.00,1.610
317.00,2.010
318.00,2.499
319.00,3.074
320.00,3.677
321.00,4.334
322.00,5.117
323.00,5.983
324.00,6.823
325.00,7.765
326.00,8.729
327.00,9.724
328.00,10.852
329.00,11.908
330.00,13.042
331.00,14.061
332.00,15.205
333.00,16.413
334.00,17.423
335.00,18.522
336.00,19.633
337.00,20.653
338.00,21.849
339.00,22.867
340.00,23.876
341.00,24.791
342.00,25.820
343.00,26.669
344.00,27.459
345.00,28.289
346.00,28.977
347.00,29.685
348.00,30.375
349.00,30.999
350.00,31.630
351.00,32.165
352.00,32.607
353.00,33.301
354.00,33.798
355.00,34.034
356.00,34.557
357.00,34.838
358.00,35.378
359.00,35.573
360.00,35.970
361.00,36.218
362.00,36.363
363.00,36.669
364.00,36.798
365.00,36.981
366.00,37.149
367.00,37.311
368.00,37.482
369.00,37.468
370.00,37.593
371.00,37.695
372.00,37.675
373.00,37.803
374.00,37.807
375.00,37.754
376.00,37.737
377.00,37.655
378.00,37.708
379.00,37.602
380.00,37.547
381.00,37.482
382.00,37.447
383.00,37.634
384.00,37.677
385.00,37.826
386.00,37.843
387.00,37.957
388.00,37.980
389.00,38.168
390.00,38.180
391.00,38.387
392.00,38.362
393.00,38.360
394.00,38.459
395.00,38.450
396.00,38.514
397.00,38.551
398.00,38.626
399.00,38.606
400.00,38.736
401.00,38.729
402.00,38.906
403.00,38.909
404.00,38.771
405.00,38.642
406.00,38.742
407.00,38.629
408.00,38.679
409.00,38.673
410.00,38.628
411.00,38.547
412.00,38.457
413.00,38.591
414.00,38.584
415.00,38.549
416.00,38.628
417.00,38.676
418.00,38.675
419.00,38.861
420.00,38.861
421.00,38.670
422.00,38.651
423.00,38.675
424.00,38.875
425.00,38.831
426.00,38.775
427.00,38.805
428.00,38.702
429.00,38.876
430.00,38.926
431.00,39.024
432.00,39.027
433.00,38.971
434.00,39.089
435.00,39.124
436.00,39.130
437.00,39.287
438.00,39.261
439.00,39.314
440.00,39.425
441.00,39.509
442.00,39.587
443.00,39.559
444.00,39.729
445.00,39.833
446.00,39.858
447.00,39.982
448.00,39.906
449.00,40.010
450.00,40.110
451.00,40.164
452.00,40.161
453.00,40.289
454.00,40.415
455.00,40.480
456.00,40.450
457.00,40.608
458.00,40.756
459.00,40.819
460.00,40.958
461.00,41.003
462.00,41.150
463.00,41.232
464.00,41.309
465.00,41.351
466.00,41.440
467.00,41.632
468.00,41.584
469.00,41.678
470.00,41.706
471.00,41.728
472.00,41.720
473.00,41.801
474.00,41.855
475.00,41.909
476.00,42.000
477.00,42.056
478.00,42.173
479.00,42.284
480.00,42.414
481.00,42.418
482.00,42.585
483.00,42.665
484.00,42.808
485.00,43.002
486.00,43.027
487.00,43.124
488.00,43.351
489.00,43.561
490.00,43.672
491.00,43.375
492.00,43.548
493.00,43.657
494.00,43.724
495.00,43.793
496.00,43.954
497.00,44.085
498.00,44.061
499.00,44.061
500.00,44.200
501.00,44.259
502.00,44.342
503.00,44.291
504.00,44.356
505.00,44.596
506.00,44.507
507.00,44.564
508.00,44.782
509.00,44.872
510.00,44.817
511.00,44.836
512.00,44.993
513.00,44.973
514.00,45.245
515.00,45.231
516.00,45.229
517.00,45.380
518.00,45.459
519.00,45.372
520.00,45.539
521.00,45.614
522.00,45.547
523.00,45.622
524.00,45.786
525.00,45.842
526.00,45.971
527.00,46.062
528.00,46.067
529.00,46.158
530.00,46.371
531.00,46.281
532.00,46.314
533.00,46.464
534.00,46.368
535.00,46.432
536.00,46.526
537.00,46.439
538.00,46.557
539.00,46.570
540.00,46.569
541.00,46.577
542.00,46.450
543.00,46.683
544.00,46.701
545.00,46.787
546.00,46.808
547.00,46.818
548.00,46.863
549.00,47.024
550.00,47.093
551.00,46.987
552.00,46.967
553.00,47.044
554.00,47.106
555.00,47.156
556.00,47.176
557.00,47.125
558.00,47.286
559.00,47.199
560.00,47.348
561.00,47.344
562.00,47.361
563.00,47.409
564.00,47.456
565.00,47.388
566.00,47.427
567.00,47.463
568.00,47.505
569.00,47.505
570.00,47.520
571.00,47.482
572.00,47.437
573.00,47.457
574.00,47.406
575.00,47.352
576.00,47.458
577.00,47.489
578.00,47.549
579.00,47.613
580.00,47.763
581.00,47.717
582.00,47.776
583.00,47.890
584.00,47.910
585.00,47.912
586.00,47.983
587.00,48.120
588.00,48.016
589.00,48.101
590.00,48.089
591.00,47.917
592.00,48.122
593.00,48.132
594.00,48.110
595.00,48.278
596.00,48.116
597.00,48.188
598.00,48.382
599.00,48.457
600.00,48.184
601.00,48.197
602.00,48.120
603.00,48.208
604.00,48.314
605.00,48.132
606.00,48.288
607.00,48.502
608.00,48.462
609.00,48.449
610.00,48.404
611.00,48.411
612.00,48.392
613.00,48.269
614.00,48.388
615.00,48.393
616.00,48.396
617.00,48.560
618.00,48.569
619.00,48.521
620.00,48.439
621.00,48.549
622.00,48.586
623.00,48.677
624.00,48.824
625.00,48.713
626.00,48.714
627.00,48.707
628.00,48.790
629.00,48.743
630.00,48.722
631.00,48.761
632.00,48.825
633.00,49.034
634.00,48.972
635.00,48.878
636.00,48.859
637.00,49.007
638.00,48.868
639.00,48.990
640.00,49.001
641.00,48.986
642.00,49.206
643.00,49.188
644.00,49.114
645.00,49.263
646.00,49.327
647.00,49.361
648.00,49.248
649.00,49.419
650.00,49.364
651.00,49.379
652.00,49.444
653.00,49.336
654.00,49.444
655.00,49.686
656.00,49.867
657.00,49.846
658.00,49.692
659.00,49.646
660.00,49.604
661.00,49.717
662.00,49.700
663.00,49.735
664.00,50.041
665.00,49.435
666.00,49.647
667.00,50.201
668.00,50.313
669.00,49.840
670.00,49.930
671.00,50.104
672.00,50.223
673.00,49.915
674.00,49.919
675.00,49.940
676.00,49.939
677.00,50.014
678.00,50.240
679.00,50.467
680.00,50.102
681.00,50.129
682.00,50.250
683.00,50.038
684.00,50.020
685.00,50.257
686.00,50.381
687.00,50.073
688.00,50.327
689.00,50.455
690.00,50.425
691.00,50.634
692.00,50.377
693.00,50.135
694.00,50.281
695.00,50.323
696.00,50.244
697.00,50.083
698.00,50.697
699.00,50.858
700.00,50.307
701.00,50.586
702.00,50.612
703.00,50.564
704.00,50.787
705.00,50.896
706.00,50.467
707.00,50.496
708.00,50.212
709.00,50.488
710.00,50.667
711.00,50.360
712.00,50.523
713.00,50.662
714.00,50.570
715.00,50.513
716.00,50.549
717.00,50.538
718.00,50.382
719.00,50.967
720.00,51.101
721.00,55.887
722.00,55.841
723.00,55.875
724.00,55.812
725.00,55.770
726.00,55.716
727.00,55.592
728.00,55.629
729.00,55.556
730.00,55.663
731.00,55.555
732.00,55.412
733.00,55.410
734.00,55.346
735.00,55.336
736.00,55.401
737.00,55.452
738.00,55.418
739.00,55.429
740.00,55.380
741.00,55.392
742.00,55.400
743.00,55.384
744.00,55.185
745.00,55.269
746.00,55.139
747.00,55.015
748.00,55.129
749.00,55.031
750.00,54.932
751.00,55.110
752.00,54.904
753.00,54.909
754.00,54.820
755.00,54.989
756.00,54.783
757.00,54.869
758.00,54.777
759.00,54.824
760.00,54.561
761.00,54.766
762.00,54.613
763.00,54.672
764.00,54.686
765.00,54.596
766.00,54.585
767.00,54.457
768.00,54.562
769.00,54.374
770.00,54.595
771.00,54.412
772.00,54.468
773.00,54.438
774.00,54.440
775.00,54.444
776.00,54.331
777.00,54.504
778.00,54.297
779.00,54.374
780.00,54.324
781.00,54.343
782.00,54.504
783.00,54.103
784.00,54.165
785.00,54.110
786.00,54.150
787.00,54.214
788.00,54.100
789.00,54.188
790.00,53.969
791.00,54.233
792.00,54.080
793.00,54.080
794.00,54.035
795.00,53.737
796.00,53.892
797.00,53.825
798.00,53.885
799.00,53.727
800.00,53.733
801.00,53.773
802.00,53.492
803.00,53.776
804.00,53.683
805.00,53.530
806.00,53.537
807.00,53.516
808.00,53.639
809.00,53.361
810.00,53.434
811.00,53.487
812.00,53.396
813.00,53.457
814.00,53.336
815.00,53.455
816.00,53.312
817.00,53.262
818.00,53.316
819.00,53.287
820.00,53.209
821.00,53.057
822.00,53.218
823.00,53.104
824.00,53.184
825.00,53.197
826.00,53.036
827.00,53.105
828.00,53.133
829.00,53.127
830.00,52.828
831.00,55.412
832.00,55.457
833.00,55.522
834.00,55.409
835.00,55.514
836.00,55.517
837.00,55.382
838.00,55.455
839.00,55.434
840.00,55.251
841.00,55.353
842.00,55.335
843.00,55.266
844.00,55.279
845.00,55.125
846.00,55.192
847.00,55.177
848.00,55.121
849.00,55.048
850.00,55.063
851.00,54.948
852.00,54.944
853.00,54.974
854.00,54.862
855.00,54.885
856.00,54.811
857.00,54.867
858.00,54.836
859.00,54.755
860.00,54.717
861.00,54.727
862.00,54.691
863.00,54.686
864.00,54.700
865.00,54.655
866.00,54.638
867.00,54.624
868.00,54.608
869.00,54.620
870.00,54.604
871.00,54.642
872.00,54.592
873.00,54.534
874.00,54.572
875.00,54.518
876.00,54.493
877.00,54.469
878.00,54.532
879.00,54.420
880.00,54.401
881.00,54.437
882.00,54.388
883.00,54.347
884.00,54.357
885.00,54.280
886.00,54.316
887.00,54.275
888.00,54.226
889.00,54.275
890.00,54.235
891.00,54.165
892.00,54.214
893.00,54.173
894.00,54.208
895.00,54.169
896.00,54.148
897.00,54.114
898.00,54.045
899.00,54.067
900.00,54.047
901.00,54.069
902.00,54.051
903.00,54.026
904.00,53.940
905.00,54.033
906.00,53.957
907.00,53.989
908.00,53.908
909.00,53.942
910.00,53.798
911.00,53.962
912.00,53.858
913.00,53.811
914.00,53.796
915.00,53.754
916.00,53.759
917.00,53.740
918.00,53.747
919.00,53.740
920.00,53.652
921.00,53.657
922.00,53.791
923.00,53.636
924.00,53.606
925.00,53.612
926.00,53.588
927.00,53.590
928.00,53.563
929.00,53.544
930.00,53.506
931.00,53.472
932.00,53.435
933.00,53.464
934.00,53.435
935.00,53.391
936.00,53.403
937.00,53.386
938.00,53.403
939.00,53.356
940.00,53.352
941.00,53.323
942.00,53.372
943.00,53.265
944.00,53.264
945.00,53.247
946.00,53.240
947.00,53.205
948.00,53.180
949.00,53.173
950.00,53.170
951.00,53.136
952.00,53.099
953.00,53.115
954.00,53.064
955.00,53.010
956.00,53.015
957.00,52.990
958.00,52.992
959.00,52.968
960.00,52.880
961.00,52.914
962.00,52.910
963.00,52.879
964.00,52.852
965.00,52.900
966.00,52.853
967.00,52.856
968.00,52.820
969.00,52.856
970.00,52.843
971.00,52.836
972.00,52.836
973.00,52.831
974.00,52.865
975.00,52.850
976.00,52.808
977.00,52.821
978.00,52.840
979.00,52.838
980.00,52.801
981.00,52.810
982.00,52.784
983.00,52.887
984.00,52.814
985.00,52.789
986.00,52.778
987.00,52.817
988.00,52.795
989.00,52.743
990.00,52.767
991.00,52.748
992.00,52.734
993.00,52.698
994.00,52.706
995.00,52.719
996.00,52.651
997.00,52.669
998.00,52.678
999.00,52.653
1000.00,52.618
1001.00,52.631
1002.00,52.639
1003.00,52.595
1004.00,52.609
1005.00,52.567
1006.00,52.594
1007.00,52.575
1008.00,52.563
1009.00,52.560
1010.00,52.513
1011.00,52.550
1012.00,52.515
1013.00,52.494
1014.00,52.465
1015.00,52.468
1016.00,52.465
1017.00,52.417
1018.00,52.427
1019.00,52.405
1020.00,52.414
1021.00,52.376
1022.00,52.375
1023.00,52.352
1024.00,52.336
1025.00,52.333
1026.00,52.290
1027.00,52.291
1028.00,52.285
1029.00,52.294
1030.00,52.247
1031.00,52.247
1032.00,52.247
1033.00,52.196
1034.00,52.192
1035.00,52.151
1036.00,52.140
1037.00,52.103
1038.00,52.096
1039.00,52.078
1040.00,52.059
1041.00,52.034
1042.00,52.029
1043.00,52.015
1044.00,52.054
1045.00,52.008
1046.00,52.015
1047.00,52.061
1048.00,52.048
1049.00,52.066
1050.00,52.068
1051.00,52.085
1052.00,52.114
1053.00,52.124
1054.00,52.124
1055.00,52.135
1056.00,52.159
1057.00,52.164
1058.00,52.175
1059.00,52.145
1060.00,52.160
1061.00,52.152
1062.00,52.136
1063.00,52.124
1064.00,52.144
1065.00,52.108
1066.00,52.095
1067.00,52.083
1068.00,52.103
1069.00,52.082
1070.00,52.074
1071.00,52.068
1072.00,52.045
1073.00,52.046
1074.00,52.032
1075.00,52.010
1076.00,51.999
1077.00,51.995
1078.00,51.994
1079.00,52.004
1080.00,51.999
1081.00,52.005
1082.00,51.999
1083.00,51.987
1084.00,51.972
1085.00,51.992
1086.00,51.967
1087.00,51.971
1088.00,51.957
1089.00,51.927
1090.00,51.925
1091.00,51.945
1092.00,51.914
1093.00,51.905
1094.00,51.893
1095.00,51.904
1096.00,51.875
1097.00,51.868
1098.00,51.861
1099.00,51.857
1100.00,51.840
1101.00,51.846
1102.00,51.845
1103.00,51.831
1104.00,51.808
1105.00,51.814
1106.00,51.789
1107.00,51.778
1108.00,51.768
1109.00,51.748
1110.00,51.750
1111.00,51.750
1112.00,51.738
1113.00,51.763
1114.00,51.748
1115.00,51.759
1116.00,51.745
1117.00,51.717
1118.00,51.709
1119.00,51.769
1120.00,51.660
1121.00,51.726
1122.00,51.699
1123.00,51.620
1124.00,51.699
1125.00,51.643
1126.00,51.682
1127.00,51.659
1128.00,51.651
1129.00,51.644
1130.00,51.646
1131.00,51.630
1132.00,51.617
1133.00,51.606
1134.00,51.581
1135.00,51.610
1136.00,51.611
1137.00,51.617
1138.00,51.621
1139.00,51.603
1140.00,51.590
1141.00,51.595
1142.00,51.576
1143.00,51.635
1144.00,51.579
1145.00,51.562
1146.00,51.572
1147.00,51.557
1148.00,51.574
1149.00,51.576
1150.00,51.585
1151.00,51.584
1152.00,51.536
1153.00,51.582
1154.00,51.564
1155.00,51.562
1156.00,51.555
1157.00,51.556
1158.00,51.558
1159.00,51.543
1160.00,51.551
1161.00,51.546
1162.00,51.568
1163.00,51.558
1164.00,51.560
1165.00,51.561
1166.00,51.547
1167.00,51.528
1168.00,51.560
1169.00,51.529
1170.00,51.553
1171.00,51.556
1172.00,51.537
1173.00,51.552
1174.00,51.523
1175.00,51.528
1176.00,51.541
1177.00,51.523
1178.00,51.509
1179.00,51.536
1180.00,51.516
1181.00,51.552
1182.00,51.540
1183.00,51.542
1184.00,51.527
1185.00,51.540
1186.00,51.498
1187.00,51.505
1188.00,51.530
1189.00,51.520
1190.00,51.539
1191.00,51.495
1192.00,51.533
1193.00,51.534
1194.00,51.552
1195.00,51.542
1196.00,51.542
1197.00,51.566
1198.00,51.537
1199.00,51.550
1200.00,51.529
1201.00,51.558
1202.00,51.526
1203.00,51.534
1204.00,51.545
1205.00,51.530
1206.00,51.534
1207.00,51.544
1208.00,51.514
1209.00,51.541
1210.00,51.555
1211.00,51.522
1212.00,51.592
1213.00,51.554
1214.00,51.540
1215.00,51.548
1216.00,51.507
1217.00,51.534
1218.00,51.526
1219.00,51.538
1220.00,51.524
1221.00,51.538
1222.00,51.542
1223.00,51.540
1224.00,51.553
1225.00,51.529
1226.00,51.574
1227.00,51.534
1228.00,51.543
1229.00,51.551
1230.00,51.581
1231.00,51.569
1232.00,51.559
1233.00,51.598
1234.00,51.602
1235.00,51.596
1236.00,51.588
1237.00,51.600
1238.00,51.575
1239.00,51.588
1240.00,51.575
1241.00,51.590
1242.00,51.598
1243.00,51.586
1244.00,51.586
1245.00,51.606
1246.00,51.629
1247.00,51.611
1248.00,51.622
1249.00,51.605
1250.00,51.629
1251.00,51.607
1252.00,51.595
1253.00,51.623
1254.00,51.636
1255.00,51.625
1256.00,51.648
1257.00,51.615
1258.00,51.643
1259.00,51.678
1260.00,51.657
1261.00,51.671
1262.00,51.667
1263.00,51.655
1264.00,51.664
1265.00,51.673
1266.00,51.662
1267.00,51.691
1268.00,51.684
1269.00,51.691
1270.00,51.716
1271.00,51.716
1272.00,51.725
1273.00,51.733
1274.00,51.712
1275.00,51.733
1276.00,51.729
1277.00,51.739
1278.00,51.769
1279.00,51.750
1280.00,51.745
1281.00,51.769
1282.00,51.765
1283.00,51.777
1284.00,51.766
1285.00,51.783
1286.00,51.761
1287.00,51.770
1288.00,51.751
1289.00,51.780
1290.00,51.826
1291.00,51.791
1292.00,51.814
1293.00,51.789
1294.00,51.819
1295.00,51.834
1296.00,51.828
1297.00,51.818
1298.00,51.828
1299.00,51.834
1300.00,51.853
1301.00,51.848
1302.00,51.887
1303.00,51.884
1304.00,51.901
1305.00,51.861
1306.00,51.930
1307.00,51.862
1308.00,51.857
1309.00,51.899
1310.00,51.902
1311.00,51.911
1312.00,51.893
1313.00,51.916
1314.00,51.920
1315.00,51.941
1316.00,51.930
1317.00,51.937
1318.00,51.934
1319.00,51.935
1320.00,51.936
1321.00,52.124
1322.00,52.115
1323.00,52.079
1324.00,52.089
1325.00,52.104
1326.00,52.091
1327.00,52.091
1328.00,52.065
1329.00,52.083
1330.00,52.077
1331.00,52.078
1332.00,52.067
1333.00,52.082
1334.00,52.128
1335.00,52.132
1336.00,52.198
1337.00,52.201
1338.00,52.269
1339.00,52.319
1340.00,52.366
1341.00,52.449
1342.00,52.490
1343.00,52.545
1344.00,52.591
1345.00,52.635
1346.00,52.744
1347.00,52.728
1348.00,52.687
1349.00,52.801
1350.00,52.804
1351.00,52.770
1352.00,52.735
1353.00,52.927
1354.00,52.794
1355.00,52.650
1356.00,52.838
1357.00,52.740
1358.00,53.029
1359.00,52.649
1360.00,52.843
1361.00,53.281
1362.00,52.509
1363.00,53.100
1364.00,52.688
1365.00,52.738
1366.00,53.062
1367.00,53.006
1368.00,52.617
1369.00,52.898
1370.00,52.642
1371.00,52.790
1372.00,52.791
1373.00,52.977
1374.00,52.823
1375.00,53.004
1376.00,52.439
1377.00,53.310
1378.00,52.867
1379.00,53.189
1380.00,53.036
1381.00,53.111
1382.00,52.737
1383.00,53.020
1384.00,52.721
1385.00,52.506
1386.00,52.608
1387.00,52.654
1388.00,52.708
1389.00,52.685
1390.00,52.811
1391.00,52.483
1392.00,52.778
1393.00,52.943
1394.00,52.979
1395.00,52.177
1396.00,52.757
1397.00,52.797
1398.00,52.763
1399.00,52.621
1400.00,52.732
1401.00,52.737
1402.00,52.797
1403.00,52.876
1404.00,52.823
1405.00,52.816
1406.00,52.841
1407.00,52.744
1408.00,52.701
1409.00,52.798
1410.00,52.951
1411.00,52.705
1412.00,53.065
1413.00,52.950
1414.00,52.797
1415.00,52.832
1416.00,52.815
1417.00,52.964
1418.00,52.853
1419.00,52.889
1420.00,52.892
1421.00,52.966
1422.00,52.903
1423.00,52.971
1424.00,52.957
1425.00,52.957
1426.00,52.956
1427.00,52.981
1428.00,52.969
1429.00,53.036
1430.00,53.015
1431.00,52.983
1432.00,53.070
1433.00,53.006
1434.00,53.062
1435.00,53.094
1436.00,53.106
1437.00,53.087
1438.00,53.145
1439.00,53.165
1440.00,53.171
1441.00,53.172
1442.00,53.157
1443.00,53.148
1444.00,53.541
1445.00,53.178
1446.00,53.245
1447.00,53.246
1448.00,53.255
1449.00,53.276
1450.00,53.304
1451.00,53.323
1452.00,53.336
1453.00,53.326
1454.00,53.324
1455.00,53.355
1456.00,53.356
1457.00,53.393
1458.00,53.369
1459.00,53.395
1460.00,53.430
1461.00,53.442
1462.00,53.420
1463.00,53.486
1464.00,53.456
1465.00,53.482
1466.00,53.491
1467.00,53.461
1468.00,53.538
1469.00,53.554
1470.00,53.567
1471.00,53.566
1472.00,53.558
1473.00,53.576
1474.00,53.614
1475.00,53.612
1476.00,53.645
1477.00,53.618
1478.00,53.648
1479.00,53.639
1480.00,53.670
1481.00,53.663
1482.00,53.699
1483.00,53.689
1484.00,53.701
1485.00,53.716
1486.00,53.730
1487.00,53.758
1488.00,53.749
1489.00,53.764
1490.00,53.767
1491.00,53.774
1492.00,53.795
1493.00,53.790
1494.00,53.814
1495.00,53.816
1496.00,53.847
1497.00,53.818
1498.00,53.841
1499.00,53.869
1500.00,53.864
1501.00, 
1502.00, 
1503.00, 
1504.00, 
1505.00, 
1506.00, 
1507.00, 
1508.00, 
1509.00, 
1510.00, 
1511.00, 
1512.00, 
1513.00, 
1514.00, 
1515.00, 
1516.00, 
1517.00, 
1518.00, 
1519.00, 
1520.00, 
1521.00, 
1522.00, 
1523.00, 
1524.00, 
1525.00, 
1526.00, 
1527.00, 
1528.00, 
1529.00, 
1530.00, 
1531.00, 
1532.00, 
1533.00, 
1534.00, 
1535.00, 
1536.00, 
1537.00, 
1538.00, 
1539.00, 
1540.00, 
1541.00, 
1542.00, 
1543.00, 
1544.00, 
1545.00, 
1546.00, 
1547.00, 
1548.00, 
1549.00, 
1550.00, 
1551.00, 
1552.00, 
1553.00, 
1554.00, 
1555.00, 
1556.00, 
1557.00, 
1558.00, 
1559.00, 
1560.00, 
1561.00, 
1562.00, 
1563.00, 
1564.00, 
1565.00, 
1566.00, 
1567.00, 
1568.00, 
1569.00, 
1570.00, 
1571.00, 
1572.00, 
1573.00, 
1574.00, 
1575.00, 
1576.00, 
1577.00, 
1578.00, 
1579.00, 
1580.00, 
1581.00, 
1582.00, 
1583.00, 
1584.00, 
1585.00, 
1586.00, 
1587.00, 
1588.00, 
1589.00, 
1590.00, 
1591.00, 
1592.00, 
1593.00, 
1594.00, 
1595.00, 
1596.00, 
1597.00, 
1598.00, 
1599.00, 
1600.00, 
1601.00, 
1602.00, 
1603.00, 
1604.00, 
1605.00, 
1606.00, 
1607.00, 
1608.00, 
1609.00, 
1610.00, 
1611.00, 
1612.00, 
1613.00, 
1614.00, 
1615.00, 
1616.00, 
1617.00, 
1618.00, 
1619.00, 
1620.00, 
1621.00, 
1622.00, 
1623.00, 
1624.00, 
1625.00, 
1626.00, 
1627.00, 
1628.00, 
1629.00, 
1630.00, 
1631.00, 
1632.00, 
1633.00, 
1634.00, 
1635.00, 
1636.00, 
1637.00, 
1638.00, 
1639.00, 
1640.00, 
1641.00, 
1642.00, 
1643.00, 
1644.00, 
1645.00, 
1646.00, 
1647.00, 
1648.00, 
1649.00, 
1650.00, 
1651.00, 
1652.00, 
1653.00, 
1654.00, 
1655.00, 
1656.00, 
1657.00, 
1658.00, 
1659.00, 
1660.00, 
1661.00, 
1662.00, 
1663.00, 
1664.00, 
1665.00, 
1666.00, 
1667.00, 
1668.00, 
1669.00, 
1670.00, 
1671.00, 
1672.00, 
1673.00, 
1674.00, 
1675.00, 
1676.00, 
1677.00, 
1678.00, 
1679.00, 
1680.00, 
1681.00, 
1682.00, 
1683.00, 
1684.00, 
1685.00, 
1686.00, 
1687.00, 
1688.00, 
1689.00, 
1690.00, 
1691.00, 
1692.00, 
1693.00, 
1694.00, 
1695.00, 
1696.00, 
1697.00, 
1698.00, 
1699.00, 
1700.00, 
1701.00, 
1702.00, 
1703.00, 
1704.00, 
1705.00, 
1706.00, 
1707.00, 
1708.00, 
1709.00, 
1710.00, 
1711.00, 
1712.00, 
1713.00, 
1714.00, 
1715.00, 
1716.00, 
1717.00, 
1718.00, 
1719.00, 
1720.00, 
1721.00, 
1722.00, 
1723.00, 
1724.00, 
1725.00, 
1726.00, 
1727.00, 
1728.00, 
1729.00, 
1730.00, 
1731.00, 
1732.00, 
1733.00, 
1734.00, 
1735.00, 
1736.00, 
1737.00, 
1738.00, 
1739.00, 
1740.00, 
1741.00, 
1742.00, 
1743.00, 
1744.00, 
1745.00, 
1746.00, 
1747.00, 
1748.00, 
1749.00, 
1750.00, 
1751.00, 
1752.00, 
1753.00, 
1754.00, 
1755.00, 
1756.00, 
1757.00, 
1758.00, 
1759.00, 
1760.00, 
1761.00, 
1762.00, 
1763.00, 
1764.00, 
1765.00, 
1766.00, 
1767.00, 
1768.00, 
1769.00, 
1770.00, 
1771.00, 
1772.00, 
1773.00, 
1774.00, 
1775.00, 
1776.00, 
1777.00, 
1778.00, 
1779.00, 
1780.00, 
1781.00, 
1782.00, 
1783.00, 
1784.00, 
1785.00, 
1786.00, 
1787.00, 
1788.00, 
1789.00, 
1790.00, 
1791.00, 
1792.00, 
1793.00, 
1794.00, 
1795.00, 
1796.00, 
1797.00, 
1798.00, 
1799.00, 
1800.00, 
1801.00, 
1802.00, 
1803.00, 
1804.00, 
1805.00, 
1806.00, 
1807.00, 
1808.00, 
1809.00, 
1810.00, 
1811.00, 
1812.00, 
1813.00, 
1814.00, 
1815.00, 
1816.00, 
1817.00, 
1818.00, 
1819.00, 
1820.00, 
1821.00, 
1822.00, 
1823.00, 
1824.00, 
1825.00, 
1826.00, 
1827.00, 
1828.00, 
1829.00, 
1830.00, 
1831.00, 
1832.00, 
1833.00, 
1834.00, 
1835.00, 
1836.00, 
1837.00, 
1838.00, 
1839.00, 
1840.00, 
1841.00, 
1842.00, 
1843.00, 
1844.00, 
1845.00, 
1846.00, 
1847.00, 
1848.00, 
1849.00, 
1850.00, 
1851.00, 
1852.00, 
1853.00, 
1854.00, 
1855.00, 
1856.00, 
1857.00, 
1858.00, 
1859.00, 
1860.00, 
1861.00, 
1862.00, 
1863.00, 
1864.00, 
1865.00, 
1866.00, 
1867.00, 
1868.00, 
1869.00, 
1870.00, 
1871.00, 
1872.00, 
1873.00, 
1874.00, 
1875.00, 
1876.00, 
1877.00, 
1878.00, 
1879.00, 
1880.00, 
1881.00, 
1882.00, 
1883.00, 
1884.00, 
1885.00, 
1886.00, 
1887.00, 
1888.00, 
1889.00, 
1890.00, 
1891.00, 
1892.00, 
1893.00, 
1894.00, 
1895.00, 
1896.00, 
1897.00, 
1898.00, 
1899.00, 
1900.00, 
1901.00, 
1902.00, 
1903.00, 
1904.00, 
1905.00, 
1906.00, 
1907.00, 
1908.00, 
1909.00, 
1910.00, 
1911.00, 
1912.00, 
1913.00, 
1914.00, 
1915.00, 
1916.00, 
1917.00, 
1918.00, 
1919.00, 
1920.00, 
1921.00, 
1922.00, 
1923.00, 
1924.00, 
1925.00, 
1926.00, 
1927.00, 
1928.00, 
1929.00, 
1930.00, 
1931.00, 
1932.00, 
1933.00, 
1934.00, 
1935.00, 
1936.00, 
1937.00, 
1938.00, 
1939.00, 
1940.00, 
1941.00, 
1942.00, 
1943.00, 
1944.00, 
1945.00, 
1946.00, 
1947.00, 
1948.00, 
1949.00, 
1950.00, 
1951.00, 
1952.00, 
1953.00, 
1954.00, 
1955.00, 
1956.00, 
1957.00, 
1958.00, 
1959.00, 
1960.00, 
1961.00, 
1962.00, 
1963.00, 
1964.00, 
1965.00, 
1966.00, 
1967.00, 
1968.00, 
1969.00, 
1970.00, 
1971.00, 
1972.00, 
1973.00, 
1974.00, 
1975.00, 
1976.00, 
1977.00, 
1978.00, 
1979.00, 
1980.00, 
1981.00, 
1982.00, 
1983.00, 
1984.00, 
1985.00, 
1986.00, 
1987.00, 
1988.00, 
1989.00, 
1990.00, 
1991.00, 
1992.00, 
1993.00, 
1994.00, 
1995.00, 
1996.00, 
1997.00, 
1998.00, 
1999.00, 
2000.00, 
2001.00, 
2002.00, 
2003.00, 
2004.00, 
2005.00, 
2006.00, 
2007.00, 
2008.00, 
2009.00, 
2010.00, 
2011.00, 
2012.00, 
2013.00, 
2014.00, 
2015.00, 
2016.00, 
2017.00, 
2018.00, 
2019.00, 
2020.00, 
2021.00, 
2022.00, 
2023.00, 
2024.00, 
2025.00, 
2026.00, 
2027.00, 
2028.00, 
2029.00, 
2030.00, 
2031.00, 
2032.00, 
2033.00, 
2034.00, 
2035.00, 
2036.00, 
2037.00, 
2038.00, 
2039.00, 
2040.00, 
2041.00, 
2042.00, 
2043.00, 
2044.00, 
2045.00, 
2046.00, 
2047.00, 
2048.00, 
2049.00, 
2050.00, 
2051.00, 
2052.00, 
2053.00, 
2054.00, 
2055.00, 
2056.00, 
2057.00, 
2058.00, 
2059.00, 
2060.00, 
2061.00, 
2062.00, 
2063.00, 
2064.00, 
2065.00, 
2066.00, 
2067.00, 
2068.00, 
2069.00, 
2070.00, 
2071.00, 
2072.00, 
2073.00, 
2074.00, 
2075.00, 
2076.00, 
2077.00, 
2078.00, 
2079.00, 
2080.00, 
2081.00, 
2082.00, 
2083.00, 
2084.00, 
2085.00, 
2086.00, 
2087.00, 
2088.00, 
2089.00, 
2090.00, 
2091.00, 
2092.00, 
2093.00, 
2094.00, 
2095.00, 
2096.00, 
2097.00, 
2098.00, 
2099.00, 
2100.00, 
2101.00, 
2102.00, 
2103.00, 
2104.00, 
2105.00, 
2106.00, 
2107.00, 
2108.00, 
2109.00, 
2110.00, 
2111.00, 
2112.00, 
2113.00, 
2114.00, 
2115.00, 
2116.00, 
2117.00, 
2118.00, 
2119.00, 
2120.00, 
2121.00, 
2122.00, 
2123.00, 
2124.00, 
2125.00, 
2126.00, 
2127.00, 
2128.00, 
2129.00, 
2130.00, 
2131.00, 
2132.00, 
2133.00, 
2134.00, 
2135.00, 
2136.00, 
2137.00, 
2138.00, 
2139.00, 
2140.00, 
2141.00, 
2142.00, 
2143.00, 
2144.00, 
2145.00, 
2146.00, 
2147.00, 
2148.00, 
2149.00, 
2150.00, 
2151.00, 
2152.00, 
2153.00, 
2154.00, 
2155.00, 
2156.00, 
2157.00, 
2158.00, 
2159.00, 
2160.00, 
2161.00, 
2162.00, 
2163.00, 
2164.00, 
2165.00, 
2166.00, 
2167.00, 
2168.00, 
2169.00, 
2170.00, 
2171.00, 
2172.00, 
2173.00, 
2174.00, 
2175.00, 
2176.00, 
2177.00, 
2178.00, 
2179.00, 
2180.00, 
2181.00, 
2182.00, 
2183.00, 
2184.00, 
2185.00, 
2186.00, 
2187.00, 
2188.00, 
2189.00, 
2190.00, 
2191.00, 
2192.00, 
2193.00, 
2194.00, 
2195.00, 
2196.00, 
2197.00, 
2198.00, 
2199.00, 
2200.00, 
2201.00, 
2202.00, 
2203.00, 
2204.00, 
2205.00, 
2206.00, 
2207.00, 
2208.00, 
2209.00, 
2210.00, 
2211.00, 
2212.00, 
2213.00, 
2214.00, 
2215.00, 
2216.00, 
2217.00, 
2218.00, 
2219.00, 
2220.00, 
2221.00, 
2222.00, 
2223.00, 
2224.00, 
2225.00, 
2226.00, 
2227.00, 
2228.00, 
2229.00, 
2230.00, 
2231.00, 
2232.00, 
2233.00, 
2234.00, 
2235.00, 
2236.00, 
2237.00, 
2238.00, 
2239.00, 
2240.00, 
2241.00, 
2242.00, 
2243.00, 
2244.00, 
2245.00, 
2246.00, 
2247.00, 
2248.00, 
2249.00, 
2250.00, 
2251.00, 
2252.00, 
2253.00, 
2254.00, 
2255.00, 
2256.00, 
2257.00, 
2258.00, 
2259.00, 
2260.00, 
2261.00, 
2262.00, 
2263.00, 
2264.00, 
2265.00, 
2266.00, 
2267.00, 
2268.00, 
2269.00, 
2270.00, 
2271.00, 
2272.00, 
2273.00, 
2274.00, 
2275.00, 
2276.00, 
2277.00, 
2278.00, 
2279.00, 
2280.00, 
2281.00, 
2282.00, 
2283.00, 
2284.00, 
2285.00, 
2286.00, 
2287.00, 
2288.00, 
2289.00, 
2290.00, 
2291.00, 
2292.00, 
2293.00, 
2294.00, 
2295.00, 
2296.00, 
2297.00, 
2298.00, 
2299.00, 
2300.00, 
2301.00, 
2302.00, 
2303.00, 
2304.00, 
2305.00, 
2306.00, 
2307.00, 
2308.00, 
2309.00, 
2310.00, 
2311.00, 
2312.00, 
2313.00, 
2314.00, 
2315.00, 
2316.00, 
2317.00, 
2318.00, 
2319.00, 
2320.00, 
2321.00, 
2322.00, 
2323.00, 
2324.00, 
2325.00, 
2326.00, 
2327.00, 
2328.00, 
2329.00, 
2330.00, 
2331.00, 
2332.00, 
2333.00, 
2334.00, 
2335.00, 
2336.00, 
2337.00, 
2338.00, 
2339.00, 
2340.00, 
2341.00, 
2342.00, 
2343.00, 
2344.00, 
2345.00, 
2346.00, 
2347.00, 
2348.00, 
2349.00, 
2350.00, 
2351.00, 
2352.00, 
2353.00, 
2354.00, 
2355.00, 
2356.00, 
2357.00, 
2358.00, 
2359.00, 
2360.00, 
2361.00, 
2362.00, 
2363.00, 
2364.00, 
2365.00, 
2366.00, 
2367.00, 
2368.00, 
2369.00, 
2370.00, 
2371.00, 
2372.00, 
2373.00, 
2374.00, 
2375.00, 
2376.00, 
2377.00, 
2378.00, 
2379.00, 
2380.00, 
2381.00, 
2382.00, 
2383.00, 
2384.00, 
2385.00, 
2386.00, 
2387.00, 
2388.00, 
2389.00, 
2390.00, 
2391.00, 
2392.00, 
2393.00, 
2394.00, 
2395.00, 
2396.00, 
2397.00, 
2398.00, 
2399.00, 
2400.00, 
2401.00, 
2402.00, 
2403.00, 
2404.00, 
2405.00, 
2406.00, 
2407.00, 
2408.00, 
2409.00, 
2410.00, 
2411.00, 
2412.00, 
2413.00, 
2414.00, 
2415.00, 
2416.00, 
2417.00, 
2418.00, 
2419.00, 
2420.00, 
2421.00, 
2422.00, 
2423.00, 
2424.00, 
2425.00, 
2426.00, 
2427.00, 
2428.00, 
2429.00, 
2430.00, 
2431.00, 
2432.00, 
2433.00, 
2434.00, 
2435.00, 
2436.00, 
2437.00, 
2438.00, 
2439.00, 
2440.00, 
2441.00, 
2442.00, 
2443.00, 
2444.00, 
2445.00, 
2446.00, 
2447.00, 
2448.00, 
2449.00, 
2450.00, 
2451.00, 
2452.00, 
2453.00, 
2454.00, 
2455.00, 
2456.00, 
2457.00, 
2458.00, 
2459.00, 
2460.00, 
2461.00, 
2462.00, 
2463.00, 
2464.00, 
2465.00, 
2466.00, 
2467.00, 
2468.00, 
2469.00, 
2470.00, 
2471.00, 
2472.00, 
2473.00, 
2474.00, 
2475.00, 
2476.00, 
2477.00, 
2478.00, 
2479.00, 
2480.00, 
2481.00, 
2482.00, 
2483.00, 
2484.00, 
2485.00, 
2486.00, 
2487.00, 
2488.00, 
2489.00, 
2490.00, 
2491.00, 
2492.00, 
2493.00, 
2494.00, 
2495.00, 
2496.00, 
2497.00, 
2498.00, 
2499.00, 
2500.00, 
2501.00, 
2502.00, 
2503.00, 
2504.00, 
2505.00, 
2506.00, 
2507.00, 
2508.00, 
2509.00, 
2510.00, 
2511.00, 
2512.00, 
2513.00, 
2514.00, 
2515.00, 
2516.00, 
2517.00, 
2518.00, 
2519.00, 
2520.00, 
2521.00, 
2522.00, 
2523.00, 
2524.00, 
2525.00, 
2526.00, 
2527.00, 
2528.00, 
2529.00, 
2530.00, 
2531.00, 
2532.00, 
2533.00, 
2534.00, 
2535.00, 
2536.00, 
2537.00, 
2538.00, 
2539.00, 
2540.00, 
2541.00, 
2542.00, 
2543.00, 
2544.00, 
2545.00, 
2546.00, 
2547.00, 
2548.00, 
2549.00, 
2550.00, 
2551.00, 
2552.00, 
2553.00, 
2554.00, 
2555.00, 
2556.00, 
2557.00, 
2558.00, 
2559.00, 
2560.00, 
2561.00, 
2562.00, 
2563.00, 
2564.00, 
2565.00, 
2566.00, 
2567.00, 
2568.00, 
2569.00, 
2570.00, 
2571.00, 
2572.00, 
2573.00, 
2574.00, 
2575.00, 
2576.00, 
2577.00, 
2578.00, 
2579.00, 
2580.00, 
2581.00, 
2582.00, 
2583.00, 
2584.00, 
2585.00, 
2586.00, 
2587.00, 
2588.00, 
2589.00, 
2590.00, 
2591.00, 
2592.00, 
2593.00, 
2594.00, 
2595.00, 
2596.00, 
2597.00, 
2598.00, 
2599.00, 
2600.00, 
