"1cP2 - RawData"
"Wavelength nm.","T%"
200.00,-0.002
201.00,0.006
202.00,0.005
203.00,0.001
204.00,-0.001
205.00,0.003
206.00,-0.000
207.00,0.001
208.00,-0.000
209.00,0.003
210.00,0.004
211.00,0.002
212.00,0.002
213.00,0.001
214.00,0.003
215.00,0.002
216.00,-0.001
217.00,0.000
218.00,0.003
219.00,0.001
220.00,0.002
221.00,0.002
222.00,-0.000
223.00,0.002
224.00,0.002
225.00,0.001
226.00,-0.000
227.00,-0.001
228.00,0.001
229.00,-0.000
230.00,0.002
231.00,-0.000
232.00,0.003
233.00,-0.000
234.00,-0.000
235.00,-0.000
236.00,0.002
237.00,-0.001
238.00,0.000
239.00,-0.001
240.00,0.001
241.00,0.002
242.00,0.001
243.00,0.001
244.00,0.001
245.00,0.001
246.00,-0.000
247.00,0.000
248.00,-0.000
249.00,0.001
250.00,-0.000
251.00,0.001
252.00,0.002
253.00,-0.002
254.00,0.001
255.00,-0.000
256.00,0.001
257.00,-0.000
258.00,-0.000
259.00,-0.000
260.00,0.001
261.00,0.000
262.00,0.001
263.00,0.001
264.00,0.002
265.00,0.001
266.00,-0.001
267.00,-0.001
268.00,0.001
269.00,-0.000
270.00,0.001
271.00,0.000
272.00,-0.000
273.00,0.000
274.00,-0.001
275.00,0.001
276.00,0.001
277.00,0.001
278.00,0.001
279.00,0.001
280.00,0.000
281.00,-0.001
282.00,0.002
283.00,0.001
284.00,0.001
285.00,-0.000
286.00,0.001
287.00,0.001
288.00,-0.000
289.00,0.001
290.00,0.000
291.00,0.003
292.00,0.001
293.00,0.001
294.00,0.000
295.00,0.001
296.00,-0.000
297.00,-0.001
298.00,-0.001
299.00,0.001
300.00,0.001
301.00,0.001
302.00,0.002
303.00,0.002
304.00,0.002
305.00,0.002
306.00,0.003
307.00,0.005
308.00,0.011
309.00,0.024
310.00,0.032
311.00,0.054
312.00,0.079
313.00,0.128
314.00,0.196
315.00,0.279
316.00,0.404
317.00,0.557
318.00,0.788
319.00,1.087
320.00,1.420
321.00,1.861
322.00,2.399
323.00,3.017
324.00,3.691
325.00,4.490
326.00,5.300
327.00,6.341
328.00,7.402
329.00,8.569
330.00,9.762
331.00,11.064
332.00,12.427
333.00,13.925
334.00,15.282
335.00,16.705
336.00,18.222
337.00,19.955
338.00,21.491
339.00,22.888
340.00,24.370
341.00,25.911
342.00,27.284
343.00,28.682
344.00,29.733
345.00,31.273
346.00,32.438
347.00,33.659
348.00,34.838
349.00,35.927
350.00,36.856
351.00,37.907
352.00,38.702
353.00,39.724
354.00,40.624
355.00,41.161
356.00,42.100
357.00,42.637
358.00,43.342
359.00,43.970
360.00,44.736
361.00,44.960
362.00,45.466
363.00,45.966
364.00,46.331
365.00,46.692
366.00,46.916
367.00,47.266
368.00,47.632
369.00,47.579
370.00,48.009
371.00,48.313
372.00,48.348
373.00,48.396
374.00,48.418
375.00,48.384
376.00,48.394
377.00,48.378
378.00,48.479
379.00,48.221
380.00,48.207
381.00,48.268
382.00,48.327
383.00,48.493
384.00,48.762
385.00,49.039
386.00,49.208
387.00,49.599
388.00,49.751
389.00,50.005
390.00,50.260
391.00,50.485
392.00,50.671
393.00,50.583
394.00,50.931
395.00,50.981
396.00,51.180
397.00,51.377
398.00,51.361
399.00,51.536
400.00,51.673
401.00,51.692
402.00,52.057
403.00,51.975
404.00,51.894
405.00,51.850
406.00,51.863
407.00,51.844
408.00,51.783
409.00,51.788
410.00,51.745
411.00,51.698
412.00,51.558
413.00,51.600
414.00,51.653
415.00,51.631
416.00,51.739
417.00,51.755
418.00,51.756
419.00,51.918
420.00,51.948
421.00,51.782
422.00,51.805
423.00,51.742
424.00,51.738
425.00,51.903
426.00,51.831
427.00,51.819
428.00,51.749
429.00,51.809
430.00,51.866
431.00,51.921
432.00,51.846
433.00,51.847
434.00,51.864
435.00,51.867
436.00,51.841
437.00,51.904
438.00,51.950
439.00,51.925
440.00,52.095
441.00,52.086
442.00,52.076
443.00,52.095
444.00,52.161
445.00,52.294
446.00,52.211
447.00,52.280
448.00,52.210
449.00,52.233
450.00,52.357
451.00,52.373
452.00,52.371
453.00,52.401
454.00,52.532
455.00,52.554
456.00,52.626
457.00,52.600
458.00,52.670
459.00,52.746
460.00,52.799
461.00,52.916
462.00,52.882
463.00,52.879
464.00,52.890
465.00,52.978
466.00,53.124
467.00,53.011
468.00,52.983
469.00,53.015
470.00,52.926
471.00,52.908
472.00,52.816
473.00,52.806
474.00,52.828
475.00,52.845
476.00,52.774
477.00,52.826
478.00,52.827
479.00,52.931
480.00,52.977
481.00,53.006
482.00,53.078
483.00,53.148
484.00,53.154
485.00,53.263
486.00,53.322
487.00,53.313
488.00,53.475
489.00,53.661
490.00,53.696
491.00,53.211
492.00,53.330
493.00,53.449
494.00,53.382
495.00,53.456
496.00,53.607
497.00,53.617
498.00,53.540
499.00,53.607
500.00,53.612
501.00,53.586
502.00,53.698
503.00,53.619
504.00,53.591
505.00,53.528
506.00,53.502
507.00,53.648
508.00,53.722
509.00,53.743
510.00,53.679
511.00,53.799
512.00,53.813
513.00,53.736
514.00,53.877
515.00,53.891
516.00,53.778
517.00,53.952
518.00,53.940
519.00,53.661
520.00,53.840
521.00,53.979
522.00,53.740
523.00,53.782
524.00,53.868
525.00,54.030
526.00,54.128
527.00,54.112
528.00,54.171
529.00,54.251
530.00,54.454
531.00,54.297
532.00,54.325
533.00,54.278
534.00,54.253
535.00,54.350
536.00,54.344
537.00,54.263
538.00,54.270
539.00,54.231
540.00,54.269
541.00,54.242
542.00,54.168
543.00,54.228
544.00,54.272
545.00,54.294
546.00,54.429
547.00,54.327
548.00,54.303
549.00,54.294
550.00,54.346
551.00,54.395
552.00,54.361
553.00,54.327
554.00,54.430
555.00,54.356
556.00,54.416
557.00,54.368
558.00,54.476
559.00,54.506
560.00,54.451
561.00,54.502
562.00,54.527
563.00,54.388
564.00,54.477
565.00,54.428
566.00,54.455
567.00,54.483
568.00,54.555
569.00,54.451
570.00,54.460
571.00,54.438
572.00,54.351
573.00,54.373
574.00,54.219
575.00,54.123
576.00,54.215
577.00,54.272
578.00,54.293
579.00,54.262
580.00,54.404
581.00,54.392
582.00,54.384
583.00,54.515
584.00,54.518
585.00,54.403
586.00,54.539
587.00,54.649
588.00,54.471
589.00,54.496
590.00,54.513
591.00,54.235
592.00,54.554
593.00,54.674
594.00,54.486
595.00,54.526
596.00,54.565
597.00,54.530
598.00,54.726
599.00,54.735
600.00,54.411
601.00,54.431
602.00,54.300
603.00,54.381
604.00,54.453
605.00,54.159
606.00,54.169
607.00,54.731
608.00,54.685
609.00,54.541
610.00,54.518
611.00,54.390
612.00,54.416
613.00,54.443
614.00,54.466
615.00,54.366
616.00,54.134
617.00,54.364
618.00,54.283
619.00,54.293
620.00,54.150
621.00,53.924
622.00,54.068
623.00,54.186
624.00,54.355
625.00,54.257
626.00,54.334
627.00,54.207
628.00,54.203
629.00,54.194
630.00,54.051
631.00,53.928
632.00,54.142
633.00,54.204
634.00,54.151
635.00,54.194
636.00,54.115
637.00,54.177
638.00,53.970
639.00,54.134
640.00,54.044
641.00,53.869
642.00,53.999
643.00,54.043
644.00,53.988
645.00,54.095
646.00,54.144
647.00,53.983
648.00,53.944
649.00,54.128
650.00,53.946
651.00,53.917
652.00,53.912
653.00,53.830
654.00,53.762
655.00,54.088
656.00,54.267
657.00,54.067
658.00,53.885
659.00,53.879
660.00,53.947
661.00,53.785
662.00,53.772
663.00,53.844
664.00,54.067
665.00,53.621
666.00,53.667
667.00,53.595
668.00,54.219
669.00,53.810
670.00,53.585
671.00,53.816
672.00,53.927
673.00,53.578
674.00,53.624
675.00,53.559
676.00,53.549
677.00,53.381
678.00,53.603
679.00,53.871
680.00,53.415
681.00,53.454
682.00,53.418
683.00,53.244
684.00,53.181
685.00,53.299
686.00,53.141
687.00,53.067
688.00,53.176
689.00,53.337
690.00,53.241
691.00,53.349
692.00,53.054
693.00,52.825
694.00,53.069
695.00,53.036
696.00,52.910
697.00,52.787
698.00,53.057
699.00,52.824
700.00,52.734
701.00,52.896
702.00,52.945
703.00,52.767
704.00,52.812
705.00,53.193
706.00,52.540
707.00,52.703
708.00,52.417
709.00,52.472
710.00,52.473
711.00,52.357
712.00,52.507
713.00,52.442
714.00,52.364
715.00,52.318
716.00,52.176
717.00,52.307
718.00,52.309
719.00,52.244
720.00,52.346
721.00,57.400
722.00,57.304
723.00,57.414
724.00,57.333
725.00,57.141
726.00,57.077
727.00,56.988
728.00,56.983
729.00,56.845
730.00,56.844
731.00,56.869
732.00,56.681
733.00,56.611
734.00,56.434
735.00,56.492
736.00,56.462
737.00,56.450
738.00,56.313
739.00,56.244
740.00,56.321
741.00,56.140
742.00,56.105
743.00,56.108
744.00,56.065
745.00,55.967
746.00,55.917
747.00,55.733
748.00,55.734
749.00,55.736
750.00,55.528
751.00,55.568
752.00,55.536
753.00,55.234
754.00,55.320
755.00,55.292
756.00,55.120
757.00,55.236
758.00,55.107
759.00,55.124
760.00,54.880
761.00,54.983
762.00,54.787
763.00,54.725
764.00,54.846
765.00,54.734
766.00,54.647
767.00,54.660
768.00,54.774
769.00,54.438
770.00,54.529
771.00,54.440
772.00,54.425
773.00,54.476
774.00,54.474
775.00,54.422
776.00,54.339
777.00,54.381
778.00,54.202
779.00,54.229
780.00,54.339
781.00,54.038
782.00,54.165
783.00,54.014
784.00,53.733
785.00,53.871
786.00,53.821
787.00,53.957
788.00,53.838
789.00,53.897
790.00,53.612
791.00,53.671
792.00,53.559
793.00,53.601
794.00,53.566
795.00,53.405
796.00,53.393
797.00,53.231
798.00,53.187
799.00,53.207
800.00,53.125
801.00,53.099
802.00,53.033
803.00,53.068
804.00,52.992
805.00,52.935
806.00,52.993
807.00,52.971
808.00,52.877
809.00,52.765
810.00,52.852
811.00,52.653
812.00,52.499
813.00,52.709
814.00,52.569
815.00,52.713
816.00,52.505
817.00,52.411
818.00,52.406
819.00,52.653
820.00,52.387
821.00,52.338
822.00,52.370
823.00,52.343
824.00,52.281
825.00,52.331
826.00,52.186
827.00,52.116
828.00,52.247
829.00,52.293
830.00,51.960
831.00,54.348
832.00,54.187
833.00,54.360
834.00,54.226
835.00,54.417
836.00,54.254
837.00,54.211
838.00,54.238
839.00,54.074
840.00,54.043
841.00,54.084
842.00,54.091
843.00,53.922
844.00,53.863
845.00,53.914
846.00,53.897
847.00,53.826
848.00,53.726
849.00,53.804
850.00,53.710
851.00,53.688
852.00,53.603
853.00,53.627
854.00,53.576
855.00,53.583
856.00,53.439
857.00,53.505
858.00,53.363
859.00,53.367
860.00,53.349
861.00,53.231
862.00,53.302
863.00,53.262
864.00,53.253
865.00,53.182
866.00,53.245
867.00,53.189
868.00,53.190
869.00,53.119
870.00,53.266
871.00,53.109
872.00,53.101
873.00,53.007
874.00,53.111
875.00,53.008
876.00,52.942
877.00,52.995
878.00,52.962
879.00,52.904
880.00,52.886
881.00,52.864
882.00,52.851
883.00,52.813
884.00,52.822
885.00,52.786
886.00,52.770
887.00,52.680
888.00,52.634
889.00,52.687
890.00,52.624
891.00,52.587
892.00,52.645
893.00,52.548
894.00,52.569
895.00,52.517
896.00,52.512
897.00,52.495
898.00,52.410
899.00,52.435
900.00,52.398
901.00,52.436
902.00,52.355
903.00,52.323
904.00,52.286
905.00,52.317
906.00,52.265
907.00,52.284
908.00,52.287
909.00,52.217
910.00,52.158
911.00,52.194
912.00,52.148
913.00,52.079
914.00,52.239
915.00,52.053
916.00,52.023
917.00,52.048
918.00,51.996
919.00,51.946
920.00,51.926
921.00,51.969
922.00,51.915
923.00,51.874
924.00,51.862
925.00,51.863
926.00,51.845
927.00,51.829
928.00,51.794
929.00,51.784
930.00,51.732
931.00,51.743
932.00,51.695
933.00,51.688
934.00,51.641
935.00,51.624
936.00,51.629
937.00,51.605
938.00,51.610
939.00,51.562
940.00,51.525
941.00,51.555
942.00,51.530
943.00,51.442
944.00,51.431
945.00,51.417
946.00,51.421
947.00,51.390
948.00,51.364
949.00,51.350
950.00,51.334
951.00,51.310
952.00,51.252
953.00,51.268
954.00,51.216
955.00,51.184
956.00,51.152
957.00,51.151
958.00,51.152
959.00,51.117
960.00,51.032
961.00,51.078
962.00,51.069
963.00,51.027
964.00,51.024
965.00,51.052
966.00,50.993
967.00,50.978
968.00,50.945
969.00,50.979
970.00,50.961
971.00,50.958
972.00,50.959
973.00,50.950
974.00,50.966
975.00,50.956
976.00,50.949
977.00,50.941
978.00,50.979
979.00,50.962
980.00,50.919
981.00,50.987
982.00,50.928
983.00,50.972
984.00,50.931
985.00,50.920
986.00,50.958
987.00,50.919
988.00,50.904
989.00,50.836
990.00,50.869
991.00,50.869
992.00,50.850
993.00,50.826
994.00,50.814
995.00,50.830
996.00,50.776
997.00,50.794
998.00,50.751
999.00,50.745
1000.00,50.698
1001.00,50.722
1002.00,50.801
1003.00,50.679
1004.00,50.701
1005.00,50.657
1006.00,50.676
1007.00,50.637
1008.00,50.629
1009.00,50.636
1010.00,50.593
1011.00,50.640
1012.00,50.589
1013.00,50.583
1014.00,50.561
1015.00,50.557
1016.00,50.561
1017.00,50.501
1018.00,50.511
1019.00,50.484
1020.00,50.478
1021.00,50.449
1022.00,50.436
1023.00,50.408
1024.00,50.395
1025.00,50.392
1026.00,50.373
1027.00,50.358
1028.00,50.336
1029.00,50.337
1030.00,50.311
1031.00,50.290
1032.00,50.319
1033.00,50.246
1034.00,50.236
1035.00,50.211
1036.00,50.205
1037.00,50.174
1038.00,50.180
1039.00,50.145
1040.00,50.117
1041.00,50.099
1042.00,50.095
1043.00,50.080
1044.00,50.106
1045.00,50.071
1046.00,50.092
1047.00,50.136
1048.00,50.102
1049.00,50.134
1050.00,50.144
1051.00,50.155
1052.00,50.194
1053.00,50.186
1054.00,50.188
1055.00,50.169
1056.00,50.195
1057.00,50.199
1058.00,50.165
1059.00,50.180
1060.00,50.207
1061.00,50.198
1062.00,50.171
1063.00,50.151
1064.00,50.145
1065.00,50.134
1066.00,50.129
1067.00,50.105
1068.00,50.139
1069.00,50.111
1070.00,50.106
1071.00,50.107
1072.00,50.089
1073.00,50.076
1074.00,50.072
1075.00,50.063
1076.00,50.048
1077.00,50.037
1078.00,50.030
1079.00,50.047
1080.00,50.023
1081.00,50.014
1082.00,50.037
1083.00,50.028
1084.00,49.985
1085.00,50.007
1086.00,49.989
1087.00,49.970
1088.00,49.955
1089.00,49.961
1090.00,49.960
1091.00,49.969
1092.00,49.946
1093.00,49.955
1094.00,49.937
1095.00,49.934
1096.00,49.914
1097.00,49.904
1098.00,49.891
1099.00,49.880
1100.00,49.872
1101.00,49.871
1102.00,49.863
1103.00,49.861
1104.00,49.842
1105.00,49.839
1106.00,49.829
1107.00,49.811
1108.00,49.799
1109.00,49.789
1110.00,49.798
1111.00,49.792
1112.00,49.780
1113.00,49.784
1114.00,49.759
1115.00,49.776
1116.00,49.738
1117.00,49.736
1118.00,49.732
1119.00,49.747
1120.00,49.736
1121.00,49.730
1122.00,49.736
1123.00,49.695
1124.00,49.733
1125.00,49.686
1126.00,49.713
1127.00,49.694
1128.00,49.687
1129.00,49.679
1130.00,49.676
1131.00,49.669
1132.00,49.667
1133.00,49.666
1134.00,49.663
1135.00,49.634
1136.00,49.627
1137.00,49.665
1138.00,49.671
1139.00,49.649
1140.00,49.641
1141.00,49.631
1142.00,49.631
1143.00,49.645
1144.00,49.606
1145.00,49.629
1146.00,49.616
1147.00,49.618
1148.00,49.656
1149.00,49.632
1150.00,49.628
1151.00,49.601
1152.00,49.595
1153.00,49.620
1154.00,49.600
1155.00,49.607
1156.00,49.595
1157.00,49.586
1158.00,49.596
1159.00,49.599
1160.00,49.600
1161.00,49.602
1162.00,49.628
1163.00,49.599
1164.00,49.600
1165.00,49.603
1166.00,49.592
1167.00,49.573
1168.00,49.599
1169.00,49.580
1170.00,49.605
1171.00,49.575
1172.00,49.572
1173.00,49.599
1174.00,49.570
1175.00,49.590
1176.00,49.591
1177.00,49.585
1178.00,49.559
1179.00,49.586
1180.00,49.577
1181.00,49.604
1182.00,49.588
1183.00,49.585
1184.00,49.589
1185.00,49.596
1186.00,49.581
1187.00,49.602
1188.00,49.604
1189.00,49.580
1190.00,49.595
1191.00,49.548
1192.00,49.594
1193.00,49.577
1194.00,49.586
1195.00,49.584
1196.00,49.561
1197.00,49.590
1198.00,49.574
1199.00,49.603
1200.00,49.593
1201.00,49.606
1202.00,49.575
1203.00,49.597
1204.00,49.595
1205.00,49.593
1206.00,49.594
1207.00,49.595
1208.00,49.606
1209.00,49.601
1210.00,49.620
1211.00,49.582
1212.00,49.601
1213.00,49.581
1214.00,49.607
1215.00,49.621
1216.00,49.569
1217.00,49.608
1218.00,49.603
1219.00,49.614
1220.00,49.606
1221.00,49.614
1222.00,49.623
1223.00,49.619
1224.00,49.634
1225.00,49.625
1226.00,49.656
1227.00,49.610
1228.00,49.641
1229.00,49.649
1230.00,49.685
1231.00,49.674
1232.00,49.651
1233.00,49.683
1234.00,49.699
1235.00,49.713
1236.00,49.704
1237.00,49.721
1238.00,49.699
1239.00,49.707
1240.00,49.682
1241.00,49.707
1242.00,49.723
1243.00,49.718
1244.00,49.706
1245.00,49.732
1246.00,49.763
1247.00,49.750
1248.00,49.762
1249.00,49.758
1250.00,49.764
1251.00,49.734
1252.00,49.740
1253.00,49.766
1254.00,49.773
1255.00,49.764
1256.00,49.792
1257.00,49.737
1258.00,49.799
1259.00,49.797
1260.00,49.816
1261.00,49.830
1262.00,49.824
1263.00,49.828
1264.00,49.816
1265.00,49.829
1266.00,49.825
1267.00,49.871
1268.00,49.853
1269.00,49.864
1270.00,49.866
1271.00,49.876
1272.00,49.876
1273.00,49.885
1274.00,49.901
1275.00,49.904
1276.00,49.906
1277.00,49.923
1278.00,49.931
1279.00,49.919
1280.00,49.941
1281.00,49.957
1282.00,49.939
1283.00,49.964
1284.00,49.952
1285.00,49.948
1286.00,49.951
1287.00,49.963
1288.00,49.953
1289.00,49.949
1290.00,50.002
1291.00,50.006
1292.00,50.009
1293.00,49.994
1294.00,50.029
1295.00,50.027
1296.00,50.016
1297.00,50.017
1298.00,50.034
1299.00,50.034
1300.00,50.062
1301.00,50.058
1302.00,50.112
1303.00,50.071
1304.00,50.066
1305.00,50.080
1306.00,50.129
1307.00,50.077
1308.00,50.074
1309.00,50.112
1310.00,50.121
1311.00,50.127
1312.00,50.119
1313.00,50.145
1314.00,50.155
1315.00,50.169
1316.00,50.176
1317.00,50.170
1318.00,50.185
1319.00,50.197
1320.00,50.199
1321.00,50.389
1322.00,50.372
1323.00,50.339
1324.00,50.357
1325.00,50.373
1326.00,50.356
1327.00,50.392
1328.00,50.356
1329.00,50.383
1330.00,50.372
1331.00,50.373
1332.00,50.384
1333.00,50.394
1334.00,50.438
1335.00,50.437
1336.00,50.500
1337.00,50.507
1338.00,50.588
1339.00,50.599
1340.00,50.669
1341.00,50.739
1342.00,50.793
1343.00,50.832
1344.00,50.874
1345.00,50.918
1346.00,51.054
1347.00,50.999
1348.00,51.004
1349.00,51.060
1350.00,51.097
1351.00,51.069
1352.00,51.042
1353.00,51.177
1354.00,51.122
1355.00,50.912
1356.00,51.217
1357.00,51.084
1358.00,51.389
1359.00,51.074
1360.00,51.192
1361.00,51.559
1362.00,50.986
1363.00,51.422
1364.00,51.098
1365.00,51.262
1366.00,51.774
1367.00,51.237
1368.00,51.161
1369.00,51.321
1370.00,51.059
1371.00,51.157
1372.00,51.163
1373.00,51.329
1374.00,51.201
1375.00,51.291
1376.00,51.095
1377.00,51.238
1378.00,51.530
1379.00,51.211
1380.00,51.676
1381.00,51.436
1382.00,51.152
1383.00,51.294
1384.00,51.134
1385.00,50.990
1386.00,51.224
1387.00,51.000
1388.00,51.151
1389.00,51.098
1390.00,51.256
1391.00,50.967
1392.00,51.115
1393.00,51.417
1394.00,51.125
1395.00,50.926
1396.00,51.152
1397.00,51.283
1398.00,51.230
1399.00,51.105
1400.00,51.079
1401.00,51.205
1402.00,51.320
1403.00,51.253
1404.00,51.311
1405.00,51.257
1406.00,51.201
1407.00,51.186
1408.00,51.169
1409.00,51.243
1410.00,51.279
1411.00,51.300
1412.00,51.899
1413.00,51.289
1414.00,51.278
1415.00,51.311
1416.00,51.327
1417.00,51.311
1418.00,51.316
1419.00,51.345
1420.00,51.357
1421.00,51.426
1422.00,51.344
1423.00,51.451
1424.00,51.407
1425.00,51.435
1426.00,51.489
1427.00,51.481
1428.00,51.483
1429.00,51.561
1430.00,51.532
1431.00,51.507
1432.00,51.608
1433.00,51.545
1434.00,51.585
1435.00,51.623
1436.00,51.574
1437.00,51.676
1438.00,51.605
1439.00,51.698
1440.00,51.657
1441.00,51.719
1442.00,51.727
1443.00,51.673
1444.00,51.948
1445.00,51.746
1446.00,51.815
1447.00,51.833
1448.00,51.844
1449.00,51.834
1450.00,51.871
1451.00,51.903
1452.00,51.903
1453.00,51.913
1454.00,51.929
1455.00,51.952
1456.00,51.971
1457.00,51.984
1458.00,52.019
1459.00,52.014
1460.00,52.048
1461.00,52.068
1462.00,52.073
1463.00,52.116
1464.00,52.113
1465.00,52.128
1466.00,52.130
1467.00,52.163
1468.00,52.177
1469.00,52.198
1470.00,52.236
1471.00,52.208
1472.00,52.220
1473.00,52.244
1474.00,52.261
1475.00,52.276
1476.00,52.299
1477.00,52.285
1478.00,52.332
1479.00,52.326
1480.00,52.330
1481.00,52.354
1482.00,52.391
1483.00,52.382
1484.00,52.430
1485.00,52.403
1486.00,52.434
1487.00,52.475
1488.00,52.452
1489.00,52.484
1490.00,52.492
1491.00,52.506
1492.00,52.529
1493.00,52.509
1494.00,52.551
1495.00,52.554
1496.00,52.557
1497.00,52.552
1498.00,52.580
1499.00,52.591
1500.00,52.610
1501.00, 
1502.00, 
1503.00, 
1504.00, 
1505.00, 
1506.00, 
1507.00, 
1508.00, 
1509.00, 
1510.00, 
1511.00, 
1512.00, 
1513.00, 
1514.00, 
1515.00, 
1516.00, 
1517.00, 
1518.00, 
1519.00, 
1520.00, 
1521.00, 
1522.00, 
1523.00, 
1524.00, 
1525.00, 
1526.00, 
1527.00, 
1528.00, 
1529.00, 
1530.00, 
1531.00, 
1532.00, 
1533.00, 
1534.00, 
1535.00, 
1536.00, 
1537.00, 
1538.00, 
1539.00, 
1540.00, 
1541.00, 
1542.00, 
1543.00, 
1544.00, 
1545.00, 
1546.00, 
1547.00, 
1548.00, 
1549.00, 
1550.00, 
1551.00, 
1552.00, 
1553.00, 
1554.00, 
1555.00, 
1556.00, 
1557.00, 
1558.00, 
1559.00, 
1560.00, 
1561.00, 
1562.00, 
1563.00, 
1564.00, 
1565.00, 
1566.00, 
1567.00, 
1568.00, 
1569.00, 
1570.00, 
1571.00, 
1572.00, 
1573.00, 
1574.00, 
1575.00, 
1576.00, 
1577.00, 
1578.00, 
1579.00, 
1580.00, 
1581.00, 
1582.00, 
1583.00, 
1584.00, 
1585.00, 
1586.00, 
1587.00, 
1588.00, 
1589.00, 
1590.00, 
1591.00, 
1592.00, 
1593.00, 
1594.00, 
1595.00, 
1596.00, 
1597.00, 
1598.00, 
1599.00, 
1600.00, 
1601.00, 
1602.00, 
1603.00, 
1604.00, 
1605.00, 
1606.00, 
1607.00, 
1608.00, 
1609.00, 
1610.00, 
1611.00, 
1612.00, 
1613.00, 
1614.00, 
1615.00, 
1616.00, 
1617.00, 
1618.00, 
1619.00, 
1620.00, 
1621.00, 
1622.00, 
1623.00, 
1624.00, 
1625.00, 
1626.00, 
1627.00, 
1628.00, 
1629.00, 
1630.00, 
1631.00, 
1632.00, 
1633.00, 
1634.00, 
1635.00, 
1636.00, 
1637.00, 
1638.00, 
1639.00, 
1640.00, 
1641.00, 
1642.00, 
1643.00, 
1644.00, 
1645.00, 
1646.00, 
1647.00, 
1648.00, 
1649.00, 
1650.00, 
1651.00, 
1652.00, 
1653.00, 
1654.00, 
1655.00, 
1656.00, 
1657.00, 
1658.00, 
1659.00, 
1660.00, 
1661.00, 
1662.00, 
1663.00, 
1664.00, 
1665.00, 
1666.00, 
1667.00, 
1668.00, 
1669.00, 
1670.00, 
1671.00, 
1672.00, 
1673.00, 
1674.00, 
1675.00, 
1676.00, 
1677.00, 
1678.00, 
1679.00, 
1680.00, 
1681.00, 
1682.00, 
1683.00, 
1684.00, 
1685.00, 
1686.00, 
1687.00, 
1688.00, 
1689.00, 
1690.00, 
1691.00, 
1692.00, 
1693.00, 
1694.00, 
1695.00, 
1696.00, 
1697.00, 
1698.00, 
1699.00, 
1700.00, 
1701.00, 
1702.00, 
1703.00, 
1704.00, 
1705.00, 
1706.00, 
1707.00, 
1708.00, 
1709.00, 
1710.00, 
1711.00, 
1712.00, 
1713.00, 
1714.00, 
1715.00, 
1716.00, 
1717.00, 
1718.00, 
1719.00, 
1720.00, 
1721.00, 
1722.00, 
1723.00, 
1724.00, 
1725.00, 
1726.00, 
1727.00, 
1728.00, 
1729.00, 
1730.00, 
1731.00, 
1732.00, 
1733.00, 
1734.00, 
1735.00, 
1736.00, 
1737.00, 
1738.00, 
1739.00, 
1740.00, 
1741.00, 
1742.00, 
1743.00, 
1744.00, 
1745.00, 
1746.00, 
1747.00, 
1748.00, 
1749.00, 
1750.00, 
1751.00, 
1752.00, 
1753.00, 
1754.00, 
1755.00, 
1756.00, 
1757.00, 
1758.00, 
1759.00, 
1760.00, 
1761.00, 
1762.00, 
1763.00, 
1764.00, 
1765.00, 
1766.00, 
1767.00, 
1768.00, 
1769.00, 
1770.00, 
1771.00, 
1772.00, 
1773.00, 
1774.00, 
1775.00, 
1776.00, 
1777.00, 
1778.00, 
1779.00, 
1780.00, 
1781.00, 
1782.00, 
1783.00, 
1784.00, 
1785.00, 
1786.00, 
1787.00, 
1788.00, 
1789.00, 
1790.00, 
1791.00, 
1792.00, 
1793.00, 
1794.00, 
1795.00, 
1796.00, 
1797.00, 
1798.00, 
1799.00, 
1800.00, 
1801.00, 
1802.00, 
1803.00, 
1804.00, 
1805.00, 
1806.00, 
1807.00, 
1808.00, 
1809.00, 
1810.00, 
1811.00, 
1812.00, 
1813.00, 
1814.00, 
1815.00, 
1816.00, 
1817.00, 
1818.00, 
1819.00, 
1820.00, 
1821.00, 
1822.00, 
1823.00, 
1824.00, 
1825.00, 
1826.00, 
1827.00, 
1828.00, 
1829.00, 
1830.00, 
1831.00, 
1832.00, 
1833.00, 
1834.00, 
1835.00, 
1836.00, 
1837.00, 
1838.00, 
1839.00, 
1840.00, 
1841.00, 
1842.00, 
1843.00, 
1844.00, 
1845.00, 
1846.00, 
1847.00, 
1848.00, 
1849.00, 
1850.00, 
1851.00, 
1852.00, 
1853.00, 
1854.00, 
1855.00, 
1856.00, 
1857.00, 
1858.00, 
1859.00, 
1860.00, 
1861.00, 
1862.00, 
1863.00, 
1864.00, 
1865.00, 
1866.00, 
1867.00, 
1868.00, 
1869.00, 
1870.00, 
1871.00, 
1872.00, 
1873.00, 
1874.00, 
1875.00, 
1876.00, 
1877.00, 
1878.00, 
1879.00, 
1880.00, 
1881.00, 
1882.00, 
1883.00, 
1884.00, 
1885.00, 
1886.00, 
1887.00, 
1888.00, 
1889.00, 
1890.00, 
1891.00, 
1892.00, 
1893.00, 
1894.00, 
1895.00, 
1896.00, 
1897.00, 
1898.00, 
1899.00, 
1900.00, 
1901.00, 
1902.00, 
1903.00, 
1904.00, 
1905.00, 
1906.00, 
1907.00, 
1908.00, 
1909.00, 
1910.00, 
1911.00, 
1912.00, 
1913.00, 
1914.00, 
1915.00, 
1916.00, 
1917.00, 
1918.00, 
1919.00, 
1920.00, 
1921.00, 
1922.00, 
1923.00, 
1924.00, 
1925.00, 
1926.00, 
1927.00, 
1928.00, 
1929.00, 
1930.00, 
1931.00, 
1932.00, 
1933.00, 
1934.00, 
1935.00, 
1936.00, 
1937.00, 
1938.00, 
1939.00, 
1940.00, 
1941.00, 
1942.00, 
1943.00, 
1944.00, 
1945.00, 
1946.00, 
1947.00, 
1948.00, 
1949.00, 
1950.00, 
1951.00, 
1952.00, 
1953.00, 
1954.00, 
1955.00, 
1956.00, 
1957.00, 
1958.00, 
1959.00, 
1960.00, 
1961.00, 
1962.00, 
1963.00, 
1964.00, 
1965.00, 
1966.00, 
1967.00, 
1968.00, 
1969.00, 
1970.00, 
1971.00, 
1972.00, 
1973.00, 
1974.00, 
1975.00, 
1976.00, 
1977.00, 
1978.00, 
1979.00, 
1980.00, 
1981.00, 
1982.00, 
1983.00, 
1984.00, 
1985.00, 
1986.00, 
1987.00, 
1988.00, 
1989.00, 
1990.00, 
1991.00, 
1992.00, 
1993.00, 
1994.00, 
1995.00, 
1996.00, 
1997.00, 
1998.00, 
1999.00, 
2000.00, 
2001.00, 
2002.00, 
2003.00, 
2004.00, 
2005.00, 
2006.00, 
2007.00, 
2008.00, 
2009.00, 
2010.00, 
2011.00, 
2012.00, 
2013.00, 
2014.00, 
2015.00, 
2016.00, 
2017.00, 
2018.00, 
2019.00, 
2020.00, 
2021.00, 
2022.00, 
2023.00, 
2024.00, 
2025.00, 
2026.00, 
2027.00, 
2028.00, 
2029.00, 
2030.00, 
2031.00, 
2032.00, 
2033.00, 
2034.00, 
2035.00, 
2036.00, 
2037.00, 
2038.00, 
2039.00, 
2040.00, 
2041.00, 
2042.00, 
2043.00, 
2044.00, 
2045.00, 
2046.00, 
2047.00, 
2048.00, 
2049.00, 
2050.00, 
2051.00, 
2052.00, 
2053.00, 
2054.00, 
2055.00, 
2056.00, 
2057.00, 
2058.00, 
2059.00, 
2060.00, 
2061.00, 
2062.00, 
2063.00, 
2064.00, 
2065.00, 
2066.00, 
2067.00, 
2068.00, 
2069.00, 
2070.00, 
2071.00, 
2072.00, 
2073.00, 
2074.00, 
2075.00, 
2076.00, 
2077.00, 
2078.00, 
2079.00, 
2080.00, 
2081.00, 
2082.00, 
2083.00, 
2084.00, 
2085.00, 
2086.00, 
2087.00, 
2088.00, 
2089.00, 
2090.00, 
2091.00, 
2092.00, 
2093.00, 
2094.00, 
2095.00, 
2096.00, 
2097.00, 
2098.00, 
2099.00, 
2100.00, 
2101.00, 
2102.00, 
2103.00, 
2104.00, 
2105.00, 
2106.00, 
2107.00, 
2108.00, 
2109.00, 
2110.00, 
2111.00, 
2112.00, 
2113.00, 
2114.00, 
2115.00, 
2116.00, 
2117.00, 
2118.00, 
2119.00, 
2120.00, 
2121.00, 
2122.00, 
2123.00, 
2124.00, 
2125.00, 
2126.00, 
2127.00, 
2128.00, 
2129.00, 
2130.00, 
2131.00, 
2132.00, 
2133.00, 
2134.00, 
2135.00, 
2136.00, 
2137.00, 
2138.00, 
2139.00, 
2140.00, 
2141.00, 
2142.00, 
2143.00, 
2144.00, 
2145.00, 
2146.00, 
2147.00, 
2148.00, 
2149.00, 
2150.00, 
2151.00, 
2152.00, 
2153.00, 
2154.00, 
2155.00, 
2156.00, 
2157.00, 
2158.00, 
2159.00, 
2160.00, 
2161.00, 
2162.00, 
2163.00, 
2164.00, 
2165.00, 
2166.00, 
2167.00, 
2168.00, 
2169.00, 
2170.00, 
2171.00, 
2172.00, 
2173.00, 
2174.00, 
2175.00, 
2176.00, 
2177.00, 
2178.00, 
2179.00, 
2180.00, 
2181.00, 
2182.00, 
2183.00, 
2184.00, 
2185.00, 
2186.00, 
2187.00, 
2188.00, 
2189.00, 
2190.00, 
2191.00, 
2192.00, 
2193.00, 
2194.00, 
2195.00, 
2196.00, 
2197.00, 
2198.00, 
2199.00, 
2200.00, 
2201.00, 
2202.00, 
2203.00, 
2204.00, 
2205.00, 
2206.00, 
2207.00, 
2208.00, 
2209.00, 
2210.00, 
2211.00, 
2212.00, 
2213.00, 
2214.00, 
2215.00, 
2216.00, 
2217.00, 
2218.00, 
2219.00, 
2220.00, 
2221.00, 
2222.00, 
2223.00, 
2224.00, 
2225.00, 
2226.00, 
2227.00, 
2228.00, 
2229.00, 
2230.00, 
2231.00, 
2232.00, 
2233.00, 
2234.00, 
2235.00, 
2236.00, 
2237.00, 
2238.00, 
2239.00, 
2240.00, 
2241.00, 
2242.00, 
2243.00, 
2244.00, 
2245.00, 
2246.00, 
2247.00, 
2248.00, 
2249.00, 
2250.00, 
2251.00, 
2252.00, 
2253.00, 
2254.00, 
2255.00, 
2256.00, 
2257.00, 
2258.00, 
2259.00, 
2260.00, 
2261.00, 
2262.00, 
2263.00, 
2264.00, 
2265.00, 
2266.00, 
2267.00, 
2268.00, 
2269.00, 
2270.00, 
2271.00, 
2272.00, 
2273.00, 
2274.00, 
2275.00, 
2276.00, 
2277.00, 
2278.00, 
2279.00, 
2280.00, 
2281.00, 
2282.00, 
2283.00, 
2284.00, 
2285.00, 
2286.00, 
2287.00, 
2288.00, 
2289.00, 
2290.00, 
2291.00, 
2292.00, 
2293.00, 
2294.00, 
2295.00, 
2296.00, 
2297.00, 
2298.00, 
2299.00, 
2300.00, 
2301.00, 
2302.00, 
2303.00, 
2304.00, 
2305.00, 
2306.00, 
2307.00, 
2308.00, 
2309.00, 
2310.00, 
2311.00, 
2312.00, 
2313.00, 
2314.00, 
2315.00, 
2316.00, 
2317.00, 
2318.00, 
2319.00, 
2320.00, 
2321.00, 
2322.00, 
2323.00, 
2324.00, 
2325.00, 
2326.00, 
2327.00, 
2328.00, 
2329.00, 
2330.00, 
2331.00, 
2332.00, 
2333.00, 
2334.00, 
2335.00, 
2336.00, 
2337.00, 
2338.00, 
2339.00, 
2340.00, 
2341.00, 
2342.00, 
2343.00, 
2344.00, 
2345.00, 
2346.00, 
2347.00, 
2348.00, 
2349.00, 
2350.00, 
2351.00, 
2352.00, 
2353.00, 
2354.00, 
2355.00, 
2356.00, 
2357.00, 
2358.00, 
2359.00, 
2360.00, 
2361.00, 
2362.00, 
2363.00, 
2364.00, 
2365.00, 
2366.00, 
2367.00, 
2368.00, 
2369.00, 
2370.00, 
2371.00, 
2372.00, 
2373.00, 
2374.00, 
2375.00, 
2376.00, 
2377.00, 
2378.00, 
2379.00, 
2380.00, 
2381.00, 
2382.00, 
2383.00, 
2384.00, 
2385.00, 
2386.00, 
2387.00, 
2388.00, 
2389.00, 
2390.00, 
2391.00, 
2392.00, 
2393.00, 
2394.00, 
2395.00, 
2396.00, 
2397.00, 
2398.00, 
2399.00, 
2400.00, 
2401.00, 
2402.00, 
2403.00, 
2404.00, 
2405.00, 
2406.00, 
2407.00, 
2408.00, 
2409.00, 
2410.00, 
2411.00, 
2412.00, 
2413.00, 
2414.00, 
2415.00, 
2416.00, 
2417.00, 
2418.00, 
2419.00, 
2420.00, 
2421.00, 
2422.00, 
2423.00, 
2424.00, 
2425.00, 
2426.00, 
2427.00, 
2428.00, 
2429.00, 
2430.00, 
2431.00, 
2432.00, 
2433.00, 
2434.00, 
2435.00, 
2436.00, 
2437.00, 
2438.00, 
2439.00, 
2440.00, 
2441.00, 
2442.00, 
2443.00, 
2444.00, 
2445.00, 
2446.00, 
2447.00, 
2448.00, 
2449.00, 
2450.00, 
2451.00, 
2452.00, 
2453.00, 
2454.00, 
2455.00, 
2456.00, 
2457.00, 
2458.00, 
2459.00, 
2460.00, 
2461.00, 
2462.00, 
2463.00, 
2464.00, 
2465.00, 
2466.00, 
2467.00, 
2468.00, 
2469.00, 
2470.00, 
2471.00, 
2472.00, 
2473.00, 
2474.00, 
2475.00, 
2476.00, 
2477.00, 
2478.00, 
2479.00, 
2480.00, 
2481.00, 
2482.00, 
2483.00, 
2484.00, 
2485.00, 
2486.00, 
2487.00, 
2488.00, 
2489.00, 
2490.00, 
2491.00, 
2492.00, 
2493.00, 
2494.00, 
2495.00, 
2496.00, 
2497.00, 
2498.00, 
2499.00, 
2500.00, 
2501.00, 
2502.00, 
2503.00, 
2504.00, 
2505.00, 
2506.00, 
2507.00, 
2508.00, 
2509.00, 
2510.00, 
2511.00, 
2512.00, 
2513.00, 
2514.00, 
2515.00, 
2516.00, 
2517.00, 
2518.00, 
2519.00, 
2520.00, 
2521.00, 
2522.00, 
2523.00, 
2524.00, 
2525.00, 
2526.00, 
2527.00, 
2528.00, 
2529.00, 
2530.00, 
2531.00, 
2532.00, 
2533.00, 
2534.00, 
2535.00, 
2536.00, 
2537.00, 
2538.00, 
2539.00, 
2540.00, 
2541.00, 
2542.00, 
2543.00, 
2544.00, 
2545.00, 
2546.00, 
2547.00, 
2548.00, 
2549.00, 
2550.00, 
2551.00, 
2552.00, 
2553.00, 
2554.00, 
2555.00, 
2556.00, 
2557.00, 
2558.00, 
2559.00, 
2560.00, 
2561.00, 
2562.00, 
2563.00, 
2564.00, 
2565.00, 
2566.00, 
2567.00, 
2568.00, 
2569.00, 
2570.00, 
2571.00, 
2572.00, 
2573.00, 
2574.00, 
2575.00, 
2576.00, 
2577.00, 
2578.00, 
2579.00, 
2580.00, 
2581.00, 
2582.00, 
2583.00, 
2584.00, 
2585.00, 
2586.00, 
2587.00, 
2588.00, 
2589.00, 
2590.00, 
2591.00, 
2592.00, 
2593.00, 
2594.00, 
2595.00, 
2596.00, 
2597.00, 
2598.00, 
2599.00, 
2600.00, 
