"1cP5 - RawData"
"Wavelength nm.","T%"
200.00,-0.001
201.00,-0.000
202.00,0.002
203.00,-0.002
204.00,-0.000
205.00,0.001
206.00,0.003
207.00,0.003
208.00,-0.000
209.00,0.002
210.00,0.001
211.00,0.003
212.00,0.002
213.00,-0.001
214.00,-0.002
215.00,0.002
216.00,-0.001
217.00,0.002
218.00,0.003
219.00,-0.001
220.00,-0.002
221.00,0.001
222.00,0.001
223.00,0.000
224.00,-0.001
225.00,0.000
226.00,-0.001
227.00,0.003
228.00,-0.000
229.00,0.000
230.00,-0.001
231.00,0.001
232.00,0.002
233.00,-0.000
234.00,-0.001
235.00,0.003
236.00,0.002
237.00,-0.000
238.00,0.000
239.00,-0.001
240.00,0.001
241.00,0.001
242.00,0.000
243.00,-0.000
244.00,0.002
245.00,-0.000
246.00,0.003
247.00,0.002
248.00,0.001
249.00,0.002
250.00,0.001
251.00,-0.000
252.00,-0.001
253.00,0.002
254.00,-0.000
255.00,-0.000
256.00,0.001
257.00,-0.000
258.00,-0.001
259.00,0.000
260.00,-0.000
261.00,-0.000
262.00,0.001
263.00,-0.000
264.00,-0.001
265.00,0.001
266.00,0.001
267.00,0.001
268.00,0.000
269.00,0.001
270.00,0.000
271.00,0.001
272.00,-0.000
273.00,-0.001
274.00,-0.001
275.00,0.001
276.00,0.001
277.00,-0.000
278.00,-0.000
279.00,0.001
280.00,-0.001
281.00,0.001
282.00,-0.001
283.00,0.001
284.00,0.001
285.00,0.001
286.00,-0.002
287.00,0.002
288.00,-0.000
289.00,0.000
290.00,0.000
291.00,-0.000
292.00,0.003
293.00,0.000
294.00,0.001
295.00,0.002
296.00,0.001
297.00,0.001
298.00,-0.000
299.00,-0.000
300.00,-0.000
301.00,0.001
302.00,0.001
303.00,0.001
304.00,0.003
305.00,0.000
306.00,0.002
307.00,0.001
308.00,0.008
309.00,0.010
310.00,0.021
311.00,0.034
312.00,0.049
313.00,0.074
314.00,0.110
315.00,0.164
316.00,0.244
317.00,0.337
318.00,0.473
319.00,0.649
320.00,0.834
321.00,1.069
322.00,1.391
323.00,1.782
324.00,2.152
325.00,2.633
326.00,3.118
327.00,3.725
328.00,4.364
329.00,5.052
330.00,5.785
331.00,6.489
332.00,7.300
333.00,8.170
334.00,8.999
335.00,9.824
336.00,10.746
337.00,11.773
338.00,12.621
339.00,13.500
340.00,14.310
341.00,15.199
342.00,16.100
343.00,16.953
344.00,17.636
345.00,18.437
346.00,19.091
347.00,19.819
348.00,20.496
349.00,21.032
350.00,21.592
351.00,22.187
352.00,22.695
353.00,23.324
354.00,23.785
355.00,24.216
356.00,24.635
357.00,24.945
358.00,25.335
359.00,25.655
360.00,26.040
361.00,26.227
362.00,26.531
363.00,26.757
364.00,26.864
365.00,27.113
366.00,27.234
367.00,27.348
368.00,27.467
369.00,27.562
370.00,27.603
371.00,27.846
372.00,27.768
373.00,27.843
374.00,27.755
375.00,27.651
376.00,27.639
377.00,27.622
378.00,27.587
379.00,27.351
380.00,27.426
381.00,27.409
382.00,27.398
383.00,27.442
384.00,27.585
385.00,27.635
386.00,27.742
387.00,27.900
388.00,27.957
389.00,28.054
390.00,28.048
391.00,28.301
392.00,28.287
393.00,28.327
394.00,28.447
395.00,28.416
396.00,28.512
397.00,28.512
398.00,28.563
399.00,28.569
400.00,28.634
401.00,28.645
402.00,28.749
403.00,28.708
404.00,28.677
405.00,28.664
406.00,28.650
407.00,28.630
408.00,28.632
409.00,28.468
410.00,28.568
411.00,28.482
412.00,28.407
413.00,28.454
414.00,28.493
415.00,28.473
416.00,28.573
417.00,28.593
418.00,28.615
419.00,28.672
420.00,28.798
421.00,28.690
422.00,28.703
423.00,28.672
424.00,28.731
425.00,28.840
426.00,28.827
427.00,28.855
428.00,28.834
429.00,28.946
430.00,28.914
431.00,29.062
432.00,29.098
433.00,29.108
434.00,29.172
435.00,29.241
436.00,29.253
437.00,29.385
438.00,29.440
439.00,29.512
440.00,29.563
441.00,29.733
442.00,29.798
443.00,29.832
444.00,29.964
445.00,30.012
446.00,30.124
447.00,30.247
448.00,30.265
449.00,30.435
450.00,30.597
451.00,30.655
452.00,30.743
453.00,30.783
454.00,30.946
455.00,31.072
456.00,31.186
457.00,31.312
458.00,31.427
459.00,31.496
460.00,31.676
461.00,31.771
462.00,31.928
463.00,32.018
464.00,32.139
465.00,32.258
466.00,32.462
467.00,32.490
468.00,32.597
469.00,32.679
470.00,32.736
471.00,32.832
472.00,32.919
473.00,32.993
474.00,33.101
475.00,33.196
476.00,33.310
477.00,33.398
478.00,33.531
479.00,33.659
480.00,33.833
481.00,33.916
482.00,34.105
483.00,34.240
484.00,34.403
485.00,34.583
486.00,34.655
487.00,34.767
488.00,35.018
489.00,35.301
490.00,35.420
491.00,35.177
492.00,35.346
493.00,35.458
494.00,35.640
495.00,35.734
496.00,35.920
497.00,35.975
498.00,36.067
499.00,36.220
500.00,36.324
501.00,36.436
502.00,36.546
503.00,36.525
504.00,36.639
505.00,36.839
506.00,36.874
507.00,36.948
508.00,37.087
509.00,37.235
510.00,37.324
511.00,37.398
512.00,37.667
513.00,37.706
514.00,37.673
515.00,37.741
516.00,37.851
517.00,38.070
518.00,38.175
519.00,38.171
520.00,38.300
521.00,38.406
522.00,38.439
523.00,38.526
524.00,38.611
525.00,38.785
526.00,38.965
527.00,38.987
528.00,39.028
529.00,39.210
530.00,39.347
531.00,39.381
532.00,39.435
533.00,39.503
534.00,39.477
535.00,39.605
536.00,39.722
537.00,39.715
538.00,39.805
539.00,39.818
540.00,39.848
541.00,39.932
542.00,39.943
543.00,40.073
544.00,40.115
545.00,40.166
546.00,40.294
547.00,40.288
548.00,40.281
549.00,40.448
550.00,40.492
551.00,40.518
552.00,40.575
553.00,40.614
554.00,40.700
555.00,40.727
556.00,40.800
557.00,40.767
558.00,40.902
559.00,40.925
560.00,40.980
561.00,41.045
562.00,41.117
563.00,41.135
564.00,41.170
565.00,41.154
566.00,41.262
567.00,41.254
568.00,41.288
569.00,41.291
570.00,41.290
571.00,41.274
572.00,41.257
573.00,41.313
574.00,41.283
575.00,41.229
576.00,41.372
577.00,41.413
578.00,41.416
579.00,41.519
580.00,41.706
581.00,41.631
582.00,41.637
583.00,41.795
584.00,41.825
585.00,41.862
586.00,41.961
587.00,41.929
588.00,41.937
589.00,42.033
590.00,41.945
591.00,41.934
592.00,42.141
593.00,42.137
594.00,42.229
595.00,42.352
596.00,42.254
597.00,42.195
598.00,42.522
599.00,42.554
600.00,42.312
601.00,42.337
602.00,42.333
603.00,42.445
604.00,42.487
605.00,42.366
606.00,42.484
607.00,42.712
608.00,42.696
609.00,42.658
610.00,42.674
611.00,42.639
612.00,42.615
613.00,42.723
614.00,42.912
615.00,42.736
616.00,42.557
617.00,42.955
618.00,42.993
619.00,42.910
620.00,43.010
621.00,42.986
622.00,42.948
623.00,43.140
624.00,43.239
625.00,43.217
626.00,43.272
627.00,43.218
628.00,43.283
629.00,43.328
630.00,43.402
631.00,43.297
632.00,43.500
633.00,43.644
634.00,43.511
635.00,43.627
636.00,43.649
637.00,43.744
638.00,43.683
639.00,43.845
640.00,43.813
641.00,43.704
642.00,44.015
643.00,44.116
644.00,44.059
645.00,44.272
646.00,44.272
647.00,44.336
648.00,44.314
649.00,44.381
650.00,44.426
651.00,44.520
652.00,44.496
653.00,44.478
654.00,44.576
655.00,44.781
656.00,45.096
657.00,44.940
658.00,44.982
659.00,44.922
660.00,44.893
661.00,45.011
662.00,45.083
663.00,45.211
664.00,45.457
665.00,45.174
666.00,45.238
667.00,45.419
668.00,45.929
669.00,45.504
670.00,45.531
671.00,45.913
672.00,45.967
673.00,45.797
674.00,45.897
675.00,45.929
676.00,45.955
677.00,45.956
678.00,46.236
679.00,46.544
680.00,46.124
681.00,46.157
682.00,46.391
683.00,46.289
684.00,46.209
685.00,46.455
686.00,46.396
687.00,46.171
688.00,46.474
689.00,46.982
690.00,47.012
691.00,47.047
692.00,46.768
693.00,46.552
694.00,46.800
695.00,47.002
696.00,47.012
697.00,47.033
698.00,47.262
699.00,47.152
700.00,47.110
701.00,47.256
702.00,47.453
703.00,47.504
704.00,47.463
705.00,47.868
706.00,47.526
707.00,47.637
708.00,47.412
709.00,47.559
710.00,47.638
711.00,47.582
712.00,47.813
713.00,47.841
714.00,47.821
715.00,47.988
716.00,47.889
717.00,47.924
718.00,47.968
719.00,48.114
720.00,48.218
721.00,53.048
722.00,52.833
723.00,52.953
724.00,52.959
725.00,52.953
726.00,52.941
727.00,52.853
728.00,52.938
729.00,52.888
730.00,53.005
731.00,52.844
732.00,52.909
733.00,53.038
734.00,52.823
735.00,52.960
736.00,52.990
737.00,53.045
738.00,52.995
739.00,53.007
740.00,53.041
741.00,52.955
742.00,53.038
743.00,53.050
744.00,53.027
745.00,52.991
746.00,52.999
747.00,52.900
748.00,52.947
749.00,53.025
750.00,52.868
751.00,52.920
752.00,52.875
753.00,52.738
754.00,52.808
755.00,52.932
756.00,52.719
757.00,52.831
758.00,52.749
759.00,52.791
760.00,52.721
761.00,52.865
762.00,52.666
763.00,52.732
764.00,52.851
765.00,52.835
766.00,52.792
767.00,52.678
768.00,52.832
769.00,52.514
770.00,52.733
771.00,52.649
772.00,52.655
773.00,52.746
774.00,52.701
775.00,52.800
776.00,52.586
777.00,52.778
778.00,52.623
779.00,52.749
780.00,52.721
781.00,52.553
782.00,52.777
783.00,52.452
784.00,52.554
785.00,52.590
786.00,52.346
787.00,52.489
788.00,52.443
789.00,52.557
790.00,52.412
791.00,52.478
792.00,52.441
793.00,52.484
794.00,52.468
795.00,52.236
796.00,52.396
797.00,52.235
798.00,52.253
799.00,52.186
800.00,52.246
801.00,52.372
802.00,52.073
803.00,52.249
804.00,52.160
805.00,52.027
806.00,52.189
807.00,52.121
808.00,52.155
809.00,51.914
810.00,52.045
811.00,51.906
812.00,51.831
813.00,51.960
814.00,51.895
815.00,51.863
816.00,51.852
817.00,51.776
818.00,51.787
819.00,51.938
820.00,51.701
821.00,51.710
822.00,51.788
823.00,51.709
824.00,51.742
825.00,51.790
826.00,51.696
827.00,51.699
828.00,51.690
829.00,51.633
830.00,51.562
831.00,53.742
832.00,53.947
833.00,53.790
834.00,53.929
835.00,53.973
836.00,53.700
837.00,53.761
838.00,53.780
839.00,53.558
840.00,53.682
841.00,53.672
842.00,53.616
843.00,53.550
844.00,53.570
845.00,53.526
846.00,53.563
847.00,53.476
848.00,53.565
849.00,53.487
850.00,53.308
851.00,53.525
852.00,53.268
853.00,53.253
854.00,53.292
855.00,53.271
856.00,53.195
857.00,53.219
858.00,53.183
859.00,53.226
860.00,53.121
861.00,53.103
862.00,53.138
863.00,53.042
864.00,52.971
865.00,53.061
866.00,53.006
867.00,53.012
868.00,52.962
869.00,52.983
870.00,52.971
871.00,53.021
872.00,52.956
873.00,52.878
874.00,52.902
875.00,52.900
876.00,52.847
877.00,52.893
878.00,52.879
879.00,52.824
880.00,52.768
881.00,52.853
882.00,52.826
883.00,52.742
884.00,52.751
885.00,52.679
886.00,52.693
887.00,52.650
888.00,52.650
889.00,52.599
890.00,52.607
891.00,52.606
892.00,52.607
893.00,52.537
894.00,52.570
895.00,52.475
896.00,52.525
897.00,52.467
898.00,52.375
899.00,52.458
900.00,52.404
901.00,52.466
902.00,52.397
903.00,52.323
904.00,52.335
905.00,52.337
906.00,52.315
907.00,52.315
908.00,52.273
909.00,52.288
910.00,52.244
911.00,52.227
912.00,52.203
913.00,52.159
914.00,52.175
915.00,52.109
916.00,52.069
917.00,52.108
918.00,52.097
919.00,52.071
920.00,51.942
921.00,52.085
922.00,52.018
923.00,52.012
924.00,51.977
925.00,51.970
926.00,51.957
927.00,51.965
928.00,51.888
929.00,51.887
930.00,51.869
931.00,51.855
932.00,51.805
933.00,51.803
934.00,51.776
935.00,51.736
936.00,51.745
937.00,51.738
938.00,51.730
939.00,51.696
940.00,51.675
941.00,51.647
942.00,51.670
943.00,51.545
944.00,51.590
945.00,51.584
946.00,51.567
947.00,51.528
948.00,51.504
949.00,51.487
950.00,51.461
951.00,51.446
952.00,51.406
953.00,51.432
954.00,51.370
955.00,51.323
956.00,51.327
957.00,51.321
958.00,51.315
959.00,51.283
960.00,51.214
961.00,51.248
962.00,51.226
963.00,51.201
964.00,51.179
965.00,51.236
966.00,51.159
967.00,51.164
968.00,51.143
969.00,51.160
970.00,51.139
971.00,51.141
972.00,51.132
973.00,51.112
974.00,51.168
975.00,51.156
976.00,51.115
977.00,51.127
978.00,51.158
979.00,51.131
980.00,51.103
981.00,51.129
982.00,51.102
983.00,51.131
984.00,51.093
985.00,51.093
986.00,51.092
987.00,51.085
988.00,51.085
989.00,51.058
990.00,51.065
991.00,51.050
992.00,51.051
993.00,51.018
994.00,51.000
995.00,51.007
996.00,50.954
997.00,50.980
998.00,50.942
999.00,50.937
1000.00,50.912
1001.00,50.896
1002.00,50.923
1003.00,50.876
1004.00,50.898
1005.00,50.851
1006.00,50.884
1007.00,50.861
1008.00,50.835
1009.00,50.835
1010.00,50.783
1011.00,50.845
1012.00,50.815
1013.00,50.755
1014.00,50.743
1015.00,50.750
1016.00,50.738
1017.00,50.702
1018.00,50.709
1019.00,50.677
1020.00,50.679
1021.00,50.657
1022.00,50.639
1023.00,50.604
1024.00,50.607
1025.00,50.614
1026.00,50.577
1027.00,50.553
1028.00,50.550
1029.00,50.535
1030.00,50.491
1031.00,50.490
1032.00,50.490
1033.00,50.438
1034.00,50.443
1035.00,50.419
1036.00,50.394
1037.00,50.360
1038.00,50.339
1039.00,50.297
1040.00,50.309
1041.00,50.276
1042.00,50.274
1043.00,50.262
1044.00,50.305
1045.00,50.274
1046.00,50.280
1047.00,50.335
1048.00,50.321
1049.00,50.324
1050.00,50.328
1051.00,50.351
1052.00,50.382
1053.00,50.367
1054.00,50.382
1055.00,50.385
1056.00,50.393
1057.00,50.396
1058.00,50.386
1059.00,50.386
1060.00,50.386
1061.00,50.381
1062.00,50.363
1063.00,50.357
1064.00,50.339
1065.00,50.321
1066.00,50.332
1067.00,50.313
1068.00,50.340
1069.00,50.312
1070.00,50.304
1071.00,50.304
1072.00,50.283
1073.00,50.299
1074.00,50.295
1075.00,50.251
1076.00,50.244
1077.00,50.260
1078.00,50.249
1079.00,50.236
1080.00,50.242
1081.00,50.231
1082.00,50.212
1083.00,50.206
1084.00,50.192
1085.00,50.200
1086.00,50.174
1087.00,50.186
1088.00,50.174
1089.00,50.163
1090.00,50.150
1091.00,50.163
1092.00,50.149
1093.00,50.127
1094.00,50.110
1095.00,50.110
1096.00,50.091
1097.00,50.083
1098.00,50.078
1099.00,50.066
1100.00,50.051
1101.00,50.050
1102.00,50.057
1103.00,50.051
1104.00,50.021
1105.00,50.030
1106.00,50.021
1107.00,50.000
1108.00,49.990
1109.00,49.988
1110.00,49.983
1111.00,49.980
1112.00,49.967
1113.00,49.982
1114.00,49.946
1115.00,49.965
1116.00,49.949
1117.00,49.923
1118.00,49.906
1119.00,49.934
1120.00,49.899
1121.00,49.939
1122.00,49.911
1123.00,49.843
1124.00,49.940
1125.00,49.865
1126.00,49.899
1127.00,49.881
1128.00,49.864
1129.00,49.853
1130.00,49.839
1131.00,49.808
1132.00,49.850
1133.00,49.841
1134.00,49.735
1135.00,49.840
1136.00,49.789
1137.00,49.811
1138.00,49.794
1139.00,49.785
1140.00,49.788
1141.00,49.777
1142.00,49.768
1143.00,49.839
1144.00,49.790
1145.00,49.789
1146.00,49.802
1147.00,49.779
1148.00,49.792
1149.00,49.797
1150.00,49.802
1151.00,49.771
1152.00,49.759
1153.00,49.801
1154.00,49.789
1155.00,49.788
1156.00,49.770
1157.00,49.769
1158.00,49.772
1159.00,49.746
1160.00,49.766
1161.00,49.758
1162.00,49.786
1163.00,49.778
1164.00,49.780
1165.00,49.778
1166.00,49.767
1167.00,49.749
1168.00,49.777
1169.00,49.746
1170.00,49.757
1171.00,49.743
1172.00,49.735
1173.00,49.756
1174.00,49.715
1175.00,49.718
1176.00,49.740
1177.00,49.733
1178.00,49.719
1179.00,49.758
1180.00,49.738
1181.00,49.738
1182.00,49.735
1183.00,49.760
1184.00,49.730
1185.00,49.736
1186.00,49.715
1187.00,49.745
1188.00,49.749
1189.00,49.710
1190.00,49.751
1191.00,49.707
1192.00,49.735
1193.00,49.736
1194.00,49.732
1195.00,49.729
1196.00,49.724
1197.00,49.767
1198.00,49.761
1199.00,49.772
1200.00,49.750
1201.00,49.766
1202.00,49.733
1203.00,49.752
1204.00,49.750
1205.00,49.733
1206.00,49.725
1207.00,49.740
1208.00,49.741
1209.00,49.752
1210.00,49.782
1211.00,49.746
1212.00,49.772
1213.00,49.740
1214.00,49.740
1215.00,49.745
1216.00,49.704
1217.00,49.741
1218.00,49.735
1219.00,49.729
1220.00,49.754
1221.00,49.767
1222.00,49.762
1223.00,49.766
1224.00,49.767
1225.00,49.751
1226.00,49.780
1227.00,49.732
1228.00,49.769
1229.00,49.759
1230.00,49.798
1231.00,49.803
1232.00,49.782
1233.00,49.805
1234.00,49.819
1235.00,49.834
1236.00,49.815
1237.00,49.842
1238.00,49.814
1239.00,49.829
1240.00,49.821
1241.00,49.856
1242.00,49.856
1243.00,49.830
1244.00,49.828
1245.00,49.848
1246.00,49.863
1247.00,49.849
1248.00,49.872
1249.00,49.852
1250.00,49.883
1251.00,49.863
1252.00,49.867
1253.00,49.889
1254.00,49.890
1255.00,49.892
1256.00,49.924
1257.00,49.900
1258.00,49.917
1259.00,49.900
1260.00,49.903
1261.00,49.906
1262.00,49.912
1263.00,49.918
1264.00,49.931
1265.00,49.946
1266.00,49.914
1267.00,49.952
1268.00,49.963
1269.00,49.958
1270.00,49.982
1271.00,49.988
1272.00,49.987
1273.00,49.986
1274.00,49.977
1275.00,49.995
1276.00,49.994
1277.00,50.010
1278.00,50.041
1279.00,50.020
1280.00,50.019
1281.00,50.047
1282.00,50.026
1283.00,50.055
1284.00,50.018
1285.00,50.032
1286.00,50.024
1287.00,50.039
1288.00,50.017
1289.00,50.048
1290.00,50.075
1291.00,50.077
1292.00,50.083
1293.00,50.066
1294.00,50.103
1295.00,50.107
1296.00,50.110
1297.00,50.114
1298.00,50.122
1299.00,50.107
1300.00,50.125
1301.00,50.140
1302.00,50.194
1303.00,50.149
1304.00,50.161
1305.00,50.187
1306.00,50.231
1307.00,50.174
1308.00,50.181
1309.00,50.216
1310.00,50.220
1311.00,50.235
1312.00,50.219
1313.00,50.231
1314.00,50.254
1315.00,50.261
1316.00,50.254
1317.00,50.282
1318.00,50.268
1319.00,50.282
1320.00,50.287
1321.00,50.426
1322.00,50.430
1323.00,50.407
1324.00,50.408
1325.00,50.430
1326.00,50.439
1327.00,50.443
1328.00,50.409
1329.00,50.434
1330.00,50.427
1331.00,50.440
1332.00,50.435
1333.00,50.465
1334.00,50.494
1335.00,50.481
1336.00,50.543
1337.00,50.542
1338.00,50.609
1339.00,50.641
1340.00,50.703
1341.00,50.778
1342.00,50.833
1343.00,50.884
1344.00,50.922
1345.00,50.970
1346.00,51.062
1347.00,51.065
1348.00,51.030
1349.00,51.131
1350.00,51.141
1351.00,51.109
1352.00,51.092
1353.00,51.293
1354.00,51.166
1355.00,51.025
1356.00,51.230
1357.00,51.141
1358.00,51.424
1359.00,51.105
1360.00,51.263
1361.00,51.589
1362.00,51.114
1363.00,51.369
1364.00,51.092
1365.00,51.134
1366.00,51.386
1367.00,51.378
1368.00,51.111
1369.00,51.316
1370.00,51.135
1371.00,51.187
1372.00,51.223
1373.00,51.379
1374.00,51.229
1375.00,51.345
1376.00,50.888
1377.00,51.800
1378.00,50.444
1379.00,51.653
1380.00,51.339
1381.00,51.563
1382.00,51.142
1383.00,51.441
1384.00,51.112
1385.00,50.867
1386.00,51.126
1387.00,50.966
1388.00,51.178
1389.00,51.122
1390.00,51.227
1391.00,51.024
1392.00,51.117
1393.00,51.224
1394.00,51.264
1395.00,51.034
1396.00,51.206
1397.00,51.301
1398.00,51.244
1399.00,51.065
1400.00,51.190
1401.00,51.197
1402.00,51.446
1403.00,51.331
1404.00,51.335
1405.00,51.163
1406.00,51.347
1407.00,51.113
1408.00,51.204
1409.00,51.241
1410.00,51.381
1411.00,51.187
1412.00,51.490
1413.00,51.450
1414.00,51.291
1415.00,51.317
1416.00,51.310
1417.00,51.511
1418.00,51.347
1419.00,51.405
1420.00,51.403
1421.00,51.494
1422.00,51.412
1423.00,51.500
1424.00,51.426
1425.00,51.467
1426.00,51.457
1427.00,51.481
1428.00,51.508
1429.00,51.567
1430.00,51.585
1431.00,51.519
1432.00,51.643
1433.00,51.590
1434.00,51.595
1435.00,51.708
1436.00,51.657
1437.00,51.537
1438.00,51.776
1439.00,51.627
1440.00,51.712
1441.00,51.738
1442.00,51.741
1443.00,51.759
1444.00,52.113
1445.00,51.761
1446.00,51.839
1447.00,51.862
1448.00,51.829
1449.00,51.892
1450.00,51.884
1451.00,51.959
1452.00,51.947
1453.00,51.985
1454.00,51.944
1455.00,51.987
1456.00,51.981
1457.00,52.031
1458.00,52.033
1459.00,52.044
1460.00,52.060
1461.00,52.072
1462.00,52.079
1463.00,52.128
1464.00,52.102
1465.00,52.146
1466.00,52.164
1467.00,52.131
1468.00,52.196
1469.00,52.249
1470.00,52.218
1471.00,52.208
1472.00,52.240
1473.00,52.265
1474.00,52.287
1475.00,52.296
1476.00,52.338
1477.00,52.315
1478.00,52.334
1479.00,52.368
1480.00,52.353
1481.00,52.352
1482.00,52.388
1483.00,52.399
1484.00,52.447
1485.00,52.454
1486.00,52.449
1487.00,52.492
1488.00,52.469
1489.00,52.485
1490.00,52.522
1491.00,52.523
1492.00,52.532
1493.00,52.529
1494.00,52.572
1495.00,52.574
1496.00,52.620
1497.00,52.592
1498.00,52.624
1499.00,52.628
1500.00,52.642
1501.00, 
1502.00, 
1503.00, 
1504.00, 
1505.00, 
1506.00, 
1507.00, 
1508.00, 
1509.00, 
1510.00, 
1511.00, 
1512.00, 
1513.00, 
1514.00, 
1515.00, 
1516.00, 
1517.00, 
1518.00, 
1519.00, 
1520.00, 
1521.00, 
1522.00, 
1523.00, 
1524.00, 
1525.00, 
1526.00, 
1527.00, 
1528.00, 
1529.00, 
1530.00, 
1531.00, 
1532.00, 
1533.00, 
1534.00, 
1535.00, 
1536.00, 
1537.00, 
1538.00, 
1539.00, 
1540.00, 
1541.00, 
1542.00, 
1543.00, 
1544.00, 
1545.00, 
1546.00, 
1547.00, 
1548.00, 
1549.00, 
1550.00, 
1551.00, 
1552.00, 
1553.00, 
1554.00, 
1555.00, 
1556.00, 
1557.00, 
1558.00, 
1559.00, 
1560.00, 
1561.00, 
1562.00, 
1563.00, 
1564.00, 
1565.00, 
1566.00, 
1567.00, 
1568.00, 
1569.00, 
1570.00, 
1571.00, 
1572.00, 
1573.00, 
1574.00, 
1575.00, 
1576.00, 
1577.00, 
1578.00, 
1579.00, 
1580.00, 
1581.00, 
1582.00, 
1583.00, 
1584.00, 
1585.00, 
1586.00, 
1587.00, 
1588.00, 
1589.00, 
1590.00, 
1591.00, 
1592.00, 
1593.00, 
1594.00, 
1595.00, 
1596.00, 
1597.00, 
1598.00, 
1599.00, 
1600.00, 
1601.00, 
1602.00, 
1603.00, 
1604.00, 
1605.00, 
1606.00, 
1607.00, 
1608.00, 
1609.00, 
1610.00, 
1611.00, 
1612.00, 
1613.00, 
1614.00, 
1615.00, 
1616.00, 
1617.00, 
1618.00, 
1619.00, 
1620.00, 
1621.00, 
1622.00, 
1623.00, 
1624.00, 
1625.00, 
1626.00, 
1627.00, 
1628.00, 
1629.00, 
1630.00, 
1631.00, 
1632.00, 
1633.00, 
1634.00, 
1635.00, 
1636.00, 
1637.00, 
1638.00, 
1639.00, 
1640.00, 
1641.00, 
1642.00, 
1643.00, 
1644.00, 
1645.00, 
1646.00, 
1647.00, 
1648.00, 
1649.00, 
1650.00, 
1651.00, 
1652.00, 
1653.00, 
1654.00, 
1655.00, 
1656.00, 
1657.00, 
1658.00, 
1659.00, 
1660.00, 
1661.00, 
1662.00, 
1663.00, 
1664.00, 
1665.00, 
1666.00, 
1667.00, 
1668.00, 
1669.00, 
1670.00, 
1671.00, 
1672.00, 
1673.00, 
1674.00, 
1675.00, 
1676.00, 
1677.00, 
1678.00, 
1679.00, 
1680.00, 
1681.00, 
1682.00, 
1683.00, 
1684.00, 
1685.00, 
1686.00, 
1687.00, 
1688.00, 
1689.00, 
1690.00, 
1691.00, 
1692.00, 
1693.00, 
1694.00, 
1695.00, 
1696.00, 
1697.00, 
1698.00, 
1699.00, 
1700.00, 
1701.00, 
1702.00, 
1703.00, 
1704.00, 
1705.00, 
1706.00, 
1707.00, 
1708.00, 
1709.00, 
1710.00, 
1711.00, 
1712.00, 
1713.00, 
1714.00, 
1715.00, 
1716.00, 
1717.00, 
1718.00, 
1719.00, 
1720.00, 
1721.00, 
1722.00, 
1723.00, 
1724.00, 
1725.00, 
1726.00, 
1727.00, 
1728.00, 
1729.00, 
1730.00, 
1731.00, 
1732.00, 
1733.00, 
1734.00, 
1735.00, 
1736.00, 
1737.00, 
1738.00, 
1739.00, 
1740.00, 
1741.00, 
1742.00, 
1743.00, 
1744.00, 
1745.00, 
1746.00, 
1747.00, 
1748.00, 
1749.00, 
1750.00, 
1751.00, 
1752.00, 
1753.00, 
1754.00, 
1755.00, 
1756.00, 
1757.00, 
1758.00, 
1759.00, 
1760.00, 
1761.00, 
1762.00, 
1763.00, 
1764.00, 
1765.00, 
1766.00, 
1767.00, 
1768.00, 
1769.00, 
1770.00, 
1771.00, 
1772.00, 
1773.00, 
1774.00, 
1775.00, 
1776.00, 
1777.00, 
1778.00, 
1779.00, 
1780.00, 
1781.00, 
1782.00, 
1783.00, 
1784.00, 
1785.00, 
1786.00, 
1787.00, 
1788.00, 
1789.00, 
1790.00, 
1791.00, 
1792.00, 
1793.00, 
1794.00, 
1795.00, 
1796.00, 
1797.00, 
1798.00, 
1799.00, 
1800.00, 
1801.00, 
1802.00, 
1803.00, 
1804.00, 
1805.00, 
1806.00, 
1807.00, 
1808.00, 
1809.00, 
1810.00, 
1811.00, 
1812.00, 
1813.00, 
1814.00, 
1815.00, 
1816.00, 
1817.00, 
1818.00, 
1819.00, 
1820.00, 
1821.00, 
1822.00, 
1823.00, 
1824.00, 
1825.00, 
1826.00, 
1827.00, 
1828.00, 
1829.00, 
1830.00, 
1831.00, 
1832.00, 
1833.00, 
1834.00, 
1835.00, 
1836.00, 
1837.00, 
1838.00, 
1839.00, 
1840.00, 
1841.00, 
1842.00, 
1843.00, 
1844.00, 
1845.00, 
1846.00, 
1847.00, 
1848.00, 
1849.00, 
1850.00, 
1851.00, 
1852.00, 
1853.00, 
1854.00, 
1855.00, 
1856.00, 
1857.00, 
1858.00, 
1859.00, 
1860.00, 
1861.00, 
1862.00, 
1863.00, 
1864.00, 
1865.00, 
1866.00, 
1867.00, 
1868.00, 
1869.00, 
1870.00, 
1871.00, 
1872.00, 
1873.00, 
1874.00, 
1875.00, 
1876.00, 
1877.00, 
1878.00, 
1879.00, 
1880.00, 
1881.00, 
1882.00, 
1883.00, 
1884.00, 
1885.00, 
1886.00, 
1887.00, 
1888.00, 
1889.00, 
1890.00, 
1891.00, 
1892.00, 
1893.00, 
1894.00, 
1895.00, 
1896.00, 
1897.00, 
1898.00, 
1899.00, 
1900.00, 
1901.00, 
1902.00, 
1903.00, 
1904.00, 
1905.00, 
1906.00, 
1907.00, 
1908.00, 
1909.00, 
1910.00, 
1911.00, 
1912.00, 
1913.00, 
1914.00, 
1915.00, 
1916.00, 
1917.00, 
1918.00, 
1919.00, 
1920.00, 
1921.00, 
1922.00, 
1923.00, 
1924.00, 
1925.00, 
1926.00, 
1927.00, 
1928.00, 
1929.00, 
1930.00, 
1931.00, 
1932.00, 
1933.00, 
1934.00, 
1935.00, 
1936.00, 
1937.00, 
1938.00, 
1939.00, 
1940.00, 
1941.00, 
1942.00, 
1943.00, 
1944.00, 
1945.00, 
1946.00, 
1947.00, 
1948.00, 
1949.00, 
1950.00, 
1951.00, 
1952.00, 
1953.00, 
1954.00, 
1955.00, 
1956.00, 
1957.00, 
1958.00, 
1959.00, 
1960.00, 
1961.00, 
1962.00, 
1963.00, 
1964.00, 
1965.00, 
1966.00, 
1967.00, 
1968.00, 
1969.00, 
1970.00, 
1971.00, 
1972.00, 
1973.00, 
1974.00, 
1975.00, 
1976.00, 
1977.00, 
1978.00, 
1979.00, 
1980.00, 
1981.00, 
1982.00, 
1983.00, 
1984.00, 
1985.00, 
1986.00, 
1987.00, 
1988.00, 
1989.00, 
1990.00, 
1991.00, 
1992.00, 
1993.00, 
1994.00, 
1995.00, 
1996.00, 
1997.00, 
1998.00, 
1999.00, 
2000.00, 
2001.00, 
2002.00, 
2003.00, 
2004.00, 
2005.00, 
2006.00, 
2007.00, 
2008.00, 
2009.00, 
2010.00, 
2011.00, 
2012.00, 
2013.00, 
2014.00, 
2015.00, 
2016.00, 
2017.00, 
2018.00, 
2019.00, 
2020.00, 
2021.00, 
2022.00, 
2023.00, 
2024.00, 
2025.00, 
2026.00, 
2027.00, 
2028.00, 
2029.00, 
2030.00, 
2031.00, 
2032.00, 
2033.00, 
2034.00, 
2035.00, 
2036.00, 
2037.00, 
2038.00, 
2039.00, 
2040.00, 
2041.00, 
2042.00, 
2043.00, 
2044.00, 
2045.00, 
2046.00, 
2047.00, 
2048.00, 
2049.00, 
2050.00, 
2051.00, 
2052.00, 
2053.00, 
2054.00, 
2055.00, 
2056.00, 
2057.00, 
2058.00, 
2059.00, 
2060.00, 
2061.00, 
2062.00, 
2063.00, 
2064.00, 
2065.00, 
2066.00, 
2067.00, 
2068.00, 
2069.00, 
2070.00, 
2071.00, 
2072.00, 
2073.00, 
2074.00, 
2075.00, 
2076.00, 
2077.00, 
2078.00, 
2079.00, 
2080.00, 
2081.00, 
2082.00, 
2083.00, 
2084.00, 
2085.00, 
2086.00, 
2087.00, 
2088.00, 
2089.00, 
2090.00, 
2091.00, 
2092.00, 
2093.00, 
2094.00, 
2095.00, 
2096.00, 
2097.00, 
2098.00, 
2099.00, 
2100.00, 
2101.00, 
2102.00, 
2103.00, 
2104.00, 
2105.00, 
2106.00, 
2107.00, 
2108.00, 
2109.00, 
2110.00, 
2111.00, 
2112.00, 
2113.00, 
2114.00, 
2115.00, 
2116.00, 
2117.00, 
2118.00, 
2119.00, 
2120.00, 
2121.00, 
2122.00, 
2123.00, 
2124.00, 
2125.00, 
2126.00, 
2127.00, 
2128.00, 
2129.00, 
2130.00, 
2131.00, 
2132.00, 
2133.00, 
2134.00, 
2135.00, 
2136.00, 
2137.00, 
2138.00, 
2139.00, 
2140.00, 
2141.00, 
2142.00, 
2143.00, 
2144.00, 
2145.00, 
2146.00, 
2147.00, 
2148.00, 
2149.00, 
2150.00, 
2151.00, 
2152.00, 
2153.00, 
2154.00, 
2155.00, 
2156.00, 
2157.00, 
2158.00, 
2159.00, 
2160.00, 
2161.00, 
2162.00, 
2163.00, 
2164.00, 
2165.00, 
2166.00, 
2167.00, 
2168.00, 
2169.00, 
2170.00, 
2171.00, 
2172.00, 
2173.00, 
2174.00, 
2175.00, 
2176.00, 
2177.00, 
2178.00, 
2179.00, 
2180.00, 
2181.00, 
2182.00, 
2183.00, 
2184.00, 
2185.00, 
2186.00, 
2187.00, 
2188.00, 
2189.00, 
2190.00, 
2191.00, 
2192.00, 
2193.00, 
2194.00, 
2195.00, 
2196.00, 
2197.00, 
2198.00, 
2199.00, 
2200.00, 
2201.00, 
2202.00, 
2203.00, 
2204.00, 
2205.00, 
2206.00, 
2207.00, 
2208.00, 
2209.00, 
2210.00, 
2211.00, 
2212.00, 
2213.00, 
2214.00, 
2215.00, 
2216.00, 
2217.00, 
2218.00, 
2219.00, 
2220.00, 
2221.00, 
2222.00, 
2223.00, 
2224.00, 
2225.00, 
2226.00, 
2227.00, 
2228.00, 
2229.00, 
2230.00, 
2231.00, 
2232.00, 
2233.00, 
2234.00, 
2235.00, 
2236.00, 
2237.00, 
2238.00, 
2239.00, 
2240.00, 
2241.00, 
2242.00, 
2243.00, 
2244.00, 
2245.00, 
2246.00, 
2247.00, 
2248.00, 
2249.00, 
2250.00, 
2251.00, 
2252.00, 
2253.00, 
2254.00, 
2255.00, 
2256.00, 
2257.00, 
2258.00, 
2259.00, 
2260.00, 
2261.00, 
2262.00, 
2263.00, 
2264.00, 
2265.00, 
2266.00, 
2267.00, 
2268.00, 
2269.00, 
2270.00, 
2271.00, 
2272.00, 
2273.00, 
2274.00, 
2275.00, 
2276.00, 
2277.00, 
2278.00, 
2279.00, 
2280.00, 
2281.00, 
2282.00, 
2283.00, 
2284.00, 
2285.00, 
2286.00, 
2287.00, 
2288.00, 
2289.00, 
2290.00, 
2291.00, 
2292.00, 
2293.00, 
2294.00, 
2295.00, 
2296.00, 
2297.00, 
2298.00, 
2299.00, 
2300.00, 
2301.00, 
2302.00, 
2303.00, 
2304.00, 
2305.00, 
2306.00, 
2307.00, 
2308.00, 
2309.00, 
2310.00, 
2311.00, 
2312.00, 
2313.00, 
2314.00, 
2315.00, 
2316.00, 
2317.00, 
2318.00, 
2319.00, 
2320.00, 
2321.00, 
2322.00, 
2323.00, 
2324.00, 
2325.00, 
2326.00, 
2327.00, 
2328.00, 
2329.00, 
2330.00, 
2331.00, 
2332.00, 
2333.00, 
2334.00, 
2335.00, 
2336.00, 
2337.00, 
2338.00, 
2339.00, 
2340.00, 
2341.00, 
2342.00, 
2343.00, 
2344.00, 
2345.00, 
2346.00, 
2347.00, 
2348.00, 
2349.00, 
2350.00, 
2351.00, 
2352.00, 
2353.00, 
2354.00, 
2355.00, 
2356.00, 
2357.00, 
2358.00, 
2359.00, 
2360.00, 
2361.00, 
2362.00, 
2363.00, 
2364.00, 
2365.00, 
2366.00, 
2367.00, 
2368.00, 
2369.00, 
2370.00, 
2371.00, 
2372.00, 
2373.00, 
2374.00, 
2375.00, 
2376.00, 
2377.00, 
2378.00, 
2379.00, 
2380.00, 
2381.00, 
2382.00, 
2383.00, 
2384.00, 
2385.00, 
2386.00, 
2387.00, 
2388.00, 
2389.00, 
2390.00, 
2391.00, 
2392.00, 
2393.00, 
2394.00, 
2395.00, 
2396.00, 
2397.00, 
2398.00, 
2399.00, 
2400.00, 
2401.00, 
2402.00, 
2403.00, 
2404.00, 
2405.00, 
2406.00, 
2407.00, 
2408.00, 
2409.00, 
2410.00, 
2411.00, 
2412.00, 
2413.00, 
2414.00, 
2415.00, 
2416.00, 
2417.00, 
2418.00, 
2419.00, 
2420.00, 
2421.00, 
2422.00, 
2423.00, 
2424.00, 
2425.00, 
2426.00, 
2427.00, 
2428.00, 
2429.00, 
2430.00, 
2431.00, 
2432.00, 
2433.00, 
2434.00, 
2435.00, 
2436.00, 
2437.00, 
2438.00, 
2439.00, 
2440.00, 
2441.00, 
2442.00, 
2443.00, 
2444.00, 
2445.00, 
2446.00, 
2447.00, 
2448.00, 
2449.00, 
2450.00, 
2451.00, 
2452.00, 
2453.00, 
2454.00, 
2455.00, 
2456.00, 
2457.00, 
2458.00, 
2459.00, 
2460.00, 
2461.00, 
2462.00, 
2463.00, 
2464.00, 
2465.00, 
2466.00, 
2467.00, 
2468.00, 
2469.00, 
2470.00, 
2471.00, 
2472.00, 
2473.00, 
2474.00, 
2475.00, 
2476.00, 
2477.00, 
2478.00, 
2479.00, 
2480.00, 
2481.00, 
2482.00, 
2483.00, 
2484.00, 
2485.00, 
2486.00, 
2487.00, 
2488.00, 
2489.00, 
2490.00, 
2491.00, 
2492.00, 
2493.00, 
2494.00, 
2495.00, 
2496.00, 
2497.00, 
2498.00, 
2499.00, 
2500.00, 
2501.00, 
2502.00, 
2503.00, 
2504.00, 
2505.00, 
2506.00, 
2507.00, 
2508.00, 
2509.00, 
2510.00, 
2511.00, 
2512.00, 
2513.00, 
2514.00, 
2515.00, 
2516.00, 
2517.00, 
2518.00, 
2519.00, 
2520.00, 
2521.00, 
2522.00, 
2523.00, 
2524.00, 
2525.00, 
2526.00, 
2527.00, 
2528.00, 
2529.00, 
2530.00, 
2531.00, 
2532.00, 
2533.00, 
2534.00, 
2535.00, 
2536.00, 
2537.00, 
2538.00, 
2539.00, 
2540.00, 
2541.00, 
2542.00, 
2543.00, 
2544.00, 
2545.00, 
2546.00, 
2547.00, 
2548.00, 
2549.00, 
2550.00, 
2551.00, 
2552.00, 
2553.00, 
2554.00, 
2555.00, 
2556.00, 
2557.00, 
2558.00, 
2559.00, 
2560.00, 
2561.00, 
2562.00, 
2563.00, 
2564.00, 
2565.00, 
2566.00, 
2567.00, 
2568.00, 
2569.00, 
2570.00, 
2571.00, 
2572.00, 
2573.00, 
2574.00, 
2575.00, 
2576.00, 
2577.00, 
2578.00, 
2579.00, 
2580.00, 
2581.00, 
2582.00, 
2583.00, 
2584.00, 
2585.00, 
2586.00, 
2587.00, 
2588.00, 
2589.00, 
2590.00, 
2591.00, 
2592.00, 
2593.00, 
2594.00, 
2595.00, 
2596.00, 
2597.00, 
2598.00, 
2599.00, 
2600.00, 
