"2aP2 - RawData"
"Wavelength nm.","T%"
200.00,0.003
201.00,0.001
202.00,0.001
203.00,0.002
204.00,0.004
205.00,0.002
206.00,0.003
207.00,0.001
208.00,0.003
209.00,0.002
210.00,0.004
211.00,0.004
212.00,0.001
213.00,0.004
214.00,-0.000
215.00,0.002
216.00,0.003
217.00,0.003
218.00,0.004
219.00,0.001
220.00,0.000
221.00,0.000
222.00,0.003
223.00,0.004
224.00,0.003
225.00,0.003
226.00,0.002
227.00,-0.000
228.00,0.003
229.00,0.002
230.00,0.005
231.00,-0.001
232.00,0.003
233.00,0.001
234.00,0.002
235.00,0.002
236.00,0.003
237.00,0.001
238.00,0.002
239.00,0.001
240.00,-0.000
241.00,0.001
242.00,0.002
243.00,0.004
244.00,0.002
245.00,-0.000
246.00,-0.000
247.00,0.003
248.00,0.001
249.00,0.003
250.00,0.000
251.00,0.001
252.00,0.001
253.00,0.001
254.00,0.003
255.00,-0.000
256.00,0.002
257.00,-0.000
258.00,-0.001
259.00,0.001
260.00,0.001
261.00,-0.000
262.00,0.002
263.00,0.000
264.00,0.001
265.00,0.002
266.00,-0.001
267.00,0.002
268.00,-0.001
269.00,0.001
270.00,0.000
271.00,0.002
272.00,0.001
273.00,0.001
274.00,0.001
275.00,-0.000
276.00,0.000
277.00,-0.000
278.00,-0.000
279.00,0.000
280.00,0.001
281.00,-0.000
282.00,0.001
283.00,0.000
284.00,0.000
285.00,0.000
286.00,0.001
287.00,0.001
288.00,0.000
289.00,0.001
290.00,-0.002
291.00,0.000
292.00,-0.001
293.00,-0.002
294.00,0.001
295.00,-0.001
296.00,0.001
297.00,-0.002
298.00,0.002
299.00,0.002
300.00,0.003
301.00,0.002
302.00,0.005
303.00,0.009
304.00,0.012
305.00,0.021
306.00,0.034
307.00,0.044
308.00,0.077
309.00,0.113
310.00,0.165
311.00,0.225
312.00,0.306
313.00,0.407
314.00,0.541
315.00,0.699
316.00,0.881
317.00,1.122
318.00,1.385
319.00,1.735
320.00,2.089
321.00,2.477
322.00,2.965
323.00,3.482
324.00,4.044
325.00,4.612
326.00,5.214
327.00,5.869
328.00,6.573
329.00,7.319
330.00,8.025
331.00,8.716
332.00,9.528
333.00,10.224
334.00,10.990
335.00,11.790
336.00,12.522
337.00,13.375
338.00,14.106
339.00,14.737
340.00,15.513
341.00,16.293
342.00,16.946
343.00,17.568
344.00,18.122
345.00,18.706
346.00,19.221
347.00,19.824
348.00,20.284
349.00,20.724
350.00,21.180
351.00,21.669
352.00,21.947
353.00,22.420
354.00,22.802
355.00,23.033
356.00,23.466
357.00,23.633
358.00,23.911
359.00,24.169
360.00,24.527
361.00,24.660
362.00,24.852
363.00,25.046
364.00,25.153
365.00,25.291
366.00,25.412
367.00,25.561
368.00,25.658
369.00,25.709
370.00,25.756
371.00,25.845
372.00,25.811
373.00,25.906
374.00,25.922
375.00,25.894
376.00,25.851
377.00,25.860
378.00,25.849
379.00,25.672
380.00,25.746
381.00,25.719
382.00,25.681
383.00,25.720
384.00,25.793
385.00,25.851
386.00,25.937
387.00,25.915
388.00,26.103
389.00,26.073
390.00,26.133
391.00,26.194
392.00,26.207
393.00,26.191
394.00,26.264
395.00,26.229
396.00,26.318
397.00,26.231
398.00,26.349
399.00,26.401
400.00,26.419
401.00,26.396
402.00,26.566
403.00,26.473
404.00,26.459
405.00,26.483
406.00,26.501
407.00,26.440
408.00,26.440
409.00,26.322
410.00,26.354
411.00,26.335
412.00,26.333
413.00,26.383
414.00,26.389
415.00,26.418
416.00,26.467
417.00,26.477
418.00,26.509
419.00,26.591
420.00,26.685
421.00,26.559
422.00,26.586
423.00,26.611
424.00,26.680
425.00,26.664
426.00,26.770
427.00,26.858
428.00,26.806
429.00,26.906
430.00,26.944
431.00,27.016
432.00,27.092
433.00,27.120
434.00,27.187
435.00,27.295
436.00,27.275
437.00,27.453
438.00,27.474
439.00,27.483
440.00,27.630
441.00,27.773
442.00,27.852
443.00,27.930
444.00,28.020
445.00,28.143
446.00,28.213
447.00,28.307
448.00,28.416
449.00,28.498
450.00,28.623
451.00,28.695
452.00,28.861
453.00,28.901
454.00,29.054
455.00,29.184
456.00,29.244
457.00,29.378
458.00,29.504
459.00,29.607
460.00,29.808
461.00,29.900
462.00,30.033
463.00,30.141
464.00,30.206
465.00,30.380
466.00,30.525
467.00,30.626
468.00,30.681
469.00,30.844
470.00,30.914
471.00,31.012
472.00,31.103
473.00,31.195
474.00,31.288
475.00,31.416
476.00,31.474
477.00,31.642
478.00,31.760
479.00,31.898
480.00,32.015
481.00,32.180
482.00,32.398
483.00,32.431
484.00,32.629
485.00,32.816
486.00,32.974
487.00,33.108
488.00,33.275
489.00,33.518
490.00,33.656
491.00,33.492
492.00,33.653
493.00,33.800
494.00,33.904
495.00,34.072
496.00,34.211
497.00,34.335
498.00,34.407
499.00,34.509
500.00,34.659
501.00,34.819
502.00,34.899
503.00,34.952
504.00,35.117
505.00,35.245
506.00,35.231
507.00,35.400
508.00,35.577
509.00,35.694
510.00,35.757
511.00,35.870
512.00,35.983
513.00,36.092
514.00,36.180
515.00,36.319
516.00,36.397
517.00,36.461
518.00,36.506
519.00,36.516
520.00,36.700
521.00,36.821
522.00,36.856
523.00,36.984
524.00,37.091
525.00,37.217
526.00,37.374
527.00,37.390
528.00,37.510
529.00,37.625
530.00,37.793
531.00,37.791
532.00,37.821
533.00,37.937
534.00,37.999
535.00,38.084
536.00,38.190
537.00,38.180
538.00,38.311
539.00,38.248
540.00,38.352
541.00,38.406
542.00,38.426
543.00,38.566
544.00,38.626
545.00,38.716
546.00,38.774
547.00,38.770
548.00,38.839
549.00,38.938
550.00,39.028
551.00,39.081
552.00,39.052
553.00,39.119
554.00,39.248
555.00,39.302
556.00,39.295
557.00,39.369
558.00,39.474
559.00,39.441
560.00,39.630
561.00,39.574
562.00,39.617
563.00,39.649
564.00,39.809
565.00,39.644
566.00,39.819
567.00,39.831
568.00,39.868
569.00,39.843
570.00,39.935
571.00,39.802
572.00,39.900
573.00,39.973
574.00,39.954
575.00,39.910
576.00,39.967
577.00,40.027
578.00,40.138
579.00,40.186
580.00,40.306
581.00,40.353
582.00,40.390
583.00,40.486
584.00,40.490
585.00,40.534
586.00,40.590
587.00,40.676
588.00,40.692
589.00,40.729
590.00,40.763
591.00,40.682
592.00,40.914
593.00,40.938
594.00,40.954
595.00,41.104
596.00,41.042
597.00,41.006
598.00,41.259
599.00,41.250
600.00,41.218
601.00,41.198
602.00,41.133
603.00,41.223
604.00,41.223
605.00,41.264
606.00,41.316
607.00,41.507
608.00,41.506
609.00,41.599
610.00,41.574
611.00,41.531
612.00,41.576
613.00,41.606
614.00,41.731
615.00,41.758
616.00,41.690
617.00,41.788
618.00,41.875
619.00,41.844
620.00,41.871
621.00,41.917
622.00,42.067
623.00,42.193
624.00,42.205
625.00,42.257
626.00,42.355
627.00,42.224
628.00,42.286
629.00,42.347
630.00,42.337
631.00,42.487
632.00,42.616
633.00,42.726
634.00,42.677
635.00,42.766
636.00,42.910
637.00,42.969
638.00,42.947
639.00,43.085
640.00,43.035
641.00,43.020
642.00,43.231
643.00,43.374
644.00,43.392
645.00,43.579
646.00,43.527
647.00,43.640
648.00,43.673
649.00,43.820
650.00,43.831
651.00,43.958
652.00,43.871
653.00,43.975
654.00,43.981
655.00,44.331
656.00,44.533
657.00,44.435
658.00,44.372
659.00,44.427
660.00,44.612
661.00,44.574
662.00,44.663
663.00,44.724
664.00,44.975
665.00,44.708
666.00,44.923
667.00,45.133
668.00,45.530
669.00,45.126
670.00,45.314
671.00,45.530
672.00,45.662
673.00,45.370
674.00,45.742
675.00,45.658
676.00,45.544
677.00,45.807
678.00,45.995
679.00,46.140
680.00,45.934
681.00,45.996
682.00,46.016
683.00,46.116
684.00,46.395
685.00,46.268
686.00,46.376
687.00,46.397
688.00,46.606
689.00,46.754
690.00,46.786
691.00,46.967
692.00,46.710
693.00,46.574
694.00,46.895
695.00,47.109
696.00,46.975
697.00,47.015
698.00,47.363
699.00,47.192
700.00,47.251
701.00,47.288
702.00,47.488
703.00,47.531
704.00,47.710
705.00,48.130
706.00,47.638
707.00,47.878
708.00,47.729
709.00,47.781
710.00,47.923
711.00,47.749
712.00,48.162
713.00,48.184
714.00,48.139
715.00,48.225
716.00,48.051
717.00,48.300
718.00,48.409
719.00,48.504
720.00,48.615
721.00,53.506
722.00,53.494
723.00,53.501
724.00,53.536
725.00,53.586
726.00,53.482
727.00,53.431
728.00,53.512
729.00,53.556
730.00,53.586
731.00,53.592
732.00,53.562
733.00,53.555
734.00,53.507
735.00,53.647
736.00,53.549
737.00,53.686
738.00,53.730
739.00,53.801
740.00,53.856
741.00,53.607
742.00,53.837
743.00,53.830
744.00,53.747
745.00,53.900
746.00,53.873
747.00,53.735
748.00,53.937
749.00,53.954
750.00,53.698
751.00,53.815
752.00,53.735
753.00,53.790
754.00,53.754
755.00,53.816
756.00,53.670
757.00,53.734
758.00,53.713
759.00,53.866
760.00,53.624
761.00,53.809
762.00,53.737
763.00,53.792
764.00,53.822
765.00,53.798
766.00,53.734
767.00,53.802
768.00,53.952
769.00,53.758
770.00,53.784
771.00,53.820
772.00,53.806
773.00,53.915
774.00,53.908
775.00,53.922
776.00,53.839
777.00,53.912
778.00,53.735
779.00,53.959
780.00,53.780
781.00,53.778
782.00,53.921
783.00,53.814
784.00,53.796
785.00,53.765
786.00,53.770
787.00,53.848
788.00,53.747
789.00,53.849
790.00,53.758
791.00,53.721
792.00,53.723
793.00,53.771
794.00,53.617
795.00,53.488
796.00,53.675
797.00,53.479
798.00,53.677
799.00,53.605
800.00,53.505
801.00,53.582
802.00,53.403
803.00,53.598
804.00,53.448
805.00,53.404
806.00,53.553
807.00,53.394
808.00,53.444
809.00,53.317
810.00,53.405
811.00,53.367
812.00,53.307
813.00,53.399
814.00,53.200
815.00,53.481
816.00,53.338
817.00,53.151
818.00,53.136
819.00,53.376
820.00,53.219
821.00,53.089
822.00,53.332
823.00,53.245
824.00,53.302
825.00,53.135
826.00,53.065
827.00,53.192
828.00,53.219
829.00,53.253
830.00,53.058
831.00,55.167
832.00,55.103
833.00,55.090
834.00,55.204
835.00,55.220
836.00,55.276
837.00,55.261
838.00,55.150
839.00,55.087
840.00,55.021
841.00,54.960
842.00,55.059
843.00,54.953
844.00,54.944
845.00,54.857
846.00,54.878
847.00,54.769
848.00,55.001
849.00,54.804
850.00,54.755
851.00,54.761
852.00,54.664
853.00,54.645
854.00,54.639
855.00,54.683
856.00,54.667
857.00,54.661
858.00,54.567
859.00,54.536
860.00,54.490
861.00,54.640
862.00,54.470
863.00,54.448
864.00,54.450
865.00,54.463
866.00,54.391
867.00,54.411
868.00,54.369
869.00,54.369
870.00,54.459
871.00,54.410
872.00,54.331
873.00,54.309
874.00,54.335
875.00,54.366
876.00,54.358
877.00,54.294
878.00,54.374
879.00,54.270
880.00,54.225
881.00,54.269
882.00,54.189
883.00,54.226
884.00,54.188
885.00,54.149
886.00,54.124
887.00,54.112
888.00,54.135
889.00,54.121
890.00,54.038
891.00,54.159
892.00,54.087
893.00,54.002
894.00,54.031
895.00,53.952
896.00,53.973
897.00,53.934
898.00,53.860
899.00,53.904
900.00,53.906
901.00,53.932
902.00,53.912
903.00,53.867
904.00,53.741
905.00,53.891
906.00,53.815
907.00,53.807
908.00,53.737
909.00,53.776
910.00,53.708
911.00,53.743
912.00,53.713
913.00,53.651
914.00,53.678
915.00,53.629
916.00,53.602
917.00,53.592
918.00,53.545
919.00,53.566
920.00,53.488
921.00,53.510
922.00,53.490
923.00,53.481
924.00,53.467
925.00,53.447
926.00,53.438
927.00,53.420
928.00,53.380
929.00,53.394
930.00,53.372
931.00,53.329
932.00,53.326
933.00,53.304
934.00,53.302
935.00,53.237
936.00,53.259
937.00,53.254
938.00,53.247
939.00,53.209
940.00,53.206
941.00,53.208
942.00,53.165
943.00,53.093
944.00,53.105
945.00,53.087
946.00,53.092
947.00,53.048
948.00,53.036
949.00,53.020
950.00,53.018
951.00,52.981
952.00,52.956
953.00,52.940
954.00,52.901
955.00,52.858
956.00,52.848
957.00,52.837
958.00,52.832
959.00,52.802
960.00,52.742
961.00,52.784
962.00,52.828
963.00,52.729
964.00,52.717
965.00,52.727
966.00,52.675
967.00,52.659
968.00,52.640
969.00,52.673
970.00,52.656
971.00,52.652
972.00,52.653
973.00,52.627
974.00,52.675
975.00,52.652
976.00,52.638
977.00,52.667
978.00,52.664
979.00,52.658
980.00,52.629
981.00,52.663
982.00,52.625
983.00,52.638
984.00,52.615
985.00,52.619
986.00,52.602
987.00,52.612
988.00,52.594
989.00,52.574
990.00,52.571
991.00,52.528
992.00,52.553
993.00,52.534
994.00,52.502
995.00,52.520
996.00,52.458
997.00,52.466
998.00,52.452
999.00,52.442
1000.00,52.432
1001.00,52.429
1002.00,52.442
1003.00,52.390
1004.00,52.398
1005.00,52.370
1006.00,52.380
1007.00,52.347
1008.00,52.367
1009.00,52.349
1010.00,52.286
1011.00,52.330
1012.00,52.268
1013.00,52.259
1014.00,52.257
1015.00,52.258
1016.00,52.239
1017.00,52.198
1018.00,52.210
1019.00,52.174
1020.00,52.187
1021.00,52.140
1022.00,52.141
1023.00,52.116
1024.00,52.081
1025.00,52.091
1026.00,52.069
1027.00,52.045
1028.00,52.034
1029.00,52.044
1030.00,51.993
1031.00,51.981
1032.00,52.004
1033.00,51.980
1034.00,51.950
1035.00,51.900
1036.00,51.929
1037.00,51.888
1038.00,51.836
1039.00,51.827
1040.00,51.838
1041.00,51.798
1042.00,51.787
1043.00,51.783
1044.00,51.816
1045.00,51.777
1046.00,51.784
1047.00,51.829
1048.00,51.807
1049.00,51.796
1050.00,51.826
1051.00,51.846
1052.00,51.833
1053.00,51.866
1054.00,51.876
1055.00,51.868
1056.00,51.871
1057.00,51.883
1058.00,51.882
1059.00,51.854
1060.00,51.872
1061.00,51.855
1062.00,51.842
1063.00,51.816
1064.00,51.820
1065.00,51.814
1066.00,51.797
1067.00,51.797
1068.00,51.840
1069.00,51.831
1070.00,51.772
1071.00,51.764
1072.00,51.748
1073.00,51.750
1074.00,51.715
1075.00,51.735
1076.00,51.734
1077.00,51.713
1078.00,51.696
1079.00,51.698
1080.00,51.688
1081.00,51.672
1082.00,51.650
1083.00,51.655
1084.00,51.661
1085.00,51.654
1086.00,51.657
1087.00,51.672
1088.00,51.660
1089.00,51.634
1090.00,51.634
1091.00,51.653
1092.00,51.630
1093.00,51.607
1094.00,51.589
1095.00,51.590
1096.00,51.545
1097.00,51.527
1098.00,51.535
1099.00,51.528
1100.00,51.512
1101.00,51.503
1102.00,51.525
1103.00,51.513
1104.00,51.480
1105.00,51.474
1106.00,51.469
1107.00,51.441
1108.00,51.434
1109.00,51.423
1110.00,51.428
1111.00,51.421
1112.00,51.409
1113.00,51.449
1114.00,51.431
1115.00,51.421
1116.00,51.392
1117.00,51.399
1118.00,51.359
1119.00,51.377
1120.00,51.351
1121.00,51.326
1122.00,51.345
1123.00,51.304
1124.00,51.330
1125.00,51.315
1126.00,51.315
1127.00,51.284
1128.00,51.292
1129.00,51.267
1130.00,51.285
1131.00,51.276
1132.00,51.270
1133.00,51.283
1134.00,51.236
1135.00,51.220
1136.00,51.253
1137.00,51.243
1138.00,51.235
1139.00,51.255
1140.00,51.198
1141.00,51.173
1142.00,51.196
1143.00,51.234
1144.00,51.188
1145.00,51.202
1146.00,51.197
1147.00,51.183
1148.00,51.177
1149.00,51.164
1150.00,51.199
1151.00,51.137
1152.00,51.130
1153.00,51.183
1154.00,51.173
1155.00,51.157
1156.00,51.159
1157.00,51.190
1158.00,51.169
1159.00,51.149
1160.00,51.175
1161.00,51.167
1162.00,51.161
1163.00,51.146
1164.00,51.179
1165.00,51.168
1166.00,51.149
1167.00,51.134
1168.00,51.158
1169.00,51.118
1170.00,51.143
1171.00,51.126
1172.00,51.132
1173.00,51.131
1174.00,51.107
1175.00,51.142
1176.00,51.140
1177.00,51.133
1178.00,51.105
1179.00,51.137
1180.00,51.099
1181.00,51.112
1182.00,51.098
1183.00,51.116
1184.00,51.093
1185.00,51.095
1186.00,51.082
1187.00,51.105
1188.00,51.121
1189.00,51.083
1190.00,51.105
1191.00,51.063
1192.00,51.086
1193.00,51.070
1194.00,51.081
1195.00,51.063
1196.00,51.055
1197.00,51.086
1198.00,51.084
1199.00,51.098
1200.00,51.060
1201.00,51.103
1202.00,51.076
1203.00,51.090
1204.00,51.078
1205.00,51.081
1206.00,51.057
1207.00,51.073
1208.00,51.088
1209.00,51.078
1210.00,51.088
1211.00,51.060
1212.00,51.087
1213.00,51.071
1214.00,51.072
1215.00,51.083
1216.00,51.058
1217.00,51.064
1218.00,51.083
1219.00,51.078
1220.00,51.067
1221.00,51.079
1222.00,51.073
1223.00,51.055
1224.00,51.079
1225.00,51.052
1226.00,51.074
1227.00,51.038
1228.00,51.046
1229.00,51.055
1230.00,51.116
1231.00,51.122
1232.00,51.100
1233.00,51.120
1234.00,51.124
1235.00,51.142
1236.00,51.124
1237.00,51.143
1238.00,51.133
1239.00,51.135
1240.00,51.113
1241.00,51.138
1242.00,51.138
1243.00,51.114
1244.00,51.103
1245.00,51.129
1246.00,51.144
1247.00,51.117
1248.00,51.125
1249.00,51.140
1250.00,51.165
1251.00,51.140
1252.00,51.139
1253.00,51.145
1254.00,51.161
1255.00,51.157
1256.00,51.177
1257.00,51.110
1258.00,51.146
1259.00,51.143
1260.00,51.164
1261.00,51.167
1262.00,51.181
1263.00,51.179
1264.00,51.171
1265.00,51.187
1266.00,51.165
1267.00,51.196
1268.00,51.194
1269.00,51.196
1270.00,51.190
1271.00,51.204
1272.00,51.210
1273.00,51.219
1274.00,51.227
1275.00,51.240
1276.00,51.212
1277.00,51.207
1278.00,51.222
1279.00,51.227
1280.00,51.222
1281.00,51.255
1282.00,51.239
1283.00,51.247
1284.00,51.222
1285.00,51.241
1286.00,51.246
1287.00,51.232
1288.00,51.217
1289.00,51.240
1290.00,51.271
1291.00,51.265
1292.00,51.299
1293.00,51.295
1294.00,51.301
1295.00,51.294
1296.00,51.304
1297.00,51.296
1298.00,51.298
1299.00,51.308
1300.00,51.332
1301.00,51.324
1302.00,51.375
1303.00,51.356
1304.00,51.366
1305.00,51.369
1306.00,51.414
1307.00,51.371
1308.00,51.345
1309.00,51.393
1310.00,51.387
1311.00,51.394
1312.00,51.361
1313.00,51.387
1314.00,51.411
1315.00,51.421
1316.00,51.400
1317.00,51.421
1318.00,51.420
1319.00,51.432
1320.00,51.442
1321.00,51.587
1322.00,51.589
1323.00,51.559
1324.00,51.572
1325.00,51.600
1326.00,51.547
1327.00,51.576
1328.00,51.562
1329.00,51.588
1330.00,51.551
1331.00,51.559
1332.00,51.555
1333.00,51.562
1334.00,51.593
1335.00,51.602
1336.00,51.667
1337.00,51.664
1338.00,51.743
1339.00,51.779
1340.00,51.832
1341.00,51.895
1342.00,51.959
1343.00,52.014
1344.00,52.040
1345.00,52.079
1346.00,52.216
1347.00,52.138
1348.00,52.109
1349.00,52.220
1350.00,52.259
1351.00,52.206
1352.00,52.183
1353.00,52.361
1354.00,52.286
1355.00,52.155
1356.00,52.272
1357.00,52.205
1358.00,52.464
1359.00,52.265
1360.00,52.332
1361.00,52.546
1362.00,52.175
1363.00,52.414
1364.00,52.135
1365.00,52.422
1366.00,52.784
1367.00,52.326
1368.00,52.270
1369.00,52.403
1370.00,52.107
1371.00,52.257
1372.00,52.252
1373.00,52.441
1374.00,52.268
1375.00,52.407
1376.00,52.013
1377.00,52.577
1378.00,52.496
1379.00,52.322
1380.00,52.624
1381.00,52.309
1382.00,52.161
1383.00,52.539
1384.00,52.205
1385.00,52.091
1386.00,52.327
1387.00,51.777
1388.00,52.322
1389.00,52.225
1390.00,52.241
1391.00,52.020
1392.00,52.218
1393.00,52.125
1394.00,52.282
1395.00,51.984
1396.00,52.238
1397.00,52.331
1398.00,52.360
1399.00,52.181
1400.00,52.279
1401.00,52.271
1402.00,52.415
1403.00,53.009
1404.00,52.397
1405.00,52.230
1406.00,52.338
1407.00,52.183
1408.00,52.205
1409.00,52.294
1410.00,52.415
1411.00,52.275
1412.00,52.538
1413.00,52.343
1414.00,52.294
1415.00,52.283
1416.00,52.341
1417.00,52.615
1418.00,52.538
1419.00,52.400
1420.00,52.415
1421.00,52.502
1422.00,52.405
1423.00,52.494
1424.00,52.450
1425.00,52.477
1426.00,52.466
1427.00,52.470
1428.00,52.492
1429.00,52.589
1430.00,52.555
1431.00,52.539
1432.00,52.611
1433.00,52.564
1434.00,52.567
1435.00,52.676
1436.00,52.525
1437.00,52.614
1438.00,52.604
1439.00,52.701
1440.00,52.616
1441.00,52.689
1442.00,52.705
1443.00,52.742
1444.00,52.743
1445.00,52.717
1446.00,52.776
1447.00,52.788
1448.00,52.865
1449.00,52.911
1450.00,52.848
1451.00,52.848
1452.00,52.865
1453.00,52.867
1454.00,52.858
1455.00,52.896
1456.00,52.886
1457.00,52.940
1458.00,52.943
1459.00,52.946
1460.00,52.964
1461.00,53.013
1462.00,52.974
1463.00,53.032
1464.00,53.006
1465.00,53.057
1466.00,53.037
1467.00,53.069
1468.00,53.095
1469.00,53.085
1470.00,53.122
1471.00,53.124
1472.00,53.125
1473.00,53.143
1474.00,53.157
1475.00,53.182
1476.00,53.178
1477.00,53.179
1478.00,53.214
1479.00,53.217
1480.00,53.217
1481.00,53.239
1482.00,53.290
1483.00,53.279
1484.00,53.301
1485.00,53.308
1486.00,53.301
1487.00,53.341
1488.00,53.321
1489.00,53.330
1490.00,53.345
1491.00,53.363
1492.00,53.372
1493.00,53.380
1494.00,53.415
1495.00,53.409
1496.00,53.410
1497.00,53.425
1498.00,53.410
1499.00,53.431
1500.00,53.441
1501.00, 
1502.00, 
1503.00, 
1504.00, 
1505.00, 
1506.00, 
1507.00, 
1508.00, 
1509.00, 
1510.00, 
1511.00, 
1512.00, 
1513.00, 
1514.00, 
1515.00, 
1516.00, 
1517.00, 
1518.00, 
1519.00, 
1520.00, 
1521.00, 
1522.00, 
1523.00, 
1524.00, 
1525.00, 
1526.00, 
1527.00, 
1528.00, 
1529.00, 
1530.00, 
1531.00, 
1532.00, 
1533.00, 
1534.00, 
1535.00, 
1536.00, 
1537.00, 
1538.00, 
1539.00, 
1540.00, 
1541.00, 
1542.00, 
1543.00, 
1544.00, 
1545.00, 
1546.00, 
1547.00, 
1548.00, 
1549.00, 
1550.00, 
1551.00, 
1552.00, 
1553.00, 
1554.00, 
1555.00, 
1556.00, 
1557.00, 
1558.00, 
1559.00, 
1560.00, 
1561.00, 
1562.00, 
1563.00, 
1564.00, 
1565.00, 
1566.00, 
1567.00, 
1568.00, 
1569.00, 
1570.00, 
1571.00, 
1572.00, 
1573.00, 
1574.00, 
1575.00, 
1576.00, 
1577.00, 
1578.00, 
1579.00, 
1580.00, 
1581.00, 
1582.00, 
1583.00, 
1584.00, 
1585.00, 
1586.00, 
1587.00, 
1588.00, 
1589.00, 
1590.00, 
1591.00, 
1592.00, 
1593.00, 
1594.00, 
1595.00, 
1596.00, 
1597.00, 
1598.00, 
1599.00, 
1600.00, 
1601.00, 
1602.00, 
1603.00, 
1604.00, 
1605.00, 
1606.00, 
1607.00, 
1608.00, 
1609.00, 
1610.00, 
1611.00, 
1612.00, 
1613.00, 
1614.00, 
1615.00, 
1616.00, 
1617.00, 
1618.00, 
1619.00, 
1620.00, 
1621.00, 
1622.00, 
1623.00, 
1624.00, 
1625.00, 
1626.00, 
1627.00, 
1628.00, 
1629.00, 
1630.00, 
1631.00, 
1632.00, 
1633.00, 
1634.00, 
1635.00, 
1636.00, 
1637.00, 
1638.00, 
1639.00, 
1640.00, 
1641.00, 
1642.00, 
1643.00, 
1644.00, 
1645.00, 
1646.00, 
1647.00, 
1648.00, 
1649.00, 
1650.00, 
1651.00, 
1652.00, 
1653.00, 
1654.00, 
1655.00, 
1656.00, 
1657.00, 
1658.00, 
1659.00, 
1660.00, 
1661.00, 
1662.00, 
1663.00, 
1664.00, 
1665.00, 
1666.00, 
1667.00, 
1668.00, 
1669.00, 
1670.00, 
1671.00, 
1672.00, 
1673.00, 
1674.00, 
1675.00, 
1676.00, 
1677.00, 
1678.00, 
1679.00, 
1680.00, 
1681.00, 
1682.00, 
1683.00, 
1684.00, 
1685.00, 
1686.00, 
1687.00, 
1688.00, 
1689.00, 
1690.00, 
1691.00, 
1692.00, 
1693.00, 
1694.00, 
1695.00, 
1696.00, 
1697.00, 
1698.00, 
1699.00, 
1700.00, 
1701.00, 
1702.00, 
1703.00, 
1704.00, 
1705.00, 
1706.00, 
1707.00, 
1708.00, 
1709.00, 
1710.00, 
1711.00, 
1712.00, 
1713.00, 
1714.00, 
1715.00, 
1716.00, 
1717.00, 
1718.00, 
1719.00, 
1720.00, 
1721.00, 
1722.00, 
1723.00, 
1724.00, 
1725.00, 
1726.00, 
1727.00, 
1728.00, 
1729.00, 
1730.00, 
1731.00, 
1732.00, 
1733.00, 
1734.00, 
1735.00, 
1736.00, 
1737.00, 
1738.00, 
1739.00, 
1740.00, 
1741.00, 
1742.00, 
1743.00, 
1744.00, 
1745.00, 
1746.00, 
1747.00, 
1748.00, 
1749.00, 
1750.00, 
1751.00, 
1752.00, 
1753.00, 
1754.00, 
1755.00, 
1756.00, 
1757.00, 
1758.00, 
1759.00, 
1760.00, 
1761.00, 
1762.00, 
1763.00, 
1764.00, 
1765.00, 
1766.00, 
1767.00, 
1768.00, 
1769.00, 
1770.00, 
1771.00, 
1772.00, 
1773.00, 
1774.00, 
1775.00, 
1776.00, 
1777.00, 
1778.00, 
1779.00, 
1780.00, 
1781.00, 
1782.00, 
1783.00, 
1784.00, 
1785.00, 
1786.00, 
1787.00, 
1788.00, 
1789.00, 
1790.00, 
1791.00, 
1792.00, 
1793.00, 
1794.00, 
1795.00, 
1796.00, 
1797.00, 
1798.00, 
1799.00, 
1800.00, 
1801.00, 
1802.00, 
1803.00, 
1804.00, 
1805.00, 
1806.00, 
1807.00, 
1808.00, 
1809.00, 
1810.00, 
1811.00, 
1812.00, 
1813.00, 
1814.00, 
1815.00, 
1816.00, 
1817.00, 
1818.00, 
1819.00, 
1820.00, 
1821.00, 
1822.00, 
1823.00, 
1824.00, 
1825.00, 
1826.00, 
1827.00, 
1828.00, 
1829.00, 
1830.00, 
1831.00, 
1832.00, 
1833.00, 
1834.00, 
1835.00, 
1836.00, 
1837.00, 
1838.00, 
1839.00, 
1840.00, 
1841.00, 
1842.00, 
1843.00, 
1844.00, 
1845.00, 
1846.00, 
1847.00, 
1848.00, 
1849.00, 
1850.00, 
1851.00, 
1852.00, 
1853.00, 
1854.00, 
1855.00, 
1856.00, 
1857.00, 
1858.00, 
1859.00, 
1860.00, 
1861.00, 
1862.00, 
1863.00, 
1864.00, 
1865.00, 
1866.00, 
1867.00, 
1868.00, 
1869.00, 
1870.00, 
1871.00, 
1872.00, 
1873.00, 
1874.00, 
1875.00, 
1876.00, 
1877.00, 
1878.00, 
1879.00, 
1880.00, 
1881.00, 
1882.00, 
1883.00, 
1884.00, 
1885.00, 
1886.00, 
1887.00, 
1888.00, 
1889.00, 
1890.00, 
1891.00, 
1892.00, 
1893.00, 
1894.00, 
1895.00, 
1896.00, 
1897.00, 
1898.00, 
1899.00, 
1900.00, 
1901.00, 
1902.00, 
1903.00, 
1904.00, 
1905.00, 
1906.00, 
1907.00, 
1908.00, 
1909.00, 
1910.00, 
1911.00, 
1912.00, 
1913.00, 
1914.00, 
1915.00, 
1916.00, 
1917.00, 
1918.00, 
1919.00, 
1920.00, 
1921.00, 
1922.00, 
1923.00, 
1924.00, 
1925.00, 
1926.00, 
1927.00, 
1928.00, 
1929.00, 
1930.00, 
1931.00, 
1932.00, 
1933.00, 
1934.00, 
1935.00, 
1936.00, 
1937.00, 
1938.00, 
1939.00, 
1940.00, 
1941.00, 
1942.00, 
1943.00, 
1944.00, 
1945.00, 
1946.00, 
1947.00, 
1948.00, 
1949.00, 
1950.00, 
1951.00, 
1952.00, 
1953.00, 
1954.00, 
1955.00, 
1956.00, 
1957.00, 
1958.00, 
1959.00, 
1960.00, 
1961.00, 
1962.00, 
1963.00, 
1964.00, 
1965.00, 
1966.00, 
1967.00, 
1968.00, 
1969.00, 
1970.00, 
1971.00, 
1972.00, 
1973.00, 
1974.00, 
1975.00, 
1976.00, 
1977.00, 
1978.00, 
1979.00, 
1980.00, 
1981.00, 
1982.00, 
1983.00, 
1984.00, 
1985.00, 
1986.00, 
1987.00, 
1988.00, 
1989.00, 
1990.00, 
1991.00, 
1992.00, 
1993.00, 
1994.00, 
1995.00, 
1996.00, 
1997.00, 
1998.00, 
1999.00, 
2000.00, 
2001.00, 
2002.00, 
2003.00, 
2004.00, 
2005.00, 
2006.00, 
2007.00, 
2008.00, 
2009.00, 
2010.00, 
2011.00, 
2012.00, 
2013.00, 
2014.00, 
2015.00, 
2016.00, 
2017.00, 
2018.00, 
2019.00, 
2020.00, 
2021.00, 
2022.00, 
2023.00, 
2024.00, 
2025.00, 
2026.00, 
2027.00, 
2028.00, 
2029.00, 
2030.00, 
2031.00, 
2032.00, 
2033.00, 
2034.00, 
2035.00, 
2036.00, 
2037.00, 
2038.00, 
2039.00, 
2040.00, 
2041.00, 
2042.00, 
2043.00, 
2044.00, 
2045.00, 
2046.00, 
2047.00, 
2048.00, 
2049.00, 
2050.00, 
2051.00, 
2052.00, 
2053.00, 
2054.00, 
2055.00, 
2056.00, 
2057.00, 
2058.00, 
2059.00, 
2060.00, 
2061.00, 
2062.00, 
2063.00, 
2064.00, 
2065.00, 
2066.00, 
2067.00, 
2068.00, 
2069.00, 
2070.00, 
2071.00, 
2072.00, 
2073.00, 
2074.00, 
2075.00, 
2076.00, 
2077.00, 
2078.00, 
2079.00, 
2080.00, 
2081.00, 
2082.00, 
2083.00, 
2084.00, 
2085.00, 
2086.00, 
2087.00, 
2088.00, 
2089.00, 
2090.00, 
2091.00, 
2092.00, 
2093.00, 
2094.00, 
2095.00, 
2096.00, 
2097.00, 
2098.00, 
2099.00, 
2100.00, 
2101.00, 
2102.00, 
2103.00, 
2104.00, 
2105.00, 
2106.00, 
2107.00, 
2108.00, 
2109.00, 
2110.00, 
2111.00, 
2112.00, 
2113.00, 
2114.00, 
2115.00, 
2116.00, 
2117.00, 
2118.00, 
2119.00, 
2120.00, 
2121.00, 
2122.00, 
2123.00, 
2124.00, 
2125.00, 
2126.00, 
2127.00, 
2128.00, 
2129.00, 
2130.00, 
2131.00, 
2132.00, 
2133.00, 
2134.00, 
2135.00, 
2136.00, 
2137.00, 
2138.00, 
2139.00, 
2140.00, 
2141.00, 
2142.00, 
2143.00, 
2144.00, 
2145.00, 
2146.00, 
2147.00, 
2148.00, 
2149.00, 
2150.00, 
2151.00, 
2152.00, 
2153.00, 
2154.00, 
2155.00, 
2156.00, 
2157.00, 
2158.00, 
2159.00, 
2160.00, 
2161.00, 
2162.00, 
2163.00, 
2164.00, 
2165.00, 
2166.00, 
2167.00, 
2168.00, 
2169.00, 
2170.00, 
2171.00, 
2172.00, 
2173.00, 
2174.00, 
2175.00, 
2176.00, 
2177.00, 
2178.00, 
2179.00, 
2180.00, 
2181.00, 
2182.00, 
2183.00, 
2184.00, 
2185.00, 
2186.00, 
2187.00, 
2188.00, 
2189.00, 
2190.00, 
2191.00, 
2192.00, 
2193.00, 
2194.00, 
2195.00, 
2196.00, 
2197.00, 
2198.00, 
2199.00, 
2200.00, 
2201.00, 
2202.00, 
2203.00, 
2204.00, 
2205.00, 
2206.00, 
2207.00, 
2208.00, 
2209.00, 
2210.00, 
2211.00, 
2212.00, 
2213.00, 
2214.00, 
2215.00, 
2216.00, 
2217.00, 
2218.00, 
2219.00, 
2220.00, 
2221.00, 
2222.00, 
2223.00, 
2224.00, 
2225.00, 
2226.00, 
2227.00, 
2228.00, 
2229.00, 
2230.00, 
2231.00, 
2232.00, 
2233.00, 
2234.00, 
2235.00, 
2236.00, 
2237.00, 
2238.00, 
2239.00, 
2240.00, 
2241.00, 
2242.00, 
2243.00, 
2244.00, 
2245.00, 
2246.00, 
2247.00, 
2248.00, 
2249.00, 
2250.00, 
2251.00, 
2252.00, 
2253.00, 
2254.00, 
2255.00, 
2256.00, 
2257.00, 
2258.00, 
2259.00, 
2260.00, 
2261.00, 
2262.00, 
2263.00, 
2264.00, 
2265.00, 
2266.00, 
2267.00, 
2268.00, 
2269.00, 
2270.00, 
2271.00, 
2272.00, 
2273.00, 
2274.00, 
2275.00, 
2276.00, 
2277.00, 
2278.00, 
2279.00, 
2280.00, 
2281.00, 
2282.00, 
2283.00, 
2284.00, 
2285.00, 
2286.00, 
2287.00, 
2288.00, 
2289.00, 
2290.00, 
2291.00, 
2292.00, 
2293.00, 
2294.00, 
2295.00, 
2296.00, 
2297.00, 
2298.00, 
2299.00, 
2300.00, 
2301.00, 
2302.00, 
2303.00, 
2304.00, 
2305.00, 
2306.00, 
2307.00, 
2308.00, 
2309.00, 
2310.00, 
2311.00, 
2312.00, 
2313.00, 
2314.00, 
2315.00, 
2316.00, 
2317.00, 
2318.00, 
2319.00, 
2320.00, 
2321.00, 
2322.00, 
2323.00, 
2324.00, 
2325.00, 
2326.00, 
2327.00, 
2328.00, 
2329.00, 
2330.00, 
2331.00, 
2332.00, 
2333.00, 
2334.00, 
2335.00, 
2336.00, 
2337.00, 
2338.00, 
2339.00, 
2340.00, 
2341.00, 
2342.00, 
2343.00, 
2344.00, 
2345.00, 
2346.00, 
2347.00, 
2348.00, 
2349.00, 
2350.00, 
2351.00, 
2352.00, 
2353.00, 
2354.00, 
2355.00, 
2356.00, 
2357.00, 
2358.00, 
2359.00, 
2360.00, 
2361.00, 
2362.00, 
2363.00, 
2364.00, 
2365.00, 
2366.00, 
2367.00, 
2368.00, 
2369.00, 
2370.00, 
2371.00, 
2372.00, 
2373.00, 
2374.00, 
2375.00, 
2376.00, 
2377.00, 
2378.00, 
2379.00, 
2380.00, 
2381.00, 
2382.00, 
2383.00, 
2384.00, 
2385.00, 
2386.00, 
2387.00, 
2388.00, 
2389.00, 
2390.00, 
2391.00, 
2392.00, 
2393.00, 
2394.00, 
2395.00, 
2396.00, 
2397.00, 
2398.00, 
2399.00, 
2400.00, 
2401.00, 
2402.00, 
2403.00, 
2404.00, 
2405.00, 
2406.00, 
2407.00, 
2408.00, 
2409.00, 
2410.00, 
2411.00, 
2412.00, 
2413.00, 
2414.00, 
2415.00, 
2416.00, 
2417.00, 
2418.00, 
2419.00, 
2420.00, 
2421.00, 
2422.00, 
2423.00, 
2424.00, 
2425.00, 
2426.00, 
2427.00, 
2428.00, 
2429.00, 
2430.00, 
2431.00, 
2432.00, 
2433.00, 
2434.00, 
2435.00, 
2436.00, 
2437.00, 
2438.00, 
2439.00, 
2440.00, 
2441.00, 
2442.00, 
2443.00, 
2444.00, 
2445.00, 
2446.00, 
2447.00, 
2448.00, 
2449.00, 
2450.00, 
2451.00, 
2452.00, 
2453.00, 
2454.00, 
2455.00, 
2456.00, 
2457.00, 
2458.00, 
2459.00, 
2460.00, 
2461.00, 
2462.00, 
2463.00, 
2464.00, 
2465.00, 
2466.00, 
2467.00, 
2468.00, 
2469.00, 
2470.00, 
2471.00, 
2472.00, 
2473.00, 
2474.00, 
2475.00, 
2476.00, 
2477.00, 
2478.00, 
2479.00, 
2480.00, 
2481.00, 
2482.00, 
2483.00, 
2484.00, 
2485.00, 
2486.00, 
2487.00, 
2488.00, 
2489.00, 
2490.00, 
2491.00, 
2492.00, 
2493.00, 
2494.00, 
2495.00, 
2496.00, 
2497.00, 
2498.00, 
2499.00, 
2500.00, 
2501.00, 
2502.00, 
2503.00, 
2504.00, 
2505.00, 
2506.00, 
2507.00, 
2508.00, 
2509.00, 
2510.00, 
2511.00, 
2512.00, 
2513.00, 
2514.00, 
2515.00, 
2516.00, 
2517.00, 
2518.00, 
2519.00, 
2520.00, 
2521.00, 
2522.00, 
2523.00, 
2524.00, 
2525.00, 
2526.00, 
2527.00, 
2528.00, 
2529.00, 
2530.00, 
2531.00, 
2532.00, 
2533.00, 
2534.00, 
2535.00, 
2536.00, 
2537.00, 
2538.00, 
2539.00, 
2540.00, 
2541.00, 
2542.00, 
2543.00, 
2544.00, 
2545.00, 
2546.00, 
2547.00, 
2548.00, 
2549.00, 
2550.00, 
2551.00, 
2552.00, 
2553.00, 
2554.00, 
2555.00, 
2556.00, 
2557.00, 
2558.00, 
2559.00, 
2560.00, 
2561.00, 
2562.00, 
2563.00, 
2564.00, 
2565.00, 
2566.00, 
2567.00, 
2568.00, 
2569.00, 
2570.00, 
2571.00, 
2572.00, 
2573.00, 
2574.00, 
2575.00, 
2576.00, 
2577.00, 
2578.00, 
2579.00, 
2580.00, 
2581.00, 
2582.00, 
2583.00, 
2584.00, 
2585.00, 
2586.00, 
2587.00, 
2588.00, 
2589.00, 
2590.00, 
2591.00, 
2592.00, 
2593.00, 
2594.00, 
2595.00, 
2596.00, 
2597.00, 
2598.00, 
2599.00, 
2600.00, 
