"2bP2 - RawData"
"Wavelength nm.","T%"
200.00,0.000
201.00,-0.000
202.00,-0.001
203.00,0.002
204.00,-0.001
205.00,0.005
206.00,0.004
207.00,0.000
208.00,-0.001
209.00,0.004
210.00,0.004
211.00,0.002
212.00,0.004
213.00,0.002
214.00,-0.001
215.00,0.002
216.00,0.002
217.00,0.002
218.00,0.002
219.00,0.002
220.00,0.004
221.00,0.001
222.00,0.002
223.00,0.003
224.00,0.002
225.00,-0.000
226.00,-0.002
227.00,0.003
228.00,0.003
229.00,0.003
230.00,0.002
231.00,0.000
232.00,-0.002
233.00,0.001
234.00,0.001
235.00,0.001
236.00,0.001
237.00,0.002
238.00,-0.000
239.00,0.001
240.00,0.001
241.00,0.001
242.00,0.000
243.00,-0.000
244.00,-0.001
245.00,-0.000
246.00,0.000
247.00,-0.000
248.00,0.001
249.00,0.001
250.00,0.001
251.00,-0.000
252.00,0.000
253.00,0.000
254.00,-0.000
255.00,0.000
256.00,-0.001
257.00,0.001
258.00,0.002
259.00,-0.000
260.00,0.000
261.00,0.002
262.00,-0.000
263.00,0.002
264.00,-0.000
265.00,0.001
266.00,0.001
267.00,0.002
268.00,-0.000
269.00,0.000
270.00,0.001
271.00,0.001
272.00,-0.000
273.00,0.001
274.00,0.000
275.00,0.001
276.00,0.001
277.00,0.000
278.00,-0.000
279.00,0.001
280.00,0.001
281.00,-0.001
282.00,-0.001
283.00,-0.001
284.00,-0.000
285.00,0.000
286.00,0.001
287.00,-0.000
288.00,0.001
289.00,0.001
290.00,-0.000
291.00,0.000
292.00,0.000
293.00,0.000
294.00,0.002
295.00,0.001
296.00,0.001
297.00,-0.000
298.00,0.001
299.00,0.003
300.00,0.004
301.00,0.006
302.00,0.008
303.00,0.014
304.00,0.019
305.00,0.028
306.00,0.045
307.00,0.065
308.00,0.103
309.00,0.155
310.00,0.221
311.00,0.307
312.00,0.413
313.00,0.552
314.00,0.705
315.00,0.916
316.00,1.181
317.00,1.467
318.00,1.829
319.00,2.202
320.00,2.706
321.00,3.217
322.00,3.803
323.00,4.491
324.00,5.168
325.00,5.823
326.00,6.573
327.00,7.367
328.00,8.227
329.00,9.143
330.00,10.081
331.00,10.930
332.00,11.834
333.00,12.781
334.00,13.599
335.00,14.609
336.00,15.477
337.00,16.454
338.00,17.401
339.00,18.131
340.00,18.978
341.00,19.714
342.00,20.653
343.00,21.496
344.00,22.055
345.00,22.803
346.00,23.396
347.00,24.077
348.00,24.670
349.00,25.219
350.00,25.751
351.00,26.257
352.00,26.666
353.00,27.192
354.00,27.652
355.00,27.934
356.00,28.366
357.00,28.649
358.00,29.092
359.00,29.284
360.00,29.632
361.00,29.863
362.00,30.075
363.00,30.232
364.00,30.466
365.00,30.681
366.00,30.715
367.00,30.853
368.00,31.089
369.00,31.037
370.00,31.217
371.00,31.320
372.00,31.325
373.00,31.424
374.00,31.463
375.00,31.397
376.00,31.376
377.00,31.321
378.00,31.338
379.00,31.303
380.00,31.190
381.00,31.282
382.00,31.209
383.00,31.239
384.00,31.300
385.00,31.386
386.00,31.497
387.00,31.541
388.00,31.651
389.00,31.748
390.00,31.658
391.00,31.787
392.00,31.786
393.00,31.830
394.00,31.890
395.00,31.929
396.00,31.997
397.00,32.035
398.00,32.020
399.00,32.058
400.00,32.062
401.00,32.092
402.00,32.231
403.00,32.200
404.00,32.195
405.00,32.130
406.00,32.116
407.00,32.075
408.00,32.065
409.00,32.049
410.00,31.998
411.00,32.011
412.00,31.970
413.00,31.972
414.00,31.968
415.00,31.974
416.00,32.121
417.00,32.081
418.00,32.066
419.00,32.222
420.00,32.270
421.00,32.161
422.00,32.222
423.00,32.173
424.00,32.229
425.00,32.253
426.00,32.305
427.00,32.360
428.00,32.359
429.00,32.409
430.00,32.434
431.00,32.520
432.00,32.564
433.00,32.562
434.00,32.722
435.00,32.692
436.00,32.714
437.00,32.856
438.00,32.921
439.00,32.974
440.00,33.027
441.00,33.154
442.00,33.179
443.00,33.312
444.00,33.401
445.00,33.509
446.00,33.577
447.00,33.611
448.00,33.670
449.00,33.742
450.00,33.919
451.00,33.974
452.00,34.018
453.00,34.141
454.00,34.243
455.00,34.337
456.00,34.379
457.00,34.506
458.00,34.651
459.00,34.673
460.00,34.902
461.00,34.890
462.00,35.124
463.00,35.240
464.00,35.270
465.00,35.427
466.00,35.523
467.00,35.609
468.00,35.677
469.00,35.753
470.00,35.770
471.00,35.908
472.00,35.977
473.00,36.024
474.00,36.092
475.00,36.213
476.00,36.195
477.00,36.356
478.00,36.492
479.00,36.592
480.00,36.774
481.00,36.892
482.00,37.001
483.00,37.115
484.00,37.287
485.00,37.547
486.00,37.525
487.00,37.730
488.00,37.867
489.00,38.069
490.00,38.261
491.00,38.032
492.00,38.180
493.00,38.290
494.00,38.436
495.00,38.516
496.00,38.657
497.00,38.763
498.00,38.810
499.00,38.927
500.00,39.027
501.00,39.180
502.00,39.315
503.00,39.241
504.00,39.356
505.00,39.490
506.00,39.500
507.00,39.644
508.00,39.778
509.00,39.883
510.00,39.875
511.00,40.013
512.00,40.142
513.00,40.248
514.00,40.426
515.00,40.358
516.00,40.397
517.00,40.617
518.00,40.599
519.00,40.616
520.00,40.819
521.00,40.830
522.00,40.872
523.00,41.063
524.00,41.071
525.00,41.135
526.00,41.322
527.00,41.372
528.00,41.520
529.00,41.613
530.00,41.810
531.00,41.807
532.00,41.781
533.00,41.888
534.00,41.881
535.00,41.992
536.00,42.069
537.00,42.053
538.00,42.169
539.00,42.170
540.00,42.249
541.00,42.315
542.00,42.251
543.00,42.356
544.00,42.464
545.00,42.528
546.00,42.529
547.00,42.593
548.00,42.710
549.00,42.751
550.00,42.864
551.00,42.880
552.00,42.853
553.00,42.871
554.00,42.913
555.00,42.998
556.00,42.958
557.00,43.091
558.00,43.250
559.00,43.087
560.00,43.207
561.00,43.262
562.00,43.245
563.00,43.373
564.00,43.478
565.00,43.381
566.00,43.515
567.00,43.444
568.00,43.538
569.00,43.543
570.00,43.556
571.00,43.566
572.00,43.552
573.00,43.645
574.00,43.487
575.00,43.419
576.00,43.642
577.00,43.709
578.00,43.741
579.00,43.785
580.00,43.991
581.00,43.950
582.00,43.998
583.00,44.101
584.00,44.106
585.00,44.161
586.00,44.222
587.00,44.312
588.00,44.252
589.00,44.314
590.00,44.358
591.00,44.270
592.00,44.472
593.00,44.513
594.00,44.528
595.00,44.682
596.00,44.582
597.00,44.580
598.00,44.765
599.00,44.854
600.00,44.665
601.00,44.721
602.00,44.638
603.00,44.737
604.00,44.801
605.00,44.694
606.00,44.771
607.00,44.946
608.00,45.001
609.00,45.092
610.00,44.951
611.00,44.943
612.00,44.984
613.00,44.936
614.00,45.176
615.00,45.110
616.00,44.850
617.00,45.019
618.00,45.248
619.00,45.285
620.00,45.197
621.00,45.265
622.00,45.307
623.00,45.444
624.00,45.466
625.00,45.484
626.00,45.610
627.00,45.431
628.00,45.530
629.00,45.566
630.00,45.525
631.00,45.647
632.00,45.789
633.00,45.895
634.00,45.872
635.00,45.876
636.00,45.999
637.00,46.083
638.00,45.954
639.00,46.130
640.00,46.139
641.00,46.129
642.00,46.281
643.00,46.345
644.00,46.362
645.00,46.525
646.00,46.554
647.00,46.504
648.00,46.525
649.00,46.637
650.00,46.683
651.00,46.785
652.00,46.744
653.00,46.735
654.00,46.774
655.00,47.148
656.00,47.347
657.00,47.145
658.00,47.001
659.00,47.162
660.00,47.132
661.00,47.094
662.00,47.262
663.00,47.378
664.00,47.605
665.00,47.409
666.00,47.444
667.00,47.592
668.00,47.972
669.00,47.546
670.00,47.547
671.00,47.906
672.00,48.054
673.00,47.760
674.00,47.950
675.00,47.904
676.00,47.974
677.00,47.931
678.00,48.123
679.00,48.541
680.00,48.034
681.00,48.310
682.00,48.329
683.00,48.277
684.00,48.215
685.00,48.225
686.00,48.438
687.00,48.273
688.00,48.631
689.00,48.767
690.00,48.639
691.00,48.836
692.00,48.641
693.00,48.435
694.00,48.753
695.00,48.852
696.00,48.738
697.00,48.813
698.00,48.925
699.00,48.795
700.00,48.934
701.00,49.113
702.00,49.203
703.00,49.081
704.00,49.208
705.00,49.483
706.00,49.061
707.00,49.450
708.00,49.171
709.00,49.252
710.00,49.073
711.00,48.988
712.00,49.709
713.00,50.010
714.00,49.438
715.00,49.413
716.00,49.456
717.00,49.612
718.00,49.691
719.00,49.737
720.00,49.841
721.00,54.758
722.00,54.738
723.00,54.765
724.00,54.857
725.00,54.572
726.00,54.597
727.00,54.639
728.00,54.704
729.00,54.639
730.00,54.776
731.00,54.672
732.00,54.563
733.00,54.541
734.00,54.515
735.00,54.571
736.00,54.655
737.00,54.687
738.00,54.589
739.00,54.638
740.00,54.693
741.00,54.541
742.00,54.638
743.00,54.638
744.00,54.661
745.00,54.687
746.00,54.571
747.00,54.443
748.00,54.492
749.00,54.633
750.00,54.438
751.00,54.504
752.00,54.372
753.00,54.278
754.00,54.362
755.00,54.343
756.00,54.338
757.00,54.349
758.00,54.278
759.00,54.444
760.00,54.203
761.00,54.322
762.00,54.239
763.00,54.261
764.00,54.334
765.00,54.250
766.00,54.230
767.00,54.229
768.00,54.307
769.00,54.045
770.00,54.213
771.00,54.244
772.00,54.175
773.00,54.290
774.00,54.107
775.00,54.170
776.00,54.167
777.00,54.222
778.00,54.104
779.00,54.289
780.00,54.055
781.00,54.170
782.00,54.162
783.00,54.001
784.00,53.996
785.00,54.154
786.00,53.909
787.00,54.093
788.00,54.029
789.00,54.042
790.00,53.913
791.00,53.970
792.00,53.861
793.00,53.998
794.00,53.900
795.00,53.785
796.00,53.721
797.00,53.667
798.00,53.715
799.00,53.668
800.00,53.642
801.00,53.764
802.00,53.633
803.00,53.676
804.00,53.735
805.00,53.544
806.00,53.732
807.00,53.582
808.00,53.633
809.00,53.442
810.00,53.507
811.00,53.401
812.00,53.460
813.00,53.479
814.00,53.344
815.00,53.362
816.00,53.443
817.00,53.339
818.00,53.258
819.00,53.326
820.00,53.247
821.00,53.151
822.00,53.371
823.00,53.200
824.00,53.249
825.00,53.143
826.00,53.272
827.00,53.188
828.00,53.132
829.00,53.226
830.00,53.114
831.00,55.383
832.00,55.448
833.00,55.348
834.00,55.426
835.00,55.488
836.00,55.363
837.00,55.411
838.00,55.320
839.00,55.329
840.00,55.218
841.00,55.218
842.00,55.159
843.00,55.048
844.00,55.084
845.00,55.076
846.00,55.020
847.00,55.077
848.00,55.140
849.00,55.065
850.00,54.997
851.00,55.022
852.00,54.891
853.00,54.833
854.00,54.860
855.00,54.857
856.00,54.713
857.00,54.833
858.00,54.751
859.00,54.732
860.00,54.661
861.00,54.607
862.00,54.649
863.00,54.615
864.00,54.569
865.00,54.590
866.00,54.647
867.00,54.634
868.00,54.552
869.00,54.563
870.00,54.599
871.00,54.564
872.00,54.540
873.00,54.483
874.00,54.534
875.00,54.499
876.00,54.456
877.00,54.475
878.00,54.418
879.00,54.407
880.00,54.409
881.00,54.384
882.00,54.327
883.00,54.337
884.00,54.324
885.00,54.261
886.00,54.264
887.00,54.280
888.00,54.228
889.00,54.233
890.00,54.201
891.00,54.134
892.00,54.162
893.00,54.079
894.00,54.105
895.00,54.080
896.00,54.047
897.00,54.014
898.00,53.942
899.00,54.008
900.00,53.993
901.00,54.036
902.00,53.998
903.00,53.928
904.00,53.896
905.00,53.945
906.00,53.895
907.00,53.893
908.00,53.819
909.00,53.836
910.00,53.791
911.00,53.817
912.00,53.797
913.00,53.742
914.00,53.709
915.00,53.725
916.00,53.681
917.00,53.689
918.00,53.635
919.00,53.624
920.00,53.585
921.00,53.614
922.00,53.594
923.00,53.560
924.00,53.536
925.00,53.547
926.00,53.500
927.00,53.512
928.00,53.490
929.00,53.482
930.00,53.451
931.00,53.465
932.00,53.396
933.00,53.374
934.00,53.388
935.00,53.351
936.00,53.306
937.00,53.364
938.00,53.319
939.00,53.302
940.00,53.247
941.00,53.253
942.00,53.264
943.00,53.153
944.00,53.189
945.00,53.172
946.00,53.187
947.00,53.121
948.00,53.120
949.00,53.138
950.00,53.099
951.00,53.014
952.00,52.996
953.00,53.039
954.00,52.968
955.00,52.917
956.00,52.906
957.00,52.914
958.00,52.893
959.00,52.859
960.00,52.810
961.00,52.845
962.00,52.831
963.00,52.808
964.00,52.806
965.00,52.820
966.00,52.750
967.00,52.745
968.00,52.730
969.00,52.760
970.00,52.721
971.00,52.764
972.00,52.735
973.00,52.697
974.00,52.765
975.00,52.764
976.00,52.760
977.00,52.830
978.00,52.763
979.00,52.745
980.00,52.704
981.00,52.719
982.00,52.707
983.00,52.727
984.00,52.672
985.00,52.699
986.00,52.679
987.00,52.684
988.00,52.661
989.00,52.620
990.00,52.649
991.00,52.618
992.00,52.620
993.00,52.610
994.00,52.597
995.00,52.571
996.00,52.528
997.00,52.584
998.00,52.571
999.00,52.542
1000.00,52.527
1001.00,52.544
1002.00,52.539
1003.00,52.479
1004.00,52.515
1005.00,52.471
1006.00,52.467
1007.00,52.466
1008.00,52.445
1009.00,52.411
1010.00,52.387
1011.00,52.412
1012.00,52.348
1013.00,52.332
1014.00,52.339
1015.00,52.372
1016.00,52.343
1017.00,52.271
1018.00,52.311
1019.00,52.278
1020.00,52.290
1021.00,52.255
1022.00,52.226
1023.00,52.197
1024.00,52.185
1025.00,52.180
1026.00,52.143
1027.00,52.151
1028.00,52.127
1029.00,52.129
1030.00,52.086
1031.00,52.083
1032.00,52.084
1033.00,52.039
1034.00,52.033
1035.00,51.982
1036.00,51.960
1037.00,51.947
1038.00,51.941
1039.00,51.893
1040.00,51.883
1041.00,51.881
1042.00,51.855
1043.00,51.841
1044.00,51.885
1045.00,51.870
1046.00,51.869
1047.00,51.893
1048.00,51.890
1049.00,51.900
1050.00,51.871
1051.00,51.905
1052.00,51.937
1053.00,51.921
1054.00,51.923
1055.00,51.941
1056.00,51.960
1057.00,51.934
1058.00,51.949
1059.00,51.986
1060.00,51.966
1061.00,51.935
1062.00,51.923
1063.00,51.942
1064.00,51.907
1065.00,51.885
1066.00,51.899
1067.00,51.875
1068.00,51.884
1069.00,51.868
1070.00,51.851
1071.00,51.855
1072.00,51.843
1073.00,51.837
1074.00,51.854
1075.00,51.846
1076.00,51.820
1077.00,51.816
1078.00,51.787
1079.00,51.793
1080.00,51.779
1081.00,51.773
1082.00,51.757
1083.00,51.744
1084.00,51.741
1085.00,51.740
1086.00,51.730
1087.00,51.775
1088.00,51.745
1089.00,51.703
1090.00,51.692
1091.00,51.711
1092.00,51.683
1093.00,51.703
1094.00,51.670
1095.00,51.662
1096.00,51.643
1097.00,51.614
1098.00,51.622
1099.00,51.612
1100.00,51.602
1101.00,51.592
1102.00,51.576
1103.00,51.582
1104.00,51.577
1105.00,51.565
1106.00,51.554
1107.00,51.545
1108.00,51.524
1109.00,51.506
1110.00,51.508
1111.00,51.515
1112.00,51.477
1113.00,51.488
1114.00,51.472
1115.00,51.482
1116.00,51.444
1117.00,51.455
1118.00,51.454
1119.00,51.456
1120.00,51.402
1121.00,51.413
1122.00,51.436
1123.00,51.403
1124.00,51.407
1125.00,51.386
1126.00,51.407
1127.00,51.369
1128.00,51.381
1129.00,51.379
1130.00,51.362
1131.00,51.363
1132.00,51.357
1133.00,51.365
1134.00,51.319
1135.00,51.295
1136.00,51.313
1137.00,51.330
1138.00,51.319
1139.00,51.319
1140.00,51.294
1141.00,51.275
1142.00,51.295
1143.00,51.326
1144.00,51.279
1145.00,51.288
1146.00,51.286
1147.00,51.280
1148.00,51.291
1149.00,51.283
1150.00,51.293
1151.00,51.270
1152.00,51.245
1153.00,51.280
1154.00,51.273
1155.00,51.257
1156.00,51.238
1157.00,51.229
1158.00,51.234
1159.00,51.227
1160.00,51.233
1161.00,51.216
1162.00,51.250
1163.00,51.222
1164.00,51.233
1165.00,51.233
1166.00,51.227
1167.00,51.202
1168.00,51.220
1169.00,51.209
1170.00,51.228
1171.00,51.208
1172.00,51.197
1173.00,51.218
1174.00,51.167
1175.00,51.192
1176.00,51.201
1177.00,51.203
1178.00,51.169
1179.00,51.183
1180.00,51.173
1181.00,51.206
1182.00,51.175
1183.00,51.188
1184.00,51.204
1185.00,51.193
1186.00,51.171
1187.00,51.200
1188.00,51.211
1189.00,51.167
1190.00,51.180
1191.00,51.152
1192.00,51.197
1193.00,51.163
1194.00,51.187
1195.00,51.181
1196.00,51.161
1197.00,51.202
1198.00,51.181
1199.00,51.198
1200.00,51.166
1201.00,51.200
1202.00,51.179
1203.00,51.189
1204.00,51.172
1205.00,51.173
1206.00,51.175
1207.00,51.150
1208.00,51.153
1209.00,51.160
1210.00,51.168
1211.00,51.137
1212.00,51.170
1213.00,51.153
1214.00,51.156
1215.00,51.157
1216.00,51.124
1217.00,51.142
1218.00,51.131
1219.00,51.146
1220.00,51.153
1221.00,51.151
1222.00,51.167
1223.00,51.154
1224.00,51.151
1225.00,51.147
1226.00,51.186
1227.00,51.126
1228.00,51.148
1229.00,51.141
1230.00,51.203
1231.00,51.191
1232.00,51.176
1233.00,51.201
1234.00,51.194
1235.00,51.196
1236.00,51.185
1237.00,51.203
1238.00,51.175
1239.00,51.190
1240.00,51.168
1241.00,51.204
1242.00,51.216
1243.00,51.198
1244.00,51.188
1245.00,51.204
1246.00,51.234
1247.00,51.221
1248.00,51.241
1249.00,51.228
1250.00,51.252
1251.00,51.216
1252.00,51.207
1253.00,51.238
1254.00,51.240
1255.00,51.244
1256.00,51.302
1257.00,51.262
1258.00,51.243
1259.00,51.233
1260.00,51.267
1261.00,51.263
1262.00,51.254
1263.00,51.257
1264.00,51.260
1265.00,51.262
1266.00,51.237
1267.00,51.283
1268.00,51.274
1269.00,51.271
1270.00,51.278
1271.00,51.291
1272.00,51.287
1273.00,51.292
1274.00,51.312
1275.00,51.327
1276.00,51.317
1277.00,51.334
1278.00,51.343
1279.00,51.327
1280.00,51.327
1281.00,51.353
1282.00,51.324
1283.00,51.333
1284.00,51.319
1285.00,51.314
1286.00,51.323
1287.00,51.342
1288.00,51.328
1289.00,51.319
1290.00,51.360
1291.00,51.365
1292.00,51.375
1293.00,51.357
1294.00,51.380
1295.00,51.389
1296.00,51.377
1297.00,51.382
1298.00,51.395
1299.00,51.399
1300.00,51.407
1301.00,51.418
1302.00,51.468
1303.00,51.421
1304.00,51.430
1305.00,51.444
1306.00,51.474
1307.00,51.435
1308.00,51.427
1309.00,51.456
1310.00,51.455
1311.00,51.462
1312.00,51.449
1313.00,51.470
1314.00,51.477
1315.00,51.488
1316.00,51.480
1317.00,51.468
1318.00,51.496
1319.00,51.504
1320.00,51.511
1321.00,51.664
1322.00,51.666
1323.00,51.637
1324.00,51.658
1325.00,51.676
1326.00,51.669
1327.00,51.664
1328.00,51.626
1329.00,51.671
1330.00,51.635
1331.00,51.633
1332.00,51.638
1333.00,51.657
1334.00,51.675
1335.00,51.681
1336.00,51.734
1337.00,51.738
1338.00,51.811
1339.00,51.857
1340.00,51.916
1341.00,51.974
1342.00,52.024
1343.00,52.088
1344.00,52.128
1345.00,52.150
1346.00,52.308
1347.00,52.218
1348.00,52.234
1349.00,52.291
1350.00,52.335
1351.00,52.314
1352.00,52.301
1353.00,52.363
1354.00,52.350
1355.00,52.168
1356.00,52.344
1357.00,52.276
1358.00,52.589
1359.00,52.240
1360.00,52.431
1361.00,52.559
1362.00,52.043
1363.00,52.541
1364.00,52.176
1365.00,52.356
1366.00,52.576
1367.00,52.399
1368.00,52.381
1369.00,52.463
1370.00,52.234
1371.00,52.325
1372.00,52.301
1373.00,52.447
1374.00,52.353
1375.00,52.423
1376.00,52.252
1377.00,52.424
1378.00,52.696
1379.00,52.155
1380.00,52.865
1381.00,52.323
1382.00,52.274
1383.00,52.474
1384.00,52.258
1385.00,52.070
1386.00,52.392
1387.00,52.074
1388.00,52.304
1389.00,52.245
1390.00,52.573
1391.00,51.968
1392.00,52.265
1393.00,52.521
1394.00,52.391
1395.00,52.086
1396.00,52.329
1397.00,52.494
1398.00,52.405
1399.00,52.204
1400.00,52.309
1401.00,52.361
1402.00,52.663
1403.00,52.369
1404.00,52.547
1405.00,52.216
1406.00,52.497
1407.00,52.205
1408.00,52.255
1409.00,52.358
1410.00,52.439
1411.00,52.342
1412.00,52.477
1413.00,52.406
1414.00,52.378
1415.00,52.380
1416.00,52.394
1417.00,52.589
1418.00,52.566
1419.00,52.418
1420.00,52.468
1421.00,52.534
1422.00,52.437
1423.00,52.563
1424.00,52.665
1425.00,52.544
1426.00,52.532
1427.00,52.533
1428.00,52.568
1429.00,52.629
1430.00,52.592
1431.00,52.597
1432.00,52.681
1433.00,52.587
1434.00,52.646
1435.00,52.737
1436.00,52.588
1437.00,52.720
1438.00,52.640
1439.00,52.772
1440.00,52.664
1441.00,52.745
1442.00,52.807
1443.00,52.840
1444.00,52.726
1445.00,52.797
1446.00,52.856
1447.00,52.858
1448.00,52.896
1449.00,52.811
1450.00,52.933
1451.00,52.938
1452.00,52.918
1453.00,52.961
1454.00,52.880
1455.00,52.923
1456.00,52.908
1457.00,52.964
1458.00,52.988
1459.00,53.002
1460.00,52.984
1461.00,53.050
1462.00,53.038
1463.00,53.062
1464.00,53.065
1465.00,53.084
1466.00,53.073
1467.00,53.093
1468.00,53.144
1469.00,53.180
1470.00,53.188
1471.00,53.156
1472.00,53.186
1473.00,53.215
1474.00,53.201
1475.00,53.242
1476.00,53.231
1477.00,53.245
1478.00,53.268
1479.00,53.288
1480.00,53.268
1481.00,53.288
1482.00,53.325
1483.00,53.337
1484.00,53.343
1485.00,53.313
1486.00,53.343
1487.00,53.388
1488.00,53.334
1489.00,53.375
1490.00,53.384
1491.00,53.403
1492.00,53.428
1493.00,53.433
1494.00,53.461
1495.00,53.450
1496.00,53.433
1497.00,53.455
1498.00,53.462
1499.00,53.460
1500.00,53.481
1501.00, 
1502.00, 
1503.00, 
1504.00, 
1505.00, 
1506.00, 
1507.00, 
1508.00, 
1509.00, 
1510.00, 
1511.00, 
1512.00, 
1513.00, 
1514.00, 
1515.00, 
1516.00, 
1517.00, 
1518.00, 
1519.00, 
1520.00, 
1521.00, 
1522.00, 
1523.00, 
1524.00, 
1525.00, 
1526.00, 
1527.00, 
1528.00, 
1529.00, 
1530.00, 
1531.00, 
1532.00, 
1533.00, 
1534.00, 
1535.00, 
1536.00, 
1537.00, 
1538.00, 
1539.00, 
1540.00, 
1541.00, 
1542.00, 
1543.00, 
1544.00, 
1545.00, 
1546.00, 
1547.00, 
1548.00, 
1549.00, 
1550.00, 
1551.00, 
1552.00, 
1553.00, 
1554.00, 
1555.00, 
1556.00, 
1557.00, 
1558.00, 
1559.00, 
1560.00, 
1561.00, 
1562.00, 
1563.00, 
1564.00, 
1565.00, 
1566.00, 
1567.00, 
1568.00, 
1569.00, 
1570.00, 
1571.00, 
1572.00, 
1573.00, 
1574.00, 
1575.00, 
1576.00, 
1577.00, 
1578.00, 
1579.00, 
1580.00, 
1581.00, 
1582.00, 
1583.00, 
1584.00, 
1585.00, 
1586.00, 
1587.00, 
1588.00, 
1589.00, 
1590.00, 
1591.00, 
1592.00, 
1593.00, 
1594.00, 
1595.00, 
1596.00, 
1597.00, 
1598.00, 
1599.00, 
1600.00, 
1601.00, 
1602.00, 
1603.00, 
1604.00, 
1605.00, 
1606.00, 
1607.00, 
1608.00, 
1609.00, 
1610.00, 
1611.00, 
1612.00, 
1613.00, 
1614.00, 
1615.00, 
1616.00, 
1617.00, 
1618.00, 
1619.00, 
1620.00, 
1621.00, 
1622.00, 
1623.00, 
1624.00, 
1625.00, 
1626.00, 
1627.00, 
1628.00, 
1629.00, 
1630.00, 
1631.00, 
1632.00, 
1633.00, 
1634.00, 
1635.00, 
1636.00, 
1637.00, 
1638.00, 
1639.00, 
1640.00, 
1641.00, 
1642.00, 
1643.00, 
1644.00, 
1645.00, 
1646.00, 
1647.00, 
1648.00, 
1649.00, 
1650.00, 
1651.00, 
1652.00, 
1653.00, 
1654.00, 
1655.00, 
1656.00, 
1657.00, 
1658.00, 
1659.00, 
1660.00, 
1661.00, 
1662.00, 
1663.00, 
1664.00, 
1665.00, 
1666.00, 
1667.00, 
1668.00, 
1669.00, 
1670.00, 
1671.00, 
1672.00, 
1673.00, 
1674.00, 
1675.00, 
1676.00, 
1677.00, 
1678.00, 
1679.00, 
1680.00, 
1681.00, 
1682.00, 
1683.00, 
1684.00, 
1685.00, 
1686.00, 
1687.00, 
1688.00, 
1689.00, 
1690.00, 
1691.00, 
1692.00, 
1693.00, 
1694.00, 
1695.00, 
1696.00, 
1697.00, 
1698.00, 
1699.00, 
1700.00, 
1701.00, 
1702.00, 
1703.00, 
1704.00, 
1705.00, 
1706.00, 
1707.00, 
1708.00, 
1709.00, 
1710.00, 
1711.00, 
1712.00, 
1713.00, 
1714.00, 
1715.00, 
1716.00, 
1717.00, 
1718.00, 
1719.00, 
1720.00, 
1721.00, 
1722.00, 
1723.00, 
1724.00, 
1725.00, 
1726.00, 
1727.00, 
1728.00, 
1729.00, 
1730.00, 
1731.00, 
1732.00, 
1733.00, 
1734.00, 
1735.00, 
1736.00, 
1737.00, 
1738.00, 
1739.00, 
1740.00, 
1741.00, 
1742.00, 
1743.00, 
1744.00, 
1745.00, 
1746.00, 
1747.00, 
1748.00, 
1749.00, 
1750.00, 
1751.00, 
1752.00, 
1753.00, 
1754.00, 
1755.00, 
1756.00, 
1757.00, 
1758.00, 
1759.00, 
1760.00, 
1761.00, 
1762.00, 
1763.00, 
1764.00, 
1765.00, 
1766.00, 
1767.00, 
1768.00, 
1769.00, 
1770.00, 
1771.00, 
1772.00, 
1773.00, 
1774.00, 
1775.00, 
1776.00, 
1777.00, 
1778.00, 
1779.00, 
1780.00, 
1781.00, 
1782.00, 
1783.00, 
1784.00, 
1785.00, 
1786.00, 
1787.00, 
1788.00, 
1789.00, 
1790.00, 
1791.00, 
1792.00, 
1793.00, 
1794.00, 
1795.00, 
1796.00, 
1797.00, 
1798.00, 
1799.00, 
1800.00, 
1801.00, 
1802.00, 
1803.00, 
1804.00, 
1805.00, 
1806.00, 
1807.00, 
1808.00, 
1809.00, 
1810.00, 
1811.00, 
1812.00, 
1813.00, 
1814.00, 
1815.00, 
1816.00, 
1817.00, 
1818.00, 
1819.00, 
1820.00, 
1821.00, 
1822.00, 
1823.00, 
1824.00, 
1825.00, 
1826.00, 
1827.00, 
1828.00, 
1829.00, 
1830.00, 
1831.00, 
1832.00, 
1833.00, 
1834.00, 
1835.00, 
1836.00, 
1837.00, 
1838.00, 
1839.00, 
1840.00, 
1841.00, 
1842.00, 
1843.00, 
1844.00, 
1845.00, 
1846.00, 
1847.00, 
1848.00, 
1849.00, 
1850.00, 
1851.00, 
1852.00, 
1853.00, 
1854.00, 
1855.00, 
1856.00, 
1857.00, 
1858.00, 
1859.00, 
1860.00, 
1861.00, 
1862.00, 
1863.00, 
1864.00, 
1865.00, 
1866.00, 
1867.00, 
1868.00, 
1869.00, 
1870.00, 
1871.00, 
1872.00, 
1873.00, 
1874.00, 
1875.00, 
1876.00, 
1877.00, 
1878.00, 
1879.00, 
1880.00, 
1881.00, 
1882.00, 
1883.00, 
1884.00, 
1885.00, 
1886.00, 
1887.00, 
1888.00, 
1889.00, 
1890.00, 
1891.00, 
1892.00, 
1893.00, 
1894.00, 
1895.00, 
1896.00, 
1897.00, 
1898.00, 
1899.00, 
1900.00, 
1901.00, 
1902.00, 
1903.00, 
1904.00, 
1905.00, 
1906.00, 
1907.00, 
1908.00, 
1909.00, 
1910.00, 
1911.00, 
1912.00, 
1913.00, 
1914.00, 
1915.00, 
1916.00, 
1917.00, 
1918.00, 
1919.00, 
1920.00, 
1921.00, 
1922.00, 
1923.00, 
1924.00, 
1925.00, 
1926.00, 
1927.00, 
1928.00, 
1929.00, 
1930.00, 
1931.00, 
1932.00, 
1933.00, 
1934.00, 
1935.00, 
1936.00, 
1937.00, 
1938.00, 
1939.00, 
1940.00, 
1941.00, 
1942.00, 
1943.00, 
1944.00, 
1945.00, 
1946.00, 
1947.00, 
1948.00, 
1949.00, 
1950.00, 
1951.00, 
1952.00, 
1953.00, 
1954.00, 
1955.00, 
1956.00, 
1957.00, 
1958.00, 
1959.00, 
1960.00, 
1961.00, 
1962.00, 
1963.00, 
1964.00, 
1965.00, 
1966.00, 
1967.00, 
1968.00, 
1969.00, 
1970.00, 
1971.00, 
1972.00, 
1973.00, 
1974.00, 
1975.00, 
1976.00, 
1977.00, 
1978.00, 
1979.00, 
1980.00, 
1981.00, 
1982.00, 
1983.00, 
1984.00, 
1985.00, 
1986.00, 
1987.00, 
1988.00, 
1989.00, 
1990.00, 
1991.00, 
1992.00, 
1993.00, 
1994.00, 
1995.00, 
1996.00, 
1997.00, 
1998.00, 
1999.00, 
2000.00, 
2001.00, 
2002.00, 
2003.00, 
2004.00, 
2005.00, 
2006.00, 
2007.00, 
2008.00, 
2009.00, 
2010.00, 
2011.00, 
2012.00, 
2013.00, 
2014.00, 
2015.00, 
2016.00, 
2017.00, 
2018.00, 
2019.00, 
2020.00, 
2021.00, 
2022.00, 
2023.00, 
2024.00, 
2025.00, 
2026.00, 
2027.00, 
2028.00, 
2029.00, 
2030.00, 
2031.00, 
2032.00, 
2033.00, 
2034.00, 
2035.00, 
2036.00, 
2037.00, 
2038.00, 
2039.00, 
2040.00, 
2041.00, 
2042.00, 
2043.00, 
2044.00, 
2045.00, 
2046.00, 
2047.00, 
2048.00, 
2049.00, 
2050.00, 
2051.00, 
2052.00, 
2053.00, 
2054.00, 
2055.00, 
2056.00, 
2057.00, 
2058.00, 
2059.00, 
2060.00, 
2061.00, 
2062.00, 
2063.00, 
2064.00, 
2065.00, 
2066.00, 
2067.00, 
2068.00, 
2069.00, 
2070.00, 
2071.00, 
2072.00, 
2073.00, 
2074.00, 
2075.00, 
2076.00, 
2077.00, 
2078.00, 
2079.00, 
2080.00, 
2081.00, 
2082.00, 
2083.00, 
2084.00, 
2085.00, 
2086.00, 
2087.00, 
2088.00, 
2089.00, 
2090.00, 
2091.00, 
2092.00, 
2093.00, 
2094.00, 
2095.00, 
2096.00, 
2097.00, 
2098.00, 
2099.00, 
2100.00, 
2101.00, 
2102.00, 
2103.00, 
2104.00, 
2105.00, 
2106.00, 
2107.00, 
2108.00, 
2109.00, 
2110.00, 
2111.00, 
2112.00, 
2113.00, 
2114.00, 
2115.00, 
2116.00, 
2117.00, 
2118.00, 
2119.00, 
2120.00, 
2121.00, 
2122.00, 
2123.00, 
2124.00, 
2125.00, 
2126.00, 
2127.00, 
2128.00, 
2129.00, 
2130.00, 
2131.00, 
2132.00, 
2133.00, 
2134.00, 
2135.00, 
2136.00, 
2137.00, 
2138.00, 
2139.00, 
2140.00, 
2141.00, 
2142.00, 
2143.00, 
2144.00, 
2145.00, 
2146.00, 
2147.00, 
2148.00, 
2149.00, 
2150.00, 
2151.00, 
2152.00, 
2153.00, 
2154.00, 
2155.00, 
2156.00, 
2157.00, 
2158.00, 
2159.00, 
2160.00, 
2161.00, 
2162.00, 
2163.00, 
2164.00, 
2165.00, 
2166.00, 
2167.00, 
2168.00, 
2169.00, 
2170.00, 
2171.00, 
2172.00, 
2173.00, 
2174.00, 
2175.00, 
2176.00, 
2177.00, 
2178.00, 
2179.00, 
2180.00, 
2181.00, 
2182.00, 
2183.00, 
2184.00, 
2185.00, 
2186.00, 
2187.00, 
2188.00, 
2189.00, 
2190.00, 
2191.00, 
2192.00, 
2193.00, 
2194.00, 
2195.00, 
2196.00, 
2197.00, 
2198.00, 
2199.00, 
2200.00, 
2201.00, 
2202.00, 
2203.00, 
2204.00, 
2205.00, 
2206.00, 
2207.00, 
2208.00, 
2209.00, 
2210.00, 
2211.00, 
2212.00, 
2213.00, 
2214.00, 
2215.00, 
2216.00, 
2217.00, 
2218.00, 
2219.00, 
2220.00, 
2221.00, 
2222.00, 
2223.00, 
2224.00, 
2225.00, 
2226.00, 
2227.00, 
2228.00, 
2229.00, 
2230.00, 
2231.00, 
2232.00, 
2233.00, 
2234.00, 
2235.00, 
2236.00, 
2237.00, 
2238.00, 
2239.00, 
2240.00, 
2241.00, 
2242.00, 
2243.00, 
2244.00, 
2245.00, 
2246.00, 
2247.00, 
2248.00, 
2249.00, 
2250.00, 
2251.00, 
2252.00, 
2253.00, 
2254.00, 
2255.00, 
2256.00, 
2257.00, 
2258.00, 
2259.00, 
2260.00, 
2261.00, 
2262.00, 
2263.00, 
2264.00, 
2265.00, 
2266.00, 
2267.00, 
2268.00, 
2269.00, 
2270.00, 
2271.00, 
2272.00, 
2273.00, 
2274.00, 
2275.00, 
2276.00, 
2277.00, 
2278.00, 
2279.00, 
2280.00, 
2281.00, 
2282.00, 
2283.00, 
2284.00, 
2285.00, 
2286.00, 
2287.00, 
2288.00, 
2289.00, 
2290.00, 
2291.00, 
2292.00, 
2293.00, 
2294.00, 
2295.00, 
2296.00, 
2297.00, 
2298.00, 
2299.00, 
2300.00, 
2301.00, 
2302.00, 
2303.00, 
2304.00, 
2305.00, 
2306.00, 
2307.00, 
2308.00, 
2309.00, 
2310.00, 
2311.00, 
2312.00, 
2313.00, 
2314.00, 
2315.00, 
2316.00, 
2317.00, 
2318.00, 
2319.00, 
2320.00, 
2321.00, 
2322.00, 
2323.00, 
2324.00, 
2325.00, 
2326.00, 
2327.00, 
2328.00, 
2329.00, 
2330.00, 
2331.00, 
2332.00, 
2333.00, 
2334.00, 
2335.00, 
2336.00, 
2337.00, 
2338.00, 
2339.00, 
2340.00, 
2341.00, 
2342.00, 
2343.00, 
2344.00, 
2345.00, 
2346.00, 
2347.00, 
2348.00, 
2349.00, 
2350.00, 
2351.00, 
2352.00, 
2353.00, 
2354.00, 
2355.00, 
2356.00, 
2357.00, 
2358.00, 
2359.00, 
2360.00, 
2361.00, 
2362.00, 
2363.00, 
2364.00, 
2365.00, 
2366.00, 
2367.00, 
2368.00, 
2369.00, 
2370.00, 
2371.00, 
2372.00, 
2373.00, 
2374.00, 
2375.00, 
2376.00, 
2377.00, 
2378.00, 
2379.00, 
2380.00, 
2381.00, 
2382.00, 
2383.00, 
2384.00, 
2385.00, 
2386.00, 
2387.00, 
2388.00, 
2389.00, 
2390.00, 
2391.00, 
2392.00, 
2393.00, 
2394.00, 
2395.00, 
2396.00, 
2397.00, 
2398.00, 
2399.00, 
2400.00, 
2401.00, 
2402.00, 
2403.00, 
2404.00, 
2405.00, 
2406.00, 
2407.00, 
2408.00, 
2409.00, 
2410.00, 
2411.00, 
2412.00, 
2413.00, 
2414.00, 
2415.00, 
2416.00, 
2417.00, 
2418.00, 
2419.00, 
2420.00, 
2421.00, 
2422.00, 
2423.00, 
2424.00, 
2425.00, 
2426.00, 
2427.00, 
2428.00, 
2429.00, 
2430.00, 
2431.00, 
2432.00, 
2433.00, 
2434.00, 
2435.00, 
2436.00, 
2437.00, 
2438.00, 
2439.00, 
2440.00, 
2441.00, 
2442.00, 
2443.00, 
2444.00, 
2445.00, 
2446.00, 
2447.00, 
2448.00, 
2449.00, 
2450.00, 
2451.00, 
2452.00, 
2453.00, 
2454.00, 
2455.00, 
2456.00, 
2457.00, 
2458.00, 
2459.00, 
2460.00, 
2461.00, 
2462.00, 
2463.00, 
2464.00, 
2465.00, 
2466.00, 
2467.00, 
2468.00, 
2469.00, 
2470.00, 
2471.00, 
2472.00, 
2473.00, 
2474.00, 
2475.00, 
2476.00, 
2477.00, 
2478.00, 
2479.00, 
2480.00, 
2481.00, 
2482.00, 
2483.00, 
2484.00, 
2485.00, 
2486.00, 
2487.00, 
2488.00, 
2489.00, 
2490.00, 
2491.00, 
2492.00, 
2493.00, 
2494.00, 
2495.00, 
2496.00, 
2497.00, 
2498.00, 
2499.00, 
2500.00, 
2501.00, 
2502.00, 
2503.00, 
2504.00, 
2505.00, 
2506.00, 
2507.00, 
2508.00, 
2509.00, 
2510.00, 
2511.00, 
2512.00, 
2513.00, 
2514.00, 
2515.00, 
2516.00, 
2517.00, 
2518.00, 
2519.00, 
2520.00, 
2521.00, 
2522.00, 
2523.00, 
2524.00, 
2525.00, 
2526.00, 
2527.00, 
2528.00, 
2529.00, 
2530.00, 
2531.00, 
2532.00, 
2533.00, 
2534.00, 
2535.00, 
2536.00, 
2537.00, 
2538.00, 
2539.00, 
2540.00, 
2541.00, 
2542.00, 
2543.00, 
2544.00, 
2545.00, 
2546.00, 
2547.00, 
2548.00, 
2549.00, 
2550.00, 
2551.00, 
2552.00, 
2553.00, 
2554.00, 
2555.00, 
2556.00, 
2557.00, 
2558.00, 
2559.00, 
2560.00, 
2561.00, 
2562.00, 
2563.00, 
2564.00, 
2565.00, 
2566.00, 
2567.00, 
2568.00, 
2569.00, 
2570.00, 
2571.00, 
2572.00, 
2573.00, 
2574.00, 
2575.00, 
2576.00, 
2577.00, 
2578.00, 
2579.00, 
2580.00, 
2581.00, 
2582.00, 
2583.00, 
2584.00, 
2585.00, 
2586.00, 
2587.00, 
2588.00, 
2589.00, 
2590.00, 
2591.00, 
2592.00, 
2593.00, 
2594.00, 
2595.00, 
2596.00, 
2597.00, 
2598.00, 
2599.00, 
2600.00, 
