"2cP1 - RawData"
"Wavelength nm.","T%"
200.00,0.003
201.00,0.001
202.00,-0.003
203.00,-0.000
204.00,0.004
205.00,0.001
206.00,0.005
207.00,0.003
208.00,0.003
209.00,0.000
210.00,0.004
211.00,-0.000
212.00,0.002
213.00,0.005
214.00,-0.001
215.00,0.003
216.00,0.001
217.00,0.001
218.00,0.002
219.00,0.001
220.00,0.002
221.00,0.002
222.00,0.002
223.00,0.003
224.00,0.001
225.00,0.001
226.00,-0.001
227.00,0.001
228.00,0.001
229.00,0.002
230.00,0.001
231.00,0.002
232.00,0.003
233.00,-0.000
234.00,-0.001
235.00,0.001
236.00,0.001
237.00,0.002
238.00,0.000
239.00,0.001
240.00,0.000
241.00,0.001
242.00,0.001
243.00,0.001
244.00,0.002
245.00,0.002
246.00,0.002
247.00,0.000
248.00,-0.001
249.00,0.001
250.00,0.001
251.00,0.001
252.00,-0.000
253.00,-0.001
254.00,0.001
255.00,0.002
256.00,0.002
257.00,0.000
258.00,-0.001
259.00,0.000
260.00,-0.000
261.00,0.001
262.00,0.000
263.00,0.001
264.00,0.000
265.00,0.000
266.00,0.000
267.00,0.001
268.00,0.002
269.00,0.001
270.00,0.000
271.00,0.001
272.00,0.001
273.00,-0.001
274.00,-0.000
275.00,0.001
276.00,0.000
277.00,0.000
278.00,0.001
279.00,0.001
280.00,0.000
281.00,-0.001
282.00,0.001
283.00,-0.000
284.00,0.000
285.00,0.000
286.00,0.000
287.00,-0.000
288.00,-0.000
289.00,-0.000
290.00,0.002
291.00,-0.002
292.00,0.000
293.00,0.001
294.00,0.001
295.00,0.001
296.00,0.000
297.00,-0.001
298.00,0.001
299.00,0.002
300.00,0.003
301.00,0.005
302.00,0.006
303.00,0.010
304.00,0.015
305.00,0.024
306.00,0.037
307.00,0.054
308.00,0.088
309.00,0.139
310.00,0.193
311.00,0.262
312.00,0.358
313.00,0.502
314.00,0.650
315.00,0.836
316.00,1.094
317.00,1.382
318.00,1.712
319.00,2.129
320.00,2.552
321.00,3.059
322.00,3.669
323.00,4.340
324.00,5.053
325.00,5.714
326.00,6.438
327.00,7.320
328.00,8.190
329.00,9.156
330.00,10.018
331.00,10.935
332.00,11.861
333.00,12.858
334.00,13.874
335.00,14.815
336.00,15.546
337.00,16.780
338.00,17.736
339.00,18.682
340.00,19.604
341.00,20.477
342.00,21.392
343.00,22.130
344.00,22.959
345.00,23.783
346.00,24.416
347.00,25.173
348.00,25.835
349.00,26.440
350.00,26.979
351.00,27.626
352.00,28.080
353.00,28.582
354.00,29.068
355.00,29.535
356.00,30.033
357.00,30.274
358.00,30.788
359.00,31.078
360.00,31.370
361.00,31.693
362.00,31.908
363.00,32.200
364.00,32.495
365.00,32.724
366.00,32.910
367.00,33.030
368.00,33.274
369.00,33.394
370.00,33.503
371.00,33.680
372.00,33.660
373.00,33.759
374.00,33.769
375.00,33.803
376.00,33.810
377.00,33.781
378.00,33.748
379.00,33.705
380.00,33.649
381.00,33.797
382.00,33.811
383.00,33.865
384.00,33.898
385.00,33.983
386.00,34.137
387.00,34.195
388.00,34.322
389.00,34.482
390.00,34.540
391.00,34.630
392.00,34.599
393.00,34.649
394.00,34.774
395.00,34.780
396.00,34.902
397.00,34.932
398.00,34.981
399.00,35.061
400.00,35.153
401.00,35.169
402.00,35.287
403.00,35.162
404.00,35.170
405.00,35.144
406.00,35.166
407.00,35.208
408.00,35.247
409.00,35.176
410.00,35.091
411.00,35.147
412.00,35.099
413.00,35.098
414.00,35.083
415.00,35.086
416.00,35.249
417.00,35.220
418.00,35.252
419.00,35.292
420.00,35.271
421.00,35.267
422.00,35.338
423.00,35.360
424.00,35.408
425.00,35.440
426.00,35.432
427.00,35.500
428.00,35.537
429.00,35.510
430.00,35.566
431.00,35.686
432.00,35.620
433.00,35.704
434.00,35.726
435.00,35.815
436.00,35.877
437.00,35.926
438.00,36.022
439.00,36.015
440.00,36.118
441.00,36.248
442.00,36.305
443.00,36.343
444.00,36.389
445.00,36.528
446.00,36.530
447.00,36.543
448.00,36.683
449.00,36.721
450.00,36.895
451.00,36.879
452.00,37.015
453.00,37.066
454.00,37.127
455.00,37.328
456.00,37.357
457.00,37.382
458.00,37.543
459.00,37.617
460.00,37.772
461.00,37.776
462.00,37.919
463.00,38.028
464.00,38.048
465.00,38.195
466.00,38.341
467.00,38.331
468.00,38.371
469.00,38.485
470.00,38.551
471.00,38.635
472.00,38.638
473.00,38.658
474.00,38.763
475.00,38.877
476.00,38.834
477.00,38.979
478.00,39.068
479.00,39.138
480.00,39.314
481.00,39.381
482.00,39.570
483.00,39.622
484.00,39.761
485.00,39.921
486.00,39.949
487.00,40.158
488.00,40.284
489.00,40.449
490.00,40.511
491.00,40.448
492.00,40.501
493.00,40.644
494.00,40.771
495.00,40.839
496.00,40.925
497.00,40.991
498.00,41.086
499.00,41.181
500.00,41.323
501.00,41.377
502.00,41.408
503.00,41.490
504.00,41.619
505.00,41.747
506.00,41.721
507.00,41.803
508.00,41.919
509.00,42.001
510.00,42.064
511.00,42.182
512.00,42.297
513.00,42.359
514.00,42.336
515.00,42.435
516.00,42.545
517.00,42.649
518.00,42.687
519.00,42.774
520.00,42.812
521.00,42.875
522.00,42.954
523.00,42.991
524.00,43.042
525.00,43.197
526.00,43.258
527.00,43.406
528.00,43.433
529.00,43.510
530.00,43.546
531.00,43.673
532.00,43.629
533.00,43.626
534.00,43.752
535.00,43.930
536.00,43.956
537.00,43.974
538.00,44.017
539.00,44.019
540.00,44.141
541.00,44.203
542.00,44.148
543.00,44.234
544.00,44.304
545.00,44.343
546.00,44.405
547.00,44.416
548.00,44.393
549.00,44.577
550.00,44.615
551.00,44.717
552.00,44.709
553.00,44.764
554.00,44.899
555.00,44.856
556.00,44.926
557.00,44.934
558.00,45.007
559.00,45.088
560.00,45.069
561.00,45.058
562.00,45.209
563.00,45.262
564.00,45.271
565.00,45.254
566.00,45.305
567.00,45.259
568.00,45.364
569.00,45.332
570.00,45.320
571.00,45.371
572.00,45.389
573.00,45.503
574.00,45.384
575.00,45.489
576.00,45.477
577.00,45.387
578.00,45.517
579.00,45.633
580.00,45.731
581.00,45.746
582.00,45.913
583.00,45.924
584.00,45.936
585.00,45.994
586.00,46.036
587.00,46.165
588.00,46.157
589.00,46.223
590.00,46.175
591.00,46.198
592.00,46.247
593.00,46.137
594.00,46.213
595.00,46.425
596.00,46.402
597.00,46.451
598.00,46.604
599.00,46.555
600.00,46.517
601.00,46.608
602.00,46.579
603.00,46.613
604.00,46.550
605.00,46.575
606.00,46.671
607.00,46.816
608.00,46.815
609.00,46.827
610.00,46.822
611.00,46.834
612.00,46.882
613.00,46.853
614.00,46.874
615.00,46.956
616.00,46.902
617.00,47.046
618.00,47.084
619.00,47.053
620.00,47.067
621.00,47.025
622.00,47.122
623.00,47.247
624.00,47.170
625.00,47.169
626.00,47.289
627.00,47.252
628.00,47.329
629.00,47.342
630.00,47.341
631.00,47.393
632.00,47.347
633.00,47.535
634.00,47.528
635.00,47.489
636.00,47.695
637.00,47.749
638.00,47.567
639.00,47.718
640.00,47.587
641.00,47.730
642.00,47.825
643.00,47.835
644.00,47.867
645.00,47.946
646.00,47.965
647.00,48.003
648.00,47.987
649.00,48.151
650.00,47.997
651.00,48.211
652.00,48.221
653.00,48.229
654.00,48.250
655.00,48.423
656.00,48.367
657.00,48.603
658.00,48.445
659.00,48.515
660.00,48.512
661.00,48.534
662.00,48.587
663.00,48.471
664.00,48.605
665.00,48.614
666.00,48.700
667.00,48.698
668.00,48.901
669.00,48.774
670.00,48.851
671.00,48.889
672.00,48.878
673.00,48.875
674.00,48.999
675.00,49.026
676.00,49.078
677.00,49.011
678.00,49.006
679.00,49.199
680.00,49.070
681.00,49.040
682.00,49.210
683.00,49.176
684.00,49.451
685.00,49.335
686.00,49.352
687.00,49.262
688.00,49.436
689.00,49.498
690.00,49.286
691.00,49.364
692.00,49.452
693.00,49.467
694.00,49.470
695.00,49.432
696.00,49.489
697.00,49.628
698.00,49.685
699.00,49.558
700.00,49.602
701.00,49.627
702.00,49.857
703.00,49.913
704.00,49.719
705.00,49.951
706.00,49.819
707.00,49.775
708.00,49.678
709.00,50.048
710.00,50.025
711.00,49.763
712.00,49.979
713.00,49.959
714.00,50.014
715.00,50.033
716.00,49.841
717.00,50.003
718.00,50.079
719.00,50.035
720.00,50.246
721.00,54.629
722.00,54.624
723.00,54.647
724.00,54.718
725.00,54.555
726.00,54.417
727.00,54.417
728.00,54.511
729.00,54.459
730.00,54.520
731.00,54.293
732.00,54.343
733.00,54.291
734.00,54.117
735.00,54.265
736.00,54.392
737.00,54.310
738.00,54.305
739.00,54.358
740.00,54.241
741.00,54.220
742.00,54.241
743.00,54.302
744.00,54.185
745.00,54.127
746.00,54.084
747.00,54.103
748.00,54.055
749.00,53.972
750.00,53.947
751.00,54.019
752.00,53.918
753.00,53.838
754.00,53.822
755.00,53.808
756.00,53.763
757.00,53.775
758.00,53.610
759.00,53.867
760.00,53.634
761.00,53.703
762.00,53.617
763.00,53.635
764.00,53.640
765.00,53.494
766.00,53.621
767.00,53.500
768.00,53.472
769.00,53.437
770.00,53.469
771.00,53.410
772.00,53.449
773.00,53.492
774.00,53.470
775.00,53.475
776.00,53.358
777.00,53.275
778.00,53.301
779.00,53.426
780.00,53.398
781.00,53.198
782.00,53.274
783.00,53.282
784.00,53.092
785.00,53.228
786.00,53.036
787.00,53.198
788.00,53.087
789.00,53.143
790.00,53.164
791.00,53.077
792.00,53.041
793.00,53.054
794.00,53.020
795.00,52.777
796.00,52.917
797.00,52.844
798.00,52.819
799.00,52.802
800.00,52.733
801.00,52.707
802.00,52.688
803.00,52.840
804.00,52.676
805.00,52.632
806.00,52.730
807.00,52.697
808.00,52.630
809.00,52.548
810.00,52.580
811.00,52.356
812.00,52.428
813.00,52.531
814.00,52.316
815.00,52.465
816.00,52.335
817.00,52.255
818.00,52.330
819.00,52.435
820.00,52.301
821.00,52.187
822.00,52.334
823.00,52.149
824.00,52.197
825.00,52.229
826.00,52.213
827.00,52.204
828.00,52.244
829.00,52.099
830.00,51.990
831.00,54.434
832.00,54.452
833.00,54.530
834.00,54.488
835.00,54.462
836.00,54.529
837.00,54.450
838.00,54.361
839.00,54.357
840.00,54.263
841.00,54.459
842.00,54.330
843.00,54.121
844.00,54.185
845.00,54.148
846.00,54.084
847.00,54.063
848.00,54.059
849.00,54.053
850.00,53.935
851.00,53.937
852.00,53.970
853.00,53.849
854.00,53.818
855.00,53.843
856.00,53.695
857.00,53.779
858.00,53.740
859.00,53.661
860.00,53.576
861.00,53.665
862.00,53.518
863.00,53.518
864.00,53.568
865.00,53.600
866.00,53.429
867.00,53.581
868.00,53.543
869.00,53.512
870.00,53.489
871.00,53.517
872.00,53.457
873.00,53.424
874.00,53.406
875.00,53.365
876.00,53.377
877.00,53.385
878.00,53.342
879.00,53.312
880.00,53.350
881.00,53.286
882.00,53.298
883.00,53.283
884.00,53.240
885.00,53.178
886.00,53.187
887.00,53.128
888.00,53.135
889.00,53.121
890.00,53.106
891.00,53.025
892.00,53.069
893.00,53.002
894.00,53.016
895.00,52.971
896.00,52.963
897.00,52.939
898.00,52.872
899.00,52.894
900.00,52.880
901.00,52.906
902.00,52.855
903.00,52.817
904.00,52.781
905.00,52.806
906.00,52.767
907.00,52.729
908.00,52.711
909.00,52.717
910.00,52.593
911.00,52.739
912.00,52.630
913.00,52.594
914.00,52.582
915.00,52.591
916.00,52.523
917.00,52.489
918.00,52.492
919.00,52.475
920.00,52.452
921.00,52.421
922.00,52.594
923.00,52.382
924.00,52.386
925.00,52.357
926.00,52.341
927.00,52.356
928.00,52.289
929.00,52.276
930.00,52.266
931.00,52.225
932.00,52.223
933.00,52.201
934.00,52.133
935.00,52.121
936.00,52.167
937.00,52.123
938.00,52.125
939.00,52.087
940.00,52.076
941.00,52.079
942.00,52.056
943.00,51.978
944.00,52.010
945.00,51.958
946.00,51.977
947.00,51.945
948.00,51.882
949.00,51.906
950.00,51.894
951.00,51.836
952.00,51.826
953.00,51.805
954.00,51.780
955.00,51.725
956.00,51.731
957.00,51.701
958.00,51.702
959.00,51.686
960.00,51.636
961.00,51.623
962.00,51.653
963.00,51.601
964.00,51.541
965.00,51.615
966.00,51.551
967.00,51.523
968.00,51.575
969.00,51.536
970.00,51.529
971.00,51.503
972.00,51.525
973.00,51.508
974.00,51.534
975.00,51.513
976.00,51.511
977.00,51.494
978.00,51.529
979.00,51.531
980.00,51.481
981.00,51.511
982.00,51.456
983.00,51.555
984.00,51.473
985.00,51.480
986.00,51.468
987.00,51.461
988.00,51.465
989.00,51.390
990.00,51.433
991.00,51.400
992.00,51.409
993.00,51.408
994.00,51.383
995.00,51.385
996.00,51.343
997.00,51.384
998.00,51.315
999.00,51.327
1000.00,51.294
1001.00,51.279
1002.00,51.305
1003.00,51.233
1004.00,51.280
1005.00,51.238
1006.00,51.227
1007.00,51.229
1008.00,51.186
1009.00,51.201
1010.00,51.160
1011.00,51.180
1012.00,51.137
1013.00,51.136
1014.00,51.108
1015.00,51.099
1016.00,51.098
1017.00,51.053
1018.00,51.072
1019.00,51.026
1020.00,51.026
1021.00,50.997
1022.00,50.975
1023.00,50.996
1024.00,50.949
1025.00,50.944
1026.00,50.931
1027.00,50.927
1028.00,50.905
1029.00,50.931
1030.00,50.875
1031.00,50.851
1032.00,50.849
1033.00,50.797
1034.00,50.798
1035.00,50.761
1036.00,50.754
1037.00,50.734
1038.00,50.719
1039.00,50.673
1040.00,50.655
1041.00,50.627
1042.00,50.635
1043.00,50.596
1044.00,50.607
1045.00,50.606
1046.00,50.617
1047.00,50.653
1048.00,50.632
1049.00,50.673
1050.00,50.652
1051.00,50.687
1052.00,50.702
1053.00,50.704
1054.00,50.724
1055.00,50.702
1056.00,50.720
1057.00,50.716
1058.00,50.718
1059.00,50.712
1060.00,50.719
1061.00,50.711
1062.00,50.708
1063.00,50.706
1064.00,50.691
1065.00,50.650
1066.00,50.650
1067.00,50.636
1068.00,50.658
1069.00,50.623
1070.00,50.627
1071.00,50.615
1072.00,50.582
1073.00,50.589
1074.00,50.583
1075.00,50.567
1076.00,50.538
1077.00,50.538
1078.00,50.534
1079.00,50.520
1080.00,50.504
1081.00,50.491
1082.00,50.503
1083.00,50.486
1084.00,50.488
1085.00,50.496
1086.00,50.474
1087.00,50.441
1088.00,50.431
1089.00,50.443
1090.00,50.442
1091.00,50.418
1092.00,50.389
1093.00,50.395
1094.00,50.380
1095.00,50.366
1096.00,50.351
1097.00,50.334
1098.00,50.334
1099.00,50.325
1100.00,50.322
1101.00,50.301
1102.00,50.305
1103.00,50.307
1104.00,50.288
1105.00,50.288
1106.00,50.255
1107.00,50.259
1108.00,50.256
1109.00,50.224
1110.00,50.234
1111.00,50.254
1112.00,50.221
1113.00,50.219
1114.00,50.230
1115.00,50.234
1116.00,50.219
1117.00,50.203
1118.00,50.188
1119.00,50.191
1120.00,50.152
1121.00,50.140
1122.00,50.172
1123.00,50.140
1124.00,50.147
1125.00,50.120
1126.00,50.131
1127.00,50.103
1128.00,50.093
1129.00,50.091
1130.00,50.085
1131.00,50.073
1132.00,50.054
1133.00,50.038
1134.00,50.034
1135.00,50.019
1136.00,50.047
1137.00,50.024
1138.00,50.038
1139.00,50.035
1140.00,50.005
1141.00,50.000
1142.00,49.999
1143.00,50.018
1144.00,49.994
1145.00,50.001
1146.00,49.998
1147.00,49.985
1148.00,49.983
1149.00,49.964
1150.00,49.980
1151.00,49.988
1152.00,49.937
1153.00,49.953
1154.00,49.954
1155.00,49.958
1156.00,49.934
1157.00,49.931
1158.00,49.931
1159.00,49.938
1160.00,49.922
1161.00,49.945
1162.00,49.951
1163.00,49.945
1164.00,49.959
1165.00,49.933
1166.00,49.935
1167.00,49.918
1168.00,49.927
1169.00,49.906
1170.00,49.920
1171.00,49.905
1172.00,49.900
1173.00,49.919
1174.00,49.890
1175.00,49.887
1176.00,49.894
1177.00,49.901
1178.00,49.883
1179.00,49.898
1180.00,49.870
1181.00,49.894
1182.00,49.870
1183.00,49.883
1184.00,49.878
1185.00,49.884
1186.00,49.853
1187.00,49.860
1188.00,49.876
1189.00,49.840
1190.00,49.859
1191.00,49.837
1192.00,49.850
1193.00,49.854
1194.00,49.864
1195.00,49.864
1196.00,49.846
1197.00,49.858
1198.00,49.835
1199.00,49.856
1200.00,49.833
1201.00,49.841
1202.00,49.827
1203.00,49.833
1204.00,49.837
1205.00,49.834
1206.00,49.829
1207.00,49.839
1208.00,49.831
1209.00,49.827
1210.00,49.849
1211.00,49.836
1212.00,49.856
1213.00,49.852
1214.00,49.837
1215.00,49.831
1216.00,49.817
1217.00,49.826
1218.00,49.822
1219.00,49.820
1220.00,49.819
1221.00,49.833
1222.00,49.848
1223.00,49.839
1224.00,49.847
1225.00,49.832
1226.00,49.849
1227.00,49.827
1228.00,49.842
1229.00,49.862
1230.00,49.885
1231.00,49.885
1232.00,49.880
1233.00,49.874
1234.00,49.889
1235.00,49.886
1236.00,49.863
1237.00,49.882
1238.00,49.861
1239.00,49.863
1240.00,49.854
1241.00,49.872
1242.00,49.878
1243.00,49.887
1244.00,49.872
1245.00,49.880
1246.00,49.897
1247.00,49.889
1248.00,49.901
1249.00,49.899
1250.00,49.905
1251.00,49.894
1252.00,49.908
1253.00,49.897
1254.00,49.920
1255.00,49.919
1256.00,49.899
1257.00,49.886
1258.00,49.928
1259.00,49.913
1260.00,49.923
1261.00,49.940
1262.00,49.940
1263.00,49.917
1264.00,49.928
1265.00,49.950
1266.00,49.929
1267.00,49.940
1268.00,49.950
1269.00,49.946
1270.00,49.967
1271.00,49.961
1272.00,49.990
1273.00,49.986
1274.00,49.971
1275.00,49.963
1276.00,49.990
1277.00,49.994
1278.00,50.007
1279.00,50.001
1280.00,50.003
1281.00,50.018
1282.00,50.014
1283.00,50.022
1284.00,50.014
1285.00,50.014
1286.00,50.021
1287.00,50.022
1288.00,50.026
1289.00,50.011
1290.00,50.034
1291.00,50.035
1292.00,50.059
1293.00,50.037
1294.00,50.072
1295.00,50.074
1296.00,50.066
1297.00,50.066
1298.00,50.089
1299.00,50.081
1300.00,50.095
1301.00,50.088
1302.00,50.118
1303.00,50.105
1304.00,50.092
1305.00,50.123
1306.00,50.137
1307.00,50.116
1308.00,50.087
1309.00,50.125
1310.00,50.122
1311.00,50.149
1312.00,50.133
1313.00,50.127
1314.00,50.142
1315.00,50.157
1316.00,50.160
1317.00,50.156
1318.00,50.159
1319.00,50.168
1320.00,50.213
1321.00,50.378
1322.00,50.390
1323.00,50.373
1324.00,50.377
1325.00,50.367
1326.00,50.381
1327.00,50.384
1328.00,50.376
1329.00,50.339
1330.00,50.368
1331.00,50.352
1332.00,50.358
1333.00,50.343
1334.00,50.426
1335.00,50.407
1336.00,50.454
1337.00,50.470
1338.00,50.557
1339.00,50.585
1340.00,50.639
1341.00,50.729
1342.00,50.785
1343.00,50.821
1344.00,50.863
1345.00,50.934
1346.00,51.034
1347.00,51.108
1348.00,51.048
1349.00,50.995
1350.00,51.079
1351.00,51.038
1352.00,51.045
1353.00,51.040
1354.00,51.050
1355.00,51.087
1356.00,50.991
1357.00,51.056
1358.00,51.074
1359.00,50.988
1360.00,51.185
1361.00,51.180
1362.00,50.851
1363.00,51.112
1364.00,51.072
1365.00,50.993
1366.00,51.178
1367.00,51.303
1368.00,51.082
1369.00,51.008
1370.00,51.040
1371.00,51.135
1372.00,51.046
1373.00,51.107
1374.00,51.052
1375.00,51.062
1376.00,51.012
1377.00,51.348
1378.00,50.967
1379.00,51.081
1380.00,51.127
1381.00,51.249
1382.00,51.104
1383.00,51.032
1384.00,51.037
1385.00,50.976
1386.00,51.022
1387.00,50.954
1388.00,50.996
1389.00,50.988
1390.00,51.067
1391.00,50.940
1392.00,50.992
1393.00,51.156
1394.00,51.053
1395.00,51.011
1396.00,51.026
1397.00,51.035
1398.00,51.005
1399.00,51.047
1400.00,51.048
1401.00,51.014
1402.00,50.949
1403.00,51.079
1404.00,51.052
1405.00,51.076
1406.00,51.185
1407.00,51.011
1408.00,51.114
1409.00,51.066
1410.00,51.098
1411.00,51.016
1412.00,51.136
1413.00,51.198
1414.00,51.108
1415.00,51.112
1416.00,51.140
1417.00,51.093
1418.00,51.177
1419.00,51.156
1420.00,51.201
1421.00,51.207
1422.00,51.164
1423.00,51.249
1424.00,51.236
1425.00,51.259
1426.00,51.230
1427.00,51.258
1428.00,51.287
1429.00,51.336
1430.00,51.306
1431.00,51.297
1432.00,51.312
1433.00,51.329
1434.00,51.337
1435.00,51.374
1436.00,51.346
1437.00,51.397
1438.00,51.463
1439.00,51.360
1440.00,51.423
1441.00,51.458
1442.00,51.475
1443.00,51.494
1444.00,51.504
1445.00,51.501
1446.00,51.554
1447.00,51.566
1448.00,51.601
1449.00,51.511
1450.00,51.594
1451.00,51.608
1452.00,51.606
1453.00,51.626
1454.00,51.601
1455.00,51.651
1456.00,51.663
1457.00,51.674
1458.00,51.703
1459.00,51.701
1460.00,51.715
1461.00,51.744
1462.00,51.739
1463.00,51.772
1464.00,51.766
1465.00,51.764
1466.00,51.794
1467.00,51.794
1468.00,51.824
1469.00,51.850
1470.00,51.862
1471.00,51.863
1472.00,51.884
1473.00,51.895
1474.00,51.901
1475.00,51.925
1476.00,51.925
1477.00,51.939
1478.00,51.945
1479.00,51.966
1480.00,51.952
1481.00,51.972
1482.00,51.969
1483.00,51.988
1484.00,52.032
1485.00,52.045
1486.00,52.041
1487.00,52.065
1488.00,52.071
1489.00,52.058
1490.00,52.078
1491.00,52.094
1492.00,52.113
1493.00,52.099
1494.00,52.145
1495.00,52.144
1496.00,52.141
1497.00,52.146
1498.00,52.135
1499.00,52.166
1500.00,52.190
1501.00, 
1502.00, 
1503.00, 
1504.00, 
1505.00, 
1506.00, 
1507.00, 
1508.00, 
1509.00, 
1510.00, 
1511.00, 
1512.00, 
1513.00, 
1514.00, 
1515.00, 
1516.00, 
1517.00, 
1518.00, 
1519.00, 
1520.00, 
1521.00, 
1522.00, 
1523.00, 
1524.00, 
1525.00, 
1526.00, 
1527.00, 
1528.00, 
1529.00, 
1530.00, 
1531.00, 
1532.00, 
1533.00, 
1534.00, 
1535.00, 
1536.00, 
1537.00, 
1538.00, 
1539.00, 
1540.00, 
1541.00, 
1542.00, 
1543.00, 
1544.00, 
1545.00, 
1546.00, 
1547.00, 
1548.00, 
1549.00, 
1550.00, 
1551.00, 
1552.00, 
1553.00, 
1554.00, 
1555.00, 
1556.00, 
1557.00, 
1558.00, 
1559.00, 
1560.00, 
1561.00, 
1562.00, 
1563.00, 
1564.00, 
1565.00, 
1566.00, 
1567.00, 
1568.00, 
1569.00, 
1570.00, 
1571.00, 
1572.00, 
1573.00, 
1574.00, 
1575.00, 
1576.00, 
1577.00, 
1578.00, 
1579.00, 
1580.00, 
1581.00, 
1582.00, 
1583.00, 
1584.00, 
1585.00, 
1586.00, 
1587.00, 
1588.00, 
1589.00, 
1590.00, 
1591.00, 
1592.00, 
1593.00, 
1594.00, 
1595.00, 
1596.00, 
1597.00, 
1598.00, 
1599.00, 
1600.00, 
1601.00, 
1602.00, 
1603.00, 
1604.00, 
1605.00, 
1606.00, 
1607.00, 
1608.00, 
1609.00, 
1610.00, 
1611.00, 
1612.00, 
1613.00, 
1614.00, 
1615.00, 
1616.00, 
1617.00, 
1618.00, 
1619.00, 
1620.00, 
1621.00, 
1622.00, 
1623.00, 
1624.00, 
1625.00, 
1626.00, 
1627.00, 
1628.00, 
1629.00, 
1630.00, 
1631.00, 
1632.00, 
1633.00, 
1634.00, 
1635.00, 
1636.00, 
1637.00, 
1638.00, 
1639.00, 
1640.00, 
1641.00, 
1642.00, 
1643.00, 
1644.00, 
1645.00, 
1646.00, 
1647.00, 
1648.00, 
1649.00, 
1650.00, 
1651.00, 
1652.00, 
1653.00, 
1654.00, 
1655.00, 
1656.00, 
1657.00, 
1658.00, 
1659.00, 
1660.00, 
1661.00, 
1662.00, 
1663.00, 
1664.00, 
1665.00, 
1666.00, 
1667.00, 
1668.00, 
1669.00, 
1670.00, 
1671.00, 
1672.00, 
1673.00, 
1674.00, 
1675.00, 
1676.00, 
1677.00, 
1678.00, 
1679.00, 
1680.00, 
1681.00, 
1682.00, 
1683.00, 
1684.00, 
1685.00, 
1686.00, 
1687.00, 
1688.00, 
1689.00, 
1690.00, 
1691.00, 
1692.00, 
1693.00, 
1694.00, 
1695.00, 
1696.00, 
1697.00, 
1698.00, 
1699.00, 
1700.00, 
1701.00, 
1702.00, 
1703.00, 
1704.00, 
1705.00, 
1706.00, 
1707.00, 
1708.00, 
1709.00, 
1710.00, 
1711.00, 
1712.00, 
1713.00, 
1714.00, 
1715.00, 
1716.00, 
1717.00, 
1718.00, 
1719.00, 
1720.00, 
1721.00, 
1722.00, 
1723.00, 
1724.00, 
1725.00, 
1726.00, 
1727.00, 
1728.00, 
1729.00, 
1730.00, 
1731.00, 
1732.00, 
1733.00, 
1734.00, 
1735.00, 
1736.00, 
1737.00, 
1738.00, 
1739.00, 
1740.00, 
1741.00, 
1742.00, 
1743.00, 
1744.00, 
1745.00, 
1746.00, 
1747.00, 
1748.00, 
1749.00, 
1750.00, 
1751.00, 
1752.00, 
1753.00, 
1754.00, 
1755.00, 
1756.00, 
1757.00, 
1758.00, 
1759.00, 
1760.00, 
1761.00, 
1762.00, 
1763.00, 
1764.00, 
1765.00, 
1766.00, 
1767.00, 
1768.00, 
1769.00, 
1770.00, 
1771.00, 
1772.00, 
1773.00, 
1774.00, 
1775.00, 
1776.00, 
1777.00, 
1778.00, 
1779.00, 
1780.00, 
1781.00, 
1782.00, 
1783.00, 
1784.00, 
1785.00, 
1786.00, 
1787.00, 
1788.00, 
1789.00, 
1790.00, 
1791.00, 
1792.00, 
1793.00, 
1794.00, 
1795.00, 
1796.00, 
1797.00, 
1798.00, 
1799.00, 
1800.00, 
1801.00, 
1802.00, 
1803.00, 
1804.00, 
1805.00, 
1806.00, 
1807.00, 
1808.00, 
1809.00, 
1810.00, 
1811.00, 
1812.00, 
1813.00, 
1814.00, 
1815.00, 
1816.00, 
1817.00, 
1818.00, 
1819.00, 
1820.00, 
1821.00, 
1822.00, 
1823.00, 
1824.00, 
1825.00, 
1826.00, 
1827.00, 
1828.00, 
1829.00, 
1830.00, 
1831.00, 
1832.00, 
1833.00, 
1834.00, 
1835.00, 
1836.00, 
1837.00, 
1838.00, 
1839.00, 
1840.00, 
1841.00, 
1842.00, 
1843.00, 
1844.00, 
1845.00, 
1846.00, 
1847.00, 
1848.00, 
1849.00, 
1850.00, 
1851.00, 
1852.00, 
1853.00, 
1854.00, 
1855.00, 
1856.00, 
1857.00, 
1858.00, 
1859.00, 
1860.00, 
1861.00, 
1862.00, 
1863.00, 
1864.00, 
1865.00, 
1866.00, 
1867.00, 
1868.00, 
1869.00, 
1870.00, 
1871.00, 
1872.00, 
1873.00, 
1874.00, 
1875.00, 
1876.00, 
1877.00, 
1878.00, 
1879.00, 
1880.00, 
1881.00, 
1882.00, 
1883.00, 
1884.00, 
1885.00, 
1886.00, 
1887.00, 
1888.00, 
1889.00, 
1890.00, 
1891.00, 
1892.00, 
1893.00, 
1894.00, 
1895.00, 
1896.00, 
1897.00, 
1898.00, 
1899.00, 
1900.00, 
1901.00, 
1902.00, 
1903.00, 
1904.00, 
1905.00, 
1906.00, 
1907.00, 
1908.00, 
1909.00, 
1910.00, 
1911.00, 
1912.00, 
1913.00, 
1914.00, 
1915.00, 
1916.00, 
1917.00, 
1918.00, 
1919.00, 
1920.00, 
1921.00, 
1922.00, 
1923.00, 
1924.00, 
1925.00, 
1926.00, 
1927.00, 
1928.00, 
1929.00, 
1930.00, 
1931.00, 
1932.00, 
1933.00, 
1934.00, 
1935.00, 
1936.00, 
1937.00, 
1938.00, 
1939.00, 
1940.00, 
1941.00, 
1942.00, 
1943.00, 
1944.00, 
1945.00, 
1946.00, 
1947.00, 
1948.00, 
1949.00, 
1950.00, 
1951.00, 
1952.00, 
1953.00, 
1954.00, 
1955.00, 
1956.00, 
1957.00, 
1958.00, 
1959.00, 
1960.00, 
1961.00, 
1962.00, 
1963.00, 
1964.00, 
1965.00, 
1966.00, 
1967.00, 
1968.00, 
1969.00, 
1970.00, 
1971.00, 
1972.00, 
1973.00, 
1974.00, 
1975.00, 
1976.00, 
1977.00, 
1978.00, 
1979.00, 
1980.00, 
1981.00, 
1982.00, 
1983.00, 
1984.00, 
1985.00, 
1986.00, 
1987.00, 
1988.00, 
1989.00, 
1990.00, 
1991.00, 
1992.00, 
1993.00, 
1994.00, 
1995.00, 
1996.00, 
1997.00, 
1998.00, 
1999.00, 
2000.00, 
2001.00, 
2002.00, 
2003.00, 
2004.00, 
2005.00, 
2006.00, 
2007.00, 
2008.00, 
2009.00, 
2010.00, 
2011.00, 
2012.00, 
2013.00, 
2014.00, 
2015.00, 
2016.00, 
2017.00, 
2018.00, 
2019.00, 
2020.00, 
2021.00, 
2022.00, 
2023.00, 
2024.00, 
2025.00, 
2026.00, 
2027.00, 
2028.00, 
2029.00, 
2030.00, 
2031.00, 
2032.00, 
2033.00, 
2034.00, 
2035.00, 
2036.00, 
2037.00, 
2038.00, 
2039.00, 
2040.00, 
2041.00, 
2042.00, 
2043.00, 
2044.00, 
2045.00, 
2046.00, 
2047.00, 
2048.00, 
2049.00, 
2050.00, 
2051.00, 
2052.00, 
2053.00, 
2054.00, 
2055.00, 
2056.00, 
2057.00, 
2058.00, 
2059.00, 
2060.00, 
2061.00, 
2062.00, 
2063.00, 
2064.00, 
2065.00, 
2066.00, 
2067.00, 
2068.00, 
2069.00, 
2070.00, 
2071.00, 
2072.00, 
2073.00, 
2074.00, 
2075.00, 
2076.00, 
2077.00, 
2078.00, 
2079.00, 
2080.00, 
2081.00, 
2082.00, 
2083.00, 
2084.00, 
2085.00, 
2086.00, 
2087.00, 
2088.00, 
2089.00, 
2090.00, 
2091.00, 
2092.00, 
2093.00, 
2094.00, 
2095.00, 
2096.00, 
2097.00, 
2098.00, 
2099.00, 
2100.00, 
2101.00, 
2102.00, 
2103.00, 
2104.00, 
2105.00, 
2106.00, 
2107.00, 
2108.00, 
2109.00, 
2110.00, 
2111.00, 
2112.00, 
2113.00, 
2114.00, 
2115.00, 
2116.00, 
2117.00, 
2118.00, 
2119.00, 
2120.00, 
2121.00, 
2122.00, 
2123.00, 
2124.00, 
2125.00, 
2126.00, 
2127.00, 
2128.00, 
2129.00, 
2130.00, 
2131.00, 
2132.00, 
2133.00, 
2134.00, 
2135.00, 
2136.00, 
2137.00, 
2138.00, 
2139.00, 
2140.00, 
2141.00, 
2142.00, 
2143.00, 
2144.00, 
2145.00, 
2146.00, 
2147.00, 
2148.00, 
2149.00, 
2150.00, 
2151.00, 
2152.00, 
2153.00, 
2154.00, 
2155.00, 
2156.00, 
2157.00, 
2158.00, 
2159.00, 
2160.00, 
2161.00, 
2162.00, 
2163.00, 
2164.00, 
2165.00, 
2166.00, 
2167.00, 
2168.00, 
2169.00, 
2170.00, 
2171.00, 
2172.00, 
2173.00, 
2174.00, 
2175.00, 
2176.00, 
2177.00, 
2178.00, 
2179.00, 
2180.00, 
2181.00, 
2182.00, 
2183.00, 
2184.00, 
2185.00, 
2186.00, 
2187.00, 
2188.00, 
2189.00, 
2190.00, 
2191.00, 
2192.00, 
2193.00, 
2194.00, 
2195.00, 
2196.00, 
2197.00, 
2198.00, 
2199.00, 
2200.00, 
2201.00, 
2202.00, 
2203.00, 
2204.00, 
2205.00, 
2206.00, 
2207.00, 
2208.00, 
2209.00, 
2210.00, 
2211.00, 
2212.00, 
2213.00, 
2214.00, 
2215.00, 
2216.00, 
2217.00, 
2218.00, 
2219.00, 
2220.00, 
2221.00, 
2222.00, 
2223.00, 
2224.00, 
2225.00, 
2226.00, 
2227.00, 
2228.00, 
2229.00, 
2230.00, 
2231.00, 
2232.00, 
2233.00, 
2234.00, 
2235.00, 
2236.00, 
2237.00, 
2238.00, 
2239.00, 
2240.00, 
2241.00, 
2242.00, 
2243.00, 
2244.00, 
2245.00, 
2246.00, 
2247.00, 
2248.00, 
2249.00, 
2250.00, 
2251.00, 
2252.00, 
2253.00, 
2254.00, 
2255.00, 
2256.00, 
2257.00, 
2258.00, 
2259.00, 
2260.00, 
2261.00, 
2262.00, 
2263.00, 
2264.00, 
2265.00, 
2266.00, 
2267.00, 
2268.00, 
2269.00, 
2270.00, 
2271.00, 
2272.00, 
2273.00, 
2274.00, 
2275.00, 
2276.00, 
2277.00, 
2278.00, 
2279.00, 
2280.00, 
2281.00, 
2282.00, 
2283.00, 
2284.00, 
2285.00, 
2286.00, 
2287.00, 
2288.00, 
2289.00, 
2290.00, 
2291.00, 
2292.00, 
2293.00, 
2294.00, 
2295.00, 
2296.00, 
2297.00, 
2298.00, 
2299.00, 
2300.00, 
2301.00, 
2302.00, 
2303.00, 
2304.00, 
2305.00, 
2306.00, 
2307.00, 
2308.00, 
2309.00, 
2310.00, 
2311.00, 
2312.00, 
2313.00, 
2314.00, 
2315.00, 
2316.00, 
2317.00, 
2318.00, 
2319.00, 
2320.00, 
2321.00, 
2322.00, 
2323.00, 
2324.00, 
2325.00, 
2326.00, 
2327.00, 
2328.00, 
2329.00, 
2330.00, 
2331.00, 
2332.00, 
2333.00, 
2334.00, 
2335.00, 
2336.00, 
2337.00, 
2338.00, 
2339.00, 
2340.00, 
2341.00, 
2342.00, 
2343.00, 
2344.00, 
2345.00, 
2346.00, 
2347.00, 
2348.00, 
2349.00, 
2350.00, 
2351.00, 
2352.00, 
2353.00, 
2354.00, 
2355.00, 
2356.00, 
2357.00, 
2358.00, 
2359.00, 
2360.00, 
2361.00, 
2362.00, 
2363.00, 
2364.00, 
2365.00, 
2366.00, 
2367.00, 
2368.00, 
2369.00, 
2370.00, 
2371.00, 
2372.00, 
2373.00, 
2374.00, 
2375.00, 
2376.00, 
2377.00, 
2378.00, 
2379.00, 
2380.00, 
2381.00, 
2382.00, 
2383.00, 
2384.00, 
2385.00, 
2386.00, 
2387.00, 
2388.00, 
2389.00, 
2390.00, 
2391.00, 
2392.00, 
2393.00, 
2394.00, 
2395.00, 
2396.00, 
2397.00, 
2398.00, 
2399.00, 
2400.00, 
2401.00, 
2402.00, 
2403.00, 
2404.00, 
2405.00, 
2406.00, 
2407.00, 
2408.00, 
2409.00, 
2410.00, 
2411.00, 
2412.00, 
2413.00, 
2414.00, 
2415.00, 
2416.00, 
2417.00, 
2418.00, 
2419.00, 
2420.00, 
2421.00, 
2422.00, 
2423.00, 
2424.00, 
2425.00, 
2426.00, 
2427.00, 
2428.00, 
2429.00, 
2430.00, 
2431.00, 
2432.00, 
2433.00, 
2434.00, 
2435.00, 
2436.00, 
2437.00, 
2438.00, 
2439.00, 
2440.00, 
2441.00, 
2442.00, 
2443.00, 
2444.00, 
2445.00, 
2446.00, 
2447.00, 
2448.00, 
2449.00, 
2450.00, 
2451.00, 
2452.00, 
2453.00, 
2454.00, 
2455.00, 
2456.00, 
2457.00, 
2458.00, 
2459.00, 
2460.00, 
2461.00, 
2462.00, 
2463.00, 
2464.00, 
2465.00, 
2466.00, 
2467.00, 
2468.00, 
2469.00, 
2470.00, 
2471.00, 
2472.00, 
2473.00, 
2474.00, 
2475.00, 
2476.00, 
2477.00, 
2478.00, 
2479.00, 
2480.00, 
2481.00, 
2482.00, 
2483.00, 
2484.00, 
2485.00, 
2486.00, 
2487.00, 
2488.00, 
2489.00, 
2490.00, 
2491.00, 
2492.00, 
2493.00, 
2494.00, 
2495.00, 
2496.00, 
2497.00, 
2498.00, 
2499.00, 
2500.00, 
2501.00, 
2502.00, 
2503.00, 
2504.00, 
2505.00, 
2506.00, 
2507.00, 
2508.00, 
2509.00, 
2510.00, 
2511.00, 
2512.00, 
2513.00, 
2514.00, 
2515.00, 
2516.00, 
2517.00, 
2518.00, 
2519.00, 
2520.00, 
2521.00, 
2522.00, 
2523.00, 
2524.00, 
2525.00, 
2526.00, 
2527.00, 
2528.00, 
2529.00, 
2530.00, 
2531.00, 
2532.00, 
2533.00, 
2534.00, 
2535.00, 
2536.00, 
2537.00, 
2538.00, 
2539.00, 
2540.00, 
2541.00, 
2542.00, 
2543.00, 
2544.00, 
2545.00, 
2546.00, 
2547.00, 
2548.00, 
2549.00, 
2550.00, 
2551.00, 
2552.00, 
2553.00, 
2554.00, 
2555.00, 
2556.00, 
2557.00, 
2558.00, 
2559.00, 
2560.00, 
2561.00, 
2562.00, 
2563.00, 
2564.00, 
2565.00, 
2566.00, 
2567.00, 
2568.00, 
2569.00, 
2570.00, 
2571.00, 
2572.00, 
2573.00, 
2574.00, 
2575.00, 
2576.00, 
2577.00, 
2578.00, 
2579.00, 
2580.00, 
2581.00, 
2582.00, 
2583.00, 
2584.00, 
2585.00, 
2586.00, 
2587.00, 
2588.00, 
2589.00, 
2590.00, 
2591.00, 
2592.00, 
2593.00, 
2594.00, 
2595.00, 
2596.00, 
2597.00, 
2598.00, 
2599.00, 
2600.00, 
