"2cP2 - RawData"
"Wavelength nm.","T%"
200.00,0.003
201.00,0.003
202.00,0.003
203.00,0.004
204.00,0.002
205.00,0.002
206.00,0.003
207.00,0.004
208.00,0.005
209.00,0.003
210.00,-0.001
211.00,-0.002
212.00,0.003
213.00,-0.003
214.00,0.001
215.00,0.003
216.00,0.000
217.00,0.001
218.00,0.001
219.00,0.003
220.00,0.001
221.00,0.001
222.00,-0.000
223.00,0.003
224.00,-0.000
225.00,-0.000
226.00,-0.001
227.00,-0.001
228.00,0.002
229.00,0.002
230.00,0.003
231.00,0.002
232.00,0.000
233.00,0.003
234.00,0.002
235.00,0.001
236.00,0.000
237.00,0.001
238.00,-0.001
239.00,0.001
240.00,0.001
241.00,0.000
242.00,0.001
243.00,0.000
244.00,0.001
245.00,0.001
246.00,-0.000
247.00,-0.000
248.00,0.001
249.00,0.000
250.00,0.000
251.00,-0.000
252.00,0.001
253.00,0.001
254.00,0.000
255.00,-0.001
256.00,0.001
257.00,0.000
258.00,0.001
259.00,0.001
260.00,0.000
261.00,0.001
262.00,-0.000
263.00,-0.002
264.00,0.001
265.00,0.000
266.00,-0.000
267.00,0.001
268.00,0.000
269.00,-0.000
270.00,0.001
271.00,0.000
272.00,-0.000
273.00,0.001
274.00,0.000
275.00,-0.001
276.00,0.002
277.00,0.000
278.00,0.001
279.00,0.001
280.00,-0.001
281.00,0.001
282.00,-0.000
283.00,-0.000
284.00,0.000
285.00,0.002
286.00,-0.000
287.00,0.001
288.00,0.001
289.00,0.004
290.00,-0.000
291.00,0.001
292.00,-0.000
293.00,0.003
294.00,0.002
295.00,0.002
296.00,0.000
297.00,-0.000
298.00,0.001
299.00,0.003
300.00,0.006
301.00,0.009
302.00,0.012
303.00,0.016
304.00,0.025
305.00,0.042
306.00,0.066
307.00,0.097
308.00,0.151
309.00,0.242
310.00,0.332
311.00,0.460
312.00,0.605
313.00,0.819
314.00,1.084
315.00,1.423
316.00,1.823
317.00,2.315
318.00,2.855
319.00,3.488
320.00,4.193
321.00,4.957
322.00,5.927
323.00,6.975
324.00,7.978
325.00,9.126
326.00,10.235
327.00,11.580
328.00,12.852
329.00,14.332
330.00,15.655
331.00,17.047
332.00,18.460
333.00,19.975
334.00,21.396
335.00,22.821
336.00,24.305
337.00,25.873
338.00,27.109
339.00,28.543
340.00,29.537
341.00,31.055
342.00,32.376
343.00,33.564
344.00,34.685
345.00,35.859
346.00,36.856
347.00,37.754
348.00,38.682
349.00,39.584
350.00,40.377
351.00,41.179
352.00,41.886
353.00,42.672
354.00,43.393
355.00,43.875
356.00,44.643
357.00,45.083
358.00,45.760
359.00,46.106
360.00,46.618
361.00,46.928
362.00,47.321
363.00,47.764
364.00,47.996
365.00,48.395
366.00,48.605
367.00,48.945
368.00,49.211
369.00,49.345
370.00,49.515
371.00,49.867
372.00,49.766
373.00,50.069
374.00,50.023
375.00,50.090
376.00,50.033
377.00,50.062
378.00,50.165
379.00,49.966
380.00,50.025
381.00,50.109
382.00,50.237
383.00,50.284
384.00,50.515
385.00,50.599
386.00,50.822
387.00,51.045
388.00,51.244
389.00,51.343
390.00,51.510
391.00,51.669
392.00,51.801
393.00,51.876
394.00,52.112
395.00,52.183
396.00,52.234
397.00,52.364
398.00,52.495
399.00,52.604
400.00,52.724
401.00,52.736
402.00,53.043
403.00,52.956
404.00,52.858
405.00,52.913
406.00,52.928
407.00,52.912
408.00,52.907
409.00,52.924
410.00,52.797
411.00,52.767
412.00,52.702
413.00,52.643
414.00,52.727
415.00,52.830
416.00,52.961
417.00,52.837
418.00,52.852
419.00,53.034
420.00,53.115
421.00,52.938
422.00,52.901
423.00,52.867
424.00,52.994
425.00,52.931
426.00,52.946
427.00,53.014
428.00,52.934
429.00,52.981
430.00,52.952
431.00,53.049
432.00,53.036
433.00,52.974
434.00,53.052
435.00,53.109
436.00,53.029
437.00,53.105
438.00,53.178
439.00,53.200
440.00,53.204
441.00,53.253
442.00,53.272
443.00,53.301
444.00,53.358
445.00,53.452
446.00,53.370
447.00,53.422
448.00,53.442
449.00,53.495
450.00,53.549
451.00,53.547
452.00,53.522
453.00,53.548
454.00,53.603
455.00,53.779
456.00,53.613
457.00,53.703
458.00,53.745
459.00,53.799
460.00,53.786
461.00,53.796
462.00,53.899
463.00,53.921
464.00,53.874
465.00,53.961
466.00,53.999
467.00,54.011
468.00,53.919
469.00,53.968
470.00,53.872
471.00,53.881
472.00,53.767
473.00,53.788
474.00,53.744
475.00,53.787
476.00,53.679
477.00,53.661
478.00,53.740
479.00,53.751
480.00,53.877
481.00,53.838
482.00,53.944
483.00,53.984
484.00,54.032
485.00,54.158
486.00,54.191
487.00,54.230
488.00,54.343
489.00,54.501
490.00,54.569
491.00,54.156
492.00,54.230
493.00,54.307
494.00,54.319
495.00,54.335
496.00,54.339
497.00,54.373
498.00,54.440
499.00,54.512
500.00,54.289
501.00,54.270
502.00,54.312
503.00,54.231
504.00,54.418
505.00,54.467
506.00,54.385
507.00,54.380
508.00,54.458
509.00,54.590
510.00,54.461
511.00,54.566
512.00,54.587
513.00,54.577
514.00,54.650
515.00,54.583
516.00,54.630
517.00,54.670
518.00,54.590
519.00,54.489
520.00,54.584
521.00,54.578
522.00,54.458
523.00,54.581
524.00,54.599
525.00,54.693
526.00,54.798
527.00,54.699
528.00,54.729
529.00,54.870
530.00,54.992
531.00,55.006
532.00,54.970
533.00,54.855
534.00,54.883
535.00,54.893
536.00,54.934
537.00,54.798
538.00,54.864
539.00,54.784
540.00,54.812
541.00,54.791
542.00,54.801
543.00,54.896
544.00,54.788
545.00,54.733
546.00,54.904
547.00,54.898
548.00,54.933
549.00,54.995
550.00,55.012
551.00,55.020
552.00,54.974
553.00,54.969
554.00,55.098
555.00,54.970
556.00,54.971
557.00,54.909
558.00,55.013
559.00,55.006
560.00,55.077
561.00,55.035
562.00,55.041
563.00,55.040
564.00,55.106
565.00,55.035
566.00,55.050
567.00,55.012
568.00,54.983
569.00,54.993
570.00,54.975
571.00,54.992
572.00,54.871
573.00,54.909
574.00,54.731
575.00,54.783
576.00,54.835
577.00,54.804
578.00,54.834
579.00,54.806
580.00,55.011
581.00,54.947
582.00,55.004
583.00,55.085
584.00,55.162
585.00,55.133
586.00,55.151
587.00,55.221
588.00,55.095
589.00,55.152
590.00,55.182
591.00,54.987
592.00,55.052
593.00,55.190
594.00,55.150
595.00,55.322
596.00,55.129
597.00,55.166
598.00,55.406
599.00,55.314
600.00,55.131
601.00,55.042
602.00,54.940
603.00,54.929
604.00,55.050
605.00,54.917
606.00,54.916
607.00,55.191
608.00,55.109
609.00,55.016
610.00,55.009
611.00,54.838
612.00,54.850
613.00,55.088
614.00,54.925
615.00,54.511
616.00,54.579
617.00,55.122
618.00,55.063
619.00,54.760
620.00,54.761
621.00,54.850
622.00,54.853
623.00,54.856
624.00,54.902
625.00,54.925
626.00,54.878
627.00,54.793
628.00,54.771
629.00,54.757
630.00,54.636
631.00,54.677
632.00,54.735
633.00,54.869
634.00,54.711
635.00,54.756
636.00,54.719
637.00,54.777
638.00,54.698
639.00,54.681
640.00,54.585
641.00,54.557
642.00,54.653
643.00,54.547
644.00,54.586
645.00,54.748
646.00,54.625
647.00,54.644
648.00,54.621
649.00,54.738
650.00,54.588
651.00,54.635
652.00,54.620
653.00,54.475
654.00,54.430
655.00,54.688
656.00,54.766
657.00,54.506
658.00,54.185
659.00,54.437
660.00,54.664
661.00,53.300
662.00,54.396
663.00,54.413
664.00,54.526
665.00,54.185
666.00,54.249
667.00,54.257
668.00,54.698
669.00,54.267
670.00,54.273
671.00,54.397
672.00,54.468
673.00,54.086
674.00,54.197
675.00,54.077
676.00,53.975
677.00,53.985
678.00,54.052
679.00,54.351
680.00,53.805
681.00,54.031
682.00,53.953
683.00,53.818
684.00,53.749
685.00,53.730
686.00,53.777
687.00,53.598
688.00,53.632
689.00,53.699
690.00,53.715
691.00,53.972
692.00,53.456
693.00,53.437
694.00,53.544
695.00,53.528
696.00,53.536
697.00,53.429
698.00,53.641
699.00,53.354
700.00,53.208
701.00,53.156
702.00,53.292
703.00,53.395
704.00,53.317
705.00,53.553
706.00,53.083
707.00,53.160
708.00,53.033
709.00,53.016
710.00,53.034
711.00,52.722
712.00,52.946
713.00,52.910
714.00,53.113
715.00,52.860
716.00,52.590
717.00,52.868
718.00,52.902
719.00,52.933
720.00,52.836
721.00,57.789
722.00,57.816
723.00,57.776
724.00,57.628
725.00,57.482
726.00,57.416
727.00,57.300
728.00,57.318
729.00,57.157
730.00,57.287
731.00,57.112
732.00,56.953
733.00,56.888
734.00,56.787
735.00,56.858
736.00,56.881
737.00,56.731
738.00,56.714
739.00,56.658
740.00,56.654
741.00,56.577
742.00,56.527
743.00,56.514
744.00,56.442
745.00,56.367
746.00,56.221
747.00,56.022
748.00,56.083
749.00,56.041
750.00,55.816
751.00,55.926
752.00,55.811
753.00,55.707
754.00,55.730
755.00,55.693
756.00,55.475
757.00,55.581
758.00,55.497
759.00,55.508
760.00,55.323
761.00,55.469
762.00,55.211
763.00,55.295
764.00,55.188
765.00,55.041
766.00,55.104
767.00,55.012
768.00,55.051
769.00,54.850
770.00,55.012
771.00,54.882
772.00,54.956
773.00,54.830
774.00,54.814
775.00,54.795
776.00,54.740
777.00,54.752
778.00,54.512
779.00,54.561
780.00,54.632
781.00,54.427
782.00,54.592
783.00,54.388
784.00,54.380
785.00,54.297
786.00,54.262
787.00,54.211
788.00,54.074
789.00,54.338
790.00,54.116
791.00,54.021
792.00,54.102
793.00,54.077
794.00,53.972
795.00,53.806
796.00,53.814
797.00,53.868
798.00,53.752
799.00,53.637
800.00,53.610
801.00,53.755
802.00,53.567
803.00,53.602
804.00,53.600
805.00,53.459
806.00,53.470
807.00,53.409
808.00,53.439
809.00,53.162
810.00,53.341
811.00,53.167
812.00,53.097
813.00,53.225
814.00,53.034
815.00,53.168
816.00,53.222
817.00,52.964
818.00,53.000
819.00,53.054
820.00,52.960
821.00,52.840
822.00,52.973
823.00,52.845
824.00,52.905
825.00,52.756
826.00,52.830
827.00,52.629
828.00,52.680
829.00,52.643
830.00,52.626
831.00,55.137
832.00,55.004
833.00,54.999
834.00,54.964
835.00,55.070
836.00,54.983
837.00,54.878
838.00,55.006
839.00,54.879
840.00,54.790
841.00,54.797
842.00,54.733
843.00,54.627
844.00,54.736
845.00,54.567
846.00,54.497
847.00,54.554
848.00,54.602
849.00,54.391
850.00,54.538
851.00,54.395
852.00,54.349
853.00,54.233
854.00,54.242
855.00,54.219
856.00,54.095
857.00,54.161
858.00,54.088
859.00,54.094
860.00,54.043
861.00,54.034
862.00,53.976
863.00,53.925
864.00,53.952
865.00,53.894
866.00,54.057
867.00,53.862
868.00,53.808
869.00,53.819
870.00,53.805
871.00,53.817
872.00,53.782
873.00,53.717
874.00,53.821
875.00,53.698
876.00,53.706
877.00,53.697
878.00,53.685
879.00,53.681
880.00,53.593
881.00,53.688
882.00,53.581
883.00,53.581
884.00,53.545
885.00,53.461
886.00,53.493
887.00,53.475
888.00,53.439
889.00,53.398
890.00,53.392
891.00,53.388
892.00,53.350
893.00,53.311
894.00,53.305
895.00,53.247
896.00,53.234
897.00,53.203
898.00,53.122
899.00,53.149
900.00,53.161
901.00,53.150
902.00,53.110
903.00,53.023
904.00,53.087
905.00,53.057
906.00,52.995
907.00,53.015
908.00,52.967
909.00,52.959
910.00,52.928
911.00,52.942
912.00,52.886
913.00,52.864
914.00,52.840
915.00,52.833
916.00,52.786
917.00,52.785
918.00,52.745
919.00,52.725
920.00,52.618
921.00,52.769
922.00,52.659
923.00,52.636
924.00,52.617
925.00,52.633
926.00,52.585
927.00,52.566
928.00,52.543
929.00,52.523
930.00,52.503
931.00,52.464
932.00,52.451
933.00,52.444
934.00,52.392
935.00,52.302
936.00,52.461
937.00,52.369
938.00,52.334
939.00,52.347
940.00,52.302
941.00,52.291
942.00,52.301
943.00,52.198
944.00,52.210
945.00,52.169
946.00,52.180
947.00,52.122
948.00,52.139
949.00,52.088
950.00,52.097
951.00,52.057
952.00,52.039
953.00,52.023
954.00,51.991
955.00,51.938
956.00,51.921
957.00,51.901
958.00,51.912
959.00,51.866
960.00,51.783
961.00,51.830
962.00,51.822
963.00,51.802
964.00,51.767
965.00,51.811
966.00,51.797
967.00,51.732
968.00,51.704
969.00,51.735
970.00,51.722
971.00,51.692
972.00,51.721
973.00,51.695
974.00,51.745
975.00,51.731
976.00,51.716
977.00,51.711
978.00,51.719
979.00,51.719
980.00,51.682
981.00,51.689
982.00,51.681
983.00,51.696
984.00,51.680
985.00,51.674
986.00,51.669
987.00,51.646
988.00,51.662
989.00,51.601
990.00,51.621
991.00,51.615
992.00,51.605
993.00,51.551
994.00,51.584
995.00,51.647
996.00,51.530
997.00,51.545
998.00,51.498
999.00,51.509
1000.00,51.490
1001.00,51.455
1002.00,51.483
1003.00,51.430
1004.00,51.458
1005.00,51.421
1006.00,51.433
1007.00,51.429
1008.00,51.389
1009.00,51.412
1010.00,51.351
1011.00,51.385
1012.00,51.357
1013.00,51.325
1014.00,51.314
1015.00,51.289
1016.00,51.300
1017.00,51.263
1018.00,51.275
1019.00,51.227
1020.00,51.234
1021.00,51.200
1022.00,51.183
1023.00,51.156
1024.00,51.160
1025.00,51.153
1026.00,51.108
1027.00,51.150
1028.00,51.119
1029.00,51.112
1030.00,51.073
1031.00,51.045
1032.00,51.065
1033.00,51.015
1034.00,50.997
1035.00,50.964
1036.00,50.949
1037.00,50.911
1038.00,50.899
1039.00,50.856
1040.00,50.852
1041.00,50.841
1042.00,50.860
1043.00,50.825
1044.00,50.836
1045.00,50.819
1046.00,50.821
1047.00,50.858
1048.00,50.843
1049.00,50.868
1050.00,50.865
1051.00,50.869
1052.00,50.899
1053.00,50.891
1054.00,50.909
1055.00,50.903
1056.00,50.934
1057.00,50.942
1058.00,50.928
1059.00,50.914
1060.00,50.929
1061.00,50.931
1062.00,50.908
1063.00,50.909
1064.00,50.897
1065.00,50.885
1066.00,50.880
1067.00,50.852
1068.00,50.889
1069.00,50.859
1070.00,50.838
1071.00,50.853
1072.00,50.825
1073.00,50.819
1074.00,50.797
1075.00,50.792
1076.00,50.793
1077.00,50.778
1078.00,50.760
1079.00,50.782
1080.00,50.762
1081.00,50.744
1082.00,50.756
1083.00,50.744
1084.00,50.719
1085.00,50.715
1086.00,50.711
1087.00,50.722
1088.00,50.709
1089.00,50.680
1090.00,50.686
1091.00,50.694
1092.00,50.653
1093.00,50.656
1094.00,50.647
1095.00,50.630
1096.00,50.601
1097.00,50.583
1098.00,50.588
1099.00,50.579
1100.00,50.567
1101.00,50.574
1102.00,50.562
1103.00,50.565
1104.00,50.579
1105.00,50.541
1106.00,50.537
1107.00,50.524
1108.00,50.517
1109.00,50.501
1110.00,50.507
1111.00,50.499
1112.00,50.489
1113.00,50.502
1114.00,50.490
1115.00,50.500
1116.00,50.481
1117.00,50.462
1118.00,50.459
1119.00,50.473
1120.00,50.435
1121.00,50.418
1122.00,50.431
1123.00,50.408
1124.00,50.428
1125.00,50.385
1126.00,50.408
1127.00,50.402
1128.00,50.389
1129.00,50.393
1130.00,50.393
1131.00,50.389
1132.00,50.375
1133.00,50.355
1134.00,50.371
1135.00,50.338
1136.00,50.330
1137.00,50.355
1138.00,50.342
1139.00,50.316
1140.00,50.314
1141.00,50.300
1142.00,50.319
1143.00,50.326
1144.00,50.301
1145.00,50.315
1146.00,50.318
1147.00,50.310
1148.00,50.321
1149.00,50.302
1150.00,50.309
1151.00,50.286
1152.00,50.267
1153.00,50.303
1154.00,50.300
1155.00,50.296
1156.00,50.287
1157.00,50.284
1158.00,50.284
1159.00,50.277
1160.00,50.266
1161.00,50.261
1162.00,50.288
1163.00,50.281
1164.00,50.327
1165.00,50.296
1166.00,50.263
1167.00,50.262
1168.00,50.273
1169.00,50.244
1170.00,50.269
1171.00,50.271
1172.00,50.246
1173.00,50.270
1174.00,50.243
1175.00,50.259
1176.00,50.270
1177.00,50.251
1178.00,50.252
1179.00,50.261
1180.00,50.235
1181.00,50.269
1182.00,50.255
1183.00,50.247
1184.00,50.244
1185.00,50.249
1186.00,50.231
1187.00,50.230
1188.00,50.231
1189.00,50.226
1190.00,50.252
1191.00,50.202
1192.00,50.229
1193.00,50.241
1194.00,50.239
1195.00,50.249
1196.00,50.229
1197.00,50.247
1198.00,50.245
1199.00,50.253
1200.00,50.242
1201.00,50.252
1202.00,50.226
1203.00,50.225
1204.00,50.238
1205.00,50.224
1206.00,50.219
1207.00,50.225
1208.00,50.227
1209.00,50.224
1210.00,50.253
1211.00,50.230
1212.00,50.234
1213.00,50.226
1214.00,50.232
1215.00,50.231
1216.00,50.210
1217.00,50.208
1218.00,50.213
1219.00,50.217
1220.00,50.228
1221.00,50.210
1222.00,50.245
1223.00,50.259
1224.00,50.230
1225.00,50.227
1226.00,50.259
1227.00,50.230
1228.00,50.242
1229.00,50.251
1230.00,50.284
1231.00,50.281
1232.00,50.263
1233.00,50.292
1234.00,50.316
1235.00,50.316
1236.00,50.327
1237.00,50.318
1238.00,50.295
1239.00,50.300
1240.00,50.286
1241.00,50.306
1242.00,50.321
1243.00,50.318
1244.00,50.329
1245.00,50.334
1246.00,50.337
1247.00,50.345
1248.00,50.353
1249.00,50.349
1250.00,50.347
1251.00,50.334
1252.00,50.339
1253.00,50.346
1254.00,50.343
1255.00,50.359
1256.00,50.390
1257.00,50.323
1258.00,50.391
1259.00,50.373
1260.00,50.374
1261.00,50.381
1262.00,50.379
1263.00,50.371
1264.00,50.372
1265.00,50.388
1266.00,50.384
1267.00,50.403
1268.00,50.403
1269.00,50.408
1270.00,50.427
1271.00,50.431
1272.00,50.446
1273.00,50.432
1274.00,50.452
1275.00,50.445
1276.00,50.461
1277.00,50.466
1278.00,50.487
1279.00,50.462
1280.00,50.485
1281.00,50.494
1282.00,50.494
1283.00,50.512
1284.00,50.480
1285.00,50.479
1286.00,50.485
1287.00,50.487
1288.00,50.500
1289.00,50.512
1290.00,50.509
1291.00,50.531
1292.00,50.531
1293.00,50.515
1294.00,50.532
1295.00,50.553
1296.00,50.561
1297.00,50.553
1298.00,50.555
1299.00,50.590
1300.00,50.576
1301.00,50.580
1302.00,50.626
1303.00,50.620
1304.00,50.601
1305.00,50.621
1306.00,50.638
1307.00,50.637
1308.00,50.607
1309.00,50.631
1310.00,50.646
1311.00,50.656
1312.00,50.641
1313.00,50.650
1314.00,50.673
1315.00,50.666
1316.00,50.669
1317.00,50.665
1318.00,50.677
1319.00,50.690
1320.00,50.701
1321.00,50.853
1322.00,50.884
1323.00,50.852
1324.00,50.875
1325.00,50.864
1326.00,50.870
1327.00,50.880
1328.00,50.856
1329.00,50.868
1330.00,50.834
1331.00,50.835
1332.00,50.856
1333.00,50.849
1334.00,50.878
1335.00,50.914
1336.00,50.962
1337.00,50.979
1338.00,51.045
1339.00,51.091
1340.00,51.141
1341.00,51.216
1342.00,51.270
1343.00,51.347
1344.00,51.377
1345.00,51.432
1346.00,51.511
1347.00,51.499
1348.00,51.523
1349.00,51.524
1350.00,51.582
1351.00,51.553
1352.00,51.529
1353.00,51.553
1354.00,51.567
1355.00,51.547
1356.00,51.519
1357.00,51.566
1358.00,51.598
1359.00,51.579
1360.00,51.719
1361.00,52.962
1362.00,51.489
1363.00,51.755
1364.00,51.539
1365.00,51.643
1366.00,51.782
1367.00,51.718
1368.00,51.588
1369.00,51.705
1370.00,51.515
1371.00,51.632
1372.00,51.583
1373.00,51.674
1374.00,51.618
1375.00,51.698
1376.00,51.429
1377.00,51.721
1378.00,51.621
1379.00,51.520
1380.00,52.146
1381.00,51.471
1382.00,51.565
1383.00,51.613
1384.00,51.530
1385.00,51.574
1386.00,51.727
1387.00,51.623
1388.00,51.473
1389.00,51.502
1390.00,51.606
1391.00,51.362
1392.00,51.584
1393.00,51.671
1394.00,51.634
1395.00,51.447
1396.00,51.596
1397.00,51.724
1398.00,51.664
1399.00,51.475
1400.00,51.581
1401.00,51.628
1402.00,51.761
1403.00,51.664
1404.00,51.691
1405.00,51.584
1406.00,51.692
1407.00,51.572
1408.00,51.553
1409.00,51.638
1410.00,51.691
1411.00,51.620
1412.00,51.787
1413.00,51.729
1414.00,51.647
1415.00,51.672
1416.00,51.703
1417.00,51.766
1418.00,51.707
1419.00,51.718
1420.00,51.750
1421.00,51.848
1422.00,51.888
1423.00,51.795
1424.00,51.776
1425.00,51.806
1426.00,51.814
1427.00,51.817
1428.00,51.845
1429.00,51.914
1430.00,51.894
1431.00,51.895
1432.00,51.947
1433.00,51.903
1434.00,51.944
1435.00,51.999
1436.00,51.936
1437.00,51.971
1438.00,51.969
1439.00,52.058
1440.00,52.023
1441.00,52.041
1442.00,52.066
1443.00,52.083
1444.00,52.198
1445.00,52.076
1446.00,52.125
1447.00,52.133
1448.00,52.163
1449.00,52.119
1450.00,52.202
1451.00,52.209
1452.00,52.218
1453.00,52.248
1454.00,52.232
1455.00,52.240
1456.00,52.249
1457.00,52.293
1458.00,52.273
1459.00,52.306
1460.00,52.308
1461.00,52.352
1462.00,52.348
1463.00,52.378
1464.00,52.372
1465.00,52.404
1466.00,52.390
1467.00,52.415
1468.00,52.450
1469.00,52.448
1470.00,52.473
1471.00,52.468
1472.00,52.492
1473.00,52.499
1474.00,52.519
1475.00,52.533
1476.00,52.525
1477.00,52.526
1478.00,52.560
1479.00,52.595
1480.00,52.545
1481.00,52.576
1482.00,52.624
1483.00,52.617
1484.00,52.624
1485.00,52.639
1486.00,52.646
1487.00,52.675
1488.00,52.642
1489.00,52.683
1490.00,52.689
1491.00,52.701
1492.00,52.719
1493.00,52.736
1494.00,52.727
1495.00,52.760
1496.00,52.741
1497.00,52.769
1498.00,52.749
1499.00,52.788
1500.00,52.801
1501.00, 
1502.00, 
1503.00, 
1504.00, 
1505.00, 
1506.00, 
1507.00, 
1508.00, 
1509.00, 
1510.00, 
1511.00, 
1512.00, 
1513.00, 
1514.00, 
1515.00, 
1516.00, 
1517.00, 
1518.00, 
1519.00, 
1520.00, 
1521.00, 
1522.00, 
1523.00, 
1524.00, 
1525.00, 
1526.00, 
1527.00, 
1528.00, 
1529.00, 
1530.00, 
1531.00, 
1532.00, 
1533.00, 
1534.00, 
1535.00, 
1536.00, 
1537.00, 
1538.00, 
1539.00, 
1540.00, 
1541.00, 
1542.00, 
1543.00, 
1544.00, 
1545.00, 
1546.00, 
1547.00, 
1548.00, 
1549.00, 
1550.00, 
1551.00, 
1552.00, 
1553.00, 
1554.00, 
1555.00, 
1556.00, 
1557.00, 
1558.00, 
1559.00, 
1560.00, 
1561.00, 
1562.00, 
1563.00, 
1564.00, 
1565.00, 
1566.00, 
1567.00, 
1568.00, 
1569.00, 
1570.00, 
1571.00, 
1572.00, 
1573.00, 
1574.00, 
1575.00, 
1576.00, 
1577.00, 
1578.00, 
1579.00, 
1580.00, 
1581.00, 
1582.00, 
1583.00, 
1584.00, 
1585.00, 
1586.00, 
1587.00, 
1588.00, 
1589.00, 
1590.00, 
1591.00, 
1592.00, 
1593.00, 
1594.00, 
1595.00, 
1596.00, 
1597.00, 
1598.00, 
1599.00, 
1600.00, 
1601.00, 
1602.00, 
1603.00, 
1604.00, 
1605.00, 
1606.00, 
1607.00, 
1608.00, 
1609.00, 
1610.00, 
1611.00, 
1612.00, 
1613.00, 
1614.00, 
1615.00, 
1616.00, 
1617.00, 
1618.00, 
1619.00, 
1620.00, 
1621.00, 
1622.00, 
1623.00, 
1624.00, 
1625.00, 
1626.00, 
1627.00, 
1628.00, 
1629.00, 
1630.00, 
1631.00, 
1632.00, 
1633.00, 
1634.00, 
1635.00, 
1636.00, 
1637.00, 
1638.00, 
1639.00, 
1640.00, 
1641.00, 
1642.00, 
1643.00, 
1644.00, 
1645.00, 
1646.00, 
1647.00, 
1648.00, 
1649.00, 
1650.00, 
1651.00, 
1652.00, 
1653.00, 
1654.00, 
1655.00, 
1656.00, 
1657.00, 
1658.00, 
1659.00, 
1660.00, 
1661.00, 
1662.00, 
1663.00, 
1664.00, 
1665.00, 
1666.00, 
1667.00, 
1668.00, 
1669.00, 
1670.00, 
1671.00, 
1672.00, 
1673.00, 
1674.00, 
1675.00, 
1676.00, 
1677.00, 
1678.00, 
1679.00, 
1680.00, 
1681.00, 
1682.00, 
1683.00, 
1684.00, 
1685.00, 
1686.00, 
1687.00, 
1688.00, 
1689.00, 
1690.00, 
1691.00, 
1692.00, 
1693.00, 
1694.00, 
1695.00, 
1696.00, 
1697.00, 
1698.00, 
1699.00, 
1700.00, 
1701.00, 
1702.00, 
1703.00, 
1704.00, 
1705.00, 
1706.00, 
1707.00, 
1708.00, 
1709.00, 
1710.00, 
1711.00, 
1712.00, 
1713.00, 
1714.00, 
1715.00, 
1716.00, 
1717.00, 
1718.00, 
1719.00, 
1720.00, 
1721.00, 
1722.00, 
1723.00, 
1724.00, 
1725.00, 
1726.00, 
1727.00, 
1728.00, 
1729.00, 
1730.00, 
1731.00, 
1732.00, 
1733.00, 
1734.00, 
1735.00, 
1736.00, 
1737.00, 
1738.00, 
1739.00, 
1740.00, 
1741.00, 
1742.00, 
1743.00, 
1744.00, 
1745.00, 
1746.00, 
1747.00, 
1748.00, 
1749.00, 
1750.00, 
1751.00, 
1752.00, 
1753.00, 
1754.00, 
1755.00, 
1756.00, 
1757.00, 
1758.00, 
1759.00, 
1760.00, 
1761.00, 
1762.00, 
1763.00, 
1764.00, 
1765.00, 
1766.00, 
1767.00, 
1768.00, 
1769.00, 
1770.00, 
1771.00, 
1772.00, 
1773.00, 
1774.00, 
1775.00, 
1776.00, 
1777.00, 
1778.00, 
1779.00, 
1780.00, 
1781.00, 
1782.00, 
1783.00, 
1784.00, 
1785.00, 
1786.00, 
1787.00, 
1788.00, 
1789.00, 
1790.00, 
1791.00, 
1792.00, 
1793.00, 
1794.00, 
1795.00, 
1796.00, 
1797.00, 
1798.00, 
1799.00, 
1800.00, 
1801.00, 
1802.00, 
1803.00, 
1804.00, 
1805.00, 
1806.00, 
1807.00, 
1808.00, 
1809.00, 
1810.00, 
1811.00, 
1812.00, 
1813.00, 
1814.00, 
1815.00, 
1816.00, 
1817.00, 
1818.00, 
1819.00, 
1820.00, 
1821.00, 
1822.00, 
1823.00, 
1824.00, 
1825.00, 
1826.00, 
1827.00, 
1828.00, 
1829.00, 
1830.00, 
1831.00, 
1832.00, 
1833.00, 
1834.00, 
1835.00, 
1836.00, 
1837.00, 
1838.00, 
1839.00, 
1840.00, 
1841.00, 
1842.00, 
1843.00, 
1844.00, 
1845.00, 
1846.00, 
1847.00, 
1848.00, 
1849.00, 
1850.00, 
1851.00, 
1852.00, 
1853.00, 
1854.00, 
1855.00, 
1856.00, 
1857.00, 
1858.00, 
1859.00, 
1860.00, 
1861.00, 
1862.00, 
1863.00, 
1864.00, 
1865.00, 
1866.00, 
1867.00, 
1868.00, 
1869.00, 
1870.00, 
1871.00, 
1872.00, 
1873.00, 
1874.00, 
1875.00, 
1876.00, 
1877.00, 
1878.00, 
1879.00, 
1880.00, 
1881.00, 
1882.00, 
1883.00, 
1884.00, 
1885.00, 
1886.00, 
1887.00, 
1888.00, 
1889.00, 
1890.00, 
1891.00, 
1892.00, 
1893.00, 
1894.00, 
1895.00, 
1896.00, 
1897.00, 
1898.00, 
1899.00, 
1900.00, 
1901.00, 
1902.00, 
1903.00, 
1904.00, 
1905.00, 
1906.00, 
1907.00, 
1908.00, 
1909.00, 
1910.00, 
1911.00, 
1912.00, 
1913.00, 
1914.00, 
1915.00, 
1916.00, 
1917.00, 
1918.00, 
1919.00, 
1920.00, 
1921.00, 
1922.00, 
1923.00, 
1924.00, 
1925.00, 
1926.00, 
1927.00, 
1928.00, 
1929.00, 
1930.00, 
1931.00, 
1932.00, 
1933.00, 
1934.00, 
1935.00, 
1936.00, 
1937.00, 
1938.00, 
1939.00, 
1940.00, 
1941.00, 
1942.00, 
1943.00, 
1944.00, 
1945.00, 
1946.00, 
1947.00, 
1948.00, 
1949.00, 
1950.00, 
1951.00, 
1952.00, 
1953.00, 
1954.00, 
1955.00, 
1956.00, 
1957.00, 
1958.00, 
1959.00, 
1960.00, 
1961.00, 
1962.00, 
1963.00, 
1964.00, 
1965.00, 
1966.00, 
1967.00, 
1968.00, 
1969.00, 
1970.00, 
1971.00, 
1972.00, 
1973.00, 
1974.00, 
1975.00, 
1976.00, 
1977.00, 
1978.00, 
1979.00, 
1980.00, 
1981.00, 
1982.00, 
1983.00, 
1984.00, 
1985.00, 
1986.00, 
1987.00, 
1988.00, 
1989.00, 
1990.00, 
1991.00, 
1992.00, 
1993.00, 
1994.00, 
1995.00, 
1996.00, 
1997.00, 
1998.00, 
1999.00, 
2000.00, 
2001.00, 
2002.00, 
2003.00, 
2004.00, 
2005.00, 
2006.00, 
2007.00, 
2008.00, 
2009.00, 
2010.00, 
2011.00, 
2012.00, 
2013.00, 
2014.00, 
2015.00, 
2016.00, 
2017.00, 
2018.00, 
2019.00, 
2020.00, 
2021.00, 
2022.00, 
2023.00, 
2024.00, 
2025.00, 
2026.00, 
2027.00, 
2028.00, 
2029.00, 
2030.00, 
2031.00, 
2032.00, 
2033.00, 
2034.00, 
2035.00, 
2036.00, 
2037.00, 
2038.00, 
2039.00, 
2040.00, 
2041.00, 
2042.00, 
2043.00, 
2044.00, 
2045.00, 
2046.00, 
2047.00, 
2048.00, 
2049.00, 
2050.00, 
2051.00, 
2052.00, 
2053.00, 
2054.00, 
2055.00, 
2056.00, 
2057.00, 
2058.00, 
2059.00, 
2060.00, 
2061.00, 
2062.00, 
2063.00, 
2064.00, 
2065.00, 
2066.00, 
2067.00, 
2068.00, 
2069.00, 
2070.00, 
2071.00, 
2072.00, 
2073.00, 
2074.00, 
2075.00, 
2076.00, 
2077.00, 
2078.00, 
2079.00, 
2080.00, 
2081.00, 
2082.00, 
2083.00, 
2084.00, 
2085.00, 
2086.00, 
2087.00, 
2088.00, 
2089.00, 
2090.00, 
2091.00, 
2092.00, 
2093.00, 
2094.00, 
2095.00, 
2096.00, 
2097.00, 
2098.00, 
2099.00, 
2100.00, 
2101.00, 
2102.00, 
2103.00, 
2104.00, 
2105.00, 
2106.00, 
2107.00, 
2108.00, 
2109.00, 
2110.00, 
2111.00, 
2112.00, 
2113.00, 
2114.00, 
2115.00, 
2116.00, 
2117.00, 
2118.00, 
2119.00, 
2120.00, 
2121.00, 
2122.00, 
2123.00, 
2124.00, 
2125.00, 
2126.00, 
2127.00, 
2128.00, 
2129.00, 
2130.00, 
2131.00, 
2132.00, 
2133.00, 
2134.00, 
2135.00, 
2136.00, 
2137.00, 
2138.00, 
2139.00, 
2140.00, 
2141.00, 
2142.00, 
2143.00, 
2144.00, 
2145.00, 
2146.00, 
2147.00, 
2148.00, 
2149.00, 
2150.00, 
2151.00, 
2152.00, 
2153.00, 
2154.00, 
2155.00, 
2156.00, 
2157.00, 
2158.00, 
2159.00, 
2160.00, 
2161.00, 
2162.00, 
2163.00, 
2164.00, 
2165.00, 
2166.00, 
2167.00, 
2168.00, 
2169.00, 
2170.00, 
2171.00, 
2172.00, 
2173.00, 
2174.00, 
2175.00, 
2176.00, 
2177.00, 
2178.00, 
2179.00, 
2180.00, 
2181.00, 
2182.00, 
2183.00, 
2184.00, 
2185.00, 
2186.00, 
2187.00, 
2188.00, 
2189.00, 
2190.00, 
2191.00, 
2192.00, 
2193.00, 
2194.00, 
2195.00, 
2196.00, 
2197.00, 
2198.00, 
2199.00, 
2200.00, 
2201.00, 
2202.00, 
2203.00, 
2204.00, 
2205.00, 
2206.00, 
2207.00, 
2208.00, 
2209.00, 
2210.00, 
2211.00, 
2212.00, 
2213.00, 
2214.00, 
2215.00, 
2216.00, 
2217.00, 
2218.00, 
2219.00, 
2220.00, 
2221.00, 
2222.00, 
2223.00, 
2224.00, 
2225.00, 
2226.00, 
2227.00, 
2228.00, 
2229.00, 
2230.00, 
2231.00, 
2232.00, 
2233.00, 
2234.00, 
2235.00, 
2236.00, 
2237.00, 
2238.00, 
2239.00, 
2240.00, 
2241.00, 
2242.00, 
2243.00, 
2244.00, 
2245.00, 
2246.00, 
2247.00, 
2248.00, 
2249.00, 
2250.00, 
2251.00, 
2252.00, 
2253.00, 
2254.00, 
2255.00, 
2256.00, 
2257.00, 
2258.00, 
2259.00, 
2260.00, 
2261.00, 
2262.00, 
2263.00, 
2264.00, 
2265.00, 
2266.00, 
2267.00, 
2268.00, 
2269.00, 
2270.00, 
2271.00, 
2272.00, 
2273.00, 
2274.00, 
2275.00, 
2276.00, 
2277.00, 
2278.00, 
2279.00, 
2280.00, 
2281.00, 
2282.00, 
2283.00, 
2284.00, 
2285.00, 
2286.00, 
2287.00, 
2288.00, 
2289.00, 
2290.00, 
2291.00, 
2292.00, 
2293.00, 
2294.00, 
2295.00, 
2296.00, 
2297.00, 
2298.00, 
2299.00, 
2300.00, 
2301.00, 
2302.00, 
2303.00, 
2304.00, 
2305.00, 
2306.00, 
2307.00, 
2308.00, 
2309.00, 
2310.00, 
2311.00, 
2312.00, 
2313.00, 
2314.00, 
2315.00, 
2316.00, 
2317.00, 
2318.00, 
2319.00, 
2320.00, 
2321.00, 
2322.00, 
2323.00, 
2324.00, 
2325.00, 
2326.00, 
2327.00, 
2328.00, 
2329.00, 
2330.00, 
2331.00, 
2332.00, 
2333.00, 
2334.00, 
2335.00, 
2336.00, 
2337.00, 
2338.00, 
2339.00, 
2340.00, 
2341.00, 
2342.00, 
2343.00, 
2344.00, 
2345.00, 
2346.00, 
2347.00, 
2348.00, 
2349.00, 
2350.00, 
2351.00, 
2352.00, 
2353.00, 
2354.00, 
2355.00, 
2356.00, 
2357.00, 
2358.00, 
2359.00, 
2360.00, 
2361.00, 
2362.00, 
2363.00, 
2364.00, 
2365.00, 
2366.00, 
2367.00, 
2368.00, 
2369.00, 
2370.00, 
2371.00, 
2372.00, 
2373.00, 
2374.00, 
2375.00, 
2376.00, 
2377.00, 
2378.00, 
2379.00, 
2380.00, 
2381.00, 
2382.00, 
2383.00, 
2384.00, 
2385.00, 
2386.00, 
2387.00, 
2388.00, 
2389.00, 
2390.00, 
2391.00, 
2392.00, 
2393.00, 
2394.00, 
2395.00, 
2396.00, 
2397.00, 
2398.00, 
2399.00, 
2400.00, 
2401.00, 
2402.00, 
2403.00, 
2404.00, 
2405.00, 
2406.00, 
2407.00, 
2408.00, 
2409.00, 
2410.00, 
2411.00, 
2412.00, 
2413.00, 
2414.00, 
2415.00, 
2416.00, 
2417.00, 
2418.00, 
2419.00, 
2420.00, 
2421.00, 
2422.00, 
2423.00, 
2424.00, 
2425.00, 
2426.00, 
2427.00, 
2428.00, 
2429.00, 
2430.00, 
2431.00, 
2432.00, 
2433.00, 
2434.00, 
2435.00, 
2436.00, 
2437.00, 
2438.00, 
2439.00, 
2440.00, 
2441.00, 
2442.00, 
2443.00, 
2444.00, 
2445.00, 
2446.00, 
2447.00, 
2448.00, 
2449.00, 
2450.00, 
2451.00, 
2452.00, 
2453.00, 
2454.00, 
2455.00, 
2456.00, 
2457.00, 
2458.00, 
2459.00, 
2460.00, 
2461.00, 
2462.00, 
2463.00, 
2464.00, 
2465.00, 
2466.00, 
2467.00, 
2468.00, 
2469.00, 
2470.00, 
2471.00, 
2472.00, 
2473.00, 
2474.00, 
2475.00, 
2476.00, 
2477.00, 
2478.00, 
2479.00, 
2480.00, 
2481.00, 
2482.00, 
2483.00, 
2484.00, 
2485.00, 
2486.00, 
2487.00, 
2488.00, 
2489.00, 
2490.00, 
2491.00, 
2492.00, 
2493.00, 
2494.00, 
2495.00, 
2496.00, 
2497.00, 
2498.00, 
2499.00, 
2500.00, 
2501.00, 
2502.00, 
2503.00, 
2504.00, 
2505.00, 
2506.00, 
2507.00, 
2508.00, 
2509.00, 
2510.00, 
2511.00, 
2512.00, 
2513.00, 
2514.00, 
2515.00, 
2516.00, 
2517.00, 
2518.00, 
2519.00, 
2520.00, 
2521.00, 
2522.00, 
2523.00, 
2524.00, 
2525.00, 
2526.00, 
2527.00, 
2528.00, 
2529.00, 
2530.00, 
2531.00, 
2532.00, 
2533.00, 
2534.00, 
2535.00, 
2536.00, 
2537.00, 
2538.00, 
2539.00, 
2540.00, 
2541.00, 
2542.00, 
2543.00, 
2544.00, 
2545.00, 
2546.00, 
2547.00, 
2548.00, 
2549.00, 
2550.00, 
2551.00, 
2552.00, 
2553.00, 
2554.00, 
2555.00, 
2556.00, 
2557.00, 
2558.00, 
2559.00, 
2560.00, 
2561.00, 
2562.00, 
2563.00, 
2564.00, 
2565.00, 
2566.00, 
2567.00, 
2568.00, 
2569.00, 
2570.00, 
2571.00, 
2572.00, 
2573.00, 
2574.00, 
2575.00, 
2576.00, 
2577.00, 
2578.00, 
2579.00, 
2580.00, 
2581.00, 
2582.00, 
2583.00, 
2584.00, 
2585.00, 
2586.00, 
2587.00, 
2588.00, 
2589.00, 
2590.00, 
2591.00, 
2592.00, 
2593.00, 
2594.00, 
2595.00, 
2596.00, 
2597.00, 
2598.00, 
2599.00, 
2600.00, 
