"1aP2 - RawData"
"Wavelength nm.","T%"
200.00,0.001
201.00,0.001
202.00,0.005
203.00,0.001
204.00,0.003
205.00,0.001
206.00,0.003
207.00,0.001
208.00,0.002
209.00,-0.001
210.00,0.001
211.00,-0.000
212.00,-0.000
213.00,0.003
214.00,0.001
215.00,0.001
216.00,0.004
217.00,0.001
218.00,-0.000
219.00,-0.001
220.00,-0.001
221.00,0.002
222.00,-0.000
223.00,0.000
224.00,0.001
225.00,0.001
226.00,-0.001
227.00,0.001
228.00,0.001
229.00,-0.001
230.00,-0.000
231.00,0.003
232.00,0.001
233.00,0.002
234.00,-0.000
235.00,0.001
236.00,-0.001
237.00,0.000
238.00,0.001
239.00,-0.001
240.00,-0.001
241.00,0.003
242.00,0.001
243.00,0.000
244.00,0.001
245.00,-0.001
246.00,0.001
247.00,0.001
248.00,0.001
249.00,0.001
250.00,-0.002
251.00,0.001
252.00,-0.002
253.00,-0.000
254.00,0.002
255.00,-0.000
256.00,0.001
257.00,0.002
258.00,0.000
259.00,-0.001
260.00,0.001
261.00,0.001
262.00,-0.000
263.00,-0.001
264.00,0.003
265.00,0.001
266.00,0.000
267.00,-0.001
268.00,0.000
269.00,-0.002
270.00,-0.001
271.00,0.000
272.00,0.000
273.00,-0.001
274.00,0.001
275.00,-0.001
276.00,-0.001
277.00,-0.001
278.00,0.000
279.00,0.001
280.00,-0.000
281.00,-0.000
282.00,0.002
283.00,-0.001
284.00,0.002
285.00,0.001
286.00,-0.001
287.00,0.001
288.00,-0.000
289.00,0.001
290.00,0.001
291.00,-0.001
292.00,-0.000
293.00,0.001
294.00,-0.001
295.00,-0.000
296.00,-0.000
297.00,0.001
298.00,0.002
299.00,0.002
300.00,0.004
301.00,0.006
302.00,0.009
303.00,0.012
304.00,0.021
305.00,0.032
306.00,0.048
307.00,0.070
308.00,0.110
309.00,0.169
310.00,0.235
311.00,0.313
312.00,0.433
313.00,0.577
314.00,0.756
315.00,0.975
316.00,1.191
317.00,1.542
318.00,1.878
319.00,2.303
320.00,2.771
321.00,3.277
322.00,3.870
323.00,4.493
324.00,5.164
325.00,5.853
326.00,6.571
327.00,7.356
328.00,8.169
329.00,8.971
330.00,9.702
331.00,10.646
332.00,11.518
333.00,12.391
334.00,13.200
335.00,14.090
336.00,14.926
337.00,15.797
338.00,16.604
339.00,17.334
340.00,18.154
341.00,18.881
342.00,19.531
343.00,20.220
344.00,20.813
345.00,21.524
346.00,22.018
347.00,22.579
348.00,23.112
349.00,23.532
350.00,23.958
351.00,24.408
352.00,24.757
353.00,25.132
354.00,25.425
355.00,25.732
356.00,26.100
357.00,26.302
358.00,26.545
359.00,26.821
360.00,27.029
361.00,27.160
362.00,27.345
363.00,27.572
364.00,27.621
365.00,27.821
366.00,27.904
367.00,27.949
368.00,28.053
369.00,28.081
370.00,28.102
371.00,28.121
372.00,28.159
373.00,28.142
374.00,28.126
375.00,28.052
376.00,28.066
377.00,28.015
378.00,27.989
379.00,27.830
380.00,27.849
381.00,27.729
382.00,27.817
383.00,27.871
384.00,27.908
385.00,27.915
386.00,27.943
387.00,28.027
388.00,28.065
389.00,28.079
390.00,28.126
391.00,28.168
392.00,28.210
393.00,28.240
394.00,28.240
395.00,28.234
396.00,28.172
397.00,28.143
398.00,28.259
399.00,28.278
400.00,28.275
401.00,28.287
402.00,28.313
403.00,28.298
404.00,28.249
405.00,28.218
406.00,28.254
407.00,28.192
408.00,28.210
409.00,28.152
410.00,28.080
411.00,28.087
412.00,28.051
413.00,28.104
414.00,28.045
415.00,28.052
416.00,28.106
417.00,28.133
418.00,28.147
419.00,28.183
420.00,28.238
421.00,28.337
422.00,28.277
423.00,28.342
424.00,28.402
425.00,28.326
426.00,28.459
427.00,28.481
428.00,28.554
429.00,28.580
430.00,28.598
431.00,28.716
432.00,28.707
433.00,28.798
434.00,28.836
435.00,28.807
436.00,29.005
437.00,29.049
438.00,29.135
439.00,29.200
440.00,29.225
441.00,29.338
442.00,29.427
443.00,29.498
444.00,29.579
445.00,29.623
446.00,29.752
447.00,29.847
448.00,29.921
449.00,30.041
450.00,30.136
451.00,30.252
452.00,30.360
453.00,30.427
454.00,30.493
455.00,30.595
456.00,30.818
457.00,30.945
458.00,31.016
459.00,31.162
460.00,31.267
461.00,31.388
462.00,31.512
463.00,31.626
464.00,31.815
465.00,31.863
466.00,32.013
467.00,32.120
468.00,32.229
469.00,32.375
470.00,32.435
471.00,32.533
472.00,32.682
473.00,32.719
474.00,32.827
475.00,32.975
476.00,33.040
477.00,33.160
478.00,33.255
479.00,33.445
480.00,33.582
481.00,33.661
482.00,33.815
483.00,33.949
484.00,34.089
485.00,34.313
486.00,34.431
487.00,34.567
488.00,34.666
489.00,34.849
490.00,34.972
491.00,35.076
492.00,35.315
493.00,35.372
494.00,35.425
495.00,35.572
496.00,35.700
497.00,35.635
498.00,35.997
499.00,36.109
500.00,36.166
501.00,36.311
502.00,36.410
503.00,36.517
504.00,36.576
505.00,36.712
506.00,36.875
507.00,36.930
508.00,37.024
509.00,37.201
510.00,37.258
511.00,37.355
512.00,37.492
513.00,37.578
514.00,37.780
515.00,37.926
516.00,37.945
517.00,38.134
518.00,38.196
519.00,38.249
520.00,38.336
521.00,38.349
522.00,38.454
523.00,38.566
524.00,38.589
525.00,38.680
526.00,38.817
527.00,38.806
528.00,38.885
529.00,39.020
530.00,39.135
531.00,39.274
532.00,39.345
533.00,39.477
534.00,39.529
535.00,39.609
536.00,39.655
537.00,39.709
538.00,39.802
539.00,39.853
540.00,39.874
541.00,39.895
542.00,39.967
543.00,40.041
544.00,40.110
545.00,40.099
546.00,40.168
547.00,40.273
548.00,40.324
549.00,40.407
550.00,40.480
551.00,40.568
552.00,40.592
553.00,40.654
554.00,40.753
555.00,40.768
556.00,40.796
557.00,40.830
558.00,40.910
559.00,40.985
560.00,41.005
561.00,41.116
562.00,41.159
563.00,41.180
564.00,41.176
565.00,41.237
566.00,41.224
567.00,41.257
568.00,41.308
569.00,41.305
570.00,41.327
571.00,41.391
572.00,41.432
573.00,41.418
574.00,41.486
575.00,41.477
576.00,41.451
577.00,41.549
578.00,41.490
579.00,41.619
580.00,41.688
581.00,41.765
582.00,41.875
583.00,41.902
584.00,41.969
585.00,41.955
586.00,41.969
587.00,41.992
588.00,42.083
589.00,42.143
590.00,42.130
591.00,42.190
592.00,42.193
593.00,42.198
594.00,42.272
595.00,42.337
596.00,42.389
597.00,42.486
598.00,42.533
599.00,42.546
600.00,42.598
601.00,42.568
602.00,42.582
603.00,42.657
604.00,42.616
605.00,42.772
606.00,42.667
607.00,42.749
608.00,42.839
609.00,42.839
610.00,42.796
611.00,42.917
612.00,42.988
613.00,42.918
614.00,42.978
615.00,43.035
616.00,43.176
617.00,43.143
618.00,43.183
619.00,43.277
620.00,43.260
621.00,43.285
622.00,43.339
623.00,43.515
624.00,43.455
625.00,43.482
626.00,43.554
627.00,43.567
628.00,43.684
629.00,43.722
630.00,43.696
631.00,43.747
632.00,43.801
633.00,43.880
634.00,43.973
635.00,44.081
636.00,44.181
637.00,44.197
638.00,44.258
639.00,44.355
640.00,44.299
641.00,44.375
642.00,44.436
643.00,44.500
644.00,44.570
645.00,44.584
646.00,44.705
647.00,44.738
648.00,44.817
649.00,44.822
650.00,44.858
651.00,44.948
652.00,45.009
653.00,45.115
654.00,45.140
655.00,45.215
656.00,45.332
657.00,45.410
658.00,45.425
659.00,45.558
660.00,45.653
661.00,45.615
662.00,45.727
663.00,45.741
664.00,45.804
665.00,46.026
666.00,46.053
667.00,46.166
668.00,46.093
669.00,46.389
670.00,46.492
671.00,46.404
672.00,46.523
673.00,46.632
674.00,46.713
675.00,46.752
676.00,46.817
677.00,46.869
678.00,46.779
679.00,46.980
680.00,47.004
681.00,47.124
682.00,47.182
683.00,47.216
684.00,47.509
685.00,47.438
686.00,47.342
687.00,47.224
688.00,47.438
689.00,47.645
690.00,47.754
691.00,47.872
692.00,47.851
693.00,47.933
694.00,47.852
695.00,47.928
696.00,48.078
697.00,48.193
698.00,48.239
699.00,48.495
700.00,48.506
701.00,48.503
702.00,48.608
703.00,48.670
704.00,48.713
705.00,48.702
706.00,48.733
707.00,48.938
708.00,48.738
709.00,48.874
710.00,49.231
711.00,49.040
712.00,48.975
713.00,49.120
714.00,49.193
715.00,49.223
716.00,49.255
717.00,49.307
718.00,49.404
719.00,49.503
720.00,49.515
721.00,53.777
722.00,53.843
723.00,53.753
724.00,53.846
725.00,53.771
726.00,53.749
727.00,53.763
728.00,53.776
729.00,53.833
730.00,53.803
731.00,53.842
732.00,53.855
733.00,53.938
734.00,53.936
735.00,54.043
736.00,53.960
737.00,53.962
738.00,54.059
739.00,53.962
740.00,53.999
741.00,54.002
742.00,54.090
743.00,54.056
744.00,54.036
745.00,54.064
746.00,54.038
747.00,53.998
748.00,54.050
749.00,54.008
750.00,54.086
751.00,53.997
752.00,54.038
753.00,53.978
754.00,54.037
755.00,53.926
756.00,54.068
757.00,53.983
758.00,53.999
759.00,53.963
760.00,54.019
761.00,53.984
762.00,54.043
763.00,53.992
764.00,53.949
765.00,53.990
766.00,53.987
767.00,54.064
768.00,54.010
769.00,53.930
770.00,54.017
771.00,54.047
772.00,54.003
773.00,54.096
774.00,54.044
775.00,54.109
776.00,54.005
777.00,54.149
778.00,54.017
779.00,54.000
780.00,53.993
781.00,53.998
782.00,54.014
783.00,54.000
784.00,53.942
785.00,53.917
786.00,53.984
787.00,53.995
788.00,53.968
789.00,53.943
790.00,53.876
791.00,53.988
792.00,53.926
793.00,53.874
794.00,53.888
795.00,53.835
796.00,53.824
797.00,53.805
798.00,53.924
799.00,53.692
800.00,53.743
801.00,53.796
802.00,53.714
803.00,53.776
804.00,53.702
805.00,53.697
806.00,53.716
807.00,53.604
808.00,53.670
809.00,53.582
810.00,53.674
811.00,53.621
812.00,53.596
813.00,53.582
814.00,53.594
815.00,53.543
816.00,53.571
817.00,53.472
818.00,53.468
819.00,53.540
820.00,53.365
821.00,53.459
822.00,53.378
823.00,53.420
824.00,53.506
825.00,53.356
826.00,53.449
827.00,53.392
828.00,53.439
829.00,53.348
830.00,53.418
831.00,55.872
832.00,55.846
833.00,55.756
834.00,55.818
835.00,55.787
836.00,55.780
837.00,55.763
838.00,55.721
839.00,55.752
840.00,55.656
841.00,55.686
842.00,55.640
843.00,55.647
844.00,55.634
845.00,55.596
846.00,55.610
847.00,55.581
848.00,55.604
849.00,55.513
850.00,55.465
851.00,55.378
852.00,55.531
853.00,55.423
854.00,55.416
855.00,55.311
856.00,55.310
857.00,55.319
858.00,55.257
859.00,55.266
860.00,55.243
861.00,55.238
862.00,55.196
863.00,55.225
864.00,55.168
865.00,55.214
866.00,55.169
867.00,55.131
868.00,55.176
869.00,55.132
870.00,55.134
871.00,55.143
872.00,55.127
873.00,55.085
874.00,55.114
875.00,55.110
876.00,55.048
877.00,55.075
878.00,55.056
879.00,55.059
880.00,55.014
881.00,55.017
882.00,55.048
883.00,55.009
884.00,54.962
885.00,54.961
886.00,54.937
887.00,54.950
888.00,54.903
889.00,54.879
890.00,54.869
891.00,54.852
892.00,54.809
893.00,54.810
894.00,54.802
895.00,54.778
896.00,54.735
897.00,54.733
898.00,54.700
899.00,54.708
900.00,54.687
901.00,54.697
902.00,54.685
903.00,54.658
904.00,54.660
905.00,54.664
906.00,54.618
907.00,54.584
908.00,54.579
909.00,54.572
910.00,54.469
911.00,54.557
912.00,54.514
913.00,54.486
914.00,54.477
915.00,54.446
916.00,54.461
917.00,54.418
918.00,54.365
919.00,54.487
920.00,54.318
921.00,54.319
922.00,54.353
923.00,54.307
924.00,54.240
925.00,54.270
926.00,54.266
927.00,54.240
928.00,54.204
929.00,54.235
930.00,54.191
931.00,54.160
932.00,54.142
933.00,54.158
934.00,54.122
935.00,54.106
936.00,54.094
937.00,54.025
938.00,54.220
939.00,54.040
940.00,54.037
941.00,54.017
942.00,53.975
943.00,53.991
944.00,53.950
945.00,53.929
946.00,53.880
947.00,53.864
948.00,53.867
949.00,53.863
950.00,53.835
951.00,53.810
952.00,53.804
953.00,53.867
954.00,53.768
955.00,53.718
956.00,53.683
957.00,53.681
958.00,53.695
959.00,53.641
960.00,53.636
961.00,53.632
962.00,53.655
963.00,53.600
964.00,53.588
965.00,53.605
966.00,53.577
967.00,53.552
968.00,53.593
969.00,53.569
970.00,53.547
971.00,53.567
972.00,53.507
973.00,53.583
974.00,53.589
975.00,53.539
976.00,53.574
977.00,53.564
978.00,53.574
979.00,53.533
980.00,53.561
981.00,53.560
982.00,53.537
983.00,53.524
984.00,53.529
985.00,53.531
986.00,53.482
987.00,53.530
988.00,53.506
989.00,53.478
990.00,53.479
991.00,53.463
992.00,53.478
993.00,53.432
994.00,53.423
995.00,53.415
996.00,53.418
997.00,53.382
998.00,53.405
999.00,53.415
1000.00,53.369
1001.00,53.376
1002.00,53.355
1003.00,53.361
1004.00,53.325
1005.00,53.292
1006.00,53.333
1007.00,53.303
1008.00,53.281
1009.00,53.256
1010.00,53.269
1011.00,53.231
1012.00,53.203
1013.00,53.245
1014.00,53.254
1015.00,53.212
1016.00,53.156
1017.00,53.161
1018.00,53.161
1019.00,53.111
1020.00,53.127
1021.00,53.104
1022.00,53.077
1023.00,53.045
1024.00,53.049
1025.00,53.024
1026.00,53.001
1027.00,52.998
1028.00,53.033
1029.00,52.990
1030.00,52.950
1031.00,52.974
1032.00,52.950
1033.00,52.947
1034.00,52.931
1035.00,52.887
1036.00,52.838
1037.00,52.837
1038.00,52.814
1039.00,52.797
1040.00,52.799
1041.00,52.749
1042.00,52.766
1043.00,52.748
1044.00,52.789
1045.00,52.760
1046.00,52.750
1047.00,52.758
1048.00,52.792
1049.00,52.775
1050.00,52.794
1051.00,52.827
1052.00,52.817
1053.00,52.839
1054.00,52.848
1055.00,52.843
1056.00,52.856
1057.00,52.857
1058.00,52.842
1059.00,52.844
1060.00,52.836
1061.00,52.847
1062.00,52.846
1063.00,52.815
1064.00,52.824
1065.00,52.807
1066.00,52.786
1067.00,52.806
1068.00,52.801
1069.00,52.774
1070.00,52.751
1071.00,52.740
1072.00,52.772
1073.00,52.744
1074.00,52.762
1075.00,52.788
1076.00,52.768
1077.00,52.730
1078.00,52.731
1079.00,52.739
1080.00,52.727
1081.00,52.707
1082.00,52.700
1083.00,52.706
1084.00,52.696
1085.00,52.679
1086.00,52.697
1087.00,52.684
1088.00,52.672
1089.00,52.672
1090.00,52.672
1091.00,52.663
1092.00,52.660
1093.00,52.645
1094.00,52.627
1095.00,52.621
1096.00,52.604
1097.00,52.615
1098.00,52.607
1099.00,52.586
1100.00,52.594
1101.00,52.572
1102.00,52.564
1103.00,52.548
1104.00,52.522
1105.00,52.520
1106.00,52.528
1107.00,52.516
1108.00,52.503
1109.00,52.504
1110.00,52.488
1111.00,52.475
1112.00,52.470
1113.00,52.475
1114.00,52.454
1115.00,52.442
1116.00,52.464
1117.00,52.436
1118.00,52.417
1119.00,52.426
1120.00,52.425
1121.00,52.414
1122.00,52.401
1123.00,52.407
1124.00,52.390
1125.00,52.398
1126.00,52.397
1127.00,52.393
1128.00,52.423
1129.00,52.402
1130.00,52.374
1131.00,52.375
1132.00,52.350
1133.00,52.358
1134.00,52.356
1135.00,52.339
1136.00,52.333
1137.00,52.344
1138.00,52.363
1139.00,52.352
1140.00,52.318
1141.00,52.332
1142.00,52.315
1143.00,52.321
1144.00,52.312
1145.00,52.312
1146.00,52.306
1147.00,52.308
1148.00,52.297
1149.00,52.323
1150.00,52.330
1151.00,52.311
1152.00,52.309
1153.00,52.313
1154.00,52.288
1155.00,52.300
1156.00,52.295
1157.00,52.300
1158.00,52.293
1159.00,52.288
1160.00,52.295
1161.00,52.307
1162.00,52.280
1163.00,52.299
1164.00,52.284
1165.00,52.281
1166.00,52.285
1167.00,52.271
1168.00,52.276
1169.00,52.269
1170.00,52.276
1171.00,52.253
1172.00,52.260
1173.00,52.243
1174.00,52.276
1175.00,52.277
1176.00,52.266
1177.00,52.268
1178.00,52.262
1179.00,52.279
1180.00,52.274
1181.00,52.276
1182.00,52.274
1183.00,52.267
1184.00,52.240
1185.00,52.279
1186.00,52.284
1187.00,52.261
1188.00,52.257
1189.00,52.284
1190.00,52.249
1191.00,52.280
1192.00,52.290
1193.00,52.258
1194.00,52.261
1195.00,52.229
1196.00,52.276
1197.00,52.260
1198.00,52.233
1199.00,52.236
1200.00,52.269
1201.00,52.265
1202.00,52.246
1203.00,52.254
1204.00,52.251
1205.00,52.283
1206.00,52.251
1207.00,52.275
1208.00,52.251
1209.00,52.247
1210.00,52.256
1211.00,52.247
1212.00,52.262
1213.00,52.220
1214.00,52.248
1215.00,52.238
1216.00,52.252
1217.00,52.237
1218.00,52.255
1219.00,52.269
1220.00,52.242
1221.00,52.283
1222.00,52.257
1223.00,52.308
1224.00,52.308
1225.00,52.253
1226.00,52.266
1227.00,52.271
1228.00,52.269
1229.00,52.278
1230.00,52.310
1231.00,52.284
1232.00,52.329
1233.00,52.334
1234.00,52.331
1235.00,52.317
1236.00,52.319
1237.00,52.315
1238.00,52.327
1239.00,52.303
1240.00,52.323
1241.00,52.326
1242.00,52.306
1243.00,52.333
1244.00,52.313
1245.00,52.354
1246.00,52.354
1247.00,52.343
1248.00,52.347
1249.00,52.355
1250.00,52.354
1251.00,52.348
1252.00,52.366
1253.00,52.345
1254.00,52.375
1255.00,52.360
1256.00,52.346
1257.00,52.339
1258.00,52.372
1259.00,52.379
1260.00,52.401
1261.00,52.377
1262.00,52.403
1263.00,52.397
1264.00,52.395
1265.00,52.413
1266.00,52.429
1267.00,52.434
1268.00,52.433
1269.00,52.450
1270.00,52.473
1271.00,52.466
1272.00,52.454
1273.00,52.490
1274.00,52.470
1275.00,52.465
1276.00,52.487
1277.00,52.485
1278.00,52.489
1279.00,52.497
1280.00,52.484
1281.00,52.500
1282.00,52.503
1283.00,52.482
1284.00,52.541
1285.00,52.503
1286.00,52.490
1287.00,52.504
1288.00,52.498
1289.00,52.487
1290.00,52.529
1291.00,52.506
1292.00,52.509
1293.00,52.518
1294.00,52.523
1295.00,52.551
1296.00,52.533
1297.00,52.554
1298.00,52.621
1299.00,52.591
1300.00,52.596
1301.00,52.602
1302.00,52.607
1303.00,52.613
1304.00,52.602
1305.00,52.599
1306.00,52.610
1307.00,52.623
1308.00,52.613
1309.00,52.625
1310.00,52.627
1311.00,52.614
1312.00,52.615
1313.00,52.617
1314.00,52.663
1315.00,52.674
1316.00,52.662
1317.00,52.684
1318.00,52.685
1319.00,52.686
1320.00,52.704
1321.00,52.858
1322.00,52.854
1323.00,52.865
1324.00,52.842
1325.00,52.822
1326.00,52.826
1327.00,52.805
1328.00,52.867
1329.00,52.766
1330.00,52.814
1331.00,52.836
1332.00,52.850
1333.00,52.847
1334.00,52.886
1335.00,52.903
1336.00,52.926
1337.00,52.958
1338.00,53.001
1339.00,53.066
1340.00,53.106
1341.00,53.157
1342.00,53.239
1343.00,53.266
1344.00,53.315
1345.00,53.390
1346.00,53.413
1347.00,53.452
1348.00,53.461
1349.00,53.490
1350.00,53.504
1351.00,53.519
1352.00,53.503
1353.00,53.540
1354.00,53.535
1355.00,53.477
1356.00,53.559
1357.00,53.535
1358.00,53.558
1359.00,53.542
1360.00,53.568
1361.00,53.696
1362.00,53.459
1363.00,53.628
1364.00,53.683
1365.00,53.571
1366.00,53.665
1367.00,53.614
1368.00,53.506
1369.00,53.592
1370.00,53.546
1371.00,53.519
1372.00,53.553
1373.00,53.561
1374.00,53.570
1375.00,53.556
1376.00,53.556
1377.00,53.518
1378.00,53.562
1379.00,53.580
1380.00,53.582
1381.00,53.632
1382.00,53.613
1383.00,53.588
1384.00,53.518
1385.00,53.482
1386.00,53.569
1387.00,53.563
1388.00,53.512
1389.00,53.446
1390.00,53.515
1391.00,53.547
1392.00,53.535
1393.00,53.627
1394.00,53.595
1395.00,53.506
1396.00,53.470
1397.00,53.517
1398.00,53.566
1399.00,53.586
1400.00,53.516
1401.00,53.512
1402.00,53.583
1403.00,53.613
1404.00,53.546
1405.00,53.583
1406.00,53.603
1407.00,53.568
1408.00,53.614
1409.00,53.580
1410.00,53.619
1411.00,53.597
1412.00,53.673
1413.00,53.633
1414.00,53.627
1415.00,53.624
1416.00,53.652
1417.00,53.667
1418.00,53.658
1419.00,53.670
1420.00,53.683
1421.00,53.711
1422.00,53.722
1423.00,53.726
1424.00,53.735
1425.00,53.740
1426.00,53.736
1427.00,53.769
1428.00,53.771
1429.00,53.767
1430.00,53.797
1431.00,53.816
1432.00,53.816
1433.00,53.848
1434.00,53.815
1435.00,53.882
1436.00,53.898
1437.00,53.871
1438.00,53.911
1439.00,53.924
1440.00,53.912
1441.00,53.959
1442.00,53.956
1443.00,53.982
1444.00,54.020
1445.00,53.985
1446.00,54.016
1447.00,54.045
1448.00,54.056
1449.00,54.069
1450.00,54.066
1451.00,54.057
1452.00,54.119
1453.00,54.121
1454.00,54.125
1455.00,54.167
1456.00,54.166
1457.00,54.183
1458.00,54.194
1459.00,54.193
1460.00,54.250
1461.00,54.252
1462.00,54.270
1463.00,54.291
1464.00,54.298
1465.00,54.304
1466.00,54.295
1467.00,54.349
1468.00,54.390
1469.00,54.338
1470.00,54.359
1471.00,54.402
1472.00,54.382
1473.00,54.381
1474.00,54.419
1475.00,54.452
1476.00,54.431
1477.00,54.454
1478.00,54.488
1479.00,54.483
1480.00,54.485
1481.00,54.499
1482.00,54.536
1483.00,54.525
1484.00,54.524
1485.00,54.554
1486.00,54.552
1487.00,54.568
1488.00,54.576
1489.00,54.556
1490.00,54.585
1491.00,54.608
1492.00,54.620
1493.00,54.627
1494.00,54.662
1495.00,54.636
1496.00,54.684
1497.00,54.681
1498.00,54.662
1499.00,54.696
1500.00,54.688
1501.00, 
1502.00, 
1503.00, 
1504.00, 
1505.00, 
1506.00, 
1507.00, 
1508.00, 
1509.00, 
1510.00, 
1511.00, 
1512.00, 
1513.00, 
1514.00, 
1515.00, 
1516.00, 
1517.00, 
1518.00, 
1519.00, 
1520.00, 
1521.00, 
1522.00, 
1523.00, 
1524.00, 
1525.00, 
1526.00, 
1527.00, 
1528.00, 
1529.00, 
1530.00, 
1531.00, 
1532.00, 
1533.00, 
1534.00, 
1535.00, 
1536.00, 
1537.00, 
1538.00, 
1539.00, 
1540.00, 
1541.00, 
1542.00, 
1543.00, 
1544.00, 
1545.00, 
1546.00, 
1547.00, 
1548.00, 
1549.00, 
1550.00, 
1551.00, 
1552.00, 
1553.00, 
1554.00, 
1555.00, 
1556.00, 
1557.00, 
1558.00, 
1559.00, 
1560.00, 
1561.00, 
1562.00, 
1563.00, 
1564.00, 
1565.00, 
1566.00, 
1567.00, 
1568.00, 
1569.00, 
1570.00, 
1571.00, 
1572.00, 
1573.00, 
1574.00, 
1575.00, 
1576.00, 
1577.00, 
1578.00, 
1579.00, 
1580.00, 
1581.00, 
1582.00, 
1583.00, 
1584.00, 
1585.00, 
1586.00, 
1587.00, 
1588.00, 
1589.00, 
1590.00, 
1591.00, 
1592.00, 
1593.00, 
1594.00, 
1595.00, 
1596.00, 
1597.00, 
1598.00, 
1599.00, 
1600.00, 
1601.00, 
1602.00, 
1603.00, 
1604.00, 
1605.00, 
1606.00, 
1607.00, 
1608.00, 
1609.00, 
1610.00, 
1611.00, 
1612.00, 
1613.00, 
1614.00, 
1615.00, 
1616.00, 
1617.00, 
1618.00, 
1619.00, 
1620.00, 
1621.00, 
1622.00, 
1623.00, 
1624.00, 
1625.00, 
1626.00, 
1627.00, 
1628.00, 
1629.00, 
1630.00, 
1631.00, 
1632.00, 
1633.00, 
1634.00, 
1635.00, 
1636.00, 
1637.00, 
1638.00, 
1639.00, 
1640.00, 
1641.00, 
1642.00, 
1643.00, 
1644.00, 
1645.00, 
1646.00, 
1647.00, 
1648.00, 
1649.00, 
1650.00, 
1651.00, 
1652.00, 
1653.00, 
1654.00, 
1655.00, 
1656.00, 
1657.00, 
1658.00, 
1659.00, 
1660.00, 
1661.00, 
1662.00, 
1663.00, 
1664.00, 
1665.00, 
1666.00, 
1667.00, 
1668.00, 
1669.00, 
1670.00, 
1671.00, 
1672.00, 
1673.00, 
1674.00, 
1675.00, 
1676.00, 
1677.00, 
1678.00, 
1679.00, 
1680.00, 
1681.00, 
1682.00, 
1683.00, 
1684.00, 
1685.00, 
1686.00, 
1687.00, 
1688.00, 
1689.00, 
1690.00, 
1691.00, 
1692.00, 
1693.00, 
1694.00, 
1695.00, 
1696.00, 
1697.00, 
1698.00, 
1699.00, 
1700.00, 
1701.00, 
1702.00, 
1703.00, 
1704.00, 
1705.00, 
1706.00, 
1707.00, 
1708.00, 
1709.00, 
1710.00, 
1711.00, 
1712.00, 
1713.00, 
1714.00, 
1715.00, 
1716.00, 
1717.00, 
1718.00, 
1719.00, 
1720.00, 
1721.00, 
1722.00, 
1723.00, 
1724.00, 
1725.00, 
1726.00, 
1727.00, 
1728.00, 
1729.00, 
1730.00, 
1731.00, 
1732.00, 
1733.00, 
1734.00, 
1735.00, 
1736.00, 
1737.00, 
1738.00, 
1739.00, 
1740.00, 
1741.00, 
1742.00, 
1743.00, 
1744.00, 
1745.00, 
1746.00, 
1747.00, 
1748.00, 
1749.00, 
1750.00, 
1751.00, 
1752.00, 
1753.00, 
1754.00, 
1755.00, 
1756.00, 
1757.00, 
1758.00, 
1759.00, 
1760.00, 
1761.00, 
1762.00, 
1763.00, 
1764.00, 
1765.00, 
1766.00, 
1767.00, 
1768.00, 
1769.00, 
1770.00, 
1771.00, 
1772.00, 
1773.00, 
1774.00, 
1775.00, 
1776.00, 
1777.00, 
1778.00, 
1779.00, 
1780.00, 
1781.00, 
1782.00, 
1783.00, 
1784.00, 
1785.00, 
1786.00, 
1787.00, 
1788.00, 
1789.00, 
1790.00, 
1791.00, 
1792.00, 
1793.00, 
1794.00, 
1795.00, 
1796.00, 
1797.00, 
1798.00, 
1799.00, 
1800.00, 
1801.00, 
1802.00, 
1803.00, 
1804.00, 
1805.00, 
1806.00, 
1807.00, 
1808.00, 
1809.00, 
1810.00, 
1811.00, 
1812.00, 
1813.00, 
1814.00, 
1815.00, 
1816.00, 
1817.00, 
1818.00, 
1819.00, 
1820.00, 
1821.00, 
1822.00, 
1823.00, 
1824.00, 
1825.00, 
1826.00, 
1827.00, 
1828.00, 
1829.00, 
1830.00, 
1831.00, 
1832.00, 
1833.00, 
1834.00, 
1835.00, 
1836.00, 
1837.00, 
1838.00, 
1839.00, 
1840.00, 
1841.00, 
1842.00, 
1843.00, 
1844.00, 
1845.00, 
1846.00, 
1847.00, 
1848.00, 
1849.00, 
1850.00, 
1851.00, 
1852.00, 
1853.00, 
1854.00, 
1855.00, 
1856.00, 
1857.00, 
1858.00, 
1859.00, 
1860.00, 
1861.00, 
1862.00, 
1863.00, 
1864.00, 
1865.00, 
1866.00, 
1867.00, 
1868.00, 
1869.00, 
1870.00, 
1871.00, 
1872.00, 
1873.00, 
1874.00, 
1875.00, 
1876.00, 
1877.00, 
1878.00, 
1879.00, 
1880.00, 
1881.00, 
1882.00, 
1883.00, 
1884.00, 
1885.00, 
1886.00, 
1887.00, 
1888.00, 
1889.00, 
1890.00, 
1891.00, 
1892.00, 
1893.00, 
1894.00, 
1895.00, 
1896.00, 
1897.00, 
1898.00, 
1899.00, 
1900.00, 
1901.00, 
1902.00, 
1903.00, 
1904.00, 
1905.00, 
1906.00, 
1907.00, 
1908.00, 
1909.00, 
1910.00, 
1911.00, 
1912.00, 
1913.00, 
1914.00, 
1915.00, 
1916.00, 
1917.00, 
1918.00, 
1919.00, 
1920.00, 
1921.00, 
1922.00, 
1923.00, 
1924.00, 
1925.00, 
1926.00, 
1927.00, 
1928.00, 
1929.00, 
1930.00, 
1931.00, 
1932.00, 
1933.00, 
1934.00, 
1935.00, 
1936.00, 
1937.00, 
1938.00, 
1939.00, 
1940.00, 
1941.00, 
1942.00, 
1943.00, 
1944.00, 
1945.00, 
1946.00, 
1947.00, 
1948.00, 
1949.00, 
1950.00, 
1951.00, 
1952.00, 
1953.00, 
1954.00, 
1955.00, 
1956.00, 
1957.00, 
1958.00, 
1959.00, 
1960.00, 
1961.00, 
1962.00, 
1963.00, 
1964.00, 
1965.00, 
1966.00, 
1967.00, 
1968.00, 
1969.00, 
1970.00, 
1971.00, 
1972.00, 
1973.00, 
1974.00, 
1975.00, 
1976.00, 
1977.00, 
1978.00, 
1979.00, 
1980.00, 
1981.00, 
1982.00, 
1983.00, 
1984.00, 
1985.00, 
1986.00, 
1987.00, 
1988.00, 
1989.00, 
1990.00, 
1991.00, 
1992.00, 
1993.00, 
1994.00, 
1995.00, 
1996.00, 
1997.00, 
1998.00, 
1999.00, 
2000.00, 
2001.00, 
2002.00, 
2003.00, 
2004.00, 
2005.00, 
2006.00, 
2007.00, 
2008.00, 
2009.00, 
2010.00, 
2011.00, 
2012.00, 
2013.00, 
2014.00, 
2015.00, 
2016.00, 
2017.00, 
2018.00, 
2019.00, 
2020.00, 
2021.00, 
2022.00, 
2023.00, 
2024.00, 
2025.00, 
2026.00, 
2027.00, 
2028.00, 
2029.00, 
2030.00, 
2031.00, 
2032.00, 
2033.00, 
2034.00, 
2035.00, 
2036.00, 
2037.00, 
2038.00, 
2039.00, 
2040.00, 
2041.00, 
2042.00, 
2043.00, 
2044.00, 
2045.00, 
2046.00, 
2047.00, 
2048.00, 
2049.00, 
2050.00, 
2051.00, 
2052.00, 
2053.00, 
2054.00, 
2055.00, 
2056.00, 
2057.00, 
2058.00, 
2059.00, 
2060.00, 
2061.00, 
2062.00, 
2063.00, 
2064.00, 
2065.00, 
2066.00, 
2067.00, 
2068.00, 
2069.00, 
2070.00, 
2071.00, 
2072.00, 
2073.00, 
2074.00, 
2075.00, 
2076.00, 
2077.00, 
2078.00, 
2079.00, 
2080.00, 
2081.00, 
2082.00, 
2083.00, 
2084.00, 
2085.00, 
2086.00, 
2087.00, 
2088.00, 
2089.00, 
2090.00, 
2091.00, 
2092.00, 
2093.00, 
2094.00, 
2095.00, 
2096.00, 
2097.00, 
2098.00, 
2099.00, 
2100.00, 
2101.00, 
2102.00, 
2103.00, 
2104.00, 
2105.00, 
2106.00, 
2107.00, 
2108.00, 
2109.00, 
2110.00, 
2111.00, 
2112.00, 
2113.00, 
2114.00, 
2115.00, 
2116.00, 
2117.00, 
2118.00, 
2119.00, 
2120.00, 
2121.00, 
2122.00, 
2123.00, 
2124.00, 
2125.00, 
2126.00, 
2127.00, 
2128.00, 
2129.00, 
2130.00, 
2131.00, 
2132.00, 
2133.00, 
2134.00, 
2135.00, 
2136.00, 
2137.00, 
2138.00, 
2139.00, 
2140.00, 
2141.00, 
2142.00, 
2143.00, 
2144.00, 
2145.00, 
2146.00, 
2147.00, 
2148.00, 
2149.00, 
2150.00, 
2151.00, 
2152.00, 
2153.00, 
2154.00, 
2155.00, 
2156.00, 
2157.00, 
2158.00, 
2159.00, 
2160.00, 
2161.00, 
2162.00, 
2163.00, 
2164.00, 
2165.00, 
2166.00, 
2167.00, 
2168.00, 
2169.00, 
2170.00, 
2171.00, 
2172.00, 
2173.00, 
2174.00, 
2175.00, 
2176.00, 
2177.00, 
2178.00, 
2179.00, 
2180.00, 
2181.00, 
2182.00, 
2183.00, 
2184.00, 
2185.00, 
2186.00, 
2187.00, 
2188.00, 
2189.00, 
2190.00, 
2191.00, 
2192.00, 
2193.00, 
2194.00, 
2195.00, 
2196.00, 
2197.00, 
2198.00, 
2199.00, 
2200.00, 
2201.00, 
2202.00, 
2203.00, 
2204.00, 
2205.00, 
2206.00, 
2207.00, 
2208.00, 
2209.00, 
2210.00, 
2211.00, 
2212.00, 
2213.00, 
2214.00, 
2215.00, 
2216.00, 
2217.00, 
2218.00, 
2219.00, 
2220.00, 
2221.00, 
2222.00, 
2223.00, 
2224.00, 
2225.00, 
2226.00, 
2227.00, 
2228.00, 
2229.00, 
2230.00, 
2231.00, 
2232.00, 
2233.00, 
2234.00, 
2235.00, 
2236.00, 
2237.00, 
2238.00, 
2239.00, 
2240.00, 
2241.00, 
2242.00, 
2243.00, 
2244.00, 
2245.00, 
2246.00, 
2247.00, 
2248.00, 
2249.00, 
2250.00, 
2251.00, 
2252.00, 
2253.00, 
2254.00, 
2255.00, 
2256.00, 
2257.00, 
2258.00, 
2259.00, 
2260.00, 
2261.00, 
2262.00, 
2263.00, 
2264.00, 
2265.00, 
2266.00, 
2267.00, 
2268.00, 
2269.00, 
2270.00, 
2271.00, 
2272.00, 
2273.00, 
2274.00, 
2275.00, 
2276.00, 
2277.00, 
2278.00, 
2279.00, 
2280.00, 
2281.00, 
2282.00, 
2283.00, 
2284.00, 
2285.00, 
2286.00, 
2287.00, 
2288.00, 
2289.00, 
2290.00, 
2291.00, 
2292.00, 
2293.00, 
2294.00, 
2295.00, 
2296.00, 
2297.00, 
2298.00, 
2299.00, 
2300.00, 
2301.00, 
2302.00, 
2303.00, 
2304.00, 
2305.00, 
2306.00, 
2307.00, 
2308.00, 
2309.00, 
2310.00, 
2311.00, 
2312.00, 
2313.00, 
2314.00, 
2315.00, 
2316.00, 
2317.00, 
2318.00, 
2319.00, 
2320.00, 
2321.00, 
2322.00, 
2323.00, 
2324.00, 
2325.00, 
2326.00, 
2327.00, 
2328.00, 
2329.00, 
2330.00, 
2331.00, 
2332.00, 
2333.00, 
2334.00, 
2335.00, 
2336.00, 
2337.00, 
2338.00, 
2339.00, 
2340.00, 
2341.00, 
2342.00, 
2343.00, 
2344.00, 
2345.00, 
2346.00, 
2347.00, 
2348.00, 
2349.00, 
2350.00, 
2351.00, 
2352.00, 
2353.00, 
2354.00, 
2355.00, 
2356.00, 
2357.00, 
2358.00, 
2359.00, 
2360.00, 
2361.00, 
2362.00, 
2363.00, 
2364.00, 
2365.00, 
2366.00, 
2367.00, 
2368.00, 
2369.00, 
2370.00, 
2371.00, 
2372.00, 
2373.00, 
2374.00, 
2375.00, 
2376.00, 
2377.00, 
2378.00, 
2379.00, 
2380.00, 
2381.00, 
2382.00, 
2383.00, 
2384.00, 
2385.00, 
2386.00, 
2387.00, 
2388.00, 
2389.00, 
2390.00, 
2391.00, 
2392.00, 
2393.00, 
2394.00, 
2395.00, 
2396.00, 
2397.00, 
2398.00, 
2399.00, 
2400.00, 
2401.00, 
2402.00, 
2403.00, 
2404.00, 
2405.00, 
2406.00, 
2407.00, 
2408.00, 
2409.00, 
2410.00, 
2411.00, 
2412.00, 
2413.00, 
2414.00, 
2415.00, 
2416.00, 
2417.00, 
2418.00, 
2419.00, 
2420.00, 
2421.00, 
2422.00, 
2423.00, 
2424.00, 
2425.00, 
2426.00, 
2427.00, 
2428.00, 
2429.00, 
2430.00, 
2431.00, 
2432.00, 
2433.00, 
2434.00, 
2435.00, 
2436.00, 
2437.00, 
2438.00, 
2439.00, 
2440.00, 
2441.00, 
2442.00, 
2443.00, 
2444.00, 
2445.00, 
2446.00, 
2447.00, 
2448.00, 
2449.00, 
2450.00, 
2451.00, 
2452.00, 
2453.00, 
2454.00, 
2455.00, 
2456.00, 
2457.00, 
2458.00, 
2459.00, 
2460.00, 
2461.00, 
2462.00, 
2463.00, 
2464.00, 
2465.00, 
2466.00, 
2467.00, 
2468.00, 
2469.00, 
2470.00, 
2471.00, 
2472.00, 
2473.00, 
2474.00, 
2475.00, 
2476.00, 
2477.00, 
2478.00, 
2479.00, 
2480.00, 
2481.00, 
2482.00, 
2483.00, 
2484.00, 
2485.00, 
2486.00, 
2487.00, 
2488.00, 
2489.00, 
2490.00, 
2491.00, 
2492.00, 
2493.00, 
2494.00, 
2495.00, 
2496.00, 
2497.00, 
2498.00, 
2499.00, 
2500.00, 
2501.00, 
2502.00, 
2503.00, 
2504.00, 
2505.00, 
2506.00, 
2507.00, 
2508.00, 
2509.00, 
2510.00, 
2511.00, 
2512.00, 
2513.00, 
2514.00, 
2515.00, 
2516.00, 
2517.00, 
2518.00, 
2519.00, 
2520.00, 
2521.00, 
2522.00, 
2523.00, 
2524.00, 
2525.00, 
2526.00, 
2527.00, 
2528.00, 
2529.00, 
2530.00, 
2531.00, 
2532.00, 
2533.00, 
2534.00, 
2535.00, 
2536.00, 
2537.00, 
2538.00, 
2539.00, 
2540.00, 
2541.00, 
2542.00, 
2543.00, 
2544.00, 
2545.00, 
2546.00, 
2547.00, 
2548.00, 
2549.00, 
2550.00, 
2551.00, 
2552.00, 
2553.00, 
2554.00, 
2555.00, 
2556.00, 
2557.00, 
2558.00, 
2559.00, 
2560.00, 
2561.00, 
2562.00, 
2563.00, 
2564.00, 
2565.00, 
2566.00, 
2567.00, 
2568.00, 
2569.00, 
2570.00, 
2571.00, 
2572.00, 
2573.00, 
2574.00, 
2575.00, 
2576.00, 
2577.00, 
2578.00, 
2579.00, 
2580.00, 
2581.00, 
2582.00, 
2583.00, 
2584.00, 
2585.00, 
2586.00, 
2587.00, 
2588.00, 
2589.00, 
2590.00, 
2591.00, 
2592.00, 
2593.00, 
2594.00, 
2595.00, 
2596.00, 
2597.00, 
2598.00, 
2599.00, 
2600.00, 
