"1bP2 - RawData"
"Wavelength nm.","T%"
200.00,0.001
201.00,0.001
202.00,0.006
203.00,0.001
204.00,0.002
205.00,0.001
206.00,0.003
207.00,0.001
208.00,0.003
209.00,0.001
210.00,-0.000
211.00,0.001
212.00,0.001
213.00,0.001
214.00,0.002
215.00,0.001
216.00,-0.002
217.00,-0.001
218.00,0.002
219.00,0.001
220.00,0.002
221.00,0.003
222.00,0.000
223.00,-0.000
224.00,0.001
225.00,0.000
226.00,-0.001
227.00,-0.000
228.00,0.000
229.00,0.000
230.00,0.001
231.00,0.003
232.00,0.001
233.00,0.002
234.00,0.001
235.00,-0.000
236.00,-0.000
237.00,-0.000
238.00,0.002
239.00,-0.001
240.00,-0.001
241.00,-0.001
242.00,-0.001
243.00,-0.000
244.00,0.001
245.00,-0.000
246.00,0.003
247.00,-0.001
248.00,0.000
249.00,0.001
250.00,0.002
251.00,0.002
252.00,0.001
253.00,0.000
254.00,-0.001
255.00,0.001
256.00,-0.001
257.00,-0.000
258.00,0.000
259.00,-0.002
260.00,-0.001
261.00,-0.000
262.00,0.001
263.00,0.001
264.00,0.001
265.00,-0.001
266.00,0.001
267.00,-0.002
268.00,-0.001
269.00,-0.000
270.00,-0.000
271.00,0.000
272.00,0.000
273.00,0.001
274.00,-0.000
275.00,-0.001
276.00,0.001
277.00,-0.000
278.00,-0.000
279.00,-0.000
280.00,-0.000
281.00,0.000
282.00,0.001
283.00,0.001
284.00,-0.001
285.00,0.001
286.00,0.002
287.00,0.001
288.00,0.000
289.00,-0.000
290.00,-0.000
291.00,0.001
292.00,0.001
293.00,-0.001
294.00,0.000
295.00,0.000
296.00,0.001
297.00,-0.001
298.00,0.003
299.00,0.003
300.00,0.002
301.00,0.006
302.00,0.009
303.00,0.014
304.00,0.021
305.00,0.034
306.00,0.051
307.00,0.079
308.00,0.120
309.00,0.187
310.00,0.262
311.00,0.354
312.00,0.453
313.00,0.632
314.00,0.809
315.00,1.056
316.00,1.330
317.00,1.677
318.00,2.040
319.00,2.484
320.00,2.994
321.00,3.542
322.00,4.162
323.00,4.861
324.00,5.585
325.00,6.294
326.00,7.059
327.00,7.894
328.00,8.782
329.00,9.603
330.00,10.501
331.00,11.412
332.00,12.317
333.00,13.279
334.00,14.109
335.00,15.049
336.00,15.966
337.00,16.880
338.00,17.761
339.00,18.542
340.00,19.354
341.00,20.136
342.00,20.820
343.00,21.584
344.00,22.197
345.00,22.910
346.00,23.488
347.00,24.053
348.00,24.620
349.00,25.090
350.00,25.532
351.00,25.981
352.00,26.364
353.00,26.715
354.00,27.088
355.00,27.422
356.00,27.729
357.00,27.983
358.00,28.248
359.00,28.470
360.00,28.729
361.00,28.935
362.00,29.109
363.00,29.330
364.00,29.471
365.00,29.469
366.00,29.701
367.00,29.777
368.00,29.906
369.00,29.903
370.00,29.974
371.00,30.034
372.00,29.993
373.00,30.045
374.00,30.015
375.00,29.940
376.00,29.910
377.00,29.870
378.00,29.799
379.00,29.687
380.00,29.699
381.00,29.710
382.00,29.668
383.00,29.694
384.00,29.703
385.00,29.764
386.00,29.783
387.00,29.900
388.00,29.942
389.00,29.958
390.00,30.018
391.00,30.034
392.00,30.123
393.00,30.079
394.00,30.063
395.00,30.182
396.00,30.106
397.00,30.093
398.00,30.085
399.00,30.074
400.00,30.197
401.00,30.204
402.00,30.216
403.00,30.154
404.00,30.142
405.00,30.123
406.00,30.155
407.00,30.047
408.00,30.093
409.00,30.028
410.00,29.917
411.00,29.921
412.00,29.843
413.00,29.919
414.00,29.882
415.00,29.881
416.00,29.962
417.00,29.902
418.00,29.935
419.00,29.966
420.00,30.045
421.00,30.122
422.00,30.095
423.00,30.144
424.00,30.163
425.00,30.206
426.00,30.221
427.00,30.245
428.00,30.310
429.00,30.355
430.00,30.383
431.00,30.408
432.00,30.482
433.00,30.521
434.00,30.561
435.00,30.642
436.00,30.716
437.00,30.741
438.00,30.776
439.00,30.896
440.00,30.942
441.00,31.019
442.00,31.071
443.00,31.034
444.00,31.260
445.00,31.291
446.00,31.382
447.00,31.504
448.00,31.578
449.00,31.696
450.00,31.770
451.00,31.862
452.00,31.961
453.00,32.015
454.00,32.142
455.00,32.237
456.00,32.343
457.00,32.457
458.00,32.536
459.00,32.634
460.00,32.752
461.00,32.883
462.00,32.986
463.00,33.088
464.00,33.247
465.00,33.291
466.00,33.455
467.00,33.506
468.00,33.644
469.00,33.736
470.00,33.777
471.00,33.914
472.00,33.993
473.00,34.009
474.00,34.181
475.00,34.339
476.00,34.378
477.00,34.521
478.00,34.591
479.00,34.732
480.00,34.853
481.00,34.934
482.00,35.099
483.00,35.216
484.00,35.348
485.00,35.527
486.00,35.651
487.00,35.785
488.00,35.898
489.00,36.031
490.00,36.143
491.00,36.240
492.00,36.461
493.00,36.531
494.00,36.623
495.00,36.689
496.00,36.834
497.00,36.926
498.00,37.136
499.00,37.193
500.00,37.293
501.00,37.405
502.00,37.474
503.00,37.598
504.00,37.613
505.00,37.735
506.00,37.897
507.00,37.907
508.00,38.068
509.00,38.169
510.00,38.281
511.00,38.354
512.00,38.493
513.00,38.615
514.00,38.747
515.00,38.834
516.00,38.929
517.00,39.038
518.00,39.092
519.00,39.177
520.00,39.248
521.00,39.260
522.00,39.350
523.00,39.418
524.00,39.467
525.00,39.499
526.00,39.681
527.00,39.686
528.00,39.726
529.00,39.820
530.00,39.961
531.00,40.090
532.00,40.167
533.00,40.250
534.00,40.315
535.00,40.405
536.00,40.415
537.00,40.435
538.00,40.572
539.00,40.641
540.00,40.632
541.00,40.665
542.00,40.679
543.00,40.710
544.00,40.855
545.00,40.883
546.00,40.927
547.00,41.052
548.00,41.092
549.00,41.158
550.00,41.210
551.00,41.333
552.00,41.327
553.00,41.349
554.00,41.430
555.00,41.383
556.00,41.473
557.00,41.431
558.00,41.501
559.00,41.650
560.00,41.750
561.00,41.817
562.00,41.843
563.00,41.875
564.00,41.895
565.00,41.900
566.00,41.876
567.00,41.926
568.00,41.991
569.00,41.970
570.00,41.983
571.00,42.066
572.00,42.120
573.00,42.105
574.00,42.130
575.00,42.137
576.00,42.102
577.00,42.190
578.00,42.245
579.00,42.292
580.00,42.372
581.00,42.477
582.00,42.533
583.00,42.530
584.00,42.678
585.00,42.673
586.00,42.701
587.00,42.754
588.00,42.798
589.00,42.790
590.00,42.763
591.00,42.808
592.00,42.773
593.00,42.835
594.00,42.932
595.00,42.950
596.00,43.040
597.00,43.076
598.00,43.146
599.00,43.143
600.00,43.173
601.00,43.168
602.00,43.182
603.00,43.266
604.00,43.261
605.00,43.354
606.00,43.280
607.00,43.329
608.00,43.393
609.00,43.427
610.00,43.395
611.00,43.473
612.00,43.524
613.00,43.523
614.00,43.550
615.00,43.556
616.00,43.686
617.00,43.686
618.00,43.694
619.00,43.751
620.00,43.774
621.00,43.809
622.00,43.872
623.00,43.963
624.00,43.939
625.00,43.971
626.00,44.056
627.00,44.024
628.00,44.182
629.00,44.177
630.00,44.159
631.00,44.170
632.00,44.241
633.00,44.312
634.00,44.393
635.00,44.512
636.00,44.584
637.00,44.544
638.00,44.589
639.00,44.641
640.00,44.644
641.00,44.696
642.00,44.710
643.00,44.694
644.00,44.848
645.00,44.790
646.00,44.971
647.00,45.027
648.00,45.067
649.00,45.162
650.00,45.085
651.00,45.172
652.00,45.195
653.00,45.371
654.00,45.382
655.00,45.376
656.00,45.542
657.00,45.602
658.00,45.695
659.00,45.743
660.00,45.786
661.00,45.726
662.00,45.914
663.00,45.860
664.00,46.027
665.00,46.155
666.00,46.087
667.00,46.207
668.00,46.157
669.00,46.376
670.00,46.525
671.00,46.469
672.00,46.502
673.00,46.653
674.00,46.691
675.00,46.733
676.00,46.760
677.00,46.834
678.00,46.777
679.00,46.873
680.00,46.968
681.00,47.098
682.00,47.153
683.00,47.190
684.00,47.399
685.00,47.395
686.00,47.224
687.00,47.211
688.00,47.376
689.00,47.437
690.00,47.546
691.00,47.713
692.00,47.609
693.00,47.714
694.00,47.536
695.00,47.746
696.00,47.786
697.00,47.891
698.00,47.979
699.00,48.204
700.00,48.121
701.00,48.198
702.00,48.200
703.00,48.299
704.00,48.335
705.00,48.277
706.00,48.261
707.00,48.450
708.00,48.278
709.00,48.371
710.00,48.838
711.00,48.490
712.00,48.250
713.00,48.526
714.00,48.813
715.00,48.748
716.00,48.726
717.00,48.791
718.00,48.809
719.00,48.872
720.00,48.984
721.00,53.466
722.00,53.421
723.00,53.376
724.00,53.452
725.00,53.364
726.00,53.367
727.00,53.403
728.00,53.404
729.00,53.395
730.00,53.326
731.00,53.354
732.00,53.394
733.00,53.460
734.00,53.420
735.00,53.509
736.00,53.450
737.00,53.411
738.00,53.554
739.00,53.485
740.00,53.497
741.00,53.583
742.00,53.552
743.00,53.492
744.00,53.443
745.00,53.491
746.00,53.431
747.00,53.462
748.00,53.490
749.00,53.450
750.00,53.464
751.00,53.390
752.00,53.366
753.00,53.327
754.00,53.287
755.00,53.270
756.00,53.385
757.00,53.266
758.00,53.317
759.00,53.268
760.00,53.309
761.00,53.257
762.00,53.272
763.00,53.270
764.00,53.266
765.00,53.216
766.00,53.306
767.00,53.317
768.00,53.237
769.00,53.181
770.00,53.240
771.00,53.192
772.00,53.208
773.00,53.317
774.00,53.274
775.00,53.259
776.00,53.212
777.00,53.259
778.00,53.201
779.00,53.225
780.00,53.123
781.00,53.187
782.00,53.162
783.00,53.195
784.00,53.097
785.00,53.058
786.00,53.132
787.00,53.093
788.00,53.104
789.00,53.056
790.00,52.994
791.00,53.133
792.00,53.107
793.00,53.006
794.00,52.996
795.00,52.938
796.00,52.918
797.00,52.878
798.00,53.018
799.00,52.809
800.00,52.819
801.00,52.909
802.00,52.796
803.00,52.771
804.00,52.766
805.00,52.789
806.00,52.822
807.00,52.678
808.00,52.774
809.00,52.725
810.00,52.736
811.00,52.695
812.00,52.710
813.00,52.656
814.00,52.642
815.00,52.615
816.00,52.587
817.00,52.525
818.00,52.519
819.00,52.597
820.00,52.446
821.00,52.517
822.00,52.478
823.00,52.470
824.00,52.473
825.00,52.387
826.00,52.460
827.00,52.450
828.00,52.432
829.00,52.396
830.00,52.378
831.00,54.938
832.00,54.965
833.00,54.863
834.00,54.917
835.00,54.883
836.00,54.895
837.00,54.817
838.00,54.842
839.00,54.811
840.00,54.734
841.00,54.727
842.00,54.734
843.00,54.712
844.00,54.713
845.00,54.673
846.00,54.685
847.00,54.604
848.00,54.600
849.00,54.573
850.00,54.528
851.00,54.504
852.00,54.476
853.00,54.445
854.00,54.447
855.00,54.377
856.00,54.374
857.00,54.390
858.00,54.316
859.00,54.321
860.00,54.328
861.00,54.325
862.00,54.272
863.00,54.283
864.00,54.263
865.00,54.249
866.00,54.240
867.00,54.179
868.00,54.439
869.00,54.212
870.00,54.197
871.00,54.178
872.00,54.174
873.00,54.142
874.00,54.145
875.00,54.128
876.00,54.084
877.00,54.110
878.00,54.090
879.00,54.078
880.00,54.037
881.00,54.057
882.00,54.069
883.00,54.018
884.00,54.004
885.00,53.988
886.00,53.961
887.00,53.993
888.00,53.931
889.00,53.922
890.00,53.916
891.00,53.876
892.00,53.817
893.00,53.826
894.00,53.825
895.00,53.799
896.00,53.782
897.00,53.764
898.00,53.738
899.00,53.733
900.00,53.727
901.00,53.721
902.00,53.707
903.00,53.679
904.00,53.669
905.00,53.649
906.00,53.650
907.00,53.615
908.00,53.583
909.00,53.564
910.00,53.503
911.00,53.556
912.00,53.545
913.00,53.483
914.00,53.512
915.00,53.465
916.00,53.468
917.00,53.416
918.00,53.455
919.00,53.407
920.00,53.354
921.00,53.377
922.00,53.376
923.00,53.317
924.00,53.258
925.00,53.262
926.00,53.264
927.00,53.246
928.00,53.204
929.00,53.212
930.00,53.191
931.00,53.176
932.00,53.141
933.00,53.153
934.00,53.140
935.00,53.117
936.00,53.087
937.00,53.020
938.00,53.215
939.00,53.036
940.00,53.026
941.00,53.031
942.00,53.007
943.00,53.003
944.00,52.945
945.00,52.970
946.00,52.947
947.00,52.927
948.00,52.895
949.00,52.887
950.00,52.861
951.00,52.845
952.00,52.813
953.00,52.777
954.00,52.768
955.00,52.715
956.00,52.687
957.00,52.693
958.00,52.695
959.00,52.653
960.00,52.621
961.00,52.623
962.00,52.624
963.00,52.575
964.00,52.550
965.00,52.574
966.00,52.556
967.00,52.538
968.00,52.549
969.00,52.560
970.00,52.541
971.00,52.551
972.00,52.500
973.00,52.556
974.00,52.556
975.00,52.518
976.00,52.547
977.00,52.549
978.00,52.566
979.00,52.544
980.00,52.548
981.00,52.544
982.00,52.521
983.00,52.504
984.00,52.515
985.00,52.522
986.00,52.483
987.00,52.517
988.00,52.485
989.00,52.471
990.00,52.474
991.00,52.461
992.00,52.471
993.00,52.444
994.00,52.415
995.00,52.415
996.00,52.432
997.00,52.359
998.00,52.358
999.00,52.401
1000.00,52.347
1001.00,52.351
1002.00,52.341
1003.00,52.331
1004.00,52.298
1005.00,52.262
1006.00,52.300
1007.00,52.277
1008.00,52.252
1009.00,52.252
1010.00,52.257
1011.00,52.234
1012.00,52.232
1013.00,52.239
1014.00,52.227
1015.00,52.211
1016.00,52.159
1017.00,52.172
1018.00,52.177
1019.00,52.129
1020.00,52.130
1021.00,52.110
1022.00,52.095
1023.00,52.059
1024.00,52.065
1025.00,52.040
1026.00,52.038
1027.00,51.993
1028.00,51.996
1029.00,51.999
1030.00,51.961
1031.00,51.978
1032.00,51.945
1033.00,51.938
1034.00,51.923
1035.00,51.869
1036.00,51.837
1037.00,51.833
1038.00,51.805
1039.00,51.785
1040.00,51.778
1041.00,51.735
1042.00,51.755
1043.00,51.738
1044.00,51.779
1045.00,51.768
1046.00,51.745
1047.00,51.763
1048.00,51.780
1049.00,51.765
1050.00,51.786
1051.00,51.809
1052.00,51.821
1053.00,51.817
1054.00,51.794
1055.00,51.832
1056.00,51.837
1057.00,51.853
1058.00,51.833
1059.00,51.846
1060.00,51.880
1061.00,51.852
1062.00,51.832
1063.00,51.816
1064.00,51.844
1065.00,51.815
1066.00,51.789
1067.00,51.796
1068.00,51.816
1069.00,51.790
1070.00,51.752
1071.00,51.764
1072.00,51.786
1073.00,51.782
1074.00,51.751
1075.00,51.752
1076.00,51.750
1077.00,51.714
1078.00,51.715
1079.00,51.706
1080.00,51.703
1081.00,51.690
1082.00,51.674
1083.00,51.677
1084.00,51.658
1085.00,51.643
1086.00,51.670
1087.00,51.670
1088.00,51.658
1089.00,51.643
1090.00,51.659
1091.00,51.654
1092.00,51.646
1093.00,51.617
1094.00,51.603
1095.00,51.593
1096.00,51.575
1097.00,51.592
1098.00,51.578
1099.00,51.551
1100.00,51.550
1101.00,51.541
1102.00,51.538
1103.00,51.523
1104.00,51.503
1105.00,51.506
1106.00,51.502
1107.00,51.484
1108.00,51.496
1109.00,51.500
1110.00,51.478
1111.00,51.484
1112.00,51.463
1113.00,51.460
1114.00,51.459
1115.00,51.446
1116.00,51.453
1117.00,51.427
1118.00,51.422
1119.00,51.431
1120.00,51.439
1121.00,51.420
1122.00,51.423
1123.00,51.422
1124.00,51.391
1125.00,51.402
1126.00,51.392
1127.00,51.388
1128.00,51.372
1129.00,51.334
1130.00,51.350
1131.00,51.337
1132.00,51.313
1133.00,51.316
1134.00,51.314
1135.00,51.309
1136.00,51.322
1137.00,51.318
1138.00,51.314
1139.00,51.329
1140.00,51.303
1141.00,51.313
1142.00,51.302
1143.00,51.316
1144.00,51.317
1145.00,51.301
1146.00,51.306
1147.00,51.307
1148.00,51.292
1149.00,51.302
1150.00,51.314
1151.00,51.290
1152.00,51.294
1153.00,51.285
1154.00,51.278
1155.00,51.283
1156.00,51.279
1157.00,51.270
1158.00,51.271
1159.00,51.254
1160.00,51.253
1161.00,51.278
1162.00,51.253
1163.00,51.266
1164.00,51.269
1165.00,51.270
1166.00,51.269
1167.00,51.263
1168.00,51.274
1169.00,51.275
1170.00,51.252
1171.00,51.255
1172.00,51.270
1173.00,51.234
1174.00,51.253
1175.00,51.258
1176.00,51.251
1177.00,51.248
1178.00,51.245
1179.00,51.250
1180.00,51.245
1181.00,51.249
1182.00,51.255
1183.00,51.252
1184.00,51.227
1185.00,51.247
1186.00,51.241
1187.00,51.217
1188.00,51.223
1189.00,51.226
1190.00,51.229
1191.00,51.254
1192.00,51.264
1193.00,51.265
1194.00,51.267
1195.00,51.241
1196.00,51.268
1197.00,51.265
1198.00,51.249
1199.00,51.259
1200.00,51.272
1201.00,51.268
1202.00,51.273
1203.00,51.243
1204.00,51.261
1205.00,51.307
1206.00,51.261
1207.00,51.272
1208.00,51.244
1209.00,51.248
1210.00,51.254
1211.00,51.233
1212.00,51.255
1213.00,51.223
1214.00,51.243
1215.00,51.233
1216.00,51.235
1217.00,51.225
1218.00,51.224
1219.00,51.267
1220.00,51.241
1221.00,51.250
1222.00,51.246
1223.00,51.266
1224.00,51.271
1225.00,51.237
1226.00,51.246
1227.00,51.248
1228.00,51.240
1229.00,51.249
1230.00,51.282
1231.00,51.262
1232.00,51.291
1233.00,51.316
1234.00,51.312
1235.00,51.309
1236.00,51.309
1237.00,51.312
1238.00,51.315
1239.00,51.292
1240.00,51.299
1241.00,51.287
1242.00,51.287
1243.00,51.311
1244.00,51.285
1245.00,51.311
1246.00,51.318
1247.00,51.308
1248.00,51.309
1249.00,51.326
1250.00,51.313
1251.00,51.322
1252.00,51.347
1253.00,51.339
1254.00,51.352
1255.00,51.342
1256.00,51.318
1257.00,51.318
1258.00,51.344
1259.00,51.354
1260.00,51.365
1261.00,51.352
1262.00,51.359
1263.00,51.375
1264.00,51.351
1265.00,51.387
1266.00,51.411
1267.00,51.402
1268.00,51.404
1269.00,51.393
1270.00,51.413
1271.00,51.406
1272.00,51.401
1273.00,51.438
1274.00,51.428
1275.00,51.409
1276.00,51.422
1277.00,51.433
1278.00,51.444
1279.00,51.444
1280.00,51.449
1281.00,51.487
1282.00,51.494
1283.00,51.473
1284.00,51.505
1285.00,51.492
1286.00,51.482
1287.00,51.499
1288.00,51.492
1289.00,51.486
1290.00,51.514
1291.00,51.515
1292.00,51.503
1293.00,51.513
1294.00,51.504
1295.00,51.532
1296.00,51.535
1297.00,51.531
1298.00,51.571
1299.00,51.556
1300.00,51.551
1301.00,51.560
1302.00,51.563
1303.00,51.576
1304.00,51.565
1305.00,51.572
1306.00,51.584
1307.00,51.580
1308.00,51.576
1309.00,51.594
1310.00,51.587
1311.00,51.586
1312.00,51.592
1313.00,51.588
1314.00,51.609
1315.00,51.621
1316.00,51.604
1317.00,51.624
1318.00,51.620
1319.00,51.629
1320.00,51.655
1321.00,51.811
1322.00,51.802
1323.00,51.815
1324.00,51.800
1325.00,51.788
1326.00,51.801
1327.00,51.795
1328.00,51.800
1329.00,51.779
1330.00,51.775
1331.00,51.792
1332.00,51.783
1333.00,51.789
1334.00,51.824
1335.00,51.842
1336.00,51.868
1337.00,51.906
1338.00,51.956
1339.00,52.026
1340.00,52.072
1341.00,52.123
1342.00,52.196
1343.00,52.228
1344.00,52.265
1345.00,52.338
1346.00,52.361
1347.00,52.402
1348.00,52.406
1349.00,52.432
1350.00,52.456
1351.00,52.480
1352.00,52.458
1353.00,52.491
1354.00,52.493
1355.00,52.455
1356.00,52.523
1357.00,52.491
1358.00,52.497
1359.00,52.492
1360.00,52.572
1361.00,52.917
1362.00,52.431
1363.00,52.566
1364.00,52.593
1365.00,52.522
1366.00,52.609
1367.00,52.562
1368.00,52.459
1369.00,52.559
1370.00,52.527
1371.00,52.464
1372.00,52.486
1373.00,52.507
1374.00,52.462
1375.00,52.486
1376.00,52.482
1377.00,52.439
1378.00,52.469
1379.00,52.513
1380.00,52.518
1381.00,52.581
1382.00,52.514
1383.00,52.510
1384.00,52.440
1385.00,52.416
1386.00,52.505
1387.00,52.475
1388.00,52.447
1389.00,52.382
1390.00,52.464
1391.00,52.475
1392.00,52.445
1393.00,52.512
1394.00,52.513
1395.00,52.430
1396.00,52.397
1397.00,52.437
1398.00,52.539
1399.00,52.499
1400.00,52.433
1401.00,52.452
1402.00,52.535
1403.00,52.533
1404.00,52.485
1405.00,52.513
1406.00,52.515
1407.00,52.484
1408.00,52.541
1409.00,52.505
1410.00,52.530
1411.00,52.527
1412.00,52.581
1413.00,52.538
1414.00,52.547
1415.00,52.573
1416.00,52.591
1417.00,52.611
1418.00,52.582
1419.00,52.602
1420.00,52.613
1421.00,52.637
1422.00,52.639
1423.00,52.659
1424.00,52.656
1425.00,52.660
1426.00,52.666
1427.00,52.701
1428.00,52.699
1429.00,52.687
1430.00,52.721
1431.00,52.732
1432.00,52.745
1433.00,52.771
1434.00,52.740
1435.00,52.788
1436.00,52.808
1437.00,52.780
1438.00,52.821
1439.00,52.855
1440.00,52.838
1441.00,52.884
1442.00,52.898
1443.00,52.899
1444.00,52.966
1445.00,52.912
1446.00,52.925
1447.00,52.961
1448.00,52.977
1449.00,52.996
1450.00,52.995
1451.00,52.991
1452.00,53.023
1453.00,53.028
1454.00,53.041
1455.00,53.073
1456.00,53.080
1457.00,53.086
1458.00,53.096
1459.00,53.102
1460.00,53.130
1461.00,53.120
1462.00,53.143
1463.00,53.178
1464.00,53.167
1465.00,53.182
1466.00,53.195
1467.00,53.218
1468.00,53.253
1469.00,53.236
1470.00,53.241
1471.00,53.281
1472.00,53.279
1473.00,53.279
1474.00,53.335
1475.00,53.334
1476.00,53.321
1477.00,53.334
1478.00,53.349
1479.00,53.364
1480.00,53.360
1481.00,53.366
1482.00,53.415
1483.00,53.412
1484.00,53.406
1485.00,53.428
1486.00,53.428
1487.00,53.453
1488.00,53.474
1489.00,53.449
1490.00,53.486
1491.00,53.488
1492.00,53.505
1493.00,53.500
1494.00,53.532
1495.00,53.517
1496.00,53.542
1497.00,53.546
1498.00,53.545
1499.00,53.574
1500.00,53.584
1501.00, 
1502.00, 
1503.00, 
1504.00, 
1505.00, 
1506.00, 
1507.00, 
1508.00, 
1509.00, 
1510.00, 
1511.00, 
1512.00, 
1513.00, 
1514.00, 
1515.00, 
1516.00, 
1517.00, 
1518.00, 
1519.00, 
1520.00, 
1521.00, 
1522.00, 
1523.00, 
1524.00, 
1525.00, 
1526.00, 
1527.00, 
1528.00, 
1529.00, 
1530.00, 
1531.00, 
1532.00, 
1533.00, 
1534.00, 
1535.00, 
1536.00, 
1537.00, 
1538.00, 
1539.00, 
1540.00, 
1541.00, 
1542.00, 
1543.00, 
1544.00, 
1545.00, 
1546.00, 
1547.00, 
1548.00, 
1549.00, 
1550.00, 
1551.00, 
1552.00, 
1553.00, 
1554.00, 
1555.00, 
1556.00, 
1557.00, 
1558.00, 
1559.00, 
1560.00, 
1561.00, 
1562.00, 
1563.00, 
1564.00, 
1565.00, 
1566.00, 
1567.00, 
1568.00, 
1569.00, 
1570.00, 
1571.00, 
1572.00, 
1573.00, 
1574.00, 
1575.00, 
1576.00, 
1577.00, 
1578.00, 
1579.00, 
1580.00, 
1581.00, 
1582.00, 
1583.00, 
1584.00, 
1585.00, 
1586.00, 
1587.00, 
1588.00, 
1589.00, 
1590.00, 
1591.00, 
1592.00, 
1593.00, 
1594.00, 
1595.00, 
1596.00, 
1597.00, 
1598.00, 
1599.00, 
1600.00, 
1601.00, 
1602.00, 
1603.00, 
1604.00, 
1605.00, 
1606.00, 
1607.00, 
1608.00, 
1609.00, 
1610.00, 
1611.00, 
1612.00, 
1613.00, 
1614.00, 
1615.00, 
1616.00, 
1617.00, 
1618.00, 
1619.00, 
1620.00, 
1621.00, 
1622.00, 
1623.00, 
1624.00, 
1625.00, 
1626.00, 
1627.00, 
1628.00, 
1629.00, 
1630.00, 
1631.00, 
1632.00, 
1633.00, 
1634.00, 
1635.00, 
1636.00, 
1637.00, 
1638.00, 
1639.00, 
1640.00, 
1641.00, 
1642.00, 
1643.00, 
1644.00, 
1645.00, 
1646.00, 
1647.00, 
1648.00, 
1649.00, 
1650.00, 
1651.00, 
1652.00, 
1653.00, 
1654.00, 
1655.00, 
1656.00, 
1657.00, 
1658.00, 
1659.00, 
1660.00, 
1661.00, 
1662.00, 
1663.00, 
1664.00, 
1665.00, 
1666.00, 
1667.00, 
1668.00, 
1669.00, 
1670.00, 
1671.00, 
1672.00, 
1673.00, 
1674.00, 
1675.00, 
1676.00, 
1677.00, 
1678.00, 
1679.00, 
1680.00, 
1681.00, 
1682.00, 
1683.00, 
1684.00, 
1685.00, 
1686.00, 
1687.00, 
1688.00, 
1689.00, 
1690.00, 
1691.00, 
1692.00, 
1693.00, 
1694.00, 
1695.00, 
1696.00, 
1697.00, 
1698.00, 
1699.00, 
1700.00, 
1701.00, 
1702.00, 
1703.00, 
1704.00, 
1705.00, 
1706.00, 
1707.00, 
1708.00, 
1709.00, 
1710.00, 
1711.00, 
1712.00, 
1713.00, 
1714.00, 
1715.00, 
1716.00, 
1717.00, 
1718.00, 
1719.00, 
1720.00, 
1721.00, 
1722.00, 
1723.00, 
1724.00, 
1725.00, 
1726.00, 
1727.00, 
1728.00, 
1729.00, 
1730.00, 
1731.00, 
1732.00, 
1733.00, 
1734.00, 
1735.00, 
1736.00, 
1737.00, 
1738.00, 
1739.00, 
1740.00, 
1741.00, 
1742.00, 
1743.00, 
1744.00, 
1745.00, 
1746.00, 
1747.00, 
1748.00, 
1749.00, 
1750.00, 
1751.00, 
1752.00, 
1753.00, 
1754.00, 
1755.00, 
1756.00, 
1757.00, 
1758.00, 
1759.00, 
1760.00, 
1761.00, 
1762.00, 
1763.00, 
1764.00, 
1765.00, 
1766.00, 
1767.00, 
1768.00, 
1769.00, 
1770.00, 
1771.00, 
1772.00, 
1773.00, 
1774.00, 
1775.00, 
1776.00, 
1777.00, 
1778.00, 
1779.00, 
1780.00, 
1781.00, 
1782.00, 
1783.00, 
1784.00, 
1785.00, 
1786.00, 
1787.00, 
1788.00, 
1789.00, 
1790.00, 
1791.00, 
1792.00, 
1793.00, 
1794.00, 
1795.00, 
1796.00, 
1797.00, 
1798.00, 
1799.00, 
1800.00, 
1801.00, 
1802.00, 
1803.00, 
1804.00, 
1805.00, 
1806.00, 
1807.00, 
1808.00, 
1809.00, 
1810.00, 
1811.00, 
1812.00, 
1813.00, 
1814.00, 
1815.00, 
1816.00, 
1817.00, 
1818.00, 
1819.00, 
1820.00, 
1821.00, 
1822.00, 
1823.00, 
1824.00, 
1825.00, 
1826.00, 
1827.00, 
1828.00, 
1829.00, 
1830.00, 
1831.00, 
1832.00, 
1833.00, 
1834.00, 
1835.00, 
1836.00, 
1837.00, 
1838.00, 
1839.00, 
1840.00, 
1841.00, 
1842.00, 
1843.00, 
1844.00, 
1845.00, 
1846.00, 
1847.00, 
1848.00, 
1849.00, 
1850.00, 
1851.00, 
1852.00, 
1853.00, 
1854.00, 
1855.00, 
1856.00, 
1857.00, 
1858.00, 
1859.00, 
1860.00, 
1861.00, 
1862.00, 
1863.00, 
1864.00, 
1865.00, 
1866.00, 
1867.00, 
1868.00, 
1869.00, 
1870.00, 
1871.00, 
1872.00, 
1873.00, 
1874.00, 
1875.00, 
1876.00, 
1877.00, 
1878.00, 
1879.00, 
1880.00, 
1881.00, 
1882.00, 
1883.00, 
1884.00, 
1885.00, 
1886.00, 
1887.00, 
1888.00, 
1889.00, 
1890.00, 
1891.00, 
1892.00, 
1893.00, 
1894.00, 
1895.00, 
1896.00, 
1897.00, 
1898.00, 
1899.00, 
1900.00, 
1901.00, 
1902.00, 
1903.00, 
1904.00, 
1905.00, 
1906.00, 
1907.00, 
1908.00, 
1909.00, 
1910.00, 
1911.00, 
1912.00, 
1913.00, 
1914.00, 
1915.00, 
1916.00, 
1917.00, 
1918.00, 
1919.00, 
1920.00, 
1921.00, 
1922.00, 
1923.00, 
1924.00, 
1925.00, 
1926.00, 
1927.00, 
1928.00, 
1929.00, 
1930.00, 
1931.00, 
1932.00, 
1933.00, 
1934.00, 
1935.00, 
1936.00, 
1937.00, 
1938.00, 
1939.00, 
1940.00, 
1941.00, 
1942.00, 
1943.00, 
1944.00, 
1945.00, 
1946.00, 
1947.00, 
1948.00, 
1949.00, 
1950.00, 
1951.00, 
1952.00, 
1953.00, 
1954.00, 
1955.00, 
1956.00, 
1957.00, 
1958.00, 
1959.00, 
1960.00, 
1961.00, 
1962.00, 
1963.00, 
1964.00, 
1965.00, 
1966.00, 
1967.00, 
1968.00, 
1969.00, 
1970.00, 
1971.00, 
1972.00, 
1973.00, 
1974.00, 
1975.00, 
1976.00, 
1977.00, 
1978.00, 
1979.00, 
1980.00, 
1981.00, 
1982.00, 
1983.00, 
1984.00, 
1985.00, 
1986.00, 
1987.00, 
1988.00, 
1989.00, 
1990.00, 
1991.00, 
1992.00, 
1993.00, 
1994.00, 
1995.00, 
1996.00, 
1997.00, 
1998.00, 
1999.00, 
2000.00, 
2001.00, 
2002.00, 
2003.00, 
2004.00, 
2005.00, 
2006.00, 
2007.00, 
2008.00, 
2009.00, 
2010.00, 
2011.00, 
2012.00, 
2013.00, 
2014.00, 
2015.00, 
2016.00, 
2017.00, 
2018.00, 
2019.00, 
2020.00, 
2021.00, 
2022.00, 
2023.00, 
2024.00, 
2025.00, 
2026.00, 
2027.00, 
2028.00, 
2029.00, 
2030.00, 
2031.00, 
2032.00, 
2033.00, 
2034.00, 
2035.00, 
2036.00, 
2037.00, 
2038.00, 
2039.00, 
2040.00, 
2041.00, 
2042.00, 
2043.00, 
2044.00, 
2045.00, 
2046.00, 
2047.00, 
2048.00, 
2049.00, 
2050.00, 
2051.00, 
2052.00, 
2053.00, 
2054.00, 
2055.00, 
2056.00, 
2057.00, 
2058.00, 
2059.00, 
2060.00, 
2061.00, 
2062.00, 
2063.00, 
2064.00, 
2065.00, 
2066.00, 
2067.00, 
2068.00, 
2069.00, 
2070.00, 
2071.00, 
2072.00, 
2073.00, 
2074.00, 
2075.00, 
2076.00, 
2077.00, 
2078.00, 
2079.00, 
2080.00, 
2081.00, 
2082.00, 
2083.00, 
2084.00, 
2085.00, 
2086.00, 
2087.00, 
2088.00, 
2089.00, 
2090.00, 
2091.00, 
2092.00, 
2093.00, 
2094.00, 
2095.00, 
2096.00, 
2097.00, 
2098.00, 
2099.00, 
2100.00, 
2101.00, 
2102.00, 
2103.00, 
2104.00, 
2105.00, 
2106.00, 
2107.00, 
2108.00, 
2109.00, 
2110.00, 
2111.00, 
2112.00, 
2113.00, 
2114.00, 
2115.00, 
2116.00, 
2117.00, 
2118.00, 
2119.00, 
2120.00, 
2121.00, 
2122.00, 
2123.00, 
2124.00, 
2125.00, 
2126.00, 
2127.00, 
2128.00, 
2129.00, 
2130.00, 
2131.00, 
2132.00, 
2133.00, 
2134.00, 
2135.00, 
2136.00, 
2137.00, 
2138.00, 
2139.00, 
2140.00, 
2141.00, 
2142.00, 
2143.00, 
2144.00, 
2145.00, 
2146.00, 
2147.00, 
2148.00, 
2149.00, 
2150.00, 
2151.00, 
2152.00, 
2153.00, 
2154.00, 
2155.00, 
2156.00, 
2157.00, 
2158.00, 
2159.00, 
2160.00, 
2161.00, 
2162.00, 
2163.00, 
2164.00, 
2165.00, 
2166.00, 
2167.00, 
2168.00, 
2169.00, 
2170.00, 
2171.00, 
2172.00, 
2173.00, 
2174.00, 
2175.00, 
2176.00, 
2177.00, 
2178.00, 
2179.00, 
2180.00, 
2181.00, 
2182.00, 
2183.00, 
2184.00, 
2185.00, 
2186.00, 
2187.00, 
2188.00, 
2189.00, 
2190.00, 
2191.00, 
2192.00, 
2193.00, 
2194.00, 
2195.00, 
2196.00, 
2197.00, 
2198.00, 
2199.00, 
2200.00, 
2201.00, 
2202.00, 
2203.00, 
2204.00, 
2205.00, 
2206.00, 
2207.00, 
2208.00, 
2209.00, 
2210.00, 
2211.00, 
2212.00, 
2213.00, 
2214.00, 
2215.00, 
2216.00, 
2217.00, 
2218.00, 
2219.00, 
2220.00, 
2221.00, 
2222.00, 
2223.00, 
2224.00, 
2225.00, 
2226.00, 
2227.00, 
2228.00, 
2229.00, 
2230.00, 
2231.00, 
2232.00, 
2233.00, 
2234.00, 
2235.00, 
2236.00, 
2237.00, 
2238.00, 
2239.00, 
2240.00, 
2241.00, 
2242.00, 
2243.00, 
2244.00, 
2245.00, 
2246.00, 
2247.00, 
2248.00, 
2249.00, 
2250.00, 
2251.00, 
2252.00, 
2253.00, 
2254.00, 
2255.00, 
2256.00, 
2257.00, 
2258.00, 
2259.00, 
2260.00, 
2261.00, 
2262.00, 
2263.00, 
2264.00, 
2265.00, 
2266.00, 
2267.00, 
2268.00, 
2269.00, 
2270.00, 
2271.00, 
2272.00, 
2273.00, 
2274.00, 
2275.00, 
2276.00, 
2277.00, 
2278.00, 
2279.00, 
2280.00, 
2281.00, 
2282.00, 
2283.00, 
2284.00, 
2285.00, 
2286.00, 
2287.00, 
2288.00, 
2289.00, 
2290.00, 
2291.00, 
2292.00, 
2293.00, 
2294.00, 
2295.00, 
2296.00, 
2297.00, 
2298.00, 
2299.00, 
2300.00, 
2301.00, 
2302.00, 
2303.00, 
2304.00, 
2305.00, 
2306.00, 
2307.00, 
2308.00, 
2309.00, 
2310.00, 
2311.00, 
2312.00, 
2313.00, 
2314.00, 
2315.00, 
2316.00, 
2317.00, 
2318.00, 
2319.00, 
2320.00, 
2321.00, 
2322.00, 
2323.00, 
2324.00, 
2325.00, 
2326.00, 
2327.00, 
2328.00, 
2329.00, 
2330.00, 
2331.00, 
2332.00, 
2333.00, 
2334.00, 
2335.00, 
2336.00, 
2337.00, 
2338.00, 
2339.00, 
2340.00, 
2341.00, 
2342.00, 
2343.00, 
2344.00, 
2345.00, 
2346.00, 
2347.00, 
2348.00, 
2349.00, 
2350.00, 
2351.00, 
2352.00, 
2353.00, 
2354.00, 
2355.00, 
2356.00, 
2357.00, 
2358.00, 
2359.00, 
2360.00, 
2361.00, 
2362.00, 
2363.00, 
2364.00, 
2365.00, 
2366.00, 
2367.00, 
2368.00, 
2369.00, 
2370.00, 
2371.00, 
2372.00, 
2373.00, 
2374.00, 
2375.00, 
2376.00, 
2377.00, 
2378.00, 
2379.00, 
2380.00, 
2381.00, 
2382.00, 
2383.00, 
2384.00, 
2385.00, 
2386.00, 
2387.00, 
2388.00, 
2389.00, 
2390.00, 
2391.00, 
2392.00, 
2393.00, 
2394.00, 
2395.00, 
2396.00, 
2397.00, 
2398.00, 
2399.00, 
2400.00, 
2401.00, 
2402.00, 
2403.00, 
2404.00, 
2405.00, 
2406.00, 
2407.00, 
2408.00, 
2409.00, 
2410.00, 
2411.00, 
2412.00, 
2413.00, 
2414.00, 
2415.00, 
2416.00, 
2417.00, 
2418.00, 
2419.00, 
2420.00, 
2421.00, 
2422.00, 
2423.00, 
2424.00, 
2425.00, 
2426.00, 
2427.00, 
2428.00, 
2429.00, 
2430.00, 
2431.00, 
2432.00, 
2433.00, 
2434.00, 
2435.00, 
2436.00, 
2437.00, 
2438.00, 
2439.00, 
2440.00, 
2441.00, 
2442.00, 
2443.00, 
2444.00, 
2445.00, 
2446.00, 
2447.00, 
2448.00, 
2449.00, 
2450.00, 
2451.00, 
2452.00, 
2453.00, 
2454.00, 
2455.00, 
2456.00, 
2457.00, 
2458.00, 
2459.00, 
2460.00, 
2461.00, 
2462.00, 
2463.00, 
2464.00, 
2465.00, 
2466.00, 
2467.00, 
2468.00, 
2469.00, 
2470.00, 
2471.00, 
2472.00, 
2473.00, 
2474.00, 
2475.00, 
2476.00, 
2477.00, 
2478.00, 
2479.00, 
2480.00, 
2481.00, 
2482.00, 
2483.00, 
2484.00, 
2485.00, 
2486.00, 
2487.00, 
2488.00, 
2489.00, 
2490.00, 
2491.00, 
2492.00, 
2493.00, 
2494.00, 
2495.00, 
2496.00, 
2497.00, 
2498.00, 
2499.00, 
2500.00, 
2501.00, 
2502.00, 
2503.00, 
2504.00, 
2505.00, 
2506.00, 
2507.00, 
2508.00, 
2509.00, 
2510.00, 
2511.00, 
2512.00, 
2513.00, 
2514.00, 
2515.00, 
2516.00, 
2517.00, 
2518.00, 
2519.00, 
2520.00, 
2521.00, 
2522.00, 
2523.00, 
2524.00, 
2525.00, 
2526.00, 
2527.00, 
2528.00, 
2529.00, 
2530.00, 
2531.00, 
2532.00, 
2533.00, 
2534.00, 
2535.00, 
2536.00, 
2537.00, 
2538.00, 
2539.00, 
2540.00, 
2541.00, 
2542.00, 
2543.00, 
2544.00, 
2545.00, 
2546.00, 
2547.00, 
2548.00, 
2549.00, 
2550.00, 
2551.00, 
2552.00, 
2553.00, 
2554.00, 
2555.00, 
2556.00, 
2557.00, 
2558.00, 
2559.00, 
2560.00, 
2561.00, 
2562.00, 
2563.00, 
2564.00, 
2565.00, 
2566.00, 
2567.00, 
2568.00, 
2569.00, 
2570.00, 
2571.00, 
2572.00, 
2573.00, 
2574.00, 
2575.00, 
2576.00, 
2577.00, 
2578.00, 
2579.00, 
2580.00, 
2581.00, 
2582.00, 
2583.00, 
2584.00, 
2585.00, 
2586.00, 
2587.00, 
2588.00, 
2589.00, 
2590.00, 
2591.00, 
2592.00, 
2593.00, 
2594.00, 
2595.00, 
2596.00, 
2597.00, 
2598.00, 
2599.00, 
2600.00, 
