"1cP1 - RawData"
"Wavelength nm.","T%"
200.00,-0.000
201.00,0.004
202.00,0.000
203.00,0.000
204.00,-0.001
205.00,0.003
206.00,0.002
207.00,-0.002
208.00,-0.000
209.00,0.003
210.00,0.004
211.00,0.001
212.00,0.000
213.00,-0.001
214.00,-0.000
215.00,-0.000
216.00,0.002
217.00,-0.006
218.00,0.004
219.00,0.001
220.00,0.001
221.00,0.002
222.00,-0.001
223.00,0.001
224.00,0.000
225.00,-0.000
226.00,-0.001
227.00,0.001
228.00,0.000
229.00,-0.002
230.00,-0.000
231.00,-0.001
232.00,0.002
233.00,0.001
234.00,0.001
235.00,-0.001
236.00,-0.002
237.00,0.002
238.00,0.000
239.00,-0.001
240.00,0.001
241.00,0.000
242.00,-0.001
243.00,-0.000
244.00,-0.001
245.00,0.001
246.00,0.001
247.00,-0.000
248.00,-0.002
249.00,0.000
250.00,0.002
251.00,0.000
252.00,0.001
253.00,0.001
254.00,0.001
255.00,0.001
256.00,0.001
257.00,-0.000
258.00,0.000
259.00,0.002
260.00,0.001
261.00,0.001
262.00,-0.000
263.00,-0.002
264.00,0.000
265.00,-0.001
266.00,-0.002
267.00,0.001
268.00,0.002
269.00,-0.001
270.00,0.000
271.00,-0.001
272.00,0.001
273.00,0.000
274.00,-0.000
275.00,0.001
276.00,0.001
277.00,0.001
278.00,0.000
279.00,-0.001
280.00,0.002
281.00,0.002
282.00,-0.000
283.00,-0.002
284.00,-0.000
285.00,0.000
286.00,0.001
287.00,-0.001
288.00,0.000
289.00,-0.002
290.00,-0.000
291.00,0.000
292.00,-0.000
293.00,0.001
294.00,0.000
295.00,0.001
296.00,-0.001
297.00,-0.000
298.00,0.001
299.00,-0.001
300.00,0.001
301.00,0.001
302.00,0.001
303.00,0.002
304.00,0.002
305.00,0.001
306.00,0.001
307.00,0.003
308.00,0.007
309.00,0.010
310.00,0.019
311.00,0.029
312.00,0.043
313.00,0.068
314.00,0.101
315.00,0.150
316.00,0.212
317.00,0.304
318.00,0.413
319.00,0.565
320.00,0.744
321.00,0.964
322.00,1.230
323.00,1.541
324.00,1.921
325.00,2.306
326.00,2.739
327.00,3.270
328.00,3.846
329.00,4.407
330.00,5.018
331.00,5.711
332.00,6.413
333.00,7.169
334.00,7.899
335.00,8.719
336.00,9.490
337.00,10.308
338.00,11.149
339.00,11.903
340.00,12.683
341.00,13.465
342.00,14.169
343.00,14.899
344.00,15.577
345.00,16.311
346.00,16.926
347.00,17.550
348.00,18.132
349.00,18.693
350.00,19.188
351.00,19.734
352.00,20.085
353.00,20.557
354.00,20.984
355.00,21.397
356.00,21.730
357.00,21.981
358.00,22.325
359.00,22.679
360.00,22.959
361.00,23.163
362.00,23.472
363.00,23.624
364.00,23.772
365.00,23.956
366.00,24.050
367.00,24.204
368.00,24.297
369.00,24.321
370.00,24.429
371.00,24.439
372.00,24.422
373.00,24.436
374.00,24.462
375.00,24.403
376.00,24.348
377.00,24.283
378.00,24.149
379.00,24.039
380.00,24.081
381.00,24.080
382.00,24.052
383.00,24.113
384.00,24.186
385.00,24.286
386.00,24.278
387.00,24.470
388.00,24.542
389.00,24.570
390.00,24.663
391.00,24.707
392.00,24.818
393.00,24.794
394.00,24.861
395.00,24.933
396.00,24.821
397.00,24.893
398.00,24.863
399.00,24.938
400.00,24.967
401.00,24.956
402.00,24.977
403.00,24.962
404.00,24.931
405.00,24.920
406.00,24.934
407.00,24.882
408.00,24.906
409.00,24.805
410.00,24.767
411.00,24.745
412.00,24.680
413.00,24.738
414.00,24.699
415.00,24.693
416.00,24.757
417.00,24.657
418.00,24.708
419.00,24.796
420.00,24.843
421.00,24.892
422.00,24.876
423.00,24.935
424.00,24.911
425.00,24.980
426.00,24.943
427.00,25.041
428.00,25.078
429.00,25.132
430.00,25.174
431.00,25.209
432.00,25.247
433.00,25.292
434.00,25.345
435.00,25.402
436.00,25.456
437.00,25.496
438.00,25.569
439.00,25.631
440.00,25.661
441.00,25.744
442.00,25.798
443.00,25.940
444.00,26.028
445.00,26.060
446.00,26.183
447.00,26.279
448.00,26.370
449.00,26.444
450.00,26.574
451.00,26.635
452.00,26.749
453.00,26.886
454.00,26.937
455.00,27.058
456.00,27.186
457.00,27.296
458.00,27.375
459.00,27.496
460.00,27.653
461.00,27.740
462.00,27.865
463.00,27.971
464.00,28.121
465.00,28.188
466.00,28.330
467.00,28.465
468.00,28.543
469.00,28.611
470.00,28.723
471.00,28.833
472.00,28.922
473.00,29.002
474.00,29.142
475.00,29.240
476.00,29.348
477.00,29.461
478.00,29.561
479.00,29.728
480.00,29.833
481.00,29.947
482.00,30.077
483.00,30.239
484.00,30.400
485.00,30.515
486.00,30.657
487.00,30.837
488.00,30.964
489.00,31.111
490.00,31.248
491.00,31.362
492.00,31.568
493.00,31.673
494.00,31.726
495.00,31.848
496.00,31.972
497.00,32.093
498.00,32.255
499.00,32.383
500.00,32.526
501.00,32.597
502.00,32.714
503.00,32.861
504.00,32.858
505.00,33.027
506.00,33.162
507.00,33.217
508.00,33.330
509.00,33.490
510.00,33.647
511.00,33.678
512.00,33.768
513.00,33.942
514.00,34.042
515.00,34.228
516.00,34.255
517.00,34.373
518.00,34.501
519.00,34.569
520.00,34.621
521.00,34.659
522.00,34.722
523.00,34.796
524.00,35.008
525.00,35.084
526.00,35.173
527.00,35.186
528.00,35.284
529.00,35.460
530.00,35.606
531.00,35.686
532.00,35.747
533.00,35.910
534.00,35.927
535.00,36.081
536.00,36.090
537.00,36.105
538.00,36.195
539.00,36.333
540.00,36.409
541.00,36.460
542.00,36.536
543.00,36.597
544.00,36.666
545.00,36.743
546.00,36.777
547.00,36.961
548.00,37.006
549.00,37.060
550.00,37.155
551.00,37.289
552.00,37.292
553.00,37.314
554.00,37.411
555.00,37.418
556.00,37.505
557.00,37.535
558.00,37.637
559.00,37.686
560.00,37.767
561.00,37.862
562.00,37.915
563.00,37.933
564.00,37.996
565.00,38.009
566.00,38.007
567.00,38.033
568.00,38.095
569.00,38.140
570.00,38.186
571.00,38.229
572.00,38.281
573.00,38.255
574.00,38.281
575.00,38.295
576.00,38.279
577.00,38.382
578.00,38.457
579.00,38.504
580.00,38.579
581.00,38.720
582.00,38.799
583.00,38.780
584.00,38.877
585.00,38.911
586.00,39.046
587.00,39.087
588.00,39.065
589.00,39.053
590.00,39.157
591.00,39.218
592.00,39.138
593.00,39.164
594.00,39.302
595.00,39.390
596.00,39.444
597.00,39.513
598.00,39.533
599.00,39.541
600.00,39.526
601.00,39.562
602.00,39.593
603.00,39.674
604.00,39.730
605.00,39.828
606.00,39.739
607.00,39.801
608.00,39.983
609.00,40.020
610.00,39.834
611.00,39.973
612.00,40.059
613.00,40.021
614.00,40.098
615.00,40.162
616.00,40.286
617.00,40.255
618.00,40.217
619.00,40.304
620.00,40.389
621.00,40.338
622.00,40.466
623.00,40.604
624.00,40.474
625.00,40.495
626.00,40.672
627.00,40.759
628.00,40.876
629.00,40.810
630.00,40.844
631.00,40.880
632.00,40.969
633.00,40.977
634.00,41.110
635.00,41.233
636.00,41.275
637.00,41.332
638.00,41.358
639.00,41.370
640.00,41.360
641.00,41.503
642.00,41.532
643.00,41.548
644.00,41.672
645.00,41.700
646.00,41.880
647.00,41.919
648.00,41.953
649.00,41.957
650.00,41.972
651.00,42.202
652.00,42.254
653.00,42.194
654.00,42.245
655.00,42.415
656.00,42.655
657.00,42.497
658.00,42.540
659.00,42.669
660.00,42.766
661.00,42.764
662.00,42.861
663.00,42.901
664.00,43.118
665.00,43.299
666.00,43.223
667.00,43.161
668.00,43.231
669.00,43.584
670.00,43.721
671.00,43.641
672.00,43.750
673.00,43.632
674.00,43.655
675.00,43.814
676.00,44.127
677.00,44.163
678.00,43.953
679.00,44.145
680.00,44.307
681.00,44.268
682.00,44.280
683.00,44.399
684.00,44.655
685.00,44.573
686.00,44.454
687.00,44.622
688.00,44.673
689.00,44.669
690.00,44.966
691.00,45.261
692.00,45.012
693.00,45.070
694.00,45.185
695.00,45.263
696.00,45.262
697.00,45.268
698.00,45.392
699.00,45.697
700.00,45.725
701.00,45.668
702.00,45.732
703.00,45.862
704.00,45.897
705.00,45.842
706.00,45.924
707.00,46.023
708.00,45.862
709.00,46.182
710.00,46.623
711.00,46.050
712.00,46.159
713.00,46.344
714.00,46.359
715.00,46.487
716.00,46.337
717.00,46.528
718.00,46.515
719.00,46.678
720.00,46.825
721.00,51.307
722.00,51.294
723.00,51.251
724.00,51.295
725.00,51.200
726.00,51.180
727.00,51.293
728.00,51.210
729.00,51.286
730.00,51.218
731.00,51.292
732.00,51.305
733.00,51.396
734.00,51.366
735.00,51.347
736.00,51.408
737.00,51.398
738.00,51.441
739.00,51.453
740.00,51.441
741.00,51.477
742.00,51.501
743.00,51.452
744.00,51.408
745.00,51.468
746.00,51.470
747.00,51.483
748.00,51.451
749.00,51.459
750.00,51.515
751.00,51.385
752.00,51.437
753.00,51.393
754.00,51.431
755.00,51.391
756.00,51.407
757.00,51.410
758.00,51.441
759.00,51.361
760.00,51.410
761.00,51.353
762.00,51.435
763.00,51.364
764.00,51.391
765.00,51.395
766.00,51.464
767.00,51.531
768.00,51.362
769.00,51.398
770.00,51.408
771.00,51.354
772.00,51.374
773.00,51.540
774.00,51.380
775.00,51.470
776.00,51.454
777.00,51.468
778.00,51.420
779.00,51.408
780.00,51.362
781.00,51.315
782.00,51.379
783.00,51.355
784.00,51.365
785.00,51.318
786.00,51.392
787.00,51.284
788.00,51.364
789.00,51.361
790.00,51.177
791.00,51.287
792.00,51.329
793.00,51.200
794.00,51.170
795.00,51.145
796.00,51.130
797.00,51.175
798.00,51.136
799.00,51.069
800.00,51.112
801.00,51.158
802.00,51.068
803.00,51.067
804.00,51.019
805.00,51.061
806.00,51.043
807.00,50.991
808.00,50.981
809.00,51.002
810.00,50.954
811.00,50.924
812.00,50.890
813.00,50.875
814.00,50.849
815.00,50.736
816.00,50.823
817.00,50.814
818.00,50.709
819.00,50.765
820.00,50.735
821.00,50.730
822.00,50.661
823.00,50.639
824.00,50.708
825.00,50.549
826.00,50.635
827.00,50.666
828.00,50.703
829.00,50.522
830.00,50.604
831.00,52.899
832.00,52.862
833.00,52.812
834.00,52.828
835.00,52.803
836.00,52.794
837.00,52.761
838.00,52.770
839.00,52.819
840.00,52.692
841.00,52.703
842.00,52.636
843.00,52.622
844.00,52.606
845.00,52.575
846.00,52.560
847.00,52.524
848.00,52.544
849.00,52.433
850.00,52.373
851.00,52.474
852.00,52.395
853.00,52.321
854.00,52.321
855.00,52.252
856.00,52.250
857.00,52.237
858.00,52.207
859.00,52.186
860.00,52.184
861.00,52.174
862.00,52.134
863.00,52.172
864.00,52.105
865.00,52.123
866.00,52.283
867.00,52.108
868.00,52.087
869.00,52.062
870.00,52.048
871.00,52.030
872.00,52.014
873.00,51.958
874.00,51.957
875.00,51.937
876.00,51.923
877.00,51.924
878.00,51.907
879.00,51.906
880.00,51.825
881.00,51.950
882.00,51.862
883.00,51.835
884.00,51.810
885.00,51.795
886.00,51.759
887.00,51.789
888.00,51.732
889.00,51.705
890.00,51.702
891.00,51.666
892.00,51.623
893.00,51.623
894.00,51.610
895.00,51.561
896.00,51.548
897.00,51.534
898.00,51.506
899.00,51.514
900.00,51.484
901.00,51.529
902.00,51.513
903.00,51.471
904.00,51.441
905.00,51.425
906.00,51.432
907.00,51.384
908.00,51.308
909.00,51.314
910.00,51.417
911.00,51.281
912.00,51.319
913.00,51.248
914.00,51.254
915.00,51.226
916.00,51.204
917.00,51.177
918.00,51.185
919.00,51.109
920.00,51.029
921.00,51.213
922.00,51.116
923.00,51.070
924.00,51.036
925.00,51.033
926.00,51.017
927.00,50.995
928.00,50.963
929.00,50.969
930.00,50.930
931.00,50.919
932.00,50.882
933.00,50.890
934.00,50.851
935.00,50.850
936.00,50.821
937.00,50.796
938.00,50.795
939.00,50.768
940.00,50.730
941.00,50.733
942.00,50.698
943.00,50.716
944.00,50.657
945.00,50.666
946.00,50.648
947.00,50.619
948.00,50.599
949.00,50.590
950.00,50.549
951.00,50.525
952.00,50.503
953.00,50.478
954.00,50.459
955.00,50.416
956.00,50.393
957.00,50.371
958.00,50.390
959.00,50.343
960.00,50.339
961.00,50.312
962.00,50.324
963.00,50.268
964.00,50.260
965.00,50.284
966.00,50.254
967.00,50.231
968.00,50.222
969.00,50.249
970.00,50.206
971.00,50.222
972.00,50.175
973.00,50.239
974.00,50.228
975.00,50.168
976.00,50.226
977.00,50.204
978.00,50.234
979.00,50.193
980.00,50.211
981.00,50.199
982.00,50.198
983.00,50.188
984.00,50.173
985.00,50.187
986.00,50.149
987.00,50.191
988.00,50.147
989.00,50.129
990.00,50.133
991.00,50.106
992.00,50.123
993.00,50.087
994.00,50.073
995.00,50.053
996.00,50.038
997.00,50.054
998.00,50.029
999.00,50.047
1000.00,49.992
1001.00,49.988
1002.00,49.970
1003.00,49.962
1004.00,49.938
1005.00,49.904
1006.00,49.943
1007.00,49.908
1008.00,49.888
1009.00,49.886
1010.00,49.881
1011.00,49.872
1012.00,49.861
1013.00,49.853
1014.00,49.811
1015.00,49.832
1016.00,49.773
1017.00,49.776
1018.00,49.776
1019.00,49.724
1020.00,49.745
1021.00,49.716
1022.00,49.696
1023.00,49.665
1024.00,49.660
1025.00,49.658
1026.00,49.643
1027.00,49.607
1028.00,49.635
1029.00,49.601
1030.00,49.572
1031.00,49.595
1032.00,49.549
1033.00,49.542
1034.00,49.525
1035.00,49.468
1036.00,49.448
1037.00,49.445
1038.00,49.421
1039.00,49.398
1040.00,49.405
1041.00,49.369
1042.00,49.389
1043.00,49.360
1044.00,49.381
1045.00,49.364
1046.00,49.346
1047.00,49.361
1048.00,49.380
1049.00,49.372
1050.00,49.384
1051.00,49.423
1052.00,49.414
1053.00,49.439
1054.00,49.425
1055.00,49.441
1056.00,49.457
1057.00,49.457
1058.00,49.460
1059.00,49.440
1060.00,49.436
1061.00,49.419
1062.00,49.413
1063.00,49.403
1064.00,49.418
1065.00,49.399
1066.00,49.387
1067.00,49.407
1068.00,49.425
1069.00,49.382
1070.00,49.367
1071.00,49.344
1072.00,49.367
1073.00,49.335
1074.00,49.330
1075.00,49.322
1076.00,49.318
1077.00,49.295
1078.00,49.292
1079.00,49.290
1080.00,49.281
1081.00,49.281
1082.00,49.262
1083.00,49.249
1084.00,49.244
1085.00,49.226
1086.00,49.237
1087.00,49.233
1088.00,49.220
1089.00,49.211
1090.00,49.199
1091.00,49.202
1092.00,49.194
1093.00,49.176
1094.00,49.157
1095.00,49.161
1096.00,49.145
1097.00,49.155
1098.00,49.135
1099.00,49.114
1100.00,49.116
1101.00,49.104
1102.00,49.099
1103.00,49.107
1104.00,49.081
1105.00,49.083
1106.00,49.074
1107.00,49.061
1108.00,49.049
1109.00,49.051
1110.00,49.028
1111.00,49.025
1112.00,49.011
1113.00,49.003
1114.00,49.006
1115.00,49.004
1116.00,49.002
1117.00,48.989
1118.00,48.968
1119.00,48.988
1120.00,48.973
1121.00,48.954
1122.00,48.959
1123.00,48.952
1124.00,48.923
1125.00,48.938
1126.00,48.936
1127.00,48.928
1128.00,48.913
1129.00,48.892
1130.00,48.905
1131.00,48.900
1132.00,48.883
1133.00,48.899
1134.00,48.877
1135.00,48.864
1136.00,48.880
1137.00,48.865
1138.00,48.856
1139.00,48.878
1140.00,48.865
1141.00,48.872
1142.00,48.837
1143.00,48.847
1144.00,48.841
1145.00,48.834
1146.00,48.835
1147.00,48.837
1148.00,48.824
1149.00,48.853
1150.00,48.856
1151.00,48.828
1152.00,48.825
1153.00,48.819
1154.00,48.794
1155.00,48.799
1156.00,48.790
1157.00,48.791
1158.00,48.809
1159.00,48.803
1160.00,48.795
1161.00,48.825
1162.00,48.804
1163.00,48.819
1164.00,48.816
1165.00,48.801
1166.00,48.817
1167.00,48.796
1168.00,48.806
1169.00,48.796
1170.00,48.791
1171.00,48.764
1172.00,48.771
1173.00,48.765
1174.00,48.786
1175.00,48.786
1176.00,48.782
1177.00,48.798
1178.00,48.789
1179.00,48.776
1180.00,48.783
1181.00,48.777
1182.00,48.772
1183.00,48.772
1184.00,48.754
1185.00,48.784
1186.00,48.760
1187.00,48.777
1188.00,48.766
1189.00,48.761
1190.00,48.776
1191.00,48.772
1192.00,48.780
1193.00,48.757
1194.00,48.778
1195.00,48.752
1196.00,48.790
1197.00,48.778
1198.00,48.768
1199.00,48.773
1200.00,48.770
1201.00,48.786
1202.00,48.767
1203.00,48.749
1204.00,48.747
1205.00,48.776
1206.00,48.753
1207.00,48.759
1208.00,48.757
1209.00,48.767
1210.00,48.790
1211.00,48.776
1212.00,48.775
1213.00,48.746
1214.00,48.777
1215.00,48.757
1216.00,48.766
1217.00,48.750
1218.00,48.754
1219.00,48.776
1220.00,48.748
1221.00,48.783
1222.00,48.764
1223.00,48.789
1224.00,48.790
1225.00,48.767
1226.00,48.793
1227.00,48.768
1228.00,48.778
1229.00,48.788
1230.00,48.812
1231.00,48.787
1232.00,48.831
1233.00,48.830
1234.00,48.826
1235.00,48.827
1236.00,48.833
1237.00,48.836
1238.00,48.841
1239.00,48.835
1240.00,48.834
1241.00,48.835
1242.00,48.840
1243.00,48.871
1244.00,48.839
1245.00,48.870
1246.00,48.891
1247.00,48.866
1248.00,48.869
1249.00,48.892
1250.00,48.891
1251.00,48.886
1252.00,48.897
1253.00,48.885
1254.00,48.913
1255.00,48.893
1256.00,48.875
1257.00,48.870
1258.00,48.911
1259.00,48.908
1260.00,48.936
1261.00,48.927
1262.00,48.932
1263.00,48.930
1264.00,48.928
1265.00,48.933
1266.00,48.929
1267.00,48.947
1268.00,48.951
1269.00,48.952
1270.00,48.971
1271.00,48.989
1272.00,48.986
1273.00,49.005
1274.00,48.998
1275.00,48.992
1276.00,49.002
1277.00,49.004
1278.00,49.017
1279.00,49.021
1280.00,49.004
1281.00,49.029
1282.00,49.038
1283.00,49.028
1284.00,49.027
1285.00,49.040
1286.00,49.074
1287.00,49.073
1288.00,49.076
1289.00,49.063
1290.00,49.097
1291.00,49.081
1292.00,49.080
1293.00,49.087
1294.00,49.089
1295.00,49.125
1296.00,49.118
1297.00,49.112
1298.00,49.147
1299.00,49.123
1300.00,49.127
1301.00,49.140
1302.00,49.146
1303.00,49.139
1304.00,49.139
1305.00,49.148
1306.00,49.172
1307.00,49.190
1308.00,49.176
1309.00,49.202
1310.00,49.203
1311.00,49.212
1312.00,49.213
1313.00,49.219
1314.00,49.246
1315.00,49.254
1316.00,49.244
1317.00,49.275
1318.00,49.270
1319.00,49.267
1320.00,49.289
1321.00,49.425
1322.00,49.434
1323.00,49.432
1324.00,49.412
1325.00,49.419
1326.00,49.438
1327.00,49.423
1328.00,49.418
1329.00,49.432
1330.00,49.440
1331.00,49.456
1332.00,49.455
1333.00,49.471
1334.00,49.502
1335.00,49.506
1336.00,49.518
1337.00,49.551
1338.00,49.613
1339.00,49.665
1340.00,49.730
1341.00,49.777
1342.00,49.860
1343.00,49.880
1344.00,49.936
1345.00,50.020
1346.00,50.018
1347.00,50.065
1348.00,50.114
1349.00,50.100
1350.00,50.123
1351.00,50.137
1352.00,50.145
1353.00,50.173
1354.00,50.175
1355.00,50.122
1356.00,50.182
1357.00,50.174
1358.00,50.222
1359.00,50.205
1360.00,50.208
1361.00,50.265
1362.00,50.191
1363.00,50.281
1364.00,50.278
1365.00,50.229
1366.00,50.275
1367.00,50.232
1368.00,50.211
1369.00,50.235
1370.00,50.224
1371.00,50.200
1372.00,50.208
1373.00,50.220
1374.00,50.216
1375.00,50.218
1376.00,50.199
1377.00,50.179
1378.00,50.249
1379.00,50.249
1380.00,50.228
1381.00,50.304
1382.00,50.251
1383.00,50.219
1384.00,50.178
1385.00,50.166
1386.00,50.224
1387.00,50.196
1388.00,50.169
1389.00,50.149
1390.00,50.196
1391.00,50.191
1392.00,50.185
1393.00,50.211
1394.00,50.214
1395.00,50.175
1396.00,50.151
1397.00,50.164
1398.00,50.227
1399.00,50.228
1400.00,50.174
1401.00,50.175
1402.00,50.260
1403.00,50.245
1404.00,50.227
1405.00,50.240
1406.00,50.276
1407.00,50.244
1408.00,50.273
1409.00,50.238
1410.00,50.273
1411.00,50.283
1412.00,50.308
1413.00,50.282
1414.00,50.302
1415.00,50.306
1416.00,50.310
1417.00,50.323
1418.00,50.338
1419.00,50.355
1420.00,50.374
1421.00,50.399
1422.00,50.407
1423.00,50.414
1424.00,50.435
1425.00,50.462
1426.00,50.450
1427.00,50.478
1428.00,50.481
1429.00,50.486
1430.00,50.517
1431.00,50.545
1432.00,50.562
1433.00,50.579
1434.00,50.554
1435.00,50.646
1436.00,50.641
1437.00,50.618
1438.00,50.654
1439.00,50.684
1440.00,50.675
1441.00,50.700
1442.00,50.707
1443.00,50.733
1444.00,50.794
1445.00,50.738
1446.00,50.780
1447.00,50.818
1448.00,50.847
1449.00,50.854
1450.00,50.864
1451.00,50.872
1452.00,50.903
1453.00,50.895
1454.00,50.924
1455.00,50.962
1456.00,50.966
1457.00,50.978
1458.00,51.002
1459.00,51.026
1460.00,51.038
1461.00,51.061
1462.00,51.094
1463.00,51.090
1464.00,51.086
1465.00,51.097
1466.00,51.117
1467.00,51.141
1468.00,51.183
1469.00,51.173
1470.00,51.196
1471.00,51.233
1472.00,51.239
1473.00,51.241
1474.00,51.276
1475.00,51.276
1476.00,51.291
1477.00,51.286
1478.00,51.297
1479.00,51.313
1480.00,51.328
1481.00,51.332
1482.00,51.359
1483.00,51.362
1484.00,51.391
1485.00,51.430
1486.00,51.442
1487.00,51.450
1488.00,51.462
1489.00,51.419
1490.00,51.469
1491.00,51.505
1492.00,51.522
1493.00,51.487
1494.00,51.535
1495.00,51.525
1496.00,51.554
1497.00,51.545
1498.00,51.568
1499.00,51.598
1500.00,51.605
1501.00, 
1502.00, 
1503.00, 
1504.00, 
1505.00, 
1506.00, 
1507.00, 
1508.00, 
1509.00, 
1510.00, 
1511.00, 
1512.00, 
1513.00, 
1514.00, 
1515.00, 
1516.00, 
1517.00, 
1518.00, 
1519.00, 
1520.00, 
1521.00, 
1522.00, 
1523.00, 
1524.00, 
1525.00, 
1526.00, 
1527.00, 
1528.00, 
1529.00, 
1530.00, 
1531.00, 
1532.00, 
1533.00, 
1534.00, 
1535.00, 
1536.00, 
1537.00, 
1538.00, 
1539.00, 
1540.00, 
1541.00, 
1542.00, 
1543.00, 
1544.00, 
1545.00, 
1546.00, 
1547.00, 
1548.00, 
1549.00, 
1550.00, 
1551.00, 
1552.00, 
1553.00, 
1554.00, 
1555.00, 
1556.00, 
1557.00, 
1558.00, 
1559.00, 
1560.00, 
1561.00, 
1562.00, 
1563.00, 
1564.00, 
1565.00, 
1566.00, 
1567.00, 
1568.00, 
1569.00, 
1570.00, 
1571.00, 
1572.00, 
1573.00, 
1574.00, 
1575.00, 
1576.00, 
1577.00, 
1578.00, 
1579.00, 
1580.00, 
1581.00, 
1582.00, 
1583.00, 
1584.00, 
1585.00, 
1586.00, 
1587.00, 
1588.00, 
1589.00, 
1590.00, 
1591.00, 
1592.00, 
1593.00, 
1594.00, 
1595.00, 
1596.00, 
1597.00, 
1598.00, 
1599.00, 
1600.00, 
1601.00, 
1602.00, 
1603.00, 
1604.00, 
1605.00, 
1606.00, 
1607.00, 
1608.00, 
1609.00, 
1610.00, 
1611.00, 
1612.00, 
1613.00, 
1614.00, 
1615.00, 
1616.00, 
1617.00, 
1618.00, 
1619.00, 
1620.00, 
1621.00, 
1622.00, 
1623.00, 
1624.00, 
1625.00, 
1626.00, 
1627.00, 
1628.00, 
1629.00, 
1630.00, 
1631.00, 
1632.00, 
1633.00, 
1634.00, 
1635.00, 
1636.00, 
1637.00, 
1638.00, 
1639.00, 
1640.00, 
1641.00, 
1642.00, 
1643.00, 
1644.00, 
1645.00, 
1646.00, 
1647.00, 
1648.00, 
1649.00, 
1650.00, 
1651.00, 
1652.00, 
1653.00, 
1654.00, 
1655.00, 
1656.00, 
1657.00, 
1658.00, 
1659.00, 
1660.00, 
1661.00, 
1662.00, 
1663.00, 
1664.00, 
1665.00, 
1666.00, 
1667.00, 
1668.00, 
1669.00, 
1670.00, 
1671.00, 
1672.00, 
1673.00, 
1674.00, 
1675.00, 
1676.00, 
1677.00, 
1678.00, 
1679.00, 
1680.00, 
1681.00, 
1682.00, 
1683.00, 
1684.00, 
1685.00, 
1686.00, 
1687.00, 
1688.00, 
1689.00, 
1690.00, 
1691.00, 
1692.00, 
1693.00, 
1694.00, 
1695.00, 
1696.00, 
1697.00, 
1698.00, 
1699.00, 
1700.00, 
1701.00, 
1702.00, 
1703.00, 
1704.00, 
1705.00, 
1706.00, 
1707.00, 
1708.00, 
1709.00, 
1710.00, 
1711.00, 
1712.00, 
1713.00, 
1714.00, 
1715.00, 
1716.00, 
1717.00, 
1718.00, 
1719.00, 
1720.00, 
1721.00, 
1722.00, 
1723.00, 
1724.00, 
1725.00, 
1726.00, 
1727.00, 
1728.00, 
1729.00, 
1730.00, 
1731.00, 
1732.00, 
1733.00, 
1734.00, 
1735.00, 
1736.00, 
1737.00, 
1738.00, 
1739.00, 
1740.00, 
1741.00, 
1742.00, 
1743.00, 
1744.00, 
1745.00, 
1746.00, 
1747.00, 
1748.00, 
1749.00, 
1750.00, 
1751.00, 
1752.00, 
1753.00, 
1754.00, 
1755.00, 
1756.00, 
1757.00, 
1758.00, 
1759.00, 
1760.00, 
1761.00, 
1762.00, 
1763.00, 
1764.00, 
1765.00, 
1766.00, 
1767.00, 
1768.00, 
1769.00, 
1770.00, 
1771.00, 
1772.00, 
1773.00, 
1774.00, 
1775.00, 
1776.00, 
1777.00, 
1778.00, 
1779.00, 
1780.00, 
1781.00, 
1782.00, 
1783.00, 
1784.00, 
1785.00, 
1786.00, 
1787.00, 
1788.00, 
1789.00, 
1790.00, 
1791.00, 
1792.00, 
1793.00, 
1794.00, 
1795.00, 
1796.00, 
1797.00, 
1798.00, 
1799.00, 
1800.00, 
1801.00, 
1802.00, 
1803.00, 
1804.00, 
1805.00, 
1806.00, 
1807.00, 
1808.00, 
1809.00, 
1810.00, 
1811.00, 
1812.00, 
1813.00, 
1814.00, 
1815.00, 
1816.00, 
1817.00, 
1818.00, 
1819.00, 
1820.00, 
1821.00, 
1822.00, 
1823.00, 
1824.00, 
1825.00, 
1826.00, 
1827.00, 
1828.00, 
1829.00, 
1830.00, 
1831.00, 
1832.00, 
1833.00, 
1834.00, 
1835.00, 
1836.00, 
1837.00, 
1838.00, 
1839.00, 
1840.00, 
1841.00, 
1842.00, 
1843.00, 
1844.00, 
1845.00, 
1846.00, 
1847.00, 
1848.00, 
1849.00, 
1850.00, 
1851.00, 
1852.00, 
1853.00, 
1854.00, 
1855.00, 
1856.00, 
1857.00, 
1858.00, 
1859.00, 
1860.00, 
1861.00, 
1862.00, 
1863.00, 
1864.00, 
1865.00, 
1866.00, 
1867.00, 
1868.00, 
1869.00, 
1870.00, 
1871.00, 
1872.00, 
1873.00, 
1874.00, 
1875.00, 
1876.00, 
1877.00, 
1878.00, 
1879.00, 
1880.00, 
1881.00, 
1882.00, 
1883.00, 
1884.00, 
1885.00, 
1886.00, 
1887.00, 
1888.00, 
1889.00, 
1890.00, 
1891.00, 
1892.00, 
1893.00, 
1894.00, 
1895.00, 
1896.00, 
1897.00, 
1898.00, 
1899.00, 
1900.00, 
1901.00, 
1902.00, 
1903.00, 
1904.00, 
1905.00, 
1906.00, 
1907.00, 
1908.00, 
1909.00, 
1910.00, 
1911.00, 
1912.00, 
1913.00, 
1914.00, 
1915.00, 
1916.00, 
1917.00, 
1918.00, 
1919.00, 
1920.00, 
1921.00, 
1922.00, 
1923.00, 
1924.00, 
1925.00, 
1926.00, 
1927.00, 
1928.00, 
1929.00, 
1930.00, 
1931.00, 
1932.00, 
1933.00, 
1934.00, 
1935.00, 
1936.00, 
1937.00, 
1938.00, 
1939.00, 
1940.00, 
1941.00, 
1942.00, 
1943.00, 
1944.00, 
1945.00, 
1946.00, 
1947.00, 
1948.00, 
1949.00, 
1950.00, 
1951.00, 
1952.00, 
1953.00, 
1954.00, 
1955.00, 
1956.00, 
1957.00, 
1958.00, 
1959.00, 
1960.00, 
1961.00, 
1962.00, 
1963.00, 
1964.00, 
1965.00, 
1966.00, 
1967.00, 
1968.00, 
1969.00, 
1970.00, 
1971.00, 
1972.00, 
1973.00, 
1974.00, 
1975.00, 
1976.00, 
1977.00, 
1978.00, 
1979.00, 
1980.00, 
1981.00, 
1982.00, 
1983.00, 
1984.00, 
1985.00, 
1986.00, 
1987.00, 
1988.00, 
1989.00, 
1990.00, 
1991.00, 
1992.00, 
1993.00, 
1994.00, 
1995.00, 
1996.00, 
1997.00, 
1998.00, 
1999.00, 
2000.00, 
2001.00, 
2002.00, 
2003.00, 
2004.00, 
2005.00, 
2006.00, 
2007.00, 
2008.00, 
2009.00, 
2010.00, 
2011.00, 
2012.00, 
2013.00, 
2014.00, 
2015.00, 
2016.00, 
2017.00, 
2018.00, 
2019.00, 
2020.00, 
2021.00, 
2022.00, 
2023.00, 
2024.00, 
2025.00, 
2026.00, 
2027.00, 
2028.00, 
2029.00, 
2030.00, 
2031.00, 
2032.00, 
2033.00, 
2034.00, 
2035.00, 
2036.00, 
2037.00, 
2038.00, 
2039.00, 
2040.00, 
2041.00, 
2042.00, 
2043.00, 
2044.00, 
2045.00, 
2046.00, 
2047.00, 
2048.00, 
2049.00, 
2050.00, 
2051.00, 
2052.00, 
2053.00, 
2054.00, 
2055.00, 
2056.00, 
2057.00, 
2058.00, 
2059.00, 
2060.00, 
2061.00, 
2062.00, 
2063.00, 
2064.00, 
2065.00, 
2066.00, 
2067.00, 
2068.00, 
2069.00, 
2070.00, 
2071.00, 
2072.00, 
2073.00, 
2074.00, 
2075.00, 
2076.00, 
2077.00, 
2078.00, 
2079.00, 
2080.00, 
2081.00, 
2082.00, 
2083.00, 
2084.00, 
2085.00, 
2086.00, 
2087.00, 
2088.00, 
2089.00, 
2090.00, 
2091.00, 
2092.00, 
2093.00, 
2094.00, 
2095.00, 
2096.00, 
2097.00, 
2098.00, 
2099.00, 
2100.00, 
2101.00, 
2102.00, 
2103.00, 
2104.00, 
2105.00, 
2106.00, 
2107.00, 
2108.00, 
2109.00, 
2110.00, 
2111.00, 
2112.00, 
2113.00, 
2114.00, 
2115.00, 
2116.00, 
2117.00, 
2118.00, 
2119.00, 
2120.00, 
2121.00, 
2122.00, 
2123.00, 
2124.00, 
2125.00, 
2126.00, 
2127.00, 
2128.00, 
2129.00, 
2130.00, 
2131.00, 
2132.00, 
2133.00, 
2134.00, 
2135.00, 
2136.00, 
2137.00, 
2138.00, 
2139.00, 
2140.00, 
2141.00, 
2142.00, 
2143.00, 
2144.00, 
2145.00, 
2146.00, 
2147.00, 
2148.00, 
2149.00, 
2150.00, 
2151.00, 
2152.00, 
2153.00, 
2154.00, 
2155.00, 
2156.00, 
2157.00, 
2158.00, 
2159.00, 
2160.00, 
2161.00, 
2162.00, 
2163.00, 
2164.00, 
2165.00, 
2166.00, 
2167.00, 
2168.00, 
2169.00, 
2170.00, 
2171.00, 
2172.00, 
2173.00, 
2174.00, 
2175.00, 
2176.00, 
2177.00, 
2178.00, 
2179.00, 
2180.00, 
2181.00, 
2182.00, 
2183.00, 
2184.00, 
2185.00, 
2186.00, 
2187.00, 
2188.00, 
2189.00, 
2190.00, 
2191.00, 
2192.00, 
2193.00, 
2194.00, 
2195.00, 
2196.00, 
2197.00, 
2198.00, 
2199.00, 
2200.00, 
2201.00, 
2202.00, 
2203.00, 
2204.00, 
2205.00, 
2206.00, 
2207.00, 
2208.00, 
2209.00, 
2210.00, 
2211.00, 
2212.00, 
2213.00, 
2214.00, 
2215.00, 
2216.00, 
2217.00, 
2218.00, 
2219.00, 
2220.00, 
2221.00, 
2222.00, 
2223.00, 
2224.00, 
2225.00, 
2226.00, 
2227.00, 
2228.00, 
2229.00, 
2230.00, 
2231.00, 
2232.00, 
2233.00, 
2234.00, 
2235.00, 
2236.00, 
2237.00, 
2238.00, 
2239.00, 
2240.00, 
2241.00, 
2242.00, 
2243.00, 
2244.00, 
2245.00, 
2246.00, 
2247.00, 
2248.00, 
2249.00, 
2250.00, 
2251.00, 
2252.00, 
2253.00, 
2254.00, 
2255.00, 
2256.00, 
2257.00, 
2258.00, 
2259.00, 
2260.00, 
2261.00, 
2262.00, 
2263.00, 
2264.00, 
2265.00, 
2266.00, 
2267.00, 
2268.00, 
2269.00, 
2270.00, 
2271.00, 
2272.00, 
2273.00, 
2274.00, 
2275.00, 
2276.00, 
2277.00, 
2278.00, 
2279.00, 
2280.00, 
2281.00, 
2282.00, 
2283.00, 
2284.00, 
2285.00, 
2286.00, 
2287.00, 
2288.00, 
2289.00, 
2290.00, 
2291.00, 
2292.00, 
2293.00, 
2294.00, 
2295.00, 
2296.00, 
2297.00, 
2298.00, 
2299.00, 
2300.00, 
2301.00, 
2302.00, 
2303.00, 
2304.00, 
2305.00, 
2306.00, 
2307.00, 
2308.00, 
2309.00, 
2310.00, 
2311.00, 
2312.00, 
2313.00, 
2314.00, 
2315.00, 
2316.00, 
2317.00, 
2318.00, 
2319.00, 
2320.00, 
2321.00, 
2322.00, 
2323.00, 
2324.00, 
2325.00, 
2326.00, 
2327.00, 
2328.00, 
2329.00, 
2330.00, 
2331.00, 
2332.00, 
2333.00, 
2334.00, 
2335.00, 
2336.00, 
2337.00, 
2338.00, 
2339.00, 
2340.00, 
2341.00, 
2342.00, 
2343.00, 
2344.00, 
2345.00, 
2346.00, 
2347.00, 
2348.00, 
2349.00, 
2350.00, 
2351.00, 
2352.00, 
2353.00, 
2354.00, 
2355.00, 
2356.00, 
2357.00, 
2358.00, 
2359.00, 
2360.00, 
2361.00, 
2362.00, 
2363.00, 
2364.00, 
2365.00, 
2366.00, 
2367.00, 
2368.00, 
2369.00, 
2370.00, 
2371.00, 
2372.00, 
2373.00, 
2374.00, 
2375.00, 
2376.00, 
2377.00, 
2378.00, 
2379.00, 
2380.00, 
2381.00, 
2382.00, 
2383.00, 
2384.00, 
2385.00, 
2386.00, 
2387.00, 
2388.00, 
2389.00, 
2390.00, 
2391.00, 
2392.00, 
2393.00, 
2394.00, 
2395.00, 
2396.00, 
2397.00, 
2398.00, 
2399.00, 
2400.00, 
2401.00, 
2402.00, 
2403.00, 
2404.00, 
2405.00, 
2406.00, 
2407.00, 
2408.00, 
2409.00, 
2410.00, 
2411.00, 
2412.00, 
2413.00, 
2414.00, 
2415.00, 
2416.00, 
2417.00, 
2418.00, 
2419.00, 
2420.00, 
2421.00, 
2422.00, 
2423.00, 
2424.00, 
2425.00, 
2426.00, 
2427.00, 
2428.00, 
2429.00, 
2430.00, 
2431.00, 
2432.00, 
2433.00, 
2434.00, 
2435.00, 
2436.00, 
2437.00, 
2438.00, 
2439.00, 
2440.00, 
2441.00, 
2442.00, 
2443.00, 
2444.00, 
2445.00, 
2446.00, 
2447.00, 
2448.00, 
2449.00, 
2450.00, 
2451.00, 
2452.00, 
2453.00, 
2454.00, 
2455.00, 
2456.00, 
2457.00, 
2458.00, 
2459.00, 
2460.00, 
2461.00, 
2462.00, 
2463.00, 
2464.00, 
2465.00, 
2466.00, 
2467.00, 
2468.00, 
2469.00, 
2470.00, 
2471.00, 
2472.00, 
2473.00, 
2474.00, 
2475.00, 
2476.00, 
2477.00, 
2478.00, 
2479.00, 
2480.00, 
2481.00, 
2482.00, 
2483.00, 
2484.00, 
2485.00, 
2486.00, 
2487.00, 
2488.00, 
2489.00, 
2490.00, 
2491.00, 
2492.00, 
2493.00, 
2494.00, 
2495.00, 
2496.00, 
2497.00, 
2498.00, 
2499.00, 
2500.00, 
2501.00, 
2502.00, 
2503.00, 
2504.00, 
2505.00, 
2506.00, 
2507.00, 
2508.00, 
2509.00, 
2510.00, 
2511.00, 
2512.00, 
2513.00, 
2514.00, 
2515.00, 
2516.00, 
2517.00, 
2518.00, 
2519.00, 
2520.00, 
2521.00, 
2522.00, 
2523.00, 
2524.00, 
2525.00, 
2526.00, 
2527.00, 
2528.00, 
2529.00, 
2530.00, 
2531.00, 
2532.00, 
2533.00, 
2534.00, 
2535.00, 
2536.00, 
2537.00, 
2538.00, 
2539.00, 
2540.00, 
2541.00, 
2542.00, 
2543.00, 
2544.00, 
2545.00, 
2546.00, 
2547.00, 
2548.00, 
2549.00, 
2550.00, 
2551.00, 
2552.00, 
2553.00, 
2554.00, 
2555.00, 
2556.00, 
2557.00, 
2558.00, 
2559.00, 
2560.00, 
2561.00, 
2562.00, 
2563.00, 
2564.00, 
2565.00, 
2566.00, 
2567.00, 
2568.00, 
2569.00, 
2570.00, 
2571.00, 
2572.00, 
2573.00, 
2574.00, 
2575.00, 
2576.00, 
2577.00, 
2578.00, 
2579.00, 
2580.00, 
2581.00, 
2582.00, 
2583.00, 
2584.00, 
2585.00, 
2586.00, 
2587.00, 
2588.00, 
2589.00, 
2590.00, 
2591.00, 
2592.00, 
2593.00, 
2594.00, 
2595.00, 
2596.00, 
2597.00, 
2598.00, 
2599.00, 
2600.00, 
