"1cP5 - RawData"
"Wavelength nm.","T%"
200.00,-0.001
201.00,0.000
202.00,0.002
203.00,-0.002
204.00,-0.001
205.00,0.003
206.00,0.001
207.00,0.003
208.00,-0.000
209.00,0.001
210.00,0.005
211.00,-0.001
212.00,0.001
213.00,-0.001
214.00,-0.000
215.00,0.000
216.00,-0.000
217.00,0.002
218.00,-0.001
219.00,0.002
220.00,-0.001
221.00,0.000
222.00,0.001
223.00,0.000
224.00,0.002
225.00,-0.002
226.00,-0.001
227.00,0.001
228.00,0.002
229.00,0.000
230.00,-0.000
231.00,0.001
232.00,0.000
233.00,0.002
234.00,0.001
235.00,0.003
236.00,0.000
237.00,0.000
238.00,0.002
239.00,-0.002
240.00,-0.000
241.00,-0.000
242.00,0.002
243.00,-0.001
244.00,0.001
245.00,0.001
246.00,-0.001
247.00,0.001
248.00,0.000
249.00,0.000
250.00,0.002
251.00,0.001
252.00,0.003
253.00,0.001
254.00,-0.000
255.00,0.000
256.00,-0.000
257.00,-0.001
258.00,0.001
259.00,0.001
260.00,-0.000
261.00,0.000
262.00,0.001
263.00,0.000
264.00,0.000
265.00,-0.001
266.00,0.000
267.00,0.002
268.00,0.001
269.00,0.001
270.00,-0.001
271.00,-0.001
272.00,0.000
273.00,0.001
274.00,0.002
275.00,-0.000
276.00,0.002
277.00,-0.001
278.00,0.001
279.00,0.001
280.00,0.001
281.00,0.001
282.00,0.001
283.00,-0.003
284.00,0.001
285.00,-0.000
286.00,0.000
287.00,0.001
288.00,0.001
289.00,-0.000
290.00,-0.000
291.00,-0.000
292.00,-0.000
293.00,0.001
294.00,-0.000
295.00,0.001
296.00,-0.000
297.00,0.000
298.00,0.001
299.00,0.001
300.00,-0.000
301.00,0.002
302.00,0.000
303.00,0.000
304.00,-0.000
305.00,0.001
306.00,0.001
307.00,0.002
308.00,0.007
309.00,0.009
310.00,0.015
311.00,0.023
312.00,0.040
313.00,0.063
314.00,0.097
315.00,0.141
316.00,0.199
317.00,0.276
318.00,0.382
319.00,0.504
320.00,0.672
321.00,0.875
322.00,1.130
323.00,1.387
324.00,1.742
325.00,2.102
326.00,2.491
327.00,2.971
328.00,3.448
329.00,3.981
330.00,4.554
331.00,5.132
332.00,5.783
333.00,6.469
334.00,7.121
335.00,7.826
336.00,8.511
337.00,9.254
338.00,9.937
339.00,10.614
340.00,11.358
341.00,12.067
342.00,12.675
343.00,13.324
344.00,13.907
345.00,14.530
346.00,15.109
347.00,15.626
348.00,16.174
349.00,16.627
350.00,17.049
351.00,17.503
352.00,17.851
353.00,18.275
354.00,18.639
355.00,18.932
356.00,19.237
357.00,19.482
358.00,19.771
359.00,20.031
360.00,20.280
361.00,20.402
362.00,20.666
363.00,20.745
364.00,20.926
365.00,21.089
366.00,21.173
367.00,21.270
368.00,21.353
369.00,21.380
370.00,21.395
371.00,21.429
372.00,21.411
373.00,21.398
374.00,21.394
375.00,21.348
376.00,21.267
377.00,21.193
378.00,21.084
379.00,20.993
380.00,20.997
381.00,21.009
382.00,20.959
383.00,21.014
384.00,21.016
385.00,21.091
386.00,21.130
387.00,21.226
388.00,21.284
389.00,21.316
390.00,21.384
391.00,21.424
392.00,21.475
393.00,21.450
394.00,21.475
395.00,21.561
396.00,21.499
397.00,21.503
398.00,21.510
399.00,21.522
400.00,21.541
401.00,21.517
402.00,21.561
403.00,21.521
404.00,21.511
405.00,21.469
406.00,21.467
407.00,21.415
408.00,21.439
409.00,21.383
410.00,21.320
411.00,21.353
412.00,21.261
413.00,21.296
414.00,21.258
415.00,21.258
416.00,21.323
417.00,21.282
418.00,21.296
419.00,21.389
420.00,21.423
421.00,21.445
422.00,21.431
423.00,21.494
424.00,21.538
425.00,21.560
426.00,21.555
427.00,21.630
428.00,21.667
429.00,21.687
430.00,21.747
431.00,21.830
432.00,21.840
433.00,21.889
434.00,21.946
435.00,22.009
436.00,22.118
437.00,22.146
438.00,22.212
439.00,22.272
440.00,22.360
441.00,22.453
442.00,22.569
443.00,22.598
444.00,22.703
445.00,22.767
446.00,22.887
447.00,22.996
448.00,23.062
449.00,23.187
450.00,23.277
451.00,23.379
452.00,23.511
453.00,23.621
454.00,23.702
455.00,23.829
456.00,23.950
457.00,24.040
458.00,24.145
459.00,24.300
460.00,24.412
461.00,24.574
462.00,24.669
463.00,24.822
464.00,24.957
465.00,25.102
466.00,25.143
467.00,25.352
468.00,25.480
469.00,25.583
470.00,25.667
471.00,25.794
472.00,25.919
473.00,25.990
474.00,26.144
475.00,26.261
476.00,26.368
477.00,26.494
478.00,26.609
479.00,26.807
480.00,26.922
481.00,27.012
482.00,27.200
483.00,27.362
484.00,27.546
485.00,27.670
486.00,27.855
487.00,28.007
488.00,28.114
489.00,28.279
490.00,28.386
491.00,28.545
492.00,28.780
493.00,28.923
494.00,28.975
495.00,29.127
496.00,29.230
497.00,29.336
498.00,29.525
499.00,29.661
500.00,29.803
501.00,29.921
502.00,30.055
503.00,30.194
504.00,30.215
505.00,30.383
506.00,30.485
507.00,30.584
508.00,30.750
509.00,30.914
510.00,31.031
511.00,31.104
512.00,31.288
513.00,31.400
514.00,31.530
515.00,31.678
516.00,31.791
517.00,31.844
518.00,31.975
519.00,32.063
520.00,32.127
521.00,32.213
522.00,32.319
523.00,32.396
524.00,32.515
525.00,32.600
526.00,32.714
527.00,32.755
528.00,32.802
529.00,32.986
530.00,33.140
531.00,33.260
532.00,33.339
533.00,33.457
534.00,33.541
535.00,33.635
536.00,33.707
537.00,33.788
538.00,33.892
539.00,33.944
540.00,34.002
541.00,34.034
542.00,34.146
543.00,34.145
544.00,34.253
545.00,34.346
546.00,34.370
547.00,34.519
548.00,34.600
549.00,34.636
550.00,34.700
551.00,34.862
552.00,34.870
553.00,34.872
554.00,34.960
555.00,35.010
556.00,35.104
557.00,35.099
558.00,35.218
559.00,35.295
560.00,35.251
561.00,35.421
562.00,35.455
563.00,35.421
564.00,35.497
565.00,35.580
566.00,35.531
567.00,35.655
568.00,35.725
569.00,35.735
570.00,35.766
571.00,35.799
572.00,35.886
573.00,35.869
574.00,35.892
575.00,35.912
576.00,35.892
577.00,35.974
578.00,36.049
579.00,36.108
580.00,36.151
581.00,36.299
582.00,36.386
583.00,36.354
584.00,36.464
585.00,36.523
586.00,36.562
587.00,36.628
588.00,36.618
589.00,36.614
590.00,36.674
591.00,36.741
592.00,36.744
593.00,36.741
594.00,36.844
595.00,36.887
596.00,36.974
597.00,37.020
598.00,37.099
599.00,37.144
600.00,37.208
601.00,37.151
602.00,37.159
603.00,37.209
604.00,37.233
605.00,37.347
606.00,37.286
607.00,37.317
608.00,37.534
609.00,37.584
610.00,37.459
611.00,37.554
612.00,37.655
613.00,37.649
614.00,37.682
615.00,37.769
616.00,37.867
617.00,37.872
618.00,37.863
619.00,37.942
620.00,38.010
621.00,38.099
622.00,38.141
623.00,38.202
624.00,38.222
625.00,38.321
626.00,38.360
627.00,38.389
628.00,38.527
629.00,38.518
630.00,38.560
631.00,38.612
632.00,38.715
633.00,38.788
634.00,38.863
635.00,38.951
636.00,39.064
637.00,39.060
638.00,39.108
639.00,39.234
640.00,39.250
641.00,39.302
642.00,39.390
643.00,39.387
644.00,39.493
645.00,39.570
646.00,39.675
647.00,39.790
648.00,39.836
649.00,39.779
650.00,39.900
651.00,40.033
652.00,40.066
653.00,40.092
654.00,40.222
655.00,40.193
656.00,40.634
657.00,40.546
658.00,40.631
659.00,40.704
660.00,40.774
661.00,40.847
662.00,40.943
663.00,41.030
664.00,41.258
665.00,41.411
666.00,41.411
667.00,41.476
668.00,41.442
669.00,41.748
670.00,41.944
671.00,41.902
672.00,42.040
673.00,42.115
674.00,42.155
675.00,42.270
676.00,42.418
677.00,42.525
678.00,42.444
679.00,42.604
680.00,42.734
681.00,42.893
682.00,42.918
683.00,42.939
684.00,43.178
685.00,43.264
686.00,43.143
687.00,43.234
688.00,43.355
689.00,43.323
690.00,43.684
691.00,43.896
692.00,43.684
693.00,43.744
694.00,43.842
695.00,43.759
696.00,44.139
697.00,44.367
698.00,44.142
699.00,44.441
700.00,44.510
701.00,44.600
702.00,44.680
703.00,44.837
704.00,44.865
705.00,44.829
706.00,44.866
707.00,44.960
708.00,44.905
709.00,45.205
710.00,45.678
711.00,45.235
712.00,45.288
713.00,45.395
714.00,45.521
715.00,45.672
716.00,45.572
717.00,45.752
718.00,45.939
719.00,45.920
720.00,46.029
721.00,50.301
722.00,50.330
723.00,50.378
724.00,50.401
725.00,50.374
726.00,50.362
727.00,50.434
728.00,50.445
729.00,50.487
730.00,50.444
731.00,50.489
732.00,50.592
733.00,50.644
734.00,50.639
735.00,50.755
736.00,50.772
737.00,50.803
738.00,50.879
739.00,50.841
740.00,50.880
741.00,50.933
742.00,50.986
743.00,50.957
744.00,50.953
745.00,50.993
746.00,50.999
747.00,50.986
748.00,51.030
749.00,51.094
750.00,51.102
751.00,51.000
752.00,51.024
753.00,51.034
754.00,51.021
755.00,50.981
756.00,51.089
757.00,51.061
758.00,51.111
759.00,51.113
760.00,51.098
761.00,51.097
762.00,51.170
763.00,51.123
764.00,51.158
765.00,51.145
766.00,51.220
767.00,51.284
768.00,51.199
769.00,51.165
770.00,51.211
771.00,51.280
772.00,51.283
773.00,51.291
774.00,51.339
775.00,51.339
776.00,51.318
777.00,51.357
778.00,51.339
779.00,51.362
780.00,51.318
781.00,51.337
782.00,51.317
783.00,51.320
784.00,51.248
785.00,51.263
786.00,51.299
787.00,51.326
788.00,51.300
789.00,51.309
790.00,51.207
791.00,51.324
792.00,51.322
793.00,51.253
794.00,51.264
795.00,51.264
796.00,51.204
797.00,51.275
798.00,51.254
799.00,51.139
800.00,51.138
801.00,51.172
802.00,51.079
803.00,51.170
804.00,51.082
805.00,51.126
806.00,51.162
807.00,51.104
808.00,51.059
809.00,51.114
810.00,51.035
811.00,51.064
812.00,51.089
813.00,50.984
814.00,51.012
815.00,51.021
816.00,50.976
817.00,50.960
818.00,50.910
819.00,50.950
820.00,50.872
821.00,50.873
822.00,50.796
823.00,50.759
824.00,50.855
825.00,50.744
826.00,50.841
827.00,50.804
828.00,50.915
829.00,50.747
830.00,50.789
831.00,53.159
832.00,53.179
833.00,53.072
834.00,53.122
835.00,53.120
836.00,53.067
837.00,53.061
838.00,53.045
839.00,53.034
840.00,52.962
841.00,52.955
842.00,52.948
843.00,52.974
844.00,52.920
845.00,52.915
846.00,52.926
847.00,52.829
848.00,52.860
849.00,52.791
850.00,52.761
851.00,52.718
852.00,52.742
853.00,52.675
854.00,52.663
855.00,52.626
856.00,52.614
857.00,52.617
858.00,52.569
859.00,52.531
860.00,52.562
861.00,52.539
862.00,52.430
863.00,52.541
864.00,52.459
865.00,52.491
866.00,52.462
867.00,52.461
868.00,52.489
869.00,52.460
870.00,52.422
871.00,52.442
872.00,52.446
873.00,52.369
874.00,52.401
875.00,52.362
876.00,52.358
877.00,52.325
878.00,52.330
879.00,52.491
880.00,52.302
881.00,52.289
882.00,52.338
883.00,52.290
884.00,52.224
885.00,52.252
886.00,52.216
887.00,52.225
888.00,52.186
889.00,52.164
890.00,52.163
891.00,52.128
892.00,52.075
893.00,52.078
894.00,52.087
895.00,52.047
896.00,52.033
897.00,52.000
898.00,51.968
899.00,52.009
900.00,51.954
901.00,51.956
902.00,51.960
903.00,51.918
904.00,51.911
905.00,51.901
906.00,51.889
907.00,51.846
908.00,51.800
909.00,51.809
910.00,51.784
911.00,51.748
912.00,51.758
913.00,51.717
914.00,51.733
915.00,51.700
916.00,51.693
917.00,51.661
918.00,51.675
919.00,51.607
920.00,51.601
921.00,51.591
922.00,51.600
923.00,51.550
924.00,51.517
925.00,51.529
926.00,51.502
927.00,51.478
928.00,51.451
929.00,51.463
930.00,51.421
931.00,51.392
932.00,51.303
933.00,51.463
934.00,51.348
935.00,51.332
936.00,51.315
937.00,51.297
938.00,51.298
939.00,51.278
940.00,51.246
941.00,51.225
942.00,51.197
943.00,51.202
944.00,51.157
945.00,51.174
946.00,51.149
947.00,51.129
948.00,51.105
949.00,51.084
950.00,51.060
951.00,51.034
952.00,51.014
953.00,50.987
954.00,50.957
955.00,50.918
956.00,50.901
957.00,50.879
958.00,50.889
959.00,50.839
960.00,50.822
961.00,50.823
962.00,50.836
963.00,50.781
964.00,50.781
965.00,50.785
966.00,50.768
967.00,50.768
968.00,50.738
969.00,50.756
970.00,50.734
971.00,50.748
972.00,50.694
973.00,50.753
974.00,50.768
975.00,50.729
976.00,50.745
977.00,50.735
978.00,50.764
979.00,50.726
980.00,50.742
981.00,50.742
982.00,50.715
983.00,50.725
984.00,50.712
985.00,50.713
986.00,50.668
987.00,50.698
988.00,50.663
989.00,50.657
990.00,50.645
991.00,50.641
992.00,50.658
993.00,50.616
994.00,50.617
995.00,50.595
996.00,50.594
997.00,50.570
998.00,50.559
999.00,50.563
1000.00,50.514
1001.00,50.513
1002.00,50.504
1003.00,50.508
1004.00,50.477
1005.00,50.454
1006.00,50.497
1007.00,50.464
1008.00,50.443
1009.00,50.440
1010.00,50.425
1011.00,50.409
1012.00,50.369
1013.00,50.367
1014.00,50.341
1015.00,50.346
1016.00,50.299
1017.00,50.300
1018.00,50.303
1019.00,50.267
1020.00,50.282
1021.00,50.251
1022.00,50.241
1023.00,50.180
1024.00,50.217
1025.00,50.243
1026.00,50.170
1027.00,50.141
1028.00,50.131
1029.00,50.128
1030.00,50.084
1031.00,50.107
1032.00,50.073
1033.00,50.076
1034.00,50.066
1035.00,50.021
1036.00,49.999
1037.00,49.984
1038.00,49.965
1039.00,49.954
1040.00,49.949
1041.00,49.898
1042.00,49.904
1043.00,49.901
1044.00,49.936
1045.00,49.913
1046.00,49.894
1047.00,49.902
1048.00,49.925
1049.00,49.927
1050.00,49.918
1051.00,49.955
1052.00,49.968
1053.00,49.981
1054.00,49.955
1055.00,50.000
1056.00,49.992
1057.00,49.997
1058.00,49.976
1059.00,49.973
1060.00,49.982
1061.00,49.972
1062.00,49.954
1063.00,49.942
1064.00,49.956
1065.00,49.928
1066.00,49.913
1067.00,49.925
1068.00,49.947
1069.00,49.915
1070.00,49.892
1071.00,49.881
1072.00,49.912
1073.00,49.882
1074.00,49.875
1075.00,49.866
1076.00,49.879
1077.00,49.854
1078.00,49.835
1079.00,49.830
1080.00,49.827
1081.00,49.813
1082.00,49.809
1083.00,49.812
1084.00,49.796
1085.00,49.790
1086.00,49.800
1087.00,49.800
1088.00,49.796
1089.00,49.765
1090.00,49.773
1091.00,49.773
1092.00,49.763
1093.00,49.745
1094.00,49.726
1095.00,49.716
1096.00,49.703
1097.00,49.711
1098.00,49.701
1099.00,49.688
1100.00,49.679
1101.00,49.678
1102.00,49.665
1103.00,49.649
1104.00,49.643
1105.00,49.636
1106.00,49.611
1107.00,49.608
1108.00,49.602
1109.00,49.599
1110.00,49.591
1111.00,49.586
1112.00,49.564
1113.00,49.555
1114.00,49.557
1115.00,49.556
1116.00,49.553
1117.00,49.521
1118.00,49.528
1119.00,49.531
1120.00,49.519
1121.00,49.525
1122.00,49.507
1123.00,49.509
1124.00,49.487
1125.00,49.503
1126.00,49.488
1127.00,49.487
1128.00,49.474
1129.00,49.446
1130.00,49.459
1131.00,49.449
1132.00,49.440
1133.00,49.442
1134.00,49.430
1135.00,49.431
1136.00,49.427
1137.00,49.435
1138.00,49.433
1139.00,49.449
1140.00,49.431
1141.00,49.432
1142.00,49.412
1143.00,49.427
1144.00,49.410
1145.00,49.406
1146.00,49.411
1147.00,49.399
1148.00,49.387
1149.00,49.396
1150.00,49.387
1151.00,49.372
1152.00,49.359
1153.00,49.350
1154.00,49.341
1155.00,49.349
1156.00,49.353
1157.00,49.353
1158.00,49.344
1159.00,49.346
1160.00,49.344
1161.00,49.373
1162.00,49.368
1163.00,49.380
1164.00,49.373
1165.00,49.382
1166.00,49.380
1167.00,49.349
1168.00,49.369
1169.00,49.347
1170.00,49.343
1171.00,49.325
1172.00,49.336
1173.00,49.333
1174.00,49.353
1175.00,49.352
1176.00,49.355
1177.00,49.349
1178.00,49.334
1179.00,49.344
1180.00,49.325
1181.00,49.337
1182.00,49.340
1183.00,49.337
1184.00,49.320
1185.00,49.343
1186.00,49.332
1187.00,49.341
1188.00,49.339
1189.00,49.348
1190.00,49.340
1191.00,49.338
1192.00,49.357
1193.00,49.338
1194.00,49.340
1195.00,49.310
1196.00,49.355
1197.00,49.348
1198.00,49.336
1199.00,49.325
1200.00,49.347
1201.00,49.359
1202.00,49.352
1203.00,49.350
1204.00,49.351
1205.00,49.393
1206.00,49.355
1207.00,49.361
1208.00,49.342
1209.00,49.352
1210.00,49.347
1211.00,49.329
1212.00,49.358
1213.00,49.311
1214.00,49.353
1215.00,49.339
1216.00,49.342
1217.00,49.347
1218.00,49.338
1219.00,49.363
1220.00,49.348
1221.00,49.358
1222.00,49.343
1223.00,49.357
1224.00,49.362
1225.00,49.345
1226.00,49.355
1227.00,49.346
1228.00,49.354
1229.00,49.364
1230.00,49.387
1231.00,49.388
1232.00,49.413
1233.00,49.432
1234.00,49.435
1235.00,49.418
1236.00,49.423
1237.00,49.411
1238.00,49.431
1239.00,49.439
1240.00,49.411
1241.00,49.412
1242.00,49.421
1243.00,49.438
1244.00,49.413
1245.00,49.452
1246.00,49.444
1247.00,49.442
1248.00,49.463
1249.00,49.463
1250.00,49.463
1251.00,49.465
1252.00,49.480
1253.00,49.475
1254.00,49.493
1255.00,49.474
1256.00,49.459
1257.00,49.451
1258.00,49.495
1259.00,49.494
1260.00,49.512
1261.00,49.503
1262.00,49.505
1263.00,49.515
1264.00,49.517
1265.00,49.517
1266.00,49.537
1267.00,49.544
1268.00,49.556
1269.00,49.554
1270.00,49.558
1271.00,49.572
1272.00,49.567
1273.00,49.592
1274.00,49.579
1275.00,49.598
1276.00,49.591
1277.00,49.601
1278.00,49.617
1279.00,49.603
1280.00,49.609
1281.00,49.642
1282.00,49.630
1283.00,49.622
1284.00,49.644
1285.00,49.629
1286.00,49.645
1287.00,49.635
1288.00,49.637
1289.00,49.648
1290.00,49.676
1291.00,49.679
1292.00,49.674
1293.00,49.680
1294.00,49.689
1295.00,49.724
1296.00,49.724
1297.00,49.718
1298.00,49.747
1299.00,49.729
1300.00,49.733
1301.00,49.725
1302.00,49.749
1303.00,49.745
1304.00,49.732
1305.00,49.758
1306.00,49.770
1307.00,49.775
1308.00,49.771
1309.00,49.781
1310.00,49.782
1311.00,49.781
1312.00,49.787
1313.00,49.798
1314.00,49.818
1315.00,49.845
1316.00,49.843
1317.00,49.863
1318.00,49.860
1319.00,49.881
1320.00,49.880
1321.00,50.039
1322.00,50.035
1323.00,50.016
1324.00,50.005
1325.00,50.003
1326.00,50.005
1327.00,49.981
1328.00,50.022
1329.00,49.981
1330.00,50.016
1331.00,50.017
1332.00,50.020
1333.00,50.018
1334.00,50.043
1335.00,50.057
1336.00,50.116
1337.00,50.118
1338.00,50.176
1339.00,50.261
1340.00,50.329
1341.00,50.401
1342.00,50.453
1343.00,50.486
1344.00,50.546
1345.00,50.571
1346.00,50.606
1347.00,50.672
1348.00,50.670
1349.00,50.675
1350.00,50.695
1351.00,50.720
1352.00,50.702
1353.00,50.688
1354.00,50.737
1355.00,50.698
1356.00,50.779
1357.00,50.720
1358.00,50.753
1359.00,50.692
1360.00,50.706
1361.00,50.984
1362.00,50.766
1363.00,50.788
1364.00,51.003
1365.00,50.795
1366.00,50.834
1367.00,50.877
1368.00,50.757
1369.00,50.761
1370.00,50.819
1371.00,50.842
1372.00,50.778
1373.00,50.782
1374.00,50.804
1375.00,50.782
1376.00,50.777
1377.00,50.722
1378.00,50.791
1379.00,50.824
1380.00,50.813
1381.00,50.918
1382.00,50.919
1383.00,50.827
1384.00,50.797
1385.00,50.744
1386.00,50.791
1387.00,50.872
1388.00,50.775
1389.00,50.667
1390.00,50.690
1391.00,50.864
1392.00,50.737
1393.00,50.679
1394.00,50.839
1395.00,50.838
1396.00,50.777
1397.00,50.701
1398.00,50.725
1399.00,50.851
1400.00,50.817
1401.00,50.733
1402.00,50.729
1403.00,50.858
1404.00,50.807
1405.00,50.760
1406.00,50.843
1407.00,50.814
1408.00,50.920
1409.00,50.855
1410.00,50.897
1411.00,50.829
1412.00,50.877
1413.00,50.875
1414.00,50.879
1415.00,50.868
1416.00,50.935
1417.00,50.972
1418.00,50.958
1419.00,50.969
1420.00,50.986
1421.00,51.017
1422.00,51.005
1423.00,51.045
1424.00,51.064
1425.00,51.066
1426.00,51.075
1427.00,51.127
1428.00,51.118
1429.00,51.115
1430.00,51.147
1431.00,51.166
1432.00,51.187
1433.00,51.207
1434.00,51.186
1435.00,51.262
1436.00,51.269
1437.00,51.256
1438.00,51.298
1439.00,51.313
1440.00,51.320
1441.00,51.342
1442.00,51.341
1443.00,51.365
1444.00,51.409
1445.00,51.385
1446.00,51.412
1447.00,51.442
1448.00,51.469
1449.00,51.474
1450.00,51.487
1451.00,51.496
1452.00,51.530
1453.00,51.514
1454.00,51.536
1455.00,51.554
1456.00,51.568
1457.00,51.598
1458.00,51.614
1459.00,51.641
1460.00,51.679
1461.00,51.674
1462.00,51.712
1463.00,51.695
1464.00,51.704
1465.00,51.729
1466.00,51.724
1467.00,51.769
1468.00,51.831
1469.00,51.773
1470.00,51.814
1471.00,51.853
1472.00,51.839
1473.00,51.855
1474.00,51.896
1475.00,51.899
1476.00,51.917
1477.00,51.905
1478.00,51.934
1479.00,51.949
1480.00,51.942
1481.00,51.958
1482.00,52.000
1483.00,51.990
1484.00,52.012
1485.00,52.037
1486.00,52.032
1487.00,52.075
1488.00,52.090
1489.00,52.074
1490.00,52.126
1491.00,52.132
1492.00,52.162
1493.00,52.138
1494.00,52.164
1495.00,52.159
1496.00,52.188
1497.00,52.173
1498.00,52.195
1499.00,52.221
1500.00,52.241
1501.00, 
1502.00, 
1503.00, 
1504.00, 
1505.00, 
1506.00, 
1507.00, 
1508.00, 
1509.00, 
1510.00, 
1511.00, 
1512.00, 
1513.00, 
1514.00, 
1515.00, 
1516.00, 
1517.00, 
1518.00, 
1519.00, 
1520.00, 
1521.00, 
1522.00, 
1523.00, 
1524.00, 
1525.00, 
1526.00, 
1527.00, 
1528.00, 
1529.00, 
1530.00, 
1531.00, 
1532.00, 
1533.00, 
1534.00, 
1535.00, 
1536.00, 
1537.00, 
1538.00, 
1539.00, 
1540.00, 
1541.00, 
1542.00, 
1543.00, 
1544.00, 
1545.00, 
1546.00, 
1547.00, 
1548.00, 
1549.00, 
1550.00, 
1551.00, 
1552.00, 
1553.00, 
1554.00, 
1555.00, 
1556.00, 
1557.00, 
1558.00, 
1559.00, 
1560.00, 
1561.00, 
1562.00, 
1563.00, 
1564.00, 
1565.00, 
1566.00, 
1567.00, 
1568.00, 
1569.00, 
1570.00, 
1571.00, 
1572.00, 
1573.00, 
1574.00, 
1575.00, 
1576.00, 
1577.00, 
1578.00, 
1579.00, 
1580.00, 
1581.00, 
1582.00, 
1583.00, 
1584.00, 
1585.00, 
1586.00, 
1587.00, 
1588.00, 
1589.00, 
1590.00, 
1591.00, 
1592.00, 
1593.00, 
1594.00, 
1595.00, 
1596.00, 
1597.00, 
1598.00, 
1599.00, 
1600.00, 
1601.00, 
1602.00, 
1603.00, 
1604.00, 
1605.00, 
1606.00, 
1607.00, 
1608.00, 
1609.00, 
1610.00, 
1611.00, 
1612.00, 
1613.00, 
1614.00, 
1615.00, 
1616.00, 
1617.00, 
1618.00, 
1619.00, 
1620.00, 
1621.00, 
1622.00, 
1623.00, 
1624.00, 
1625.00, 
1626.00, 
1627.00, 
1628.00, 
1629.00, 
1630.00, 
1631.00, 
1632.00, 
1633.00, 
1634.00, 
1635.00, 
1636.00, 
1637.00, 
1638.00, 
1639.00, 
1640.00, 
1641.00, 
1642.00, 
1643.00, 
1644.00, 
1645.00, 
1646.00, 
1647.00, 
1648.00, 
1649.00, 
1650.00, 
1651.00, 
1652.00, 
1653.00, 
1654.00, 
1655.00, 
1656.00, 
1657.00, 
1658.00, 
1659.00, 
1660.00, 
1661.00, 
1662.00, 
1663.00, 
1664.00, 
1665.00, 
1666.00, 
1667.00, 
1668.00, 
1669.00, 
1670.00, 
1671.00, 
1672.00, 
1673.00, 
1674.00, 
1675.00, 
1676.00, 
1677.00, 
1678.00, 
1679.00, 
1680.00, 
1681.00, 
1682.00, 
1683.00, 
1684.00, 
1685.00, 
1686.00, 
1687.00, 
1688.00, 
1689.00, 
1690.00, 
1691.00, 
1692.00, 
1693.00, 
1694.00, 
1695.00, 
1696.00, 
1697.00, 
1698.00, 
1699.00, 
1700.00, 
1701.00, 
1702.00, 
1703.00, 
1704.00, 
1705.00, 
1706.00, 
1707.00, 
1708.00, 
1709.00, 
1710.00, 
1711.00, 
1712.00, 
1713.00, 
1714.00, 
1715.00, 
1716.00, 
1717.00, 
1718.00, 
1719.00, 
1720.00, 
1721.00, 
1722.00, 
1723.00, 
1724.00, 
1725.00, 
1726.00, 
1727.00, 
1728.00, 
1729.00, 
1730.00, 
1731.00, 
1732.00, 
1733.00, 
1734.00, 
1735.00, 
1736.00, 
1737.00, 
1738.00, 
1739.00, 
1740.00, 
1741.00, 
1742.00, 
1743.00, 
1744.00, 
1745.00, 
1746.00, 
1747.00, 
1748.00, 
1749.00, 
1750.00, 
1751.00, 
1752.00, 
1753.00, 
1754.00, 
1755.00, 
1756.00, 
1757.00, 
1758.00, 
1759.00, 
1760.00, 
1761.00, 
1762.00, 
1763.00, 
1764.00, 
1765.00, 
1766.00, 
1767.00, 
1768.00, 
1769.00, 
1770.00, 
1771.00, 
1772.00, 
1773.00, 
1774.00, 
1775.00, 
1776.00, 
1777.00, 
1778.00, 
1779.00, 
1780.00, 
1781.00, 
1782.00, 
1783.00, 
1784.00, 
1785.00, 
1786.00, 
1787.00, 
1788.00, 
1789.00, 
1790.00, 
1791.00, 
1792.00, 
1793.00, 
1794.00, 
1795.00, 
1796.00, 
1797.00, 
1798.00, 
1799.00, 
1800.00, 
1801.00, 
1802.00, 
1803.00, 
1804.00, 
1805.00, 
1806.00, 
1807.00, 
1808.00, 
1809.00, 
1810.00, 
1811.00, 
1812.00, 
1813.00, 
1814.00, 
1815.00, 
1816.00, 
1817.00, 
1818.00, 
1819.00, 
1820.00, 
1821.00, 
1822.00, 
1823.00, 
1824.00, 
1825.00, 
1826.00, 
1827.00, 
1828.00, 
1829.00, 
1830.00, 
1831.00, 
1832.00, 
1833.00, 
1834.00, 
1835.00, 
1836.00, 
1837.00, 
1838.00, 
1839.00, 
1840.00, 
1841.00, 
1842.00, 
1843.00, 
1844.00, 
1845.00, 
1846.00, 
1847.00, 
1848.00, 
1849.00, 
1850.00, 
1851.00, 
1852.00, 
1853.00, 
1854.00, 
1855.00, 
1856.00, 
1857.00, 
1858.00, 
1859.00, 
1860.00, 
1861.00, 
1862.00, 
1863.00, 
1864.00, 
1865.00, 
1866.00, 
1867.00, 
1868.00, 
1869.00, 
1870.00, 
1871.00, 
1872.00, 
1873.00, 
1874.00, 
1875.00, 
1876.00, 
1877.00, 
1878.00, 
1879.00, 
1880.00, 
1881.00, 
1882.00, 
1883.00, 
1884.00, 
1885.00, 
1886.00, 
1887.00, 
1888.00, 
1889.00, 
1890.00, 
1891.00, 
1892.00, 
1893.00, 
1894.00, 
1895.00, 
1896.00, 
1897.00, 
1898.00, 
1899.00, 
1900.00, 
1901.00, 
1902.00, 
1903.00, 
1904.00, 
1905.00, 
1906.00, 
1907.00, 
1908.00, 
1909.00, 
1910.00, 
1911.00, 
1912.00, 
1913.00, 
1914.00, 
1915.00, 
1916.00, 
1917.00, 
1918.00, 
1919.00, 
1920.00, 
1921.00, 
1922.00, 
1923.00, 
1924.00, 
1925.00, 
1926.00, 
1927.00, 
1928.00, 
1929.00, 
1930.00, 
1931.00, 
1932.00, 
1933.00, 
1934.00, 
1935.00, 
1936.00, 
1937.00, 
1938.00, 
1939.00, 
1940.00, 
1941.00, 
1942.00, 
1943.00, 
1944.00, 
1945.00, 
1946.00, 
1947.00, 
1948.00, 
1949.00, 
1950.00, 
1951.00, 
1952.00, 
1953.00, 
1954.00, 
1955.00, 
1956.00, 
1957.00, 
1958.00, 
1959.00, 
1960.00, 
1961.00, 
1962.00, 
1963.00, 
1964.00, 
1965.00, 
1966.00, 
1967.00, 
1968.00, 
1969.00, 
1970.00, 
1971.00, 
1972.00, 
1973.00, 
1974.00, 
1975.00, 
1976.00, 
1977.00, 
1978.00, 
1979.00, 
1980.00, 
1981.00, 
1982.00, 
1983.00, 
1984.00, 
1985.00, 
1986.00, 
1987.00, 
1988.00, 
1989.00, 
1990.00, 
1991.00, 
1992.00, 
1993.00, 
1994.00, 
1995.00, 
1996.00, 
1997.00, 
1998.00, 
1999.00, 
2000.00, 
2001.00, 
2002.00, 
2003.00, 
2004.00, 
2005.00, 
2006.00, 
2007.00, 
2008.00, 
2009.00, 
2010.00, 
2011.00, 
2012.00, 
2013.00, 
2014.00, 
2015.00, 
2016.00, 
2017.00, 
2018.00, 
2019.00, 
2020.00, 
2021.00, 
2022.00, 
2023.00, 
2024.00, 
2025.00, 
2026.00, 
2027.00, 
2028.00, 
2029.00, 
2030.00, 
2031.00, 
2032.00, 
2033.00, 
2034.00, 
2035.00, 
2036.00, 
2037.00, 
2038.00, 
2039.00, 
2040.00, 
2041.00, 
2042.00, 
2043.00, 
2044.00, 
2045.00, 
2046.00, 
2047.00, 
2048.00, 
2049.00, 
2050.00, 
2051.00, 
2052.00, 
2053.00, 
2054.00, 
2055.00, 
2056.00, 
2057.00, 
2058.00, 
2059.00, 
2060.00, 
2061.00, 
2062.00, 
2063.00, 
2064.00, 
2065.00, 
2066.00, 
2067.00, 
2068.00, 
2069.00, 
2070.00, 
2071.00, 
2072.00, 
2073.00, 
2074.00, 
2075.00, 
2076.00, 
2077.00, 
2078.00, 
2079.00, 
2080.00, 
2081.00, 
2082.00, 
2083.00, 
2084.00, 
2085.00, 
2086.00, 
2087.00, 
2088.00, 
2089.00, 
2090.00, 
2091.00, 
2092.00, 
2093.00, 
2094.00, 
2095.00, 
2096.00, 
2097.00, 
2098.00, 
2099.00, 
2100.00, 
2101.00, 
2102.00, 
2103.00, 
2104.00, 
2105.00, 
2106.00, 
2107.00, 
2108.00, 
2109.00, 
2110.00, 
2111.00, 
2112.00, 
2113.00, 
2114.00, 
2115.00, 
2116.00, 
2117.00, 
2118.00, 
2119.00, 
2120.00, 
2121.00, 
2122.00, 
2123.00, 
2124.00, 
2125.00, 
2126.00, 
2127.00, 
2128.00, 
2129.00, 
2130.00, 
2131.00, 
2132.00, 
2133.00, 
2134.00, 
2135.00, 
2136.00, 
2137.00, 
2138.00, 
2139.00, 
2140.00, 
2141.00, 
2142.00, 
2143.00, 
2144.00, 
2145.00, 
2146.00, 
2147.00, 
2148.00, 
2149.00, 
2150.00, 
2151.00, 
2152.00, 
2153.00, 
2154.00, 
2155.00, 
2156.00, 
2157.00, 
2158.00, 
2159.00, 
2160.00, 
2161.00, 
2162.00, 
2163.00, 
2164.00, 
2165.00, 
2166.00, 
2167.00, 
2168.00, 
2169.00, 
2170.00, 
2171.00, 
2172.00, 
2173.00, 
2174.00, 
2175.00, 
2176.00, 
2177.00, 
2178.00, 
2179.00, 
2180.00, 
2181.00, 
2182.00, 
2183.00, 
2184.00, 
2185.00, 
2186.00, 
2187.00, 
2188.00, 
2189.00, 
2190.00, 
2191.00, 
2192.00, 
2193.00, 
2194.00, 
2195.00, 
2196.00, 
2197.00, 
2198.00, 
2199.00, 
2200.00, 
2201.00, 
2202.00, 
2203.00, 
2204.00, 
2205.00, 
2206.00, 
2207.00, 
2208.00, 
2209.00, 
2210.00, 
2211.00, 
2212.00, 
2213.00, 
2214.00, 
2215.00, 
2216.00, 
2217.00, 
2218.00, 
2219.00, 
2220.00, 
2221.00, 
2222.00, 
2223.00, 
2224.00, 
2225.00, 
2226.00, 
2227.00, 
2228.00, 
2229.00, 
2230.00, 
2231.00, 
2232.00, 
2233.00, 
2234.00, 
2235.00, 
2236.00, 
2237.00, 
2238.00, 
2239.00, 
2240.00, 
2241.00, 
2242.00, 
2243.00, 
2244.00, 
2245.00, 
2246.00, 
2247.00, 
2248.00, 
2249.00, 
2250.00, 
2251.00, 
2252.00, 
2253.00, 
2254.00, 
2255.00, 
2256.00, 
2257.00, 
2258.00, 
2259.00, 
2260.00, 
2261.00, 
2262.00, 
2263.00, 
2264.00, 
2265.00, 
2266.00, 
2267.00, 
2268.00, 
2269.00, 
2270.00, 
2271.00, 
2272.00, 
2273.00, 
2274.00, 
2275.00, 
2276.00, 
2277.00, 
2278.00, 
2279.00, 
2280.00, 
2281.00, 
2282.00, 
2283.00, 
2284.00, 
2285.00, 
2286.00, 
2287.00, 
2288.00, 
2289.00, 
2290.00, 
2291.00, 
2292.00, 
2293.00, 
2294.00, 
2295.00, 
2296.00, 
2297.00, 
2298.00, 
2299.00, 
2300.00, 
2301.00, 
2302.00, 
2303.00, 
2304.00, 
2305.00, 
2306.00, 
2307.00, 
2308.00, 
2309.00, 
2310.00, 
2311.00, 
2312.00, 
2313.00, 
2314.00, 
2315.00, 
2316.00, 
2317.00, 
2318.00, 
2319.00, 
2320.00, 
2321.00, 
2322.00, 
2323.00, 
2324.00, 
2325.00, 
2326.00, 
2327.00, 
2328.00, 
2329.00, 
2330.00, 
2331.00, 
2332.00, 
2333.00, 
2334.00, 
2335.00, 
2336.00, 
2337.00, 
2338.00, 
2339.00, 
2340.00, 
2341.00, 
2342.00, 
2343.00, 
2344.00, 
2345.00, 
2346.00, 
2347.00, 
2348.00, 
2349.00, 
2350.00, 
2351.00, 
2352.00, 
2353.00, 
2354.00, 
2355.00, 
2356.00, 
2357.00, 
2358.00, 
2359.00, 
2360.00, 
2361.00, 
2362.00, 
2363.00, 
2364.00, 
2365.00, 
2366.00, 
2367.00, 
2368.00, 
2369.00, 
2370.00, 
2371.00, 
2372.00, 
2373.00, 
2374.00, 
2375.00, 
2376.00, 
2377.00, 
2378.00, 
2379.00, 
2380.00, 
2381.00, 
2382.00, 
2383.00, 
2384.00, 
2385.00, 
2386.00, 
2387.00, 
2388.00, 
2389.00, 
2390.00, 
2391.00, 
2392.00, 
2393.00, 
2394.00, 
2395.00, 
2396.00, 
2397.00, 
2398.00, 
2399.00, 
2400.00, 
2401.00, 
2402.00, 
2403.00, 
2404.00, 
2405.00, 
2406.00, 
2407.00, 
2408.00, 
2409.00, 
2410.00, 
2411.00, 
2412.00, 
2413.00, 
2414.00, 
2415.00, 
2416.00, 
2417.00, 
2418.00, 
2419.00, 
2420.00, 
2421.00, 
2422.00, 
2423.00, 
2424.00, 
2425.00, 
2426.00, 
2427.00, 
2428.00, 
2429.00, 
2430.00, 
2431.00, 
2432.00, 
2433.00, 
2434.00, 
2435.00, 
2436.00, 
2437.00, 
2438.00, 
2439.00, 
2440.00, 
2441.00, 
2442.00, 
2443.00, 
2444.00, 
2445.00, 
2446.00, 
2447.00, 
2448.00, 
2449.00, 
2450.00, 
2451.00, 
2452.00, 
2453.00, 
2454.00, 
2455.00, 
2456.00, 
2457.00, 
2458.00, 
2459.00, 
2460.00, 
2461.00, 
2462.00, 
2463.00, 
2464.00, 
2465.00, 
2466.00, 
2467.00, 
2468.00, 
2469.00, 
2470.00, 
2471.00, 
2472.00, 
2473.00, 
2474.00, 
2475.00, 
2476.00, 
2477.00, 
2478.00, 
2479.00, 
2480.00, 
2481.00, 
2482.00, 
2483.00, 
2484.00, 
2485.00, 
2486.00, 
2487.00, 
2488.00, 
2489.00, 
2490.00, 
2491.00, 
2492.00, 
2493.00, 
2494.00, 
2495.00, 
2496.00, 
2497.00, 
2498.00, 
2499.00, 
2500.00, 
2501.00, 
2502.00, 
2503.00, 
2504.00, 
2505.00, 
2506.00, 
2507.00, 
2508.00, 
2509.00, 
2510.00, 
2511.00, 
2512.00, 
2513.00, 
2514.00, 
2515.00, 
2516.00, 
2517.00, 
2518.00, 
2519.00, 
2520.00, 
2521.00, 
2522.00, 
2523.00, 
2524.00, 
2525.00, 
2526.00, 
2527.00, 
2528.00, 
2529.00, 
2530.00, 
2531.00, 
2532.00, 
2533.00, 
2534.00, 
2535.00, 
2536.00, 
2537.00, 
2538.00, 
2539.00, 
2540.00, 
2541.00, 
2542.00, 
2543.00, 
2544.00, 
2545.00, 
2546.00, 
2547.00, 
2548.00, 
2549.00, 
2550.00, 
2551.00, 
2552.00, 
2553.00, 
2554.00, 
2555.00, 
2556.00, 
2557.00, 
2558.00, 
2559.00, 
2560.00, 
2561.00, 
2562.00, 
2563.00, 
2564.00, 
2565.00, 
2566.00, 
2567.00, 
2568.00, 
2569.00, 
2570.00, 
2571.00, 
2572.00, 
2573.00, 
2574.00, 
2575.00, 
2576.00, 
2577.00, 
2578.00, 
2579.00, 
2580.00, 
2581.00, 
2582.00, 
2583.00, 
2584.00, 
2585.00, 
2586.00, 
2587.00, 
2588.00, 
2589.00, 
2590.00, 
2591.00, 
2592.00, 
2593.00, 
2594.00, 
2595.00, 
2596.00, 
2597.00, 
2598.00, 
2599.00, 
2600.00, 
