"2cP4 - RawData"
"Wavelength nm.","T%"
200.00,0.003
201.00,0.002
202.00,-0.003
203.00,0.003
204.00,0.001
205.00,0.004
206.00,0.003
207.00,0.002
208.00,-0.003
209.00,-0.002
210.00,0.002
211.00,0.001
212.00,0.003
213.00,0.001
214.00,0.002
215.00,0.003
216.00,0.002
217.00,-0.003
218.00,0.001
219.00,-0.001
220.00,0.004
221.00,0.001
222.00,0.002
223.00,0.001
224.00,0.003
225.00,0.000
226.00,0.000
227.00,0.000
228.00,0.004
229.00,0.000
230.00,-0.000
231.00,0.001
232.00,0.001
233.00,-0.001
234.00,0.001
235.00,0.001
236.00,0.001
237.00,0.000
238.00,-0.000
239.00,-0.000
240.00,-0.000
241.00,0.000
242.00,0.000
243.00,0.003
244.00,0.001
245.00,0.000
246.00,0.001
247.00,0.001
248.00,-0.000
249.00,-0.002
250.00,-0.000
251.00,0.000
252.00,-0.000
253.00,-0.000
254.00,-0.000
255.00,0.002
256.00,0.002
257.00,-0.002
258.00,-0.001
259.00,0.000
260.00,-0.001
261.00,-0.000
262.00,0.001
263.00,0.000
264.00,-0.000
265.00,0.002
266.00,-0.001
267.00,0.001
268.00,-0.000
269.00,0.000
270.00,0.001
271.00,0.001
272.00,-0.000
273.00,0.000
274.00,0.000
275.00,0.000
276.00,-0.000
277.00,0.001
278.00,-0.001
279.00,0.000
280.00,0.000
281.00,0.001
282.00,0.001
283.00,-0.001
284.00,-0.000
285.00,0.002
286.00,0.001
287.00,-0.002
288.00,-0.000
289.00,0.000
290.00,-0.002
291.00,0.001
292.00,0.002
293.00,0.001
294.00,0.001
295.00,-0.000
296.00,0.000
297.00,-0.001
298.00,0.001
299.00,0.001
300.00,0.003
301.00,0.001
302.00,0.004
303.00,0.007
304.00,0.010
305.00,0.019
306.00,0.028
307.00,0.040
308.00,0.063
309.00,0.099
310.00,0.136
311.00,0.185
312.00,0.249
313.00,0.342
314.00,0.453
315.00,0.580
316.00,0.738
317.00,0.938
318.00,1.161
319.00,1.409
320.00,1.711
321.00,2.068
322.00,2.457
323.00,2.881
324.00,3.338
325.00,3.788
326.00,4.282
327.00,4.832
328.00,5.393
329.00,5.961
330.00,6.488
331.00,7.169
332.00,7.786
333.00,8.422
334.00,9.058
335.00,9.708
336.00,10.363
337.00,10.974
338.00,11.590
339.00,12.160
340.00,12.782
341.00,13.367
342.00,13.857
343.00,14.408
344.00,14.880
345.00,15.405
346.00,15.827
347.00,16.265
348.00,16.700
349.00,17.041
350.00,17.395
351.00,17.725
352.00,18.011
353.00,18.363
354.00,18.643
355.00,18.881
356.00,19.138
357.00,19.311
358.00,19.525
359.00,19.764
360.00,19.975
361.00,20.104
362.00,20.300
363.00,20.421
364.00,20.490
365.00,20.606
366.00,20.664
367.00,20.784
368.00,20.822
369.00,20.891
370.00,20.892
371.00,20.949
372.00,20.997
373.00,20.968
374.00,20.960
375.00,20.968
376.00,20.932
377.00,20.912
378.00,20.847
379.00,20.781
380.00,20.783
381.00,20.769
382.00,20.749
383.00,20.752
384.00,20.777
385.00,20.838
386.00,20.849
387.00,20.910
388.00,20.940
389.00,20.944
390.00,20.989
391.00,21.023
392.00,21.045
393.00,21.021
394.00,21.026
395.00,21.074
396.00,21.040
397.00,21.047
398.00,21.071
399.00,21.081
400.00,21.065
401.00,21.075
402.00,21.088
403.00,21.074
404.00,21.091
405.00,21.093
406.00,21.072
407.00,21.041
408.00,21.048
409.00,20.988
410.00,20.921
411.00,20.953
412.00,20.959
413.00,20.969
414.00,20.942
415.00,20.969
416.00,21.008
417.00,20.993
418.00,21.032
419.00,21.096
420.00,21.160
421.00,21.193
422.00,21.201
423.00,21.266
424.00,21.291
425.00,21.320
426.00,21.359
427.00,21.394
428.00,21.469
429.00,21.496
430.00,21.547
431.00,21.583
432.00,21.660
433.00,21.724
434.00,21.788
435.00,21.861
436.00,21.937
437.00,21.979
438.00,22.034
439.00,22.116
440.00,22.192
441.00,22.291
442.00,22.384
443.00,22.445
444.00,22.545
445.00,22.655
446.00,22.735
447.00,22.850
448.00,22.928
449.00,23.042
450.00,23.154
451.00,23.226
452.00,23.363
453.00,23.480
454.00,23.570
455.00,23.712
456.00,23.836
457.00,23.929
458.00,24.052
459.00,24.159
460.00,24.323
461.00,24.446
462.00,24.543
463.00,24.719
464.00,24.838
465.00,24.935
466.00,25.083
467.00,25.218
468.00,25.339
469.00,25.423
470.00,25.538
471.00,25.657
472.00,25.784
473.00,25.864
474.00,25.988
475.00,26.120
476.00,26.223
477.00,26.387
478.00,26.473
479.00,26.649
480.00,26.779
481.00,26.912
482.00,27.063
483.00,27.232
484.00,27.399
485.00,27.546
486.00,27.697
487.00,27.882
488.00,27.978
489.00,28.134
490.00,28.288
491.00,28.411
492.00,28.661
493.00,28.765
494.00,28.835
495.00,28.908
496.00,29.057
497.00,29.120
498.00,29.366
499.00,29.505
500.00,29.655
501.00,29.767
502.00,29.904
503.00,30.022
504.00,30.062
505.00,30.235
506.00,30.388
507.00,30.461
508.00,30.605
509.00,30.777
510.00,30.898
511.00,30.968
512.00,31.095
513.00,31.229
514.00,31.327
515.00,31.509
516.00,31.606
517.00,31.680
518.00,31.809
519.00,31.878
520.00,31.943
521.00,32.055
522.00,32.156
523.00,32.205
524.00,32.352
525.00,32.404
526.00,32.549
527.00,32.584
528.00,32.636
529.00,32.796
530.00,32.969
531.00,33.092
532.00,33.167
533.00,33.269
534.00,33.371
535.00,33.431
536.00,33.487
537.00,33.617
538.00,33.693
539.00,33.722
540.00,33.812
541.00,33.854
542.00,33.943
543.00,33.993
544.00,34.072
545.00,34.132
546.00,34.185
547.00,34.336
548.00,34.417
549.00,34.480
550.00,34.541
551.00,34.657
552.00,34.700
553.00,34.768
554.00,34.787
555.00,34.842
556.00,34.907
557.00,34.976
558.00,35.052
559.00,35.100
560.00,35.174
561.00,35.216
562.00,35.254
563.00,35.343
564.00,35.393
565.00,35.411
566.00,35.429
567.00,35.478
568.00,35.540
569.00,35.562
570.00,35.631
571.00,35.702
572.00,35.723
573.00,35.705
574.00,35.772
575.00,35.796
576.00,35.809
577.00,35.889
578.00,35.943
579.00,36.020
580.00,36.059
581.00,36.187
582.00,36.299
583.00,36.309
584.00,36.423
585.00,36.461
586.00,36.486
587.00,36.608
588.00,36.610
589.00,36.566
590.00,36.678
591.00,36.738
592.00,36.692
593.00,36.796
594.00,36.876
595.00,36.956
596.00,36.997
597.00,37.046
598.00,37.140
599.00,37.155
600.00,37.194
601.00,37.218
602.00,37.240
603.00,37.284
604.00,37.298
605.00,37.388
606.00,37.380
607.00,37.450
608.00,37.613
609.00,37.681
610.00,37.449
611.00,37.596
612.00,37.646
613.00,37.683
614.00,37.811
615.00,37.806
616.00,37.786
617.00,37.840
618.00,38.061
619.00,38.134
620.00,38.138
621.00,38.185
622.00,38.299
623.00,38.389
624.00,38.420
625.00,38.511
626.00,38.555
627.00,38.550
628.00,38.695
629.00,38.705
630.00,38.764
631.00,38.837
632.00,38.837
633.00,39.049
634.00,39.192
635.00,39.230
636.00,39.344
637.00,39.337
638.00,39.387
639.00,39.527
640.00,39.544
641.00,39.566
642.00,39.711
643.00,39.780
644.00,39.827
645.00,39.919
646.00,40.005
647.00,40.125
648.00,40.231
649.00,40.222
650.00,40.294
651.00,40.428
652.00,40.543
653.00,40.558
654.00,40.647
655.00,40.827
656.00,41.084
657.00,40.984
658.00,41.138
659.00,41.198
660.00,41.267
661.00,41.298
662.00,41.422
663.00,41.519
664.00,41.727
665.00,41.924
666.00,41.936
667.00,41.906
668.00,41.924
669.00,42.260
670.00,42.411
671.00,42.367
672.00,42.485
673.00,42.528
674.00,42.621
675.00,42.790
676.00,42.927
677.00,43.065
678.00,42.942
679.00,43.100
680.00,43.223
681.00,43.438
682.00,43.379
683.00,43.443
684.00,43.686
685.00,43.701
686.00,43.717
687.00,43.789
688.00,43.941
689.00,43.984
690.00,44.176
691.00,44.429
692.00,44.252
693.00,44.113
694.00,44.595
695.00,44.963
696.00,44.785
697.00,44.761
698.00,44.812
699.00,45.110
700.00,45.077
701.00,45.152
702.00,45.238
703.00,45.483
704.00,45.482
705.00,45.528
706.00,45.590
707.00,45.690
708.00,45.619
709.00,45.940
710.00,46.368
711.00,45.908
712.00,45.929
713.00,46.089
714.00,46.275
715.00,46.288
716.00,46.294
717.00,46.486
718.00,46.581
719.00,46.700
720.00,46.650
721.00,51.134
722.00,51.168
723.00,51.118
724.00,51.210
725.00,51.139
726.00,51.188
727.00,51.312
728.00,51.246
729.00,51.299
730.00,51.304
731.00,51.317
732.00,51.441
733.00,51.431
734.00,51.514
735.00,51.521
736.00,51.581
737.00,51.553
738.00,51.689
739.00,51.764
740.00,51.786
741.00,51.757
742.00,51.845
743.00,51.832
744.00,51.821
745.00,51.871
746.00,51.866
747.00,51.851
748.00,51.945
749.00,51.898
750.00,51.922
751.00,51.895
752.00,51.948
753.00,51.967
754.00,51.943
755.00,51.908
756.00,51.980
757.00,52.000
758.00,52.020
759.00,51.985
760.00,52.049
761.00,52.095
762.00,52.070
763.00,52.104
764.00,52.101
765.00,52.105
766.00,52.185
767.00,52.219
768.00,52.171
769.00,52.134
770.00,52.175
771.00,52.199
772.00,52.201
773.00,52.283
774.00,52.295
775.00,52.357
776.00,52.286
777.00,52.309
778.00,52.326
779.00,52.343
780.00,52.325
781.00,52.351
782.00,52.329
783.00,52.335
784.00,52.280
785.00,52.250
786.00,52.369
787.00,52.370
788.00,52.360
789.00,52.381
790.00,52.247
791.00,52.383
792.00,52.375
793.00,52.228
794.00,52.266
795.00,52.319
796.00,52.311
797.00,52.240
798.00,52.352
799.00,52.201
800.00,52.172
801.00,52.209
802.00,52.233
803.00,52.203
804.00,52.193
805.00,52.212
806.00,52.201
807.00,52.205
808.00,52.200
809.00,52.211
810.00,52.174
811.00,52.147
812.00,52.214
813.00,52.080
814.00,52.113
815.00,52.088
816.00,52.155
817.00,52.065
818.00,52.000
819.00,51.991
820.00,51.923
821.00,52.011
822.00,51.951
823.00,51.927
824.00,52.047
825.00,51.855
826.00,51.981
827.00,52.007
828.00,51.955
829.00,51.991
830.00,51.963
831.00,54.103
832.00,54.103
833.00,54.036
834.00,54.038
835.00,54.047
836.00,54.040
837.00,54.028
838.00,54.022
839.00,54.000
840.00,53.936
841.00,53.918
842.00,53.922
843.00,53.874
844.00,53.877
845.00,53.860
846.00,53.850
847.00,53.854
848.00,53.823
849.00,53.718
850.00,53.713
851.00,53.684
852.00,53.684
853.00,53.631
854.00,53.628
855.00,53.573
856.00,53.585
857.00,53.557
858.00,53.508
859.00,53.502
860.00,53.489
861.00,53.479
862.00,53.450
863.00,53.469
864.00,53.408
865.00,53.454
866.00,53.587
867.00,53.427
868.00,53.426
869.00,53.402
870.00,53.390
871.00,53.360
872.00,53.367
873.00,53.321
874.00,53.333
875.00,53.316
876.00,53.296
877.00,53.318
878.00,53.307
879.00,53.306
880.00,53.226
881.00,53.354
882.00,53.297
883.00,53.270
884.00,53.226
885.00,53.210
886.00,53.182
887.00,53.207
888.00,53.165
889.00,53.124
890.00,53.129
891.00,53.096
892.00,53.030
893.00,53.042
894.00,53.053
895.00,52.957
896.00,52.955
897.00,52.949
898.00,52.942
899.00,52.965
900.00,52.920
901.00,52.932
902.00,52.917
903.00,52.868
904.00,52.861
905.00,52.842
906.00,52.851
907.00,52.835
908.00,52.768
909.00,52.792
910.00,52.894
911.00,52.732
912.00,52.765
913.00,52.696
914.00,52.698
915.00,52.672
916.00,52.656
917.00,52.624
918.00,52.631
919.00,52.608
920.00,52.523
921.00,52.674
922.00,52.576
923.00,52.537
924.00,52.494
925.00,52.497
926.00,52.498
927.00,52.460
928.00,52.428
929.00,52.445
930.00,52.390
931.00,52.381
932.00,52.362
933.00,52.373
934.00,52.308
935.00,52.262
936.00,52.386
937.00,52.258
938.00,52.261
939.00,52.233
940.00,52.215
941.00,52.192
942.00,52.164
943.00,52.189
944.00,52.124
945.00,52.133
946.00,52.116
947.00,52.102
948.00,52.075
949.00,52.055
950.00,52.037
951.00,52.007
952.00,51.981
953.00,51.974
954.00,51.950
955.00,51.883
956.00,51.878
957.00,51.857
958.00,51.859
959.00,51.824
960.00,51.813
961.00,51.794
962.00,51.799
963.00,51.741
964.00,51.755
965.00,51.727
966.00,51.695
967.00,51.759
968.00,51.693
969.00,51.696
970.00,51.681
971.00,51.697
972.00,51.656
973.00,51.703
974.00,51.724
975.00,51.675
976.00,51.705
977.00,51.699
978.00,51.733
979.00,51.684
980.00,51.691
981.00,51.705
982.00,51.666
983.00,51.654
984.00,51.650
985.00,51.662
986.00,51.628
987.00,51.655
988.00,51.629
989.00,51.610
990.00,51.613
991.00,51.590
992.00,51.620
993.00,51.579
994.00,51.549
995.00,51.556
996.00,51.550
997.00,51.534
998.00,51.506
999.00,51.532
1000.00,51.485
1001.00,51.487
1002.00,51.469
1003.00,51.473
1004.00,51.452
1005.00,51.407
1006.00,51.440
1007.00,51.408
1008.00,51.400
1009.00,51.388
1010.00,51.375
1011.00,51.374
1012.00,51.337
1013.00,51.339
1014.00,51.305
1015.00,51.325
1016.00,51.281
1017.00,51.270
1018.00,51.277
1019.00,51.229
1020.00,51.232
1021.00,51.203
1022.00,51.200
1023.00,51.160
1024.00,51.153
1025.00,51.149
1026.00,51.133
1027.00,51.100
1028.00,51.089
1029.00,51.097
1030.00,51.065
1031.00,51.067
1032.00,51.035
1033.00,51.040
1034.00,51.018
1035.00,50.971
1036.00,50.953
1037.00,50.934
1038.00,50.894
1039.00,50.870
1040.00,50.860
1041.00,50.822
1042.00,50.847
1043.00,50.810
1044.00,50.846
1045.00,50.831
1046.00,50.795
1047.00,50.826
1048.00,50.846
1049.00,50.841
1050.00,50.846
1051.00,50.891
1052.00,50.895
1053.00,50.903
1054.00,50.889
1055.00,50.916
1056.00,50.932
1057.00,50.924
1058.00,50.917
1059.00,50.902
1060.00,50.899
1061.00,50.899
1062.00,50.890
1063.00,50.888
1064.00,50.885
1065.00,50.859
1066.00,50.840
1067.00,50.844
1068.00,50.860
1069.00,50.825
1070.00,50.797
1071.00,50.785
1072.00,50.811
1073.00,50.789
1074.00,50.790
1075.00,50.780
1076.00,50.772
1077.00,50.757
1078.00,50.733
1079.00,50.713
1080.00,50.719
1081.00,50.713
1082.00,50.692
1083.00,50.686
1084.00,50.676
1085.00,50.669
1086.00,50.666
1087.00,50.651
1088.00,50.635
1089.00,50.630
1090.00,50.629
1091.00,50.637
1092.00,50.621
1093.00,50.594
1094.00,50.575
1095.00,50.574
1096.00,50.572
1097.00,50.566
1098.00,50.545
1099.00,50.534
1100.00,50.528
1101.00,50.515
1102.00,50.522
1103.00,50.525
1104.00,50.499
1105.00,50.504
1106.00,50.492
1107.00,50.482
1108.00,50.469
1109.00,50.455
1110.00,50.447
1111.00,50.441
1112.00,50.423
1113.00,50.414
1114.00,50.416
1115.00,50.419
1116.00,50.412
1117.00,50.392
1118.00,50.390
1119.00,50.393
1120.00,50.384
1121.00,50.383
1122.00,50.377
1123.00,50.373
1124.00,50.356
1125.00,50.349
1126.00,50.340
1127.00,50.346
1128.00,50.336
1129.00,50.298
1130.00,50.301
1131.00,50.278
1132.00,50.274
1133.00,50.300
1134.00,50.295
1135.00,50.256
1136.00,50.260
1137.00,50.255
1138.00,50.235
1139.00,50.246
1140.00,50.246
1141.00,50.243
1142.00,50.218
1143.00,50.228
1144.00,50.211
1145.00,50.200
1146.00,50.209
1147.00,50.206
1148.00,50.192
1149.00,50.224
1150.00,50.238
1151.00,50.208
1152.00,50.199
1153.00,50.192
1154.00,50.192
1155.00,50.188
1156.00,50.161
1157.00,50.170
1158.00,50.174
1159.00,50.160
1160.00,50.153
1161.00,50.168
1162.00,50.155
1163.00,50.158
1164.00,50.163
1165.00,50.175
1166.00,50.148
1167.00,50.132
1168.00,50.150
1169.00,50.135
1170.00,50.129
1171.00,50.109
1172.00,50.119
1173.00,50.121
1174.00,50.132
1175.00,50.132
1176.00,50.138
1177.00,50.128
1178.00,50.117
1179.00,50.143
1180.00,50.140
1181.00,50.136
1182.00,50.131
1183.00,50.108
1184.00,50.098
1185.00,50.120
1186.00,50.091
1187.00,50.101
1188.00,50.098
1189.00,50.092
1190.00,50.090
1191.00,50.081
1192.00,50.088
1193.00,50.072
1194.00,50.100
1195.00,50.072
1196.00,50.101
1197.00,50.089
1198.00,50.076
1199.00,50.074
1200.00,50.065
1201.00,50.088
1202.00,50.072
1203.00,50.060
1204.00,50.052
1205.00,50.074
1206.00,50.069
1207.00,50.076
1208.00,50.062
1209.00,50.075
1210.00,50.103
1211.00,50.068
1212.00,50.075
1213.00,50.044
1214.00,50.060
1215.00,50.050
1216.00,50.060
1217.00,50.043
1218.00,50.034
1219.00,50.050
1220.00,50.044
1221.00,50.060
1222.00,50.043
1223.00,50.075
1224.00,50.069
1225.00,50.048
1226.00,50.065
1227.00,50.037
1228.00,50.049
1229.00,50.046
1230.00,50.071
1231.00,50.075
1232.00,50.099
1233.00,50.099
1234.00,50.103
1235.00,50.092
1236.00,50.086
1237.00,50.096
1238.00,50.101
1239.00,50.112
1240.00,50.097
1241.00,50.087
1242.00,50.101
1243.00,50.123
1244.00,50.089
1245.00,50.112
1246.00,50.134
1247.00,50.108
1248.00,50.107
1249.00,50.118
1250.00,50.122
1251.00,50.112
1252.00,50.127
1253.00,50.113
1254.00,50.133
1255.00,50.116
1256.00,50.108
1257.00,50.105
1258.00,50.131
1259.00,50.123
1260.00,50.141
1261.00,50.146
1262.00,50.139
1263.00,50.138
1264.00,50.137
1265.00,50.148
1266.00,50.136
1267.00,50.164
1268.00,50.173
1269.00,50.164
1270.00,50.182
1271.00,50.200
1272.00,50.191
1273.00,50.199
1274.00,50.182
1275.00,50.193
1276.00,50.197
1277.00,50.194
1278.00,50.214
1279.00,50.207
1280.00,50.204
1281.00,50.218
1282.00,50.220
1283.00,50.224
1284.00,50.247
1285.00,50.220
1286.00,50.231
1287.00,50.231
1288.00,50.224
1289.00,50.216
1290.00,50.251
1291.00,50.255
1292.00,50.253
1293.00,50.255
1294.00,50.268
1295.00,50.293
1296.00,50.300
1297.00,50.295
1298.00,50.322
1299.00,50.301
1300.00,50.303
1301.00,50.296
1302.00,50.309
1303.00,50.317
1304.00,50.295
1305.00,50.321
1306.00,50.333
1307.00,50.320
1308.00,50.316
1309.00,50.326
1310.00,50.322
1311.00,50.325
1312.00,50.340
1313.00,50.349
1314.00,50.368
1315.00,50.375
1316.00,50.374
1317.00,50.387
1318.00,50.371
1319.00,50.393
1320.00,50.425
1321.00,50.538
1322.00,50.562
1323.00,50.538
1324.00,50.556
1325.00,50.544
1326.00,50.559
1327.00,50.538
1328.00,50.544
1329.00,50.542
1330.00,50.545
1331.00,50.550
1332.00,50.530
1333.00,50.550
1334.00,50.571
1335.00,50.575
1336.00,50.603
1337.00,50.634
1338.00,50.679
1339.00,50.737
1340.00,50.801
1341.00,50.873
1342.00,50.944
1343.00,50.976
1344.00,51.025
1345.00,51.081
1346.00,51.098
1347.00,51.154
1348.00,51.170
1349.00,51.171
1350.00,51.192
1351.00,51.202
1352.00,51.209
1353.00,51.228
1354.00,51.228
1355.00,51.203
1356.00,51.245
1357.00,51.235
1358.00,51.273
1359.00,51.259
1360.00,51.282
1361.00,51.295
1362.00,51.197
1363.00,51.307
1364.00,51.339
1365.00,51.237
1366.00,51.287
1367.00,51.256
1368.00,51.207
1369.00,51.246
1370.00,51.226
1371.00,51.193
1372.00,51.214
1373.00,51.218
1374.00,51.250
1375.00,51.224
1376.00,51.210
1377.00,51.198
1378.00,51.222
1379.00,51.215
1380.00,51.209
1381.00,51.259
1382.00,51.231
1383.00,51.198
1384.00,51.163
1385.00,51.170
1386.00,51.248
1387.00,51.161
1388.00,51.221
1389.00,51.138
1390.00,51.203
1391.00,51.209
1392.00,51.172
1393.00,51.192
1394.00,51.230
1395.00,51.183
1396.00,51.163
1397.00,51.168
1398.00,51.233
1399.00,51.264
1400.00,51.178
1401.00,51.185
1402.00,51.260
1403.00,51.254
1404.00,51.211
1405.00,51.247
1406.00,51.240
1407.00,51.240
1408.00,51.257
1409.00,51.229
1410.00,51.266
1411.00,51.258
1412.00,51.301
1413.00,51.267
1414.00,51.286
1415.00,51.313
1416.00,51.330
1417.00,51.336
1418.00,51.332
1419.00,51.342
1420.00,51.351
1421.00,51.373
1422.00,51.372
1423.00,51.369
1424.00,51.403
1425.00,51.413
1426.00,51.411
1427.00,51.448
1428.00,51.437
1429.00,51.457
1430.00,51.464
1431.00,51.478
1432.00,51.501
1433.00,51.518
1434.00,51.488
1435.00,51.554
1436.00,51.571
1437.00,51.542
1438.00,51.581
1439.00,51.608
1440.00,51.618
1441.00,51.632
1442.00,51.620
1443.00,51.665
1444.00,51.696
1445.00,51.661
1446.00,51.689
1447.00,51.722
1448.00,51.765
1449.00,51.741
1450.00,51.749
1451.00,51.764
1452.00,51.787
1453.00,51.790
1454.00,51.815
1455.00,51.832
1456.00,51.840
1457.00,51.866
1458.00,51.871
1459.00,51.879
1460.00,51.911
1461.00,51.915
1462.00,51.942
1463.00,51.959
1464.00,51.961
1465.00,51.976
1466.00,51.978
1467.00,51.994
1468.00,52.050
1469.00,52.025
1470.00,52.034
1471.00,52.079
1472.00,52.075
1473.00,52.074
1474.00,52.106
1475.00,52.095
1476.00,52.114
1477.00,52.115
1478.00,52.130
1479.00,52.162
1480.00,52.149
1481.00,52.157
1482.00,52.206
1483.00,52.184
1484.00,52.202
1485.00,52.230
1486.00,52.217
1487.00,52.248
1488.00,52.273
1489.00,52.255
1490.00,52.299
1491.00,52.305
1492.00,52.315
1493.00,52.310
1494.00,52.328
1495.00,52.334
1496.00,52.344
1497.00,52.352
1498.00,52.360
1499.00,52.383
1500.00,52.401
1501.00, 
1502.00, 
1503.00, 
1504.00, 
1505.00, 
1506.00, 
1507.00, 
1508.00, 
1509.00, 
1510.00, 
1511.00, 
1512.00, 
1513.00, 
1514.00, 
1515.00, 
1516.00, 
1517.00, 
1518.00, 
1519.00, 
1520.00, 
1521.00, 
1522.00, 
1523.00, 
1524.00, 
1525.00, 
1526.00, 
1527.00, 
1528.00, 
1529.00, 
1530.00, 
1531.00, 
1532.00, 
1533.00, 
1534.00, 
1535.00, 
1536.00, 
1537.00, 
1538.00, 
1539.00, 
1540.00, 
1541.00, 
1542.00, 
1543.00, 
1544.00, 
1545.00, 
1546.00, 
1547.00, 
1548.00, 
1549.00, 
1550.00, 
1551.00, 
1552.00, 
1553.00, 
1554.00, 
1555.00, 
1556.00, 
1557.00, 
1558.00, 
1559.00, 
1560.00, 
1561.00, 
1562.00, 
1563.00, 
1564.00, 
1565.00, 
1566.00, 
1567.00, 
1568.00, 
1569.00, 
1570.00, 
1571.00, 
1572.00, 
1573.00, 
1574.00, 
1575.00, 
1576.00, 
1577.00, 
1578.00, 
1579.00, 
1580.00, 
1581.00, 
1582.00, 
1583.00, 
1584.00, 
1585.00, 
1586.00, 
1587.00, 
1588.00, 
1589.00, 
1590.00, 
1591.00, 
1592.00, 
1593.00, 
1594.00, 
1595.00, 
1596.00, 
1597.00, 
1598.00, 
1599.00, 
1600.00, 
1601.00, 
1602.00, 
1603.00, 
1604.00, 
1605.00, 
1606.00, 
1607.00, 
1608.00, 
1609.00, 
1610.00, 
1611.00, 
1612.00, 
1613.00, 
1614.00, 
1615.00, 
1616.00, 
1617.00, 
1618.00, 
1619.00, 
1620.00, 
1621.00, 
1622.00, 
1623.00, 
1624.00, 
1625.00, 
1626.00, 
1627.00, 
1628.00, 
1629.00, 
1630.00, 
1631.00, 
1632.00, 
1633.00, 
1634.00, 
1635.00, 
1636.00, 
1637.00, 
1638.00, 
1639.00, 
1640.00, 
1641.00, 
1642.00, 
1643.00, 
1644.00, 
1645.00, 
1646.00, 
1647.00, 
1648.00, 
1649.00, 
1650.00, 
1651.00, 
1652.00, 
1653.00, 
1654.00, 
1655.00, 
1656.00, 
1657.00, 
1658.00, 
1659.00, 
1660.00, 
1661.00, 
1662.00, 
1663.00, 
1664.00, 
1665.00, 
1666.00, 
1667.00, 
1668.00, 
1669.00, 
1670.00, 
1671.00, 
1672.00, 
1673.00, 
1674.00, 
1675.00, 
1676.00, 
1677.00, 
1678.00, 
1679.00, 
1680.00, 
1681.00, 
1682.00, 
1683.00, 
1684.00, 
1685.00, 
1686.00, 
1687.00, 
1688.00, 
1689.00, 
1690.00, 
1691.00, 
1692.00, 
1693.00, 
1694.00, 
1695.00, 
1696.00, 
1697.00, 
1698.00, 
1699.00, 
1700.00, 
1701.00, 
1702.00, 
1703.00, 
1704.00, 
1705.00, 
1706.00, 
1707.00, 
1708.00, 
1709.00, 
1710.00, 
1711.00, 
1712.00, 
1713.00, 
1714.00, 
1715.00, 
1716.00, 
1717.00, 
1718.00, 
1719.00, 
1720.00, 
1721.00, 
1722.00, 
1723.00, 
1724.00, 
1725.00, 
1726.00, 
1727.00, 
1728.00, 
1729.00, 
1730.00, 
1731.00, 
1732.00, 
1733.00, 
1734.00, 
1735.00, 
1736.00, 
1737.00, 
1738.00, 
1739.00, 
1740.00, 
1741.00, 
1742.00, 
1743.00, 
1744.00, 
1745.00, 
1746.00, 
1747.00, 
1748.00, 
1749.00, 
1750.00, 
1751.00, 
1752.00, 
1753.00, 
1754.00, 
1755.00, 
1756.00, 
1757.00, 
1758.00, 
1759.00, 
1760.00, 
1761.00, 
1762.00, 
1763.00, 
1764.00, 
1765.00, 
1766.00, 
1767.00, 
1768.00, 
1769.00, 
1770.00, 
1771.00, 
1772.00, 
1773.00, 
1774.00, 
1775.00, 
1776.00, 
1777.00, 
1778.00, 
1779.00, 
1780.00, 
1781.00, 
1782.00, 
1783.00, 
1784.00, 
1785.00, 
1786.00, 
1787.00, 
1788.00, 
1789.00, 
1790.00, 
1791.00, 
1792.00, 
1793.00, 
1794.00, 
1795.00, 
1796.00, 
1797.00, 
1798.00, 
1799.00, 
1800.00, 
1801.00, 
1802.00, 
1803.00, 
1804.00, 
1805.00, 
1806.00, 
1807.00, 
1808.00, 
1809.00, 
1810.00, 
1811.00, 
1812.00, 
1813.00, 
1814.00, 
1815.00, 
1816.00, 
1817.00, 
1818.00, 
1819.00, 
1820.00, 
1821.00, 
1822.00, 
1823.00, 
1824.00, 
1825.00, 
1826.00, 
1827.00, 
1828.00, 
1829.00, 
1830.00, 
1831.00, 
1832.00, 
1833.00, 
1834.00, 
1835.00, 
1836.00, 
1837.00, 
1838.00, 
1839.00, 
1840.00, 
1841.00, 
1842.00, 
1843.00, 
1844.00, 
1845.00, 
1846.00, 
1847.00, 
1848.00, 
1849.00, 
1850.00, 
1851.00, 
1852.00, 
1853.00, 
1854.00, 
1855.00, 
1856.00, 
1857.00, 
1858.00, 
1859.00, 
1860.00, 
1861.00, 
1862.00, 
1863.00, 
1864.00, 
1865.00, 
1866.00, 
1867.00, 
1868.00, 
1869.00, 
1870.00, 
1871.00, 
1872.00, 
1873.00, 
1874.00, 
1875.00, 
1876.00, 
1877.00, 
1878.00, 
1879.00, 
1880.00, 
1881.00, 
1882.00, 
1883.00, 
1884.00, 
1885.00, 
1886.00, 
1887.00, 
1888.00, 
1889.00, 
1890.00, 
1891.00, 
1892.00, 
1893.00, 
1894.00, 
1895.00, 
1896.00, 
1897.00, 
1898.00, 
1899.00, 
1900.00, 
1901.00, 
1902.00, 
1903.00, 
1904.00, 
1905.00, 
1906.00, 
1907.00, 
1908.00, 
1909.00, 
1910.00, 
1911.00, 
1912.00, 
1913.00, 
1914.00, 
1915.00, 
1916.00, 
1917.00, 
1918.00, 
1919.00, 
1920.00, 
1921.00, 
1922.00, 
1923.00, 
1924.00, 
1925.00, 
1926.00, 
1927.00, 
1928.00, 
1929.00, 
1930.00, 
1931.00, 
1932.00, 
1933.00, 
1934.00, 
1935.00, 
1936.00, 
1937.00, 
1938.00, 
1939.00, 
1940.00, 
1941.00, 
1942.00, 
1943.00, 
1944.00, 
1945.00, 
1946.00, 
1947.00, 
1948.00, 
1949.00, 
1950.00, 
1951.00, 
1952.00, 
1953.00, 
1954.00, 
1955.00, 
1956.00, 
1957.00, 
1958.00, 
1959.00, 
1960.00, 
1961.00, 
1962.00, 
1963.00, 
1964.00, 
1965.00, 
1966.00, 
1967.00, 
1968.00, 
1969.00, 
1970.00, 
1971.00, 
1972.00, 
1973.00, 
1974.00, 
1975.00, 
1976.00, 
1977.00, 
1978.00, 
1979.00, 
1980.00, 
1981.00, 
1982.00, 
1983.00, 
1984.00, 
1985.00, 
1986.00, 
1987.00, 
1988.00, 
1989.00, 
1990.00, 
1991.00, 
1992.00, 
1993.00, 
1994.00, 
1995.00, 
1996.00, 
1997.00, 
1998.00, 
1999.00, 
2000.00, 
2001.00, 
2002.00, 
2003.00, 
2004.00, 
2005.00, 
2006.00, 
2007.00, 
2008.00, 
2009.00, 
2010.00, 
2011.00, 
2012.00, 
2013.00, 
2014.00, 
2015.00, 
2016.00, 
2017.00, 
2018.00, 
2019.00, 
2020.00, 
2021.00, 
2022.00, 
2023.00, 
2024.00, 
2025.00, 
2026.00, 
2027.00, 
2028.00, 
2029.00, 
2030.00, 
2031.00, 
2032.00, 
2033.00, 
2034.00, 
2035.00, 
2036.00, 
2037.00, 
2038.00, 
2039.00, 
2040.00, 
2041.00, 
2042.00, 
2043.00, 
2044.00, 
2045.00, 
2046.00, 
2047.00, 
2048.00, 
2049.00, 
2050.00, 
2051.00, 
2052.00, 
2053.00, 
2054.00, 
2055.00, 
2056.00, 
2057.00, 
2058.00, 
2059.00, 
2060.00, 
2061.00, 
2062.00, 
2063.00, 
2064.00, 
2065.00, 
2066.00, 
2067.00, 
2068.00, 
2069.00, 
2070.00, 
2071.00, 
2072.00, 
2073.00, 
2074.00, 
2075.00, 
2076.00, 
2077.00, 
2078.00, 
2079.00, 
2080.00, 
2081.00, 
2082.00, 
2083.00, 
2084.00, 
2085.00, 
2086.00, 
2087.00, 
2088.00, 
2089.00, 
2090.00, 
2091.00, 
2092.00, 
2093.00, 
2094.00, 
2095.00, 
2096.00, 
2097.00, 
2098.00, 
2099.00, 
2100.00, 
2101.00, 
2102.00, 
2103.00, 
2104.00, 
2105.00, 
2106.00, 
2107.00, 
2108.00, 
2109.00, 
2110.00, 
2111.00, 
2112.00, 
2113.00, 
2114.00, 
2115.00, 
2116.00, 
2117.00, 
2118.00, 
2119.00, 
2120.00, 
2121.00, 
2122.00, 
2123.00, 
2124.00, 
2125.00, 
2126.00, 
2127.00, 
2128.00, 
2129.00, 
2130.00, 
2131.00, 
2132.00, 
2133.00, 
2134.00, 
2135.00, 
2136.00, 
2137.00, 
2138.00, 
2139.00, 
2140.00, 
2141.00, 
2142.00, 
2143.00, 
2144.00, 
2145.00, 
2146.00, 
2147.00, 
2148.00, 
2149.00, 
2150.00, 
2151.00, 
2152.00, 
2153.00, 
2154.00, 
2155.00, 
2156.00, 
2157.00, 
2158.00, 
2159.00, 
2160.00, 
2161.00, 
2162.00, 
2163.00, 
2164.00, 
2165.00, 
2166.00, 
2167.00, 
2168.00, 
2169.00, 
2170.00, 
2171.00, 
2172.00, 
2173.00, 
2174.00, 
2175.00, 
2176.00, 
2177.00, 
2178.00, 
2179.00, 
2180.00, 
2181.00, 
2182.00, 
2183.00, 
2184.00, 
2185.00, 
2186.00, 
2187.00, 
2188.00, 
2189.00, 
2190.00, 
2191.00, 
2192.00, 
2193.00, 
2194.00, 
2195.00, 
2196.00, 
2197.00, 
2198.00, 
2199.00, 
2200.00, 
2201.00, 
2202.00, 
2203.00, 
2204.00, 
2205.00, 
2206.00, 
2207.00, 
2208.00, 
2209.00, 
2210.00, 
2211.00, 
2212.00, 
2213.00, 
2214.00, 
2215.00, 
2216.00, 
2217.00, 
2218.00, 
2219.00, 
2220.00, 
2221.00, 
2222.00, 
2223.00, 
2224.00, 
2225.00, 
2226.00, 
2227.00, 
2228.00, 
2229.00, 
2230.00, 
2231.00, 
2232.00, 
2233.00, 
2234.00, 
2235.00, 
2236.00, 
2237.00, 
2238.00, 
2239.00, 
2240.00, 
2241.00, 
2242.00, 
2243.00, 
2244.00, 
2245.00, 
2246.00, 
2247.00, 
2248.00, 
2249.00, 
2250.00, 
2251.00, 
2252.00, 
2253.00, 
2254.00, 
2255.00, 
2256.00, 
2257.00, 
2258.00, 
2259.00, 
2260.00, 
2261.00, 
2262.00, 
2263.00, 
2264.00, 
2265.00, 
2266.00, 
2267.00, 
2268.00, 
2269.00, 
2270.00, 
2271.00, 
2272.00, 
2273.00, 
2274.00, 
2275.00, 
2276.00, 
2277.00, 
2278.00, 
2279.00, 
2280.00, 
2281.00, 
2282.00, 
2283.00, 
2284.00, 
2285.00, 
2286.00, 
2287.00, 
2288.00, 
2289.00, 
2290.00, 
2291.00, 
2292.00, 
2293.00, 
2294.00, 
2295.00, 
2296.00, 
2297.00, 
2298.00, 
2299.00, 
2300.00, 
2301.00, 
2302.00, 
2303.00, 
2304.00, 
2305.00, 
2306.00, 
2307.00, 
2308.00, 
2309.00, 
2310.00, 
2311.00, 
2312.00, 
2313.00, 
2314.00, 
2315.00, 
2316.00, 
2317.00, 
2318.00, 
2319.00, 
2320.00, 
2321.00, 
2322.00, 
2323.00, 
2324.00, 
2325.00, 
2326.00, 
2327.00, 
2328.00, 
2329.00, 
2330.00, 
2331.00, 
2332.00, 
2333.00, 
2334.00, 
2335.00, 
2336.00, 
2337.00, 
2338.00, 
2339.00, 
2340.00, 
2341.00, 
2342.00, 
2343.00, 
2344.00, 
2345.00, 
2346.00, 
2347.00, 
2348.00, 
2349.00, 
2350.00, 
2351.00, 
2352.00, 
2353.00, 
2354.00, 
2355.00, 
2356.00, 
2357.00, 
2358.00, 
2359.00, 
2360.00, 
2361.00, 
2362.00, 
2363.00, 
2364.00, 
2365.00, 
2366.00, 
2367.00, 
2368.00, 
2369.00, 
2370.00, 
2371.00, 
2372.00, 
2373.00, 
2374.00, 
2375.00, 
2376.00, 
2377.00, 
2378.00, 
2379.00, 
2380.00, 
2381.00, 
2382.00, 
2383.00, 
2384.00, 
2385.00, 
2386.00, 
2387.00, 
2388.00, 
2389.00, 
2390.00, 
2391.00, 
2392.00, 
2393.00, 
2394.00, 
2395.00, 
2396.00, 
2397.00, 
2398.00, 
2399.00, 
2400.00, 
2401.00, 
2402.00, 
2403.00, 
2404.00, 
2405.00, 
2406.00, 
2407.00, 
2408.00, 
2409.00, 
2410.00, 
2411.00, 
2412.00, 
2413.00, 
2414.00, 
2415.00, 
2416.00, 
2417.00, 
2418.00, 
2419.00, 
2420.00, 
2421.00, 
2422.00, 
2423.00, 
2424.00, 
2425.00, 
2426.00, 
2427.00, 
2428.00, 
2429.00, 
2430.00, 
2431.00, 
2432.00, 
2433.00, 
2434.00, 
2435.00, 
2436.00, 
2437.00, 
2438.00, 
2439.00, 
2440.00, 
2441.00, 
2442.00, 
2443.00, 
2444.00, 
2445.00, 
2446.00, 
2447.00, 
2448.00, 
2449.00, 
2450.00, 
2451.00, 
2452.00, 
2453.00, 
2454.00, 
2455.00, 
2456.00, 
2457.00, 
2458.00, 
2459.00, 
2460.00, 
2461.00, 
2462.00, 
2463.00, 
2464.00, 
2465.00, 
2466.00, 
2467.00, 
2468.00, 
2469.00, 
2470.00, 
2471.00, 
2472.00, 
2473.00, 
2474.00, 
2475.00, 
2476.00, 
2477.00, 
2478.00, 
2479.00, 
2480.00, 
2481.00, 
2482.00, 
2483.00, 
2484.00, 
2485.00, 
2486.00, 
2487.00, 
2488.00, 
2489.00, 
2490.00, 
2491.00, 
2492.00, 
2493.00, 
2494.00, 
2495.00, 
2496.00, 
2497.00, 
2498.00, 
2499.00, 
2500.00, 
2501.00, 
2502.00, 
2503.00, 
2504.00, 
2505.00, 
2506.00, 
2507.00, 
2508.00, 
2509.00, 
2510.00, 
2511.00, 
2512.00, 
2513.00, 
2514.00, 
2515.00, 
2516.00, 
2517.00, 
2518.00, 
2519.00, 
2520.00, 
2521.00, 
2522.00, 
2523.00, 
2524.00, 
2525.00, 
2526.00, 
2527.00, 
2528.00, 
2529.00, 
2530.00, 
2531.00, 
2532.00, 
2533.00, 
2534.00, 
2535.00, 
2536.00, 
2537.00, 
2538.00, 
2539.00, 
2540.00, 
2541.00, 
2542.00, 
2543.00, 
2544.00, 
2545.00, 
2546.00, 
2547.00, 
2548.00, 
2549.00, 
2550.00, 
2551.00, 
2552.00, 
2553.00, 
2554.00, 
2555.00, 
2556.00, 
2557.00, 
2558.00, 
2559.00, 
2560.00, 
2561.00, 
2562.00, 
2563.00, 
2564.00, 
2565.00, 
2566.00, 
2567.00, 
2568.00, 
2569.00, 
2570.00, 
2571.00, 
2572.00, 
2573.00, 
2574.00, 
2575.00, 
2576.00, 
2577.00, 
2578.00, 
2579.00, 
2580.00, 
2581.00, 
2582.00, 
2583.00, 
2584.00, 
2585.00, 
2586.00, 
2587.00, 
2588.00, 
2589.00, 
2590.00, 
2591.00, 
2592.00, 
2593.00, 
2594.00, 
2595.00, 
2596.00, 
2597.00, 
2598.00, 
2599.00, 
2600.00, 
