"1aP2 - RawData"
"Wavelength nm.","T%"
200.00,0.002
201.00,0.004
202.00,-0.001
203.00,0.002
204.00,0.001
205.00,0.003
206.00,0.001
207.00,0.003
208.00,-0.000
209.00,0.001
210.00,0.000
211.00,0.001
212.00,0.003
213.00,-0.001
214.00,0.001
215.00,0.001
216.00,0.001
217.00,-0.001
218.00,-0.000
219.00,0.001
220.00,-0.000
221.00,-0.000
222.00,0.001
223.00,0.003
224.00,-0.001
225.00,0.002
226.00,0.003
227.00,0.001
228.00,-0.001
229.00,0.001
230.00,-0.000
231.00,0.001
232.00,-0.000
233.00,-0.000
234.00,0.000
235.00,-0.000
236.00,0.000
237.00,0.002
238.00,-0.001
239.00,0.000
240.00,0.001
241.00,0.001
242.00,0.002
243.00,-0.001
244.00,0.001
245.00,0.001
246.00,0.001
247.00,0.001
248.00,-0.002
249.00,0.000
250.00,0.002
251.00,-0.000
252.00,0.003
253.00,0.001
254.00,0.000
255.00,-0.000
256.00,-0.002
257.00,-0.001
258.00,0.001
259.00,-0.001
260.00,0.001
261.00,-0.000
262.00,0.001
263.00,-0.001
264.00,-0.002
265.00,0.000
266.00,0.000
267.00,0.000
268.00,-0.001
269.00,-0.001
270.00,0.000
271.00,0.001
272.00,0.000
273.00,-0.001
274.00,0.000
275.00,-0.001
276.00,-0.001
277.00,0.000
278.00,0.002
279.00,0.001
280.00,-0.001
281.00,-0.000
282.00,0.001
283.00,0.001
284.00,0.000
285.00,0.001
286.00,0.001
287.00,0.003
288.00,0.001
289.00,0.000
290.00,0.001
291.00,-0.002
292.00,0.000
293.00,-0.001
294.00,0.000
295.00,-0.001
296.00,-0.000
297.00,0.001
298.00,0.002
299.00,0.002
300.00,0.005
301.00,0.006
302.00,0.007
303.00,0.012
304.00,0.015
305.00,0.027
306.00,0.041
307.00,0.062
308.00,0.093
309.00,0.139
310.00,0.194
311.00,0.263
312.00,0.360
313.00,0.486
314.00,0.631
315.00,0.822
316.00,1.040
317.00,1.285
318.00,1.586
319.00,1.922
320.00,2.322
321.00,2.750
322.00,3.260
323.00,3.798
324.00,4.388
325.00,4.929
326.00,5.506
327.00,6.196
328.00,6.858
329.00,7.508
330.00,8.225
331.00,8.921
332.00,9.679
333.00,10.387
334.00,11.088
335.00,11.789
336.00,12.492
337.00,13.225
338.00,13.878
339.00,14.511
340.00,15.083
341.00,15.677
342.00,16.304
343.00,16.877
344.00,17.410
345.00,17.846
346.00,18.308
347.00,18.743
348.00,19.202
349.00,19.524
350.00,19.918
351.00,20.227
352.00,20.547
353.00,20.762
354.00,21.052
355.00,21.266
356.00,21.505
357.00,21.699
358.00,21.911
359.00,22.105
360.00,22.247
361.00,22.335
362.00,22.465
363.00,22.624
364.00,22.723
365.00,22.838
366.00,22.888
367.00,22.906
368.00,22.960
369.00,22.980
370.00,23.015
371.00,23.026
372.00,22.939
373.00,22.977
374.00,22.918
375.00,22.907
376.00,22.840
377.00,22.789
378.00,22.726
379.00,22.640
380.00,22.598
381.00,22.593
382.00,22.549
383.00,22.542
384.00,22.551
385.00,22.588
386.00,22.566
387.00,22.588
388.00,22.632
389.00,22.662
390.00,22.670
391.00,22.651
392.00,22.688
393.00,22.676
394.00,22.655
395.00,22.699
396.00,22.673
397.00,22.694
398.00,22.666
399.00,22.672
400.00,22.690
401.00,22.605
402.00,22.693
403.00,22.653
404.00,22.679
405.00,22.674
406.00,22.671
407.00,22.599
408.00,22.615
409.00,22.557
410.00,22.450
411.00,22.499
412.00,22.424
413.00,22.468
414.00,22.481
415.00,22.455
416.00,22.479
417.00,22.473
418.00,22.493
419.00,22.549
420.00,22.593
421.00,22.565
422.00,22.575
423.00,22.631
424.00,22.660
425.00,22.710
426.00,22.700
427.00,22.748
428.00,22.794
429.00,22.881
430.00,22.877
431.00,22.952
432.00,22.909
433.00,23.073
434.00,23.093
435.00,23.153
436.00,23.254
437.00,23.291
438.00,23.384
439.00,23.451
440.00,23.533
441.00,23.606
442.00,23.695
443.00,23.814
444.00,23.850
445.00,23.913
446.00,24.044
447.00,24.108
448.00,24.244
449.00,24.338
450.00,24.447
451.00,24.526
452.00,24.654
453.00,24.735
454.00,24.889
455.00,24.964
456.00,25.052
457.00,25.223
458.00,25.305
459.00,25.437
460.00,25.616
461.00,25.717
462.00,25.892
463.00,25.994
464.00,26.129
465.00,26.243
466.00,26.364
467.00,26.484
468.00,26.617
469.00,26.752
470.00,26.852
471.00,26.949
472.00,27.093
473.00,27.149
474.00,27.282
475.00,27.480
476.00,27.503
477.00,27.640
478.00,27.709
479.00,28.003
480.00,28.124
481.00,28.238
482.00,28.422
483.00,28.581
484.00,28.708
485.00,28.919
486.00,29.022
487.00,29.177
488.00,29.297
489.00,29.445
490.00,29.614
491.00,29.741
492.00,29.910
493.00,30.124
494.00,30.210
495.00,30.298
496.00,30.437
497.00,30.516
498.00,30.691
499.00,30.658
500.00,30.941
501.00,31.091
502.00,31.170
503.00,31.372
504.00,31.382
505.00,31.483
506.00,31.736
507.00,31.832
508.00,31.953
509.00,32.105
510.00,32.246
511.00,32.337
512.00,32.490
513.00,32.624
514.00,32.786
515.00,32.872
516.00,33.045
517.00,33.138
518.00,33.314
519.00,33.358
520.00,33.441
521.00,33.533
522.00,33.583
523.00,33.709
524.00,33.746
525.00,33.878
526.00,34.025
527.00,34.085
528.00,34.109
529.00,34.302
530.00,34.355
531.00,34.559
532.00,34.611
533.00,34.750
534.00,34.792
535.00,34.890
536.00,34.971
537.00,35.009
538.00,35.136
539.00,35.205
540.00,35.244
541.00,35.302
542.00,35.326
543.00,35.387
544.00,35.485
545.00,35.559
546.00,35.605
547.00,35.734
548.00,35.764
549.00,35.867
550.00,35.919
551.00,36.012
552.00,36.109
553.00,36.130
554.00,36.222
555.00,36.248
556.00,36.301
557.00,36.351
558.00,36.419
559.00,36.501
560.00,36.586
561.00,36.645
562.00,36.699
563.00,36.731
564.00,36.778
565.00,36.798
566.00,36.831
567.00,36.888
568.00,36.928
569.00,36.956
570.00,36.987
571.00,37.091
572.00,37.110
573.00,37.094
574.00,37.199
575.00,37.146
576.00,37.194
577.00,37.213
578.00,37.320
579.00,37.389
580.00,37.444
581.00,37.508
582.00,37.577
583.00,37.639
584.00,37.734
585.00,37.779
586.00,37.824
587.00,37.889
588.00,37.892
589.00,37.938
590.00,37.975
591.00,37.992
592.00,37.999
593.00,38.084
594.00,38.123
595.00,38.191
596.00,38.208
597.00,38.292
598.00,38.363
599.00,38.374
600.00,38.444
601.00,38.513
602.00,38.533
603.00,38.508
604.00,38.597
605.00,38.615
606.00,38.617
607.00,38.682
608.00,38.700
609.00,38.755
610.00,38.872
611.00,38.854
612.00,38.888
613.00,38.980
614.00,39.038
615.00,39.007
616.00,39.188
617.00,39.233
618.00,39.303
619.00,39.321
620.00,39.276
621.00,39.381
622.00,39.449
623.00,39.512
624.00,39.583
625.00,39.687
626.00,39.683
627.00,39.731
628.00,39.757
629.00,39.834
630.00,39.837
631.00,39.903
632.00,40.065
633.00,40.196
634.00,40.116
635.00,40.262
636.00,40.387
637.00,40.495
638.00,40.546
639.00,40.645
640.00,40.656
641.00,40.763
642.00,40.797
643.00,40.856
644.00,41.004
645.00,41.002
646.00,41.224
647.00,41.249
648.00,41.246
649.00,41.404
650.00,41.339
651.00,41.450
652.00,41.617
653.00,41.688
654.00,41.691
655.00,41.743
656.00,41.941
657.00,42.164
658.00,42.792
659.00,42.315
660.00,42.300
661.00,42.187
662.00,42.232
663.00,42.604
664.00,42.698
665.00,42.884
666.00,42.845
667.00,43.125
668.00,43.155
669.00,43.400
670.00,43.444
671.00,43.453
672.00,43.528
673.00,43.613
674.00,43.721
675.00,43.754
676.00,43.951
677.00,44.002
678.00,44.050
679.00,44.171
680.00,44.304
681.00,44.469
682.00,44.566
683.00,44.709
684.00,44.743
685.00,44.765
686.00,44.852
687.00,44.847
688.00,45.102
689.00,45.055
690.00,45.017
691.00,45.389
692.00,45.333
693.00,45.332
694.00,45.534
695.00,45.683
696.00,45.807
697.00,45.891
698.00,45.975
699.00,46.048
700.00,46.195
701.00,46.341
702.00,46.414
703.00,46.487
704.00,46.653
705.00,46.586
706.00,46.637
707.00,46.913
708.00,46.713
709.00,47.004
710.00,47.196
711.00,47.030
712.00,47.068
713.00,47.154
714.00,47.178
715.00,47.353
716.00,47.398
717.00,47.293
718.00,47.481
719.00,47.705
720.00,47.801
721.00,51.923
722.00,51.952
723.00,52.078
724.00,52.026
725.00,52.128
726.00,52.168
727.00,52.167
728.00,52.170
729.00,52.252
730.00,52.212
731.00,52.228
732.00,52.328
733.00,52.401
734.00,52.444
735.00,52.420
736.00,52.544
737.00,52.582
738.00,52.613
739.00,52.675
740.00,52.614
741.00,52.743
742.00,52.802
743.00,52.734
744.00,52.731
745.00,52.792
746.00,52.792
747.00,52.752
748.00,52.796
749.00,52.839
750.00,52.830
751.00,52.824
752.00,52.910
753.00,52.899
754.00,52.851
755.00,52.903
756.00,52.955
757.00,53.003
758.00,52.997
759.00,52.947
760.00,52.965
761.00,53.082
762.00,53.001
763.00,53.106
764.00,53.058
765.00,53.069
766.00,53.083
767.00,53.147
768.00,53.118
769.00,53.107
770.00,53.229
771.00,53.128
772.00,53.308
773.00,53.200
774.00,53.210
775.00,53.288
776.00,53.184
777.00,53.257
778.00,53.303
779.00,53.330
780.00,53.245
781.00,53.255
782.00,53.372
783.00,53.239
784.00,53.400
785.00,53.272
786.00,53.371
787.00,53.302
788.00,53.330
789.00,53.247
790.00,53.356
791.00,53.362
792.00,53.285
793.00,53.351
794.00,53.326
795.00,53.296
796.00,53.318
797.00,53.321
798.00,53.328
799.00,53.255
800.00,53.287
801.00,53.265
802.00,53.209
803.00,53.271
804.00,53.185
805.00,53.242
806.00,53.153
807.00,53.187
808.00,53.279
809.00,53.157
810.00,53.218
811.00,53.193
812.00,53.250
813.00,53.187
814.00,53.196
815.00,53.130
816.00,53.132
817.00,53.161
818.00,52.968
819.00,53.028
820.00,52.968
821.00,53.072
822.00,53.016
823.00,53.024
824.00,53.119
825.00,52.923
826.00,53.028
827.00,53.061
828.00,52.941
829.00,53.014
830.00,53.009
831.00,55.668
832.00,55.587
833.00,55.583
834.00,55.580
835.00,55.580
836.00,55.607
837.00,55.556
838.00,55.558
839.00,55.533
840.00,55.500
841.00,55.533
842.00,55.457
843.00,55.491
844.00,55.487
845.00,55.426
846.00,55.438
847.00,55.410
848.00,55.431
849.00,55.372
850.00,55.344
851.00,55.346
852.00,55.303
853.00,55.233
854.00,55.242
855.00,55.218
856.00,55.198
857.00,55.222
858.00,55.154
859.00,55.133
860.00,55.140
861.00,55.145
862.00,55.113
863.00,55.112
864.00,55.088
865.00,55.121
866.00,55.159
867.00,55.083
868.00,55.085
869.00,55.078
870.00,55.086
871.00,55.071
872.00,55.073
873.00,55.054
874.00,55.075
875.00,55.020
876.00,55.035
877.00,55.025
878.00,55.047
879.00,54.982
880.00,54.963
881.00,54.992
882.00,55.016
883.00,54.967
884.00,54.925
885.00,54.897
886.00,54.915
887.00,54.909
888.00,54.842
889.00,54.857
890.00,54.845
891.00,54.806
892.00,54.798
893.00,54.784
894.00,54.790
895.00,54.772
896.00,54.720
897.00,54.732
898.00,54.697
899.00,54.704
900.00,54.679
901.00,54.713
902.00,54.718
903.00,54.679
904.00,54.648
905.00,54.645
906.00,54.657
907.00,54.598
908.00,54.572
909.00,54.555
910.00,54.536
911.00,54.527
912.00,54.524
913.00,54.488
914.00,54.474
915.00,54.460
916.00,54.453
917.00,54.407
918.00,54.445
919.00,54.392
920.00,54.357
921.00,54.342
922.00,54.543
923.00,54.318
924.00,54.271
925.00,54.323
926.00,54.303
927.00,54.248
928.00,54.233
929.00,54.232
930.00,54.204
931.00,54.182
932.00,54.144
933.00,54.140
934.00,54.161
935.00,54.124
936.00,54.105
937.00,54.094
938.00,54.103
939.00,54.072
940.00,54.068
941.00,54.037
942.00,54.020
943.00,54.008
944.00,53.978
945.00,53.967
946.00,53.981
947.00,53.947
948.00,53.942
949.00,53.929
950.00,53.887
951.00,53.872
952.00,53.832
953.00,53.824
954.00,53.783
955.00,53.760
956.00,53.752
957.00,53.724
958.00,53.739
959.00,53.703
960.00,53.709
961.00,53.665
962.00,53.677
963.00,53.616
964.00,53.629
965.00,53.630
966.00,53.597
967.00,53.615
968.00,53.594
969.00,53.609
970.00,53.581
971.00,53.602
972.00,53.562
973.00,53.609
974.00,53.625
975.00,53.601
976.00,53.605
977.00,53.598
978.00,53.630
979.00,53.606
980.00,53.637
981.00,53.633
982.00,53.579
983.00,53.684
984.00,53.604
985.00,53.614
986.00,53.575
987.00,53.604
988.00,53.541
989.00,53.543
990.00,53.538
991.00,53.524
992.00,53.534
993.00,53.487
994.00,53.473
995.00,53.470
996.00,53.461
997.00,53.448
998.00,53.447
999.00,53.448
1000.00,53.398
1001.00,53.383
1002.00,53.387
1003.00,53.392
1004.00,53.361
1005.00,53.353
1006.00,53.386
1007.00,53.340
1008.00,53.355
1009.00,53.330
1010.00,53.325
1011.00,53.304
1012.00,53.285
1013.00,53.284
1014.00,53.253
1015.00,53.266
1016.00,53.228
1017.00,53.219
1018.00,53.210
1019.00,53.193
1020.00,53.196
1021.00,53.181
1022.00,53.167
1023.00,53.125
1024.00,53.130
1025.00,53.127
1026.00,53.127
1027.00,53.073
1028.00,53.071
1029.00,53.068
1030.00,53.035
1031.00,53.049
1032.00,53.011
1033.00,53.018
1034.00,52.990
1035.00,52.940
1036.00,52.907
1037.00,52.908
1038.00,52.876
1039.00,52.878
1040.00,52.845
1041.00,52.839
1042.00,52.850
1043.00,52.801
1044.00,52.846
1045.00,52.788
1046.00,52.791
1047.00,52.821
1048.00,52.834
1049.00,52.846
1050.00,52.853
1051.00,52.879
1052.00,52.872
1053.00,52.902
1054.00,52.907
1055.00,52.916
1056.00,52.930
1057.00,52.939
1058.00,52.921
1059.00,52.904
1060.00,52.920
1061.00,52.927
1062.00,52.904
1063.00,52.912
1064.00,52.922
1065.00,52.900
1066.00,52.898
1067.00,52.918
1068.00,52.924
1069.00,52.891
1070.00,52.872
1071.00,52.859
1072.00,52.866
1073.00,52.830
1074.00,52.836
1075.00,52.818
1076.00,52.825
1077.00,52.811
1078.00,52.797
1079.00,52.801
1080.00,52.816
1081.00,52.794
1082.00,52.795
1083.00,52.793
1084.00,52.783
1085.00,52.784
1086.00,52.781
1087.00,52.754
1088.00,52.755
1089.00,52.769
1090.00,52.766
1091.00,52.751
1092.00,52.745
1093.00,52.724
1094.00,52.705
1095.00,52.692
1096.00,52.682
1097.00,52.678
1098.00,52.680
1099.00,52.652
1100.00,52.638
1101.00,52.665
1102.00,52.654
1103.00,52.634
1104.00,52.617
1105.00,52.611
1106.00,52.586
1107.00,52.581
1108.00,52.575
1109.00,52.571
1110.00,52.584
1111.00,52.563
1112.00,52.566
1113.00,52.561
1114.00,52.564
1115.00,52.572
1116.00,52.560
1117.00,52.529
1118.00,52.509
1119.00,52.509
1120.00,52.500
1121.00,52.507
1122.00,52.497
1123.00,52.473
1124.00,52.473
1125.00,52.470
1126.00,52.459
1127.00,52.462
1128.00,52.462
1129.00,52.446
1130.00,52.438
1131.00,52.433
1132.00,52.429
1133.00,52.419
1134.00,52.426
1135.00,52.425
1136.00,52.421
1137.00,52.412
1138.00,52.419
1139.00,52.421
1140.00,52.411
1141.00,52.400
1142.00,52.394
1143.00,52.413
1144.00,52.388
1145.00,52.380
1146.00,52.388
1147.00,52.372
1148.00,52.363
1149.00,52.405
1150.00,52.399
1151.00,52.384
1152.00,52.387
1153.00,52.377
1154.00,52.369
1155.00,52.377
1156.00,52.360
1157.00,52.374
1158.00,52.359
1159.00,52.372
1160.00,52.354
1161.00,52.361
1162.00,52.360
1163.00,52.362
1164.00,52.352
1165.00,52.344
1166.00,52.344
1167.00,52.343
1168.00,52.362
1169.00,52.344
1170.00,52.336
1171.00,52.346
1172.00,52.338
1173.00,52.335
1174.00,52.366
1175.00,52.349
1176.00,52.350
1177.00,52.322
1178.00,52.336
1179.00,52.335
1180.00,52.349
1181.00,52.376
1182.00,52.352
1183.00,52.341
1184.00,52.325
1185.00,52.358
1186.00,52.334
1187.00,52.348
1188.00,52.334
1189.00,52.332
1190.00,52.328
1191.00,52.324
1192.00,52.345
1193.00,52.345
1194.00,52.334
1195.00,52.323
1196.00,52.364
1197.00,52.343
1198.00,52.340
1199.00,52.337
1200.00,52.339
1201.00,52.350
1202.00,52.339
1203.00,52.334
1204.00,52.332
1205.00,52.350
1206.00,52.349
1207.00,52.342
1208.00,52.321
1209.00,52.360
1210.00,52.315
1211.00,52.355
1212.00,52.386
1213.00,52.310
1214.00,52.336
1215.00,52.319
1216.00,52.325
1217.00,52.319
1218.00,52.328
1219.00,52.341
1220.00,52.318
1221.00,52.336
1222.00,52.324
1223.00,52.361
1224.00,52.343
1225.00,52.341
1226.00,52.346
1227.00,52.327
1228.00,52.349
1229.00,52.377
1230.00,52.405
1231.00,52.379
1232.00,52.411
1233.00,52.404
1234.00,52.407
1235.00,52.399
1236.00,52.404
1237.00,52.398
1238.00,52.392
1239.00,52.387
1240.00,52.387
1241.00,52.391
1242.00,52.388
1243.00,52.403
1244.00,52.397
1245.00,52.422
1246.00,52.424
1247.00,52.420
1248.00,52.414
1249.00,52.420
1250.00,52.408
1251.00,52.414
1252.00,52.418
1253.00,52.406
1254.00,52.423
1255.00,52.420
1256.00,52.440
1257.00,52.442
1258.00,52.457
1259.00,52.443
1260.00,52.471
1261.00,52.459
1262.00,52.461
1263.00,52.460
1264.00,52.461
1265.00,52.484
1266.00,52.471
1267.00,52.496
1268.00,52.491
1269.00,52.491
1270.00,52.534
1271.00,52.510
1272.00,52.555
1273.00,52.564
1274.00,52.518
1275.00,52.524
1276.00,52.538
1277.00,52.562
1278.00,52.566
1279.00,52.560
1280.00,52.537
1281.00,52.576
1282.00,52.577
1283.00,52.568
1284.00,52.585
1285.00,52.577
1286.00,52.595
1287.00,52.586
1288.00,52.596
1289.00,52.582
1290.00,52.611
1291.00,52.608
1292.00,52.597
1293.00,52.600
1294.00,52.608
1295.00,52.644
1296.00,52.631
1297.00,52.632
1298.00,52.678
1299.00,52.646
1300.00,52.647
1301.00,52.635
1302.00,52.690
1303.00,52.671
1304.00,52.648
1305.00,52.667
1306.00,52.663
1307.00,52.667
1308.00,52.671
1309.00,52.676
1310.00,52.682
1311.00,52.664
1312.00,52.687
1313.00,52.700
1314.00,52.731
1315.00,52.743
1316.00,52.752
1317.00,52.770
1318.00,52.777
1319.00,52.779
1320.00,52.763
1321.00,52.936
1322.00,52.918
1323.00,52.904
1324.00,52.915
1325.00,52.896
1326.00,52.919
1327.00,52.910
1328.00,52.896
1329.00,52.889
1330.00,52.891
1331.00,52.894
1332.00,52.907
1333.00,52.890
1334.00,52.918
1335.00,52.947
1336.00,52.970
1337.00,52.986
1338.00,53.069
1339.00,53.114
1340.00,53.181
1341.00,53.221
1342.00,53.284
1343.00,53.352
1344.00,53.396
1345.00,53.443
1346.00,53.502
1347.00,53.610
1348.00,53.536
1349.00,53.546
1350.00,53.558
1351.00,53.591
1352.00,53.561
1353.00,53.570
1354.00,53.604
1355.00,53.587
1356.00,53.629
1357.00,53.614
1358.00,53.594
1359.00,53.624
1360.00,53.632
1361.00,53.757
1362.00,53.619
1363.00,53.621
1364.00,53.696
1365.00,53.640
1366.00,53.693
1367.00,53.679
1368.00,53.598
1369.00,53.631
1370.00,53.647
1371.00,53.628
1372.00,53.614
1373.00,53.612
1374.00,53.622
1375.00,53.601
1376.00,53.621
1377.00,53.591
1378.00,53.690
1379.00,53.653
1380.00,53.659
1381.00,53.670
1382.00,53.674
1383.00,53.644
1384.00,53.604
1385.00,53.587
1386.00,53.615
1387.00,53.616
1388.00,53.583
1389.00,53.616
1390.00,53.569
1391.00,53.623
1392.00,53.592
1393.00,53.607
1394.00,53.625
1395.00,53.665
1396.00,53.576
1397.00,53.584
1398.00,53.613
1399.00,53.617
1400.00,53.643
1401.00,53.623
1402.00,53.622
1403.00,53.673
1404.00,53.658
1405.00,53.661
1406.00,53.674
1407.00,53.642
1408.00,53.686
1409.00,53.683
1410.00,53.705
1411.00,53.654
1412.00,53.749
1413.00,53.722
1414.00,53.670
1415.00,53.698
1416.00,53.754
1417.00,53.759
1418.00,53.739
1419.00,53.721
1420.00,53.776
1421.00,53.792
1422.00,53.800
1423.00,53.841
1424.00,53.802
1425.00,53.825
1426.00,53.820
1427.00,53.843
1428.00,53.853
1429.00,53.847
1430.00,53.864
1431.00,53.897
1432.00,53.909
1433.00,53.911
1434.00,53.926
1435.00,53.970
1436.00,53.983
1437.00,53.966
1438.00,53.990
1439.00,54.011
1440.00,54.004
1441.00,54.019
1442.00,54.041
1443.00,54.067
1444.00,54.109
1445.00,54.103
1446.00,54.100
1447.00,54.146
1448.00,54.180
1449.00,54.180
1450.00,54.194
1451.00,54.197
1452.00,54.209
1453.00,54.226
1454.00,54.231
1455.00,54.261
1456.00,54.285
1457.00,54.286
1458.00,54.291
1459.00,54.311
1460.00,54.321
1461.00,54.324
1462.00,54.341
1463.00,54.341
1464.00,54.368
1465.00,54.385
1466.00,54.377
1467.00,54.403
1468.00,54.483
1469.00,54.426
1470.00,54.441
1471.00,54.472
1472.00,54.481
1473.00,54.476
1474.00,54.499
1475.00,54.540
1476.00,54.553
1477.00,54.531
1478.00,54.546
1479.00,54.584
1480.00,54.571
1481.00,54.588
1482.00,54.614
1483.00,54.614
1484.00,54.624
1485.00,54.632
1486.00,54.651
1487.00,54.674
1488.00,54.682
1489.00,54.694
1490.00,54.701
1491.00,54.704
1492.00,54.707
1493.00,54.689
1494.00,54.724
1495.00,54.708
1496.00,54.776
1497.00,54.747
1498.00,54.751
1499.00,54.768
1500.00,54.789
1501.00, 
1502.00, 
1503.00, 
1504.00, 
1505.00, 
1506.00, 
1507.00, 
1508.00, 
1509.00, 
1510.00, 
1511.00, 
1512.00, 
1513.00, 
1514.00, 
1515.00, 
1516.00, 
1517.00, 
1518.00, 
1519.00, 
1520.00, 
1521.00, 
1522.00, 
1523.00, 
1524.00, 
1525.00, 
1526.00, 
1527.00, 
1528.00, 
1529.00, 
1530.00, 
1531.00, 
1532.00, 
1533.00, 
1534.00, 
1535.00, 
1536.00, 
1537.00, 
1538.00, 
1539.00, 
1540.00, 
1541.00, 
1542.00, 
1543.00, 
1544.00, 
1545.00, 
1546.00, 
1547.00, 
1548.00, 
1549.00, 
1550.00, 
1551.00, 
1552.00, 
1553.00, 
1554.00, 
1555.00, 
1556.00, 
1557.00, 
1558.00, 
1559.00, 
1560.00, 
1561.00, 
1562.00, 
1563.00, 
1564.00, 
1565.00, 
1566.00, 
1567.00, 
1568.00, 
1569.00, 
1570.00, 
1571.00, 
1572.00, 
1573.00, 
1574.00, 
1575.00, 
1576.00, 
1577.00, 
1578.00, 
1579.00, 
1580.00, 
1581.00, 
1582.00, 
1583.00, 
1584.00, 
1585.00, 
1586.00, 
1587.00, 
1588.00, 
1589.00, 
1590.00, 
1591.00, 
1592.00, 
1593.00, 
1594.00, 
1595.00, 
1596.00, 
1597.00, 
1598.00, 
1599.00, 
1600.00, 
1601.00, 
1602.00, 
1603.00, 
1604.00, 
1605.00, 
1606.00, 
1607.00, 
1608.00, 
1609.00, 
1610.00, 
1611.00, 
1612.00, 
1613.00, 
1614.00, 
1615.00, 
1616.00, 
1617.00, 
1618.00, 
1619.00, 
1620.00, 
1621.00, 
1622.00, 
1623.00, 
1624.00, 
1625.00, 
1626.00, 
1627.00, 
1628.00, 
1629.00, 
1630.00, 
1631.00, 
1632.00, 
1633.00, 
1634.00, 
1635.00, 
1636.00, 
1637.00, 
1638.00, 
1639.00, 
1640.00, 
1641.00, 
1642.00, 
1643.00, 
1644.00, 
1645.00, 
1646.00, 
1647.00, 
1648.00, 
1649.00, 
1650.00, 
1651.00, 
1652.00, 
1653.00, 
1654.00, 
1655.00, 
1656.00, 
1657.00, 
1658.00, 
1659.00, 
1660.00, 
1661.00, 
1662.00, 
1663.00, 
1664.00, 
1665.00, 
1666.00, 
1667.00, 
1668.00, 
1669.00, 
1670.00, 
1671.00, 
1672.00, 
1673.00, 
1674.00, 
1675.00, 
1676.00, 
1677.00, 
1678.00, 
1679.00, 
1680.00, 
1681.00, 
1682.00, 
1683.00, 
1684.00, 
1685.00, 
1686.00, 
1687.00, 
1688.00, 
1689.00, 
1690.00, 
1691.00, 
1692.00, 
1693.00, 
1694.00, 
1695.00, 
1696.00, 
1697.00, 
1698.00, 
1699.00, 
1700.00, 
1701.00, 
1702.00, 
1703.00, 
1704.00, 
1705.00, 
1706.00, 
1707.00, 
1708.00, 
1709.00, 
1710.00, 
1711.00, 
1712.00, 
1713.00, 
1714.00, 
1715.00, 
1716.00, 
1717.00, 
1718.00, 
1719.00, 
1720.00, 
1721.00, 
1722.00, 
1723.00, 
1724.00, 
1725.00, 
1726.00, 
1727.00, 
1728.00, 
1729.00, 
1730.00, 
1731.00, 
1732.00, 
1733.00, 
1734.00, 
1735.00, 
1736.00, 
1737.00, 
1738.00, 
1739.00, 
1740.00, 
1741.00, 
1742.00, 
1743.00, 
1744.00, 
1745.00, 
1746.00, 
1747.00, 
1748.00, 
1749.00, 
1750.00, 
1751.00, 
1752.00, 
1753.00, 
1754.00, 
1755.00, 
1756.00, 
1757.00, 
1758.00, 
1759.00, 
1760.00, 
1761.00, 
1762.00, 
1763.00, 
1764.00, 
1765.00, 
1766.00, 
1767.00, 
1768.00, 
1769.00, 
1770.00, 
1771.00, 
1772.00, 
1773.00, 
1774.00, 
1775.00, 
1776.00, 
1777.00, 
1778.00, 
1779.00, 
1780.00, 
1781.00, 
1782.00, 
1783.00, 
1784.00, 
1785.00, 
1786.00, 
1787.00, 
1788.00, 
1789.00, 
1790.00, 
1791.00, 
1792.00, 
1793.00, 
1794.00, 
1795.00, 
1796.00, 
1797.00, 
1798.00, 
1799.00, 
1800.00, 
1801.00, 
1802.00, 
1803.00, 
1804.00, 
1805.00, 
1806.00, 
1807.00, 
1808.00, 
1809.00, 
1810.00, 
1811.00, 
1812.00, 
1813.00, 
1814.00, 
1815.00, 
1816.00, 
1817.00, 
1818.00, 
1819.00, 
1820.00, 
1821.00, 
1822.00, 
1823.00, 
1824.00, 
1825.00, 
1826.00, 
1827.00, 
1828.00, 
1829.00, 
1830.00, 
1831.00, 
1832.00, 
1833.00, 
1834.00, 
1835.00, 
1836.00, 
1837.00, 
1838.00, 
1839.00, 
1840.00, 
1841.00, 
1842.00, 
1843.00, 
1844.00, 
1845.00, 
1846.00, 
1847.00, 
1848.00, 
1849.00, 
1850.00, 
1851.00, 
1852.00, 
1853.00, 
1854.00, 
1855.00, 
1856.00, 
1857.00, 
1858.00, 
1859.00, 
1860.00, 
1861.00, 
1862.00, 
1863.00, 
1864.00, 
1865.00, 
1866.00, 
1867.00, 
1868.00, 
1869.00, 
1870.00, 
1871.00, 
1872.00, 
1873.00, 
1874.00, 
1875.00, 
1876.00, 
1877.00, 
1878.00, 
1879.00, 
1880.00, 
1881.00, 
1882.00, 
1883.00, 
1884.00, 
1885.00, 
1886.00, 
1887.00, 
1888.00, 
1889.00, 
1890.00, 
1891.00, 
1892.00, 
1893.00, 
1894.00, 
1895.00, 
1896.00, 
1897.00, 
1898.00, 
1899.00, 
1900.00, 
1901.00, 
1902.00, 
1903.00, 
1904.00, 
1905.00, 
1906.00, 
1907.00, 
1908.00, 
1909.00, 
1910.00, 
1911.00, 
1912.00, 
1913.00, 
1914.00, 
1915.00, 
1916.00, 
1917.00, 
1918.00, 
1919.00, 
1920.00, 
1921.00, 
1922.00, 
1923.00, 
1924.00, 
1925.00, 
1926.00, 
1927.00, 
1928.00, 
1929.00, 
1930.00, 
1931.00, 
1932.00, 
1933.00, 
1934.00, 
1935.00, 
1936.00, 
1937.00, 
1938.00, 
1939.00, 
1940.00, 
1941.00, 
1942.00, 
1943.00, 
1944.00, 
1945.00, 
1946.00, 
1947.00, 
1948.00, 
1949.00, 
1950.00, 
1951.00, 
1952.00, 
1953.00, 
1954.00, 
1955.00, 
1956.00, 
1957.00, 
1958.00, 
1959.00, 
1960.00, 
1961.00, 
1962.00, 
1963.00, 
1964.00, 
1965.00, 
1966.00, 
1967.00, 
1968.00, 
1969.00, 
1970.00, 
1971.00, 
1972.00, 
1973.00, 
1974.00, 
1975.00, 
1976.00, 
1977.00, 
1978.00, 
1979.00, 
1980.00, 
1981.00, 
1982.00, 
1983.00, 
1984.00, 
1985.00, 
1986.00, 
1987.00, 
1988.00, 
1989.00, 
1990.00, 
1991.00, 
1992.00, 
1993.00, 
1994.00, 
1995.00, 
1996.00, 
1997.00, 
1998.00, 
1999.00, 
2000.00, 
2001.00, 
2002.00, 
2003.00, 
2004.00, 
2005.00, 
2006.00, 
2007.00, 
2008.00, 
2009.00, 
2010.00, 
2011.00, 
2012.00, 
2013.00, 
2014.00, 
2015.00, 
2016.00, 
2017.00, 
2018.00, 
2019.00, 
2020.00, 
2021.00, 
2022.00, 
2023.00, 
2024.00, 
2025.00, 
2026.00, 
2027.00, 
2028.00, 
2029.00, 
2030.00, 
2031.00, 
2032.00, 
2033.00, 
2034.00, 
2035.00, 
2036.00, 
2037.00, 
2038.00, 
2039.00, 
2040.00, 
2041.00, 
2042.00, 
2043.00, 
2044.00, 
2045.00, 
2046.00, 
2047.00, 
2048.00, 
2049.00, 
2050.00, 
2051.00, 
2052.00, 
2053.00, 
2054.00, 
2055.00, 
2056.00, 
2057.00, 
2058.00, 
2059.00, 
2060.00, 
2061.00, 
2062.00, 
2063.00, 
2064.00, 
2065.00, 
2066.00, 
2067.00, 
2068.00, 
2069.00, 
2070.00, 
2071.00, 
2072.00, 
2073.00, 
2074.00, 
2075.00, 
2076.00, 
2077.00, 
2078.00, 
2079.00, 
2080.00, 
2081.00, 
2082.00, 
2083.00, 
2084.00, 
2085.00, 
2086.00, 
2087.00, 
2088.00, 
2089.00, 
2090.00, 
2091.00, 
2092.00, 
2093.00, 
2094.00, 
2095.00, 
2096.00, 
2097.00, 
2098.00, 
2099.00, 
2100.00, 
2101.00, 
2102.00, 
2103.00, 
2104.00, 
2105.00, 
2106.00, 
2107.00, 
2108.00, 
2109.00, 
2110.00, 
2111.00, 
2112.00, 
2113.00, 
2114.00, 
2115.00, 
2116.00, 
2117.00, 
2118.00, 
2119.00, 
2120.00, 
2121.00, 
2122.00, 
2123.00, 
2124.00, 
2125.00, 
2126.00, 
2127.00, 
2128.00, 
2129.00, 
2130.00, 
2131.00, 
2132.00, 
2133.00, 
2134.00, 
2135.00, 
2136.00, 
2137.00, 
2138.00, 
2139.00, 
2140.00, 
2141.00, 
2142.00, 
2143.00, 
2144.00, 
2145.00, 
2146.00, 
2147.00, 
2148.00, 
2149.00, 
2150.00, 
2151.00, 
2152.00, 
2153.00, 
2154.00, 
2155.00, 
2156.00, 
2157.00, 
2158.00, 
2159.00, 
2160.00, 
2161.00, 
2162.00, 
2163.00, 
2164.00, 
2165.00, 
2166.00, 
2167.00, 
2168.00, 
2169.00, 
2170.00, 
2171.00, 
2172.00, 
2173.00, 
2174.00, 
2175.00, 
2176.00, 
2177.00, 
2178.00, 
2179.00, 
2180.00, 
2181.00, 
2182.00, 
2183.00, 
2184.00, 
2185.00, 
2186.00, 
2187.00, 
2188.00, 
2189.00, 
2190.00, 
2191.00, 
2192.00, 
2193.00, 
2194.00, 
2195.00, 
2196.00, 
2197.00, 
2198.00, 
2199.00, 
2200.00, 
2201.00, 
2202.00, 
2203.00, 
2204.00, 
2205.00, 
2206.00, 
2207.00, 
2208.00, 
2209.00, 
2210.00, 
2211.00, 
2212.00, 
2213.00, 
2214.00, 
2215.00, 
2216.00, 
2217.00, 
2218.00, 
2219.00, 
2220.00, 
2221.00, 
2222.00, 
2223.00, 
2224.00, 
2225.00, 
2226.00, 
2227.00, 
2228.00, 
2229.00, 
2230.00, 
2231.00, 
2232.00, 
2233.00, 
2234.00, 
2235.00, 
2236.00, 
2237.00, 
2238.00, 
2239.00, 
2240.00, 
2241.00, 
2242.00, 
2243.00, 
2244.00, 
2245.00, 
2246.00, 
2247.00, 
2248.00, 
2249.00, 
2250.00, 
2251.00, 
2252.00, 
2253.00, 
2254.00, 
2255.00, 
2256.00, 
2257.00, 
2258.00, 
2259.00, 
2260.00, 
2261.00, 
2262.00, 
2263.00, 
2264.00, 
2265.00, 
2266.00, 
2267.00, 
2268.00, 
2269.00, 
2270.00, 
2271.00, 
2272.00, 
2273.00, 
2274.00, 
2275.00, 
2276.00, 
2277.00, 
2278.00, 
2279.00, 
2280.00, 
2281.00, 
2282.00, 
2283.00, 
2284.00, 
2285.00, 
2286.00, 
2287.00, 
2288.00, 
2289.00, 
2290.00, 
2291.00, 
2292.00, 
2293.00, 
2294.00, 
2295.00, 
2296.00, 
2297.00, 
2298.00, 
2299.00, 
2300.00, 
2301.00, 
2302.00, 
2303.00, 
2304.00, 
2305.00, 
2306.00, 
2307.00, 
2308.00, 
2309.00, 
2310.00, 
2311.00, 
2312.00, 
2313.00, 
2314.00, 
2315.00, 
2316.00, 
2317.00, 
2318.00, 
2319.00, 
2320.00, 
2321.00, 
2322.00, 
2323.00, 
2324.00, 
2325.00, 
2326.00, 
2327.00, 
2328.00, 
2329.00, 
2330.00, 
2331.00, 
2332.00, 
2333.00, 
2334.00, 
2335.00, 
2336.00, 
2337.00, 
2338.00, 
2339.00, 
2340.00, 
2341.00, 
2342.00, 
2343.00, 
2344.00, 
2345.00, 
2346.00, 
2347.00, 
2348.00, 
2349.00, 
2350.00, 
2351.00, 
2352.00, 
2353.00, 
2354.00, 
2355.00, 
2356.00, 
2357.00, 
2358.00, 
2359.00, 
2360.00, 
2361.00, 
2362.00, 
2363.00, 
2364.00, 
2365.00, 
2366.00, 
2367.00, 
2368.00, 
2369.00, 
2370.00, 
2371.00, 
2372.00, 
2373.00, 
2374.00, 
2375.00, 
2376.00, 
2377.00, 
2378.00, 
2379.00, 
2380.00, 
2381.00, 
2382.00, 
2383.00, 
2384.00, 
2385.00, 
2386.00, 
2387.00, 
2388.00, 
2389.00, 
2390.00, 
2391.00, 
2392.00, 
2393.00, 
2394.00, 
2395.00, 
2396.00, 
2397.00, 
2398.00, 
2399.00, 
2400.00, 
2401.00, 
2402.00, 
2403.00, 
2404.00, 
2405.00, 
2406.00, 
2407.00, 
2408.00, 
2409.00, 
2410.00, 
2411.00, 
2412.00, 
2413.00, 
2414.00, 
2415.00, 
2416.00, 
2417.00, 
2418.00, 
2419.00, 
2420.00, 
2421.00, 
2422.00, 
2423.00, 
2424.00, 
2425.00, 
2426.00, 
2427.00, 
2428.00, 
2429.00, 
2430.00, 
2431.00, 
2432.00, 
2433.00, 
2434.00, 
2435.00, 
2436.00, 
2437.00, 
2438.00, 
2439.00, 
2440.00, 
2441.00, 
2442.00, 
2443.00, 
2444.00, 
2445.00, 
2446.00, 
2447.00, 
2448.00, 
2449.00, 
2450.00, 
2451.00, 
2452.00, 
2453.00, 
2454.00, 
2455.00, 
2456.00, 
2457.00, 
2458.00, 
2459.00, 
2460.00, 
2461.00, 
2462.00, 
2463.00, 
2464.00, 
2465.00, 
2466.00, 
2467.00, 
2468.00, 
2469.00, 
2470.00, 
2471.00, 
2472.00, 
2473.00, 
2474.00, 
2475.00, 
2476.00, 
2477.00, 
2478.00, 
2479.00, 
2480.00, 
2481.00, 
2482.00, 
2483.00, 
2484.00, 
2485.00, 
2486.00, 
2487.00, 
2488.00, 
2489.00, 
2490.00, 
2491.00, 
2492.00, 
2493.00, 
2494.00, 
2495.00, 
2496.00, 
2497.00, 
2498.00, 
2499.00, 
2500.00, 
2501.00, 
2502.00, 
2503.00, 
2504.00, 
2505.00, 
2506.00, 
2507.00, 
2508.00, 
2509.00, 
2510.00, 
2511.00, 
2512.00, 
2513.00, 
2514.00, 
2515.00, 
2516.00, 
2517.00, 
2518.00, 
2519.00, 
2520.00, 
2521.00, 
2522.00, 
2523.00, 
2524.00, 
2525.00, 
2526.00, 
2527.00, 
2528.00, 
2529.00, 
2530.00, 
2531.00, 
2532.00, 
2533.00, 
2534.00, 
2535.00, 
2536.00, 
2537.00, 
2538.00, 
2539.00, 
2540.00, 
2541.00, 
2542.00, 
2543.00, 
2544.00, 
2545.00, 
2546.00, 
2547.00, 
2548.00, 
2549.00, 
2550.00, 
2551.00, 
2552.00, 
2553.00, 
2554.00, 
2555.00, 
2556.00, 
2557.00, 
2558.00, 
2559.00, 
2560.00, 
2561.00, 
2562.00, 
2563.00, 
2564.00, 
2565.00, 
2566.00, 
2567.00, 
2568.00, 
2569.00, 
2570.00, 
2571.00, 
2572.00, 
2573.00, 
2574.00, 
2575.00, 
2576.00, 
2577.00, 
2578.00, 
2579.00, 
2580.00, 
2581.00, 
2582.00, 
2583.00, 
2584.00, 
2585.00, 
2586.00, 
2587.00, 
2588.00, 
2589.00, 
2590.00, 
2591.00, 
2592.00, 
2593.00, 
2594.00, 
2595.00, 
2596.00, 
2597.00, 
2598.00, 
2599.00, 
2600.00, 
