"1bP2 - RawData"
"Wavelength nm.","T%"
200.00,-0.000
201.00,-0.000
202.00,0.001
203.00,0.003
204.00,0.001
205.00,-0.000
206.00,0.001
207.00,-0.001
208.00,0.000
209.00,0.003
210.00,0.002
211.00,0.003
212.00,0.002
213.00,0.001
214.00,0.001
215.00,0.002
216.00,-0.000
217.00,0.002
218.00,0.001
219.00,0.003
220.00,0.001
221.00,0.002
222.00,0.001
223.00,0.004
224.00,-0.001
225.00,0.001
226.00,0.001
227.00,0.002
228.00,0.000
229.00,-0.001
230.00,0.000
231.00,-0.000
232.00,0.002
233.00,0.000
234.00,-0.000
235.00,0.000
236.00,0.001
237.00,0.002
238.00,0.000
239.00,0.002
240.00,0.000
241.00,-0.000
242.00,0.000
243.00,-0.000
244.00,-0.001
245.00,-0.001
246.00,-0.002
247.00,-0.001
248.00,-0.001
249.00,0.001
250.00,0.000
251.00,-0.001
252.00,-0.000
253.00,-0.000
254.00,-0.001
255.00,-0.001
256.00,-0.001
257.00,0.000
258.00,-0.000
259.00,0.002
260.00,0.000
261.00,-0.001
262.00,0.001
263.00,0.001
264.00,0.000
265.00,-0.001
266.00,-0.001
267.00,-0.000
268.00,-0.000
269.00,0.001
270.00,-0.000
271.00,0.001
272.00,0.001
273.00,0.000
274.00,0.001
275.00,0.002
276.00,0.000
277.00,0.001
278.00,0.000
279.00,0.001
280.00,-0.000
281.00,0.001
282.00,0.001
283.00,-0.000
284.00,-0.000
285.00,-0.001
286.00,-0.001
287.00,-0.001
288.00,-0.000
289.00,0.001
290.00,0.000
291.00,0.001
292.00,-0.001
293.00,-0.001
294.00,0.001
295.00,-0.000
296.00,0.000
297.00,0.001
298.00,0.002
299.00,0.003
300.00,0.003
301.00,0.006
302.00,0.009
303.00,0.011
304.00,0.017
305.00,0.029
306.00,0.045
307.00,0.068
308.00,0.102
309.00,0.156
310.00,0.214
311.00,0.288
312.00,0.392
313.00,0.521
314.00,0.682
315.00,0.887
316.00,1.110
317.00,1.378
318.00,1.693
319.00,2.066
320.00,2.504
321.00,2.972
322.00,3.453
323.00,4.051
324.00,4.659
325.00,5.273
326.00,5.864
327.00,6.594
328.00,7.299
329.00,8.008
330.00,8.767
331.00,9.523
332.00,10.270
333.00,11.070
334.00,11.808
335.00,12.532
336.00,13.273
337.00,14.006
338.00,14.735
339.00,15.375
340.00,15.988
341.00,16.662
342.00,17.261
343.00,17.843
344.00,18.400
345.00,18.867
346.00,19.375
347.00,19.799
348.00,20.177
349.00,20.627
350.00,21.018
351.00,21.343
352.00,21.676
353.00,21.956
354.00,22.220
355.00,22.462
356.00,22.724
357.00,22.936
358.00,23.110
359.00,23.350
360.00,23.460
361.00,23.622
362.00,23.761
363.00,23.917
364.00,23.988
365.00,24.118
366.00,24.201
367.00,24.233
368.00,24.275
369.00,24.255
370.00,24.280
371.00,24.335
372.00,24.265
373.00,24.309
374.00,24.216
375.00,24.223
376.00,24.173
377.00,24.088
378.00,24.004
379.00,23.953
380.00,23.886
381.00,23.886
382.00,23.842
383.00,23.856
384.00,23.861
385.00,23.883
386.00,23.883
387.00,23.875
388.00,23.900
389.00,23.906
390.00,23.990
391.00,23.994
392.00,23.998
393.00,24.011
394.00,23.971
395.00,24.010
396.00,23.978
397.00,24.001
398.00,23.978
399.00,23.990
400.00,23.986
401.00,23.944
402.00,24.001
403.00,23.938
404.00,23.970
405.00,23.932
406.00,23.963
407.00,23.902
408.00,23.898
409.00,23.825
410.00,23.768
411.00,23.777
412.00,23.736
413.00,23.734
414.00,23.714
415.00,23.695
416.00,23.752
417.00,23.737
418.00,23.743
419.00,23.775
420.00,23.831
421.00,23.816
422.00,23.824
423.00,23.829
424.00,23.898
425.00,23.953
426.00,23.944
427.00,23.960
428.00,23.939
429.00,24.076
430.00,24.070
431.00,24.138
432.00,24.196
433.00,24.262
434.00,24.287
435.00,24.338
436.00,24.390
437.00,24.466
438.00,24.546
439.00,24.615
440.00,24.714
441.00,24.729
442.00,24.835
443.00,24.906
444.00,24.880
445.00,25.032
446.00,25.182
447.00,25.252
448.00,25.354
449.00,25.430
450.00,25.552
451.00,25.647
452.00,25.732
453.00,25.836
454.00,25.961
455.00,26.055
456.00,26.156
457.00,26.265
458.00,26.355
459.00,26.489
460.00,26.615
461.00,26.747
462.00,26.893
463.00,26.988
464.00,27.147
465.00,27.245
466.00,27.350
467.00,27.480
468.00,27.576
469.00,27.748
470.00,27.807
471.00,27.918
472.00,28.059
473.00,28.104
474.00,28.168
475.00,28.386
476.00,28.437
477.00,28.592
478.00,28.729
479.00,28.895
480.00,29.022
481.00,29.140
482.00,29.295
483.00,29.457
484.00,29.560
485.00,29.791
486.00,29.894
487.00,29.990
488.00,30.159
489.00,30.191
490.00,30.422
491.00,30.571
492.00,30.715
493.00,30.940
494.00,31.003
495.00,31.081
496.00,31.267
497.00,31.349
498.00,31.499
499.00,31.655
500.00,31.693
501.00,31.848
502.00,31.987
503.00,32.118
504.00,32.199
505.00,32.301
506.00,32.464
507.00,32.521
508.00,32.625
509.00,32.797
510.00,32.873
511.00,32.988
512.00,33.169
513.00,33.268
514.00,33.363
515.00,33.505
516.00,33.571
517.00,33.758
518.00,33.895
519.00,33.969
520.00,34.042
521.00,34.094
522.00,34.169
523.00,34.234
524.00,34.294
525.00,34.405
526.00,34.547
527.00,34.653
528.00,34.669
529.00,34.843
530.00,34.928
531.00,35.123
532.00,35.168
533.00,35.276
534.00,35.334
535.00,35.412
536.00,35.510
537.00,35.545
538.00,35.627
539.00,35.718
540.00,35.741
541.00,35.809
542.00,35.855
543.00,35.895
544.00,35.905
545.00,36.037
546.00,36.111
547.00,36.224
548.00,36.258
549.00,36.296
550.00,36.399
551.00,36.483
552.00,36.551
553.00,36.637
554.00,36.667
555.00,36.726
556.00,36.770
557.00,36.824
558.00,36.897
559.00,36.949
560.00,37.016
561.00,37.104
562.00,37.126
563.00,37.130
564.00,37.191
565.00,37.230
566.00,37.220
567.00,37.261
568.00,37.300
569.00,37.365
570.00,37.317
571.00,37.445
572.00,37.492
573.00,37.474
574.00,37.544
575.00,37.543
576.00,37.547
577.00,37.577
578.00,37.691
579.00,37.745
580.00,37.792
581.00,37.878
582.00,37.963
583.00,38.020
584.00,38.055
585.00,38.143
586.00,38.221
587.00,38.170
588.00,38.232
589.00,38.175
590.00,38.298
591.00,38.377
592.00,38.344
593.00,38.445
594.00,38.491
595.00,38.518
596.00,38.583
597.00,38.647
598.00,38.699
599.00,38.744
600.00,38.827
601.00,38.824
602.00,38.802
603.00,38.791
604.00,38.867
605.00,38.952
606.00,38.936
607.00,39.034
608.00,39.129
609.00,38.998
610.00,39.186
611.00,39.167
612.00,39.203
613.00,39.265
614.00,39.323
615.00,39.345
616.00,39.484
617.00,39.515
618.00,39.542
619.00,39.550
620.00,39.571
621.00,39.693
622.00,39.741
623.00,39.725
624.00,39.860
625.00,39.926
626.00,39.926
627.00,39.990
628.00,40.001
629.00,40.060
630.00,40.024
631.00,40.081
632.00,40.203
633.00,40.352
634.00,40.415
635.00,40.557
636.00,40.606
637.00,40.697
638.00,40.737
639.00,40.775
640.00,40.818
641.00,40.874
642.00,40.972
643.00,41.009
644.00,41.086
645.00,41.154
646.00,41.283
647.00,41.342
648.00,41.348
649.00,41.449
650.00,41.416
651.00,41.495
652.00,41.681
653.00,41.726
654.00,41.657
655.00,41.790
656.00,41.947
657.00,42.155
658.00,42.810
659.00,42.204
660.00,42.174
661.00,42.245
662.00,42.485
663.00,42.537
664.00,42.644
665.00,42.776
666.00,42.702
667.00,43.057
668.00,43.062
669.00,43.100
670.00,43.304
671.00,43.301
672.00,43.420
673.00,43.470
674.00,43.589
675.00,43.658
676.00,43.777
677.00,43.845
678.00,43.858
679.00,44.008
680.00,44.084
681.00,44.135
682.00,44.342
683.00,44.406
684.00,44.428
685.00,44.564
686.00,44.570
687.00,44.639
688.00,44.797
689.00,44.727
690.00,44.929
691.00,45.027
692.00,45.043
693.00,45.004
694.00,45.181
695.00,45.345
696.00,45.425
697.00,45.517
698.00,45.622
699.00,45.608
700.00,45.760
701.00,45.869
702.00,45.941
703.00,46.096
704.00,46.218
705.00,46.048
706.00,46.157
707.00,46.339
708.00,46.196
709.00,46.460
710.00,46.617
711.00,46.503
712.00,46.590
713.00,46.712
714.00,46.613
715.00,46.740
716.00,46.873
717.00,46.908
718.00,47.013
719.00,46.975
720.00,47.206
721.00,51.454
722.00,51.482
723.00,51.566
724.00,51.427
725.00,51.563
726.00,51.601
727.00,51.589
728.00,51.604
729.00,51.630
730.00,51.678
731.00,51.657
732.00,51.752
733.00,51.844
734.00,51.802
735.00,51.823
736.00,51.899
737.00,51.886
738.00,51.947
739.00,51.925
740.00,51.945
741.00,51.982
742.00,52.053
743.00,51.981
744.00,52.041
745.00,52.058
746.00,52.131
747.00,52.055
748.00,52.085
749.00,52.095
750.00,52.105
751.00,52.064
752.00,52.088
753.00,52.089
754.00,52.052
755.00,52.006
756.00,52.075
757.00,52.165
758.00,52.212
759.00,52.137
760.00,52.191
761.00,52.209
762.00,52.184
763.00,52.245
764.00,52.195
765.00,52.211
766.00,52.259
767.00,52.287
768.00,52.240
769.00,52.200
770.00,52.289
771.00,52.273
772.00,52.429
773.00,52.358
774.00,52.280
775.00,52.349
776.00,52.291
777.00,52.331
778.00,52.335
779.00,52.461
780.00,52.317
781.00,52.351
782.00,52.476
783.00,52.319
784.00,52.457
785.00,52.287
786.00,52.329
787.00,52.297
788.00,52.304
789.00,52.322
790.00,52.293
791.00,52.365
792.00,52.275
793.00,52.290
794.00,52.300
795.00,52.263
796.00,52.275
797.00,52.319
798.00,52.355
799.00,52.201
800.00,52.274
801.00,52.213
802.00,52.176
803.00,52.219
804.00,52.143
805.00,52.220
806.00,52.124
807.00,52.132
808.00,52.190
809.00,52.137
810.00,52.162
811.00,52.132
812.00,52.113
813.00,52.159
814.00,52.112
815.00,52.051
816.00,52.062
817.00,52.081
818.00,51.915
819.00,51.944
820.00,51.899
821.00,52.039
822.00,52.011
823.00,52.033
824.00,51.988
825.00,51.983
826.00,51.976
827.00,51.959
828.00,51.841
829.00,51.844
830.00,51.974
831.00,54.614
832.00,54.540
833.00,54.525
834.00,54.498
835.00,54.496
836.00,54.501
837.00,54.474
838.00,54.470
839.00,54.472
840.00,54.422
841.00,54.445
842.00,54.420
843.00,54.413
844.00,54.393
845.00,54.377
846.00,54.336
847.00,54.319
848.00,54.342
849.00,54.277
850.00,54.253
851.00,54.214
852.00,54.231
853.00,54.149
854.00,54.148
855.00,54.127
856.00,54.073
857.00,54.107
858.00,54.064
859.00,54.048
860.00,54.018
861.00,54.009
862.00,54.112
863.00,53.997
864.00,53.976
865.00,53.991
866.00,53.987
867.00,53.929
868.00,53.975
869.00,53.945
870.00,53.980
871.00,53.948
872.00,53.953
873.00,53.913
874.00,53.931
875.00,53.901
876.00,53.905
877.00,53.897
878.00,53.893
879.00,53.857
880.00,53.834
881.00,53.832
882.00,53.862
883.00,53.830
884.00,53.788
885.00,53.780
886.00,53.763
887.00,53.745
888.00,53.715
889.00,53.705
890.00,53.696
891.00,53.671
892.00,53.672
893.00,53.666
894.00,53.664
895.00,53.647
896.00,53.615
897.00,53.609
898.00,53.575
899.00,53.602
900.00,53.540
901.00,53.530
902.00,53.563
903.00,53.515
904.00,53.501
905.00,53.505
906.00,53.499
907.00,53.442
908.00,53.422
909.00,53.424
910.00,53.373
911.00,53.387
912.00,53.359
913.00,53.358
914.00,53.333
915.00,53.324
916.00,53.296
917.00,53.297
918.00,53.294
919.00,53.257
920.00,53.226
921.00,53.221
922.00,53.219
923.00,53.173
924.00,53.124
925.00,53.148
926.00,53.136
927.00,53.102
928.00,53.081
929.00,53.075
930.00,53.037
931.00,53.025
932.00,53.004
933.00,53.021
934.00,53.028
935.00,52.972
936.00,52.976
937.00,52.959
938.00,52.937
939.00,52.940
940.00,52.918
941.00,52.898
942.00,52.884
943.00,52.863
944.00,52.848
945.00,52.847
946.00,52.808
947.00,52.754
948.00,52.764
949.00,52.754
950.00,52.745
951.00,52.719
952.00,52.685
953.00,52.673
954.00,52.620
955.00,52.604
956.00,52.604
957.00,52.578
958.00,52.573
959.00,52.541
960.00,52.554
961.00,52.529
962.00,52.521
963.00,52.459
964.00,52.482
965.00,52.454
966.00,52.447
967.00,52.459
968.00,52.443
969.00,52.449
970.00,52.424
971.00,52.444
972.00,52.398
973.00,52.439
974.00,52.451
975.00,52.433
976.00,52.430
977.00,52.438
978.00,52.484
979.00,52.437
980.00,52.463
981.00,52.465
982.00,52.419
983.00,52.448
984.00,52.431
985.00,52.449
986.00,52.423
987.00,52.451
988.00,52.405
989.00,52.399
990.00,52.386
991.00,52.362
992.00,52.371
993.00,52.345
994.00,52.337
995.00,52.331
996.00,52.329
997.00,52.322
998.00,52.290
999.00,52.317
1000.00,52.269
1001.00,52.275
1002.00,52.264
1003.00,52.259
1004.00,52.227
1005.00,52.207
1006.00,52.240
1007.00,52.187
1008.00,52.180
1009.00,52.202
1010.00,52.180
1011.00,52.160
1012.00,52.135
1013.00,52.135
1014.00,52.104
1015.00,52.108
1016.00,52.080
1017.00,52.066
1018.00,52.039
1019.00,52.032
1020.00,52.020
1021.00,52.019
1022.00,52.019
1023.00,51.964
1024.00,51.967
1025.00,51.951
1026.00,51.944
1027.00,51.904
1028.00,51.900
1029.00,51.895
1030.00,51.874
1031.00,51.879
1032.00,51.827
1033.00,51.839
1034.00,51.799
1035.00,51.770
1036.00,51.735
1037.00,51.726
1038.00,51.718
1039.00,51.693
1040.00,51.689
1041.00,51.666
1042.00,51.665
1043.00,51.651
1044.00,51.697
1045.00,51.649
1046.00,51.652
1047.00,51.673
1048.00,51.678
1049.00,51.696
1050.00,51.697
1051.00,51.721
1052.00,51.743
1053.00,51.734
1054.00,51.732
1055.00,51.782
1056.00,51.770
1057.00,51.787
1058.00,51.763
1059.00,51.755
1060.00,51.790
1061.00,51.768
1062.00,51.743
1063.00,51.746
1064.00,51.730
1065.00,51.714
1066.00,51.702
1067.00,51.726
1068.00,51.726
1069.00,51.684
1070.00,51.677
1071.00,51.665
1072.00,51.680
1073.00,51.643
1074.00,51.658
1075.00,51.628
1076.00,51.651
1077.00,51.656
1078.00,51.640
1079.00,51.641
1080.00,51.642
1081.00,51.614
1082.00,51.625
1083.00,51.619
1084.00,51.616
1085.00,51.633
1086.00,51.597
1087.00,51.600
1088.00,51.595
1089.00,51.577
1090.00,51.581
1091.00,51.589
1092.00,51.573
1093.00,51.557
1094.00,51.529
1095.00,51.511
1096.00,51.510
1097.00,51.500
1098.00,51.505
1099.00,51.497
1100.00,51.481
1101.00,51.493
1102.00,51.481
1103.00,51.479
1104.00,51.472
1105.00,51.439
1106.00,51.413
1107.00,51.426
1108.00,51.408
1109.00,51.399
1110.00,51.411
1111.00,51.391
1112.00,51.390
1113.00,51.379
1114.00,51.386
1115.00,51.396
1116.00,51.373
1117.00,51.347
1118.00,51.350
1119.00,51.327
1120.00,51.327
1121.00,51.339
1122.00,51.318
1123.00,51.319
1124.00,51.331
1125.00,51.321
1126.00,51.317
1127.00,51.320
1128.00,51.306
1129.00,51.290
1130.00,51.265
1131.00,51.262
1132.00,51.255
1133.00,51.244
1134.00,51.250
1135.00,51.242
1136.00,51.243
1137.00,51.235
1138.00,51.234
1139.00,51.253
1140.00,51.256
1141.00,51.225
1142.00,51.220
1143.00,51.252
1144.00,51.220
1145.00,51.222
1146.00,51.225
1147.00,51.218
1148.00,51.214
1149.00,51.229
1150.00,51.223
1151.00,51.227
1152.00,51.208
1153.00,51.212
1154.00,51.212
1155.00,51.211
1156.00,51.206
1157.00,51.220
1158.00,51.210
1159.00,51.216
1160.00,51.207
1161.00,51.217
1162.00,51.220
1163.00,51.207
1164.00,51.193
1165.00,51.196
1166.00,51.174
1167.00,51.183
1168.00,51.197
1169.00,51.179
1170.00,51.182
1171.00,51.165
1172.00,51.168
1173.00,51.165
1174.00,51.189
1175.00,51.155
1176.00,51.185
1177.00,51.173
1178.00,51.153
1179.00,51.179
1180.00,51.163
1181.00,51.177
1182.00,51.169
1183.00,51.154
1184.00,51.152
1185.00,51.154
1186.00,51.148
1187.00,51.177
1188.00,51.151
1189.00,51.157
1190.00,51.167
1191.00,51.173
1192.00,51.212
1193.00,51.198
1194.00,51.186
1195.00,51.169
1196.00,51.167
1197.00,51.174
1198.00,51.178
1199.00,51.167
1200.00,51.183
1201.00,51.191
1202.00,51.185
1203.00,51.172
1204.00,51.166
1205.00,51.194
1206.00,51.161
1207.00,51.174
1208.00,51.170
1209.00,51.176
1210.00,51.152
1211.00,51.167
1212.00,51.181
1213.00,51.143
1214.00,51.171
1215.00,51.149
1216.00,51.161
1217.00,51.170
1218.00,51.151
1219.00,51.170
1220.00,51.171
1221.00,51.154
1222.00,51.158
1223.00,51.206
1224.00,51.163
1225.00,51.168
1226.00,51.168
1227.00,51.152
1228.00,51.179
1229.00,51.174
1230.00,51.218
1231.00,51.192
1232.00,51.207
1233.00,51.216
1234.00,51.213
1235.00,51.192
1236.00,51.205
1237.00,51.223
1238.00,51.227
1239.00,51.226
1240.00,51.200
1241.00,51.217
1242.00,51.221
1243.00,51.225
1244.00,51.224
1245.00,51.248
1246.00,51.250
1247.00,51.254
1248.00,51.242
1249.00,51.261
1250.00,51.260
1251.00,51.251
1252.00,51.239
1253.00,51.258
1254.00,51.285
1255.00,51.250
1256.00,51.243
1257.00,51.225
1258.00,51.274
1259.00,51.258
1260.00,51.274
1261.00,51.275
1262.00,51.268
1263.00,51.270
1264.00,51.295
1265.00,51.292
1266.00,51.296
1267.00,51.308
1268.00,51.313
1269.00,51.326
1270.00,51.343
1271.00,51.333
1272.00,51.351
1273.00,51.348
1274.00,51.333
1275.00,51.349
1276.00,51.343
1277.00,51.361
1278.00,51.372
1279.00,51.365
1280.00,51.361
1281.00,51.378
1282.00,51.379
1283.00,51.410
1284.00,51.374
1285.00,51.381
1286.00,51.407
1287.00,51.386
1288.00,51.401
1289.00,51.392
1290.00,51.422
1291.00,51.426
1292.00,51.414
1293.00,51.431
1294.00,51.444
1295.00,51.445
1296.00,51.441
1297.00,51.468
1298.00,51.494
1299.00,51.462
1300.00,51.483
1301.00,51.473
1302.00,51.512
1303.00,51.504
1304.00,51.470
1305.00,51.489
1306.00,51.474
1307.00,51.473
1308.00,51.492
1309.00,51.486
1310.00,51.490
1311.00,51.488
1312.00,51.512
1313.00,51.531
1314.00,51.534
1315.00,51.534
1316.00,51.552
1317.00,51.567
1318.00,51.572
1319.00,51.584
1320.00,51.570
1321.00,51.722
1322.00,51.709
1323.00,51.691
1324.00,51.704
1325.00,51.684
1326.00,51.711
1327.00,51.714
1328.00,51.710
1329.00,51.702
1330.00,51.719
1331.00,51.693
1332.00,51.704
1333.00,51.695
1334.00,51.718
1335.00,51.747
1336.00,51.778
1337.00,51.783
1338.00,51.886
1339.00,51.903
1340.00,51.955
1341.00,52.031
1342.00,52.090
1343.00,52.194
1344.00,52.217
1345.00,52.257
1346.00,52.311
1347.00,52.344
1348.00,52.328
1349.00,52.357
1350.00,52.343
1351.00,52.391
1352.00,52.381
1353.00,52.372
1354.00,52.390
1355.00,52.395
1356.00,52.420
1357.00,52.420
1358.00,52.411
1359.00,52.384
1360.00,52.446
1361.00,52.585
1362.00,52.490
1363.00,52.438
1364.00,52.488
1365.00,52.429
1366.00,52.482
1367.00,52.459
1368.00,52.402
1369.00,52.421
1370.00,52.391
1371.00,52.517
1372.00,52.407
1373.00,52.413
1374.00,52.433
1375.00,52.388
1376.00,52.405
1377.00,52.378
1378.00,52.410
1379.00,52.380
1380.00,52.400
1381.00,52.418
1382.00,52.440
1383.00,52.415
1384.00,52.383
1385.00,52.395
1386.00,52.376
1387.00,52.385
1388.00,52.361
1389.00,52.398
1390.00,52.368
1391.00,52.383
1392.00,52.343
1393.00,52.330
1394.00,52.385
1395.00,52.429
1396.00,52.347
1397.00,52.349
1398.00,52.335
1399.00,52.364
1400.00,52.381
1401.00,52.372
1402.00,52.384
1403.00,52.388
1404.00,52.394
1405.00,52.400
1406.00,52.437
1407.00,52.412
1408.00,52.432
1409.00,52.446
1410.00,52.476
1411.00,52.388
1412.00,52.513
1413.00,52.469
1414.00,52.480
1415.00,52.472
1416.00,52.550
1417.00,52.537
1418.00,52.520
1419.00,52.515
1420.00,52.532
1421.00,52.566
1422.00,52.541
1423.00,52.574
1424.00,52.579
1425.00,52.570
1426.00,52.594
1427.00,52.580
1428.00,52.603
1429.00,52.652
1430.00,52.630
1431.00,52.696
1432.00,52.684
1433.00,52.686
1434.00,52.679
1435.00,52.727
1436.00,52.720
1437.00,52.720
1438.00,52.721
1439.00,52.767
1440.00,52.772
1441.00,52.764
1442.00,52.806
1443.00,52.842
1444.00,52.846
1445.00,52.837
1446.00,52.863
1447.00,52.884
1448.00,52.889
1449.00,52.899
1450.00,52.903
1451.00,52.913
1452.00,52.907
1453.00,52.922
1454.00,52.950
1455.00,52.972
1456.00,52.992
1457.00,53.004
1458.00,52.998
1459.00,53.041
1460.00,53.025
1461.00,53.056
1462.00,53.103
1463.00,53.064
1464.00,53.093
1465.00,53.114
1466.00,53.105
1467.00,53.132
1468.00,53.179
1469.00,53.142
1470.00,53.180
1471.00,53.181
1472.00,53.194
1473.00,53.213
1474.00,53.218
1475.00,53.259
1476.00,53.266
1477.00,53.242
1478.00,53.297
1479.00,53.294
1480.00,53.276
1481.00,53.293
1482.00,53.305
1483.00,53.297
1484.00,53.325
1485.00,53.336
1486.00,53.354
1487.00,53.395
1488.00,53.377
1489.00,53.387
1490.00,53.403
1491.00,53.407
1492.00,53.415
1493.00,53.392
1494.00,53.435
1495.00,53.412
1496.00,53.430
1497.00,53.429
1498.00,53.454
1499.00,53.472
1500.00,53.494
1501.00, 
1502.00, 
1503.00, 
1504.00, 
1505.00, 
1506.00, 
1507.00, 
1508.00, 
1509.00, 
1510.00, 
1511.00, 
1512.00, 
1513.00, 
1514.00, 
1515.00, 
1516.00, 
1517.00, 
1518.00, 
1519.00, 
1520.00, 
1521.00, 
1522.00, 
1523.00, 
1524.00, 
1525.00, 
1526.00, 
1527.00, 
1528.00, 
1529.00, 
1530.00, 
1531.00, 
1532.00, 
1533.00, 
1534.00, 
1535.00, 
1536.00, 
1537.00, 
1538.00, 
1539.00, 
1540.00, 
1541.00, 
1542.00, 
1543.00, 
1544.00, 
1545.00, 
1546.00, 
1547.00, 
1548.00, 
1549.00, 
1550.00, 
1551.00, 
1552.00, 
1553.00, 
1554.00, 
1555.00, 
1556.00, 
1557.00, 
1558.00, 
1559.00, 
1560.00, 
1561.00, 
1562.00, 
1563.00, 
1564.00, 
1565.00, 
1566.00, 
1567.00, 
1568.00, 
1569.00, 
1570.00, 
1571.00, 
1572.00, 
1573.00, 
1574.00, 
1575.00, 
1576.00, 
1577.00, 
1578.00, 
1579.00, 
1580.00, 
1581.00, 
1582.00, 
1583.00, 
1584.00, 
1585.00, 
1586.00, 
1587.00, 
1588.00, 
1589.00, 
1590.00, 
1591.00, 
1592.00, 
1593.00, 
1594.00, 
1595.00, 
1596.00, 
1597.00, 
1598.00, 
1599.00, 
1600.00, 
1601.00, 
1602.00, 
1603.00, 
1604.00, 
1605.00, 
1606.00, 
1607.00, 
1608.00, 
1609.00, 
1610.00, 
1611.00, 
1612.00, 
1613.00, 
1614.00, 
1615.00, 
1616.00, 
1617.00, 
1618.00, 
1619.00, 
1620.00, 
1621.00, 
1622.00, 
1623.00, 
1624.00, 
1625.00, 
1626.00, 
1627.00, 
1628.00, 
1629.00, 
1630.00, 
1631.00, 
1632.00, 
1633.00, 
1634.00, 
1635.00, 
1636.00, 
1637.00, 
1638.00, 
1639.00, 
1640.00, 
1641.00, 
1642.00, 
1643.00, 
1644.00, 
1645.00, 
1646.00, 
1647.00, 
1648.00, 
1649.00, 
1650.00, 
1651.00, 
1652.00, 
1653.00, 
1654.00, 
1655.00, 
1656.00, 
1657.00, 
1658.00, 
1659.00, 
1660.00, 
1661.00, 
1662.00, 
1663.00, 
1664.00, 
1665.00, 
1666.00, 
1667.00, 
1668.00, 
1669.00, 
1670.00, 
1671.00, 
1672.00, 
1673.00, 
1674.00, 
1675.00, 
1676.00, 
1677.00, 
1678.00, 
1679.00, 
1680.00, 
1681.00, 
1682.00, 
1683.00, 
1684.00, 
1685.00, 
1686.00, 
1687.00, 
1688.00, 
1689.00, 
1690.00, 
1691.00, 
1692.00, 
1693.00, 
1694.00, 
1695.00, 
1696.00, 
1697.00, 
1698.00, 
1699.00, 
1700.00, 
1701.00, 
1702.00, 
1703.00, 
1704.00, 
1705.00, 
1706.00, 
1707.00, 
1708.00, 
1709.00, 
1710.00, 
1711.00, 
1712.00, 
1713.00, 
1714.00, 
1715.00, 
1716.00, 
1717.00, 
1718.00, 
1719.00, 
1720.00, 
1721.00, 
1722.00, 
1723.00, 
1724.00, 
1725.00, 
1726.00, 
1727.00, 
1728.00, 
1729.00, 
1730.00, 
1731.00, 
1732.00, 
1733.00, 
1734.00, 
1735.00, 
1736.00, 
1737.00, 
1738.00, 
1739.00, 
1740.00, 
1741.00, 
1742.00, 
1743.00, 
1744.00, 
1745.00, 
1746.00, 
1747.00, 
1748.00, 
1749.00, 
1750.00, 
1751.00, 
1752.00, 
1753.00, 
1754.00, 
1755.00, 
1756.00, 
1757.00, 
1758.00, 
1759.00, 
1760.00, 
1761.00, 
1762.00, 
1763.00, 
1764.00, 
1765.00, 
1766.00, 
1767.00, 
1768.00, 
1769.00, 
1770.00, 
1771.00, 
1772.00, 
1773.00, 
1774.00, 
1775.00, 
1776.00, 
1777.00, 
1778.00, 
1779.00, 
1780.00, 
1781.00, 
1782.00, 
1783.00, 
1784.00, 
1785.00, 
1786.00, 
1787.00, 
1788.00, 
1789.00, 
1790.00, 
1791.00, 
1792.00, 
1793.00, 
1794.00, 
1795.00, 
1796.00, 
1797.00, 
1798.00, 
1799.00, 
1800.00, 
1801.00, 
1802.00, 
1803.00, 
1804.00, 
1805.00, 
1806.00, 
1807.00, 
1808.00, 
1809.00, 
1810.00, 
1811.00, 
1812.00, 
1813.00, 
1814.00, 
1815.00, 
1816.00, 
1817.00, 
1818.00, 
1819.00, 
1820.00, 
1821.00, 
1822.00, 
1823.00, 
1824.00, 
1825.00, 
1826.00, 
1827.00, 
1828.00, 
1829.00, 
1830.00, 
1831.00, 
1832.00, 
1833.00, 
1834.00, 
1835.00, 
1836.00, 
1837.00, 
1838.00, 
1839.00, 
1840.00, 
1841.00, 
1842.00, 
1843.00, 
1844.00, 
1845.00, 
1846.00, 
1847.00, 
1848.00, 
1849.00, 
1850.00, 
1851.00, 
1852.00, 
1853.00, 
1854.00, 
1855.00, 
1856.00, 
1857.00, 
1858.00, 
1859.00, 
1860.00, 
1861.00, 
1862.00, 
1863.00, 
1864.00, 
1865.00, 
1866.00, 
1867.00, 
1868.00, 
1869.00, 
1870.00, 
1871.00, 
1872.00, 
1873.00, 
1874.00, 
1875.00, 
1876.00, 
1877.00, 
1878.00, 
1879.00, 
1880.00, 
1881.00, 
1882.00, 
1883.00, 
1884.00, 
1885.00, 
1886.00, 
1887.00, 
1888.00, 
1889.00, 
1890.00, 
1891.00, 
1892.00, 
1893.00, 
1894.00, 
1895.00, 
1896.00, 
1897.00, 
1898.00, 
1899.00, 
1900.00, 
1901.00, 
1902.00, 
1903.00, 
1904.00, 
1905.00, 
1906.00, 
1907.00, 
1908.00, 
1909.00, 
1910.00, 
1911.00, 
1912.00, 
1913.00, 
1914.00, 
1915.00, 
1916.00, 
1917.00, 
1918.00, 
1919.00, 
1920.00, 
1921.00, 
1922.00, 
1923.00, 
1924.00, 
1925.00, 
1926.00, 
1927.00, 
1928.00, 
1929.00, 
1930.00, 
1931.00, 
1932.00, 
1933.00, 
1934.00, 
1935.00, 
1936.00, 
1937.00, 
1938.00, 
1939.00, 
1940.00, 
1941.00, 
1942.00, 
1943.00, 
1944.00, 
1945.00, 
1946.00, 
1947.00, 
1948.00, 
1949.00, 
1950.00, 
1951.00, 
1952.00, 
1953.00, 
1954.00, 
1955.00, 
1956.00, 
1957.00, 
1958.00, 
1959.00, 
1960.00, 
1961.00, 
1962.00, 
1963.00, 
1964.00, 
1965.00, 
1966.00, 
1967.00, 
1968.00, 
1969.00, 
1970.00, 
1971.00, 
1972.00, 
1973.00, 
1974.00, 
1975.00, 
1976.00, 
1977.00, 
1978.00, 
1979.00, 
1980.00, 
1981.00, 
1982.00, 
1983.00, 
1984.00, 
1985.00, 
1986.00, 
1987.00, 
1988.00, 
1989.00, 
1990.00, 
1991.00, 
1992.00, 
1993.00, 
1994.00, 
1995.00, 
1996.00, 
1997.00, 
1998.00, 
1999.00, 
2000.00, 
2001.00, 
2002.00, 
2003.00, 
2004.00, 
2005.00, 
2006.00, 
2007.00, 
2008.00, 
2009.00, 
2010.00, 
2011.00, 
2012.00, 
2013.00, 
2014.00, 
2015.00, 
2016.00, 
2017.00, 
2018.00, 
2019.00, 
2020.00, 
2021.00, 
2022.00, 
2023.00, 
2024.00, 
2025.00, 
2026.00, 
2027.00, 
2028.00, 
2029.00, 
2030.00, 
2031.00, 
2032.00, 
2033.00, 
2034.00, 
2035.00, 
2036.00, 
2037.00, 
2038.00, 
2039.00, 
2040.00, 
2041.00, 
2042.00, 
2043.00, 
2044.00, 
2045.00, 
2046.00, 
2047.00, 
2048.00, 
2049.00, 
2050.00, 
2051.00, 
2052.00, 
2053.00, 
2054.00, 
2055.00, 
2056.00, 
2057.00, 
2058.00, 
2059.00, 
2060.00, 
2061.00, 
2062.00, 
2063.00, 
2064.00, 
2065.00, 
2066.00, 
2067.00, 
2068.00, 
2069.00, 
2070.00, 
2071.00, 
2072.00, 
2073.00, 
2074.00, 
2075.00, 
2076.00, 
2077.00, 
2078.00, 
2079.00, 
2080.00, 
2081.00, 
2082.00, 
2083.00, 
2084.00, 
2085.00, 
2086.00, 
2087.00, 
2088.00, 
2089.00, 
2090.00, 
2091.00, 
2092.00, 
2093.00, 
2094.00, 
2095.00, 
2096.00, 
2097.00, 
2098.00, 
2099.00, 
2100.00, 
2101.00, 
2102.00, 
2103.00, 
2104.00, 
2105.00, 
2106.00, 
2107.00, 
2108.00, 
2109.00, 
2110.00, 
2111.00, 
2112.00, 
2113.00, 
2114.00, 
2115.00, 
2116.00, 
2117.00, 
2118.00, 
2119.00, 
2120.00, 
2121.00, 
2122.00, 
2123.00, 
2124.00, 
2125.00, 
2126.00, 
2127.00, 
2128.00, 
2129.00, 
2130.00, 
2131.00, 
2132.00, 
2133.00, 
2134.00, 
2135.00, 
2136.00, 
2137.00, 
2138.00, 
2139.00, 
2140.00, 
2141.00, 
2142.00, 
2143.00, 
2144.00, 
2145.00, 
2146.00, 
2147.00, 
2148.00, 
2149.00, 
2150.00, 
2151.00, 
2152.00, 
2153.00, 
2154.00, 
2155.00, 
2156.00, 
2157.00, 
2158.00, 
2159.00, 
2160.00, 
2161.00, 
2162.00, 
2163.00, 
2164.00, 
2165.00, 
2166.00, 
2167.00, 
2168.00, 
2169.00, 
2170.00, 
2171.00, 
2172.00, 
2173.00, 
2174.00, 
2175.00, 
2176.00, 
2177.00, 
2178.00, 
2179.00, 
2180.00, 
2181.00, 
2182.00, 
2183.00, 
2184.00, 
2185.00, 
2186.00, 
2187.00, 
2188.00, 
2189.00, 
2190.00, 
2191.00, 
2192.00, 
2193.00, 
2194.00, 
2195.00, 
2196.00, 
2197.00, 
2198.00, 
2199.00, 
2200.00, 
2201.00, 
2202.00, 
2203.00, 
2204.00, 
2205.00, 
2206.00, 
2207.00, 
2208.00, 
2209.00, 
2210.00, 
2211.00, 
2212.00, 
2213.00, 
2214.00, 
2215.00, 
2216.00, 
2217.00, 
2218.00, 
2219.00, 
2220.00, 
2221.00, 
2222.00, 
2223.00, 
2224.00, 
2225.00, 
2226.00, 
2227.00, 
2228.00, 
2229.00, 
2230.00, 
2231.00, 
2232.00, 
2233.00, 
2234.00, 
2235.00, 
2236.00, 
2237.00, 
2238.00, 
2239.00, 
2240.00, 
2241.00, 
2242.00, 
2243.00, 
2244.00, 
2245.00, 
2246.00, 
2247.00, 
2248.00, 
2249.00, 
2250.00, 
2251.00, 
2252.00, 
2253.00, 
2254.00, 
2255.00, 
2256.00, 
2257.00, 
2258.00, 
2259.00, 
2260.00, 
2261.00, 
2262.00, 
2263.00, 
2264.00, 
2265.00, 
2266.00, 
2267.00, 
2268.00, 
2269.00, 
2270.00, 
2271.00, 
2272.00, 
2273.00, 
2274.00, 
2275.00, 
2276.00, 
2277.00, 
2278.00, 
2279.00, 
2280.00, 
2281.00, 
2282.00, 
2283.00, 
2284.00, 
2285.00, 
2286.00, 
2287.00, 
2288.00, 
2289.00, 
2290.00, 
2291.00, 
2292.00, 
2293.00, 
2294.00, 
2295.00, 
2296.00, 
2297.00, 
2298.00, 
2299.00, 
2300.00, 
2301.00, 
2302.00, 
2303.00, 
2304.00, 
2305.00, 
2306.00, 
2307.00, 
2308.00, 
2309.00, 
2310.00, 
2311.00, 
2312.00, 
2313.00, 
2314.00, 
2315.00, 
2316.00, 
2317.00, 
2318.00, 
2319.00, 
2320.00, 
2321.00, 
2322.00, 
2323.00, 
2324.00, 
2325.00, 
2326.00, 
2327.00, 
2328.00, 
2329.00, 
2330.00, 
2331.00, 
2332.00, 
2333.00, 
2334.00, 
2335.00, 
2336.00, 
2337.00, 
2338.00, 
2339.00, 
2340.00, 
2341.00, 
2342.00, 
2343.00, 
2344.00, 
2345.00, 
2346.00, 
2347.00, 
2348.00, 
2349.00, 
2350.00, 
2351.00, 
2352.00, 
2353.00, 
2354.00, 
2355.00, 
2356.00, 
2357.00, 
2358.00, 
2359.00, 
2360.00, 
2361.00, 
2362.00, 
2363.00, 
2364.00, 
2365.00, 
2366.00, 
2367.00, 
2368.00, 
2369.00, 
2370.00, 
2371.00, 
2372.00, 
2373.00, 
2374.00, 
2375.00, 
2376.00, 
2377.00, 
2378.00, 
2379.00, 
2380.00, 
2381.00, 
2382.00, 
2383.00, 
2384.00, 
2385.00, 
2386.00, 
2387.00, 
2388.00, 
2389.00, 
2390.00, 
2391.00, 
2392.00, 
2393.00, 
2394.00, 
2395.00, 
2396.00, 
2397.00, 
2398.00, 
2399.00, 
2400.00, 
2401.00, 
2402.00, 
2403.00, 
2404.00, 
2405.00, 
2406.00, 
2407.00, 
2408.00, 
2409.00, 
2410.00, 
2411.00, 
2412.00, 
2413.00, 
2414.00, 
2415.00, 
2416.00, 
2417.00, 
2418.00, 
2419.00, 
2420.00, 
2421.00, 
2422.00, 
2423.00, 
2424.00, 
2425.00, 
2426.00, 
2427.00, 
2428.00, 
2429.00, 
2430.00, 
2431.00, 
2432.00, 
2433.00, 
2434.00, 
2435.00, 
2436.00, 
2437.00, 
2438.00, 
2439.00, 
2440.00, 
2441.00, 
2442.00, 
2443.00, 
2444.00, 
2445.00, 
2446.00, 
2447.00, 
2448.00, 
2449.00, 
2450.00, 
2451.00, 
2452.00, 
2453.00, 
2454.00, 
2455.00, 
2456.00, 
2457.00, 
2458.00, 
2459.00, 
2460.00, 
2461.00, 
2462.00, 
2463.00, 
2464.00, 
2465.00, 
2466.00, 
2467.00, 
2468.00, 
2469.00, 
2470.00, 
2471.00, 
2472.00, 
2473.00, 
2474.00, 
2475.00, 
2476.00, 
2477.00, 
2478.00, 
2479.00, 
2480.00, 
2481.00, 
2482.00, 
2483.00, 
2484.00, 
2485.00, 
2486.00, 
2487.00, 
2488.00, 
2489.00, 
2490.00, 
2491.00, 
2492.00, 
2493.00, 
2494.00, 
2495.00, 
2496.00, 
2497.00, 
2498.00, 
2499.00, 
2500.00, 
2501.00, 
2502.00, 
2503.00, 
2504.00, 
2505.00, 
2506.00, 
2507.00, 
2508.00, 
2509.00, 
2510.00, 
2511.00, 
2512.00, 
2513.00, 
2514.00, 
2515.00, 
2516.00, 
2517.00, 
2518.00, 
2519.00, 
2520.00, 
2521.00, 
2522.00, 
2523.00, 
2524.00, 
2525.00, 
2526.00, 
2527.00, 
2528.00, 
2529.00, 
2530.00, 
2531.00, 
2532.00, 
2533.00, 
2534.00, 
2535.00, 
2536.00, 
2537.00, 
2538.00, 
2539.00, 
2540.00, 
2541.00, 
2542.00, 
2543.00, 
2544.00, 
2545.00, 
2546.00, 
2547.00, 
2548.00, 
2549.00, 
2550.00, 
2551.00, 
2552.00, 
2553.00, 
2554.00, 
2555.00, 
2556.00, 
2557.00, 
2558.00, 
2559.00, 
2560.00, 
2561.00, 
2562.00, 
2563.00, 
2564.00, 
2565.00, 
2566.00, 
2567.00, 
2568.00, 
2569.00, 
2570.00, 
2571.00, 
2572.00, 
2573.00, 
2574.00, 
2575.00, 
2576.00, 
2577.00, 
2578.00, 
2579.00, 
2580.00, 
2581.00, 
2582.00, 
2583.00, 
2584.00, 
2585.00, 
2586.00, 
2587.00, 
2588.00, 
2589.00, 
2590.00, 
2591.00, 
2592.00, 
2593.00, 
2594.00, 
2595.00, 
2596.00, 
2597.00, 
2598.00, 
2599.00, 
2600.00, 
