"1cP1 - RawData"
"Wavelength nm.","T%"
200.00,-0.000
201.00,0.005
202.00,-0.002
203.00,-0.001
204.00,0.002
205.00,0.003
206.00,0.003
207.00,0.001
208.00,0.001
209.00,0.002
210.00,-0.001
211.00,0.001
212.00,0.000
213.00,0.002
214.00,0.002
215.00,0.002
216.00,-0.000
217.00,0.002
218.00,-0.000
219.00,0.003
220.00,0.000
221.00,-0.000
222.00,-0.001
223.00,0.001
224.00,0.001
225.00,0.002
226.00,0.001
227.00,0.000
228.00,0.002
229.00,0.002
230.00,-0.000
231.00,0.001
232.00,0.000
233.00,0.001
234.00,0.001
235.00,-0.001
236.00,-0.000
237.00,0.001
238.00,0.001
239.00,-0.001
240.00,0.002
241.00,0.002
242.00,0.002
243.00,0.000
244.00,0.001
245.00,0.001
246.00,0.001
247.00,-0.001
248.00,0.001
249.00,-0.000
250.00,0.001
251.00,0.000
252.00,-0.001
253.00,0.001
254.00,-0.001
255.00,0.000
256.00,-0.001
257.00,-0.000
258.00,0.001
259.00,0.000
260.00,0.000
261.00,-0.002
262.00,-0.001
263.00,0.001
264.00,-0.000
265.00,-0.000
266.00,0.001
267.00,-0.001
268.00,-0.000
269.00,0.001
270.00,-0.002
271.00,-0.001
272.00,0.001
273.00,0.000
274.00,0.000
275.00,0.000
276.00,0.000
277.00,-0.000
278.00,0.001
279.00,-0.000
280.00,-0.000
281.00,-0.001
282.00,-0.001
283.00,0.000
284.00,0.000
285.00,0.003
286.00,0.001
287.00,0.000
288.00,0.001
289.00,0.001
290.00,-0.000
291.00,-0.000
292.00,-0.001
293.00,0.001
294.00,0.001
295.00,-0.001
296.00,0.000
297.00,0.001
298.00,0.001
299.00,0.001
300.00,-0.000
301.00,-0.000
302.00,-0.001
303.00,0.001
304.00,0.001
305.00,0.002
306.00,0.002
307.00,0.003
308.00,0.005
309.00,0.010
310.00,0.015
311.00,0.021
312.00,0.033
313.00,0.052
314.00,0.080
315.00,0.118
316.00,0.163
317.00,0.230
318.00,0.311
319.00,0.423
320.00,0.557
321.00,0.738
322.00,0.915
323.00,1.189
324.00,1.471
325.00,1.767
326.00,2.083
327.00,2.487
328.00,2.906
329.00,3.349
330.00,3.824
331.00,4.328
332.00,4.871
333.00,5.441
334.00,6.002
335.00,6.617
336.00,7.174
337.00,7.822
338.00,8.404
339.00,8.997
340.00,9.511
341.00,10.118
342.00,10.649
343.00,11.184
344.00,11.732
345.00,12.227
346.00,12.679
347.00,13.121
348.00,13.552
349.00,13.890
350.00,14.281
351.00,14.616
352.00,14.930
353.00,15.214
354.00,15.536
355.00,15.788
356.00,16.034
357.00,16.252
358.00,16.433
359.00,16.697
360.00,16.878
361.00,17.026
362.00,17.174
363.00,17.314
364.00,17.371
365.00,17.475
366.00,17.573
367.00,17.647
368.00,17.681
369.00,17.691
370.00,17.722
371.00,17.745
372.00,17.665
373.00,17.753
374.00,17.694
375.00,17.606
376.00,17.537
377.00,17.487
378.00,17.393
379.00,17.302
380.00,17.256
381.00,17.249
382.00,17.235
383.00,17.245
384.00,17.297
385.00,17.307
386.00,17.286
387.00,17.369
388.00,17.425
389.00,17.453
390.00,17.497
391.00,17.481
392.00,17.514
393.00,17.522
394.00,17.511
395.00,17.544
396.00,17.506
397.00,17.535
398.00,17.527
399.00,17.530
400.00,17.526
401.00,17.454
402.00,17.506
403.00,17.515
404.00,17.503
405.00,17.465
406.00,17.468
407.00,17.445
408.00,17.430
409.00,17.345
410.00,17.294
411.00,17.310
412.00,17.291
413.00,17.290
414.00,17.232
415.00,17.230
416.00,17.265
417.00,17.230
418.00,17.272
419.00,17.326
420.00,17.361
421.00,17.324
422.00,17.327
423.00,17.356
424.00,17.399
425.00,17.441
426.00,17.437
427.00,17.491
428.00,17.510
429.00,17.572
430.00,17.555
431.00,17.622
432.00,17.664
433.00,17.702
434.00,17.758
435.00,17.817
436.00,17.893
437.00,17.933
438.00,18.006
439.00,18.050
440.00,18.125
441.00,18.184
442.00,18.265
443.00,18.374
444.00,18.430
445.00,18.481
446.00,18.595
447.00,18.636
448.00,18.774
449.00,18.875
450.00,18.914
451.00,18.998
452.00,19.139
453.00,19.201
454.00,19.346
455.00,19.463
456.00,19.521
457.00,19.623
458.00,19.773
459.00,19.846
460.00,20.055
461.00,20.145
462.00,20.286
463.00,20.415
464.00,20.540
465.00,20.631
466.00,20.725
467.00,20.867
468.00,20.970
469.00,21.115
470.00,21.213
471.00,21.289
472.00,21.419
473.00,21.542
474.00,21.622
475.00,21.770
476.00,21.875
477.00,22.034
478.00,22.143
479.00,22.337
480.00,22.455
481.00,22.588
482.00,22.689
483.00,22.904
484.00,22.998
485.00,23.204
486.00,23.374
487.00,23.508
488.00,23.641
489.00,23.777
490.00,23.946
491.00,24.057
492.00,24.194
493.00,24.425
494.00,24.548
495.00,24.620
496.00,24.771
497.00,24.853
498.00,24.975
499.00,25.159
500.00,25.251
501.00,25.398
502.00,25.568
503.00,25.704
504.00,25.764
505.00,25.928
506.00,26.039
507.00,26.166
508.00,26.281
509.00,26.471
510.00,26.606
511.00,26.659
512.00,26.864
513.00,26.982
514.00,27.138
515.00,27.251
516.00,27.371
517.00,27.493
518.00,27.664
519.00,27.712
520.00,27.792
521.00,27.915
522.00,27.975
523.00,28.079
524.00,28.162
525.00,28.311
526.00,28.446
527.00,28.486
528.00,28.556
529.00,28.756
530.00,28.910
531.00,28.998
532.00,29.048
533.00,29.217
534.00,29.310
535.00,29.391
536.00,29.501
537.00,29.578
538.00,29.628
539.00,29.715
540.00,29.803
541.00,29.893
542.00,29.941
543.00,29.996
544.00,30.109
545.00,30.187
546.00,30.266
547.00,30.397
548.00,30.454
549.00,30.504
550.00,30.581
551.00,30.699
552.00,30.789
553.00,30.794
554.00,30.909
555.00,30.929
556.00,31.010
557.00,31.065
558.00,31.159
559.00,31.241
560.00,31.324
561.00,31.401
562.00,31.447
563.00,31.454
564.00,31.567
565.00,31.593
566.00,31.612
567.00,31.673
568.00,31.725
569.00,31.787
570.00,31.818
571.00,31.873
572.00,31.913
573.00,31.906
574.00,32.019
575.00,31.978
576.00,31.994
577.00,32.072
578.00,32.173
579.00,32.287
580.00,32.330
581.00,32.418
582.00,32.457
583.00,32.459
584.00,32.577
585.00,32.662
586.00,32.773
587.00,32.777
588.00,32.811
589.00,32.806
590.00,32.914
591.00,32.984
592.00,32.935
593.00,33.020
594.00,33.120
595.00,33.185
596.00,33.196
597.00,33.292
598.00,33.346
599.00,33.364
600.00,33.437
601.00,33.515
602.00,33.554
603.00,33.537
604.00,33.564
605.00,33.634
606.00,33.720
607.00,33.715
608.00,33.800
609.00,33.891
610.00,34.036
611.00,33.925
612.00,33.984
613.00,34.047
614.00,34.134
615.00,34.180
616.00,34.277
617.00,34.309
618.00,34.296
619.00,34.415
620.00,34.400
621.00,34.499
622.00,34.575
623.00,34.641
624.00,34.710
625.00,34.817
626.00,34.861
627.00,34.912
628.00,34.960
629.00,34.974
630.00,34.944
631.00,35.140
632.00,35.297
633.00,35.417
634.00,35.445
635.00,35.573
636.00,35.635
637.00,35.699
638.00,35.740
639.00,35.847
640.00,35.884
641.00,35.931
642.00,36.083
643.00,36.148
644.00,36.269
645.00,36.305
646.00,36.443
647.00,36.549
648.00,36.535
649.00,36.610
650.00,36.636
651.00,36.875
652.00,36.923
653.00,36.914
654.00,37.010
655.00,37.168
656.00,37.511
657.00,37.317
658.00,38.018
659.00,37.638
660.00,37.640
661.00,37.670
662.00,37.802
663.00,37.953
664.00,38.226
665.00,38.402
666.00,38.315
667.00,38.498
668.00,38.581
669.00,38.709
670.00,39.004
671.00,38.967
672.00,39.022
673.00,39.125
674.00,39.250
675.00,39.273
676.00,39.552
677.00,39.688
678.00,39.587
679.00,39.795
680.00,39.958
681.00,40.083
682.00,40.127
683.00,40.154
684.00,40.331
685.00,40.370
686.00,40.307
687.00,40.528
688.00,40.709
689.00,40.709
690.00,40.997
691.00,41.197
692.00,41.052
693.00,41.008
694.00,41.223
695.00,41.594
696.00,41.564
697.00,41.539
698.00,41.751
699.00,41.880
700.00,41.981
701.00,42.072
702.00,42.161
703.00,42.413
704.00,42.436
705.00,42.465
706.00,42.553
707.00,42.593
708.00,42.555
709.00,42.917
710.00,43.292
711.00,42.852
712.00,42.887
713.00,43.172
714.00,43.315
715.00,43.327
716.00,43.321
717.00,43.513
718.00,43.692
719.00,43.735
720.00,43.875
721.00,48.228
722.00,48.204
723.00,48.299
724.00,48.316
725.00,48.460
726.00,48.495
727.00,48.509
728.00,48.598
729.00,48.618
730.00,48.668
731.00,48.646
732.00,48.770
733.00,48.793
734.00,48.866
735.00,48.952
736.00,48.959
737.00,49.076
738.00,49.037
739.00,49.093
740.00,49.154
741.00,49.194
742.00,49.289
743.00,49.214
744.00,49.315
745.00,49.314
746.00,49.409
747.00,49.309
748.00,49.342
749.00,49.370
750.00,49.476
751.00,49.484
752.00,49.519
753.00,49.502
754.00,49.502
755.00,49.462
756.00,49.558
757.00,49.623
758.00,49.667
759.00,49.577
760.00,49.666
761.00,49.674
762.00,49.726
763.00,49.809
764.00,49.719
765.00,49.738
766.00,49.818
767.00,49.896
768.00,49.849
769.00,49.834
770.00,49.906
771.00,49.964
772.00,50.026
773.00,49.978
774.00,49.967
775.00,50.011
776.00,49.969
777.00,49.976
778.00,50.065
779.00,50.082
780.00,50.036
781.00,50.097
782.00,50.163
783.00,50.139
784.00,50.202
785.00,50.070
786.00,50.161
787.00,50.137
788.00,50.122
789.00,50.107
790.00,50.050
791.00,50.154
792.00,50.155
793.00,50.115
794.00,50.130
795.00,50.073
796.00,50.123
797.00,50.202
798.00,50.144
799.00,50.082
800.00,50.081
801.00,50.061
802.00,50.091
803.00,50.100
804.00,50.036
805.00,50.086
806.00,50.065
807.00,49.983
808.00,50.070
809.00,50.015
810.00,50.039
811.00,50.056
812.00,50.086
813.00,50.076
814.00,50.000
815.00,49.966
816.00,49.975
817.00,49.968
818.00,49.916
819.00,49.969
820.00,49.896
821.00,49.894
822.00,49.930
823.00,49.921
824.00,49.940
825.00,49.922
826.00,49.857
827.00,49.986
828.00,49.816
829.00,49.884
830.00,49.912
831.00,52.239
832.00,52.175
833.00,52.135
834.00,52.144
835.00,52.098
836.00,52.225
837.00,52.112
838.00,52.089
839.00,52.119
840.00,52.027
841.00,52.071
842.00,52.043
843.00,52.028
844.00,51.996
845.00,51.977
846.00,51.998
847.00,51.934
848.00,51.949
849.00,51.924
850.00,51.883
851.00,51.801
852.00,51.865
853.00,51.790
854.00,51.776
855.00,51.737
856.00,51.745
857.00,51.739
858.00,51.654
859.00,51.636
860.00,51.663
861.00,51.671
862.00,51.630
863.00,51.628
864.00,51.618
865.00,51.628
866.00,51.579
867.00,51.573
868.00,51.547
869.00,51.564
870.00,51.557
871.00,51.535
872.00,51.534
873.00,51.525
874.00,51.529
875.00,51.490
876.00,51.514
877.00,51.612
878.00,51.510
879.00,51.474
880.00,51.458
881.00,51.456
882.00,51.471
883.00,51.425
884.00,51.401
885.00,51.386
886.00,51.390
887.00,51.359
888.00,51.334
889.00,51.342
890.00,51.344
891.00,51.277
892.00,51.234
893.00,51.390
894.00,51.264
895.00,51.232
896.00,51.174
897.00,51.182
898.00,51.147
899.00,51.142
900.00,51.155
901.00,51.121
902.00,51.131
903.00,51.101
904.00,51.087
905.00,51.089
906.00,51.074
907.00,51.046
908.00,51.014
909.00,51.014
910.00,50.989
911.00,50.996
912.00,50.971
913.00,50.930
914.00,50.919
915.00,50.907
916.00,50.877
917.00,50.860
918.00,50.865
919.00,50.811
920.00,50.796
921.00,50.798
922.00,50.763
923.00,50.726
924.00,50.700
925.00,50.721
926.00,50.707
927.00,50.653
928.00,50.645
929.00,50.659
930.00,50.618
931.00,50.598
932.00,50.628
933.00,50.577
934.00,50.585
935.00,50.539
936.00,50.530
937.00,50.520
938.00,50.495
939.00,50.491
940.00,50.454
941.00,50.432
942.00,50.403
943.00,50.392
944.00,50.380
945.00,50.377
946.00,50.371
947.00,50.337
948.00,50.336
949.00,50.317
950.00,50.298
951.00,50.276
952.00,50.237
953.00,50.234
954.00,50.181
955.00,50.157
956.00,50.155
957.00,50.106
958.00,50.106
959.00,50.081
960.00,50.104
961.00,50.079
962.00,50.065
963.00,50.002
964.00,50.011
965.00,50.021
966.00,49.995
967.00,49.998
968.00,49.968
969.00,49.997
970.00,49.973
971.00,49.978
972.00,49.949
973.00,49.976
974.00,49.988
975.00,49.969
976.00,49.989
977.00,49.973
978.00,50.016
979.00,49.974
980.00,49.992
981.00,49.993
982.00,49.938
983.00,49.959
984.00,49.931
985.00,49.945
986.00,49.924
987.00,49.953
988.00,49.900
989.00,49.916
990.00,49.914
991.00,49.888
992.00,49.887
993.00,49.872
994.00,49.847
995.00,49.845
996.00,49.845
997.00,49.844
998.00,49.817
999.00,49.823
1000.00,49.781
1001.00,49.762
1002.00,49.761
1003.00,49.750
1004.00,49.709
1005.00,49.699
1006.00,49.742
1007.00,49.695
1008.00,49.670
1009.00,49.710
1010.00,49.667
1011.00,49.653
1012.00,49.616
1013.00,49.625
1014.00,49.595
1015.00,49.597
1016.00,49.579
1017.00,49.586
1018.00,49.559
1019.00,49.549
1020.00,49.534
1021.00,49.500
1022.00,49.502
1023.00,49.465
1024.00,49.470
1025.00,49.465
1026.00,49.453
1027.00,49.431
1028.00,49.419
1029.00,49.401
1030.00,49.362
1031.00,49.367
1032.00,49.320
1033.00,49.336
1034.00,49.300
1035.00,49.268
1036.00,49.237
1037.00,49.225
1038.00,49.219
1039.00,49.194
1040.00,49.173
1041.00,49.156
1042.00,49.170
1043.00,49.141
1044.00,49.186
1045.00,49.152
1046.00,49.146
1047.00,49.172
1048.00,49.157
1049.00,49.183
1050.00,49.180
1051.00,49.206
1052.00,49.224
1053.00,49.238
1054.00,49.234
1055.00,49.269
1056.00,49.273
1057.00,49.263
1058.00,49.243
1059.00,49.228
1060.00,49.253
1061.00,49.232
1062.00,49.206
1063.00,49.216
1064.00,49.209
1065.00,49.191
1066.00,49.185
1067.00,49.193
1068.00,49.200
1069.00,49.168
1070.00,49.166
1071.00,49.142
1072.00,49.170
1073.00,49.134
1074.00,49.132
1075.00,49.126
1076.00,49.115
1077.00,49.101
1078.00,49.080
1079.00,49.098
1080.00,49.117
1081.00,49.083
1082.00,49.101
1083.00,49.088
1084.00,49.073
1085.00,49.090
1086.00,49.071
1087.00,49.058
1088.00,49.053
1089.00,49.042
1090.00,49.025
1091.00,49.020
1092.00,48.999
1093.00,48.997
1094.00,48.982
1095.00,48.961
1096.00,48.969
1097.00,48.954
1098.00,48.950
1099.00,48.960
1100.00,48.934
1101.00,48.937
1102.00,48.919
1103.00,48.916
1104.00,48.905
1105.00,48.890
1106.00,48.868
1107.00,48.871
1108.00,48.863
1109.00,48.852
1110.00,48.856
1111.00,48.849
1112.00,48.843
1113.00,48.844
1114.00,48.822
1115.00,48.842
1116.00,48.824
1117.00,48.811
1118.00,48.810
1119.00,48.805
1120.00,48.790
1121.00,48.799
1122.00,48.776
1123.00,48.769
1124.00,48.756
1125.00,48.756
1126.00,48.756
1127.00,48.763
1128.00,48.732
1129.00,48.730
1130.00,48.715
1131.00,48.709
1132.00,48.715
1133.00,48.710
1134.00,48.707
1135.00,48.687
1136.00,48.674
1137.00,48.683
1138.00,48.685
1139.00,48.685
1140.00,48.676
1141.00,48.660
1142.00,48.642
1143.00,48.673
1144.00,48.648
1145.00,48.673
1146.00,48.688
1147.00,48.647
1148.00,48.652
1149.00,48.666
1150.00,48.647
1151.00,48.654
1152.00,48.654
1153.00,48.638
1154.00,48.636
1155.00,48.629
1156.00,48.619
1157.00,48.634
1158.00,48.627
1159.00,48.628
1160.00,48.629
1161.00,48.633
1162.00,48.632
1163.00,48.622
1164.00,48.613
1165.00,48.618
1166.00,48.606
1167.00,48.602
1168.00,48.615
1169.00,48.603
1170.00,48.611
1171.00,48.585
1172.00,48.569
1173.00,48.584
1174.00,48.597
1175.00,48.587
1176.00,48.618
1177.00,48.570
1178.00,48.581
1179.00,48.600
1180.00,48.573
1181.00,48.591
1182.00,48.585
1183.00,48.570
1184.00,48.568
1185.00,48.579
1186.00,48.564
1187.00,48.583
1188.00,48.571
1189.00,48.563
1190.00,48.574
1191.00,48.562
1192.00,48.594
1193.00,48.598
1194.00,48.585
1195.00,48.576
1196.00,48.590
1197.00,48.583
1198.00,48.580
1199.00,48.575
1200.00,48.586
1201.00,48.602
1202.00,48.576
1203.00,48.586
1204.00,48.587
1205.00,48.604
1206.00,48.604
1207.00,48.593
1208.00,48.575
1209.00,48.604
1210.00,48.575
1211.00,48.579
1212.00,48.611
1213.00,48.565
1214.00,48.602
1215.00,48.585
1216.00,48.579
1217.00,48.587
1218.00,48.584
1219.00,48.615
1220.00,48.606
1221.00,48.615
1222.00,48.605
1223.00,48.618
1224.00,48.596
1225.00,48.602
1226.00,48.602
1227.00,48.579
1228.00,48.607
1229.00,48.622
1230.00,48.639
1231.00,48.639
1232.00,48.653
1233.00,48.647
1234.00,48.650
1235.00,48.649
1236.00,48.660
1237.00,48.668
1238.00,48.648
1239.00,48.671
1240.00,48.646
1241.00,48.657
1242.00,48.682
1243.00,48.678
1244.00,48.669
1245.00,48.701
1246.00,48.697
1247.00,48.683
1248.00,48.683
1249.00,48.693
1250.00,48.699
1251.00,48.690
1252.00,48.702
1253.00,48.706
1254.00,48.731
1255.00,48.719
1256.00,48.709
1257.00,48.693
1258.00,48.754
1259.00,48.738
1260.00,48.757
1261.00,48.762
1262.00,48.752
1263.00,48.747
1264.00,48.764
1265.00,48.767
1266.00,48.764
1267.00,48.788
1268.00,48.786
1269.00,48.798
1270.00,48.816
1271.00,48.802
1272.00,48.821
1273.00,48.825
1274.00,48.805
1275.00,48.829
1276.00,48.813
1277.00,48.823
1278.00,48.834
1279.00,48.824
1280.00,48.821
1281.00,48.851
1282.00,48.859
1283.00,48.850
1284.00,48.864
1285.00,48.851
1286.00,48.877
1287.00,48.853
1288.00,48.872
1289.00,48.870
1290.00,48.884
1291.00,48.901
1292.00,48.905
1293.00,48.899
1294.00,48.933
1295.00,48.948
1296.00,48.938
1297.00,48.962
1298.00,48.983
1299.00,48.960
1300.00,48.976
1301.00,48.956
1302.00,48.989
1303.00,48.986
1304.00,48.954
1305.00,48.993
1306.00,48.990
1307.00,48.988
1308.00,49.006
1309.00,49.016
1310.00,49.022
1311.00,49.020
1312.00,49.032
1313.00,49.057
1314.00,49.068
1315.00,49.067
1316.00,49.073
1317.00,49.096
1318.00,49.082
1319.00,49.100
1320.00,49.096
1321.00,49.254
1322.00,49.255
1323.00,49.224
1324.00,49.226
1325.00,49.227
1326.00,49.248
1327.00,49.217
1328.00,49.242
1329.00,49.247
1330.00,49.246
1331.00,49.244
1332.00,49.253
1333.00,49.258
1334.00,49.277
1335.00,49.302
1336.00,49.330
1337.00,49.344
1338.00,49.429
1339.00,49.471
1340.00,49.516
1341.00,49.584
1342.00,49.648
1343.00,49.695
1344.00,49.752
1345.00,49.798
1346.00,49.851
1347.00,49.869
1348.00,49.885
1349.00,49.921
1350.00,49.931
1351.00,49.940
1352.00,49.947
1353.00,49.967
1354.00,49.988
1355.00,50.112
1356.00,49.973
1357.00,49.976
1358.00,50.004
1359.00,50.009
1360.00,50.051
1361.00,50.163
1362.00,50.117
1363.00,50.058
1364.00,50.053
1365.00,50.031
1366.00,50.080
1367.00,50.025
1368.00,50.007
1369.00,50.032
1370.00,50.010
1371.00,50.014
1372.00,50.004
1373.00,50.015
1374.00,50.028
1375.00,50.011
1376.00,50.011
1377.00,50.004
1378.00,50.073
1379.00,50.036
1380.00,50.028
1381.00,50.028
1382.00,50.021
1383.00,50.033
1384.00,49.989
1385.00,50.009
1386.00,50.048
1387.00,49.972
1388.00,50.019
1389.00,50.034
1390.00,50.032
1391.00,50.014
1392.00,49.965
1393.00,50.045
1394.00,49.998
1395.00,50.000
1396.00,49.958
1397.00,50.011
1398.00,50.059
1399.00,50.006
1400.00,50.002
1401.00,49.997
1402.00,50.139
1403.00,50.086
1404.00,50.051
1405.00,50.045
1406.00,50.108
1407.00,50.060
1408.00,50.067
1409.00,50.078
1410.00,50.120
1411.00,50.077
1412.00,50.147
1413.00,50.111
1414.00,50.106
1415.00,50.137
1416.00,50.179
1417.00,50.189
1418.00,50.184
1419.00,50.168
1420.00,50.196
1421.00,50.260
1422.00,50.230
1423.00,50.252
1424.00,50.261
1425.00,50.269
1426.00,50.285
1427.00,50.311
1428.00,50.312
1429.00,50.333
1430.00,50.333
1431.00,50.367
1432.00,50.392
1433.00,50.385
1434.00,50.397
1435.00,50.455
1436.00,50.439
1437.00,50.458
1438.00,50.473
1439.00,50.503
1440.00,50.514
1441.00,50.521
1442.00,50.552
1443.00,50.587
1444.00,50.608
1445.00,50.581
1446.00,50.622
1447.00,50.638
1448.00,50.706
1449.00,50.704
1450.00,50.693
1451.00,50.721
1452.00,50.732
1453.00,50.736
1454.00,50.768
1455.00,50.784
1456.00,50.812
1457.00,50.819
1458.00,50.817
1459.00,50.850
1460.00,50.864
1461.00,50.870
1462.00,50.904
1463.00,50.901
1464.00,50.935
1465.00,50.943
1466.00,50.938
1467.00,50.984
1468.00,51.034
1469.00,51.002
1470.00,51.042
1471.00,51.045
1472.00,51.050
1473.00,51.068
1474.00,51.083
1475.00,51.109
1476.00,51.129
1477.00,51.098
1478.00,51.123
1479.00,51.160
1480.00,51.142
1481.00,51.161
1482.00,51.202
1483.00,51.200
1484.00,51.212
1485.00,51.204
1486.00,51.247
1487.00,51.293
1488.00,51.283
1489.00,51.300
1490.00,51.321
1491.00,51.307
1492.00,51.332
1493.00,51.321
1494.00,51.363
1495.00,51.350
1496.00,51.373
1497.00,51.369
1498.00,51.394
1499.00,51.412
1500.00,51.435
1501.00, 
1502.00, 
1503.00, 
1504.00, 
1505.00, 
1506.00, 
1507.00, 
1508.00, 
1509.00, 
1510.00, 
1511.00, 
1512.00, 
1513.00, 
1514.00, 
1515.00, 
1516.00, 
1517.00, 
1518.00, 
1519.00, 
1520.00, 
1521.00, 
1522.00, 
1523.00, 
1524.00, 
1525.00, 
1526.00, 
1527.00, 
1528.00, 
1529.00, 
1530.00, 
1531.00, 
1532.00, 
1533.00, 
1534.00, 
1535.00, 
1536.00, 
1537.00, 
1538.00, 
1539.00, 
1540.00, 
1541.00, 
1542.00, 
1543.00, 
1544.00, 
1545.00, 
1546.00, 
1547.00, 
1548.00, 
1549.00, 
1550.00, 
1551.00, 
1552.00, 
1553.00, 
1554.00, 
1555.00, 
1556.00, 
1557.00, 
1558.00, 
1559.00, 
1560.00, 
1561.00, 
1562.00, 
1563.00, 
1564.00, 
1565.00, 
1566.00, 
1567.00, 
1568.00, 
1569.00, 
1570.00, 
1571.00, 
1572.00, 
1573.00, 
1574.00, 
1575.00, 
1576.00, 
1577.00, 
1578.00, 
1579.00, 
1580.00, 
1581.00, 
1582.00, 
1583.00, 
1584.00, 
1585.00, 
1586.00, 
1587.00, 
1588.00, 
1589.00, 
1590.00, 
1591.00, 
1592.00, 
1593.00, 
1594.00, 
1595.00, 
1596.00, 
1597.00, 
1598.00, 
1599.00, 
1600.00, 
1601.00, 
1602.00, 
1603.00, 
1604.00, 
1605.00, 
1606.00, 
1607.00, 
1608.00, 
1609.00, 
1610.00, 
1611.00, 
1612.00, 
1613.00, 
1614.00, 
1615.00, 
1616.00, 
1617.00, 
1618.00, 
1619.00, 
1620.00, 
1621.00, 
1622.00, 
1623.00, 
1624.00, 
1625.00, 
1626.00, 
1627.00, 
1628.00, 
1629.00, 
1630.00, 
1631.00, 
1632.00, 
1633.00, 
1634.00, 
1635.00, 
1636.00, 
1637.00, 
1638.00, 
1639.00, 
1640.00, 
1641.00, 
1642.00, 
1643.00, 
1644.00, 
1645.00, 
1646.00, 
1647.00, 
1648.00, 
1649.00, 
1650.00, 
1651.00, 
1652.00, 
1653.00, 
1654.00, 
1655.00, 
1656.00, 
1657.00, 
1658.00, 
1659.00, 
1660.00, 
1661.00, 
1662.00, 
1663.00, 
1664.00, 
1665.00, 
1666.00, 
1667.00, 
1668.00, 
1669.00, 
1670.00, 
1671.00, 
1672.00, 
1673.00, 
1674.00, 
1675.00, 
1676.00, 
1677.00, 
1678.00, 
1679.00, 
1680.00, 
1681.00, 
1682.00, 
1683.00, 
1684.00, 
1685.00, 
1686.00, 
1687.00, 
1688.00, 
1689.00, 
1690.00, 
1691.00, 
1692.00, 
1693.00, 
1694.00, 
1695.00, 
1696.00, 
1697.00, 
1698.00, 
1699.00, 
1700.00, 
1701.00, 
1702.00, 
1703.00, 
1704.00, 
1705.00, 
1706.00, 
1707.00, 
1708.00, 
1709.00, 
1710.00, 
1711.00, 
1712.00, 
1713.00, 
1714.00, 
1715.00, 
1716.00, 
1717.00, 
1718.00, 
1719.00, 
1720.00, 
1721.00, 
1722.00, 
1723.00, 
1724.00, 
1725.00, 
1726.00, 
1727.00, 
1728.00, 
1729.00, 
1730.00, 
1731.00, 
1732.00, 
1733.00, 
1734.00, 
1735.00, 
1736.00, 
1737.00, 
1738.00, 
1739.00, 
1740.00, 
1741.00, 
1742.00, 
1743.00, 
1744.00, 
1745.00, 
1746.00, 
1747.00, 
1748.00, 
1749.00, 
1750.00, 
1751.00, 
1752.00, 
1753.00, 
1754.00, 
1755.00, 
1756.00, 
1757.00, 
1758.00, 
1759.00, 
1760.00, 
1761.00, 
1762.00, 
1763.00, 
1764.00, 
1765.00, 
1766.00, 
1767.00, 
1768.00, 
1769.00, 
1770.00, 
1771.00, 
1772.00, 
1773.00, 
1774.00, 
1775.00, 
1776.00, 
1777.00, 
1778.00, 
1779.00, 
1780.00, 
1781.00, 
1782.00, 
1783.00, 
1784.00, 
1785.00, 
1786.00, 
1787.00, 
1788.00, 
1789.00, 
1790.00, 
1791.00, 
1792.00, 
1793.00, 
1794.00, 
1795.00, 
1796.00, 
1797.00, 
1798.00, 
1799.00, 
1800.00, 
1801.00, 
1802.00, 
1803.00, 
1804.00, 
1805.00, 
1806.00, 
1807.00, 
1808.00, 
1809.00, 
1810.00, 
1811.00, 
1812.00, 
1813.00, 
1814.00, 
1815.00, 
1816.00, 
1817.00, 
1818.00, 
1819.00, 
1820.00, 
1821.00, 
1822.00, 
1823.00, 
1824.00, 
1825.00, 
1826.00, 
1827.00, 
1828.00, 
1829.00, 
1830.00, 
1831.00, 
1832.00, 
1833.00, 
1834.00, 
1835.00, 
1836.00, 
1837.00, 
1838.00, 
1839.00, 
1840.00, 
1841.00, 
1842.00, 
1843.00, 
1844.00, 
1845.00, 
1846.00, 
1847.00, 
1848.00, 
1849.00, 
1850.00, 
1851.00, 
1852.00, 
1853.00, 
1854.00, 
1855.00, 
1856.00, 
1857.00, 
1858.00, 
1859.00, 
1860.00, 
1861.00, 
1862.00, 
1863.00, 
1864.00, 
1865.00, 
1866.00, 
1867.00, 
1868.00, 
1869.00, 
1870.00, 
1871.00, 
1872.00, 
1873.00, 
1874.00, 
1875.00, 
1876.00, 
1877.00, 
1878.00, 
1879.00, 
1880.00, 
1881.00, 
1882.00, 
1883.00, 
1884.00, 
1885.00, 
1886.00, 
1887.00, 
1888.00, 
1889.00, 
1890.00, 
1891.00, 
1892.00, 
1893.00, 
1894.00, 
1895.00, 
1896.00, 
1897.00, 
1898.00, 
1899.00, 
1900.00, 
1901.00, 
1902.00, 
1903.00, 
1904.00, 
1905.00, 
1906.00, 
1907.00, 
1908.00, 
1909.00, 
1910.00, 
1911.00, 
1912.00, 
1913.00, 
1914.00, 
1915.00, 
1916.00, 
1917.00, 
1918.00, 
1919.00, 
1920.00, 
1921.00, 
1922.00, 
1923.00, 
1924.00, 
1925.00, 
1926.00, 
1927.00, 
1928.00, 
1929.00, 
1930.00, 
1931.00, 
1932.00, 
1933.00, 
1934.00, 
1935.00, 
1936.00, 
1937.00, 
1938.00, 
1939.00, 
1940.00, 
1941.00, 
1942.00, 
1943.00, 
1944.00, 
1945.00, 
1946.00, 
1947.00, 
1948.00, 
1949.00, 
1950.00, 
1951.00, 
1952.00, 
1953.00, 
1954.00, 
1955.00, 
1956.00, 
1957.00, 
1958.00, 
1959.00, 
1960.00, 
1961.00, 
1962.00, 
1963.00, 
1964.00, 
1965.00, 
1966.00, 
1967.00, 
1968.00, 
1969.00, 
1970.00, 
1971.00, 
1972.00, 
1973.00, 
1974.00, 
1975.00, 
1976.00, 
1977.00, 
1978.00, 
1979.00, 
1980.00, 
1981.00, 
1982.00, 
1983.00, 
1984.00, 
1985.00, 
1986.00, 
1987.00, 
1988.00, 
1989.00, 
1990.00, 
1991.00, 
1992.00, 
1993.00, 
1994.00, 
1995.00, 
1996.00, 
1997.00, 
1998.00, 
1999.00, 
2000.00, 
2001.00, 
2002.00, 
2003.00, 
2004.00, 
2005.00, 
2006.00, 
2007.00, 
2008.00, 
2009.00, 
2010.00, 
2011.00, 
2012.00, 
2013.00, 
2014.00, 
2015.00, 
2016.00, 
2017.00, 
2018.00, 
2019.00, 
2020.00, 
2021.00, 
2022.00, 
2023.00, 
2024.00, 
2025.00, 
2026.00, 
2027.00, 
2028.00, 
2029.00, 
2030.00, 
2031.00, 
2032.00, 
2033.00, 
2034.00, 
2035.00, 
2036.00, 
2037.00, 
2038.00, 
2039.00, 
2040.00, 
2041.00, 
2042.00, 
2043.00, 
2044.00, 
2045.00, 
2046.00, 
2047.00, 
2048.00, 
2049.00, 
2050.00, 
2051.00, 
2052.00, 
2053.00, 
2054.00, 
2055.00, 
2056.00, 
2057.00, 
2058.00, 
2059.00, 
2060.00, 
2061.00, 
2062.00, 
2063.00, 
2064.00, 
2065.00, 
2066.00, 
2067.00, 
2068.00, 
2069.00, 
2070.00, 
2071.00, 
2072.00, 
2073.00, 
2074.00, 
2075.00, 
2076.00, 
2077.00, 
2078.00, 
2079.00, 
2080.00, 
2081.00, 
2082.00, 
2083.00, 
2084.00, 
2085.00, 
2086.00, 
2087.00, 
2088.00, 
2089.00, 
2090.00, 
2091.00, 
2092.00, 
2093.00, 
2094.00, 
2095.00, 
2096.00, 
2097.00, 
2098.00, 
2099.00, 
2100.00, 
2101.00, 
2102.00, 
2103.00, 
2104.00, 
2105.00, 
2106.00, 
2107.00, 
2108.00, 
2109.00, 
2110.00, 
2111.00, 
2112.00, 
2113.00, 
2114.00, 
2115.00, 
2116.00, 
2117.00, 
2118.00, 
2119.00, 
2120.00, 
2121.00, 
2122.00, 
2123.00, 
2124.00, 
2125.00, 
2126.00, 
2127.00, 
2128.00, 
2129.00, 
2130.00, 
2131.00, 
2132.00, 
2133.00, 
2134.00, 
2135.00, 
2136.00, 
2137.00, 
2138.00, 
2139.00, 
2140.00, 
2141.00, 
2142.00, 
2143.00, 
2144.00, 
2145.00, 
2146.00, 
2147.00, 
2148.00, 
2149.00, 
2150.00, 
2151.00, 
2152.00, 
2153.00, 
2154.00, 
2155.00, 
2156.00, 
2157.00, 
2158.00, 
2159.00, 
2160.00, 
2161.00, 
2162.00, 
2163.00, 
2164.00, 
2165.00, 
2166.00, 
2167.00, 
2168.00, 
2169.00, 
2170.00, 
2171.00, 
2172.00, 
2173.00, 
2174.00, 
2175.00, 
2176.00, 
2177.00, 
2178.00, 
2179.00, 
2180.00, 
2181.00, 
2182.00, 
2183.00, 
2184.00, 
2185.00, 
2186.00, 
2187.00, 
2188.00, 
2189.00, 
2190.00, 
2191.00, 
2192.00, 
2193.00, 
2194.00, 
2195.00, 
2196.00, 
2197.00, 
2198.00, 
2199.00, 
2200.00, 
2201.00, 
2202.00, 
2203.00, 
2204.00, 
2205.00, 
2206.00, 
2207.00, 
2208.00, 
2209.00, 
2210.00, 
2211.00, 
2212.00, 
2213.00, 
2214.00, 
2215.00, 
2216.00, 
2217.00, 
2218.00, 
2219.00, 
2220.00, 
2221.00, 
2222.00, 
2223.00, 
2224.00, 
2225.00, 
2226.00, 
2227.00, 
2228.00, 
2229.00, 
2230.00, 
2231.00, 
2232.00, 
2233.00, 
2234.00, 
2235.00, 
2236.00, 
2237.00, 
2238.00, 
2239.00, 
2240.00, 
2241.00, 
2242.00, 
2243.00, 
2244.00, 
2245.00, 
2246.00, 
2247.00, 
2248.00, 
2249.00, 
2250.00, 
2251.00, 
2252.00, 
2253.00, 
2254.00, 
2255.00, 
2256.00, 
2257.00, 
2258.00, 
2259.00, 
2260.00, 
2261.00, 
2262.00, 
2263.00, 
2264.00, 
2265.00, 
2266.00, 
2267.00, 
2268.00, 
2269.00, 
2270.00, 
2271.00, 
2272.00, 
2273.00, 
2274.00, 
2275.00, 
2276.00, 
2277.00, 
2278.00, 
2279.00, 
2280.00, 
2281.00, 
2282.00, 
2283.00, 
2284.00, 
2285.00, 
2286.00, 
2287.00, 
2288.00, 
2289.00, 
2290.00, 
2291.00, 
2292.00, 
2293.00, 
2294.00, 
2295.00, 
2296.00, 
2297.00, 
2298.00, 
2299.00, 
2300.00, 
2301.00, 
2302.00, 
2303.00, 
2304.00, 
2305.00, 
2306.00, 
2307.00, 
2308.00, 
2309.00, 
2310.00, 
2311.00, 
2312.00, 
2313.00, 
2314.00, 
2315.00, 
2316.00, 
2317.00, 
2318.00, 
2319.00, 
2320.00, 
2321.00, 
2322.00, 
2323.00, 
2324.00, 
2325.00, 
2326.00, 
2327.00, 
2328.00, 
2329.00, 
2330.00, 
2331.00, 
2332.00, 
2333.00, 
2334.00, 
2335.00, 
2336.00, 
2337.00, 
2338.00, 
2339.00, 
2340.00, 
2341.00, 
2342.00, 
2343.00, 
2344.00, 
2345.00, 
2346.00, 
2347.00, 
2348.00, 
2349.00, 
2350.00, 
2351.00, 
2352.00, 
2353.00, 
2354.00, 
2355.00, 
2356.00, 
2357.00, 
2358.00, 
2359.00, 
2360.00, 
2361.00, 
2362.00, 
2363.00, 
2364.00, 
2365.00, 
2366.00, 
2367.00, 
2368.00, 
2369.00, 
2370.00, 
2371.00, 
2372.00, 
2373.00, 
2374.00, 
2375.00, 
2376.00, 
2377.00, 
2378.00, 
2379.00, 
2380.00, 
2381.00, 
2382.00, 
2383.00, 
2384.00, 
2385.00, 
2386.00, 
2387.00, 
2388.00, 
2389.00, 
2390.00, 
2391.00, 
2392.00, 
2393.00, 
2394.00, 
2395.00, 
2396.00, 
2397.00, 
2398.00, 
2399.00, 
2400.00, 
2401.00, 
2402.00, 
2403.00, 
2404.00, 
2405.00, 
2406.00, 
2407.00, 
2408.00, 
2409.00, 
2410.00, 
2411.00, 
2412.00, 
2413.00, 
2414.00, 
2415.00, 
2416.00, 
2417.00, 
2418.00, 
2419.00, 
2420.00, 
2421.00, 
2422.00, 
2423.00, 
2424.00, 
2425.00, 
2426.00, 
2427.00, 
2428.00, 
2429.00, 
2430.00, 
2431.00, 
2432.00, 
2433.00, 
2434.00, 
2435.00, 
2436.00, 
2437.00, 
2438.00, 
2439.00, 
2440.00, 
2441.00, 
2442.00, 
2443.00, 
2444.00, 
2445.00, 
2446.00, 
2447.00, 
2448.00, 
2449.00, 
2450.00, 
2451.00, 
2452.00, 
2453.00, 
2454.00, 
2455.00, 
2456.00, 
2457.00, 
2458.00, 
2459.00, 
2460.00, 
2461.00, 
2462.00, 
2463.00, 
2464.00, 
2465.00, 
2466.00, 
2467.00, 
2468.00, 
2469.00, 
2470.00, 
2471.00, 
2472.00, 
2473.00, 
2474.00, 
2475.00, 
2476.00, 
2477.00, 
2478.00, 
2479.00, 
2480.00, 
2481.00, 
2482.00, 
2483.00, 
2484.00, 
2485.00, 
2486.00, 
2487.00, 
2488.00, 
2489.00, 
2490.00, 
2491.00, 
2492.00, 
2493.00, 
2494.00, 
2495.00, 
2496.00, 
2497.00, 
2498.00, 
2499.00, 
2500.00, 
2501.00, 
2502.00, 
2503.00, 
2504.00, 
2505.00, 
2506.00, 
2507.00, 
2508.00, 
2509.00, 
2510.00, 
2511.00, 
2512.00, 
2513.00, 
2514.00, 
2515.00, 
2516.00, 
2517.00, 
2518.00, 
2519.00, 
2520.00, 
2521.00, 
2522.00, 
2523.00, 
2524.00, 
2525.00, 
2526.00, 
2527.00, 
2528.00, 
2529.00, 
2530.00, 
2531.00, 
2532.00, 
2533.00, 
2534.00, 
2535.00, 
2536.00, 
2537.00, 
2538.00, 
2539.00, 
2540.00, 
2541.00, 
2542.00, 
2543.00, 
2544.00, 
2545.00, 
2546.00, 
2547.00, 
2548.00, 
2549.00, 
2550.00, 
2551.00, 
2552.00, 
2553.00, 
2554.00, 
2555.00, 
2556.00, 
2557.00, 
2558.00, 
2559.00, 
2560.00, 
2561.00, 
2562.00, 
2563.00, 
2564.00, 
2565.00, 
2566.00, 
2567.00, 
2568.00, 
2569.00, 
2570.00, 
2571.00, 
2572.00, 
2573.00, 
2574.00, 
2575.00, 
2576.00, 
2577.00, 
2578.00, 
2579.00, 
2580.00, 
2581.00, 
2582.00, 
2583.00, 
2584.00, 
2585.00, 
2586.00, 
2587.00, 
2588.00, 
2589.00, 
2590.00, 
2591.00, 
2592.00, 
2593.00, 
2594.00, 
2595.00, 
2596.00, 
2597.00, 
2598.00, 
2599.00, 
2600.00, 
