"1cP3 - RawData"
"Wavelength nm.","T%"
200.00,-0.001
201.00,0.002
202.00,0.003
203.00,-0.001
204.00,0.002
205.00,-0.000
206.00,-0.000
207.00,-0.003
208.00,0.001
209.00,0.002
210.00,0.001
211.00,-0.001
212.00,-0.000
213.00,0.002
214.00,-0.000
215.00,0.001
216.00,-0.003
217.00,-0.002
218.00,0.002
219.00,0.002
220.00,0.001
221.00,-0.001
222.00,0.001
223.00,0.001
224.00,0.001
225.00,-0.001
226.00,0.004
227.00,0.000
228.00,0.001
229.00,0.002
230.00,0.001
231.00,0.000
232.00,0.000
233.00,0.002
234.00,-0.001
235.00,0.002
236.00,-0.001
237.00,0.001
238.00,0.000
239.00,0.001
240.00,0.001
241.00,0.001
242.00,0.002
243.00,-0.001
244.00,0.001
245.00,0.001
246.00,0.000
247.00,-0.000
248.00,0.000
249.00,0.001
250.00,-0.000
251.00,0.002
252.00,0.001
253.00,-0.001
254.00,0.000
255.00,0.001
256.00,0.000
257.00,0.000
258.00,0.001
259.00,0.001
260.00,0.001
261.00,0.002
262.00,-0.001
263.00,-0.001
264.00,0.000
265.00,-0.000
266.00,0.000
267.00,0.001
268.00,0.001
269.00,-0.000
270.00,0.001
271.00,-0.000
272.00,-0.001
273.00,-0.001
274.00,0.001
275.00,-0.001
276.00,0.001
277.00,0.001
278.00,0.000
279.00,-0.001
280.00,0.000
281.00,0.001
282.00,0.000
283.00,0.000
284.00,0.000
285.00,-0.002
286.00,0.000
287.00,0.000
288.00,0.001
289.00,-0.000
290.00,-0.001
291.00,-0.001
292.00,-0.000
293.00,-0.001
294.00,0.000
295.00,0.001
296.00,0.000
297.00,0.001
298.00,-0.001
299.00,0.001
300.00,-0.001
301.00,-0.000
302.00,0.000
303.00,0.003
304.00,-0.000
305.00,0.001
306.00,0.003
307.00,0.003
308.00,0.005
309.00,0.011
310.00,0.015
311.00,0.023
312.00,0.038
313.00,0.061
314.00,0.085
315.00,0.128
316.00,0.182
317.00,0.256
318.00,0.345
319.00,0.464
320.00,0.623
321.00,0.816
322.00,1.037
323.00,1.313
324.00,1.612
325.00,1.943
326.00,2.310
327.00,2.747
328.00,3.207
329.00,3.694
330.00,4.241
331.00,4.808
332.00,5.398
333.00,6.052
334.00,6.630
335.00,7.302
336.00,7.941
337.00,8.639
338.00,9.318
339.00,9.988
340.00,10.584
341.00,11.257
342.00,11.822
343.00,12.433
344.00,13.030
345.00,13.569
346.00,14.062
347.00,14.559
348.00,14.954
349.00,15.484
350.00,15.920
351.00,16.339
352.00,16.700
353.00,17.006
354.00,17.345
355.00,17.672
356.00,17.932
357.00,18.165
358.00,18.449
359.00,18.744
360.00,18.947
361.00,18.984
362.00,19.277
363.00,19.407
364.00,19.536
365.00,19.660
366.00,19.764
367.00,19.839
368.00,19.914
369.00,19.966
370.00,19.997
371.00,20.039
372.00,19.974
373.00,20.042
374.00,20.008
375.00,19.924
376.00,19.857
377.00,19.791
378.00,19.683
379.00,19.609
380.00,19.599
381.00,19.576
382.00,19.556
383.00,19.589
384.00,19.637
385.00,19.671
386.00,19.664
387.00,19.768
388.00,19.858
389.00,19.887
390.00,19.916
391.00,19.940
392.00,19.968
393.00,19.978
394.00,20.011
395.00,20.023
396.00,20.022
397.00,20.038
398.00,20.014
399.00,20.018
400.00,20.026
401.00,19.982
402.00,20.031
403.00,20.036
404.00,20.028
405.00,19.993
406.00,20.017
407.00,19.945
408.00,19.955
409.00,19.872
410.00,19.838
411.00,19.832
412.00,19.794
413.00,19.797
414.00,19.750
415.00,19.774
416.00,19.804
417.00,19.752
418.00,19.784
419.00,19.836
420.00,19.895
421.00,19.814
422.00,19.816
423.00,19.862
424.00,19.906
425.00,19.927
426.00,19.931
427.00,19.956
428.00,19.971
429.00,20.058
430.00,20.058
431.00,20.137
432.00,20.140
433.00,20.201
434.00,20.253
435.00,20.316
436.00,20.353
437.00,20.401
438.00,20.472
439.00,20.544
440.00,20.614
441.00,20.655
442.00,20.740
443.00,20.865
444.00,20.887
445.00,20.949
446.00,21.040
447.00,21.110
448.00,21.227
449.00,21.285
450.00,21.407
451.00,21.463
452.00,21.568
453.00,21.711
454.00,21.786
455.00,21.871
456.00,21.961
457.00,22.108
458.00,22.137
459.00,22.338
460.00,22.468
461.00,22.579
462.00,22.694
463.00,22.841
464.00,22.956
465.00,23.057
466.00,23.176
467.00,23.303
468.00,23.380
469.00,23.506
470.00,23.602
471.00,23.692
472.00,23.834
473.00,23.893
474.00,24.019
475.00,24.160
476.00,24.226
477.00,24.396
478.00,24.496
479.00,24.704
480.00,24.782
481.00,24.902
482.00,25.098
483.00,25.256
484.00,25.407
485.00,25.570
486.00,25.623
487.00,25.822
488.00,25.893
489.00,26.100
490.00,26.246
491.00,26.373
492.00,26.535
493.00,26.768
494.00,26.871
495.00,26.898
496.00,27.030
497.00,27.069
498.00,27.252
499.00,27.341
500.00,27.523
501.00,27.640
502.00,27.790
503.00,27.936
504.00,27.964
505.00,28.134
506.00,28.257
507.00,28.367
508.00,28.483
509.00,28.641
510.00,28.805
511.00,28.874
512.00,29.047
513.00,29.188
514.00,29.285
515.00,29.406
516.00,29.557
517.00,29.649
518.00,29.812
519.00,29.891
520.00,29.946
521.00,30.057
522.00,30.148
523.00,30.260
524.00,30.347
525.00,30.490
526.00,30.623
527.00,30.683
528.00,30.758
529.00,30.971
530.00,31.102
531.00,31.181
532.00,31.255
533.00,31.369
534.00,31.469
535.00,31.560
536.00,31.613
537.00,31.731
538.00,31.785
539.00,31.891
540.00,31.953
541.00,32.024
542.00,32.089
543.00,32.167
544.00,32.260
545.00,32.360
546.00,32.402
547.00,32.528
548.00,32.583
549.00,32.665
550.00,32.691
551.00,32.808
552.00,32.906
553.00,32.924
554.00,33.030
555.00,33.022
556.00,33.149
557.00,33.191
558.00,33.331
559.00,33.430
560.00,33.500
561.00,33.522
562.00,33.620
563.00,33.679
564.00,33.770
565.00,33.797
566.00,33.782
567.00,33.872
568.00,33.920
569.00,33.957
570.00,34.020
571.00,34.075
572.00,34.117
573.00,34.109
574.00,34.203
575.00,34.188
576.00,34.201
577.00,34.307
578.00,34.410
579.00,34.525
580.00,34.549
581.00,34.647
582.00,34.727
583.00,34.719
584.00,34.845
585.00,34.925
586.00,34.987
587.00,34.984
588.00,35.017
589.00,35.004
590.00,35.155
591.00,35.203
592.00,35.103
593.00,35.250
594.00,35.339
595.00,35.344
596.00,35.388
597.00,35.488
598.00,35.552
599.00,35.578
600.00,35.636
601.00,35.596
602.00,35.500
603.00,35.734
604.00,35.931
605.00,35.864
606.00,35.968
607.00,35.961
608.00,36.001
609.00,36.153
610.00,36.261
611.00,36.086
612.00,36.122
613.00,36.243
614.00,36.288
615.00,36.326
616.00,36.482
617.00,36.473
618.00,36.441
619.00,36.547
620.00,36.616
621.00,36.723
622.00,36.764
623.00,36.830
624.00,36.944
625.00,37.045
626.00,37.044
627.00,37.114
628.00,37.121
629.00,37.174
630.00,37.260
631.00,37.302
632.00,37.425
633.00,37.527
634.00,37.580
635.00,37.695
636.00,37.741
637.00,37.826
638.00,37.873
639.00,37.943
640.00,38.022
641.00,38.068
642.00,38.153
643.00,38.260
644.00,38.284
645.00,38.342
646.00,38.568
647.00,38.597
648.00,38.579
649.00,38.660
650.00,38.731
651.00,38.895
652.00,38.955
653.00,38.976
654.00,39.040
655.00,39.196
656.00,39.520
657.00,39.072
658.00,40.084
659.00,39.665
660.00,39.730
661.00,39.649
662.00,39.797
663.00,39.952
664.00,40.112
665.00,40.395
666.00,40.026
667.00,40.143
668.00,40.376
669.00,41.116
670.00,40.899
671.00,40.752
672.00,40.898
673.00,40.986
674.00,41.077
675.00,41.109
676.00,41.353
677.00,41.535
678.00,41.207
679.00,41.521
680.00,41.661
681.00,41.787
682.00,41.805
683.00,41.788
684.00,41.890
685.00,42.024
686.00,42.079
687.00,42.175
688.00,42.316
689.00,42.286
690.00,42.548
691.00,42.846
692.00,42.461
693.00,42.505
694.00,42.760
695.00,42.982
696.00,42.980
697.00,42.989
698.00,43.107
699.00,43.226
700.00,43.314
701.00,43.416
702.00,43.486
703.00,43.657
704.00,43.823
705.00,43.730
706.00,43.795
707.00,43.897
708.00,43.905
709.00,44.261
710.00,44.652
711.00,44.031
712.00,44.150
713.00,44.389
714.00,44.349
715.00,44.392
716.00,44.505
717.00,44.687
718.00,44.866
719.00,44.759
720.00,44.838
721.00,49.484
722.00,49.478
723.00,49.578
724.00,49.531
725.00,49.653
726.00,49.712
727.00,49.690
728.00,49.775
729.00,49.745
730.00,49.782
731.00,49.809
732.00,49.835
733.00,49.960
734.00,50.023
735.00,50.001
736.00,50.020
737.00,50.113
738.00,50.135
739.00,50.151
740.00,50.205
741.00,50.268
742.00,50.269
743.00,50.238
744.00,50.244
745.00,50.328
746.00,50.338
747.00,50.356
748.00,50.367
749.00,50.359
750.00,50.435
751.00,50.389
752.00,50.381
753.00,50.365
754.00,50.396
755.00,50.407
756.00,50.423
757.00,50.484
758.00,50.507
759.00,50.451
760.00,50.543
761.00,50.597
762.00,50.587
763.00,50.583
764.00,50.586
765.00,50.575
766.00,50.595
767.00,50.663
768.00,50.533
769.00,50.539
770.00,50.680
771.00,50.670
772.00,50.758
773.00,50.699
774.00,50.659
775.00,50.758
776.00,50.674
777.00,50.714
778.00,50.731
779.00,50.806
780.00,50.775
781.00,50.780
782.00,50.825
783.00,50.762
784.00,50.800
785.00,50.734
786.00,50.795
787.00,50.736
788.00,50.726
789.00,50.696
790.00,50.754
791.00,50.738
792.00,50.742
793.00,50.701
794.00,50.707
795.00,50.735
796.00,50.691
797.00,50.711
798.00,50.715
799.00,50.618
800.00,50.692
801.00,50.621
802.00,50.592
803.00,50.616
804.00,50.570
805.00,50.656
806.00,50.612
807.00,50.537
808.00,50.602
809.00,50.590
810.00,50.607
811.00,50.544
812.00,50.596
813.00,50.599
814.00,50.586
815.00,50.518
816.00,50.509
817.00,50.461
818.00,50.365
819.00,50.483
820.00,50.362
821.00,50.416
822.00,50.460
823.00,50.333
824.00,50.458
825.00,50.383
826.00,50.397
827.00,50.402
828.00,50.274
829.00,50.298
830.00,50.369
831.00,52.736
832.00,52.694
833.00,52.657
834.00,52.678
835.00,52.637
836.00,52.654
837.00,52.657
838.00,52.615
839.00,52.631
840.00,52.562
841.00,52.591
842.00,52.542
843.00,52.571
844.00,52.599
845.00,52.487
846.00,52.510
847.00,52.446
848.00,52.465
849.00,52.398
850.00,52.338
851.00,52.328
852.00,52.313
853.00,52.280
854.00,52.252
855.00,52.211
856.00,52.196
857.00,52.233
858.00,52.174
859.00,52.163
860.00,52.128
861.00,52.227
862.00,52.112
863.00,52.113
864.00,52.067
865.00,52.071
866.00,52.081
867.00,52.048
868.00,52.026
869.00,52.016
870.00,52.072
871.00,52.005
872.00,52.008
873.00,52.033
874.00,52.039
875.00,51.952
876.00,51.957
877.00,52.165
878.00,51.963
879.00,51.935
880.00,51.901
881.00,51.935
882.00,51.924
883.00,51.881
884.00,51.823
885.00,51.828
886.00,51.838
887.00,51.806
888.00,51.777
889.00,51.782
890.00,51.752
891.00,51.723
892.00,51.709
893.00,51.676
894.00,51.690
895.00,51.682
896.00,51.618
897.00,51.611
898.00,51.572
899.00,51.554
900.00,51.564
901.00,51.537
902.00,51.560
903.00,51.535
904.00,51.477
905.00,51.606
906.00,51.544
907.00,51.479
908.00,51.423
909.00,51.431
910.00,51.398
911.00,51.403
912.00,51.381
913.00,51.374
914.00,51.342
915.00,51.272
916.00,51.324
917.00,51.253
918.00,51.287
919.00,51.234
920.00,51.210
921.00,51.202
922.00,51.178
923.00,51.156
924.00,51.117
925.00,51.141
926.00,51.113
927.00,51.069
928.00,51.065
929.00,51.058
930.00,50.996
931.00,50.977
932.00,51.083
933.00,50.996
934.00,51.008
935.00,50.951
936.00,50.927
937.00,50.917
938.00,50.909
939.00,50.872
940.00,50.869
941.00,50.832
942.00,50.817
943.00,50.810
944.00,50.789
945.00,50.776
946.00,50.775
947.00,50.721
948.00,50.709
949.00,50.693
950.00,50.662
951.00,50.652
952.00,50.620
953.00,50.621
954.00,50.564
955.00,50.541
956.00,50.533
957.00,50.502
958.00,50.496
959.00,50.471
960.00,50.503
961.00,50.468
962.00,50.464
963.00,50.393
964.00,50.383
965.00,50.377
966.00,50.361
967.00,50.363
968.00,50.348
969.00,50.367
970.00,50.343
971.00,50.348
972.00,50.310
973.00,50.352
974.00,50.363
975.00,50.340
976.00,50.366
977.00,50.390
978.00,50.379
979.00,50.343
980.00,50.353
981.00,50.348
982.00,50.331
983.00,50.337
984.00,50.325
985.00,50.332
986.00,50.315
987.00,50.331
988.00,50.276
989.00,50.277
990.00,50.274
991.00,50.252
992.00,50.264
993.00,50.234
994.00,50.217
995.00,50.211
996.00,50.206
997.00,50.186
998.00,50.169
999.00,50.184
1000.00,50.158
1001.00,50.151
1002.00,50.128
1003.00,50.116
1004.00,50.101
1005.00,50.079
1006.00,50.113
1007.00,50.077
1008.00,50.054
1009.00,50.036
1010.00,50.034
1011.00,50.017
1012.00,49.999
1013.00,49.985
1014.00,49.967
1015.00,49.970
1016.00,49.931
1017.00,49.932
1018.00,49.904
1019.00,49.879
1020.00,49.881
1021.00,49.859
1022.00,49.854
1023.00,49.856
1024.00,49.817
1025.00,49.811
1026.00,49.800
1027.00,49.767
1028.00,49.775
1029.00,49.757
1030.00,49.726
1031.00,49.739
1032.00,49.693
1033.00,49.695
1034.00,49.661
1035.00,49.639
1036.00,49.604
1037.00,49.601
1038.00,49.604
1039.00,49.573
1040.00,49.550
1041.00,49.514
1042.00,49.529
1043.00,49.487
1044.00,49.523
1045.00,49.510
1046.00,49.497
1047.00,49.515
1048.00,49.518
1049.00,49.523
1050.00,49.538
1051.00,49.563
1052.00,49.575
1053.00,49.569
1054.00,49.556
1055.00,49.579
1056.00,49.603
1057.00,49.603
1058.00,49.587
1059.00,49.596
1060.00,49.607
1061.00,49.603
1062.00,49.573
1063.00,49.590
1064.00,49.589
1065.00,49.566
1066.00,49.559
1067.00,49.554
1068.00,49.564
1069.00,49.534
1070.00,49.522
1071.00,49.506
1072.00,49.527
1073.00,49.497
1074.00,49.500
1075.00,49.488
1076.00,49.493
1077.00,49.476
1078.00,49.455
1079.00,49.451
1080.00,49.455
1081.00,49.444
1082.00,49.433
1083.00,49.436
1084.00,49.446
1085.00,49.445
1086.00,49.422
1087.00,49.403
1088.00,49.383
1089.00,49.381
1090.00,49.374
1091.00,49.379
1092.00,49.378
1093.00,49.357
1094.00,49.350
1095.00,49.333
1096.00,49.337
1097.00,49.329
1098.00,49.311
1099.00,49.319
1100.00,49.295
1101.00,49.292
1102.00,49.272
1103.00,49.277
1104.00,49.264
1105.00,49.252
1106.00,49.229
1107.00,49.220
1108.00,49.214
1109.00,49.205
1110.00,49.213
1111.00,49.204
1112.00,49.187
1113.00,49.192
1114.00,49.181
1115.00,49.185
1116.00,49.176
1117.00,49.157
1118.00,49.159
1119.00,49.155
1120.00,49.157
1121.00,49.149
1122.00,49.127
1123.00,49.119
1124.00,49.121
1125.00,49.114
1126.00,49.108
1127.00,49.119
1128.00,49.091
1129.00,49.081
1130.00,49.068
1131.00,49.062
1132.00,49.059
1133.00,49.053
1134.00,49.038
1135.00,49.026
1136.00,49.033
1137.00,49.023
1138.00,49.038
1139.00,49.051
1140.00,49.033
1141.00,49.032
1142.00,49.018
1143.00,49.040
1144.00,49.021
1145.00,49.034
1146.00,49.009
1147.00,48.995
1148.00,48.981
1149.00,48.996
1150.00,48.979
1151.00,48.982
1152.00,48.995
1153.00,48.985
1154.00,48.982
1155.00,48.992
1156.00,48.974
1157.00,48.988
1158.00,48.969
1159.00,48.969
1160.00,48.976
1161.00,48.972
1162.00,48.979
1163.00,48.987
1164.00,48.974
1165.00,48.966
1166.00,48.960
1167.00,48.942
1168.00,48.954
1169.00,48.955
1170.00,48.957
1171.00,48.961
1172.00,48.951
1173.00,48.937
1174.00,48.957
1175.00,48.936
1176.00,48.948
1177.00,48.934
1178.00,48.943
1179.00,48.954
1180.00,48.938
1181.00,48.958
1182.00,48.964
1183.00,48.946
1184.00,48.942
1185.00,48.967
1186.00,48.955
1187.00,48.967
1188.00,48.967
1189.00,48.954
1190.00,48.954
1191.00,48.940
1192.00,48.963
1193.00,48.954
1194.00,48.940
1195.00,48.941
1196.00,48.965
1197.00,48.953
1198.00,48.951
1199.00,48.957
1200.00,48.957
1201.00,48.969
1202.00,48.952
1203.00,48.950
1204.00,48.940
1205.00,48.954
1206.00,48.943
1207.00,48.942
1208.00,48.925
1209.00,48.950
1210.00,48.939
1211.00,48.932
1212.00,48.946
1213.00,48.917
1214.00,48.950
1215.00,48.941
1216.00,48.946
1217.00,48.952
1218.00,48.937
1219.00,48.955
1220.00,48.952
1221.00,48.970
1222.00,48.942
1223.00,48.975
1224.00,48.954
1225.00,48.938
1226.00,48.952
1227.00,48.934
1228.00,48.957
1229.00,48.962
1230.00,48.991
1231.00,48.978
1232.00,48.999
1233.00,48.994
1234.00,49.000
1235.00,48.994
1236.00,49.004
1237.00,49.014
1238.00,49.002
1239.00,49.018
1240.00,49.009
1241.00,49.018
1242.00,49.022
1243.00,49.032
1244.00,49.023
1245.00,49.043
1246.00,49.049
1247.00,49.035
1248.00,49.034
1249.00,49.065
1250.00,49.052
1251.00,49.058
1252.00,49.071
1253.00,49.040
1254.00,49.076
1255.00,49.049
1256.00,49.062
1257.00,49.051
1258.00,49.105
1259.00,49.071
1260.00,49.094
1261.00,49.113
1262.00,49.106
1263.00,49.099
1264.00,49.111
1265.00,49.129
1266.00,49.116
1267.00,49.129
1268.00,49.144
1269.00,49.143
1270.00,49.170
1271.00,49.158
1272.00,49.163
1273.00,49.170
1274.00,49.152
1275.00,49.172
1276.00,49.174
1277.00,49.174
1278.00,49.191
1279.00,49.192
1280.00,49.182
1281.00,49.231
1282.00,49.226
1283.00,49.213
1284.00,49.246
1285.00,49.219
1286.00,49.237
1287.00,49.224
1288.00,49.238
1289.00,49.228
1290.00,49.254
1291.00,49.252
1292.00,49.256
1293.00,49.243
1294.00,49.258
1295.00,49.308
1296.00,49.282
1297.00,49.299
1298.00,49.356
1299.00,49.295
1300.00,49.313
1301.00,49.307
1302.00,49.333
1303.00,49.345
1304.00,49.322
1305.00,49.350
1306.00,49.351
1307.00,49.335
1308.00,49.356
1309.00,49.371
1310.00,49.378
1311.00,49.361
1312.00,49.396
1313.00,49.417
1314.00,49.420
1315.00,49.429
1316.00,49.423
1317.00,49.441
1318.00,49.419
1319.00,49.438
1320.00,49.453
1321.00,49.623
1322.00,49.615
1323.00,49.597
1324.00,49.591
1325.00,49.583
1326.00,49.602
1327.00,49.594
1328.00,49.594
1329.00,49.598
1330.00,49.607
1331.00,49.605
1332.00,49.612
1333.00,49.611
1334.00,49.660
1335.00,49.670
1336.00,49.705
1337.00,49.726
1338.00,49.802
1339.00,49.840
1340.00,49.884
1341.00,49.947
1342.00,50.003
1343.00,50.052
1344.00,50.093
1345.00,50.149
1346.00,50.196
1347.00,50.234
1348.00,50.244
1349.00,50.268
1350.00,50.285
1351.00,50.306
1352.00,50.298
1353.00,50.327
1354.00,50.327
1355.00,50.304
1356.00,50.336
1357.00,50.333
1358.00,50.345
1359.00,50.348
1360.00,50.413
1361.00,50.505
1362.00,50.425
1363.00,50.357
1364.00,50.396
1365.00,50.377
1366.00,50.419
1367.00,50.392
1368.00,50.351
1369.00,50.404
1370.00,50.345
1371.00,50.223
1372.00,50.326
1373.00,50.357
1374.00,50.392
1375.00,50.365
1376.00,50.389
1377.00,50.375
1378.00,50.486
1379.00,50.386
1380.00,50.403
1381.00,50.384
1382.00,50.348
1383.00,50.391
1384.00,50.360
1385.00,50.366
1386.00,50.446
1387.00,50.359
1388.00,50.317
1389.00,50.398
1390.00,50.375
1391.00,50.323
1392.00,50.314
1393.00,50.381
1394.00,50.354
1395.00,50.299
1396.00,50.300
1397.00,50.405
1398.00,50.378
1399.00,50.328
1400.00,50.326
1401.00,50.352
1402.00,50.422
1403.00,50.373
1404.00,50.370
1405.00,50.398
1406.00,50.438
1407.00,50.394
1408.00,50.392
1409.00,50.430
1410.00,50.470
1411.00,50.445
1412.00,50.485
1413.00,50.437
1414.00,50.464
1415.00,50.474
1416.00,50.507
1417.00,50.562
1418.00,50.555
1419.00,50.523
1420.00,50.565
1421.00,50.613
1422.00,50.592
1423.00,50.630
1424.00,50.624
1425.00,50.645
1426.00,50.667
1427.00,50.705
1428.00,50.711
1429.00,50.694
1430.00,50.729
1431.00,50.723
1432.00,50.760
1433.00,50.796
1434.00,50.771
1435.00,50.822
1436.00,50.816
1437.00,50.816
1438.00,50.832
1439.00,50.859
1440.00,50.868
1441.00,50.870
1442.00,50.904
1443.00,50.921
1444.00,50.953
1445.00,50.937
1446.00,50.975
1447.00,51.001
1448.00,51.075
1449.00,51.046
1450.00,51.047
1451.00,51.060
1452.00,51.086
1453.00,51.100
1454.00,51.118
1455.00,51.148
1456.00,51.170
1457.00,51.165
1458.00,51.189
1459.00,51.210
1460.00,51.240
1461.00,51.245
1462.00,51.269
1463.00,51.276
1464.00,51.283
1465.00,51.304
1466.00,51.299
1467.00,51.319
1468.00,51.388
1469.00,51.363
1470.00,51.387
1471.00,51.398
1472.00,51.408
1473.00,51.421
1474.00,51.455
1475.00,51.476
1476.00,51.496
1477.00,51.484
1478.00,51.512
1479.00,51.539
1480.00,51.521
1481.00,51.524
1482.00,51.567
1483.00,51.570
1484.00,51.585
1485.00,51.599
1486.00,51.621
1487.00,51.641
1488.00,51.656
1489.00,51.660
1490.00,51.665
1491.00,51.668
1492.00,51.691
1493.00,51.701
1494.00,51.747
1495.00,51.726
1496.00,51.770
1497.00,51.753
1498.00,51.770
1499.00,51.795
1500.00,51.809
1501.00, 
1502.00, 
1503.00, 
1504.00, 
1505.00, 
1506.00, 
1507.00, 
1508.00, 
1509.00, 
1510.00, 
1511.00, 
1512.00, 
1513.00, 
1514.00, 
1515.00, 
1516.00, 
1517.00, 
1518.00, 
1519.00, 
1520.00, 
1521.00, 
1522.00, 
1523.00, 
1524.00, 
1525.00, 
1526.00, 
1527.00, 
1528.00, 
1529.00, 
1530.00, 
1531.00, 
1532.00, 
1533.00, 
1534.00, 
1535.00, 
1536.00, 
1537.00, 
1538.00, 
1539.00, 
1540.00, 
1541.00, 
1542.00, 
1543.00, 
1544.00, 
1545.00, 
1546.00, 
1547.00, 
1548.00, 
1549.00, 
1550.00, 
1551.00, 
1552.00, 
1553.00, 
1554.00, 
1555.00, 
1556.00, 
1557.00, 
1558.00, 
1559.00, 
1560.00, 
1561.00, 
1562.00, 
1563.00, 
1564.00, 
1565.00, 
1566.00, 
1567.00, 
1568.00, 
1569.00, 
1570.00, 
1571.00, 
1572.00, 
1573.00, 
1574.00, 
1575.00, 
1576.00, 
1577.00, 
1578.00, 
1579.00, 
1580.00, 
1581.00, 
1582.00, 
1583.00, 
1584.00, 
1585.00, 
1586.00, 
1587.00, 
1588.00, 
1589.00, 
1590.00, 
1591.00, 
1592.00, 
1593.00, 
1594.00, 
1595.00, 
1596.00, 
1597.00, 
1598.00, 
1599.00, 
1600.00, 
1601.00, 
1602.00, 
1603.00, 
1604.00, 
1605.00, 
1606.00, 
1607.00, 
1608.00, 
1609.00, 
1610.00, 
1611.00, 
1612.00, 
1613.00, 
1614.00, 
1615.00, 
1616.00, 
1617.00, 
1618.00, 
1619.00, 
1620.00, 
1621.00, 
1622.00, 
1623.00, 
1624.00, 
1625.00, 
1626.00, 
1627.00, 
1628.00, 
1629.00, 
1630.00, 
1631.00, 
1632.00, 
1633.00, 
1634.00, 
1635.00, 
1636.00, 
1637.00, 
1638.00, 
1639.00, 
1640.00, 
1641.00, 
1642.00, 
1643.00, 
1644.00, 
1645.00, 
1646.00, 
1647.00, 
1648.00, 
1649.00, 
1650.00, 
1651.00, 
1652.00, 
1653.00, 
1654.00, 
1655.00, 
1656.00, 
1657.00, 
1658.00, 
1659.00, 
1660.00, 
1661.00, 
1662.00, 
1663.00, 
1664.00, 
1665.00, 
1666.00, 
1667.00, 
1668.00, 
1669.00, 
1670.00, 
1671.00, 
1672.00, 
1673.00, 
1674.00, 
1675.00, 
1676.00, 
1677.00, 
1678.00, 
1679.00, 
1680.00, 
1681.00, 
1682.00, 
1683.00, 
1684.00, 
1685.00, 
1686.00, 
1687.00, 
1688.00, 
1689.00, 
1690.00, 
1691.00, 
1692.00, 
1693.00, 
1694.00, 
1695.00, 
1696.00, 
1697.00, 
1698.00, 
1699.00, 
1700.00, 
1701.00, 
1702.00, 
1703.00, 
1704.00, 
1705.00, 
1706.00, 
1707.00, 
1708.00, 
1709.00, 
1710.00, 
1711.00, 
1712.00, 
1713.00, 
1714.00, 
1715.00, 
1716.00, 
1717.00, 
1718.00, 
1719.00, 
1720.00, 
1721.00, 
1722.00, 
1723.00, 
1724.00, 
1725.00, 
1726.00, 
1727.00, 
1728.00, 
1729.00, 
1730.00, 
1731.00, 
1732.00, 
1733.00, 
1734.00, 
1735.00, 
1736.00, 
1737.00, 
1738.00, 
1739.00, 
1740.00, 
1741.00, 
1742.00, 
1743.00, 
1744.00, 
1745.00, 
1746.00, 
1747.00, 
1748.00, 
1749.00, 
1750.00, 
1751.00, 
1752.00, 
1753.00, 
1754.00, 
1755.00, 
1756.00, 
1757.00, 
1758.00, 
1759.00, 
1760.00, 
1761.00, 
1762.00, 
1763.00, 
1764.00, 
1765.00, 
1766.00, 
1767.00, 
1768.00, 
1769.00, 
1770.00, 
1771.00, 
1772.00, 
1773.00, 
1774.00, 
1775.00, 
1776.00, 
1777.00, 
1778.00, 
1779.00, 
1780.00, 
1781.00, 
1782.00, 
1783.00, 
1784.00, 
1785.00, 
1786.00, 
1787.00, 
1788.00, 
1789.00, 
1790.00, 
1791.00, 
1792.00, 
1793.00, 
1794.00, 
1795.00, 
1796.00, 
1797.00, 
1798.00, 
1799.00, 
1800.00, 
1801.00, 
1802.00, 
1803.00, 
1804.00, 
1805.00, 
1806.00, 
1807.00, 
1808.00, 
1809.00, 
1810.00, 
1811.00, 
1812.00, 
1813.00, 
1814.00, 
1815.00, 
1816.00, 
1817.00, 
1818.00, 
1819.00, 
1820.00, 
1821.00, 
1822.00, 
1823.00, 
1824.00, 
1825.00, 
1826.00, 
1827.00, 
1828.00, 
1829.00, 
1830.00, 
1831.00, 
1832.00, 
1833.00, 
1834.00, 
1835.00, 
1836.00, 
1837.00, 
1838.00, 
1839.00, 
1840.00, 
1841.00, 
1842.00, 
1843.00, 
1844.00, 
1845.00, 
1846.00, 
1847.00, 
1848.00, 
1849.00, 
1850.00, 
1851.00, 
1852.00, 
1853.00, 
1854.00, 
1855.00, 
1856.00, 
1857.00, 
1858.00, 
1859.00, 
1860.00, 
1861.00, 
1862.00, 
1863.00, 
1864.00, 
1865.00, 
1866.00, 
1867.00, 
1868.00, 
1869.00, 
1870.00, 
1871.00, 
1872.00, 
1873.00, 
1874.00, 
1875.00, 
1876.00, 
1877.00, 
1878.00, 
1879.00, 
1880.00, 
1881.00, 
1882.00, 
1883.00, 
1884.00, 
1885.00, 
1886.00, 
1887.00, 
1888.00, 
1889.00, 
1890.00, 
1891.00, 
1892.00, 
1893.00, 
1894.00, 
1895.00, 
1896.00, 
1897.00, 
1898.00, 
1899.00, 
1900.00, 
1901.00, 
1902.00, 
1903.00, 
1904.00, 
1905.00, 
1906.00, 
1907.00, 
1908.00, 
1909.00, 
1910.00, 
1911.00, 
1912.00, 
1913.00, 
1914.00, 
1915.00, 
1916.00, 
1917.00, 
1918.00, 
1919.00, 
1920.00, 
1921.00, 
1922.00, 
1923.00, 
1924.00, 
1925.00, 
1926.00, 
1927.00, 
1928.00, 
1929.00, 
1930.00, 
1931.00, 
1932.00, 
1933.00, 
1934.00, 
1935.00, 
1936.00, 
1937.00, 
1938.00, 
1939.00, 
1940.00, 
1941.00, 
1942.00, 
1943.00, 
1944.00, 
1945.00, 
1946.00, 
1947.00, 
1948.00, 
1949.00, 
1950.00, 
1951.00, 
1952.00, 
1953.00, 
1954.00, 
1955.00, 
1956.00, 
1957.00, 
1958.00, 
1959.00, 
1960.00, 
1961.00, 
1962.00, 
1963.00, 
1964.00, 
1965.00, 
1966.00, 
1967.00, 
1968.00, 
1969.00, 
1970.00, 
1971.00, 
1972.00, 
1973.00, 
1974.00, 
1975.00, 
1976.00, 
1977.00, 
1978.00, 
1979.00, 
1980.00, 
1981.00, 
1982.00, 
1983.00, 
1984.00, 
1985.00, 
1986.00, 
1987.00, 
1988.00, 
1989.00, 
1990.00, 
1991.00, 
1992.00, 
1993.00, 
1994.00, 
1995.00, 
1996.00, 
1997.00, 
1998.00, 
1999.00, 
2000.00, 
2001.00, 
2002.00, 
2003.00, 
2004.00, 
2005.00, 
2006.00, 
2007.00, 
2008.00, 
2009.00, 
2010.00, 
2011.00, 
2012.00, 
2013.00, 
2014.00, 
2015.00, 
2016.00, 
2017.00, 
2018.00, 
2019.00, 
2020.00, 
2021.00, 
2022.00, 
2023.00, 
2024.00, 
2025.00, 
2026.00, 
2027.00, 
2028.00, 
2029.00, 
2030.00, 
2031.00, 
2032.00, 
2033.00, 
2034.00, 
2035.00, 
2036.00, 
2037.00, 
2038.00, 
2039.00, 
2040.00, 
2041.00, 
2042.00, 
2043.00, 
2044.00, 
2045.00, 
2046.00, 
2047.00, 
2048.00, 
2049.00, 
2050.00, 
2051.00, 
2052.00, 
2053.00, 
2054.00, 
2055.00, 
2056.00, 
2057.00, 
2058.00, 
2059.00, 
2060.00, 
2061.00, 
2062.00, 
2063.00, 
2064.00, 
2065.00, 
2066.00, 
2067.00, 
2068.00, 
2069.00, 
2070.00, 
2071.00, 
2072.00, 
2073.00, 
2074.00, 
2075.00, 
2076.00, 
2077.00, 
2078.00, 
2079.00, 
2080.00, 
2081.00, 
2082.00, 
2083.00, 
2084.00, 
2085.00, 
2086.00, 
2087.00, 
2088.00, 
2089.00, 
2090.00, 
2091.00, 
2092.00, 
2093.00, 
2094.00, 
2095.00, 
2096.00, 
2097.00, 
2098.00, 
2099.00, 
2100.00, 
2101.00, 
2102.00, 
2103.00, 
2104.00, 
2105.00, 
2106.00, 
2107.00, 
2108.00, 
2109.00, 
2110.00, 
2111.00, 
2112.00, 
2113.00, 
2114.00, 
2115.00, 
2116.00, 
2117.00, 
2118.00, 
2119.00, 
2120.00, 
2121.00, 
2122.00, 
2123.00, 
2124.00, 
2125.00, 
2126.00, 
2127.00, 
2128.00, 
2129.00, 
2130.00, 
2131.00, 
2132.00, 
2133.00, 
2134.00, 
2135.00, 
2136.00, 
2137.00, 
2138.00, 
2139.00, 
2140.00, 
2141.00, 
2142.00, 
2143.00, 
2144.00, 
2145.00, 
2146.00, 
2147.00, 
2148.00, 
2149.00, 
2150.00, 
2151.00, 
2152.00, 
2153.00, 
2154.00, 
2155.00, 
2156.00, 
2157.00, 
2158.00, 
2159.00, 
2160.00, 
2161.00, 
2162.00, 
2163.00, 
2164.00, 
2165.00, 
2166.00, 
2167.00, 
2168.00, 
2169.00, 
2170.00, 
2171.00, 
2172.00, 
2173.00, 
2174.00, 
2175.00, 
2176.00, 
2177.00, 
2178.00, 
2179.00, 
2180.00, 
2181.00, 
2182.00, 
2183.00, 
2184.00, 
2185.00, 
2186.00, 
2187.00, 
2188.00, 
2189.00, 
2190.00, 
2191.00, 
2192.00, 
2193.00, 
2194.00, 
2195.00, 
2196.00, 
2197.00, 
2198.00, 
2199.00, 
2200.00, 
2201.00, 
2202.00, 
2203.00, 
2204.00, 
2205.00, 
2206.00, 
2207.00, 
2208.00, 
2209.00, 
2210.00, 
2211.00, 
2212.00, 
2213.00, 
2214.00, 
2215.00, 
2216.00, 
2217.00, 
2218.00, 
2219.00, 
2220.00, 
2221.00, 
2222.00, 
2223.00, 
2224.00, 
2225.00, 
2226.00, 
2227.00, 
2228.00, 
2229.00, 
2230.00, 
2231.00, 
2232.00, 
2233.00, 
2234.00, 
2235.00, 
2236.00, 
2237.00, 
2238.00, 
2239.00, 
2240.00, 
2241.00, 
2242.00, 
2243.00, 
2244.00, 
2245.00, 
2246.00, 
2247.00, 
2248.00, 
2249.00, 
2250.00, 
2251.00, 
2252.00, 
2253.00, 
2254.00, 
2255.00, 
2256.00, 
2257.00, 
2258.00, 
2259.00, 
2260.00, 
2261.00, 
2262.00, 
2263.00, 
2264.00, 
2265.00, 
2266.00, 
2267.00, 
2268.00, 
2269.00, 
2270.00, 
2271.00, 
2272.00, 
2273.00, 
2274.00, 
2275.00, 
2276.00, 
2277.00, 
2278.00, 
2279.00, 
2280.00, 
2281.00, 
2282.00, 
2283.00, 
2284.00, 
2285.00, 
2286.00, 
2287.00, 
2288.00, 
2289.00, 
2290.00, 
2291.00, 
2292.00, 
2293.00, 
2294.00, 
2295.00, 
2296.00, 
2297.00, 
2298.00, 
2299.00, 
2300.00, 
2301.00, 
2302.00, 
2303.00, 
2304.00, 
2305.00, 
2306.00, 
2307.00, 
2308.00, 
2309.00, 
2310.00, 
2311.00, 
2312.00, 
2313.00, 
2314.00, 
2315.00, 
2316.00, 
2317.00, 
2318.00, 
2319.00, 
2320.00, 
2321.00, 
2322.00, 
2323.00, 
2324.00, 
2325.00, 
2326.00, 
2327.00, 
2328.00, 
2329.00, 
2330.00, 
2331.00, 
2332.00, 
2333.00, 
2334.00, 
2335.00, 
2336.00, 
2337.00, 
2338.00, 
2339.00, 
2340.00, 
2341.00, 
2342.00, 
2343.00, 
2344.00, 
2345.00, 
2346.00, 
2347.00, 
2348.00, 
2349.00, 
2350.00, 
2351.00, 
2352.00, 
2353.00, 
2354.00, 
2355.00, 
2356.00, 
2357.00, 
2358.00, 
2359.00, 
2360.00, 
2361.00, 
2362.00, 
2363.00, 
2364.00, 
2365.00, 
2366.00, 
2367.00, 
2368.00, 
2369.00, 
2370.00, 
2371.00, 
2372.00, 
2373.00, 
2374.00, 
2375.00, 
2376.00, 
2377.00, 
2378.00, 
2379.00, 
2380.00, 
2381.00, 
2382.00, 
2383.00, 
2384.00, 
2385.00, 
2386.00, 
2387.00, 
2388.00, 
2389.00, 
2390.00, 
2391.00, 
2392.00, 
2393.00, 
2394.00, 
2395.00, 
2396.00, 
2397.00, 
2398.00, 
2399.00, 
2400.00, 
2401.00, 
2402.00, 
2403.00, 
2404.00, 
2405.00, 
2406.00, 
2407.00, 
2408.00, 
2409.00, 
2410.00, 
2411.00, 
2412.00, 
2413.00, 
2414.00, 
2415.00, 
2416.00, 
2417.00, 
2418.00, 
2419.00, 
2420.00, 
2421.00, 
2422.00, 
2423.00, 
2424.00, 
2425.00, 
2426.00, 
2427.00, 
2428.00, 
2429.00, 
2430.00, 
2431.00, 
2432.00, 
2433.00, 
2434.00, 
2435.00, 
2436.00, 
2437.00, 
2438.00, 
2439.00, 
2440.00, 
2441.00, 
2442.00, 
2443.00, 
2444.00, 
2445.00, 
2446.00, 
2447.00, 
2448.00, 
2449.00, 
2450.00, 
2451.00, 
2452.00, 
2453.00, 
2454.00, 
2455.00, 
2456.00, 
2457.00, 
2458.00, 
2459.00, 
2460.00, 
2461.00, 
2462.00, 
2463.00, 
2464.00, 
2465.00, 
2466.00, 
2467.00, 
2468.00, 
2469.00, 
2470.00, 
2471.00, 
2472.00, 
2473.00, 
2474.00, 
2475.00, 
2476.00, 
2477.00, 
2478.00, 
2479.00, 
2480.00, 
2481.00, 
2482.00, 
2483.00, 
2484.00, 
2485.00, 
2486.00, 
2487.00, 
2488.00, 
2489.00, 
2490.00, 
2491.00, 
2492.00, 
2493.00, 
2494.00, 
2495.00, 
2496.00, 
2497.00, 
2498.00, 
2499.00, 
2500.00, 
2501.00, 
2502.00, 
2503.00, 
2504.00, 
2505.00, 
2506.00, 
2507.00, 
2508.00, 
2509.00, 
2510.00, 
2511.00, 
2512.00, 
2513.00, 
2514.00, 
2515.00, 
2516.00, 
2517.00, 
2518.00, 
2519.00, 
2520.00, 
2521.00, 
2522.00, 
2523.00, 
2524.00, 
2525.00, 
2526.00, 
2527.00, 
2528.00, 
2529.00, 
2530.00, 
2531.00, 
2532.00, 
2533.00, 
2534.00, 
2535.00, 
2536.00, 
2537.00, 
2538.00, 
2539.00, 
2540.00, 
2541.00, 
2542.00, 
2543.00, 
2544.00, 
2545.00, 
2546.00, 
2547.00, 
2548.00, 
2549.00, 
2550.00, 
2551.00, 
2552.00, 
2553.00, 
2554.00, 
2555.00, 
2556.00, 
2557.00, 
2558.00, 
2559.00, 
2560.00, 
2561.00, 
2562.00, 
2563.00, 
2564.00, 
2565.00, 
2566.00, 
2567.00, 
2568.00, 
2569.00, 
2570.00, 
2571.00, 
2572.00, 
2573.00, 
2574.00, 
2575.00, 
2576.00, 
2577.00, 
2578.00, 
2579.00, 
2580.00, 
2581.00, 
2582.00, 
2583.00, 
2584.00, 
2585.00, 
2586.00, 
2587.00, 
2588.00, 
2589.00, 
2590.00, 
2591.00, 
2592.00, 
2593.00, 
2594.00, 
2595.00, 
2596.00, 
2597.00, 
2598.00, 
2599.00, 
2600.00, 
