"1cP4 - RawData"
"Wavelength nm.","T%"
200.00,0.002
201.00,0.004
202.00,0.004
203.00,-0.002
204.00,-0.001
205.00,0.001
206.00,-0.000
207.00,0.001
208.00,0.003
209.00,0.001
210.00,0.001
211.00,0.004
212.00,-0.001
213.00,0.000
214.00,-0.001
215.00,0.000
216.00,0.002
217.00,0.000
218.00,-0.000
219.00,0.001
220.00,0.001
221.00,0.002
222.00,0.000
223.00,0.002
224.00,0.001
225.00,0.001
226.00,-0.003
227.00,0.002
228.00,-0.001
229.00,-0.001
230.00,0.002
231.00,0.001
232.00,0.002
233.00,-0.002
234.00,-0.000
235.00,0.002
236.00,-0.000
237.00,0.001
238.00,0.003
239.00,0.001
240.00,-0.001
241.00,0.001
242.00,0.000
243.00,-0.000
244.00,0.000
245.00,0.001
246.00,-0.001
247.00,0.001
248.00,-0.000
249.00,-0.001
250.00,-0.000
251.00,0.001
252.00,0.000
253.00,-0.001
254.00,0.001
255.00,-0.001
256.00,-0.001
257.00,0.001
258.00,-0.001
259.00,-0.001
260.00,0.000
261.00,-0.001
262.00,-0.000
263.00,-0.000
264.00,-0.000
265.00,0.000
266.00,0.000
267.00,-0.000
268.00,0.001
269.00,-0.000
270.00,0.000
271.00,0.001
272.00,-0.001
273.00,-0.000
274.00,-0.001
275.00,0.001
276.00,0.002
277.00,0.001
278.00,-0.000
279.00,-0.000
280.00,-0.000
281.00,-0.001
282.00,0.001
283.00,-0.000
284.00,0.000
285.00,-0.000
286.00,0.001
287.00,0.002
288.00,-0.000
289.00,0.001
290.00,-0.001
291.00,0.000
292.00,0.000
293.00,-0.000
294.00,0.000
295.00,0.001
296.00,-0.000
297.00,0.001
298.00,0.002
299.00,0.000
300.00,-0.001
301.00,0.000
302.00,0.002
303.00,0.000
304.00,0.000
305.00,0.003
306.00,0.002
307.00,0.000
308.00,0.005
309.00,0.011
310.00,0.013
311.00,0.022
312.00,0.035
313.00,0.050
314.00,0.079
315.00,0.115
316.00,0.163
317.00,0.233
318.00,0.311
319.00,0.423
320.00,0.560
321.00,0.727
322.00,0.930
323.00,1.171
324.00,1.451
325.00,1.747
326.00,2.061
327.00,2.447
328.00,2.870
329.00,3.288
330.00,3.722
331.00,4.265
332.00,4.790
333.00,5.344
334.00,5.899
335.00,6.463
336.00,7.044
337.00,7.650
338.00,8.236
339.00,8.793
340.00,9.327
341.00,9.878
342.00,10.431
343.00,10.930
344.00,11.476
345.00,11.917
346.00,12.358
347.00,12.802
348.00,13.225
349.00,13.564
350.00,13.922
351.00,14.251
352.00,14.576
353.00,14.850
354.00,15.148
355.00,15.355
356.00,15.623
357.00,15.740
358.00,16.003
359.00,16.261
360.00,16.432
361.00,16.555
362.00,16.666
363.00,16.813
364.00,16.873
365.00,16.990
366.00,17.037
367.00,17.118
368.00,17.141
369.00,17.163
370.00,17.187
371.00,17.212
372.00,17.114
373.00,17.190
374.00,17.119
375.00,17.054
376.00,17.001
377.00,16.933
378.00,16.829
379.00,16.722
380.00,16.703
381.00,16.691
382.00,16.648
383.00,16.659
384.00,16.696
385.00,16.718
386.00,16.731
387.00,16.773
388.00,16.864
389.00,16.859
390.00,16.892
391.00,16.882
392.00,16.922
393.00,16.937
394.00,16.863
395.00,16.888
396.00,16.842
397.00,16.919
398.00,16.898
399.00,16.898
400.00,16.893
401.00,16.830
402.00,16.874
403.00,16.882
404.00,16.853
405.00,16.850
406.00,16.842
407.00,16.795
408.00,16.791
409.00,16.735
410.00,16.689
411.00,16.706
412.00,16.661
413.00,16.673
414.00,16.618
415.00,16.629
416.00,16.649
417.00,16.636
418.00,16.678
419.00,16.718
420.00,16.779
421.00,16.725
422.00,16.743
423.00,16.758
424.00,16.784
425.00,16.842
426.00,16.858
427.00,16.903
428.00,16.914
429.00,16.991
430.00,17.012
431.00,17.066
432.00,17.116
433.00,17.132
434.00,17.190
435.00,17.256
436.00,17.322
437.00,17.376
438.00,17.457
439.00,17.499
440.00,17.577
441.00,17.659
442.00,17.767
443.00,17.841
444.00,17.879
445.00,17.966
446.00,18.014
447.00,18.145
448.00,18.277
449.00,18.357
450.00,18.448
451.00,18.521
452.00,18.636
453.00,18.781
454.00,18.878
455.00,18.965
456.00,19.092
457.00,19.196
458.00,19.291
459.00,19.442
460.00,19.595
461.00,19.718
462.00,19.817
463.00,19.982
464.00,20.112
465.00,20.221
466.00,20.352
467.00,20.485
468.00,20.569
469.00,20.739
470.00,20.831
471.00,20.929
472.00,21.081
473.00,21.154
474.00,21.285
475.00,21.444
476.00,21.537
477.00,21.676
478.00,21.786
479.00,21.990
480.00,22.130
481.00,22.247
482.00,22.413
483.00,22.583
484.00,22.754
485.00,22.912
486.00,23.016
487.00,23.199
488.00,23.342
489.00,23.445
490.00,23.638
491.00,23.743
492.00,23.910
493.00,24.152
494.00,24.274
495.00,24.340
496.00,24.500
497.00,24.577
498.00,24.744
499.00,24.867
500.00,24.993
501.00,25.128
502.00,25.280
503.00,25.443
504.00,25.457
505.00,25.622
506.00,25.701
507.00,25.867
508.00,26.021
509.00,26.165
510.00,26.333
511.00,26.419
512.00,26.576
513.00,26.748
514.00,26.894
515.00,26.928
516.00,27.068
517.00,27.225
518.00,27.404
519.00,27.509
520.00,27.564
521.00,27.679
522.00,27.759
523.00,27.828
524.00,27.917
525.00,28.062
526.00,28.186
527.00,28.257
528.00,28.327
529.00,28.517
530.00,28.686
531.00,28.804
532.00,28.872
533.00,28.952
534.00,29.056
535.00,29.144
536.00,29.250
537.00,29.330
538.00,29.402
539.00,29.477
540.00,29.542
541.00,29.616
542.00,29.681
543.00,29.743
544.00,29.837
545.00,29.934
546.00,29.996
547.00,30.138
548.00,30.184
549.00,30.232
550.00,30.341
551.00,30.446
552.00,30.513
553.00,30.521
554.00,30.592
555.00,30.645
556.00,30.715
557.00,30.807
558.00,30.886
559.00,30.975
560.00,31.045
561.00,31.100
562.00,31.202
563.00,31.198
564.00,31.245
565.00,31.306
566.00,31.328
567.00,31.359
568.00,31.439
569.00,31.473
570.00,31.532
571.00,31.578
572.00,31.616
573.00,31.570
574.00,31.677
575.00,31.674
576.00,31.702
577.00,31.726
578.00,31.869
579.00,31.946
580.00,31.920
581.00,32.112
582.00,32.174
583.00,32.176
584.00,32.295
585.00,32.355
586.00,32.415
587.00,32.429
588.00,32.510
589.00,32.462
590.00,32.568
591.00,32.606
592.00,32.567
593.00,32.654
594.00,32.766
595.00,32.849
596.00,32.866
597.00,32.919
598.00,32.997
599.00,32.980
600.00,33.053
601.00,33.100
602.00,33.137
603.00,33.173
604.00,33.189
605.00,33.252
606.00,33.341
607.00,33.365
608.00,33.416
609.00,33.547
610.00,33.663
611.00,33.543
612.00,33.605
613.00,33.699
614.00,33.747
615.00,33.814
616.00,33.958
617.00,33.977
618.00,33.971
619.00,34.056
620.00,34.073
621.00,34.177
622.00,34.253
623.00,34.307
624.00,34.415
625.00,34.519
626.00,34.532
627.00,34.611
628.00,34.644
629.00,34.700
630.00,34.759
631.00,34.813
632.00,34.963
633.00,35.065
634.00,35.160
635.00,35.317
636.00,35.317
637.00,35.396
638.00,35.506
639.00,35.601
640.00,35.676
641.00,35.726
642.00,35.815
643.00,35.913
644.00,36.069
645.00,36.052
646.00,36.242
647.00,36.347
648.00,36.347
649.00,36.430
650.00,36.460
651.00,36.680
652.00,36.770
653.00,36.760
654.00,36.848
655.00,37.002
656.00,37.331
657.00,37.261
658.00,37.964
659.00,37.584
660.00,37.594
661.00,37.591
662.00,37.723
663.00,37.879
664.00,38.132
665.00,38.320
666.00,38.237
667.00,38.425
668.00,38.445
669.00,38.733
670.00,38.949
671.00,38.950
672.00,39.053
673.00,39.097
674.00,39.182
675.00,39.273
676.00,39.504
677.00,39.716
678.00,39.605
679.00,39.873
680.00,39.957
681.00,40.155
682.00,40.228
683.00,40.243
684.00,40.409
685.00,40.583
686.00,40.461
687.00,40.664
688.00,40.828
689.00,40.827
690.00,41.111
691.00,41.245
692.00,41.175
693.00,41.170
694.00,41.146
695.00,41.723
696.00,41.923
697.00,41.788
698.00,41.944
699.00,42.109
700.00,42.125
701.00,42.195
702.00,42.357
703.00,42.564
704.00,42.654
705.00,42.570
706.00,42.520
707.00,42.573
708.00,43.034
709.00,43.489
710.00,43.548
711.00,43.245
712.00,43.284
713.00,43.572
714.00,43.716
715.00,43.716
716.00,43.711
717.00,43.892
718.00,44.109
719.00,44.103
720.00,44.199
721.00,48.433
722.00,48.430
723.00,48.497
724.00,48.559
725.00,48.649
726.00,48.712
727.00,48.792
728.00,48.817
729.00,48.911
730.00,48.941
731.00,48.935
732.00,49.021
733.00,49.125
734.00,49.170
735.00,49.170
736.00,49.286
737.00,49.383
738.00,49.390
739.00,49.459
740.00,49.520
741.00,49.567
742.00,49.662
743.00,49.628
744.00,49.686
745.00,49.739
746.00,49.787
747.00,49.762
748.00,49.778
749.00,49.806
750.00,49.903
751.00,49.840
752.00,49.882
753.00,49.934
754.00,49.943
755.00,49.918
756.00,49.968
757.00,50.005
758.00,50.104
759.00,50.097
760.00,50.179
761.00,50.213
762.00,50.251
763.00,50.248
764.00,50.216
765.00,50.280
766.00,50.335
767.00,50.332
768.00,50.347
769.00,50.316
770.00,50.416
771.00,50.434
772.00,50.515
773.00,50.528
774.00,50.449
775.00,50.552
776.00,50.548
777.00,50.615
778.00,50.638
779.00,50.646
780.00,50.630
781.00,50.627
782.00,50.646
783.00,50.625
784.00,50.753
785.00,50.605
786.00,50.699
787.00,50.638
788.00,50.702
789.00,50.680
790.00,50.640
791.00,50.711
792.00,50.722
793.00,50.705
794.00,50.690
795.00,50.740
796.00,50.685
797.00,50.788
798.00,50.707
799.00,50.659
800.00,50.717
801.00,50.674
802.00,50.628
803.00,50.668
804.00,50.606
805.00,50.655
806.00,50.646
807.00,50.587
808.00,50.684
809.00,50.676
810.00,50.672
811.00,50.703
812.00,50.692
813.00,50.591
814.00,50.632
815.00,50.582
816.00,50.662
817.00,50.564
818.00,50.471
819.00,50.519
820.00,50.454
821.00,50.530
822.00,50.539
823.00,50.536
824.00,50.585
825.00,50.553
826.00,50.514
827.00,50.601
828.00,50.470
829.00,50.522
830.00,50.500
831.00,52.935
832.00,52.891
833.00,52.854
834.00,52.837
835.00,52.833
836.00,52.831
837.00,52.840
838.00,52.780
839.00,52.815
840.00,52.719
841.00,52.782
842.00,52.713
843.00,52.723
844.00,52.758
845.00,52.700
846.00,52.689
847.00,52.650
848.00,52.692
849.00,52.643
850.00,52.585
851.00,52.556
852.00,52.603
853.00,52.482
854.00,52.521
855.00,52.474
856.00,52.473
857.00,52.503
858.00,52.410
859.00,52.404
860.00,52.395
861.00,52.421
862.00,52.400
863.00,52.367
864.00,52.278
865.00,52.363
866.00,52.355
867.00,52.337
868.00,52.327
869.00,52.326
870.00,52.308
871.00,52.367
872.00,52.325
873.00,52.304
874.00,52.336
875.00,52.265
876.00,52.312
877.00,52.255
878.00,52.303
879.00,52.216
880.00,52.184
881.00,52.223
882.00,52.247
883.00,52.153
884.00,52.089
885.00,52.250
886.00,52.146
887.00,52.114
888.00,52.082
889.00,52.086
890.00,52.090
891.00,52.040
892.00,52.031
893.00,52.010
894.00,52.017
895.00,51.995
896.00,51.967
897.00,51.951
898.00,51.922
899.00,51.913
900.00,51.902
901.00,51.881
902.00,51.899
903.00,51.866
904.00,51.848
905.00,51.848
906.00,51.862
907.00,51.805
908.00,51.761
909.00,51.767
910.00,51.738
911.00,51.742
912.00,51.726
913.00,51.710
914.00,51.694
915.00,51.667
916.00,51.652
917.00,51.630
918.00,51.640
919.00,51.595
920.00,51.564
921.00,51.564
922.00,51.557
923.00,51.525
924.00,51.494
925.00,51.469
926.00,51.556
927.00,51.418
928.00,51.442
929.00,51.447
930.00,51.396
931.00,51.386
932.00,51.349
933.00,51.371
934.00,51.365
935.00,51.341
936.00,51.313
937.00,51.300
938.00,51.290
939.00,51.272
940.00,51.254
941.00,51.237
942.00,51.219
943.00,51.199
944.00,51.168
945.00,51.165
946.00,51.170
947.00,51.118
948.00,51.104
949.00,51.084
950.00,51.078
951.00,51.043
952.00,51.021
953.00,51.019
954.00,50.969
955.00,50.935
956.00,50.931
957.00,50.975
958.00,50.886
959.00,50.856
960.00,50.880
961.00,50.848
962.00,50.828
963.00,50.767
964.00,50.778
965.00,50.790
966.00,50.759
967.00,50.762
968.00,50.750
969.00,50.778
970.00,50.744
971.00,50.757
972.00,50.748
973.00,50.755
974.00,50.774
975.00,50.754
976.00,50.746
977.00,50.738
978.00,50.771
979.00,50.748
980.00,50.765
981.00,50.763
982.00,50.718
983.00,50.751
984.00,50.738
985.00,50.741
986.00,50.682
987.00,50.725
988.00,50.664
989.00,50.643
990.00,50.640
991.00,50.627
992.00,50.637
993.00,50.602
994.00,50.600
995.00,50.604
996.00,50.590
997.00,50.577
998.00,50.572
999.00,50.599
1000.00,50.542
1001.00,50.555
1002.00,50.552
1003.00,50.554
1004.00,50.526
1005.00,50.501
1006.00,50.528
1007.00,50.495
1008.00,50.482
1009.00,50.457
1010.00,50.466
1011.00,50.442
1012.00,50.430
1013.00,50.420
1014.00,50.382
1015.00,50.402
1016.00,50.369
1017.00,50.371
1018.00,50.398
1019.00,50.320
1020.00,50.303
1021.00,50.264
1022.00,50.265
1023.00,50.250
1024.00,50.242
1025.00,50.237
1026.00,50.208
1027.00,50.190
1028.00,50.217
1029.00,50.167
1030.00,50.146
1031.00,50.148
1032.00,50.091
1033.00,50.116
1034.00,50.096
1035.00,50.057
1036.00,50.030
1037.00,50.022
1038.00,50.015
1039.00,49.993
1040.00,49.976
1041.00,49.948
1042.00,49.945
1043.00,49.931
1044.00,49.954
1045.00,49.932
1046.00,49.943
1047.00,49.969
1048.00,49.967
1049.00,49.962
1050.00,49.980
1051.00,50.014
1052.00,50.003
1053.00,50.004
1054.00,49.995
1055.00,50.013
1056.00,50.032
1057.00,50.038
1058.00,50.021
1059.00,50.019
1060.00,50.045
1061.00,50.037
1062.00,50.020
1063.00,50.031
1064.00,50.017
1065.00,50.007
1066.00,49.996
1067.00,49.988
1068.00,50.004
1069.00,49.972
1070.00,49.949
1071.00,49.949
1072.00,49.972
1073.00,49.936
1074.00,49.925
1075.00,49.919
1076.00,49.928
1077.00,49.896
1078.00,49.897
1079.00,49.904
1080.00,49.883
1081.00,49.864
1082.00,49.875
1083.00,49.868
1084.00,49.853
1085.00,49.867
1086.00,49.849
1087.00,49.853
1088.00,49.825
1089.00,49.832
1090.00,49.822
1091.00,49.816
1092.00,49.816
1093.00,49.813
1094.00,49.809
1095.00,49.777
1096.00,49.762
1097.00,49.750
1098.00,49.742
1099.00,49.736
1100.00,49.723
1101.00,49.733
1102.00,49.711
1103.00,49.719
1104.00,49.717
1105.00,49.685
1106.00,49.681
1107.00,49.698
1108.00,49.660
1109.00,49.651
1110.00,49.638
1111.00,49.634
1112.00,49.631
1113.00,49.622
1114.00,49.618
1115.00,49.624
1116.00,49.609
1117.00,49.594
1118.00,49.592
1119.00,49.583
1120.00,49.573
1121.00,49.569
1122.00,49.553
1123.00,49.542
1124.00,49.536
1125.00,49.534
1126.00,49.520
1127.00,49.527
1128.00,49.512
1129.00,49.506
1130.00,49.496
1131.00,49.494
1132.00,49.493
1133.00,49.479
1134.00,49.471
1135.00,49.463
1136.00,49.461
1137.00,49.473
1138.00,49.476
1139.00,49.478
1140.00,49.466
1141.00,49.457
1142.00,49.452
1143.00,49.472
1144.00,49.449
1145.00,49.460
1146.00,49.454
1147.00,49.443
1148.00,49.438
1149.00,49.454
1150.00,49.433
1151.00,49.435
1152.00,49.442
1153.00,49.426
1154.00,49.412
1155.00,49.423
1156.00,49.419
1157.00,49.426
1158.00,49.410
1159.00,49.407
1160.00,49.411
1161.00,49.414
1162.00,49.418
1163.00,49.414
1164.00,49.414
1165.00,49.402
1166.00,49.410
1167.00,49.409
1168.00,49.416
1169.00,49.413
1170.00,49.421
1171.00,49.407
1172.00,49.398
1173.00,49.395
1174.00,49.421
1175.00,49.407
1176.00,49.410
1177.00,49.393
1178.00,49.391
1179.00,49.402
1180.00,49.395
1181.00,49.419
1182.00,49.410
1183.00,49.389
1184.00,49.388
1185.00,49.403
1186.00,49.384
1187.00,49.382
1188.00,49.392
1189.00,49.386
1190.00,49.373
1191.00,49.373
1192.00,49.403
1193.00,49.400
1194.00,49.395
1195.00,49.374
1196.00,49.393
1197.00,49.394
1198.00,49.379
1199.00,49.380
1200.00,49.396
1201.00,49.405
1202.00,49.388
1203.00,49.396
1204.00,49.384
1205.00,49.412
1206.00,49.403
1207.00,49.406
1208.00,49.389
1209.00,49.405
1210.00,49.395
1211.00,49.397
1212.00,49.412
1213.00,49.381
1214.00,49.410
1215.00,49.388
1216.00,49.395
1217.00,49.405
1218.00,49.400
1219.00,49.407
1220.00,49.386
1221.00,49.409
1222.00,49.396
1223.00,49.422
1224.00,49.416
1225.00,49.412
1226.00,49.415
1227.00,49.400
1228.00,49.420
1229.00,49.422
1230.00,49.437
1231.00,49.424
1232.00,49.462
1233.00,49.467
1234.00,49.470
1235.00,49.471
1236.00,49.471
1237.00,49.471
1238.00,49.461
1239.00,49.476
1240.00,49.464
1241.00,49.472
1242.00,49.482
1243.00,49.483
1244.00,49.475
1245.00,49.491
1246.00,49.511
1247.00,49.516
1248.00,49.501
1249.00,49.517
1250.00,49.521
1251.00,49.522
1252.00,49.521
1253.00,49.504
1254.00,49.530
1255.00,49.511
1256.00,49.505
1257.00,49.499
1258.00,49.550
1259.00,49.543
1260.00,49.566
1261.00,49.563
1262.00,49.548
1263.00,49.536
1264.00,49.553
1265.00,49.568
1266.00,49.571
1267.00,49.583
1268.00,49.589
1269.00,49.595
1270.00,49.611
1271.00,49.609
1272.00,49.625
1273.00,49.631
1274.00,49.622
1275.00,49.646
1276.00,49.640
1277.00,49.647
1278.00,49.661
1279.00,49.667
1280.00,49.657
1281.00,49.681
1282.00,49.690
1283.00,49.682
1284.00,49.689
1285.00,49.685
1286.00,49.692
1287.00,49.698
1288.00,49.706
1289.00,49.706
1290.00,49.722
1291.00,49.719
1292.00,49.731
1293.00,49.714
1294.00,49.724
1295.00,49.746
1296.00,49.746
1297.00,49.746
1298.00,49.791
1299.00,49.768
1300.00,49.780
1301.00,49.774
1302.00,49.813
1303.00,49.811
1304.00,49.795
1305.00,49.826
1306.00,49.832
1307.00,49.817
1308.00,49.819
1309.00,49.840
1310.00,49.840
1311.00,49.838
1312.00,49.847
1313.00,49.865
1314.00,49.886
1315.00,49.890
1316.00,49.892
1317.00,49.921
1318.00,49.926
1319.00,49.925
1320.00,49.924
1321.00,50.108
1322.00,50.074
1323.00,50.070
1324.00,50.067
1325.00,50.045
1326.00,50.087
1327.00,50.090
1328.00,50.089
1329.00,50.080
1330.00,50.082
1331.00,50.076
1332.00,50.092
1333.00,50.073
1334.00,50.130
1335.00,50.141
1336.00,50.167
1337.00,50.193
1338.00,50.265
1339.00,50.297
1340.00,50.370
1341.00,50.426
1342.00,50.479
1343.00,50.536
1344.00,50.586
1345.00,50.644
1346.00,50.689
1347.00,50.722
1348.00,50.729
1349.00,50.743
1350.00,50.754
1351.00,50.774
1352.00,50.769
1353.00,50.770
1354.00,50.797
1355.00,50.768
1356.00,50.827
1357.00,50.812
1358.00,50.810
1359.00,50.844
1360.00,50.901
1361.00,51.204
1362.00,50.890
1363.00,50.830
1364.00,50.909
1365.00,50.848
1366.00,51.016
1367.00,50.980
1368.00,50.824
1369.00,50.866
1370.00,50.864
1371.00,50.835
1372.00,50.848
1373.00,50.856
1374.00,50.880
1375.00,50.857
1376.00,50.861
1377.00,50.861
1378.00,50.955
1379.00,50.886
1380.00,50.880
1381.00,50.873
1382.00,50.813
1383.00,50.890
1384.00,50.845
1385.00,50.867
1386.00,50.858
1387.00,50.872
1388.00,50.835
1389.00,50.913
1390.00,50.849
1391.00,50.860
1392.00,50.828
1393.00,50.833
1394.00,50.880
1395.00,50.910
1396.00,50.827
1397.00,50.879
1398.00,50.865
1399.00,50.872
1400.00,50.884
1401.00,50.856
1402.00,50.882
1403.00,50.891
1404.00,50.891
1405.00,50.906
1406.00,50.949
1407.00,50.922
1408.00,50.948
1409.00,50.933
1410.00,50.954
1411.00,50.917
1412.00,51.009
1413.00,50.959
1414.00,50.937
1415.00,50.981
1416.00,51.011
1417.00,51.028
1418.00,51.022
1419.00,51.015
1420.00,51.048
1421.00,51.073
1422.00,51.080
1423.00,51.122
1424.00,51.104
1425.00,51.123
1426.00,51.132
1427.00,51.163
1428.00,51.168
1429.00,51.182
1430.00,51.196
1431.00,51.229
1432.00,51.239
1433.00,51.259
1434.00,51.262
1435.00,51.310
1436.00,51.312
1437.00,51.306
1438.00,51.328
1439.00,51.368
1440.00,51.384
1441.00,51.381
1442.00,51.417
1443.00,51.411
1444.00,51.479
1445.00,51.455
1446.00,51.488
1447.00,51.510
1448.00,51.545
1449.00,51.556
1450.00,51.572
1451.00,51.577
1452.00,51.589
1453.00,51.603
1454.00,51.609
1455.00,51.644
1456.00,51.664
1457.00,51.664
1458.00,51.672
1459.00,51.701
1460.00,51.716
1461.00,51.733
1462.00,51.761
1463.00,51.772
1464.00,51.799
1465.00,51.803
1466.00,51.810
1467.00,51.832
1468.00,51.879
1469.00,51.846
1470.00,51.880
1471.00,51.895
1472.00,51.922
1473.00,51.928
1474.00,51.969
1475.00,52.003
1476.00,52.009
1477.00,51.987
1478.00,52.020
1479.00,52.028
1480.00,52.024
1481.00,52.040
1482.00,52.072
1483.00,52.077
1484.00,52.091
1485.00,52.093
1486.00,52.112
1487.00,52.147
1488.00,52.180
1489.00,52.172
1490.00,52.189
1491.00,52.196
1492.00,52.208
1493.00,52.183
1494.00,52.255
1495.00,52.232
1496.00,52.261
1497.00,52.248
1498.00,52.272
1499.00,52.298
1500.00,52.308
1501.00, 
1502.00, 
1503.00, 
1504.00, 
1505.00, 
1506.00, 
1507.00, 
1508.00, 
1509.00, 
1510.00, 
1511.00, 
1512.00, 
1513.00, 
1514.00, 
1515.00, 
1516.00, 
1517.00, 
1518.00, 
1519.00, 
1520.00, 
1521.00, 
1522.00, 
1523.00, 
1524.00, 
1525.00, 
1526.00, 
1527.00, 
1528.00, 
1529.00, 
1530.00, 
1531.00, 
1532.00, 
1533.00, 
1534.00, 
1535.00, 
1536.00, 
1537.00, 
1538.00, 
1539.00, 
1540.00, 
1541.00, 
1542.00, 
1543.00, 
1544.00, 
1545.00, 
1546.00, 
1547.00, 
1548.00, 
1549.00, 
1550.00, 
1551.00, 
1552.00, 
1553.00, 
1554.00, 
1555.00, 
1556.00, 
1557.00, 
1558.00, 
1559.00, 
1560.00, 
1561.00, 
1562.00, 
1563.00, 
1564.00, 
1565.00, 
1566.00, 
1567.00, 
1568.00, 
1569.00, 
1570.00, 
1571.00, 
1572.00, 
1573.00, 
1574.00, 
1575.00, 
1576.00, 
1577.00, 
1578.00, 
1579.00, 
1580.00, 
1581.00, 
1582.00, 
1583.00, 
1584.00, 
1585.00, 
1586.00, 
1587.00, 
1588.00, 
1589.00, 
1590.00, 
1591.00, 
1592.00, 
1593.00, 
1594.00, 
1595.00, 
1596.00, 
1597.00, 
1598.00, 
1599.00, 
1600.00, 
1601.00, 
1602.00, 
1603.00, 
1604.00, 
1605.00, 
1606.00, 
1607.00, 
1608.00, 
1609.00, 
1610.00, 
1611.00, 
1612.00, 
1613.00, 
1614.00, 
1615.00, 
1616.00, 
1617.00, 
1618.00, 
1619.00, 
1620.00, 
1621.00, 
1622.00, 
1623.00, 
1624.00, 
1625.00, 
1626.00, 
1627.00, 
1628.00, 
1629.00, 
1630.00, 
1631.00, 
1632.00, 
1633.00, 
1634.00, 
1635.00, 
1636.00, 
1637.00, 
1638.00, 
1639.00, 
1640.00, 
1641.00, 
1642.00, 
1643.00, 
1644.00, 
1645.00, 
1646.00, 
1647.00, 
1648.00, 
1649.00, 
1650.00, 
1651.00, 
1652.00, 
1653.00, 
1654.00, 
1655.00, 
1656.00, 
1657.00, 
1658.00, 
1659.00, 
1660.00, 
1661.00, 
1662.00, 
1663.00, 
1664.00, 
1665.00, 
1666.00, 
1667.00, 
1668.00, 
1669.00, 
1670.00, 
1671.00, 
1672.00, 
1673.00, 
1674.00, 
1675.00, 
1676.00, 
1677.00, 
1678.00, 
1679.00, 
1680.00, 
1681.00, 
1682.00, 
1683.00, 
1684.00, 
1685.00, 
1686.00, 
1687.00, 
1688.00, 
1689.00, 
1690.00, 
1691.00, 
1692.00, 
1693.00, 
1694.00, 
1695.00, 
1696.00, 
1697.00, 
1698.00, 
1699.00, 
1700.00, 
1701.00, 
1702.00, 
1703.00, 
1704.00, 
1705.00, 
1706.00, 
1707.00, 
1708.00, 
1709.00, 
1710.00, 
1711.00, 
1712.00, 
1713.00, 
1714.00, 
1715.00, 
1716.00, 
1717.00, 
1718.00, 
1719.00, 
1720.00, 
1721.00, 
1722.00, 
1723.00, 
1724.00, 
1725.00, 
1726.00, 
1727.00, 
1728.00, 
1729.00, 
1730.00, 
1731.00, 
1732.00, 
1733.00, 
1734.00, 
1735.00, 
1736.00, 
1737.00, 
1738.00, 
1739.00, 
1740.00, 
1741.00, 
1742.00, 
1743.00, 
1744.00, 
1745.00, 
1746.00, 
1747.00, 
1748.00, 
1749.00, 
1750.00, 
1751.00, 
1752.00, 
1753.00, 
1754.00, 
1755.00, 
1756.00, 
1757.00, 
1758.00, 
1759.00, 
1760.00, 
1761.00, 
1762.00, 
1763.00, 
1764.00, 
1765.00, 
1766.00, 
1767.00, 
1768.00, 
1769.00, 
1770.00, 
1771.00, 
1772.00, 
1773.00, 
1774.00, 
1775.00, 
1776.00, 
1777.00, 
1778.00, 
1779.00, 
1780.00, 
1781.00, 
1782.00, 
1783.00, 
1784.00, 
1785.00, 
1786.00, 
1787.00, 
1788.00, 
1789.00, 
1790.00, 
1791.00, 
1792.00, 
1793.00, 
1794.00, 
1795.00, 
1796.00, 
1797.00, 
1798.00, 
1799.00, 
1800.00, 
1801.00, 
1802.00, 
1803.00, 
1804.00, 
1805.00, 
1806.00, 
1807.00, 
1808.00, 
1809.00, 
1810.00, 
1811.00, 
1812.00, 
1813.00, 
1814.00, 
1815.00, 
1816.00, 
1817.00, 
1818.00, 
1819.00, 
1820.00, 
1821.00, 
1822.00, 
1823.00, 
1824.00, 
1825.00, 
1826.00, 
1827.00, 
1828.00, 
1829.00, 
1830.00, 
1831.00, 
1832.00, 
1833.00, 
1834.00, 
1835.00, 
1836.00, 
1837.00, 
1838.00, 
1839.00, 
1840.00, 
1841.00, 
1842.00, 
1843.00, 
1844.00, 
1845.00, 
1846.00, 
1847.00, 
1848.00, 
1849.00, 
1850.00, 
1851.00, 
1852.00, 
1853.00, 
1854.00, 
1855.00, 
1856.00, 
1857.00, 
1858.00, 
1859.00, 
1860.00, 
1861.00, 
1862.00, 
1863.00, 
1864.00, 
1865.00, 
1866.00, 
1867.00, 
1868.00, 
1869.00, 
1870.00, 
1871.00, 
1872.00, 
1873.00, 
1874.00, 
1875.00, 
1876.00, 
1877.00, 
1878.00, 
1879.00, 
1880.00, 
1881.00, 
1882.00, 
1883.00, 
1884.00, 
1885.00, 
1886.00, 
1887.00, 
1888.00, 
1889.00, 
1890.00, 
1891.00, 
1892.00, 
1893.00, 
1894.00, 
1895.00, 
1896.00, 
1897.00, 
1898.00, 
1899.00, 
1900.00, 
1901.00, 
1902.00, 
1903.00, 
1904.00, 
1905.00, 
1906.00, 
1907.00, 
1908.00, 
1909.00, 
1910.00, 
1911.00, 
1912.00, 
1913.00, 
1914.00, 
1915.00, 
1916.00, 
1917.00, 
1918.00, 
1919.00, 
1920.00, 
1921.00, 
1922.00, 
1923.00, 
1924.00, 
1925.00, 
1926.00, 
1927.00, 
1928.00, 
1929.00, 
1930.00, 
1931.00, 
1932.00, 
1933.00, 
1934.00, 
1935.00, 
1936.00, 
1937.00, 
1938.00, 
1939.00, 
1940.00, 
1941.00, 
1942.00, 
1943.00, 
1944.00, 
1945.00, 
1946.00, 
1947.00, 
1948.00, 
1949.00, 
1950.00, 
1951.00, 
1952.00, 
1953.00, 
1954.00, 
1955.00, 
1956.00, 
1957.00, 
1958.00, 
1959.00, 
1960.00, 
1961.00, 
1962.00, 
1963.00, 
1964.00, 
1965.00, 
1966.00, 
1967.00, 
1968.00, 
1969.00, 
1970.00, 
1971.00, 
1972.00, 
1973.00, 
1974.00, 
1975.00, 
1976.00, 
1977.00, 
1978.00, 
1979.00, 
1980.00, 
1981.00, 
1982.00, 
1983.00, 
1984.00, 
1985.00, 
1986.00, 
1987.00, 
1988.00, 
1989.00, 
1990.00, 
1991.00, 
1992.00, 
1993.00, 
1994.00, 
1995.00, 
1996.00, 
1997.00, 
1998.00, 
1999.00, 
2000.00, 
2001.00, 
2002.00, 
2003.00, 
2004.00, 
2005.00, 
2006.00, 
2007.00, 
2008.00, 
2009.00, 
2010.00, 
2011.00, 
2012.00, 
2013.00, 
2014.00, 
2015.00, 
2016.00, 
2017.00, 
2018.00, 
2019.00, 
2020.00, 
2021.00, 
2022.00, 
2023.00, 
2024.00, 
2025.00, 
2026.00, 
2027.00, 
2028.00, 
2029.00, 
2030.00, 
2031.00, 
2032.00, 
2033.00, 
2034.00, 
2035.00, 
2036.00, 
2037.00, 
2038.00, 
2039.00, 
2040.00, 
2041.00, 
2042.00, 
2043.00, 
2044.00, 
2045.00, 
2046.00, 
2047.00, 
2048.00, 
2049.00, 
2050.00, 
2051.00, 
2052.00, 
2053.00, 
2054.00, 
2055.00, 
2056.00, 
2057.00, 
2058.00, 
2059.00, 
2060.00, 
2061.00, 
2062.00, 
2063.00, 
2064.00, 
2065.00, 
2066.00, 
2067.00, 
2068.00, 
2069.00, 
2070.00, 
2071.00, 
2072.00, 
2073.00, 
2074.00, 
2075.00, 
2076.00, 
2077.00, 
2078.00, 
2079.00, 
2080.00, 
2081.00, 
2082.00, 
2083.00, 
2084.00, 
2085.00, 
2086.00, 
2087.00, 
2088.00, 
2089.00, 
2090.00, 
2091.00, 
2092.00, 
2093.00, 
2094.00, 
2095.00, 
2096.00, 
2097.00, 
2098.00, 
2099.00, 
2100.00, 
2101.00, 
2102.00, 
2103.00, 
2104.00, 
2105.00, 
2106.00, 
2107.00, 
2108.00, 
2109.00, 
2110.00, 
2111.00, 
2112.00, 
2113.00, 
2114.00, 
2115.00, 
2116.00, 
2117.00, 
2118.00, 
2119.00, 
2120.00, 
2121.00, 
2122.00, 
2123.00, 
2124.00, 
2125.00, 
2126.00, 
2127.00, 
2128.00, 
2129.00, 
2130.00, 
2131.00, 
2132.00, 
2133.00, 
2134.00, 
2135.00, 
2136.00, 
2137.00, 
2138.00, 
2139.00, 
2140.00, 
2141.00, 
2142.00, 
2143.00, 
2144.00, 
2145.00, 
2146.00, 
2147.00, 
2148.00, 
2149.00, 
2150.00, 
2151.00, 
2152.00, 
2153.00, 
2154.00, 
2155.00, 
2156.00, 
2157.00, 
2158.00, 
2159.00, 
2160.00, 
2161.00, 
2162.00, 
2163.00, 
2164.00, 
2165.00, 
2166.00, 
2167.00, 
2168.00, 
2169.00, 
2170.00, 
2171.00, 
2172.00, 
2173.00, 
2174.00, 
2175.00, 
2176.00, 
2177.00, 
2178.00, 
2179.00, 
2180.00, 
2181.00, 
2182.00, 
2183.00, 
2184.00, 
2185.00, 
2186.00, 
2187.00, 
2188.00, 
2189.00, 
2190.00, 
2191.00, 
2192.00, 
2193.00, 
2194.00, 
2195.00, 
2196.00, 
2197.00, 
2198.00, 
2199.00, 
2200.00, 
2201.00, 
2202.00, 
2203.00, 
2204.00, 
2205.00, 
2206.00, 
2207.00, 
2208.00, 
2209.00, 
2210.00, 
2211.00, 
2212.00, 
2213.00, 
2214.00, 
2215.00, 
2216.00, 
2217.00, 
2218.00, 
2219.00, 
2220.00, 
2221.00, 
2222.00, 
2223.00, 
2224.00, 
2225.00, 
2226.00, 
2227.00, 
2228.00, 
2229.00, 
2230.00, 
2231.00, 
2232.00, 
2233.00, 
2234.00, 
2235.00, 
2236.00, 
2237.00, 
2238.00, 
2239.00, 
2240.00, 
2241.00, 
2242.00, 
2243.00, 
2244.00, 
2245.00, 
2246.00, 
2247.00, 
2248.00, 
2249.00, 
2250.00, 
2251.00, 
2252.00, 
2253.00, 
2254.00, 
2255.00, 
2256.00, 
2257.00, 
2258.00, 
2259.00, 
2260.00, 
2261.00, 
2262.00, 
2263.00, 
2264.00, 
2265.00, 
2266.00, 
2267.00, 
2268.00, 
2269.00, 
2270.00, 
2271.00, 
2272.00, 
2273.00, 
2274.00, 
2275.00, 
2276.00, 
2277.00, 
2278.00, 
2279.00, 
2280.00, 
2281.00, 
2282.00, 
2283.00, 
2284.00, 
2285.00, 
2286.00, 
2287.00, 
2288.00, 
2289.00, 
2290.00, 
2291.00, 
2292.00, 
2293.00, 
2294.00, 
2295.00, 
2296.00, 
2297.00, 
2298.00, 
2299.00, 
2300.00, 
2301.00, 
2302.00, 
2303.00, 
2304.00, 
2305.00, 
2306.00, 
2307.00, 
2308.00, 
2309.00, 
2310.00, 
2311.00, 
2312.00, 
2313.00, 
2314.00, 
2315.00, 
2316.00, 
2317.00, 
2318.00, 
2319.00, 
2320.00, 
2321.00, 
2322.00, 
2323.00, 
2324.00, 
2325.00, 
2326.00, 
2327.00, 
2328.00, 
2329.00, 
2330.00, 
2331.00, 
2332.00, 
2333.00, 
2334.00, 
2335.00, 
2336.00, 
2337.00, 
2338.00, 
2339.00, 
2340.00, 
2341.00, 
2342.00, 
2343.00, 
2344.00, 
2345.00, 
2346.00, 
2347.00, 
2348.00, 
2349.00, 
2350.00, 
2351.00, 
2352.00, 
2353.00, 
2354.00, 
2355.00, 
2356.00, 
2357.00, 
2358.00, 
2359.00, 
2360.00, 
2361.00, 
2362.00, 
2363.00, 
2364.00, 
2365.00, 
2366.00, 
2367.00, 
2368.00, 
2369.00, 
2370.00, 
2371.00, 
2372.00, 
2373.00, 
2374.00, 
2375.00, 
2376.00, 
2377.00, 
2378.00, 
2379.00, 
2380.00, 
2381.00, 
2382.00, 
2383.00, 
2384.00, 
2385.00, 
2386.00, 
2387.00, 
2388.00, 
2389.00, 
2390.00, 
2391.00, 
2392.00, 
2393.00, 
2394.00, 
2395.00, 
2396.00, 
2397.00, 
2398.00, 
2399.00, 
2400.00, 
2401.00, 
2402.00, 
2403.00, 
2404.00, 
2405.00, 
2406.00, 
2407.00, 
2408.00, 
2409.00, 
2410.00, 
2411.00, 
2412.00, 
2413.00, 
2414.00, 
2415.00, 
2416.00, 
2417.00, 
2418.00, 
2419.00, 
2420.00, 
2421.00, 
2422.00, 
2423.00, 
2424.00, 
2425.00, 
2426.00, 
2427.00, 
2428.00, 
2429.00, 
2430.00, 
2431.00, 
2432.00, 
2433.00, 
2434.00, 
2435.00, 
2436.00, 
2437.00, 
2438.00, 
2439.00, 
2440.00, 
2441.00, 
2442.00, 
2443.00, 
2444.00, 
2445.00, 
2446.00, 
2447.00, 
2448.00, 
2449.00, 
2450.00, 
2451.00, 
2452.00, 
2453.00, 
2454.00, 
2455.00, 
2456.00, 
2457.00, 
2458.00, 
2459.00, 
2460.00, 
2461.00, 
2462.00, 
2463.00, 
2464.00, 
2465.00, 
2466.00, 
2467.00, 
2468.00, 
2469.00, 
2470.00, 
2471.00, 
2472.00, 
2473.00, 
2474.00, 
2475.00, 
2476.00, 
2477.00, 
2478.00, 
2479.00, 
2480.00, 
2481.00, 
2482.00, 
2483.00, 
2484.00, 
2485.00, 
2486.00, 
2487.00, 
2488.00, 
2489.00, 
2490.00, 
2491.00, 
2492.00, 
2493.00, 
2494.00, 
2495.00, 
2496.00, 
2497.00, 
2498.00, 
2499.00, 
2500.00, 
2501.00, 
2502.00, 
2503.00, 
2504.00, 
2505.00, 
2506.00, 
2507.00, 
2508.00, 
2509.00, 
2510.00, 
2511.00, 
2512.00, 
2513.00, 
2514.00, 
2515.00, 
2516.00, 
2517.00, 
2518.00, 
2519.00, 
2520.00, 
2521.00, 
2522.00, 
2523.00, 
2524.00, 
2525.00, 
2526.00, 
2527.00, 
2528.00, 
2529.00, 
2530.00, 
2531.00, 
2532.00, 
2533.00, 
2534.00, 
2535.00, 
2536.00, 
2537.00, 
2538.00, 
2539.00, 
2540.00, 
2541.00, 
2542.00, 
2543.00, 
2544.00, 
2545.00, 
2546.00, 
2547.00, 
2548.00, 
2549.00, 
2550.00, 
2551.00, 
2552.00, 
2553.00, 
2554.00, 
2555.00, 
2556.00, 
2557.00, 
2558.00, 
2559.00, 
2560.00, 
2561.00, 
2562.00, 
2563.00, 
2564.00, 
2565.00, 
2566.00, 
2567.00, 
2568.00, 
2569.00, 
2570.00, 
2571.00, 
2572.00, 
2573.00, 
2574.00, 
2575.00, 
2576.00, 
2577.00, 
2578.00, 
2579.00, 
2580.00, 
2581.00, 
2582.00, 
2583.00, 
2584.00, 
2585.00, 
2586.00, 
2587.00, 
2588.00, 
2589.00, 
2590.00, 
2591.00, 
2592.00, 
2593.00, 
2594.00, 
2595.00, 
2596.00, 
2597.00, 
2598.00, 
2599.00, 
2600.00, 
