"2bP2 - RawData"
"Wavelength nm.","T%"
200.00,0.000
201.00,0.005
202.00,0.002
203.00,0.002
204.00,0.002
205.00,0.001
206.00,0.002
207.00,-0.002
208.00,0.000
209.00,0.001
210.00,-0.001
211.00,0.001
212.00,0.000
213.00,-0.003
214.00,0.002
215.00,0.002
216.00,0.000
217.00,-0.002
218.00,0.002
219.00,0.001
220.00,0.002
221.00,-0.000
222.00,0.002
223.00,0.002
224.00,0.001
225.00,0.000
226.00,0.000
227.00,-0.000
228.00,0.002
229.00,0.000
230.00,0.001
231.00,-0.001
232.00,0.000
233.00,0.001
234.00,-0.002
235.00,0.001
236.00,0.002
237.00,0.002
238.00,0.000
239.00,0.001
240.00,0.001
241.00,0.000
242.00,0.002
243.00,0.000
244.00,-0.000
245.00,0.001
246.00,0.001
247.00,0.001
248.00,-0.000
249.00,0.001
250.00,0.001
251.00,-0.001
252.00,0.001
253.00,0.000
254.00,-0.000
255.00,0.002
256.00,0.001
257.00,-0.000
258.00,-0.001
259.00,-0.000
260.00,0.001
261.00,0.002
262.00,-0.001
263.00,-0.000
264.00,-0.000
265.00,-0.000
266.00,0.001
267.00,0.001
268.00,0.001
269.00,0.002
270.00,-0.001
271.00,0.001
272.00,0.000
273.00,0.000
274.00,0.000
275.00,0.001
276.00,-0.001
277.00,-0.000
278.00,0.001
279.00,-0.000
280.00,-0.000
281.00,-0.002
282.00,0.001
283.00,0.001
284.00,-0.000
285.00,0.001
286.00,0.001
287.00,0.000
288.00,0.001
289.00,0.001
290.00,-0.001
291.00,0.000
292.00,0.000
293.00,0.002
294.00,0.000
295.00,0.001
296.00,0.000
297.00,0.000
298.00,0.000
299.00,0.003
300.00,0.002
301.00,0.005
302.00,0.005
303.00,0.007
304.00,0.012
305.00,0.018
306.00,0.026
307.00,0.039
308.00,0.060
309.00,0.089
310.00,0.123
311.00,0.158
312.00,0.225
313.00,0.303
314.00,0.394
315.00,0.512
316.00,0.650
317.00,0.815
318.00,0.995
319.00,1.215
320.00,1.465
321.00,1.745
322.00,2.053
323.00,2.410
324.00,2.791
325.00,3.150
326.00,3.548
327.00,3.971
328.00,4.436
329.00,4.885
330.00,5.337
331.00,5.821
332.00,6.322
333.00,6.827
334.00,7.322
335.00,7.834
336.00,8.290
337.00,8.804
338.00,9.256
339.00,9.720
340.00,10.107
341.00,10.574
342.00,10.989
343.00,11.341
344.00,11.760
345.00,12.110
346.00,12.447
347.00,12.732
348.00,13.049
349.00,13.302
350.00,13.566
351.00,13.792
352.00,14.013
353.00,14.172
354.00,14.394
355.00,14.556
356.00,14.729
357.00,14.853
358.00,14.978
359.00,15.133
360.00,15.288
361.00,15.378
362.00,15.481
363.00,15.546
364.00,15.609
365.00,15.641
366.00,15.694
367.00,15.735
368.00,15.726
369.00,15.745
370.00,15.770
371.00,15.777
372.00,15.717
373.00,15.724
374.00,15.721
375.00,15.675
376.00,15.626
377.00,15.599
378.00,15.498
379.00,15.399
380.00,15.417
381.00,15.365
382.00,15.360
383.00,15.357
384.00,15.345
385.00,15.333
386.00,15.302
387.00,15.364
388.00,15.395
389.00,15.359
390.00,15.344
391.00,15.335
392.00,15.328
393.00,15.317
394.00,15.299
395.00,15.307
396.00,15.275
397.00,15.277
398.00,15.247
399.00,15.257
400.00,15.238
401.00,15.189
402.00,15.216
403.00,15.219
404.00,15.211
405.00,15.187
406.00,15.190
407.00,15.145
408.00,15.151
409.00,15.090
410.00,15.060
411.00,15.068
412.00,15.055
413.00,15.049
414.00,15.039
415.00,15.028
416.00,15.057
417.00,15.033
418.00,15.052
419.00,15.104
420.00,15.133
421.00,15.126
422.00,15.127
423.00,15.174
424.00,15.199
425.00,15.226
426.00,15.260
427.00,15.296
428.00,15.314
429.00,15.381
430.00,15.390
431.00,15.458
432.00,15.494
433.00,15.540
434.00,15.610
435.00,15.647
436.00,15.731
437.00,15.798
438.00,15.849
439.00,15.907
440.00,15.977
441.00,16.047
442.00,16.142
443.00,16.248
444.00,16.307
445.00,16.360
446.00,16.466
447.00,16.540
448.00,16.661
449.00,16.743
450.00,16.849
451.00,16.905
452.00,17.015
453.00,17.127
454.00,17.234
455.00,17.333
456.00,17.444
457.00,17.554
458.00,17.638
459.00,17.769
460.00,17.919
461.00,18.042
462.00,18.184
463.00,18.315
464.00,18.442
465.00,18.530
466.00,18.679
467.00,18.799
468.00,18.920
469.00,19.049
470.00,19.162
471.00,19.275
472.00,19.406
473.00,19.477
474.00,19.626
475.00,19.757
476.00,19.881
477.00,20.001
478.00,20.129
479.00,20.317
480.00,20.439
481.00,20.576
482.00,20.766
483.00,20.923
484.00,21.063
485.00,21.222
486.00,21.371
487.00,21.518
488.00,21.671
489.00,21.821
490.00,22.001
491.00,22.106
492.00,22.260
493.00,22.457
494.00,22.595
495.00,22.683
496.00,22.852
497.00,22.949
498.00,23.101
499.00,23.238
500.00,23.375
501.00,23.505
502.00,23.676
503.00,23.840
504.00,23.919
505.00,24.088
506.00,24.193
507.00,24.324
508.00,24.456
509.00,24.597
510.00,24.763
511.00,24.855
512.00,25.056
513.00,25.175
514.00,25.289
515.00,25.450
516.00,25.578
517.00,25.681
518.00,25.854
519.00,25.927
520.00,26.014
521.00,26.137
522.00,26.190
523.00,26.268
524.00,26.383
525.00,26.534
526.00,26.671
527.00,26.756
528.00,26.838
529.00,27.001
530.00,27.136
531.00,27.278
532.00,27.328
533.00,27.473
534.00,27.548
535.00,27.641
536.00,27.743
537.00,27.823
538.00,27.910
539.00,28.000
540.00,28.071
541.00,28.153
542.00,28.221
543.00,28.268
544.00,28.378
545.00,28.483
546.00,28.536
547.00,28.660
548.00,28.753
549.00,28.793
550.00,28.881
551.00,28.984
552.00,29.113
553.00,29.107
554.00,29.155
555.00,29.239
556.00,29.315
557.00,29.380
558.00,29.432
559.00,29.529
560.00,29.628
561.00,29.652
562.00,29.785
563.00,29.811
564.00,29.827
565.00,29.859
566.00,29.917
567.00,29.951
568.00,30.039
569.00,30.104
570.00,30.145
571.00,30.228
572.00,30.273
573.00,30.241
574.00,30.358
575.00,30.363
576.00,30.359
577.00,30.451
578.00,30.587
579.00,30.636
580.00,30.647
581.00,30.814
582.00,30.870
583.00,30.858
584.00,31.008
585.00,31.076
586.00,31.090
587.00,31.155
588.00,31.229
589.00,31.171
590.00,31.323
591.00,31.348
592.00,31.324
593.00,31.437
594.00,31.545
595.00,31.523
596.00,31.546
597.00,31.710
598.00,31.772
599.00,31.793
600.00,31.879
601.00,31.950
602.00,31.963
603.00,32.023
604.00,32.037
605.00,32.094
606.00,32.162
607.00,32.193
608.00,32.258
609.00,32.381
610.00,32.523
611.00,32.425
612.00,32.479
613.00,32.532
614.00,32.641
615.00,32.684
616.00,32.801
617.00,32.826
618.00,32.876
619.00,32.988
620.00,33.032
621.00,33.076
622.00,33.083
623.00,33.198
624.00,33.349
625.00,33.444
626.00,33.527
627.00,33.557
628.00,33.625
629.00,33.701
630.00,33.710
631.00,33.786
632.00,33.932
633.00,34.087
634.00,34.162
635.00,34.269
636.00,34.299
637.00,34.428
638.00,34.519
639.00,34.597
640.00,34.696
641.00,34.727
642.00,34.882
643.00,34.937
644.00,35.019
645.00,35.113
646.00,35.286
647.00,35.455
648.00,35.455
649.00,35.481
650.00,35.437
651.00,35.777
652.00,35.982
653.00,35.909
654.00,36.007
655.00,36.203
656.00,36.546
657.00,36.410
658.00,37.144
659.00,36.751
660.00,36.809
661.00,36.801
662.00,36.945
663.00,37.106
664.00,37.394
665.00,37.578
666.00,37.502
667.00,37.580
668.00,37.787
669.00,38.009
670.00,38.233
671.00,38.213
672.00,38.350
673.00,38.439
674.00,38.542
675.00,38.666
676.00,38.893
677.00,39.064
678.00,38.931
679.00,39.257
680.00,39.398
681.00,39.541
682.00,39.563
683.00,39.731
684.00,39.889
685.00,39.968
686.00,39.933
687.00,40.135
688.00,40.378
689.00,40.393
690.00,40.635
691.00,40.871
692.00,40.742
693.00,40.738
694.00,41.009
695.00,41.288
696.00,41.402
697.00,41.413
698.00,41.605
699.00,41.756
700.00,41.886
701.00,41.965
702.00,42.130
703.00,42.332
704.00,42.431
705.00,42.435
706.00,42.612
707.00,42.639
708.00,42.677
709.00,43.063
710.00,43.391
711.00,43.040
712.00,43.067
713.00,43.413
714.00,43.461
715.00,43.553
716.00,43.602
717.00,43.825
718.00,44.059
719.00,43.989
720.00,44.119
721.00,48.432
722.00,48.471
723.00,48.579
724.00,48.562
725.00,48.743
726.00,48.853
727.00,48.876
728.00,48.972
729.00,49.013
730.00,49.077
731.00,49.097
732.00,49.182
733.00,49.334
734.00,49.358
735.00,49.430
736.00,49.540
737.00,49.520
738.00,49.606
739.00,49.662
740.00,49.725
741.00,49.897
742.00,49.949
743.00,49.895
744.00,49.967
745.00,50.013
746.00,50.153
747.00,50.076
748.00,50.177
749.00,50.197
750.00,50.250
751.00,50.317
752.00,50.335
753.00,50.383
754.00,50.406
755.00,50.365
756.00,50.534
757.00,50.588
758.00,50.592
759.00,50.552
760.00,50.680
761.00,50.711
762.00,50.774
763.00,50.771
764.00,50.811
765.00,50.825
766.00,50.950
767.00,50.938
768.00,50.961
769.00,50.980
770.00,51.059
771.00,51.105
772.00,51.218
773.00,51.225
774.00,51.176
775.00,51.256
776.00,51.248
777.00,51.269
778.00,51.306
779.00,51.443
780.00,51.330
781.00,51.352
782.00,51.414
783.00,51.380
784.00,51.451
785.00,51.451
786.00,51.510
787.00,51.481
788.00,51.510
789.00,51.497
790.00,51.553
791.00,51.575
792.00,51.611
793.00,51.552
794.00,51.533
795.00,51.602
796.00,51.553
797.00,51.637
798.00,51.679
799.00,51.624
800.00,51.638
801.00,51.603
802.00,51.609
803.00,51.548
804.00,51.557
805.00,51.659
806.00,51.609
807.00,51.554
808.00,51.655
809.00,51.653
810.00,51.653
811.00,51.651
812.00,51.750
813.00,51.653
814.00,51.663
815.00,51.646
816.00,51.659
817.00,51.649
818.00,51.604
819.00,51.565
820.00,51.571
821.00,51.576
822.00,51.693
823.00,51.545
824.00,51.648
825.00,51.662
826.00,51.556
827.00,51.646
828.00,51.489
829.00,51.596
830.00,51.633
831.00,53.994
832.00,53.958
833.00,53.946
834.00,53.960
835.00,53.945
836.00,53.936
837.00,53.933
838.00,53.907
839.00,53.935
840.00,53.890
841.00,53.904
842.00,53.857
843.00,53.889
844.00,53.865
845.00,53.833
846.00,53.853
847.00,53.836
848.00,53.830
849.00,53.784
850.00,53.760
851.00,53.716
852.00,53.765
853.00,53.685
854.00,53.691
855.00,53.659
856.00,53.654
857.00,53.641
858.00,53.609
859.00,53.599
860.00,53.605
861.00,53.649
862.00,53.572
863.00,53.555
864.00,53.526
865.00,53.585
866.00,53.548
867.00,53.559
868.00,53.522
869.00,53.536
870.00,53.529
871.00,53.533
872.00,53.524
873.00,53.539
874.00,53.545
875.00,53.496
876.00,53.502
877.00,53.494
878.00,53.502
879.00,53.460
880.00,53.460
881.00,53.459
882.00,53.467
883.00,53.457
884.00,53.429
885.00,53.358
886.00,53.452
887.00,53.398
888.00,53.382
889.00,53.373
890.00,53.362
891.00,53.331
892.00,53.306
893.00,53.281
894.00,53.308
895.00,53.276
896.00,53.222
897.00,53.232
898.00,53.188
899.00,53.190
900.00,53.201
901.00,53.177
902.00,53.184
903.00,53.168
904.00,53.153
905.00,53.149
906.00,53.146
907.00,53.085
908.00,53.052
909.00,53.056
910.00,53.032
911.00,53.038
912.00,53.028
913.00,53.013
914.00,53.000
915.00,52.988
916.00,52.966
917.00,52.943
918.00,52.939
919.00,52.902
920.00,52.892
921.00,52.889
922.00,52.858
923.00,52.845
924.00,52.807
925.00,52.849
926.00,52.799
927.00,52.782
928.00,52.760
929.00,52.770
930.00,52.723
931.00,52.718
932.00,52.689
933.00,52.683
934.00,52.696
935.00,52.673
936.00,52.644
937.00,52.645
938.00,52.624
939.00,52.602
940.00,52.545
941.00,52.578
942.00,52.557
943.00,52.551
944.00,52.508
945.00,52.514
946.00,52.513
947.00,52.438
948.00,52.434
949.00,52.418
950.00,52.418
951.00,52.406
952.00,52.355
953.00,52.349
954.00,52.302
955.00,52.247
956.00,52.287
957.00,52.235
958.00,52.241
959.00,52.222
960.00,52.232
961.00,52.183
962.00,52.183
963.00,52.140
964.00,52.144
965.00,52.142
966.00,52.113
967.00,52.137
968.00,52.104
969.00,52.142
970.00,52.151
971.00,52.107
972.00,52.093
973.00,52.125
974.00,52.132
975.00,52.099
976.00,52.129
977.00,52.114
978.00,52.163
979.00,52.127
980.00,52.130
981.00,52.142
982.00,52.096
983.00,52.116
984.00,52.105
985.00,52.112
986.00,52.086
987.00,52.118
988.00,52.065
989.00,52.058
990.00,52.047
991.00,52.025
992.00,52.049
993.00,52.005
994.00,51.990
995.00,51.996
996.00,51.970
997.00,51.965
998.00,51.955
999.00,51.968
1000.00,51.928
1001.00,51.922
1002.00,51.955
1003.00,51.900
1004.00,51.878
1005.00,51.847
1006.00,51.883
1007.00,51.844
1008.00,51.821
1009.00,51.809
1010.00,51.819
1011.00,51.812
1012.00,51.789
1013.00,51.784
1014.00,51.773
1015.00,51.773
1016.00,51.733
1017.00,51.739
1018.00,51.711
1019.00,51.685
1020.00,51.676
1021.00,51.653
1022.00,51.653
1023.00,51.601
1024.00,51.611
1025.00,51.605
1026.00,51.586
1027.00,51.553
1028.00,51.560
1029.00,51.538
1030.00,51.514
1031.00,51.534
1032.00,51.486
1033.00,51.502
1034.00,51.451
1035.00,51.408
1036.00,51.403
1037.00,51.394
1038.00,51.374
1039.00,51.358
1040.00,51.340
1041.00,51.316
1042.00,51.323
1043.00,51.287
1044.00,51.327
1045.00,51.297
1046.00,51.285
1047.00,51.312
1048.00,51.306
1049.00,51.322
1050.00,51.327
1051.00,51.346
1052.00,51.357
1053.00,51.364
1054.00,51.346
1055.00,51.384
1056.00,51.388
1057.00,51.376
1058.00,51.397
1059.00,51.370
1060.00,51.379
1061.00,51.364
1062.00,51.332
1063.00,51.349
1064.00,51.354
1065.00,51.330
1066.00,51.331
1067.00,51.318
1068.00,51.326
1069.00,51.296
1070.00,51.282
1071.00,51.278
1072.00,51.298
1073.00,51.268
1074.00,51.254
1075.00,51.247
1076.00,51.256
1077.00,51.240
1078.00,51.227
1079.00,51.231
1080.00,51.227
1081.00,51.194
1082.00,51.205
1083.00,51.203
1084.00,51.182
1085.00,51.192
1086.00,51.175
1087.00,51.166
1088.00,51.154
1089.00,51.154
1090.00,51.136
1091.00,51.142
1092.00,51.125
1093.00,51.108
1094.00,51.086
1095.00,51.072
1096.00,51.066
1097.00,51.062
1098.00,51.049
1099.00,51.055
1100.00,51.028
1101.00,51.032
1102.00,51.008
1103.00,51.002
1104.00,50.987
1105.00,50.989
1106.00,50.965
1107.00,50.964
1108.00,50.961
1109.00,50.949
1110.00,50.953
1111.00,50.936
1112.00,50.923
1113.00,50.930
1114.00,50.914
1115.00,50.922
1116.00,50.906
1117.00,50.885
1118.00,50.874
1119.00,50.875
1120.00,50.868
1121.00,50.870
1122.00,50.853
1123.00,50.849
1124.00,50.855
1125.00,50.843
1126.00,50.841
1127.00,50.848
1128.00,50.815
1129.00,50.813
1130.00,50.802
1131.00,50.787
1132.00,50.791
1133.00,50.790
1134.00,50.787
1135.00,50.778
1136.00,50.768
1137.00,50.760
1138.00,50.765
1139.00,50.770
1140.00,50.752
1141.00,50.755
1142.00,50.739
1143.00,50.768
1144.00,50.730
1145.00,50.725
1146.00,50.722
1147.00,50.690
1148.00,50.693
1149.00,50.716
1150.00,50.700
1151.00,50.697
1152.00,50.708
1153.00,50.689
1154.00,50.681
1155.00,50.677
1156.00,50.665
1157.00,50.692
1158.00,50.672
1159.00,50.668
1160.00,50.666
1161.00,50.661
1162.00,50.661
1163.00,50.665
1164.00,50.637
1165.00,50.642
1166.00,50.626
1167.00,50.647
1168.00,50.661
1169.00,50.644
1170.00,50.657
1171.00,50.636
1172.00,50.632
1173.00,50.630
1174.00,50.652
1175.00,50.626
1176.00,50.643
1177.00,50.611
1178.00,50.613
1179.00,50.631
1180.00,50.610
1181.00,50.626
1182.00,50.630
1183.00,50.596
1184.00,50.596
1185.00,50.607
1186.00,50.583
1187.00,50.601
1188.00,50.591
1189.00,50.577
1190.00,50.589
1191.00,50.587
1192.00,50.620
1193.00,50.617
1194.00,50.595
1195.00,50.581
1196.00,50.606
1197.00,50.596
1198.00,50.587
1199.00,50.572
1200.00,50.584
1201.00,50.599
1202.00,50.576
1203.00,50.583
1204.00,50.583
1205.00,50.590
1206.00,50.590
1207.00,50.588
1208.00,50.566
1209.00,50.586
1210.00,50.560
1211.00,50.558
1212.00,50.580
1213.00,50.548
1214.00,50.575
1215.00,50.555
1216.00,50.559
1217.00,50.562
1218.00,50.556
1219.00,50.566
1220.00,50.559
1221.00,50.567
1222.00,50.551
1223.00,50.591
1224.00,50.567
1225.00,50.560
1226.00,50.574
1227.00,50.551
1228.00,50.568
1229.00,50.576
1230.00,50.613
1231.00,50.612
1232.00,50.612
1233.00,50.604
1234.00,50.602
1235.00,50.593
1236.00,50.588
1237.00,50.597
1238.00,50.601
1239.00,50.611
1240.00,50.601
1241.00,50.598
1242.00,50.612
1243.00,50.606
1244.00,50.591
1245.00,50.628
1246.00,50.630
1247.00,50.612
1248.00,50.627
1249.00,50.630
1250.00,50.633
1251.00,50.623
1252.00,50.626
1253.00,50.624
1254.00,50.642
1255.00,50.631
1256.00,50.620
1257.00,50.606
1258.00,50.652
1259.00,50.641
1260.00,50.663
1261.00,50.656
1262.00,50.648
1263.00,50.654
1264.00,50.663
1265.00,50.661
1266.00,50.663
1267.00,50.685
1268.00,50.679
1269.00,50.686
1270.00,50.703
1271.00,50.682
1272.00,50.698
1273.00,50.714
1274.00,50.703
1275.00,50.717
1276.00,50.702
1277.00,50.712
1278.00,50.723
1279.00,50.717
1280.00,50.709
1281.00,50.743
1282.00,50.740
1283.00,50.736
1284.00,50.733
1285.00,50.727
1286.00,50.754
1287.00,50.757
1288.00,50.739
1289.00,50.758
1290.00,50.794
1291.00,50.766
1292.00,50.780
1293.00,50.762
1294.00,50.783
1295.00,50.799
1296.00,50.788
1297.00,50.798
1298.00,50.817
1299.00,50.785
1300.00,50.810
1301.00,50.790
1302.00,50.814
1303.00,50.814
1304.00,50.784
1305.00,50.819
1306.00,50.819
1307.00,50.803
1308.00,50.809
1309.00,50.813
1310.00,50.806
1311.00,50.802
1312.00,50.810
1313.00,50.837
1314.00,50.867
1315.00,50.866
1316.00,50.864
1317.00,50.894
1318.00,50.873
1319.00,50.889
1320.00,50.892
1321.00,51.064
1322.00,51.067
1323.00,51.031
1324.00,51.024
1325.00,51.018
1326.00,51.025
1327.00,51.023
1328.00,51.025
1329.00,51.004
1330.00,51.021
1331.00,51.009
1332.00,51.030
1333.00,51.019
1334.00,51.064
1335.00,51.073
1336.00,51.116
1337.00,51.122
1338.00,51.200
1339.00,51.235
1340.00,51.291
1341.00,51.364
1342.00,51.419
1343.00,51.471
1344.00,51.524
1345.00,51.572
1346.00,51.609
1347.00,51.646
1348.00,51.663
1349.00,51.670
1350.00,51.682
1351.00,51.683
1352.00,51.679
1353.00,51.694
1354.00,51.705
1355.00,51.695
1356.00,51.721
1357.00,51.727
1358.00,51.740
1359.00,51.760
1360.00,51.832
1361.00,51.910
1362.00,51.840
1363.00,51.829
1364.00,51.810
1365.00,51.894
1366.00,51.828
1367.00,51.750
1368.00,51.677
1369.00,51.748
1370.00,51.714
1371.00,51.694
1372.00,51.714
1373.00,51.721
1374.00,51.732
1375.00,51.715
1376.00,51.722
1377.00,51.722
1378.00,51.772
1379.00,51.716
1380.00,51.720
1381.00,51.732
1382.00,51.676
1383.00,51.700
1384.00,51.675
1385.00,51.672
1386.00,51.726
1387.00,51.685
1388.00,51.663
1389.00,51.686
1390.00,51.707
1391.00,51.694
1392.00,51.650
1393.00,51.707
1394.00,51.709
1395.00,51.692
1396.00,51.632
1397.00,51.673
1398.00,51.749
1399.00,51.715
1400.00,51.699
1401.00,51.675
1402.00,51.767
1403.00,51.712
1404.00,51.725
1405.00,51.747
1406.00,51.769
1407.00,51.754
1408.00,51.730
1409.00,51.731
1410.00,51.795
1411.00,51.752
1412.00,51.804
1413.00,51.777
1414.00,51.745
1415.00,51.784
1416.00,51.818
1417.00,51.827
1418.00,51.809
1419.00,51.794
1420.00,51.829
1421.00,51.868
1422.00,51.847
1423.00,51.884
1424.00,51.890
1425.00,51.897
1426.00,51.907
1427.00,51.935
1428.00,51.943
1429.00,51.958
1430.00,51.968
1431.00,51.983
1432.00,52.005
1433.00,51.999
1434.00,52.006
1435.00,52.063
1436.00,52.048
1437.00,52.056
1438.00,52.069
1439.00,52.100
1440.00,52.112
1441.00,52.111
1442.00,52.132
1443.00,52.163
1444.00,52.183
1445.00,52.160
1446.00,52.193
1447.00,52.200
1448.00,52.233
1449.00,52.251
1450.00,52.240
1451.00,52.261
1452.00,52.291
1453.00,52.298
1454.00,52.321
1455.00,52.341
1456.00,52.360
1457.00,52.353
1458.00,52.357
1459.00,52.371
1460.00,52.402
1461.00,52.394
1462.00,52.423
1463.00,52.429
1464.00,52.432
1465.00,52.457
1466.00,52.445
1467.00,52.469
1468.00,52.515
1469.00,52.487
1470.00,52.517
1471.00,52.536
1472.00,52.555
1473.00,52.573
1474.00,52.595
1475.00,52.625
1476.00,52.632
1477.00,52.600
1478.00,52.621
1479.00,52.663
1480.00,52.652
1481.00,52.655
1482.00,52.702
1483.00,52.686
1484.00,52.710
1485.00,52.717
1486.00,52.731
1487.00,52.756
1488.00,52.750
1489.00,52.752
1490.00,52.774
1491.00,52.774
1492.00,52.790
1493.00,52.777
1494.00,52.810
1495.00,52.802
1496.00,52.831
1497.00,52.816
1498.00,52.841
1499.00,52.843
1500.00,52.866
1501.00, 
1502.00, 
1503.00, 
1504.00, 
1505.00, 
1506.00, 
1507.00, 
1508.00, 
1509.00, 
1510.00, 
1511.00, 
1512.00, 
1513.00, 
1514.00, 
1515.00, 
1516.00, 
1517.00, 
1518.00, 
1519.00, 
1520.00, 
1521.00, 
1522.00, 
1523.00, 
1524.00, 
1525.00, 
1526.00, 
1527.00, 
1528.00, 
1529.00, 
1530.00, 
1531.00, 
1532.00, 
1533.00, 
1534.00, 
1535.00, 
1536.00, 
1537.00, 
1538.00, 
1539.00, 
1540.00, 
1541.00, 
1542.00, 
1543.00, 
1544.00, 
1545.00, 
1546.00, 
1547.00, 
1548.00, 
1549.00, 
1550.00, 
1551.00, 
1552.00, 
1553.00, 
1554.00, 
1555.00, 
1556.00, 
1557.00, 
1558.00, 
1559.00, 
1560.00, 
1561.00, 
1562.00, 
1563.00, 
1564.00, 
1565.00, 
1566.00, 
1567.00, 
1568.00, 
1569.00, 
1570.00, 
1571.00, 
1572.00, 
1573.00, 
1574.00, 
1575.00, 
1576.00, 
1577.00, 
1578.00, 
1579.00, 
1580.00, 
1581.00, 
1582.00, 
1583.00, 
1584.00, 
1585.00, 
1586.00, 
1587.00, 
1588.00, 
1589.00, 
1590.00, 
1591.00, 
1592.00, 
1593.00, 
1594.00, 
1595.00, 
1596.00, 
1597.00, 
1598.00, 
1599.00, 
1600.00, 
1601.00, 
1602.00, 
1603.00, 
1604.00, 
1605.00, 
1606.00, 
1607.00, 
1608.00, 
1609.00, 
1610.00, 
1611.00, 
1612.00, 
1613.00, 
1614.00, 
1615.00, 
1616.00, 
1617.00, 
1618.00, 
1619.00, 
1620.00, 
1621.00, 
1622.00, 
1623.00, 
1624.00, 
1625.00, 
1626.00, 
1627.00, 
1628.00, 
1629.00, 
1630.00, 
1631.00, 
1632.00, 
1633.00, 
1634.00, 
1635.00, 
1636.00, 
1637.00, 
1638.00, 
1639.00, 
1640.00, 
1641.00, 
1642.00, 
1643.00, 
1644.00, 
1645.00, 
1646.00, 
1647.00, 
1648.00, 
1649.00, 
1650.00, 
1651.00, 
1652.00, 
1653.00, 
1654.00, 
1655.00, 
1656.00, 
1657.00, 
1658.00, 
1659.00, 
1660.00, 
1661.00, 
1662.00, 
1663.00, 
1664.00, 
1665.00, 
1666.00, 
1667.00, 
1668.00, 
1669.00, 
1670.00, 
1671.00, 
1672.00, 
1673.00, 
1674.00, 
1675.00, 
1676.00, 
1677.00, 
1678.00, 
1679.00, 
1680.00, 
1681.00, 
1682.00, 
1683.00, 
1684.00, 
1685.00, 
1686.00, 
1687.00, 
1688.00, 
1689.00, 
1690.00, 
1691.00, 
1692.00, 
1693.00, 
1694.00, 
1695.00, 
1696.00, 
1697.00, 
1698.00, 
1699.00, 
1700.00, 
1701.00, 
1702.00, 
1703.00, 
1704.00, 
1705.00, 
1706.00, 
1707.00, 
1708.00, 
1709.00, 
1710.00, 
1711.00, 
1712.00, 
1713.00, 
1714.00, 
1715.00, 
1716.00, 
1717.00, 
1718.00, 
1719.00, 
1720.00, 
1721.00, 
1722.00, 
1723.00, 
1724.00, 
1725.00, 
1726.00, 
1727.00, 
1728.00, 
1729.00, 
1730.00, 
1731.00, 
1732.00, 
1733.00, 
1734.00, 
1735.00, 
1736.00, 
1737.00, 
1738.00, 
1739.00, 
1740.00, 
1741.00, 
1742.00, 
1743.00, 
1744.00, 
1745.00, 
1746.00, 
1747.00, 
1748.00, 
1749.00, 
1750.00, 
1751.00, 
1752.00, 
1753.00, 
1754.00, 
1755.00, 
1756.00, 
1757.00, 
1758.00, 
1759.00, 
1760.00, 
1761.00, 
1762.00, 
1763.00, 
1764.00, 
1765.00, 
1766.00, 
1767.00, 
1768.00, 
1769.00, 
1770.00, 
1771.00, 
1772.00, 
1773.00, 
1774.00, 
1775.00, 
1776.00, 
1777.00, 
1778.00, 
1779.00, 
1780.00, 
1781.00, 
1782.00, 
1783.00, 
1784.00, 
1785.00, 
1786.00, 
1787.00, 
1788.00, 
1789.00, 
1790.00, 
1791.00, 
1792.00, 
1793.00, 
1794.00, 
1795.00, 
1796.00, 
1797.00, 
1798.00, 
1799.00, 
1800.00, 
1801.00, 
1802.00, 
1803.00, 
1804.00, 
1805.00, 
1806.00, 
1807.00, 
1808.00, 
1809.00, 
1810.00, 
1811.00, 
1812.00, 
1813.00, 
1814.00, 
1815.00, 
1816.00, 
1817.00, 
1818.00, 
1819.00, 
1820.00, 
1821.00, 
1822.00, 
1823.00, 
1824.00, 
1825.00, 
1826.00, 
1827.00, 
1828.00, 
1829.00, 
1830.00, 
1831.00, 
1832.00, 
1833.00, 
1834.00, 
1835.00, 
1836.00, 
1837.00, 
1838.00, 
1839.00, 
1840.00, 
1841.00, 
1842.00, 
1843.00, 
1844.00, 
1845.00, 
1846.00, 
1847.00, 
1848.00, 
1849.00, 
1850.00, 
1851.00, 
1852.00, 
1853.00, 
1854.00, 
1855.00, 
1856.00, 
1857.00, 
1858.00, 
1859.00, 
1860.00, 
1861.00, 
1862.00, 
1863.00, 
1864.00, 
1865.00, 
1866.00, 
1867.00, 
1868.00, 
1869.00, 
1870.00, 
1871.00, 
1872.00, 
1873.00, 
1874.00, 
1875.00, 
1876.00, 
1877.00, 
1878.00, 
1879.00, 
1880.00, 
1881.00, 
1882.00, 
1883.00, 
1884.00, 
1885.00, 
1886.00, 
1887.00, 
1888.00, 
1889.00, 
1890.00, 
1891.00, 
1892.00, 
1893.00, 
1894.00, 
1895.00, 
1896.00, 
1897.00, 
1898.00, 
1899.00, 
1900.00, 
1901.00, 
1902.00, 
1903.00, 
1904.00, 
1905.00, 
1906.00, 
1907.00, 
1908.00, 
1909.00, 
1910.00, 
1911.00, 
1912.00, 
1913.00, 
1914.00, 
1915.00, 
1916.00, 
1917.00, 
1918.00, 
1919.00, 
1920.00, 
1921.00, 
1922.00, 
1923.00, 
1924.00, 
1925.00, 
1926.00, 
1927.00, 
1928.00, 
1929.00, 
1930.00, 
1931.00, 
1932.00, 
1933.00, 
1934.00, 
1935.00, 
1936.00, 
1937.00, 
1938.00, 
1939.00, 
1940.00, 
1941.00, 
1942.00, 
1943.00, 
1944.00, 
1945.00, 
1946.00, 
1947.00, 
1948.00, 
1949.00, 
1950.00, 
1951.00, 
1952.00, 
1953.00, 
1954.00, 
1955.00, 
1956.00, 
1957.00, 
1958.00, 
1959.00, 
1960.00, 
1961.00, 
1962.00, 
1963.00, 
1964.00, 
1965.00, 
1966.00, 
1967.00, 
1968.00, 
1969.00, 
1970.00, 
1971.00, 
1972.00, 
1973.00, 
1974.00, 
1975.00, 
1976.00, 
1977.00, 
1978.00, 
1979.00, 
1980.00, 
1981.00, 
1982.00, 
1983.00, 
1984.00, 
1985.00, 
1986.00, 
1987.00, 
1988.00, 
1989.00, 
1990.00, 
1991.00, 
1992.00, 
1993.00, 
1994.00, 
1995.00, 
1996.00, 
1997.00, 
1998.00, 
1999.00, 
2000.00, 
2001.00, 
2002.00, 
2003.00, 
2004.00, 
2005.00, 
2006.00, 
2007.00, 
2008.00, 
2009.00, 
2010.00, 
2011.00, 
2012.00, 
2013.00, 
2014.00, 
2015.00, 
2016.00, 
2017.00, 
2018.00, 
2019.00, 
2020.00, 
2021.00, 
2022.00, 
2023.00, 
2024.00, 
2025.00, 
2026.00, 
2027.00, 
2028.00, 
2029.00, 
2030.00, 
2031.00, 
2032.00, 
2033.00, 
2034.00, 
2035.00, 
2036.00, 
2037.00, 
2038.00, 
2039.00, 
2040.00, 
2041.00, 
2042.00, 
2043.00, 
2044.00, 
2045.00, 
2046.00, 
2047.00, 
2048.00, 
2049.00, 
2050.00, 
2051.00, 
2052.00, 
2053.00, 
2054.00, 
2055.00, 
2056.00, 
2057.00, 
2058.00, 
2059.00, 
2060.00, 
2061.00, 
2062.00, 
2063.00, 
2064.00, 
2065.00, 
2066.00, 
2067.00, 
2068.00, 
2069.00, 
2070.00, 
2071.00, 
2072.00, 
2073.00, 
2074.00, 
2075.00, 
2076.00, 
2077.00, 
2078.00, 
2079.00, 
2080.00, 
2081.00, 
2082.00, 
2083.00, 
2084.00, 
2085.00, 
2086.00, 
2087.00, 
2088.00, 
2089.00, 
2090.00, 
2091.00, 
2092.00, 
2093.00, 
2094.00, 
2095.00, 
2096.00, 
2097.00, 
2098.00, 
2099.00, 
2100.00, 
2101.00, 
2102.00, 
2103.00, 
2104.00, 
2105.00, 
2106.00, 
2107.00, 
2108.00, 
2109.00, 
2110.00, 
2111.00, 
2112.00, 
2113.00, 
2114.00, 
2115.00, 
2116.00, 
2117.00, 
2118.00, 
2119.00, 
2120.00, 
2121.00, 
2122.00, 
2123.00, 
2124.00, 
2125.00, 
2126.00, 
2127.00, 
2128.00, 
2129.00, 
2130.00, 
2131.00, 
2132.00, 
2133.00, 
2134.00, 
2135.00, 
2136.00, 
2137.00, 
2138.00, 
2139.00, 
2140.00, 
2141.00, 
2142.00, 
2143.00, 
2144.00, 
2145.00, 
2146.00, 
2147.00, 
2148.00, 
2149.00, 
2150.00, 
2151.00, 
2152.00, 
2153.00, 
2154.00, 
2155.00, 
2156.00, 
2157.00, 
2158.00, 
2159.00, 
2160.00, 
2161.00, 
2162.00, 
2163.00, 
2164.00, 
2165.00, 
2166.00, 
2167.00, 
2168.00, 
2169.00, 
2170.00, 
2171.00, 
2172.00, 
2173.00, 
2174.00, 
2175.00, 
2176.00, 
2177.00, 
2178.00, 
2179.00, 
2180.00, 
2181.00, 
2182.00, 
2183.00, 
2184.00, 
2185.00, 
2186.00, 
2187.00, 
2188.00, 
2189.00, 
2190.00, 
2191.00, 
2192.00, 
2193.00, 
2194.00, 
2195.00, 
2196.00, 
2197.00, 
2198.00, 
2199.00, 
2200.00, 
2201.00, 
2202.00, 
2203.00, 
2204.00, 
2205.00, 
2206.00, 
2207.00, 
2208.00, 
2209.00, 
2210.00, 
2211.00, 
2212.00, 
2213.00, 
2214.00, 
2215.00, 
2216.00, 
2217.00, 
2218.00, 
2219.00, 
2220.00, 
2221.00, 
2222.00, 
2223.00, 
2224.00, 
2225.00, 
2226.00, 
2227.00, 
2228.00, 
2229.00, 
2230.00, 
2231.00, 
2232.00, 
2233.00, 
2234.00, 
2235.00, 
2236.00, 
2237.00, 
2238.00, 
2239.00, 
2240.00, 
2241.00, 
2242.00, 
2243.00, 
2244.00, 
2245.00, 
2246.00, 
2247.00, 
2248.00, 
2249.00, 
2250.00, 
2251.00, 
2252.00, 
2253.00, 
2254.00, 
2255.00, 
2256.00, 
2257.00, 
2258.00, 
2259.00, 
2260.00, 
2261.00, 
2262.00, 
2263.00, 
2264.00, 
2265.00, 
2266.00, 
2267.00, 
2268.00, 
2269.00, 
2270.00, 
2271.00, 
2272.00, 
2273.00, 
2274.00, 
2275.00, 
2276.00, 
2277.00, 
2278.00, 
2279.00, 
2280.00, 
2281.00, 
2282.00, 
2283.00, 
2284.00, 
2285.00, 
2286.00, 
2287.00, 
2288.00, 
2289.00, 
2290.00, 
2291.00, 
2292.00, 
2293.00, 
2294.00, 
2295.00, 
2296.00, 
2297.00, 
2298.00, 
2299.00, 
2300.00, 
2301.00, 
2302.00, 
2303.00, 
2304.00, 
2305.00, 
2306.00, 
2307.00, 
2308.00, 
2309.00, 
2310.00, 
2311.00, 
2312.00, 
2313.00, 
2314.00, 
2315.00, 
2316.00, 
2317.00, 
2318.00, 
2319.00, 
2320.00, 
2321.00, 
2322.00, 
2323.00, 
2324.00, 
2325.00, 
2326.00, 
2327.00, 
2328.00, 
2329.00, 
2330.00, 
2331.00, 
2332.00, 
2333.00, 
2334.00, 
2335.00, 
2336.00, 
2337.00, 
2338.00, 
2339.00, 
2340.00, 
2341.00, 
2342.00, 
2343.00, 
2344.00, 
2345.00, 
2346.00, 
2347.00, 
2348.00, 
2349.00, 
2350.00, 
2351.00, 
2352.00, 
2353.00, 
2354.00, 
2355.00, 
2356.00, 
2357.00, 
2358.00, 
2359.00, 
2360.00, 
2361.00, 
2362.00, 
2363.00, 
2364.00, 
2365.00, 
2366.00, 
2367.00, 
2368.00, 
2369.00, 
2370.00, 
2371.00, 
2372.00, 
2373.00, 
2374.00, 
2375.00, 
2376.00, 
2377.00, 
2378.00, 
2379.00, 
2380.00, 
2381.00, 
2382.00, 
2383.00, 
2384.00, 
2385.00, 
2386.00, 
2387.00, 
2388.00, 
2389.00, 
2390.00, 
2391.00, 
2392.00, 
2393.00, 
2394.00, 
2395.00, 
2396.00, 
2397.00, 
2398.00, 
2399.00, 
2400.00, 
2401.00, 
2402.00, 
2403.00, 
2404.00, 
2405.00, 
2406.00, 
2407.00, 
2408.00, 
2409.00, 
2410.00, 
2411.00, 
2412.00, 
2413.00, 
2414.00, 
2415.00, 
2416.00, 
2417.00, 
2418.00, 
2419.00, 
2420.00, 
2421.00, 
2422.00, 
2423.00, 
2424.00, 
2425.00, 
2426.00, 
2427.00, 
2428.00, 
2429.00, 
2430.00, 
2431.00, 
2432.00, 
2433.00, 
2434.00, 
2435.00, 
2436.00, 
2437.00, 
2438.00, 
2439.00, 
2440.00, 
2441.00, 
2442.00, 
2443.00, 
2444.00, 
2445.00, 
2446.00, 
2447.00, 
2448.00, 
2449.00, 
2450.00, 
2451.00, 
2452.00, 
2453.00, 
2454.00, 
2455.00, 
2456.00, 
2457.00, 
2458.00, 
2459.00, 
2460.00, 
2461.00, 
2462.00, 
2463.00, 
2464.00, 
2465.00, 
2466.00, 
2467.00, 
2468.00, 
2469.00, 
2470.00, 
2471.00, 
2472.00, 
2473.00, 
2474.00, 
2475.00, 
2476.00, 
2477.00, 
2478.00, 
2479.00, 
2480.00, 
2481.00, 
2482.00, 
2483.00, 
2484.00, 
2485.00, 
2486.00, 
2487.00, 
2488.00, 
2489.00, 
2490.00, 
2491.00, 
2492.00, 
2493.00, 
2494.00, 
2495.00, 
2496.00, 
2497.00, 
2498.00, 
2499.00, 
2500.00, 
2501.00, 
2502.00, 
2503.00, 
2504.00, 
2505.00, 
2506.00, 
2507.00, 
2508.00, 
2509.00, 
2510.00, 
2511.00, 
2512.00, 
2513.00, 
2514.00, 
2515.00, 
2516.00, 
2517.00, 
2518.00, 
2519.00, 
2520.00, 
2521.00, 
2522.00, 
2523.00, 
2524.00, 
2525.00, 
2526.00, 
2527.00, 
2528.00, 
2529.00, 
2530.00, 
2531.00, 
2532.00, 
2533.00, 
2534.00, 
2535.00, 
2536.00, 
2537.00, 
2538.00, 
2539.00, 
2540.00, 
2541.00, 
2542.00, 
2543.00, 
2544.00, 
2545.00, 
2546.00, 
2547.00, 
2548.00, 
2549.00, 
2550.00, 
2551.00, 
2552.00, 
2553.00, 
2554.00, 
2555.00, 
2556.00, 
2557.00, 
2558.00, 
2559.00, 
2560.00, 
2561.00, 
2562.00, 
2563.00, 
2564.00, 
2565.00, 
2566.00, 
2567.00, 
2568.00, 
2569.00, 
2570.00, 
2571.00, 
2572.00, 
2573.00, 
2574.00, 
2575.00, 
2576.00, 
2577.00, 
2578.00, 
2579.00, 
2580.00, 
2581.00, 
2582.00, 
2583.00, 
2584.00, 
2585.00, 
2586.00, 
2587.00, 
2588.00, 
2589.00, 
2590.00, 
2591.00, 
2592.00, 
2593.00, 
2594.00, 
2595.00, 
2596.00, 
2597.00, 
2598.00, 
2599.00, 
2600.00, 
