"2cP2 - RawData"
"Wavelength nm.","T%"
200.00,0.001
201.00,-0.000
202.00,0.000
203.00,0.003
204.00,0.003
205.00,0.001
206.00,0.000
207.00,0.002
208.00,0.000
209.00,0.004
210.00,0.002
211.00,0.001
212.00,0.001
213.00,0.003
214.00,-0.001
215.00,0.001
216.00,0.003
217.00,-0.001
218.00,0.001
219.00,0.001
220.00,0.002
221.00,0.000
222.00,-0.001
223.00,-0.000
224.00,-0.000
225.00,-0.001
226.00,-0.000
227.00,0.003
228.00,-0.000
229.00,0.003
230.00,-0.001
231.00,0.001
232.00,0.000
233.00,0.003
234.00,-0.001
235.00,0.002
236.00,-0.002
237.00,-0.001
238.00,0.000
239.00,0.001
240.00,0.001
241.00,-0.000
242.00,0.002
243.00,0.001
244.00,0.001
245.00,0.001
246.00,0.001
247.00,0.001
248.00,0.000
249.00,-0.001
250.00,0.001
251.00,0.002
252.00,0.002
253.00,-0.000
254.00,-0.000
255.00,-0.001
256.00,0.002
257.00,0.001
258.00,-0.000
259.00,0.002
260.00,0.001
261.00,-0.001
262.00,-0.001
263.00,0.001
264.00,-0.001
265.00,0.001
266.00,-0.000
267.00,-0.000
268.00,-0.000
269.00,-0.001
270.00,-0.001
271.00,0.001
272.00,0.000
273.00,-0.000
274.00,-0.001
275.00,0.000
276.00,-0.002
277.00,0.001
278.00,0.001
279.00,-0.001
280.00,0.000
281.00,0.001
282.00,-0.001
283.00,0.000
284.00,0.001
285.00,0.001
286.00,-0.001
287.00,-0.001
288.00,-0.000
289.00,-0.001
290.00,0.001
291.00,0.002
292.00,-0.001
293.00,0.002
294.00,0.001
295.00,0.000
296.00,-0.001
297.00,0.000
298.00,-0.000
299.00,0.003
300.00,0.003
301.00,0.004
302.00,0.007
303.00,0.011
304.00,0.013
305.00,0.020
306.00,0.036
307.00,0.053
308.00,0.081
309.00,0.126
310.00,0.173
311.00,0.234
312.00,0.321
313.00,0.444
314.00,0.590
315.00,0.763
316.00,0.967
317.00,1.217
318.00,1.510
319.00,1.861
320.00,2.262
321.00,2.719
322.00,3.235
323.00,3.816
324.00,4.438
325.00,5.033
326.00,5.687
327.00,6.451
328.00,7.190
329.00,7.983
330.00,8.809
331.00,9.671
332.00,10.498
333.00,11.401
334.00,12.278
335.00,13.116
336.00,14.013
337.00,14.879
338.00,15.743
339.00,16.547
340.00,17.380
341.00,18.190
342.00,18.928
343.00,19.667
344.00,20.363
345.00,21.024
346.00,21.673
347.00,22.280
348.00,22.867
349.00,23.434
350.00,23.925
351.00,24.407
352.00,24.784
353.00,25.270
354.00,25.735
355.00,26.077
356.00,26.445
357.00,26.803
358.00,27.046
359.00,27.370
360.00,27.664
361.00,27.882
362.00,28.127
363.00,28.353
364.00,28.582
365.00,28.720
366.00,28.923
367.00,29.042
368.00,29.125
369.00,29.203
370.00,29.291
371.00,29.350
372.00,29.370
373.00,29.431
374.00,29.428
375.00,29.471
376.00,29.413
377.00,29.401
378.00,29.329
379.00,29.304
380.00,29.284
381.00,29.308
382.00,29.304
383.00,29.308
384.00,29.367
385.00,29.400
386.00,29.432
387.00,29.496
388.00,29.562
389.00,29.632
390.00,29.645
391.00,29.694
392.00,29.704
393.00,29.725
394.00,29.737
395.00,29.754
396.00,29.793
397.00,29.859
398.00,29.823
399.00,29.830
400.00,29.833
401.00,29.796
402.00,29.837
403.00,29.879
404.00,29.895
405.00,29.876
406.00,29.890
407.00,29.841
408.00,29.826
409.00,29.746
410.00,29.663
411.00,29.679
412.00,29.626
413.00,29.603
414.00,29.590
415.00,29.599
416.00,29.605
417.00,29.576
418.00,29.598
419.00,29.599
420.00,29.654
421.00,29.667
422.00,29.645
423.00,29.681
424.00,29.716
425.00,29.747
426.00,29.771
427.00,29.764
428.00,29.780
429.00,29.856
430.00,29.819
431.00,29.888
432.00,29.906
433.00,29.953
434.00,30.019
435.00,30.017
436.00,30.083
437.00,30.136
438.00,30.187
439.00,30.235
440.00,30.306
441.00,30.383
442.00,30.447
443.00,30.548
444.00,30.572
445.00,30.577
446.00,30.717
447.00,30.651
448.00,30.861
449.00,30.922
450.00,30.992
451.00,31.054
452.00,31.213
453.00,31.217
454.00,31.375
455.00,31.432
456.00,31.456
457.00,31.619
458.00,31.708
459.00,31.793
460.00,31.935
461.00,31.989
462.00,32.117
463.00,32.243
464.00,32.378
465.00,32.409
466.00,32.519
467.00,32.622
468.00,32.700
469.00,32.828
470.00,32.914
471.00,32.984
472.00,33.082
473.00,33.107
474.00,33.211
475.00,33.290
476.00,33.324
477.00,33.443
478.00,33.593
479.00,33.728
480.00,33.844
481.00,34.006
482.00,34.087
483.00,34.231
484.00,34.396
485.00,34.480
486.00,34.616
487.00,34.633
488.00,34.884
489.00,35.007
490.00,35.090
491.00,35.226
492.00,35.337
493.00,35.518
494.00,35.581
495.00,35.637
496.00,35.781
497.00,35.853
498.00,36.001
499.00,36.136
500.00,36.144
501.00,36.260
502.00,36.426
503.00,36.502
504.00,36.603
505.00,36.726
506.00,36.824
507.00,36.887
508.00,36.981
509.00,37.111
510.00,37.233
511.00,37.309
512.00,37.444
513.00,37.557
514.00,37.665
515.00,37.758
516.00,37.863
517.00,37.978
518.00,38.119
519.00,38.176
520.00,38.205
521.00,38.290
522.00,38.296
523.00,38.373
524.00,38.431
525.00,38.550
526.00,38.645
527.00,38.728
528.00,38.765
529.00,38.878
530.00,38.987
531.00,39.161
532.00,39.257
533.00,39.326
534.00,39.425
535.00,39.478
536.00,39.566
537.00,39.597
538.00,39.675
539.00,39.733
540.00,39.768
541.00,39.795
542.00,39.847
543.00,39.934
544.00,40.010
545.00,40.052
546.00,40.119
547.00,40.206
548.00,40.292
549.00,40.345
550.00,40.424
551.00,40.470
552.00,40.545
553.00,40.651
554.00,40.666
555.00,40.713
556.00,40.749
557.00,40.759
558.00,40.905
559.00,40.968
560.00,41.015
561.00,41.060
562.00,41.075
563.00,41.005
564.00,41.181
565.00,41.255
566.00,41.190
567.00,41.317
568.00,41.338
569.00,41.341
570.00,41.366
571.00,41.438
572.00,41.485
573.00,41.474
574.00,41.596
575.00,41.587
576.00,41.557
577.00,41.615
578.00,41.644
579.00,41.850
580.00,41.924
581.00,41.990
582.00,42.087
583.00,42.090
584.00,42.223
585.00,42.222
586.00,42.294
587.00,42.349
588.00,42.340
589.00,42.362
590.00,42.458
591.00,42.451
592.00,42.457
593.00,42.568
594.00,42.571
595.00,42.591
596.00,42.684
597.00,42.735
598.00,42.833
599.00,42.845
600.00,42.942
601.00,42.952
602.00,42.955
603.00,42.970
604.00,42.993
605.00,42.975
606.00,43.060
607.00,43.075
608.00,43.091
609.00,43.181
610.00,43.205
611.00,43.123
612.00,43.186
613.00,43.290
614.00,43.191
615.00,43.232
616.00,43.452
617.00,43.478
618.00,43.338
619.00,43.429
620.00,43.715
621.00,43.605
622.00,43.659
623.00,43.677
624.00,43.739
625.00,43.835
626.00,43.842
627.00,43.896
628.00,43.874
629.00,43.897
630.00,43.936
631.00,43.989
632.00,44.055
633.00,44.125
634.00,44.137
635.00,44.173
636.00,44.288
637.00,44.412
638.00,44.418
639.00,44.442
640.00,44.424
641.00,44.490
642.00,44.584
643.00,44.542
644.00,44.687
645.00,44.648
646.00,44.850
647.00,44.871
648.00,44.830
649.00,44.956
650.00,44.947
651.00,45.014
652.00,45.066
653.00,45.107
654.00,45.165
655.00,45.133
656.00,45.387
657.00,45.365
658.00,46.154
659.00,45.542
660.00,45.537
661.00,45.347
662.00,45.626
663.00,45.716
664.00,45.851
665.00,45.842
666.00,45.912
667.00,46.058
668.00,46.072
669.00,46.226
670.00,46.246
671.00,46.232
672.00,46.307
673.00,46.376
674.00,46.322
675.00,46.494
676.00,46.600
677.00,46.586
678.00,46.396
679.00,46.873
680.00,46.693
681.00,46.803
682.00,46.863
683.00,46.931
684.00,47.044
685.00,46.974
686.00,47.052
687.00,47.126
688.00,47.213
689.00,47.123
690.00,47.293
691.00,47.410
692.00,47.252
693.00,47.305
694.00,47.434
695.00,47.495
696.00,47.600
697.00,47.646
698.00,47.661
699.00,47.594
700.00,47.711
701.00,48.036
702.00,47.947
703.00,48.030
704.00,48.077
705.00,48.053
706.00,48.132
707.00,48.200
708.00,48.135
709.00,48.296
710.00,48.433
711.00,48.290
712.00,48.215
713.00,48.377
714.00,48.317
715.00,48.405
716.00,48.495
717.00,48.497
718.00,48.608
719.00,48.565
720.00,48.668
721.00,52.976
722.00,52.950
723.00,53.007
724.00,52.903
725.00,52.972
726.00,52.985
727.00,52.992
728.00,52.898
729.00,52.862
730.00,52.880
731.00,52.836
732.00,52.838
733.00,52.975
734.00,52.935
735.00,52.920
736.00,52.954
737.00,52.911
738.00,52.962
739.00,52.972
740.00,52.938
741.00,53.016
742.00,52.888
743.00,52.873
744.00,52.885
745.00,52.890
746.00,52.888
747.00,52.783
748.00,52.826
749.00,52.753
750.00,52.801
751.00,52.745
752.00,52.767
753.00,52.699
754.00,52.684
755.00,52.664
756.00,52.666
757.00,52.729
758.00,52.689
759.00,52.657
760.00,52.682
761.00,52.701
762.00,52.699
763.00,52.628
764.00,52.631
765.00,52.628
766.00,52.655
767.00,52.546
768.00,52.556
769.00,52.560
770.00,52.641
771.00,52.606
772.00,52.660
773.00,52.625
774.00,52.581
775.00,52.553
776.00,52.525
777.00,52.546
778.00,52.559
779.00,52.566
780.00,52.469
781.00,52.494
782.00,52.518
783.00,52.460
784.00,52.570
785.00,52.399
786.00,52.441
787.00,52.460
788.00,52.391
789.00,52.335
790.00,52.331
791.00,52.260
792.00,52.282
793.00,52.292
794.00,52.230
795.00,52.219
796.00,52.189
797.00,52.301
798.00,52.210
799.00,52.196
800.00,52.196
801.00,52.095
802.00,52.093
803.00,52.059
804.00,52.028
805.00,52.057
806.00,51.982
807.00,51.947
808.00,51.958
809.00,51.898
810.00,51.965
811.00,51.953
812.00,51.941
813.00,51.843
814.00,51.866
815.00,51.763
816.00,51.852
817.00,51.865
818.00,51.693
819.00,51.673
820.00,51.628
821.00,51.625
822.00,51.668
823.00,51.580
824.00,51.643
825.00,51.614
826.00,51.583
827.00,51.678
828.00,51.455
829.00,51.447
830.00,51.505
831.00,54.066
832.00,54.015
833.00,53.984
834.00,53.969
835.00,53.948
836.00,53.928
837.00,53.906
838.00,53.878
839.00,53.877
840.00,53.814
841.00,53.827
842.00,53.758
843.00,53.776
844.00,53.764
845.00,53.691
846.00,53.696
847.00,53.644
848.00,53.677
849.00,53.555
850.00,53.613
851.00,53.467
852.00,53.478
853.00,53.420
854.00,53.404
855.00,53.365
856.00,53.347
857.00,53.374
858.00,53.317
859.00,53.287
860.00,53.256
861.00,53.246
862.00,53.206
863.00,53.189
864.00,53.167
865.00,53.168
866.00,53.141
867.00,53.101
868.00,53.097
869.00,53.092
870.00,53.081
871.00,53.078
872.00,53.096
873.00,53.062
874.00,53.056
875.00,53.024
876.00,53.008
877.00,52.997
878.00,52.991
879.00,52.950
880.00,52.937
881.00,52.917
882.00,52.953
883.00,52.875
884.00,52.831
885.00,52.832
886.00,52.830
887.00,52.792
888.00,52.735
889.00,52.747
890.00,52.723
891.00,52.694
892.00,52.681
893.00,52.637
894.00,52.642
895.00,52.615
896.00,52.572
897.00,52.560
898.00,52.532
899.00,52.503
900.00,52.529
901.00,52.509
902.00,52.507
903.00,52.480
904.00,52.456
905.00,52.448
906.00,52.421
907.00,52.379
908.00,52.348
909.00,52.331
910.00,52.295
911.00,52.319
912.00,52.302
913.00,52.269
914.00,52.248
915.00,52.220
916.00,52.199
917.00,52.178
918.00,52.174
919.00,52.083
920.00,52.135
921.00,52.085
922.00,52.068
923.00,52.057
924.00,52.020
925.00,52.011
926.00,51.990
927.00,51.958
928.00,51.951
929.00,51.950
930.00,51.897
931.00,51.883
932.00,51.859
933.00,51.849
934.00,51.852
935.00,51.821
936.00,51.805
937.00,51.795
938.00,51.756
939.00,51.753
940.00,51.729
941.00,51.698
942.00,51.674
943.00,51.678
944.00,51.634
945.00,51.619
946.00,51.623
947.00,51.581
948.00,51.563
949.00,51.534
950.00,51.513
951.00,51.489
952.00,51.449
953.00,51.448
954.00,51.414
955.00,51.376
956.00,51.370
957.00,51.329
958.00,51.336
959.00,51.307
960.00,51.318
961.00,51.271
962.00,51.271
963.00,51.214
964.00,51.215
965.00,51.206
966.00,51.182
967.00,51.196
968.00,51.164
969.00,51.177
970.00,51.156
971.00,51.157
972.00,51.140
973.00,51.159
974.00,51.165
975.00,51.149
976.00,51.164
977.00,51.141
978.00,51.164
979.00,51.143
980.00,51.161
981.00,51.176
982.00,51.100
983.00,51.142
984.00,51.136
985.00,51.143
986.00,51.116
987.00,51.133
988.00,51.090
989.00,51.077
990.00,51.069
991.00,51.042
992.00,51.059
993.00,51.019
994.00,51.001
995.00,51.003
996.00,50.989
997.00,50.985
998.00,50.969
999.00,50.976
1000.00,50.935
1001.00,50.927
1002.00,50.917
1003.00,50.911
1004.00,50.882
1005.00,50.865
1006.00,50.884
1007.00,50.849
1008.00,50.832
1009.00,50.839
1010.00,50.811
1011.00,50.807
1012.00,50.812
1013.00,50.775
1014.00,50.745
1015.00,50.744
1016.00,50.713
1017.00,50.716
1018.00,50.677
1019.00,50.659
1020.00,50.663
1021.00,50.627
1022.00,50.626
1023.00,50.577
1024.00,50.575
1025.00,50.568
1026.00,50.557
1027.00,50.534
1028.00,50.531
1029.00,50.519
1030.00,50.485
1031.00,50.494
1032.00,50.446
1033.00,50.451
1034.00,50.411
1035.00,50.371
1036.00,50.349
1037.00,50.344
1038.00,50.321
1039.00,50.315
1040.00,50.297
1041.00,50.274
1042.00,50.272
1043.00,50.224
1044.00,50.261
1045.00,50.241
1046.00,50.234
1047.00,50.251
1048.00,50.252
1049.00,50.271
1050.00,50.283
1051.00,50.288
1052.00,50.309
1053.00,50.318
1054.00,50.312
1055.00,50.332
1056.00,50.341
1057.00,50.347
1058.00,50.326
1059.00,50.321
1060.00,50.320
1061.00,50.318
1062.00,50.271
1063.00,50.297
1064.00,50.293
1065.00,50.271
1066.00,50.265
1067.00,50.262
1068.00,50.267
1069.00,50.244
1070.00,50.230
1071.00,50.212
1072.00,50.222
1073.00,50.177
1074.00,50.177
1075.00,50.177
1076.00,50.159
1077.00,50.154
1078.00,50.145
1079.00,50.125
1080.00,50.140
1081.00,50.102
1082.00,50.108
1083.00,50.104
1084.00,50.085
1085.00,50.089
1086.00,50.085
1087.00,50.073
1088.00,50.065
1089.00,50.045
1090.00,50.035
1091.00,50.032
1092.00,50.023
1093.00,49.998
1094.00,49.991
1095.00,49.970
1096.00,49.972
1097.00,49.954
1098.00,49.948
1099.00,49.945
1100.00,49.929
1101.00,49.919
1102.00,49.911
1103.00,49.919
1104.00,49.898
1105.00,49.891
1106.00,49.877
1107.00,49.866
1108.00,49.870
1109.00,49.847
1110.00,49.852
1111.00,49.838
1112.00,49.823
1113.00,49.819
1114.00,49.818
1115.00,49.816
1116.00,49.799
1117.00,49.777
1118.00,49.786
1119.00,49.770
1120.00,49.762
1121.00,49.748
1122.00,49.739
1123.00,49.729
1124.00,49.741
1125.00,49.729
1126.00,49.724
1127.00,49.731
1128.00,49.699
1129.00,49.692
1130.00,49.688
1131.00,49.652
1132.00,49.655
1133.00,49.665
1134.00,49.673
1135.00,49.638
1136.00,49.640
1137.00,49.631
1138.00,49.645
1139.00,49.641
1140.00,49.627
1141.00,49.620
1142.00,49.614
1143.00,49.635
1144.00,49.611
1145.00,49.603
1146.00,49.603
1147.00,49.584
1148.00,49.583
1149.00,49.599
1150.00,49.560
1151.00,49.560
1152.00,49.565
1153.00,49.554
1154.00,49.562
1155.00,49.566
1156.00,49.547
1157.00,49.567
1158.00,49.551
1159.00,49.541
1160.00,49.550
1161.00,49.535
1162.00,49.536
1163.00,49.550
1164.00,49.533
1165.00,49.533
1166.00,49.528
1167.00,49.529
1168.00,49.535
1169.00,49.527
1170.00,49.522
1171.00,49.518
1172.00,49.508
1173.00,49.502
1174.00,49.522
1175.00,49.495
1176.00,49.510
1177.00,49.489
1178.00,49.480
1179.00,49.505
1180.00,49.487
1181.00,49.493
1182.00,49.505
1183.00,49.470
1184.00,49.457
1185.00,49.480
1186.00,49.458
1187.00,49.472
1188.00,49.459
1189.00,49.452
1190.00,49.456
1191.00,49.444
1192.00,49.458
1193.00,49.457
1194.00,49.447
1195.00,49.438
1196.00,49.461
1197.00,49.455
1198.00,49.458
1199.00,49.449
1200.00,49.443
1201.00,49.461
1202.00,49.446
1203.00,49.443
1204.00,49.434
1205.00,49.431
1206.00,49.430
1207.00,49.442
1208.00,49.417
1209.00,49.427
1210.00,49.424
1211.00,49.423
1212.00,49.442
1213.00,49.405
1214.00,49.431
1215.00,49.424
1216.00,49.415
1217.00,49.426
1218.00,49.420
1219.00,49.430
1220.00,49.423
1221.00,49.423
1222.00,49.406
1223.00,49.440
1224.00,49.421
1225.00,49.419
1226.00,49.433
1227.00,49.406
1228.00,49.425
1229.00,49.438
1230.00,49.464
1231.00,49.461
1232.00,49.461
1233.00,49.453
1234.00,49.465
1235.00,49.453
1236.00,49.462
1237.00,49.456
1238.00,49.461
1239.00,49.467
1240.00,49.477
1241.00,49.470
1242.00,49.463
1243.00,49.476
1244.00,49.461
1245.00,49.482
1246.00,49.488
1247.00,49.479
1248.00,49.482
1249.00,49.480
1250.00,49.469
1251.00,49.492
1252.00,49.489
1253.00,49.498
1254.00,49.504
1255.00,49.525
1256.00,49.526
1257.00,49.468
1258.00,49.515
1259.00,49.510
1260.00,49.527
1261.00,49.533
1262.00,49.524
1263.00,49.517
1264.00,49.525
1265.00,49.521
1266.00,49.515
1267.00,49.528
1268.00,49.544
1269.00,49.538
1270.00,49.560
1271.00,49.554
1272.00,49.562
1273.00,49.567
1274.00,49.554
1275.00,49.566
1276.00,49.564
1277.00,49.559
1278.00,49.576
1279.00,49.573
1280.00,49.573
1281.00,49.600
1282.00,49.596
1283.00,49.590
1284.00,49.589
1285.00,49.574
1286.00,49.594
1287.00,49.585
1288.00,49.594
1289.00,49.600
1290.00,49.610
1291.00,49.612
1292.00,49.629
1293.00,49.612
1294.00,49.619
1295.00,49.645
1296.00,49.627
1297.00,49.650
1298.00,49.645
1299.00,49.639
1300.00,49.673
1301.00,49.651
1302.00,49.655
1303.00,49.684
1304.00,49.645
1305.00,49.675
1306.00,49.678
1307.00,49.672
1308.00,49.681
1309.00,49.674
1310.00,49.685
1311.00,49.685
1312.00,49.694
1313.00,49.698
1314.00,49.723
1315.00,49.710
1316.00,49.715
1317.00,49.739
1318.00,49.717
1319.00,49.744
1320.00,49.775
1321.00,49.909
1322.00,49.931
1323.00,49.893
1324.00,49.902
1325.00,49.885
1326.00,49.892
1327.00,49.904
1328.00,49.900
1329.00,49.869
1330.00,49.897
1331.00,49.890
1332.00,49.902
1333.00,49.903
1334.00,49.921
1335.00,49.949
1336.00,49.977
1337.00,49.997
1338.00,50.071
1339.00,50.102
1340.00,50.158
1341.00,50.231
1342.00,50.293
1343.00,50.343
1344.00,50.386
1345.00,50.437
1346.00,50.490
1347.00,50.511
1348.00,50.509
1349.00,50.550
1350.00,50.552
1351.00,50.577
1352.00,50.579
1353.00,50.582
1354.00,50.588
1355.00,50.570
1356.00,50.582
1357.00,50.602
1358.00,50.618
1359.00,50.627
1360.00,50.660
1361.00,50.712
1362.00,50.670
1363.00,50.651
1364.00,50.595
1365.00,50.595
1366.00,50.657
1367.00,50.609
1368.00,50.555
1369.00,50.597
1370.00,50.585
1371.00,50.562
1372.00,50.577
1373.00,50.590
1374.00,50.622
1375.00,50.567
1376.00,50.579
1377.00,50.549
1378.00,50.614
1379.00,50.591
1380.00,50.578
1381.00,50.604
1382.00,50.528
1383.00,50.543
1384.00,50.517
1385.00,50.519
1386.00,50.570
1387.00,50.546
1388.00,50.503
1389.00,50.546
1390.00,50.365
1391.00,50.505
1392.00,50.513
1393.00,50.553
1394.00,50.521
1395.00,50.570
1396.00,50.505
1397.00,50.581
1398.00,50.575
1399.00,50.531
1400.00,50.525
1401.00,50.552
1402.00,50.565
1403.00,50.574
1404.00,50.563
1405.00,50.581
1406.00,50.584
1407.00,50.619
1408.00,50.616
1409.00,50.598
1410.00,50.650
1411.00,50.630
1412.00,50.689
1413.00,50.657
1414.00,50.606
1415.00,50.651
1416.00,50.674
1417.00,50.688
1418.00,50.698
1419.00,50.671
1420.00,50.722
1421.00,50.751
1422.00,50.728
1423.00,50.742
1424.00,50.765
1425.00,50.763
1426.00,50.809
1427.00,50.799
1428.00,50.821
1429.00,50.846
1430.00,50.839
1431.00,50.854
1432.00,50.880
1433.00,50.872
1434.00,50.892
1435.00,50.937
1436.00,50.927
1437.00,50.929
1438.00,50.932
1439.00,50.959
1440.00,50.968
1441.00,50.967
1442.00,50.994
1443.00,51.024
1444.00,51.024
1445.00,51.026
1446.00,51.040
1447.00,51.067
1448.00,51.078
1449.00,51.113
1450.00,51.098
1451.00,51.142
1452.00,51.142
1453.00,51.155
1454.00,51.157
1455.00,51.176
1456.00,51.205
1457.00,51.222
1458.00,51.216
1459.00,51.260
1460.00,51.266
1461.00,51.291
1462.00,51.299
1463.00,51.310
1464.00,51.353
1465.00,51.339
1466.00,51.319
1467.00,51.352
1468.00,51.384
1469.00,51.383
1470.00,51.397
1471.00,51.412
1472.00,51.419
1473.00,51.437
1474.00,51.459
1475.00,51.481
1476.00,51.493
1477.00,51.470
1478.00,51.497
1479.00,51.525
1480.00,51.503
1481.00,51.528
1482.00,51.537
1483.00,51.542
1484.00,51.569
1485.00,51.579
1486.00,51.585
1487.00,51.614
1488.00,51.607
1489.00,51.640
1490.00,51.638
1491.00,51.637
1492.00,51.653
1493.00,51.651
1494.00,51.662
1495.00,51.677
1496.00,51.700
1497.00,51.700
1498.00,51.701
1499.00,51.716
1500.00,51.750
1501.00, 
1502.00, 
1503.00, 
1504.00, 
1505.00, 
1506.00, 
1507.00, 
1508.00, 
1509.00, 
1510.00, 
1511.00, 
1512.00, 
1513.00, 
1514.00, 
1515.00, 
1516.00, 
1517.00, 
1518.00, 
1519.00, 
1520.00, 
1521.00, 
1522.00, 
1523.00, 
1524.00, 
1525.00, 
1526.00, 
1527.00, 
1528.00, 
1529.00, 
1530.00, 
1531.00, 
1532.00, 
1533.00, 
1534.00, 
1535.00, 
1536.00, 
1537.00, 
1538.00, 
1539.00, 
1540.00, 
1541.00, 
1542.00, 
1543.00, 
1544.00, 
1545.00, 
1546.00, 
1547.00, 
1548.00, 
1549.00, 
1550.00, 
1551.00, 
1552.00, 
1553.00, 
1554.00, 
1555.00, 
1556.00, 
1557.00, 
1558.00, 
1559.00, 
1560.00, 
1561.00, 
1562.00, 
1563.00, 
1564.00, 
1565.00, 
1566.00, 
1567.00, 
1568.00, 
1569.00, 
1570.00, 
1571.00, 
1572.00, 
1573.00, 
1574.00, 
1575.00, 
1576.00, 
1577.00, 
1578.00, 
1579.00, 
1580.00, 
1581.00, 
1582.00, 
1583.00, 
1584.00, 
1585.00, 
1586.00, 
1587.00, 
1588.00, 
1589.00, 
1590.00, 
1591.00, 
1592.00, 
1593.00, 
1594.00, 
1595.00, 
1596.00, 
1597.00, 
1598.00, 
1599.00, 
1600.00, 
1601.00, 
1602.00, 
1603.00, 
1604.00, 
1605.00, 
1606.00, 
1607.00, 
1608.00, 
1609.00, 
1610.00, 
1611.00, 
1612.00, 
1613.00, 
1614.00, 
1615.00, 
1616.00, 
1617.00, 
1618.00, 
1619.00, 
1620.00, 
1621.00, 
1622.00, 
1623.00, 
1624.00, 
1625.00, 
1626.00, 
1627.00, 
1628.00, 
1629.00, 
1630.00, 
1631.00, 
1632.00, 
1633.00, 
1634.00, 
1635.00, 
1636.00, 
1637.00, 
1638.00, 
1639.00, 
1640.00, 
1641.00, 
1642.00, 
1643.00, 
1644.00, 
1645.00, 
1646.00, 
1647.00, 
1648.00, 
1649.00, 
1650.00, 
1651.00, 
1652.00, 
1653.00, 
1654.00, 
1655.00, 
1656.00, 
1657.00, 
1658.00, 
1659.00, 
1660.00, 
1661.00, 
1662.00, 
1663.00, 
1664.00, 
1665.00, 
1666.00, 
1667.00, 
1668.00, 
1669.00, 
1670.00, 
1671.00, 
1672.00, 
1673.00, 
1674.00, 
1675.00, 
1676.00, 
1677.00, 
1678.00, 
1679.00, 
1680.00, 
1681.00, 
1682.00, 
1683.00, 
1684.00, 
1685.00, 
1686.00, 
1687.00, 
1688.00, 
1689.00, 
1690.00, 
1691.00, 
1692.00, 
1693.00, 
1694.00, 
1695.00, 
1696.00, 
1697.00, 
1698.00, 
1699.00, 
1700.00, 
1701.00, 
1702.00, 
1703.00, 
1704.00, 
1705.00, 
1706.00, 
1707.00, 
1708.00, 
1709.00, 
1710.00, 
1711.00, 
1712.00, 
1713.00, 
1714.00, 
1715.00, 
1716.00, 
1717.00, 
1718.00, 
1719.00, 
1720.00, 
1721.00, 
1722.00, 
1723.00, 
1724.00, 
1725.00, 
1726.00, 
1727.00, 
1728.00, 
1729.00, 
1730.00, 
1731.00, 
1732.00, 
1733.00, 
1734.00, 
1735.00, 
1736.00, 
1737.00, 
1738.00, 
1739.00, 
1740.00, 
1741.00, 
1742.00, 
1743.00, 
1744.00, 
1745.00, 
1746.00, 
1747.00, 
1748.00, 
1749.00, 
1750.00, 
1751.00, 
1752.00, 
1753.00, 
1754.00, 
1755.00, 
1756.00, 
1757.00, 
1758.00, 
1759.00, 
1760.00, 
1761.00, 
1762.00, 
1763.00, 
1764.00, 
1765.00, 
1766.00, 
1767.00, 
1768.00, 
1769.00, 
1770.00, 
1771.00, 
1772.00, 
1773.00, 
1774.00, 
1775.00, 
1776.00, 
1777.00, 
1778.00, 
1779.00, 
1780.00, 
1781.00, 
1782.00, 
1783.00, 
1784.00, 
1785.00, 
1786.00, 
1787.00, 
1788.00, 
1789.00, 
1790.00, 
1791.00, 
1792.00, 
1793.00, 
1794.00, 
1795.00, 
1796.00, 
1797.00, 
1798.00, 
1799.00, 
1800.00, 
1801.00, 
1802.00, 
1803.00, 
1804.00, 
1805.00, 
1806.00, 
1807.00, 
1808.00, 
1809.00, 
1810.00, 
1811.00, 
1812.00, 
1813.00, 
1814.00, 
1815.00, 
1816.00, 
1817.00, 
1818.00, 
1819.00, 
1820.00, 
1821.00, 
1822.00, 
1823.00, 
1824.00, 
1825.00, 
1826.00, 
1827.00, 
1828.00, 
1829.00, 
1830.00, 
1831.00, 
1832.00, 
1833.00, 
1834.00, 
1835.00, 
1836.00, 
1837.00, 
1838.00, 
1839.00, 
1840.00, 
1841.00, 
1842.00, 
1843.00, 
1844.00, 
1845.00, 
1846.00, 
1847.00, 
1848.00, 
1849.00, 
1850.00, 
1851.00, 
1852.00, 
1853.00, 
1854.00, 
1855.00, 
1856.00, 
1857.00, 
1858.00, 
1859.00, 
1860.00, 
1861.00, 
1862.00, 
1863.00, 
1864.00, 
1865.00, 
1866.00, 
1867.00, 
1868.00, 
1869.00, 
1870.00, 
1871.00, 
1872.00, 
1873.00, 
1874.00, 
1875.00, 
1876.00, 
1877.00, 
1878.00, 
1879.00, 
1880.00, 
1881.00, 
1882.00, 
1883.00, 
1884.00, 
1885.00, 
1886.00, 
1887.00, 
1888.00, 
1889.00, 
1890.00, 
1891.00, 
1892.00, 
1893.00, 
1894.00, 
1895.00, 
1896.00, 
1897.00, 
1898.00, 
1899.00, 
1900.00, 
1901.00, 
1902.00, 
1903.00, 
1904.00, 
1905.00, 
1906.00, 
1907.00, 
1908.00, 
1909.00, 
1910.00, 
1911.00, 
1912.00, 
1913.00, 
1914.00, 
1915.00, 
1916.00, 
1917.00, 
1918.00, 
1919.00, 
1920.00, 
1921.00, 
1922.00, 
1923.00, 
1924.00, 
1925.00, 
1926.00, 
1927.00, 
1928.00, 
1929.00, 
1930.00, 
1931.00, 
1932.00, 
1933.00, 
1934.00, 
1935.00, 
1936.00, 
1937.00, 
1938.00, 
1939.00, 
1940.00, 
1941.00, 
1942.00, 
1943.00, 
1944.00, 
1945.00, 
1946.00, 
1947.00, 
1948.00, 
1949.00, 
1950.00, 
1951.00, 
1952.00, 
1953.00, 
1954.00, 
1955.00, 
1956.00, 
1957.00, 
1958.00, 
1959.00, 
1960.00, 
1961.00, 
1962.00, 
1963.00, 
1964.00, 
1965.00, 
1966.00, 
1967.00, 
1968.00, 
1969.00, 
1970.00, 
1971.00, 
1972.00, 
1973.00, 
1974.00, 
1975.00, 
1976.00, 
1977.00, 
1978.00, 
1979.00, 
1980.00, 
1981.00, 
1982.00, 
1983.00, 
1984.00, 
1985.00, 
1986.00, 
1987.00, 
1988.00, 
1989.00, 
1990.00, 
1991.00, 
1992.00, 
1993.00, 
1994.00, 
1995.00, 
1996.00, 
1997.00, 
1998.00, 
1999.00, 
2000.00, 
2001.00, 
2002.00, 
2003.00, 
2004.00, 
2005.00, 
2006.00, 
2007.00, 
2008.00, 
2009.00, 
2010.00, 
2011.00, 
2012.00, 
2013.00, 
2014.00, 
2015.00, 
2016.00, 
2017.00, 
2018.00, 
2019.00, 
2020.00, 
2021.00, 
2022.00, 
2023.00, 
2024.00, 
2025.00, 
2026.00, 
2027.00, 
2028.00, 
2029.00, 
2030.00, 
2031.00, 
2032.00, 
2033.00, 
2034.00, 
2035.00, 
2036.00, 
2037.00, 
2038.00, 
2039.00, 
2040.00, 
2041.00, 
2042.00, 
2043.00, 
2044.00, 
2045.00, 
2046.00, 
2047.00, 
2048.00, 
2049.00, 
2050.00, 
2051.00, 
2052.00, 
2053.00, 
2054.00, 
2055.00, 
2056.00, 
2057.00, 
2058.00, 
2059.00, 
2060.00, 
2061.00, 
2062.00, 
2063.00, 
2064.00, 
2065.00, 
2066.00, 
2067.00, 
2068.00, 
2069.00, 
2070.00, 
2071.00, 
2072.00, 
2073.00, 
2074.00, 
2075.00, 
2076.00, 
2077.00, 
2078.00, 
2079.00, 
2080.00, 
2081.00, 
2082.00, 
2083.00, 
2084.00, 
2085.00, 
2086.00, 
2087.00, 
2088.00, 
2089.00, 
2090.00, 
2091.00, 
2092.00, 
2093.00, 
2094.00, 
2095.00, 
2096.00, 
2097.00, 
2098.00, 
2099.00, 
2100.00, 
2101.00, 
2102.00, 
2103.00, 
2104.00, 
2105.00, 
2106.00, 
2107.00, 
2108.00, 
2109.00, 
2110.00, 
2111.00, 
2112.00, 
2113.00, 
2114.00, 
2115.00, 
2116.00, 
2117.00, 
2118.00, 
2119.00, 
2120.00, 
2121.00, 
2122.00, 
2123.00, 
2124.00, 
2125.00, 
2126.00, 
2127.00, 
2128.00, 
2129.00, 
2130.00, 
2131.00, 
2132.00, 
2133.00, 
2134.00, 
2135.00, 
2136.00, 
2137.00, 
2138.00, 
2139.00, 
2140.00, 
2141.00, 
2142.00, 
2143.00, 
2144.00, 
2145.00, 
2146.00, 
2147.00, 
2148.00, 
2149.00, 
2150.00, 
2151.00, 
2152.00, 
2153.00, 
2154.00, 
2155.00, 
2156.00, 
2157.00, 
2158.00, 
2159.00, 
2160.00, 
2161.00, 
2162.00, 
2163.00, 
2164.00, 
2165.00, 
2166.00, 
2167.00, 
2168.00, 
2169.00, 
2170.00, 
2171.00, 
2172.00, 
2173.00, 
2174.00, 
2175.00, 
2176.00, 
2177.00, 
2178.00, 
2179.00, 
2180.00, 
2181.00, 
2182.00, 
2183.00, 
2184.00, 
2185.00, 
2186.00, 
2187.00, 
2188.00, 
2189.00, 
2190.00, 
2191.00, 
2192.00, 
2193.00, 
2194.00, 
2195.00, 
2196.00, 
2197.00, 
2198.00, 
2199.00, 
2200.00, 
2201.00, 
2202.00, 
2203.00, 
2204.00, 
2205.00, 
2206.00, 
2207.00, 
2208.00, 
2209.00, 
2210.00, 
2211.00, 
2212.00, 
2213.00, 
2214.00, 
2215.00, 
2216.00, 
2217.00, 
2218.00, 
2219.00, 
2220.00, 
2221.00, 
2222.00, 
2223.00, 
2224.00, 
2225.00, 
2226.00, 
2227.00, 
2228.00, 
2229.00, 
2230.00, 
2231.00, 
2232.00, 
2233.00, 
2234.00, 
2235.00, 
2236.00, 
2237.00, 
2238.00, 
2239.00, 
2240.00, 
2241.00, 
2242.00, 
2243.00, 
2244.00, 
2245.00, 
2246.00, 
2247.00, 
2248.00, 
2249.00, 
2250.00, 
2251.00, 
2252.00, 
2253.00, 
2254.00, 
2255.00, 
2256.00, 
2257.00, 
2258.00, 
2259.00, 
2260.00, 
2261.00, 
2262.00, 
2263.00, 
2264.00, 
2265.00, 
2266.00, 
2267.00, 
2268.00, 
2269.00, 
2270.00, 
2271.00, 
2272.00, 
2273.00, 
2274.00, 
2275.00, 
2276.00, 
2277.00, 
2278.00, 
2279.00, 
2280.00, 
2281.00, 
2282.00, 
2283.00, 
2284.00, 
2285.00, 
2286.00, 
2287.00, 
2288.00, 
2289.00, 
2290.00, 
2291.00, 
2292.00, 
2293.00, 
2294.00, 
2295.00, 
2296.00, 
2297.00, 
2298.00, 
2299.00, 
2300.00, 
2301.00, 
2302.00, 
2303.00, 
2304.00, 
2305.00, 
2306.00, 
2307.00, 
2308.00, 
2309.00, 
2310.00, 
2311.00, 
2312.00, 
2313.00, 
2314.00, 
2315.00, 
2316.00, 
2317.00, 
2318.00, 
2319.00, 
2320.00, 
2321.00, 
2322.00, 
2323.00, 
2324.00, 
2325.00, 
2326.00, 
2327.00, 
2328.00, 
2329.00, 
2330.00, 
2331.00, 
2332.00, 
2333.00, 
2334.00, 
2335.00, 
2336.00, 
2337.00, 
2338.00, 
2339.00, 
2340.00, 
2341.00, 
2342.00, 
2343.00, 
2344.00, 
2345.00, 
2346.00, 
2347.00, 
2348.00, 
2349.00, 
2350.00, 
2351.00, 
2352.00, 
2353.00, 
2354.00, 
2355.00, 
2356.00, 
2357.00, 
2358.00, 
2359.00, 
2360.00, 
2361.00, 
2362.00, 
2363.00, 
2364.00, 
2365.00, 
2366.00, 
2367.00, 
2368.00, 
2369.00, 
2370.00, 
2371.00, 
2372.00, 
2373.00, 
2374.00, 
2375.00, 
2376.00, 
2377.00, 
2378.00, 
2379.00, 
2380.00, 
2381.00, 
2382.00, 
2383.00, 
2384.00, 
2385.00, 
2386.00, 
2387.00, 
2388.00, 
2389.00, 
2390.00, 
2391.00, 
2392.00, 
2393.00, 
2394.00, 
2395.00, 
2396.00, 
2397.00, 
2398.00, 
2399.00, 
2400.00, 
2401.00, 
2402.00, 
2403.00, 
2404.00, 
2405.00, 
2406.00, 
2407.00, 
2408.00, 
2409.00, 
2410.00, 
2411.00, 
2412.00, 
2413.00, 
2414.00, 
2415.00, 
2416.00, 
2417.00, 
2418.00, 
2419.00, 
2420.00, 
2421.00, 
2422.00, 
2423.00, 
2424.00, 
2425.00, 
2426.00, 
2427.00, 
2428.00, 
2429.00, 
2430.00, 
2431.00, 
2432.00, 
2433.00, 
2434.00, 
2435.00, 
2436.00, 
2437.00, 
2438.00, 
2439.00, 
2440.00, 
2441.00, 
2442.00, 
2443.00, 
2444.00, 
2445.00, 
2446.00, 
2447.00, 
2448.00, 
2449.00, 
2450.00, 
2451.00, 
2452.00, 
2453.00, 
2454.00, 
2455.00, 
2456.00, 
2457.00, 
2458.00, 
2459.00, 
2460.00, 
2461.00, 
2462.00, 
2463.00, 
2464.00, 
2465.00, 
2466.00, 
2467.00, 
2468.00, 
2469.00, 
2470.00, 
2471.00, 
2472.00, 
2473.00, 
2474.00, 
2475.00, 
2476.00, 
2477.00, 
2478.00, 
2479.00, 
2480.00, 
2481.00, 
2482.00, 
2483.00, 
2484.00, 
2485.00, 
2486.00, 
2487.00, 
2488.00, 
2489.00, 
2490.00, 
2491.00, 
2492.00, 
2493.00, 
2494.00, 
2495.00, 
2496.00, 
2497.00, 
2498.00, 
2499.00, 
2500.00, 
2501.00, 
2502.00, 
2503.00, 
2504.00, 
2505.00, 
2506.00, 
2507.00, 
2508.00, 
2509.00, 
2510.00, 
2511.00, 
2512.00, 
2513.00, 
2514.00, 
2515.00, 
2516.00, 
2517.00, 
2518.00, 
2519.00, 
2520.00, 
2521.00, 
2522.00, 
2523.00, 
2524.00, 
2525.00, 
2526.00, 
2527.00, 
2528.00, 
2529.00, 
2530.00, 
2531.00, 
2532.00, 
2533.00, 
2534.00, 
2535.00, 
2536.00, 
2537.00, 
2538.00, 
2539.00, 
2540.00, 
2541.00, 
2542.00, 
2543.00, 
2544.00, 
2545.00, 
2546.00, 
2547.00, 
2548.00, 
2549.00, 
2550.00, 
2551.00, 
2552.00, 
2553.00, 
2554.00, 
2555.00, 
2556.00, 
2557.00, 
2558.00, 
2559.00, 
2560.00, 
2561.00, 
2562.00, 
2563.00, 
2564.00, 
2565.00, 
2566.00, 
2567.00, 
2568.00, 
2569.00, 
2570.00, 
2571.00, 
2572.00, 
2573.00, 
2574.00, 
2575.00, 
2576.00, 
2577.00, 
2578.00, 
2579.00, 
2580.00, 
2581.00, 
2582.00, 
2583.00, 
2584.00, 
2585.00, 
2586.00, 
2587.00, 
2588.00, 
2589.00, 
2590.00, 
2591.00, 
2592.00, 
2593.00, 
2594.00, 
2595.00, 
2596.00, 
2597.00, 
2598.00, 
2599.00, 
2600.00, 
