"2cP3 - RawData"
"Wavelength nm.","T%"
200.00,0.001
201.00,0.002
202.00,-0.001
203.00,0.002
204.00,0.001
205.00,0.002
206.00,-0.000
207.00,0.003
208.00,0.000
209.00,0.001
210.00,0.000
211.00,0.002
212.00,0.001
213.00,0.002
214.00,0.000
215.00,0.003
216.00,0.001
217.00,0.004
218.00,0.000
219.00,0.001
220.00,0.003
221.00,0.002
222.00,0.003
223.00,-0.000
224.00,-0.001
225.00,0.001
226.00,0.001
227.00,-0.002
228.00,-0.001
229.00,0.002
230.00,-0.001
231.00,0.001
232.00,-0.001
233.00,0.001
234.00,0.000
235.00,0.002
236.00,0.002
237.00,-0.002
238.00,0.000
239.00,-0.001
240.00,-0.000
241.00,0.001
242.00,-0.000
243.00,-0.000
244.00,0.001
245.00,0.002
246.00,0.001
247.00,0.002
248.00,-0.001
249.00,0.000
250.00,-0.000
251.00,0.001
252.00,0.001
253.00,0.002
254.00,0.000
255.00,0.001
256.00,0.001
257.00,0.000
258.00,0.001
259.00,0.002
260.00,-0.001
261.00,0.001
262.00,-0.001
263.00,0.000
264.00,0.001
265.00,0.000
266.00,0.003
267.00,0.001
268.00,0.001
269.00,0.001
270.00,0.000
271.00,0.001
272.00,-0.002
273.00,0.000
274.00,0.000
275.00,0.000
276.00,0.001
277.00,-0.001
278.00,-0.002
279.00,0.000
280.00,0.000
281.00,0.000
282.00,0.001
283.00,0.001
284.00,0.000
285.00,0.001
286.00,0.001
287.00,0.001
288.00,0.002
289.00,0.001
290.00,-0.002
291.00,-0.000
292.00,-0.001
293.00,0.001
294.00,0.000
295.00,0.000
296.00,0.000
297.00,-0.000
298.00,-0.000
299.00,0.001
300.00,0.002
301.00,0.005
302.00,0.005
303.00,0.005
304.00,0.009
305.00,0.015
306.00,0.026
307.00,0.035
308.00,0.056
309.00,0.085
310.00,0.123
311.00,0.166
312.00,0.220
313.00,0.300
314.00,0.400
315.00,0.518
316.00,0.657
317.00,0.822
318.00,1.024
319.00,1.245
320.00,1.524
321.00,1.842
322.00,2.171
323.00,2.566
324.00,2.980
325.00,3.377
326.00,3.821
327.00,4.308
328.00,4.805
329.00,5.346
330.00,5.897
331.00,6.432
332.00,6.982
333.00,7.572
334.00,8.140
335.00,8.677
336.00,9.282
337.00,9.838
338.00,10.403
339.00,10.952
340.00,11.453
341.00,11.959
342.00,12.454
343.00,12.896
344.00,13.372
345.00,13.787
346.00,14.187
347.00,14.564
348.00,14.973
349.00,15.273
350.00,15.587
351.00,15.898
352.00,16.180
353.00,16.386
354.00,16.665
355.00,16.889
356.00,17.111
357.00,17.293
358.00,17.500
359.00,17.720
360.00,17.852
361.00,17.973
362.00,18.103
363.00,18.253
364.00,18.318
365.00,18.421
366.00,18.482
367.00,18.559
368.00,18.563
369.00,18.630
370.00,18.655
371.00,18.689
372.00,18.663
373.00,18.696
374.00,18.679
375.00,18.652
376.00,18.632
377.00,18.598
378.00,18.529
379.00,18.505
380.00,18.447
381.00,18.461
382.00,18.422
383.00,18.424
384.00,18.465
385.00,18.439
386.00,18.435
387.00,18.491
388.00,18.539
389.00,18.549
390.00,18.569
391.00,18.557
392.00,18.586
393.00,18.554
394.00,18.591
395.00,18.567
396.00,18.565
397.00,18.582
398.00,18.576
399.00,18.553
400.00,18.575
401.00,18.535
402.00,18.560
403.00,18.567
404.00,18.563
405.00,18.540
406.00,18.542
407.00,18.523
408.00,18.522
409.00,18.436
410.00,18.379
411.00,18.402
412.00,18.379
413.00,18.404
414.00,18.384
415.00,18.382
416.00,18.443
417.00,18.386
418.00,18.408
419.00,18.453
420.00,18.526
421.00,18.452
422.00,18.468
423.00,18.493
424.00,18.572
425.00,18.576
426.00,18.593
427.00,18.647
428.00,18.667
429.00,18.704
430.00,18.744
431.00,18.795
432.00,18.816
433.00,18.892
434.00,18.959
435.00,19.010
436.00,19.049
437.00,19.125
438.00,19.179
439.00,19.224
440.00,19.318
441.00,19.389
442.00,19.455
443.00,19.581
444.00,19.621
445.00,19.691
446.00,19.778
447.00,19.845
448.00,19.951
449.00,20.046
450.00,20.148
451.00,20.229
452.00,20.323
453.00,20.390
454.00,20.525
455.00,20.617
456.00,20.721
457.00,20.828
458.00,20.913
459.00,21.047
460.00,21.185
461.00,21.299
462.00,21.420
463.00,21.544
464.00,21.694
465.00,21.779
466.00,21.912
467.00,22.036
468.00,22.158
469.00,22.259
470.00,22.357
471.00,22.450
472.00,22.588
473.00,22.669
474.00,22.804
475.00,22.915
476.00,23.029
477.00,23.156
478.00,23.283
479.00,23.476
480.00,23.576
481.00,23.713
482.00,23.903
483.00,24.030
484.00,24.201
485.00,24.341
486.00,24.479
487.00,24.638
488.00,24.732
489.00,24.878
490.00,25.071
491.00,25.181
492.00,25.336
493.00,25.510
494.00,25.685
495.00,25.723
496.00,25.867
497.00,25.967
498.00,26.136
499.00,26.253
500.00,26.385
501.00,26.526
502.00,26.685
503.00,26.805
504.00,26.859
505.00,27.033
506.00,27.159
507.00,27.277
508.00,27.395
509.00,27.578
510.00,27.719
511.00,27.786
512.00,27.969
513.00,28.102
514.00,28.240
515.00,28.335
516.00,28.486
517.00,28.571
518.00,28.747
519.00,28.823
520.00,28.872
521.00,29.016
522.00,29.077
523.00,29.191
524.00,29.264
525.00,29.393
526.00,29.554
527.00,29.637
528.00,29.702
529.00,29.928
530.00,30.088
531.00,30.170
532.00,30.252
533.00,30.372
534.00,30.450
535.00,30.563
536.00,30.658
537.00,30.738
538.00,30.817
539.00,30.888
540.00,30.979
541.00,31.050
542.00,31.116
543.00,31.211
544.00,31.304
545.00,31.393
546.00,31.478
547.00,31.612
548.00,31.642
549.00,31.662
550.00,31.846
551.00,31.884
552.00,32.020
553.00,32.047
554.00,32.107
555.00,32.143
556.00,32.267
557.00,32.354
558.00,32.435
559.00,32.515
560.00,32.617
561.00,32.635
562.00,32.726
563.00,32.787
564.00,32.849
565.00,32.907
566.00,32.918
567.00,33.022
568.00,33.049
569.00,33.090
570.00,33.141
571.00,33.173
572.00,33.302
573.00,33.270
574.00,33.355
575.00,33.382
576.00,33.399
577.00,33.486
578.00,33.582
579.00,33.692
580.00,33.735
581.00,33.862
582.00,33.981
583.00,33.916
584.00,33.991
585.00,34.103
586.00,34.188
587.00,34.249
588.00,34.328
589.00,34.282
590.00,34.511
591.00,34.526
592.00,34.474
593.00,34.582
594.00,34.662
595.00,34.766
596.00,34.788
597.00,34.862
598.00,34.926
599.00,34.968
600.00,35.025
601.00,35.104
602.00,35.085
603.00,35.125
604.00,35.164
605.00,35.216
606.00,35.352
607.00,35.360
608.00,35.378
609.00,35.555
610.00,35.692
611.00,35.442
612.00,35.528
613.00,35.698
614.00,35.712
615.00,35.820
616.00,35.939
617.00,35.928
618.00,35.960
619.00,36.044
620.00,36.069
621.00,36.175
622.00,36.255
623.00,36.293
624.00,36.437
625.00,36.568
626.00,36.455
627.00,36.453
628.00,36.658
629.00,36.753
630.00,36.800
631.00,36.877
632.00,36.971
633.00,37.119
634.00,37.170
635.00,37.273
636.00,37.330
637.00,37.445
638.00,37.506
639.00,37.615
640.00,37.662
641.00,37.676
642.00,37.812
643.00,37.883
644.00,37.991
645.00,38.068
646.00,38.164
647.00,38.332
648.00,38.349
649.00,38.374
650.00,38.424
651.00,38.622
652.00,38.776
653.00,38.744
654.00,38.838
655.00,38.994
656.00,39.305
657.00,39.120
658.00,39.912
659.00,39.518
660.00,39.498
661.00,39.507
662.00,39.653
663.00,39.804
664.00,40.035
665.00,40.243
666.00,40.135
667.00,40.259
668.00,40.296
669.00,40.521
670.00,40.753
671.00,40.692
672.00,40.842
673.00,40.875
674.00,41.001
675.00,41.114
676.00,41.258
677.00,41.534
678.00,41.249
679.00,41.502
680.00,41.620
681.00,41.830
682.00,41.871
683.00,41.873
684.00,41.982
685.00,42.113
686.00,42.169
687.00,42.364
688.00,42.457
689.00,42.452
690.00,42.697
691.00,42.939
692.00,42.697
693.00,42.738
694.00,43.000
695.00,43.235
696.00,43.312
697.00,43.258
698.00,43.388
699.00,43.540
700.00,43.639
701.00,43.742
702.00,43.815
703.00,43.959
704.00,44.036
705.00,44.125
706.00,44.154
707.00,44.188
708.00,44.254
709.00,44.559
710.00,45.040
711.00,44.644
712.00,44.675
713.00,44.837
714.00,44.887
715.00,44.901
716.00,44.992
717.00,45.298
718.00,45.361
719.00,45.283
720.00,45.422
721.00,49.771
722.00,49.823
723.00,49.915
724.00,49.779
725.00,49.989
726.00,50.055
727.00,50.036
728.00,50.103
729.00,50.128
730.00,50.138
731.00,50.252
732.00,50.277
733.00,50.364
734.00,50.442
735.00,50.367
736.00,50.567
737.00,50.568
738.00,50.607
739.00,50.717
740.00,50.695
741.00,50.762
742.00,50.799
743.00,50.816
744.00,50.827
745.00,50.821
746.00,50.898
747.00,50.908
748.00,50.944
749.00,50.855
750.00,51.023
751.00,51.011
752.00,50.928
753.00,51.008
754.00,51.044
755.00,50.946
756.00,51.119
757.00,51.141
758.00,51.201
759.00,51.172
760.00,51.221
761.00,51.253
762.00,51.277
763.00,51.362
764.00,51.286
765.00,51.345
766.00,51.340
767.00,51.383
768.00,51.390
769.00,51.348
770.00,51.413
771.00,51.440
772.00,51.552
773.00,51.528
774.00,51.533
775.00,51.596
776.00,51.584
777.00,51.559
778.00,51.593
779.00,51.667
780.00,51.590
781.00,51.610
782.00,51.671
783.00,51.666
784.00,51.743
785.00,51.636
786.00,51.673
787.00,51.671
788.00,51.637
789.00,51.638
790.00,51.645
791.00,51.714
792.00,51.744
793.00,51.669
794.00,51.648
795.00,51.751
796.00,51.640
797.00,51.706
798.00,51.717
799.00,51.648
800.00,51.663
801.00,51.660
802.00,51.648
803.00,51.661
804.00,51.611
805.00,51.650
806.00,51.598
807.00,51.588
808.00,51.653
809.00,51.678
810.00,51.656
811.00,51.653
812.00,51.579
813.00,51.618
814.00,51.573
815.00,51.616
816.00,51.615
817.00,51.632
818.00,51.498
819.00,51.570
820.00,51.511
821.00,51.521
822.00,51.534
823.00,51.446
824.00,51.486
825.00,51.448
826.00,51.482
827.00,51.600
828.00,51.385
829.00,51.413
830.00,51.468
831.00,53.894
832.00,53.896
833.00,53.850
834.00,53.833
835.00,53.836
836.00,53.801
837.00,53.815
838.00,53.794
839.00,53.779
840.00,53.733
841.00,53.736
842.00,53.711
843.00,53.704
844.00,53.695
845.00,53.678
846.00,53.714
847.00,53.660
848.00,53.665
849.00,53.613
850.00,53.599
851.00,53.546
852.00,53.567
853.00,53.500
854.00,53.458
855.00,53.459
856.00,53.438
857.00,53.445
858.00,53.403
859.00,53.375
860.00,53.354
861.00,53.369
862.00,53.330
863.00,53.311
864.00,53.297
865.00,53.312
866.00,53.303
867.00,53.288
868.00,53.268
869.00,53.265
870.00,53.257
871.00,53.263
872.00,53.274
873.00,53.245
874.00,53.237
875.00,53.213
876.00,53.202
877.00,53.210
878.00,53.206
879.00,53.161
880.00,53.145
881.00,53.159
882.00,53.144
883.00,53.116
884.00,53.093
885.00,53.064
886.00,53.080
887.00,53.081
888.00,53.031
889.00,53.013
890.00,53.014
891.00,52.991
892.00,52.979
893.00,52.935
894.00,52.952
895.00,52.917
896.00,52.880
897.00,52.863
898.00,52.851
899.00,52.855
900.00,52.831
901.00,52.818
902.00,52.851
903.00,52.811
904.00,52.802
905.00,52.790
906.00,52.775
907.00,52.735
908.00,52.698
909.00,52.698
910.00,52.661
911.00,52.666
912.00,52.664
913.00,52.603
914.00,52.606
915.00,52.584
916.00,52.562
917.00,52.526
918.00,52.552
919.00,52.498
920.00,52.505
921.00,52.469
922.00,52.446
923.00,52.432
924.00,52.400
925.00,52.385
926.00,52.392
927.00,52.369
928.00,52.348
929.00,52.340
930.00,52.489
931.00,52.318
932.00,52.296
933.00,52.287
934.00,52.281
935.00,52.235
936.00,52.202
937.00,52.191
938.00,52.174
939.00,52.170
940.00,52.141
941.00,52.119
942.00,52.132
943.00,52.098
944.00,52.015
945.00,52.091
946.00,52.045
947.00,52.010
948.00,52.007
949.00,51.980
950.00,51.953
951.00,51.940
952.00,51.906
953.00,51.904
954.00,51.854
955.00,51.845
956.00,51.835
957.00,51.792
958.00,51.794
959.00,51.823
960.00,51.772
961.00,51.735
962.00,51.729
963.00,51.661
964.00,51.676
965.00,51.664
966.00,51.660
967.00,51.670
968.00,51.636
969.00,51.664
970.00,51.639
971.00,51.639
972.00,51.620
973.00,51.657
974.00,51.668
975.00,51.650
976.00,51.650
977.00,51.627
978.00,51.672
979.00,51.620
980.00,51.645
981.00,51.647
982.00,51.615
983.00,51.633
984.00,51.613
985.00,51.622
986.00,51.585
987.00,51.607
988.00,51.585
989.00,51.564
990.00,51.539
991.00,51.581
992.00,51.553
993.00,51.515
994.00,51.503
995.00,51.503
996.00,51.490
997.00,51.483
998.00,51.465
999.00,51.484
1000.00,51.443
1001.00,51.430
1002.00,51.429
1003.00,51.428
1004.00,51.378
1005.00,51.348
1006.00,51.448
1007.00,51.360
1008.00,51.343
1009.00,51.322
1010.00,51.323
1011.00,51.314
1012.00,51.288
1013.00,51.300
1014.00,51.263
1015.00,51.261
1016.00,51.239
1017.00,51.242
1018.00,51.269
1019.00,51.178
1020.00,51.165
1021.00,51.142
1022.00,51.155
1023.00,51.110
1024.00,51.120
1025.00,51.093
1026.00,51.090
1027.00,51.072
1028.00,51.058
1029.00,51.046
1030.00,51.027
1031.00,51.027
1032.00,50.980
1033.00,50.987
1034.00,50.952
1035.00,50.907
1036.00,50.884
1037.00,50.867
1038.00,50.865
1039.00,50.851
1040.00,50.829
1041.00,50.806
1042.00,50.808
1043.00,50.786
1044.00,50.820
1045.00,50.785
1046.00,50.769
1047.00,50.791
1048.00,50.791
1049.00,50.809
1050.00,50.801
1051.00,50.834
1052.00,50.848
1053.00,50.844
1054.00,50.842
1055.00,50.864
1056.00,50.873
1057.00,50.881
1058.00,50.857
1059.00,50.847
1060.00,50.861
1061.00,50.847
1062.00,50.822
1063.00,50.838
1064.00,50.824
1065.00,50.808
1066.00,50.816
1067.00,50.830
1068.00,50.800
1069.00,50.769
1070.00,50.741
1071.00,50.754
1072.00,50.773
1073.00,50.740
1074.00,50.732
1075.00,50.708
1076.00,50.708
1077.00,50.707
1078.00,50.667
1079.00,50.671
1080.00,50.676
1081.00,50.659
1082.00,50.670
1083.00,50.661
1084.00,50.646
1085.00,50.649
1086.00,50.627
1087.00,50.617
1088.00,50.607
1089.00,50.597
1090.00,50.592
1091.00,50.587
1092.00,50.567
1093.00,50.556
1094.00,50.535
1095.00,50.528
1096.00,50.533
1097.00,50.519
1098.00,50.510
1099.00,50.509
1100.00,50.486
1101.00,50.487
1102.00,50.477
1103.00,50.471
1104.00,50.468
1105.00,50.458
1106.00,50.439
1107.00,50.442
1108.00,50.430
1109.00,50.421
1110.00,50.426
1111.00,50.402
1112.00,50.393
1113.00,50.375
1114.00,50.365
1115.00,50.371
1116.00,50.353
1117.00,50.341
1118.00,50.346
1119.00,50.343
1120.00,50.336
1121.00,50.335
1122.00,50.311
1123.00,50.312
1124.00,50.306
1125.00,50.292
1126.00,50.302
1127.00,50.296
1128.00,50.264
1129.00,50.270
1130.00,50.261
1131.00,50.245
1132.00,50.245
1133.00,50.239
1134.00,50.227
1135.00,50.205
1136.00,50.204
1137.00,50.218
1138.00,50.206
1139.00,50.199
1140.00,50.205
1141.00,50.189
1142.00,50.177
1143.00,50.206
1144.00,50.165
1145.00,50.166
1146.00,50.163
1147.00,50.147
1148.00,50.147
1149.00,50.153
1150.00,50.136
1151.00,50.145
1152.00,50.142
1153.00,50.133
1154.00,50.140
1155.00,50.131
1156.00,50.123
1157.00,50.138
1158.00,50.134
1159.00,50.116
1160.00,50.105
1161.00,50.102
1162.00,50.105
1163.00,50.100
1164.00,50.085
1165.00,50.082
1166.00,50.081
1167.00,50.084
1168.00,50.088
1169.00,50.076
1170.00,50.076
1171.00,50.080
1172.00,50.076
1173.00,50.092
1174.00,50.109
1175.00,50.076
1176.00,50.079
1177.00,50.052
1178.00,50.050
1179.00,50.063
1180.00,50.040
1181.00,50.060
1182.00,50.067
1183.00,50.020
1184.00,50.044
1185.00,50.031
1186.00,50.020
1187.00,50.050
1188.00,50.027
1189.00,50.027
1190.00,50.015
1191.00,50.009
1192.00,50.042
1193.00,50.028
1194.00,50.027
1195.00,50.010
1196.00,50.036
1197.00,50.024
1198.00,50.022
1199.00,50.029
1200.00,50.016
1201.00,50.029
1202.00,50.012
1203.00,50.016
1204.00,50.000
1205.00,50.012
1206.00,50.019
1207.00,50.009
1208.00,49.990
1209.00,50.006
1210.00,49.998
1211.00,49.991
1212.00,50.008
1213.00,49.973
1214.00,50.005
1215.00,49.984
1216.00,49.992
1217.00,50.004
1218.00,49.977
1219.00,49.996
1220.00,49.990
1221.00,49.991
1222.00,49.980
1223.00,50.009
1224.00,49.993
1225.00,49.990
1226.00,49.983
1227.00,49.963
1228.00,49.999
1229.00,50.004
1230.00,50.037
1231.00,50.025
1232.00,50.034
1233.00,50.046
1234.00,50.057
1235.00,50.060
1236.00,50.035
1237.00,50.038
1238.00,50.030
1239.00,50.045
1240.00,50.026
1241.00,50.024
1242.00,50.034
1243.00,50.045
1244.00,50.034
1245.00,50.058
1246.00,50.064
1247.00,50.085
1248.00,50.087
1249.00,50.061
1250.00,50.079
1251.00,50.068
1252.00,50.068
1253.00,50.060
1254.00,50.079
1255.00,50.074
1256.00,50.051
1257.00,50.034
1258.00,50.097
1259.00,50.072
1260.00,50.083
1261.00,50.097
1262.00,50.086
1263.00,50.084
1264.00,50.101
1265.00,50.103
1266.00,50.097
1267.00,50.097
1268.00,50.106
1269.00,50.114
1270.00,50.122
1271.00,50.113
1272.00,50.139
1273.00,50.130
1274.00,50.139
1275.00,50.158
1276.00,50.126
1277.00,50.129
1278.00,50.144
1279.00,50.145
1280.00,50.153
1281.00,50.172
1282.00,50.158
1283.00,50.170
1284.00,50.169
1285.00,50.155
1286.00,50.181
1287.00,50.162
1288.00,50.179
1289.00,50.165
1290.00,50.169
1291.00,50.186
1292.00,50.175
1293.00,50.177
1294.00,50.193
1295.00,50.214
1296.00,50.225
1297.00,50.217
1298.00,50.231
1299.00,50.221
1300.00,50.240
1301.00,50.236
1302.00,50.252
1303.00,50.254
1304.00,50.212
1305.00,50.252
1306.00,50.267
1307.00,50.262
1308.00,50.274
1309.00,50.274
1310.00,50.294
1311.00,50.269
1312.00,50.266
1313.00,50.285
1314.00,50.305
1315.00,50.303
1316.00,50.306
1317.00,50.328
1318.00,50.315
1319.00,50.324
1320.00,50.338
1321.00,50.502
1322.00,50.508
1323.00,50.486
1324.00,50.488
1325.00,50.453
1326.00,50.473
1327.00,50.477
1328.00,50.459
1329.00,50.472
1330.00,50.488
1331.00,50.483
1332.00,50.487
1333.00,50.482
1334.00,50.513
1335.00,50.532
1336.00,50.558
1337.00,50.591
1338.00,50.682
1339.00,50.703
1340.00,50.742
1341.00,50.810
1342.00,50.864
1343.00,50.914
1344.00,50.967
1345.00,51.018
1346.00,51.066
1347.00,51.088
1348.00,51.105
1349.00,51.131
1350.00,51.137
1351.00,51.154
1352.00,51.154
1353.00,51.125
1354.00,51.168
1355.00,51.155
1356.00,51.162
1357.00,51.166
1358.00,51.181
1359.00,51.200
1360.00,51.242
1361.00,51.344
1362.00,51.245
1363.00,51.230
1364.00,51.239
1365.00,51.200
1366.00,51.227
1367.00,51.206
1368.00,51.136
1369.00,51.172
1370.00,51.168
1371.00,51.166
1372.00,51.151
1373.00,51.154
1374.00,51.176
1375.00,51.149
1376.00,51.158
1377.00,51.150
1378.00,51.204
1379.00,51.179
1380.00,51.153
1381.00,51.177
1382.00,51.179
1383.00,51.135
1384.00,51.095
1385.00,51.131
1386.00,51.170
1387.00,51.119
1388.00,51.090
1389.00,51.134
1390.00,51.134
1391.00,51.111
1392.00,51.090
1393.00,51.126
1394.00,51.140
1395.00,51.109
1396.00,51.091
1397.00,51.105
1398.00,51.143
1399.00,51.137
1400.00,51.233
1401.00,51.106
1402.00,51.152
1403.00,51.142
1404.00,51.134
1405.00,51.162
1406.00,51.177
1407.00,51.196
1408.00,51.184
1409.00,51.187
1410.00,51.197
1411.00,51.216
1412.00,51.288
1413.00,51.382
1414.00,51.202
1415.00,51.255
1416.00,51.255
1417.00,51.261
1418.00,51.280
1419.00,51.265
1420.00,51.307
1421.00,51.329
1422.00,51.326
1423.00,51.357
1424.00,51.373
1425.00,51.360
1426.00,51.385
1427.00,51.396
1428.00,51.393
1429.00,51.408
1430.00,51.414
1431.00,51.430
1432.00,51.458
1433.00,51.463
1434.00,51.472
1435.00,51.512
1436.00,51.510
1437.00,51.516
1438.00,51.525
1439.00,51.544
1440.00,51.572
1441.00,51.568
1442.00,51.592
1443.00,51.627
1444.00,51.615
1445.00,51.616
1446.00,51.656
1447.00,51.664
1448.00,51.698
1449.00,51.707
1450.00,51.699
1451.00,51.736
1452.00,51.738
1453.00,51.741
1454.00,51.749
1455.00,51.769
1456.00,51.809
1457.00,51.802
1458.00,51.797
1459.00,51.838
1460.00,51.859
1461.00,51.874
1462.00,51.903
1463.00,51.911
1464.00,51.916
1465.00,51.932
1466.00,51.920
1467.00,51.948
1468.00,51.991
1469.00,51.971
1470.00,51.994
1471.00,52.000
1472.00,52.019
1473.00,52.032
1474.00,52.054
1475.00,52.076
1476.00,52.096
1477.00,52.072
1478.00,52.089
1479.00,52.117
1480.00,52.095
1481.00,52.116
1482.00,52.145
1483.00,52.142
1484.00,52.168
1485.00,52.182
1486.00,52.189
1487.00,52.209
1488.00,52.214
1489.00,52.230
1490.00,52.236
1491.00,52.231
1492.00,52.261
1493.00,52.253
1494.00,52.277
1495.00,52.282
1496.00,52.292
1497.00,52.297
1498.00,52.309
1499.00,52.319
1500.00,52.352
1501.00, 
1502.00, 
1503.00, 
1504.00, 
1505.00, 
1506.00, 
1507.00, 
1508.00, 
1509.00, 
1510.00, 
1511.00, 
1512.00, 
1513.00, 
1514.00, 
1515.00, 
1516.00, 
1517.00, 
1518.00, 
1519.00, 
1520.00, 
1521.00, 
1522.00, 
1523.00, 
1524.00, 
1525.00, 
1526.00, 
1527.00, 
1528.00, 
1529.00, 
1530.00, 
1531.00, 
1532.00, 
1533.00, 
1534.00, 
1535.00, 
1536.00, 
1537.00, 
1538.00, 
1539.00, 
1540.00, 
1541.00, 
1542.00, 
1543.00, 
1544.00, 
1545.00, 
1546.00, 
1547.00, 
1548.00, 
1549.00, 
1550.00, 
1551.00, 
1552.00, 
1553.00, 
1554.00, 
1555.00, 
1556.00, 
1557.00, 
1558.00, 
1559.00, 
1560.00, 
1561.00, 
1562.00, 
1563.00, 
1564.00, 
1565.00, 
1566.00, 
1567.00, 
1568.00, 
1569.00, 
1570.00, 
1571.00, 
1572.00, 
1573.00, 
1574.00, 
1575.00, 
1576.00, 
1577.00, 
1578.00, 
1579.00, 
1580.00, 
1581.00, 
1582.00, 
1583.00, 
1584.00, 
1585.00, 
1586.00, 
1587.00, 
1588.00, 
1589.00, 
1590.00, 
1591.00, 
1592.00, 
1593.00, 
1594.00, 
1595.00, 
1596.00, 
1597.00, 
1598.00, 
1599.00, 
1600.00, 
1601.00, 
1602.00, 
1603.00, 
1604.00, 
1605.00, 
1606.00, 
1607.00, 
1608.00, 
1609.00, 
1610.00, 
1611.00, 
1612.00, 
1613.00, 
1614.00, 
1615.00, 
1616.00, 
1617.00, 
1618.00, 
1619.00, 
1620.00, 
1621.00, 
1622.00, 
1623.00, 
1624.00, 
1625.00, 
1626.00, 
1627.00, 
1628.00, 
1629.00, 
1630.00, 
1631.00, 
1632.00, 
1633.00, 
1634.00, 
1635.00, 
1636.00, 
1637.00, 
1638.00, 
1639.00, 
1640.00, 
1641.00, 
1642.00, 
1643.00, 
1644.00, 
1645.00, 
1646.00, 
1647.00, 
1648.00, 
1649.00, 
1650.00, 
1651.00, 
1652.00, 
1653.00, 
1654.00, 
1655.00, 
1656.00, 
1657.00, 
1658.00, 
1659.00, 
1660.00, 
1661.00, 
1662.00, 
1663.00, 
1664.00, 
1665.00, 
1666.00, 
1667.00, 
1668.00, 
1669.00, 
1670.00, 
1671.00, 
1672.00, 
1673.00, 
1674.00, 
1675.00, 
1676.00, 
1677.00, 
1678.00, 
1679.00, 
1680.00, 
1681.00, 
1682.00, 
1683.00, 
1684.00, 
1685.00, 
1686.00, 
1687.00, 
1688.00, 
1689.00, 
1690.00, 
1691.00, 
1692.00, 
1693.00, 
1694.00, 
1695.00, 
1696.00, 
1697.00, 
1698.00, 
1699.00, 
1700.00, 
1701.00, 
1702.00, 
1703.00, 
1704.00, 
1705.00, 
1706.00, 
1707.00, 
1708.00, 
1709.00, 
1710.00, 
1711.00, 
1712.00, 
1713.00, 
1714.00, 
1715.00, 
1716.00, 
1717.00, 
1718.00, 
1719.00, 
1720.00, 
1721.00, 
1722.00, 
1723.00, 
1724.00, 
1725.00, 
1726.00, 
1727.00, 
1728.00, 
1729.00, 
1730.00, 
1731.00, 
1732.00, 
1733.00, 
1734.00, 
1735.00, 
1736.00, 
1737.00, 
1738.00, 
1739.00, 
1740.00, 
1741.00, 
1742.00, 
1743.00, 
1744.00, 
1745.00, 
1746.00, 
1747.00, 
1748.00, 
1749.00, 
1750.00, 
1751.00, 
1752.00, 
1753.00, 
1754.00, 
1755.00, 
1756.00, 
1757.00, 
1758.00, 
1759.00, 
1760.00, 
1761.00, 
1762.00, 
1763.00, 
1764.00, 
1765.00, 
1766.00, 
1767.00, 
1768.00, 
1769.00, 
1770.00, 
1771.00, 
1772.00, 
1773.00, 
1774.00, 
1775.00, 
1776.00, 
1777.00, 
1778.00, 
1779.00, 
1780.00, 
1781.00, 
1782.00, 
1783.00, 
1784.00, 
1785.00, 
1786.00, 
1787.00, 
1788.00, 
1789.00, 
1790.00, 
1791.00, 
1792.00, 
1793.00, 
1794.00, 
1795.00, 
1796.00, 
1797.00, 
1798.00, 
1799.00, 
1800.00, 
1801.00, 
1802.00, 
1803.00, 
1804.00, 
1805.00, 
1806.00, 
1807.00, 
1808.00, 
1809.00, 
1810.00, 
1811.00, 
1812.00, 
1813.00, 
1814.00, 
1815.00, 
1816.00, 
1817.00, 
1818.00, 
1819.00, 
1820.00, 
1821.00, 
1822.00, 
1823.00, 
1824.00, 
1825.00, 
1826.00, 
1827.00, 
1828.00, 
1829.00, 
1830.00, 
1831.00, 
1832.00, 
1833.00, 
1834.00, 
1835.00, 
1836.00, 
1837.00, 
1838.00, 
1839.00, 
1840.00, 
1841.00, 
1842.00, 
1843.00, 
1844.00, 
1845.00, 
1846.00, 
1847.00, 
1848.00, 
1849.00, 
1850.00, 
1851.00, 
1852.00, 
1853.00, 
1854.00, 
1855.00, 
1856.00, 
1857.00, 
1858.00, 
1859.00, 
1860.00, 
1861.00, 
1862.00, 
1863.00, 
1864.00, 
1865.00, 
1866.00, 
1867.00, 
1868.00, 
1869.00, 
1870.00, 
1871.00, 
1872.00, 
1873.00, 
1874.00, 
1875.00, 
1876.00, 
1877.00, 
1878.00, 
1879.00, 
1880.00, 
1881.00, 
1882.00, 
1883.00, 
1884.00, 
1885.00, 
1886.00, 
1887.00, 
1888.00, 
1889.00, 
1890.00, 
1891.00, 
1892.00, 
1893.00, 
1894.00, 
1895.00, 
1896.00, 
1897.00, 
1898.00, 
1899.00, 
1900.00, 
1901.00, 
1902.00, 
1903.00, 
1904.00, 
1905.00, 
1906.00, 
1907.00, 
1908.00, 
1909.00, 
1910.00, 
1911.00, 
1912.00, 
1913.00, 
1914.00, 
1915.00, 
1916.00, 
1917.00, 
1918.00, 
1919.00, 
1920.00, 
1921.00, 
1922.00, 
1923.00, 
1924.00, 
1925.00, 
1926.00, 
1927.00, 
1928.00, 
1929.00, 
1930.00, 
1931.00, 
1932.00, 
1933.00, 
1934.00, 
1935.00, 
1936.00, 
1937.00, 
1938.00, 
1939.00, 
1940.00, 
1941.00, 
1942.00, 
1943.00, 
1944.00, 
1945.00, 
1946.00, 
1947.00, 
1948.00, 
1949.00, 
1950.00, 
1951.00, 
1952.00, 
1953.00, 
1954.00, 
1955.00, 
1956.00, 
1957.00, 
1958.00, 
1959.00, 
1960.00, 
1961.00, 
1962.00, 
1963.00, 
1964.00, 
1965.00, 
1966.00, 
1967.00, 
1968.00, 
1969.00, 
1970.00, 
1971.00, 
1972.00, 
1973.00, 
1974.00, 
1975.00, 
1976.00, 
1977.00, 
1978.00, 
1979.00, 
1980.00, 
1981.00, 
1982.00, 
1983.00, 
1984.00, 
1985.00, 
1986.00, 
1987.00, 
1988.00, 
1989.00, 
1990.00, 
1991.00, 
1992.00, 
1993.00, 
1994.00, 
1995.00, 
1996.00, 
1997.00, 
1998.00, 
1999.00, 
2000.00, 
2001.00, 
2002.00, 
2003.00, 
2004.00, 
2005.00, 
2006.00, 
2007.00, 
2008.00, 
2009.00, 
2010.00, 
2011.00, 
2012.00, 
2013.00, 
2014.00, 
2015.00, 
2016.00, 
2017.00, 
2018.00, 
2019.00, 
2020.00, 
2021.00, 
2022.00, 
2023.00, 
2024.00, 
2025.00, 
2026.00, 
2027.00, 
2028.00, 
2029.00, 
2030.00, 
2031.00, 
2032.00, 
2033.00, 
2034.00, 
2035.00, 
2036.00, 
2037.00, 
2038.00, 
2039.00, 
2040.00, 
2041.00, 
2042.00, 
2043.00, 
2044.00, 
2045.00, 
2046.00, 
2047.00, 
2048.00, 
2049.00, 
2050.00, 
2051.00, 
2052.00, 
2053.00, 
2054.00, 
2055.00, 
2056.00, 
2057.00, 
2058.00, 
2059.00, 
2060.00, 
2061.00, 
2062.00, 
2063.00, 
2064.00, 
2065.00, 
2066.00, 
2067.00, 
2068.00, 
2069.00, 
2070.00, 
2071.00, 
2072.00, 
2073.00, 
2074.00, 
2075.00, 
2076.00, 
2077.00, 
2078.00, 
2079.00, 
2080.00, 
2081.00, 
2082.00, 
2083.00, 
2084.00, 
2085.00, 
2086.00, 
2087.00, 
2088.00, 
2089.00, 
2090.00, 
2091.00, 
2092.00, 
2093.00, 
2094.00, 
2095.00, 
2096.00, 
2097.00, 
2098.00, 
2099.00, 
2100.00, 
2101.00, 
2102.00, 
2103.00, 
2104.00, 
2105.00, 
2106.00, 
2107.00, 
2108.00, 
2109.00, 
2110.00, 
2111.00, 
2112.00, 
2113.00, 
2114.00, 
2115.00, 
2116.00, 
2117.00, 
2118.00, 
2119.00, 
2120.00, 
2121.00, 
2122.00, 
2123.00, 
2124.00, 
2125.00, 
2126.00, 
2127.00, 
2128.00, 
2129.00, 
2130.00, 
2131.00, 
2132.00, 
2133.00, 
2134.00, 
2135.00, 
2136.00, 
2137.00, 
2138.00, 
2139.00, 
2140.00, 
2141.00, 
2142.00, 
2143.00, 
2144.00, 
2145.00, 
2146.00, 
2147.00, 
2148.00, 
2149.00, 
2150.00, 
2151.00, 
2152.00, 
2153.00, 
2154.00, 
2155.00, 
2156.00, 
2157.00, 
2158.00, 
2159.00, 
2160.00, 
2161.00, 
2162.00, 
2163.00, 
2164.00, 
2165.00, 
2166.00, 
2167.00, 
2168.00, 
2169.00, 
2170.00, 
2171.00, 
2172.00, 
2173.00, 
2174.00, 
2175.00, 
2176.00, 
2177.00, 
2178.00, 
2179.00, 
2180.00, 
2181.00, 
2182.00, 
2183.00, 
2184.00, 
2185.00, 
2186.00, 
2187.00, 
2188.00, 
2189.00, 
2190.00, 
2191.00, 
2192.00, 
2193.00, 
2194.00, 
2195.00, 
2196.00, 
2197.00, 
2198.00, 
2199.00, 
2200.00, 
2201.00, 
2202.00, 
2203.00, 
2204.00, 
2205.00, 
2206.00, 
2207.00, 
2208.00, 
2209.00, 
2210.00, 
2211.00, 
2212.00, 
2213.00, 
2214.00, 
2215.00, 
2216.00, 
2217.00, 
2218.00, 
2219.00, 
2220.00, 
2221.00, 
2222.00, 
2223.00, 
2224.00, 
2225.00, 
2226.00, 
2227.00, 
2228.00, 
2229.00, 
2230.00, 
2231.00, 
2232.00, 
2233.00, 
2234.00, 
2235.00, 
2236.00, 
2237.00, 
2238.00, 
2239.00, 
2240.00, 
2241.00, 
2242.00, 
2243.00, 
2244.00, 
2245.00, 
2246.00, 
2247.00, 
2248.00, 
2249.00, 
2250.00, 
2251.00, 
2252.00, 
2253.00, 
2254.00, 
2255.00, 
2256.00, 
2257.00, 
2258.00, 
2259.00, 
2260.00, 
2261.00, 
2262.00, 
2263.00, 
2264.00, 
2265.00, 
2266.00, 
2267.00, 
2268.00, 
2269.00, 
2270.00, 
2271.00, 
2272.00, 
2273.00, 
2274.00, 
2275.00, 
2276.00, 
2277.00, 
2278.00, 
2279.00, 
2280.00, 
2281.00, 
2282.00, 
2283.00, 
2284.00, 
2285.00, 
2286.00, 
2287.00, 
2288.00, 
2289.00, 
2290.00, 
2291.00, 
2292.00, 
2293.00, 
2294.00, 
2295.00, 
2296.00, 
2297.00, 
2298.00, 
2299.00, 
2300.00, 
2301.00, 
2302.00, 
2303.00, 
2304.00, 
2305.00, 
2306.00, 
2307.00, 
2308.00, 
2309.00, 
2310.00, 
2311.00, 
2312.00, 
2313.00, 
2314.00, 
2315.00, 
2316.00, 
2317.00, 
2318.00, 
2319.00, 
2320.00, 
2321.00, 
2322.00, 
2323.00, 
2324.00, 
2325.00, 
2326.00, 
2327.00, 
2328.00, 
2329.00, 
2330.00, 
2331.00, 
2332.00, 
2333.00, 
2334.00, 
2335.00, 
2336.00, 
2337.00, 
2338.00, 
2339.00, 
2340.00, 
2341.00, 
2342.00, 
2343.00, 
2344.00, 
2345.00, 
2346.00, 
2347.00, 
2348.00, 
2349.00, 
2350.00, 
2351.00, 
2352.00, 
2353.00, 
2354.00, 
2355.00, 
2356.00, 
2357.00, 
2358.00, 
2359.00, 
2360.00, 
2361.00, 
2362.00, 
2363.00, 
2364.00, 
2365.00, 
2366.00, 
2367.00, 
2368.00, 
2369.00, 
2370.00, 
2371.00, 
2372.00, 
2373.00, 
2374.00, 
2375.00, 
2376.00, 
2377.00, 
2378.00, 
2379.00, 
2380.00, 
2381.00, 
2382.00, 
2383.00, 
2384.00, 
2385.00, 
2386.00, 
2387.00, 
2388.00, 
2389.00, 
2390.00, 
2391.00, 
2392.00, 
2393.00, 
2394.00, 
2395.00, 
2396.00, 
2397.00, 
2398.00, 
2399.00, 
2400.00, 
2401.00, 
2402.00, 
2403.00, 
2404.00, 
2405.00, 
2406.00, 
2407.00, 
2408.00, 
2409.00, 
2410.00, 
2411.00, 
2412.00, 
2413.00, 
2414.00, 
2415.00, 
2416.00, 
2417.00, 
2418.00, 
2419.00, 
2420.00, 
2421.00, 
2422.00, 
2423.00, 
2424.00, 
2425.00, 
2426.00, 
2427.00, 
2428.00, 
2429.00, 
2430.00, 
2431.00, 
2432.00, 
2433.00, 
2434.00, 
2435.00, 
2436.00, 
2437.00, 
2438.00, 
2439.00, 
2440.00, 
2441.00, 
2442.00, 
2443.00, 
2444.00, 
2445.00, 
2446.00, 
2447.00, 
2448.00, 
2449.00, 
2450.00, 
2451.00, 
2452.00, 
2453.00, 
2454.00, 
2455.00, 
2456.00, 
2457.00, 
2458.00, 
2459.00, 
2460.00, 
2461.00, 
2462.00, 
2463.00, 
2464.00, 
2465.00, 
2466.00, 
2467.00, 
2468.00, 
2469.00, 
2470.00, 
2471.00, 
2472.00, 
2473.00, 
2474.00, 
2475.00, 
2476.00, 
2477.00, 
2478.00, 
2479.00, 
2480.00, 
2481.00, 
2482.00, 
2483.00, 
2484.00, 
2485.00, 
2486.00, 
2487.00, 
2488.00, 
2489.00, 
2490.00, 
2491.00, 
2492.00, 
2493.00, 
2494.00, 
2495.00, 
2496.00, 
2497.00, 
2498.00, 
2499.00, 
2500.00, 
2501.00, 
2502.00, 
2503.00, 
2504.00, 
2505.00, 
2506.00, 
2507.00, 
2508.00, 
2509.00, 
2510.00, 
2511.00, 
2512.00, 
2513.00, 
2514.00, 
2515.00, 
2516.00, 
2517.00, 
2518.00, 
2519.00, 
2520.00, 
2521.00, 
2522.00, 
2523.00, 
2524.00, 
2525.00, 
2526.00, 
2527.00, 
2528.00, 
2529.00, 
2530.00, 
2531.00, 
2532.00, 
2533.00, 
2534.00, 
2535.00, 
2536.00, 
2537.00, 
2538.00, 
2539.00, 
2540.00, 
2541.00, 
2542.00, 
2543.00, 
2544.00, 
2545.00, 
2546.00, 
2547.00, 
2548.00, 
2549.00, 
2550.00, 
2551.00, 
2552.00, 
2553.00, 
2554.00, 
2555.00, 
2556.00, 
2557.00, 
2558.00, 
2559.00, 
2560.00, 
2561.00, 
2562.00, 
2563.00, 
2564.00, 
2565.00, 
2566.00, 
2567.00, 
2568.00, 
2569.00, 
2570.00, 
2571.00, 
2572.00, 
2573.00, 
2574.00, 
2575.00, 
2576.00, 
2577.00, 
2578.00, 
2579.00, 
2580.00, 
2581.00, 
2582.00, 
2583.00, 
2584.00, 
2585.00, 
2586.00, 
2587.00, 
2588.00, 
2589.00, 
2590.00, 
2591.00, 
2592.00, 
2593.00, 
2594.00, 
2595.00, 
2596.00, 
2597.00, 
2598.00, 
2599.00, 
2600.00, 
