"2cP4 - RawData"
"Wavelength nm.","T%"
200.00,0.001
201.00,-0.001
202.00,0.003
203.00,0.002
204.00,-0.000
205.00,-0.000
206.00,0.001
207.00,-0.001
208.00,0.004
209.00,0.004
210.00,0.003
211.00,0.000
212.00,0.001
213.00,-0.001
214.00,0.000
215.00,-0.000
216.00,0.001
217.00,-0.001
218.00,0.003
219.00,0.000
220.00,0.004
221.00,-0.003
222.00,-0.002
223.00,0.001
224.00,0.000
225.00,0.002
226.00,0.001
227.00,-0.000
228.00,-0.001
229.00,0.000
230.00,0.002
231.00,-0.001
232.00,0.002
233.00,0.000
234.00,-0.000
235.00,0.001
236.00,-0.001
237.00,0.001
238.00,0.001
239.00,0.000
240.00,-0.000
241.00,-0.000
242.00,0.002
243.00,0.001
244.00,-0.000
245.00,0.000
246.00,-0.002
247.00,0.000
248.00,0.001
249.00,0.001
250.00,0.001
251.00,0.003
252.00,-0.000
253.00,-0.002
254.00,0.000
255.00,-0.000
256.00,0.000
257.00,-0.001
258.00,0.000
259.00,-0.001
260.00,0.001
261.00,-0.000
262.00,0.000
263.00,-0.001
264.00,0.000
265.00,-0.000
266.00,0.001
267.00,-0.000
268.00,-0.000
269.00,-0.001
270.00,-0.002
271.00,-0.001
272.00,-0.000
273.00,0.000
274.00,0.001
275.00,-0.001
276.00,-0.001
277.00,-0.000
278.00,0.002
279.00,0.002
280.00,-0.000
281.00,0.001
282.00,-0.000
283.00,-0.002
284.00,-0.000
285.00,-0.000
286.00,0.003
287.00,-0.000
288.00,-0.001
289.00,-0.000
290.00,0.003
291.00,0.000
292.00,0.001
293.00,0.000
294.00,0.001
295.00,0.001
296.00,-0.000
297.00,-0.001
298.00,0.000
299.00,0.002
300.00,0.002
301.00,0.003
302.00,0.005
303.00,0.005
304.00,0.007
305.00,0.014
306.00,0.020
307.00,0.030
308.00,0.048
309.00,0.073
310.00,0.099
311.00,0.134
312.00,0.179
313.00,0.245
314.00,0.323
315.00,0.430
316.00,0.544
317.00,0.686
318.00,0.849
319.00,1.034
320.00,1.261
321.00,1.510
322.00,1.779
323.00,2.113
324.00,2.438
325.00,2.781
326.00,3.121
327.00,3.524
328.00,3.948
329.00,4.347
330.00,4.795
331.00,5.249
332.00,5.695
333.00,6.163
334.00,6.609
335.00,7.040
336.00,7.514
337.00,7.998
338.00,8.441
339.00,8.882
340.00,9.255
341.00,9.686
342.00,10.050
343.00,10.411
344.00,10.769
345.00,11.125
346.00,11.433
347.00,11.702
348.00,12.015
349.00,12.270
350.00,12.526
351.00,12.724
352.00,12.929
353.00,13.127
354.00,13.313
355.00,13.479
356.00,13.652
357.00,13.764
358.00,13.913
359.00,14.035
360.00,14.178
361.00,14.269
362.00,14.349
363.00,14.434
364.00,14.487
365.00,14.523
366.00,14.590
367.00,14.619
368.00,14.627
369.00,14.645
370.00,14.668
371.00,14.665
372.00,14.634
373.00,14.660
374.00,14.628
375.00,14.603
376.00,14.581
377.00,14.525
378.00,14.455
379.00,14.382
380.00,14.354
381.00,14.334
382.00,14.325
383.00,14.308
384.00,14.313
385.00,14.311
386.00,14.280
387.00,14.322
388.00,14.342
389.00,14.338
390.00,14.345
391.00,14.326
392.00,14.314
393.00,14.305
394.00,14.304
395.00,14.306
396.00,14.286
397.00,14.292
398.00,14.258
399.00,14.264
400.00,14.251
401.00,14.208
402.00,14.240
403.00,14.254
404.00,14.247
405.00,14.215
406.00,14.229
407.00,14.204
408.00,14.204
409.00,14.135
410.00,14.126
411.00,14.112
412.00,14.095
413.00,14.106
414.00,14.116
415.00,14.102
416.00,14.129
417.00,14.128
418.00,14.146
419.00,14.158
420.00,14.245
421.00,14.227
422.00,14.231
423.00,14.267
424.00,14.306
425.00,14.338
426.00,14.350
427.00,14.380
428.00,14.404
429.00,14.477
430.00,14.502
431.00,14.562
432.00,14.625
433.00,14.650
434.00,14.723
435.00,14.784
436.00,14.845
437.00,14.906
438.00,14.949
439.00,15.031
440.00,15.111
441.00,15.197
442.00,15.279
443.00,15.377
444.00,15.424
445.00,15.490
446.00,15.589
447.00,15.677
448.00,15.776
449.00,15.875
450.00,15.967
451.00,16.045
452.00,16.142
453.00,16.284
454.00,16.367
455.00,16.462
456.00,16.591
457.00,16.687
458.00,16.802
459.00,16.943
460.00,17.069
461.00,17.176
462.00,17.305
463.00,17.439
464.00,17.562
465.00,17.681
466.00,17.828
467.00,17.939
468.00,18.053
469.00,18.201
470.00,18.316
471.00,18.420
472.00,18.539
473.00,18.633
474.00,18.781
475.00,18.916
476.00,19.025
477.00,19.159
478.00,19.278
479.00,19.479
480.00,19.607
481.00,19.737
482.00,19.902
483.00,20.051
484.00,20.229
485.00,20.353
486.00,20.526
487.00,20.678
488.00,20.828
489.00,20.973
490.00,21.158
491.00,21.266
492.00,21.412
493.00,21.629
494.00,21.751
495.00,21.842
496.00,21.987
497.00,22.077
498.00,22.267
499.00,22.347
500.00,22.526
501.00,22.676
502.00,22.845
503.00,22.979
504.00,23.072
505.00,23.225
506.00,23.362
507.00,23.458
508.00,23.608
509.00,23.785
510.00,23.890
511.00,24.000
512.00,24.212
513.00,24.323
514.00,24.412
515.00,24.588
516.00,24.719
517.00,24.831
518.00,24.989
519.00,25.021
520.00,25.059
521.00,25.277
522.00,25.378
523.00,25.435
524.00,25.538
525.00,25.686
526.00,25.805
527.00,25.864
528.00,25.941
529.00,26.147
530.00,26.272
531.00,26.394
532.00,26.485
533.00,26.625
534.00,26.712
535.00,26.799
536.00,26.885
537.00,26.979
538.00,27.047
539.00,27.136
540.00,27.221
541.00,27.269
542.00,27.351
543.00,27.436
544.00,27.546
545.00,27.634
546.00,27.684
547.00,27.796
548.00,27.890
549.00,27.943
550.00,28.024
551.00,28.137
552.00,28.207
553.00,28.268
554.00,28.339
555.00,28.363
556.00,28.479
557.00,28.524
558.00,28.598
559.00,28.659
560.00,28.765
561.00,28.790
562.00,28.901
563.00,28.922
564.00,29.008
565.00,29.018
566.00,29.041
567.00,29.104
568.00,29.142
569.00,29.290
570.00,29.329
571.00,29.252
572.00,29.348
573.00,29.433
574.00,29.453
575.00,29.505
576.00,29.547
577.00,29.620
578.00,29.730
579.00,29.826
580.00,29.825
581.00,29.981
582.00,30.042
583.00,29.997
584.00,30.172
585.00,30.208
586.00,30.228
587.00,30.261
588.00,30.366
589.00,30.346
590.00,30.476
591.00,30.544
592.00,30.506
593.00,30.593
594.00,30.684
595.00,30.798
596.00,30.790
597.00,30.826
598.00,31.015
599.00,30.970
600.00,31.058
601.00,31.110
602.00,31.131
603.00,31.203
604.00,31.237
605.00,31.309
606.00,31.362
607.00,31.374
608.00,31.420
609.00,31.548
610.00,31.710
611.00,31.651
612.00,31.667
613.00,31.730
614.00,31.803
615.00,31.868
616.00,32.049
617.00,32.052
618.00,32.076
619.00,32.160
620.00,32.205
621.00,32.323
622.00,32.350
623.00,32.420
624.00,32.538
625.00,32.613
626.00,32.717
627.00,32.749
628.00,32.734
629.00,32.820
630.00,32.989
631.00,33.133
632.00,33.211
633.00,33.334
634.00,33.412
635.00,33.521
636.00,33.616
637.00,33.684
638.00,33.752
639.00,33.896
640.00,33.964
641.00,34.029
642.00,34.162
643.00,34.263
644.00,34.334
645.00,34.416
646.00,34.670
647.00,34.717
648.00,34.746
649.00,34.807
650.00,34.919
651.00,35.157
652.00,35.213
653.00,35.234
654.00,35.295
655.00,35.513
656.00,35.879
657.00,35.489
658.00,36.331
659.00,36.070
660.00,36.181
661.00,36.182
662.00,36.309
663.00,36.437
664.00,36.770
665.00,36.955
666.00,36.877
667.00,36.918
668.00,37.056
669.00,37.280
670.00,37.616
671.00,37.643
672.00,37.779
673.00,37.792
674.00,37.958
675.00,38.050
676.00,38.288
677.00,38.513
678.00,38.391
679.00,38.636
680.00,38.784
681.00,38.944
682.00,39.051
683.00,39.090
684.00,39.359
685.00,39.469
686.00,39.452
687.00,39.605
688.00,39.761
689.00,39.809
690.00,40.104
691.00,40.309
692.00,40.253
693.00,40.268
694.00,40.547
695.00,40.793
696.00,40.905
697.00,40.915
698.00,41.056
699.00,41.264
700.00,41.403
701.00,41.449
702.00,41.601
703.00,41.868
704.00,41.926
705.00,41.937
706.00,42.102
707.00,42.219
708.00,42.215
709.00,42.622
710.00,42.946
711.00,42.490
712.00,42.695
713.00,42.992
714.00,43.118
715.00,43.196
716.00,43.217
717.00,43.479
718.00,43.607
719.00,43.608
720.00,43.729
721.00,48.035
722.00,48.107
723.00,48.206
724.00,48.198
725.00,48.418
726.00,48.354
727.00,48.487
728.00,48.544
729.00,48.672
730.00,48.691
731.00,48.732
732.00,48.902
733.00,49.006
734.00,49.012
735.00,49.130
736.00,49.200
737.00,49.289
738.00,49.323
739.00,49.429
740.00,49.475
741.00,49.549
742.00,49.646
743.00,49.630
744.00,49.708
745.00,49.675
746.00,49.804
747.00,49.790
748.00,49.858
749.00,49.883
750.00,50.011
751.00,50.002
752.00,50.071
753.00,50.111
754.00,50.124
755.00,50.127
756.00,50.190
757.00,50.304
758.00,50.276
759.00,50.300
760.00,50.369
761.00,50.499
762.00,50.503
763.00,50.570
764.00,50.568
765.00,50.692
766.00,50.717
767.00,50.750
768.00,50.680
769.00,50.723
770.00,50.817
771.00,50.841
772.00,50.953
773.00,51.002
774.00,50.962
775.00,51.069
776.00,51.030
777.00,51.046
778.00,51.107
779.00,51.188
780.00,51.077
781.00,51.210
782.00,51.256
783.00,51.177
784.00,51.263
785.00,51.240
786.00,51.338
787.00,51.302
788.00,51.317
789.00,51.333
790.00,51.310
791.00,51.361
792.00,51.407
793.00,51.368
794.00,51.385
795.00,51.476
796.00,51.418
797.00,51.411
798.00,51.438
799.00,51.398
800.00,51.460
801.00,51.399
802.00,51.377
803.00,51.413
804.00,51.387
805.00,51.443
806.00,51.419
807.00,51.381
808.00,51.431
809.00,51.449
810.00,51.491
811.00,51.477
812.00,51.544
813.00,51.434
814.00,51.476
815.00,51.396
816.00,51.467
817.00,51.452
818.00,51.362
819.00,51.436
820.00,51.352
821.00,51.428
822.00,51.466
823.00,51.357
824.00,51.406
825.00,51.359
826.00,51.522
827.00,51.499
828.00,51.364
829.00,51.366
830.00,51.409
831.00,53.520
832.00,53.499
833.00,53.462
834.00,53.486
835.00,53.463
836.00,53.479
837.00,53.449
838.00,53.460
839.00,53.472
840.00,53.449
841.00,53.455
842.00,53.401
843.00,53.418
844.00,53.422
845.00,53.365
846.00,53.388
847.00,53.360
848.00,53.344
849.00,53.321
850.00,53.283
851.00,53.255
852.00,53.249
853.00,53.202
854.00,53.168
855.00,53.155
856.00,53.158
857.00,53.184
858.00,53.137
859.00,53.091
860.00,53.119
861.00,53.232
862.00,53.091
863.00,53.074
864.00,53.052
865.00,53.078
866.00,53.074
867.00,53.041
868.00,53.056
869.00,53.041
870.00,53.080
871.00,53.037
872.00,53.061
873.00,53.038
874.00,53.037
875.00,52.988
876.00,52.997
877.00,53.194
878.00,53.006
879.00,52.973
880.00,52.961
881.00,52.957
882.00,52.952
883.00,52.927
884.00,52.910
885.00,52.896
886.00,52.891
887.00,52.882
888.00,52.846
889.00,52.843
890.00,52.838
891.00,52.820
892.00,52.818
893.00,52.806
894.00,52.800
895.00,52.775
896.00,52.734
897.00,52.732
898.00,52.691
899.00,52.686
900.00,52.684
901.00,52.662
902.00,52.684
903.00,52.650
904.00,52.635
905.00,52.646
906.00,52.636
907.00,52.587
908.00,52.564
909.00,52.565
910.00,52.528
911.00,52.553
912.00,52.538
913.00,52.479
914.00,52.473
915.00,52.464
916.00,52.437
917.00,52.417
918.00,52.432
919.00,52.390
920.00,52.364
921.00,52.364
922.00,52.343
923.00,52.320
924.00,52.273
925.00,52.281
926.00,52.267
927.00,52.231
928.00,52.233
929.00,52.259
930.00,52.201
931.00,52.173
932.00,52.278
933.00,52.179
934.00,52.167
935.00,52.129
936.00,52.098
937.00,52.094
938.00,52.058
939.00,52.058
940.00,52.051
941.00,52.027
942.00,52.009
943.00,52.003
944.00,51.997
945.00,51.976
946.00,51.928
947.00,51.899
948.00,51.916
949.00,51.907
950.00,51.887
951.00,51.868
952.00,51.828
953.00,51.817
954.00,51.785
955.00,51.760
956.00,51.774
957.00,51.723
958.00,51.722
959.00,51.698
960.00,51.703
961.00,51.659
962.00,51.658
963.00,51.603
964.00,51.610
965.00,51.615
966.00,51.598
967.00,51.599
968.00,51.559
969.00,51.588
970.00,51.574
971.00,51.585
972.00,51.557
973.00,51.598
974.00,51.611
975.00,51.573
976.00,51.591
977.00,51.568
978.00,51.597
979.00,51.554
980.00,51.576
981.00,51.581
982.00,51.546
983.00,51.560
984.00,51.556
985.00,51.565
986.00,51.528
987.00,51.550
988.00,51.502
989.00,51.502
990.00,51.498
991.00,51.475
992.00,51.488
993.00,51.475
994.00,51.437
995.00,51.437
996.00,51.424
997.00,51.422
998.00,51.402
999.00,51.413
1000.00,51.379
1001.00,51.369
1002.00,51.367
1003.00,51.358
1004.00,51.327
1005.00,51.306
1006.00,51.346
1007.00,51.305
1008.00,51.294
1009.00,51.278
1010.00,51.277
1011.00,51.270
1012.00,51.235
1013.00,51.237
1014.00,51.219
1015.00,51.219
1016.00,51.192
1017.00,51.194
1018.00,51.164
1019.00,51.142
1020.00,51.135
1021.00,51.124
1022.00,51.107
1023.00,51.058
1024.00,51.088
1025.00,51.058
1026.00,51.043
1027.00,51.020
1028.00,51.021
1029.00,51.000
1030.00,50.961
1031.00,50.978
1032.00,50.924
1033.00,50.942
1034.00,50.911
1035.00,50.860
1036.00,50.839
1037.00,50.829
1038.00,50.820
1039.00,50.796
1040.00,50.769
1041.00,50.747
1042.00,50.754
1043.00,50.721
1044.00,50.757
1045.00,50.726
1046.00,50.708
1047.00,50.743
1048.00,50.737
1049.00,50.764
1050.00,50.761
1051.00,50.783
1052.00,50.800
1053.00,50.809
1054.00,50.816
1055.00,50.826
1056.00,50.840
1057.00,50.832
1058.00,50.823
1059.00,50.813
1060.00,50.823
1061.00,50.821
1062.00,50.799
1063.00,50.810
1064.00,50.813
1065.00,50.787
1066.00,50.782
1067.00,50.763
1068.00,50.777
1069.00,50.755
1070.00,50.721
1071.00,50.719
1072.00,50.737
1073.00,50.691
1074.00,50.691
1075.00,50.686
1076.00,50.681
1077.00,50.660
1078.00,50.623
1079.00,50.621
1080.00,50.639
1081.00,50.612
1082.00,50.620
1083.00,50.617
1084.00,50.598
1085.00,50.614
1086.00,50.603
1087.00,50.579
1088.00,50.561
1089.00,50.557
1090.00,50.552
1091.00,50.556
1092.00,50.546
1093.00,50.536
1094.00,50.518
1095.00,50.505
1096.00,50.503
1097.00,50.491
1098.00,50.475
1099.00,50.482
1100.00,50.479
1101.00,50.451
1102.00,50.437
1103.00,50.429
1104.00,50.426
1105.00,50.427
1106.00,50.400
1107.00,50.391
1108.00,50.380
1109.00,50.370
1110.00,50.377
1111.00,50.359
1112.00,50.352
1113.00,50.345
1114.00,50.346
1115.00,50.370
1116.00,50.342
1117.00,50.325
1118.00,50.325
1119.00,50.316
1120.00,50.311
1121.00,50.305
1122.00,50.285
1123.00,50.272
1124.00,50.273
1125.00,50.263
1126.00,50.261
1127.00,50.269
1128.00,50.249
1129.00,50.244
1130.00,50.245
1131.00,50.211
1132.00,50.213
1133.00,50.199
1134.00,50.191
1135.00,50.184
1136.00,50.174
1137.00,50.171
1138.00,50.185
1139.00,50.187
1140.00,50.167
1141.00,50.161
1142.00,50.147
1143.00,50.164
1144.00,50.130
1145.00,50.142
1146.00,50.155
1147.00,50.110
1148.00,50.108
1149.00,50.129
1150.00,50.109
1151.00,50.113
1152.00,50.117
1153.00,50.100
1154.00,50.090
1155.00,50.088
1156.00,50.069
1157.00,50.084
1158.00,50.082
1159.00,50.071
1160.00,50.082
1161.00,50.078
1162.00,50.070
1163.00,50.068
1164.00,50.053
1165.00,50.055
1166.00,50.046
1167.00,50.047
1168.00,50.063
1169.00,50.053
1170.00,50.045
1171.00,50.032
1172.00,50.025
1173.00,50.025
1174.00,50.043
1175.00,50.031
1176.00,50.055
1177.00,50.016
1178.00,50.014
1179.00,50.031
1180.00,50.003
1181.00,50.022
1182.00,50.026
1183.00,49.991
1184.00,49.998
1185.00,50.009
1186.00,49.992
1187.00,50.014
1188.00,50.014
1189.00,50.003
1190.00,50.006
1191.00,49.996
1192.00,50.015
1193.00,50.005
1194.00,49.983
1195.00,49.971
1196.00,49.998
1197.00,49.990
1198.00,49.977
1199.00,49.974
1200.00,49.981
1201.00,50.003
1202.00,49.981
1203.00,49.978
1204.00,49.981
1205.00,49.998
1206.00,49.993
1207.00,49.987
1208.00,49.970
1209.00,49.989
1210.00,49.971
1211.00,49.970
1212.00,49.986
1213.00,49.935
1214.00,49.965
1215.00,49.962
1216.00,49.971
1217.00,49.978
1218.00,49.934
1219.00,49.949
1220.00,49.951
1221.00,49.955
1222.00,49.936
1223.00,49.966
1224.00,49.948
1225.00,49.944
1226.00,49.955
1227.00,49.933
1228.00,49.960
1229.00,49.965
1230.00,49.989
1231.00,49.978
1232.00,49.992
1233.00,49.993
1234.00,50.000
1235.00,49.990
1236.00,49.996
1237.00,50.019
1238.00,49.992
1239.00,49.999
1240.00,49.986
1241.00,49.983
1242.00,50.011
1243.00,50.014
1244.00,49.994
1245.00,50.033
1246.00,50.028
1247.00,50.021
1248.00,50.020
1249.00,50.040
1250.00,50.032
1251.00,50.032
1252.00,50.070
1253.00,50.065
1254.00,50.053
1255.00,50.044
1256.00,50.034
1257.00,50.016
1258.00,50.067
1259.00,50.056
1260.00,50.068
1261.00,50.067
1262.00,50.057
1263.00,50.054
1264.00,50.067
1265.00,50.066
1266.00,50.056
1267.00,50.078
1268.00,50.076
1269.00,50.073
1270.00,50.096
1271.00,50.083
1272.00,50.089
1273.00,50.103
1274.00,50.087
1275.00,50.106
1276.00,50.093
1277.00,50.098
1278.00,50.120
1279.00,50.112
1280.00,50.113
1281.00,50.150
1282.00,50.154
1283.00,50.111
1284.00,50.135
1285.00,50.116
1286.00,50.144
1287.00,50.132
1288.00,50.147
1289.00,50.152
1290.00,50.168
1291.00,50.171
1292.00,50.176
1293.00,50.162
1294.00,50.175
1295.00,50.193
1296.00,50.183
1297.00,50.199
1298.00,50.217
1299.00,50.191
1300.00,50.210
1301.00,50.200
1302.00,50.216
1303.00,50.225
1304.00,50.183
1305.00,50.217
1306.00,50.237
1307.00,50.238
1308.00,50.246
1309.00,50.241
1310.00,50.242
1311.00,50.237
1312.00,50.232
1313.00,50.245
1314.00,50.276
1315.00,50.261
1316.00,50.265
1317.00,50.303
1318.00,50.287
1319.00,50.299
1320.00,50.307
1321.00,50.445
1322.00,50.462
1323.00,50.429
1324.00,50.434
1325.00,50.443
1326.00,50.458
1327.00,50.458
1328.00,50.449
1329.00,50.456
1330.00,50.450
1331.00,50.446
1332.00,50.451
1333.00,50.453
1334.00,50.479
1335.00,50.484
1336.00,50.513
1337.00,50.543
1338.00,50.598
1339.00,50.652
1340.00,50.697
1341.00,50.770
1342.00,50.837
1343.00,50.882
1344.00,50.929
1345.00,50.978
1346.00,51.018
1347.00,51.049
1348.00,51.049
1349.00,51.070
1350.00,51.078
1351.00,51.094
1352.00,51.098
1353.00,51.104
1354.00,51.100
1355.00,51.098
1356.00,51.123
1357.00,51.097
1358.00,51.146
1359.00,51.167
1360.00,51.192
1361.00,51.286
1362.00,51.192
1363.00,51.174
1364.00,51.195
1365.00,51.139
1366.00,51.186
1367.00,51.152
1368.00,51.060
1369.00,51.142
1370.00,51.130
1371.00,51.091
1372.00,51.112
1373.00,51.121
1374.00,51.131
1375.00,51.111
1376.00,51.128
1377.00,51.105
1378.00,51.155
1379.00,51.122
1380.00,51.110
1381.00,51.135
1382.00,51.125
1383.00,51.113
1384.00,51.098
1385.00,51.106
1386.00,51.145
1387.00,51.079
1388.00,51.075
1389.00,51.131
1390.00,51.131
1391.00,51.082
1392.00,51.044
1393.00,51.101
1394.00,51.095
1395.00,51.078
1396.00,51.027
1397.00,51.071
1398.00,51.124
1399.00,51.103
1400.00,51.105
1401.00,51.080
1402.00,51.225
1403.00,51.206
1404.00,51.114
1405.00,51.159
1406.00,51.161
1407.00,51.158
1408.00,51.167
1409.00,51.148
1410.00,51.185
1411.00,51.155
1412.00,51.206
1413.00,51.177
1414.00,51.182
1415.00,51.212
1416.00,51.240
1417.00,51.225
1418.00,51.235
1419.00,51.298
1420.00,51.266
1421.00,51.295
1422.00,51.284
1423.00,51.311
1424.00,51.327
1425.00,51.320
1426.00,51.328
1427.00,51.347
1428.00,51.351
1429.00,51.355
1430.00,51.379
1431.00,51.392
1432.00,51.426
1433.00,51.432
1434.00,51.430
1435.00,51.479
1436.00,51.465
1437.00,51.469
1438.00,51.482
1439.00,51.501
1440.00,51.504
1441.00,51.508
1442.00,51.528
1443.00,51.568
1444.00,51.575
1445.00,51.562
1446.00,51.598
1447.00,51.621
1448.00,51.675
1449.00,51.672
1450.00,51.657
1451.00,51.691
1452.00,51.701
1453.00,51.704
1454.00,51.711
1455.00,51.726
1456.00,51.742
1457.00,51.758
1458.00,51.755
1459.00,51.785
1460.00,51.808
1461.00,51.809
1462.00,51.829
1463.00,51.854
1464.00,51.901
1465.00,51.899
1466.00,51.877
1467.00,51.906
1468.00,51.956
1469.00,51.920
1470.00,51.940
1471.00,51.966
1472.00,51.976
1473.00,51.979
1474.00,52.008
1475.00,52.037
1476.00,52.041
1477.00,52.034
1478.00,52.045
1479.00,52.086
1480.00,52.071
1481.00,52.087
1482.00,52.129
1483.00,52.116
1484.00,52.133
1485.00,52.136
1486.00,52.134
1487.00,52.162
1488.00,52.170
1489.00,52.178
1490.00,52.194
1491.00,52.193
1492.00,52.210
1493.00,52.218
1494.00,52.255
1495.00,52.246
1496.00,52.258
1497.00,52.266
1498.00,52.280
1499.00,52.286
1500.00,52.318
1501.00, 
1502.00, 
1503.00, 
1504.00, 
1505.00, 
1506.00, 
1507.00, 
1508.00, 
1509.00, 
1510.00, 
1511.00, 
1512.00, 
1513.00, 
1514.00, 
1515.00, 
1516.00, 
1517.00, 
1518.00, 
1519.00, 
1520.00, 
1521.00, 
1522.00, 
1523.00, 
1524.00, 
1525.00, 
1526.00, 
1527.00, 
1528.00, 
1529.00, 
1530.00, 
1531.00, 
1532.00, 
1533.00, 
1534.00, 
1535.00, 
1536.00, 
1537.00, 
1538.00, 
1539.00, 
1540.00, 
1541.00, 
1542.00, 
1543.00, 
1544.00, 
1545.00, 
1546.00, 
1547.00, 
1548.00, 
1549.00, 
1550.00, 
1551.00, 
1552.00, 
1553.00, 
1554.00, 
1555.00, 
1556.00, 
1557.00, 
1558.00, 
1559.00, 
1560.00, 
1561.00, 
1562.00, 
1563.00, 
1564.00, 
1565.00, 
1566.00, 
1567.00, 
1568.00, 
1569.00, 
1570.00, 
1571.00, 
1572.00, 
1573.00, 
1574.00, 
1575.00, 
1576.00, 
1577.00, 
1578.00, 
1579.00, 
1580.00, 
1581.00, 
1582.00, 
1583.00, 
1584.00, 
1585.00, 
1586.00, 
1587.00, 
1588.00, 
1589.00, 
1590.00, 
1591.00, 
1592.00, 
1593.00, 
1594.00, 
1595.00, 
1596.00, 
1597.00, 
1598.00, 
1599.00, 
1600.00, 
1601.00, 
1602.00, 
1603.00, 
1604.00, 
1605.00, 
1606.00, 
1607.00, 
1608.00, 
1609.00, 
1610.00, 
1611.00, 
1612.00, 
1613.00, 
1614.00, 
1615.00, 
1616.00, 
1617.00, 
1618.00, 
1619.00, 
1620.00, 
1621.00, 
1622.00, 
1623.00, 
1624.00, 
1625.00, 
1626.00, 
1627.00, 
1628.00, 
1629.00, 
1630.00, 
1631.00, 
1632.00, 
1633.00, 
1634.00, 
1635.00, 
1636.00, 
1637.00, 
1638.00, 
1639.00, 
1640.00, 
1641.00, 
1642.00, 
1643.00, 
1644.00, 
1645.00, 
1646.00, 
1647.00, 
1648.00, 
1649.00, 
1650.00, 
1651.00, 
1652.00, 
1653.00, 
1654.00, 
1655.00, 
1656.00, 
1657.00, 
1658.00, 
1659.00, 
1660.00, 
1661.00, 
1662.00, 
1663.00, 
1664.00, 
1665.00, 
1666.00, 
1667.00, 
1668.00, 
1669.00, 
1670.00, 
1671.00, 
1672.00, 
1673.00, 
1674.00, 
1675.00, 
1676.00, 
1677.00, 
1678.00, 
1679.00, 
1680.00, 
1681.00, 
1682.00, 
1683.00, 
1684.00, 
1685.00, 
1686.00, 
1687.00, 
1688.00, 
1689.00, 
1690.00, 
1691.00, 
1692.00, 
1693.00, 
1694.00, 
1695.00, 
1696.00, 
1697.00, 
1698.00, 
1699.00, 
1700.00, 
1701.00, 
1702.00, 
1703.00, 
1704.00, 
1705.00, 
1706.00, 
1707.00, 
1708.00, 
1709.00, 
1710.00, 
1711.00, 
1712.00, 
1713.00, 
1714.00, 
1715.00, 
1716.00, 
1717.00, 
1718.00, 
1719.00, 
1720.00, 
1721.00, 
1722.00, 
1723.00, 
1724.00, 
1725.00, 
1726.00, 
1727.00, 
1728.00, 
1729.00, 
1730.00, 
1731.00, 
1732.00, 
1733.00, 
1734.00, 
1735.00, 
1736.00, 
1737.00, 
1738.00, 
1739.00, 
1740.00, 
1741.00, 
1742.00, 
1743.00, 
1744.00, 
1745.00, 
1746.00, 
1747.00, 
1748.00, 
1749.00, 
1750.00, 
1751.00, 
1752.00, 
1753.00, 
1754.00, 
1755.00, 
1756.00, 
1757.00, 
1758.00, 
1759.00, 
1760.00, 
1761.00, 
1762.00, 
1763.00, 
1764.00, 
1765.00, 
1766.00, 
1767.00, 
1768.00, 
1769.00, 
1770.00, 
1771.00, 
1772.00, 
1773.00, 
1774.00, 
1775.00, 
1776.00, 
1777.00, 
1778.00, 
1779.00, 
1780.00, 
1781.00, 
1782.00, 
1783.00, 
1784.00, 
1785.00, 
1786.00, 
1787.00, 
1788.00, 
1789.00, 
1790.00, 
1791.00, 
1792.00, 
1793.00, 
1794.00, 
1795.00, 
1796.00, 
1797.00, 
1798.00, 
1799.00, 
1800.00, 
1801.00, 
1802.00, 
1803.00, 
1804.00, 
1805.00, 
1806.00, 
1807.00, 
1808.00, 
1809.00, 
1810.00, 
1811.00, 
1812.00, 
1813.00, 
1814.00, 
1815.00, 
1816.00, 
1817.00, 
1818.00, 
1819.00, 
1820.00, 
1821.00, 
1822.00, 
1823.00, 
1824.00, 
1825.00, 
1826.00, 
1827.00, 
1828.00, 
1829.00, 
1830.00, 
1831.00, 
1832.00, 
1833.00, 
1834.00, 
1835.00, 
1836.00, 
1837.00, 
1838.00, 
1839.00, 
1840.00, 
1841.00, 
1842.00, 
1843.00, 
1844.00, 
1845.00, 
1846.00, 
1847.00, 
1848.00, 
1849.00, 
1850.00, 
1851.00, 
1852.00, 
1853.00, 
1854.00, 
1855.00, 
1856.00, 
1857.00, 
1858.00, 
1859.00, 
1860.00, 
1861.00, 
1862.00, 
1863.00, 
1864.00, 
1865.00, 
1866.00, 
1867.00, 
1868.00, 
1869.00, 
1870.00, 
1871.00, 
1872.00, 
1873.00, 
1874.00, 
1875.00, 
1876.00, 
1877.00, 
1878.00, 
1879.00, 
1880.00, 
1881.00, 
1882.00, 
1883.00, 
1884.00, 
1885.00, 
1886.00, 
1887.00, 
1888.00, 
1889.00, 
1890.00, 
1891.00, 
1892.00, 
1893.00, 
1894.00, 
1895.00, 
1896.00, 
1897.00, 
1898.00, 
1899.00, 
1900.00, 
1901.00, 
1902.00, 
1903.00, 
1904.00, 
1905.00, 
1906.00, 
1907.00, 
1908.00, 
1909.00, 
1910.00, 
1911.00, 
1912.00, 
1913.00, 
1914.00, 
1915.00, 
1916.00, 
1917.00, 
1918.00, 
1919.00, 
1920.00, 
1921.00, 
1922.00, 
1923.00, 
1924.00, 
1925.00, 
1926.00, 
1927.00, 
1928.00, 
1929.00, 
1930.00, 
1931.00, 
1932.00, 
1933.00, 
1934.00, 
1935.00, 
1936.00, 
1937.00, 
1938.00, 
1939.00, 
1940.00, 
1941.00, 
1942.00, 
1943.00, 
1944.00, 
1945.00, 
1946.00, 
1947.00, 
1948.00, 
1949.00, 
1950.00, 
1951.00, 
1952.00, 
1953.00, 
1954.00, 
1955.00, 
1956.00, 
1957.00, 
1958.00, 
1959.00, 
1960.00, 
1961.00, 
1962.00, 
1963.00, 
1964.00, 
1965.00, 
1966.00, 
1967.00, 
1968.00, 
1969.00, 
1970.00, 
1971.00, 
1972.00, 
1973.00, 
1974.00, 
1975.00, 
1976.00, 
1977.00, 
1978.00, 
1979.00, 
1980.00, 
1981.00, 
1982.00, 
1983.00, 
1984.00, 
1985.00, 
1986.00, 
1987.00, 
1988.00, 
1989.00, 
1990.00, 
1991.00, 
1992.00, 
1993.00, 
1994.00, 
1995.00, 
1996.00, 
1997.00, 
1998.00, 
1999.00, 
2000.00, 
2001.00, 
2002.00, 
2003.00, 
2004.00, 
2005.00, 
2006.00, 
2007.00, 
2008.00, 
2009.00, 
2010.00, 
2011.00, 
2012.00, 
2013.00, 
2014.00, 
2015.00, 
2016.00, 
2017.00, 
2018.00, 
2019.00, 
2020.00, 
2021.00, 
2022.00, 
2023.00, 
2024.00, 
2025.00, 
2026.00, 
2027.00, 
2028.00, 
2029.00, 
2030.00, 
2031.00, 
2032.00, 
2033.00, 
2034.00, 
2035.00, 
2036.00, 
2037.00, 
2038.00, 
2039.00, 
2040.00, 
2041.00, 
2042.00, 
2043.00, 
2044.00, 
2045.00, 
2046.00, 
2047.00, 
2048.00, 
2049.00, 
2050.00, 
2051.00, 
2052.00, 
2053.00, 
2054.00, 
2055.00, 
2056.00, 
2057.00, 
2058.00, 
2059.00, 
2060.00, 
2061.00, 
2062.00, 
2063.00, 
2064.00, 
2065.00, 
2066.00, 
2067.00, 
2068.00, 
2069.00, 
2070.00, 
2071.00, 
2072.00, 
2073.00, 
2074.00, 
2075.00, 
2076.00, 
2077.00, 
2078.00, 
2079.00, 
2080.00, 
2081.00, 
2082.00, 
2083.00, 
2084.00, 
2085.00, 
2086.00, 
2087.00, 
2088.00, 
2089.00, 
2090.00, 
2091.00, 
2092.00, 
2093.00, 
2094.00, 
2095.00, 
2096.00, 
2097.00, 
2098.00, 
2099.00, 
2100.00, 
2101.00, 
2102.00, 
2103.00, 
2104.00, 
2105.00, 
2106.00, 
2107.00, 
2108.00, 
2109.00, 
2110.00, 
2111.00, 
2112.00, 
2113.00, 
2114.00, 
2115.00, 
2116.00, 
2117.00, 
2118.00, 
2119.00, 
2120.00, 
2121.00, 
2122.00, 
2123.00, 
2124.00, 
2125.00, 
2126.00, 
2127.00, 
2128.00, 
2129.00, 
2130.00, 
2131.00, 
2132.00, 
2133.00, 
2134.00, 
2135.00, 
2136.00, 
2137.00, 
2138.00, 
2139.00, 
2140.00, 
2141.00, 
2142.00, 
2143.00, 
2144.00, 
2145.00, 
2146.00, 
2147.00, 
2148.00, 
2149.00, 
2150.00, 
2151.00, 
2152.00, 
2153.00, 
2154.00, 
2155.00, 
2156.00, 
2157.00, 
2158.00, 
2159.00, 
2160.00, 
2161.00, 
2162.00, 
2163.00, 
2164.00, 
2165.00, 
2166.00, 
2167.00, 
2168.00, 
2169.00, 
2170.00, 
2171.00, 
2172.00, 
2173.00, 
2174.00, 
2175.00, 
2176.00, 
2177.00, 
2178.00, 
2179.00, 
2180.00, 
2181.00, 
2182.00, 
2183.00, 
2184.00, 
2185.00, 
2186.00, 
2187.00, 
2188.00, 
2189.00, 
2190.00, 
2191.00, 
2192.00, 
2193.00, 
2194.00, 
2195.00, 
2196.00, 
2197.00, 
2198.00, 
2199.00, 
2200.00, 
2201.00, 
2202.00, 
2203.00, 
2204.00, 
2205.00, 
2206.00, 
2207.00, 
2208.00, 
2209.00, 
2210.00, 
2211.00, 
2212.00, 
2213.00, 
2214.00, 
2215.00, 
2216.00, 
2217.00, 
2218.00, 
2219.00, 
2220.00, 
2221.00, 
2222.00, 
2223.00, 
2224.00, 
2225.00, 
2226.00, 
2227.00, 
2228.00, 
2229.00, 
2230.00, 
2231.00, 
2232.00, 
2233.00, 
2234.00, 
2235.00, 
2236.00, 
2237.00, 
2238.00, 
2239.00, 
2240.00, 
2241.00, 
2242.00, 
2243.00, 
2244.00, 
2245.00, 
2246.00, 
2247.00, 
2248.00, 
2249.00, 
2250.00, 
2251.00, 
2252.00, 
2253.00, 
2254.00, 
2255.00, 
2256.00, 
2257.00, 
2258.00, 
2259.00, 
2260.00, 
2261.00, 
2262.00, 
2263.00, 
2264.00, 
2265.00, 
2266.00, 
2267.00, 
2268.00, 
2269.00, 
2270.00, 
2271.00, 
2272.00, 
2273.00, 
2274.00, 
2275.00, 
2276.00, 
2277.00, 
2278.00, 
2279.00, 
2280.00, 
2281.00, 
2282.00, 
2283.00, 
2284.00, 
2285.00, 
2286.00, 
2287.00, 
2288.00, 
2289.00, 
2290.00, 
2291.00, 
2292.00, 
2293.00, 
2294.00, 
2295.00, 
2296.00, 
2297.00, 
2298.00, 
2299.00, 
2300.00, 
2301.00, 
2302.00, 
2303.00, 
2304.00, 
2305.00, 
2306.00, 
2307.00, 
2308.00, 
2309.00, 
2310.00, 
2311.00, 
2312.00, 
2313.00, 
2314.00, 
2315.00, 
2316.00, 
2317.00, 
2318.00, 
2319.00, 
2320.00, 
2321.00, 
2322.00, 
2323.00, 
2324.00, 
2325.00, 
2326.00, 
2327.00, 
2328.00, 
2329.00, 
2330.00, 
2331.00, 
2332.00, 
2333.00, 
2334.00, 
2335.00, 
2336.00, 
2337.00, 
2338.00, 
2339.00, 
2340.00, 
2341.00, 
2342.00, 
2343.00, 
2344.00, 
2345.00, 
2346.00, 
2347.00, 
2348.00, 
2349.00, 
2350.00, 
2351.00, 
2352.00, 
2353.00, 
2354.00, 
2355.00, 
2356.00, 
2357.00, 
2358.00, 
2359.00, 
2360.00, 
2361.00, 
2362.00, 
2363.00, 
2364.00, 
2365.00, 
2366.00, 
2367.00, 
2368.00, 
2369.00, 
2370.00, 
2371.00, 
2372.00, 
2373.00, 
2374.00, 
2375.00, 
2376.00, 
2377.00, 
2378.00, 
2379.00, 
2380.00, 
2381.00, 
2382.00, 
2383.00, 
2384.00, 
2385.00, 
2386.00, 
2387.00, 
2388.00, 
2389.00, 
2390.00, 
2391.00, 
2392.00, 
2393.00, 
2394.00, 
2395.00, 
2396.00, 
2397.00, 
2398.00, 
2399.00, 
2400.00, 
2401.00, 
2402.00, 
2403.00, 
2404.00, 
2405.00, 
2406.00, 
2407.00, 
2408.00, 
2409.00, 
2410.00, 
2411.00, 
2412.00, 
2413.00, 
2414.00, 
2415.00, 
2416.00, 
2417.00, 
2418.00, 
2419.00, 
2420.00, 
2421.00, 
2422.00, 
2423.00, 
2424.00, 
2425.00, 
2426.00, 
2427.00, 
2428.00, 
2429.00, 
2430.00, 
2431.00, 
2432.00, 
2433.00, 
2434.00, 
2435.00, 
2436.00, 
2437.00, 
2438.00, 
2439.00, 
2440.00, 
2441.00, 
2442.00, 
2443.00, 
2444.00, 
2445.00, 
2446.00, 
2447.00, 
2448.00, 
2449.00, 
2450.00, 
2451.00, 
2452.00, 
2453.00, 
2454.00, 
2455.00, 
2456.00, 
2457.00, 
2458.00, 
2459.00, 
2460.00, 
2461.00, 
2462.00, 
2463.00, 
2464.00, 
2465.00, 
2466.00, 
2467.00, 
2468.00, 
2469.00, 
2470.00, 
2471.00, 
2472.00, 
2473.00, 
2474.00, 
2475.00, 
2476.00, 
2477.00, 
2478.00, 
2479.00, 
2480.00, 
2481.00, 
2482.00, 
2483.00, 
2484.00, 
2485.00, 
2486.00, 
2487.00, 
2488.00, 
2489.00, 
2490.00, 
2491.00, 
2492.00, 
2493.00, 
2494.00, 
2495.00, 
2496.00, 
2497.00, 
2498.00, 
2499.00, 
2500.00, 
2501.00, 
2502.00, 
2503.00, 
2504.00, 
2505.00, 
2506.00, 
2507.00, 
2508.00, 
2509.00, 
2510.00, 
2511.00, 
2512.00, 
2513.00, 
2514.00, 
2515.00, 
2516.00, 
2517.00, 
2518.00, 
2519.00, 
2520.00, 
2521.00, 
2522.00, 
2523.00, 
2524.00, 
2525.00, 
2526.00, 
2527.00, 
2528.00, 
2529.00, 
2530.00, 
2531.00, 
2532.00, 
2533.00, 
2534.00, 
2535.00, 
2536.00, 
2537.00, 
2538.00, 
2539.00, 
2540.00, 
2541.00, 
2542.00, 
2543.00, 
2544.00, 
2545.00, 
2546.00, 
2547.00, 
2548.00, 
2549.00, 
2550.00, 
2551.00, 
2552.00, 
2553.00, 
2554.00, 
2555.00, 
2556.00, 
2557.00, 
2558.00, 
2559.00, 
2560.00, 
2561.00, 
2562.00, 
2563.00, 
2564.00, 
2565.00, 
2566.00, 
2567.00, 
2568.00, 
2569.00, 
2570.00, 
2571.00, 
2572.00, 
2573.00, 
2574.00, 
2575.00, 
2576.00, 
2577.00, 
2578.00, 
2579.00, 
2580.00, 
2581.00, 
2582.00, 
2583.00, 
2584.00, 
2585.00, 
2586.00, 
2587.00, 
2588.00, 
2589.00, 
2590.00, 
2591.00, 
2592.00, 
2593.00, 
2594.00, 
2595.00, 
2596.00, 
2597.00, 
2598.00, 
2599.00, 
2600.00, 
