"2cP5 - RawData"
"Wavelength nm.","T%"
200.00,0.004
201.00,0.003
202.00,0.002
203.00,0.002
204.00,-0.000
205.00,-0.000
206.00,0.002
207.00,0.002
208.00,-0.001
209.00,-0.001
210.00,0.004
211.00,-0.001
212.00,0.001
213.00,-0.000
214.00,0.000
215.00,0.002
216.00,0.000
217.00,0.002
218.00,0.000
219.00,0.002
220.00,0.002
221.00,0.002
222.00,-0.000
223.00,-0.001
224.00,-0.002
225.00,-0.000
226.00,0.002
227.00,0.001
228.00,-0.002
229.00,-0.002
230.00,0.000
231.00,0.002
232.00,0.002
233.00,0.000
234.00,-0.001
235.00,0.002
236.00,-0.002
237.00,0.001
238.00,0.000
239.00,-0.000
240.00,-0.002
241.00,-0.001
242.00,0.001
243.00,0.001
244.00,0.000
245.00,0.002
246.00,0.000
247.00,-0.001
248.00,0.001
249.00,0.001
250.00,-0.000
251.00,0.000
252.00,0.001
253.00,0.000
254.00,-0.001
255.00,-0.000
256.00,0.001
257.00,-0.000
258.00,0.001
259.00,0.001
260.00,0.001
261.00,-0.000
262.00,-0.000
263.00,-0.001
264.00,0.000
265.00,0.003
266.00,-0.001
267.00,0.000
268.00,0.000
269.00,0.000
270.00,-0.000
271.00,0.001
272.00,-0.000
273.00,-0.001
274.00,0.000
275.00,0.000
276.00,0.001
277.00,0.001
278.00,-0.000
279.00,-0.002
280.00,0.000
281.00,0.000
282.00,0.001
283.00,-0.001
284.00,0.000
285.00,0.000
286.00,0.000
287.00,-0.000
288.00,0.001
289.00,-0.000
290.00,-0.002
291.00,0.001
292.00,0.001
293.00,-0.000
294.00,0.000
295.00,0.002
296.00,-0.000
297.00,0.001
298.00,0.001
299.00,0.002
300.00,0.002
301.00,0.003
302.00,0.004
303.00,0.006
304.00,0.006
305.00,0.011
306.00,0.020
307.00,0.029
308.00,0.045
309.00,0.069
310.00,0.097
311.00,0.130
312.00,0.172
313.00,0.235
314.00,0.307
315.00,0.409
316.00,0.521
317.00,0.652
318.00,0.813
319.00,0.968
320.00,1.193
321.00,1.430
322.00,1.704
323.00,2.005
324.00,2.326
325.00,2.646
326.00,2.984
327.00,3.364
328.00,3.757
329.00,4.145
330.00,4.561
331.00,4.995
332.00,5.413
333.00,5.875
334.00,6.310
335.00,6.757
336.00,7.202
337.00,7.654
338.00,8.067
339.00,8.470
340.00,8.819
341.00,9.221
342.00,9.594
343.00,9.933
344.00,10.292
345.00,10.626
346.00,10.915
347.00,11.171
348.00,11.470
349.00,11.682
350.00,11.932
351.00,12.120
352.00,12.334
353.00,12.511
354.00,12.713
355.00,12.854
356.00,12.989
357.00,13.106
358.00,13.256
359.00,13.393
360.00,13.511
361.00,13.605
362.00,13.671
363.00,13.775
364.00,13.795
365.00,13.835
366.00,13.889
367.00,13.884
368.00,13.943
369.00,13.943
370.00,13.964
371.00,13.956
372.00,13.924
373.00,13.919
374.00,13.909
375.00,13.858
376.00,13.840
377.00,13.807
378.00,13.742
379.00,13.692
380.00,13.647
381.00,13.633
382.00,13.610
383.00,13.568
384.00,13.594
385.00,13.577
386.00,13.569
387.00,13.599
388.00,13.620
389.00,13.598
390.00,13.600
391.00,13.560
392.00,13.560
393.00,13.565
394.00,13.555
395.00,13.547
396.00,13.524
397.00,13.503
398.00,13.510
399.00,13.506
400.00,13.501
401.00,13.449
402.00,13.475
403.00,13.492
404.00,13.477
405.00,13.441
406.00,13.459
407.00,13.435
408.00,13.436
409.00,13.382
410.00,13.324
411.00,13.368
412.00,13.348
413.00,13.349
414.00,13.342
415.00,13.332
416.00,13.343
417.00,13.345
418.00,13.373
419.00,13.398
420.00,13.446
421.00,13.445
422.00,13.463
423.00,13.480
424.00,13.519
425.00,13.534
426.00,13.574
427.00,13.608
428.00,13.630
429.00,13.691
430.00,13.733
431.00,13.784
432.00,13.834
433.00,13.865
434.00,13.926
435.00,13.990
436.00,14.056
437.00,14.115
438.00,14.167
439.00,14.235
440.00,14.314
441.00,14.406
442.00,14.460
443.00,14.573
444.00,14.631
445.00,14.686
446.00,14.796
447.00,14.869
448.00,14.983
449.00,15.053
450.00,15.157
451.00,15.227
452.00,15.348
453.00,15.461
454.00,15.552
455.00,15.649
456.00,15.764
457.00,15.878
458.00,15.978
459.00,16.083
460.00,16.235
461.00,16.332
462.00,16.492
463.00,16.599
464.00,16.721
465.00,16.845
466.00,16.954
467.00,17.104
468.00,17.204
469.00,17.343
470.00,17.459
471.00,17.575
472.00,17.699
473.00,17.803
474.00,17.911
475.00,18.066
476.00,18.161
477.00,18.301
478.00,18.426
479.00,18.601
480.00,18.748
481.00,18.874
482.00,19.050
483.00,19.213
484.00,19.326
485.00,19.512
486.00,19.626
487.00,19.810
488.00,19.959
489.00,20.110
490.00,20.272
491.00,20.416
492.00,20.553
493.00,20.756
494.00,20.905
495.00,20.965
496.00,21.128
497.00,21.243
498.00,21.405
499.00,21.538
500.00,21.683
501.00,21.809
502.00,21.969
503.00,22.116
504.00,22.192
505.00,22.384
506.00,22.482
507.00,22.602
508.00,22.740
509.00,22.914
510.00,23.062
511.00,23.152
512.00,23.349
513.00,23.467
514.00,23.623
515.00,23.732
516.00,23.879
517.00,23.992
518.00,24.148
519.00,24.241
520.00,24.298
521.00,24.444
522.00,24.521
523.00,24.585
524.00,24.716
525.00,24.852
526.00,24.978
527.00,25.044
528.00,25.120
529.00,25.308
530.00,25.484
531.00,25.590
532.00,25.667
533.00,25.763
534.00,25.879
535.00,25.944
536.00,26.091
537.00,26.168
538.00,26.242
539.00,26.293
540.00,26.406
541.00,26.463
542.00,26.548
543.00,26.614
544.00,26.731
545.00,26.806
546.00,26.907
547.00,27.021
548.00,27.081
549.00,27.154
550.00,27.222
551.00,27.368
552.00,27.446
553.00,27.449
554.00,27.531
555.00,27.597
556.00,27.663
557.00,27.755
558.00,27.858
559.00,27.887
560.00,27.975
561.00,28.068
562.00,28.136
563.00,28.141
564.00,28.245
565.00,28.277
566.00,28.303
567.00,28.376
568.00,28.429
569.00,28.458
570.00,28.518
571.00,28.619
572.00,28.651
573.00,28.651
574.00,28.725
575.00,28.714
576.00,28.748
577.00,28.822
578.00,28.943
579.00,29.030
580.00,29.055
581.00,29.158
582.00,29.223
583.00,29.272
584.00,29.369
585.00,29.447
586.00,29.508
587.00,29.557
588.00,29.594
589.00,29.585
590.00,29.699
591.00,29.755
592.00,29.738
593.00,29.851
594.00,29.937
595.00,30.021
596.00,30.032
597.00,30.082
598.00,30.172
599.00,30.194
600.00,30.262
601.00,30.339
602.00,30.408
603.00,30.403
604.00,30.452
605.00,30.514
606.00,30.565
607.00,30.591
608.00,30.650
609.00,30.795
610.00,30.916
611.00,30.840
612.00,30.904
613.00,30.959
614.00,31.010
615.00,31.110
616.00,31.217
617.00,31.234
618.00,31.268
619.00,31.386
620.00,31.403
621.00,31.511
622.00,31.554
623.00,31.569
624.00,31.789
625.00,31.895
626.00,31.859
627.00,31.922
628.00,32.036
629.00,32.107
630.00,32.174
631.00,32.297
632.00,32.371
633.00,32.546
634.00,32.611
635.00,32.740
636.00,32.801
637.00,32.891
638.00,32.945
639.00,33.047
640.00,33.160
641.00,33.171
642.00,33.300
643.00,33.334
644.00,33.561
645.00,33.604
646.00,33.776
647.00,33.893
648.00,33.955
649.00,33.994
650.00,34.026
651.00,34.286
652.00,34.408
653.00,34.376
654.00,34.522
655.00,34.657
656.00,35.045
657.00,34.905
658.00,35.589
659.00,35.243
660.00,35.286
661.00,35.343
662.00,35.452
663.00,35.645
664.00,35.908
665.00,36.037
666.00,36.000
667.00,36.196
668.00,36.282
669.00,36.524
670.00,36.787
671.00,36.739
672.00,36.921
673.00,37.024
674.00,37.133
675.00,37.277
676.00,37.502
677.00,37.699
678.00,37.571
679.00,37.793
680.00,38.001
681.00,38.173
682.00,38.219
683.00,38.303
684.00,38.501
685.00,38.645
686.00,38.607
687.00,38.760
688.00,38.855
689.00,39.106
690.00,39.375
691.00,39.570
692.00,39.358
693.00,39.396
694.00,39.692
695.00,39.968
696.00,40.122
697.00,40.083
698.00,40.136
699.00,40.271
700.00,40.662
701.00,40.889
702.00,40.825
703.00,41.090
704.00,41.170
705.00,41.244
706.00,41.380
707.00,41.425
708.00,41.462
709.00,41.827
710.00,42.222
711.00,41.886
712.00,41.914
713.00,42.199
714.00,42.341
715.00,42.300
716.00,42.416
717.00,42.669
718.00,42.804
719.00,42.801
720.00,43.115
721.00,47.336
722.00,47.371
723.00,47.532
724.00,47.543
725.00,47.667
726.00,47.733
727.00,47.805
728.00,47.938
729.00,47.915
730.00,48.022
731.00,48.083
732.00,48.168
733.00,48.374
734.00,48.412
735.00,48.523
736.00,48.554
737.00,48.640
738.00,48.728
739.00,48.751
740.00,48.815
741.00,48.939
742.00,49.102
743.00,49.065
744.00,49.093
745.00,49.160
746.00,49.207
747.00,49.212
748.00,49.276
749.00,49.288
750.00,49.440
751.00,49.481
752.00,49.475
753.00,49.525
754.00,49.504
755.00,49.528
756.00,49.597
757.00,49.744
758.00,49.819
759.00,49.758
760.00,49.822
761.00,49.954
762.00,49.962
763.00,50.043
764.00,50.008
765.00,50.084
766.00,50.164
767.00,50.200
768.00,50.183
769.00,50.133
770.00,50.366
771.00,50.329
772.00,50.505
773.00,50.483
774.00,50.433
775.00,50.521
776.00,50.507
777.00,50.553
778.00,50.574
779.00,50.728
780.00,50.647
781.00,50.660
782.00,50.698
783.00,50.724
784.00,50.861
785.00,50.697
786.00,50.819
787.00,50.803
788.00,50.790
789.00,50.836
790.00,50.900
791.00,50.865
792.00,50.890
793.00,50.882
794.00,50.948
795.00,50.925
796.00,50.950
797.00,51.005
798.00,50.957
799.00,50.901
800.00,51.006
801.00,50.966
802.00,50.933
803.00,51.012
804.00,50.951
805.00,51.049
806.00,50.988
807.00,50.913
808.00,50.995
809.00,51.014
810.00,51.063
811.00,50.942
812.00,51.036
813.00,51.071
814.00,51.042
815.00,51.011
816.00,51.026
817.00,51.035
818.00,50.884
819.00,50.987
820.00,50.949
821.00,51.037
822.00,51.048
823.00,51.002
824.00,51.056
825.00,50.966
826.00,51.001
827.00,51.044
828.00,50.923
829.00,50.965
830.00,51.109
831.00,53.141
832.00,53.109
833.00,53.105
834.00,53.107
835.00,53.040
836.00,53.097
837.00,53.091
838.00,53.085
839.00,53.090
840.00,53.079
841.00,53.097
842.00,53.055
843.00,53.061
844.00,53.037
845.00,53.012
846.00,53.046
847.00,53.013
848.00,53.013
849.00,52.972
850.00,52.930
851.00,52.931
852.00,52.970
853.00,52.874
854.00,52.914
855.00,52.870
856.00,52.856
857.00,52.862
858.00,52.815
859.00,52.743
860.00,52.865
861.00,52.807
862.00,52.762
863.00,52.764
864.00,52.723
865.00,52.781
866.00,52.764
867.00,52.725
868.00,52.714
869.00,52.716
870.00,52.714
871.00,52.694
872.00,52.699
873.00,52.677
874.00,52.689
875.00,52.670
876.00,52.683
877.00,52.671
878.00,52.672
879.00,52.646
880.00,52.646
881.00,52.630
882.00,52.647
883.00,52.613
884.00,52.618
885.00,52.588
886.00,52.606
887.00,52.581
888.00,52.539
889.00,52.516
890.00,52.575
891.00,52.499
892.00,52.469
893.00,52.428
894.00,52.463
895.00,52.430
896.00,52.393
897.00,52.389
898.00,52.352
899.00,52.349
900.00,52.353
901.00,52.369
902.00,52.365
903.00,52.253
904.00,52.315
905.00,52.327
906.00,52.322
907.00,52.273
908.00,52.253
909.00,52.251
910.00,52.228
911.00,52.221
912.00,52.212
913.00,52.203
914.00,52.298
915.00,52.164
916.00,52.149
917.00,52.122
918.00,52.128
919.00,52.079
920.00,52.053
921.00,52.029
922.00,52.021
923.00,52.020
924.00,51.960
925.00,51.982
926.00,51.961
927.00,51.933
928.00,51.937
929.00,51.925
930.00,51.891
931.00,51.903
932.00,51.864
933.00,51.867
934.00,51.862
935.00,51.816
936.00,51.799
937.00,51.795
938.00,51.763
939.00,51.753
940.00,51.722
941.00,51.711
942.00,51.711
943.00,51.698
944.00,51.656
945.00,51.674
946.00,51.677
947.00,51.629
948.00,51.615
949.00,51.591
950.00,51.579
951.00,51.567
952.00,51.522
953.00,51.509
954.00,51.468
955.00,51.433
956.00,51.439
957.00,51.398
958.00,51.408
959.00,51.374
960.00,51.420
961.00,51.458
962.00,51.362
963.00,51.294
964.00,51.308
965.00,51.317
966.00,51.289
967.00,51.309
968.00,51.275
969.00,51.301
970.00,51.279
971.00,51.286
972.00,51.262
973.00,51.293
974.00,51.309
975.00,51.281
976.00,51.289
977.00,51.265
978.00,51.303
979.00,51.254
980.00,51.272
981.00,51.272
982.00,51.246
983.00,51.271
984.00,51.250
985.00,51.265
986.00,51.239
987.00,51.261
988.00,51.212
989.00,51.220
990.00,51.202
991.00,51.172
992.00,51.196
993.00,51.158
994.00,51.140
995.00,51.128
996.00,51.115
997.00,51.118
998.00,51.103
999.00,51.114
1000.00,51.095
1001.00,51.061
1002.00,51.059
1003.00,51.056
1004.00,51.035
1005.00,51.008
1006.00,51.050
1007.00,51.031
1008.00,50.985
1009.00,50.961
1010.00,50.955
1011.00,50.947
1012.00,50.924
1013.00,50.922
1014.00,50.895
1015.00,50.893
1016.00,50.875
1017.00,50.868
1018.00,50.850
1019.00,50.855
1020.00,50.824
1021.00,50.789
1022.00,50.851
1023.00,50.756
1024.00,50.764
1025.00,50.748
1026.00,50.744
1027.00,50.716
1028.00,50.713
1029.00,50.693
1030.00,50.662
1031.00,50.671
1032.00,50.632
1033.00,50.651
1034.00,50.611
1035.00,50.563
1036.00,50.542
1037.00,50.537
1038.00,50.524
1039.00,50.504
1040.00,50.483
1041.00,50.457
1042.00,50.456
1043.00,50.425
1044.00,50.467
1045.00,50.439
1046.00,50.454
1047.00,50.480
1048.00,50.450
1049.00,50.471
1050.00,50.493
1051.00,50.494
1052.00,50.496
1053.00,50.525
1054.00,50.511
1055.00,50.539
1056.00,50.545
1057.00,50.545
1058.00,50.532
1059.00,50.525
1060.00,50.536
1061.00,50.515
1062.00,50.494
1063.00,50.505
1064.00,50.494
1065.00,50.488
1066.00,50.480
1067.00,50.469
1068.00,50.510
1069.00,50.447
1070.00,50.427
1071.00,50.423
1072.00,50.439
1073.00,50.397
1074.00,50.402
1075.00,50.387
1076.00,50.383
1077.00,50.378
1078.00,50.352
1079.00,50.351
1080.00,50.363
1081.00,50.332
1082.00,50.353
1083.00,50.332
1084.00,50.318
1085.00,50.326
1086.00,50.306
1087.00,50.310
1088.00,50.287
1089.00,50.279
1090.00,50.267
1091.00,50.271
1092.00,50.249
1093.00,50.237
1094.00,50.221
1095.00,50.197
1096.00,50.198
1097.00,50.193
1098.00,50.192
1099.00,50.179
1100.00,50.149
1101.00,50.146
1102.00,50.138
1103.00,50.152
1104.00,50.153
1105.00,50.141
1106.00,50.113
1107.00,50.114
1108.00,50.101
1109.00,50.079
1110.00,50.085
1111.00,50.074
1112.00,50.067
1113.00,50.075
1114.00,50.062
1115.00,50.064
1116.00,50.046
1117.00,50.023
1118.00,50.027
1119.00,50.010
1120.00,50.000
1121.00,50.003
1122.00,49.987
1123.00,49.987
1124.00,49.976
1125.00,49.963
1126.00,49.969
1127.00,49.972
1128.00,49.952
1129.00,49.973
1130.00,49.919
1131.00,49.908
1132.00,49.908
1133.00,49.905
1134.00,49.901
1135.00,49.888
1136.00,49.879
1137.00,49.879
1138.00,49.886
1139.00,49.873
1140.00,49.885
1141.00,49.908
1142.00,49.862
1143.00,49.876
1144.00,49.840
1145.00,49.854
1146.00,49.853
1147.00,49.838
1148.00,49.848
1149.00,49.850
1150.00,49.830
1151.00,49.837
1152.00,49.835
1153.00,49.817
1154.00,49.814
1155.00,49.824
1156.00,49.806
1157.00,49.819
1158.00,49.803
1159.00,49.794
1160.00,49.792
1161.00,49.783
1162.00,49.797
1163.00,49.790
1164.00,49.789
1165.00,49.797
1166.00,49.784
1167.00,49.781
1168.00,49.781
1169.00,49.778
1170.00,49.767
1171.00,49.745
1172.00,49.745
1173.00,49.743
1174.00,49.778
1175.00,49.769
1176.00,49.765
1177.00,49.730
1178.00,49.731
1179.00,49.753
1180.00,49.724
1181.00,49.750
1182.00,49.745
1183.00,49.720
1184.00,49.730
1185.00,49.741
1186.00,49.709
1187.00,49.736
1188.00,49.724
1189.00,49.715
1190.00,49.736
1191.00,49.707
1192.00,49.729
1193.00,49.721
1194.00,49.715
1195.00,49.715
1196.00,49.729
1197.00,49.719
1198.00,49.717
1199.00,49.705
1200.00,49.705
1201.00,49.720
1202.00,49.703
1203.00,49.703
1204.00,49.688
1205.00,49.692
1206.00,49.692
1207.00,49.692
1208.00,49.680
1209.00,49.699
1210.00,49.673
1211.00,49.670
1212.00,49.695
1213.00,49.649
1214.00,49.688
1215.00,49.663
1216.00,49.663
1217.00,49.670
1218.00,49.659
1219.00,49.677
1220.00,49.668
1221.00,49.671
1222.00,49.662
1223.00,49.704
1224.00,49.685
1225.00,49.678
1226.00,49.679
1227.00,49.654
1228.00,49.684
1229.00,49.675
1230.00,49.691
1231.00,49.699
1232.00,49.707
1233.00,49.709
1234.00,49.697
1235.00,49.698
1236.00,49.725
1237.00,49.715
1238.00,49.709
1239.00,49.723
1240.00,49.710
1241.00,49.709
1242.00,49.726
1243.00,49.734
1244.00,49.721
1245.00,49.750
1246.00,49.759
1247.00,49.736
1248.00,49.742
1249.00,49.754
1250.00,49.765
1251.00,49.763
1252.00,49.749
1253.00,49.749
1254.00,49.772
1255.00,49.746
1256.00,49.729
1257.00,49.738
1258.00,49.797
1259.00,49.761
1260.00,49.786
1261.00,49.790
1262.00,49.775
1263.00,49.777
1264.00,49.790
1265.00,49.791
1266.00,49.788
1267.00,49.801
1268.00,49.797
1269.00,49.800
1270.00,49.816
1271.00,49.794
1272.00,49.817
1273.00,49.825
1274.00,49.814
1275.00,49.831
1276.00,49.818
1277.00,49.822
1278.00,49.826
1279.00,49.833
1280.00,49.837
1281.00,49.846
1282.00,49.850
1283.00,49.856
1284.00,49.856
1285.00,49.841
1286.00,49.866
1287.00,49.845
1288.00,49.852
1289.00,49.837
1290.00,49.866
1291.00,49.870
1292.00,49.869
1293.00,49.858
1294.00,49.874
1295.00,49.906
1296.00,49.900
1297.00,49.907
1298.00,49.929
1299.00,49.898
1300.00,49.921
1301.00,49.915
1302.00,49.932
1303.00,49.927
1304.00,49.887
1305.00,49.931
1306.00,49.937
1307.00,49.935
1308.00,49.950
1309.00,49.954
1310.00,49.959
1311.00,49.961
1312.00,49.967
1313.00,49.979
1314.00,49.992
1315.00,49.986
1316.00,50.001
1317.00,50.032
1318.00,50.014
1319.00,50.025
1320.00,50.027
1321.00,50.172
1322.00,50.192
1323.00,50.170
1324.00,50.166
1325.00,50.157
1326.00,50.156
1327.00,50.171
1328.00,50.145
1329.00,50.144
1330.00,50.150
1331.00,50.147
1332.00,50.160
1333.00,50.163
1334.00,50.179
1335.00,50.194
1336.00,50.228
1337.00,50.242
1338.00,50.318
1339.00,50.363
1340.00,50.424
1341.00,50.494
1342.00,50.544
1343.00,50.600
1344.00,50.651
1345.00,50.692
1346.00,50.729
1347.00,50.757
1348.00,50.774
1349.00,50.802
1350.00,50.811
1351.00,50.822
1352.00,50.829
1353.00,50.844
1354.00,50.830
1355.00,50.763
1356.00,50.864
1357.00,50.839
1358.00,50.866
1359.00,50.869
1360.00,50.871
1361.00,50.993
1362.00,50.922
1363.00,50.896
1364.00,50.888
1365.00,50.862
1366.00,50.923
1367.00,50.873
1368.00,50.806
1369.00,50.856
1370.00,50.858
1371.00,50.833
1372.00,50.841
1373.00,50.842
1374.00,50.852
1375.00,50.822
1376.00,50.825
1377.00,50.816
1378.00,50.905
1379.00,50.845
1380.00,50.831
1381.00,50.876
1382.00,50.804
1383.00,50.810
1384.00,50.800
1385.00,50.811
1386.00,50.846
1387.00,50.815
1388.00,50.792
1389.00,50.815
1390.00,50.808
1391.00,50.808
1392.00,50.768
1393.00,50.806
1394.00,50.788
1395.00,50.796
1396.00,50.743
1397.00,50.804
1398.00,50.854
1399.00,50.824
1400.00,50.794
1401.00,50.783
1402.00,50.830
1403.00,50.817
1404.00,50.839
1405.00,50.849
1406.00,50.868
1407.00,50.868
1408.00,50.858
1409.00,50.862
1410.00,50.891
1411.00,50.874
1412.00,50.927
1413.00,50.905
1414.00,50.892
1415.00,50.924
1416.00,50.949
1417.00,50.966
1418.00,50.958
1419.00,50.933
1420.00,50.961
1421.00,51.004
1422.00,50.981
1423.00,51.000
1424.00,51.013
1425.00,51.019
1426.00,51.038
1427.00,51.051
1428.00,51.058
1429.00,51.076
1430.00,51.072
1431.00,51.096
1432.00,51.124
1433.00,51.111
1434.00,51.113
1435.00,51.165
1436.00,51.149
1437.00,51.163
1438.00,51.174
1439.00,51.197
1440.00,51.222
1441.00,51.206
1442.00,51.233
1443.00,51.269
1444.00,51.272
1445.00,51.285
1446.00,51.303
1447.00,51.329
1448.00,51.377
1449.00,51.358
1450.00,51.355
1451.00,51.378
1452.00,51.383
1453.00,51.396
1454.00,51.418
1455.00,51.434
1456.00,51.457
1457.00,51.455
1458.00,51.473
1459.00,51.493
1460.00,51.510
1461.00,51.519
1462.00,51.564
1463.00,51.554
1464.00,51.550
1465.00,51.586
1466.00,51.578
1467.00,51.598
1468.00,51.652
1469.00,51.623
1470.00,51.654
1471.00,51.660
1472.00,51.674
1473.00,51.685
1474.00,51.699
1475.00,51.711
1476.00,51.732
1477.00,51.729
1478.00,51.767
1479.00,51.782
1480.00,51.749
1481.00,51.763
1482.00,51.796
1483.00,51.794
1484.00,51.821
1485.00,51.817
1486.00,51.826
1487.00,51.859
1488.00,51.864
1489.00,51.867
1490.00,51.881
1491.00,51.909
1492.00,51.917
1493.00,51.914
1494.00,51.958
1495.00,51.929
1496.00,51.948
1497.00,51.940
1498.00,51.969
1499.00,51.973
1500.00,51.992
1501.00, 
1502.00, 
1503.00, 
1504.00, 
1505.00, 
1506.00, 
1507.00, 
1508.00, 
1509.00, 
1510.00, 
1511.00, 
1512.00, 
1513.00, 
1514.00, 
1515.00, 
1516.00, 
1517.00, 
1518.00, 
1519.00, 
1520.00, 
1521.00, 
1522.00, 
1523.00, 
1524.00, 
1525.00, 
1526.00, 
1527.00, 
1528.00, 
1529.00, 
1530.00, 
1531.00, 
1532.00, 
1533.00, 
1534.00, 
1535.00, 
1536.00, 
1537.00, 
1538.00, 
1539.00, 
1540.00, 
1541.00, 
1542.00, 
1543.00, 
1544.00, 
1545.00, 
1546.00, 
1547.00, 
1548.00, 
1549.00, 
1550.00, 
1551.00, 
1552.00, 
1553.00, 
1554.00, 
1555.00, 
1556.00, 
1557.00, 
1558.00, 
1559.00, 
1560.00, 
1561.00, 
1562.00, 
1563.00, 
1564.00, 
1565.00, 
1566.00, 
1567.00, 
1568.00, 
1569.00, 
1570.00, 
1571.00, 
1572.00, 
1573.00, 
1574.00, 
1575.00, 
1576.00, 
1577.00, 
1578.00, 
1579.00, 
1580.00, 
1581.00, 
1582.00, 
1583.00, 
1584.00, 
1585.00, 
1586.00, 
1587.00, 
1588.00, 
1589.00, 
1590.00, 
1591.00, 
1592.00, 
1593.00, 
1594.00, 
1595.00, 
1596.00, 
1597.00, 
1598.00, 
1599.00, 
1600.00, 
1601.00, 
1602.00, 
1603.00, 
1604.00, 
1605.00, 
1606.00, 
1607.00, 
1608.00, 
1609.00, 
1610.00, 
1611.00, 
1612.00, 
1613.00, 
1614.00, 
1615.00, 
1616.00, 
1617.00, 
1618.00, 
1619.00, 
1620.00, 
1621.00, 
1622.00, 
1623.00, 
1624.00, 
1625.00, 
1626.00, 
1627.00, 
1628.00, 
1629.00, 
1630.00, 
1631.00, 
1632.00, 
1633.00, 
1634.00, 
1635.00, 
1636.00, 
1637.00, 
1638.00, 
1639.00, 
1640.00, 
1641.00, 
1642.00, 
1643.00, 
1644.00, 
1645.00, 
1646.00, 
1647.00, 
1648.00, 
1649.00, 
1650.00, 
1651.00, 
1652.00, 
1653.00, 
1654.00, 
1655.00, 
1656.00, 
1657.00, 
1658.00, 
1659.00, 
1660.00, 
1661.00, 
1662.00, 
1663.00, 
1664.00, 
1665.00, 
1666.00, 
1667.00, 
1668.00, 
1669.00, 
1670.00, 
1671.00, 
1672.00, 
1673.00, 
1674.00, 
1675.00, 
1676.00, 
1677.00, 
1678.00, 
1679.00, 
1680.00, 
1681.00, 
1682.00, 
1683.00, 
1684.00, 
1685.00, 
1686.00, 
1687.00, 
1688.00, 
1689.00, 
1690.00, 
1691.00, 
1692.00, 
1693.00, 
1694.00, 
1695.00, 
1696.00, 
1697.00, 
1698.00, 
1699.00, 
1700.00, 
1701.00, 
1702.00, 
1703.00, 
1704.00, 
1705.00, 
1706.00, 
1707.00, 
1708.00, 
1709.00, 
1710.00, 
1711.00, 
1712.00, 
1713.00, 
1714.00, 
1715.00, 
1716.00, 
1717.00, 
1718.00, 
1719.00, 
1720.00, 
1721.00, 
1722.00, 
1723.00, 
1724.00, 
1725.00, 
1726.00, 
1727.00, 
1728.00, 
1729.00, 
1730.00, 
1731.00, 
1732.00, 
1733.00, 
1734.00, 
1735.00, 
1736.00, 
1737.00, 
1738.00, 
1739.00, 
1740.00, 
1741.00, 
1742.00, 
1743.00, 
1744.00, 
1745.00, 
1746.00, 
1747.00, 
1748.00, 
1749.00, 
1750.00, 
1751.00, 
1752.00, 
1753.00, 
1754.00, 
1755.00, 
1756.00, 
1757.00, 
1758.00, 
1759.00, 
1760.00, 
1761.00, 
1762.00, 
1763.00, 
1764.00, 
1765.00, 
1766.00, 
1767.00, 
1768.00, 
1769.00, 
1770.00, 
1771.00, 
1772.00, 
1773.00, 
1774.00, 
1775.00, 
1776.00, 
1777.00, 
1778.00, 
1779.00, 
1780.00, 
1781.00, 
1782.00, 
1783.00, 
1784.00, 
1785.00, 
1786.00, 
1787.00, 
1788.00, 
1789.00, 
1790.00, 
1791.00, 
1792.00, 
1793.00, 
1794.00, 
1795.00, 
1796.00, 
1797.00, 
1798.00, 
1799.00, 
1800.00, 
1801.00, 
1802.00, 
1803.00, 
1804.00, 
1805.00, 
1806.00, 
1807.00, 
1808.00, 
1809.00, 
1810.00, 
1811.00, 
1812.00, 
1813.00, 
1814.00, 
1815.00, 
1816.00, 
1817.00, 
1818.00, 
1819.00, 
1820.00, 
1821.00, 
1822.00, 
1823.00, 
1824.00, 
1825.00, 
1826.00, 
1827.00, 
1828.00, 
1829.00, 
1830.00, 
1831.00, 
1832.00, 
1833.00, 
1834.00, 
1835.00, 
1836.00, 
1837.00, 
1838.00, 
1839.00, 
1840.00, 
1841.00, 
1842.00, 
1843.00, 
1844.00, 
1845.00, 
1846.00, 
1847.00, 
1848.00, 
1849.00, 
1850.00, 
1851.00, 
1852.00, 
1853.00, 
1854.00, 
1855.00, 
1856.00, 
1857.00, 
1858.00, 
1859.00, 
1860.00, 
1861.00, 
1862.00, 
1863.00, 
1864.00, 
1865.00, 
1866.00, 
1867.00, 
1868.00, 
1869.00, 
1870.00, 
1871.00, 
1872.00, 
1873.00, 
1874.00, 
1875.00, 
1876.00, 
1877.00, 
1878.00, 
1879.00, 
1880.00, 
1881.00, 
1882.00, 
1883.00, 
1884.00, 
1885.00, 
1886.00, 
1887.00, 
1888.00, 
1889.00, 
1890.00, 
1891.00, 
1892.00, 
1893.00, 
1894.00, 
1895.00, 
1896.00, 
1897.00, 
1898.00, 
1899.00, 
1900.00, 
1901.00, 
1902.00, 
1903.00, 
1904.00, 
1905.00, 
1906.00, 
1907.00, 
1908.00, 
1909.00, 
1910.00, 
1911.00, 
1912.00, 
1913.00, 
1914.00, 
1915.00, 
1916.00, 
1917.00, 
1918.00, 
1919.00, 
1920.00, 
1921.00, 
1922.00, 
1923.00, 
1924.00, 
1925.00, 
1926.00, 
1927.00, 
1928.00, 
1929.00, 
1930.00, 
1931.00, 
1932.00, 
1933.00, 
1934.00, 
1935.00, 
1936.00, 
1937.00, 
1938.00, 
1939.00, 
1940.00, 
1941.00, 
1942.00, 
1943.00, 
1944.00, 
1945.00, 
1946.00, 
1947.00, 
1948.00, 
1949.00, 
1950.00, 
1951.00, 
1952.00, 
1953.00, 
1954.00, 
1955.00, 
1956.00, 
1957.00, 
1958.00, 
1959.00, 
1960.00, 
1961.00, 
1962.00, 
1963.00, 
1964.00, 
1965.00, 
1966.00, 
1967.00, 
1968.00, 
1969.00, 
1970.00, 
1971.00, 
1972.00, 
1973.00, 
1974.00, 
1975.00, 
1976.00, 
1977.00, 
1978.00, 
1979.00, 
1980.00, 
1981.00, 
1982.00, 
1983.00, 
1984.00, 
1985.00, 
1986.00, 
1987.00, 
1988.00, 
1989.00, 
1990.00, 
1991.00, 
1992.00, 
1993.00, 
1994.00, 
1995.00, 
1996.00, 
1997.00, 
1998.00, 
1999.00, 
2000.00, 
2001.00, 
2002.00, 
2003.00, 
2004.00, 
2005.00, 
2006.00, 
2007.00, 
2008.00, 
2009.00, 
2010.00, 
2011.00, 
2012.00, 
2013.00, 
2014.00, 
2015.00, 
2016.00, 
2017.00, 
2018.00, 
2019.00, 
2020.00, 
2021.00, 
2022.00, 
2023.00, 
2024.00, 
2025.00, 
2026.00, 
2027.00, 
2028.00, 
2029.00, 
2030.00, 
2031.00, 
2032.00, 
2033.00, 
2034.00, 
2035.00, 
2036.00, 
2037.00, 
2038.00, 
2039.00, 
2040.00, 
2041.00, 
2042.00, 
2043.00, 
2044.00, 
2045.00, 
2046.00, 
2047.00, 
2048.00, 
2049.00, 
2050.00, 
2051.00, 
2052.00, 
2053.00, 
2054.00, 
2055.00, 
2056.00, 
2057.00, 
2058.00, 
2059.00, 
2060.00, 
2061.00, 
2062.00, 
2063.00, 
2064.00, 
2065.00, 
2066.00, 
2067.00, 
2068.00, 
2069.00, 
2070.00, 
2071.00, 
2072.00, 
2073.00, 
2074.00, 
2075.00, 
2076.00, 
2077.00, 
2078.00, 
2079.00, 
2080.00, 
2081.00, 
2082.00, 
2083.00, 
2084.00, 
2085.00, 
2086.00, 
2087.00, 
2088.00, 
2089.00, 
2090.00, 
2091.00, 
2092.00, 
2093.00, 
2094.00, 
2095.00, 
2096.00, 
2097.00, 
2098.00, 
2099.00, 
2100.00, 
2101.00, 
2102.00, 
2103.00, 
2104.00, 
2105.00, 
2106.00, 
2107.00, 
2108.00, 
2109.00, 
2110.00, 
2111.00, 
2112.00, 
2113.00, 
2114.00, 
2115.00, 
2116.00, 
2117.00, 
2118.00, 
2119.00, 
2120.00, 
2121.00, 
2122.00, 
2123.00, 
2124.00, 
2125.00, 
2126.00, 
2127.00, 
2128.00, 
2129.00, 
2130.00, 
2131.00, 
2132.00, 
2133.00, 
2134.00, 
2135.00, 
2136.00, 
2137.00, 
2138.00, 
2139.00, 
2140.00, 
2141.00, 
2142.00, 
2143.00, 
2144.00, 
2145.00, 
2146.00, 
2147.00, 
2148.00, 
2149.00, 
2150.00, 
2151.00, 
2152.00, 
2153.00, 
2154.00, 
2155.00, 
2156.00, 
2157.00, 
2158.00, 
2159.00, 
2160.00, 
2161.00, 
2162.00, 
2163.00, 
2164.00, 
2165.00, 
2166.00, 
2167.00, 
2168.00, 
2169.00, 
2170.00, 
2171.00, 
2172.00, 
2173.00, 
2174.00, 
2175.00, 
2176.00, 
2177.00, 
2178.00, 
2179.00, 
2180.00, 
2181.00, 
2182.00, 
2183.00, 
2184.00, 
2185.00, 
2186.00, 
2187.00, 
2188.00, 
2189.00, 
2190.00, 
2191.00, 
2192.00, 
2193.00, 
2194.00, 
2195.00, 
2196.00, 
2197.00, 
2198.00, 
2199.00, 
2200.00, 
2201.00, 
2202.00, 
2203.00, 
2204.00, 
2205.00, 
2206.00, 
2207.00, 
2208.00, 
2209.00, 
2210.00, 
2211.00, 
2212.00, 
2213.00, 
2214.00, 
2215.00, 
2216.00, 
2217.00, 
2218.00, 
2219.00, 
2220.00, 
2221.00, 
2222.00, 
2223.00, 
2224.00, 
2225.00, 
2226.00, 
2227.00, 
2228.00, 
2229.00, 
2230.00, 
2231.00, 
2232.00, 
2233.00, 
2234.00, 
2235.00, 
2236.00, 
2237.00, 
2238.00, 
2239.00, 
2240.00, 
2241.00, 
2242.00, 
2243.00, 
2244.00, 
2245.00, 
2246.00, 
2247.00, 
2248.00, 
2249.00, 
2250.00, 
2251.00, 
2252.00, 
2253.00, 
2254.00, 
2255.00, 
2256.00, 
2257.00, 
2258.00, 
2259.00, 
2260.00, 
2261.00, 
2262.00, 
2263.00, 
2264.00, 
2265.00, 
2266.00, 
2267.00, 
2268.00, 
2269.00, 
2270.00, 
2271.00, 
2272.00, 
2273.00, 
2274.00, 
2275.00, 
2276.00, 
2277.00, 
2278.00, 
2279.00, 
2280.00, 
2281.00, 
2282.00, 
2283.00, 
2284.00, 
2285.00, 
2286.00, 
2287.00, 
2288.00, 
2289.00, 
2290.00, 
2291.00, 
2292.00, 
2293.00, 
2294.00, 
2295.00, 
2296.00, 
2297.00, 
2298.00, 
2299.00, 
2300.00, 
2301.00, 
2302.00, 
2303.00, 
2304.00, 
2305.00, 
2306.00, 
2307.00, 
2308.00, 
2309.00, 
2310.00, 
2311.00, 
2312.00, 
2313.00, 
2314.00, 
2315.00, 
2316.00, 
2317.00, 
2318.00, 
2319.00, 
2320.00, 
2321.00, 
2322.00, 
2323.00, 
2324.00, 
2325.00, 
2326.00, 
2327.00, 
2328.00, 
2329.00, 
2330.00, 
2331.00, 
2332.00, 
2333.00, 
2334.00, 
2335.00, 
2336.00, 
2337.00, 
2338.00, 
2339.00, 
2340.00, 
2341.00, 
2342.00, 
2343.00, 
2344.00, 
2345.00, 
2346.00, 
2347.00, 
2348.00, 
2349.00, 
2350.00, 
2351.00, 
2352.00, 
2353.00, 
2354.00, 
2355.00, 
2356.00, 
2357.00, 
2358.00, 
2359.00, 
2360.00, 
2361.00, 
2362.00, 
2363.00, 
2364.00, 
2365.00, 
2366.00, 
2367.00, 
2368.00, 
2369.00, 
2370.00, 
2371.00, 
2372.00, 
2373.00, 
2374.00, 
2375.00, 
2376.00, 
2377.00, 
2378.00, 
2379.00, 
2380.00, 
2381.00, 
2382.00, 
2383.00, 
2384.00, 
2385.00, 
2386.00, 
2387.00, 
2388.00, 
2389.00, 
2390.00, 
2391.00, 
2392.00, 
2393.00, 
2394.00, 
2395.00, 
2396.00, 
2397.00, 
2398.00, 
2399.00, 
2400.00, 
2401.00, 
2402.00, 
2403.00, 
2404.00, 
2405.00, 
2406.00, 
2407.00, 
2408.00, 
2409.00, 
2410.00, 
2411.00, 
2412.00, 
2413.00, 
2414.00, 
2415.00, 
2416.00, 
2417.00, 
2418.00, 
2419.00, 
2420.00, 
2421.00, 
2422.00, 
2423.00, 
2424.00, 
2425.00, 
2426.00, 
2427.00, 
2428.00, 
2429.00, 
2430.00, 
2431.00, 
2432.00, 
2433.00, 
2434.00, 
2435.00, 
2436.00, 
2437.00, 
2438.00, 
2439.00, 
2440.00, 
2441.00, 
2442.00, 
2443.00, 
2444.00, 
2445.00, 
2446.00, 
2447.00, 
2448.00, 
2449.00, 
2450.00, 
2451.00, 
2452.00, 
2453.00, 
2454.00, 
2455.00, 
2456.00, 
2457.00, 
2458.00, 
2459.00, 
2460.00, 
2461.00, 
2462.00, 
2463.00, 
2464.00, 
2465.00, 
2466.00, 
2467.00, 
2468.00, 
2469.00, 
2470.00, 
2471.00, 
2472.00, 
2473.00, 
2474.00, 
2475.00, 
2476.00, 
2477.00, 
2478.00, 
2479.00, 
2480.00, 
2481.00, 
2482.00, 
2483.00, 
2484.00, 
2485.00, 
2486.00, 
2487.00, 
2488.00, 
2489.00, 
2490.00, 
2491.00, 
2492.00, 
2493.00, 
2494.00, 
2495.00, 
2496.00, 
2497.00, 
2498.00, 
2499.00, 
2500.00, 
2501.00, 
2502.00, 
2503.00, 
2504.00, 
2505.00, 
2506.00, 
2507.00, 
2508.00, 
2509.00, 
2510.00, 
2511.00, 
2512.00, 
2513.00, 
2514.00, 
2515.00, 
2516.00, 
2517.00, 
2518.00, 
2519.00, 
2520.00, 
2521.00, 
2522.00, 
2523.00, 
2524.00, 
2525.00, 
2526.00, 
2527.00, 
2528.00, 
2529.00, 
2530.00, 
2531.00, 
2532.00, 
2533.00, 
2534.00, 
2535.00, 
2536.00, 
2537.00, 
2538.00, 
2539.00, 
2540.00, 
2541.00, 
2542.00, 
2543.00, 
2544.00, 
2545.00, 
2546.00, 
2547.00, 
2548.00, 
2549.00, 
2550.00, 
2551.00, 
2552.00, 
2553.00, 
2554.00, 
2555.00, 
2556.00, 
2557.00, 
2558.00, 
2559.00, 
2560.00, 
2561.00, 
2562.00, 
2563.00, 
2564.00, 
2565.00, 
2566.00, 
2567.00, 
2568.00, 
2569.00, 
2570.00, 
2571.00, 
2572.00, 
2573.00, 
2574.00, 
2575.00, 
2576.00, 
2577.00, 
2578.00, 
2579.00, 
2580.00, 
2581.00, 
2582.00, 
2583.00, 
2584.00, 
2585.00, 
2586.00, 
2587.00, 
2588.00, 
2589.00, 
2590.00, 
2591.00, 
2592.00, 
2593.00, 
2594.00, 
2595.00, 
2596.00, 
2597.00, 
2598.00, 
2599.00, 
2600.00, 
