"1aP2 - RawData"
"Wavelength nm.","T%"
200.00,0.004
201.00,0.002
202.00,0.004
203.00,0.002
204.00,0.003
205.00,0.004
206.00,0.001
207.00,0.002
208.00,0.004
209.00,-0.003
210.00,0.002
211.00,0.004
212.00,0.003
213.00,0.003
214.00,0.002
215.00,0.003
216.00,0.002
217.00,-0.001
218.00,0.004
219.00,0.001
220.00,0.001
221.00,-0.001
222.00,0.002
223.00,-0.001
224.00,0.000
225.00,0.002
226.00,0.001
227.00,0.002
228.00,0.002
229.00,0.000
230.00,0.001
231.00,0.000
232.00,-0.000
233.00,-0.001
234.00,-0.000
235.00,0.000
236.00,0.002
237.00,0.001
238.00,0.002
239.00,-0.001
240.00,-0.001
241.00,0.001
242.00,0.001
243.00,0.001
244.00,0.001
245.00,0.001
246.00,-0.000
247.00,-0.001
248.00,0.000
249.00,-0.001
250.00,0.001
251.00,-0.000
252.00,0.001
253.00,-0.000
254.00,0.001
255.00,-0.000
256.00,0.001
257.00,0.002
258.00,-0.000
259.00,0.001
260.00,-0.001
261.00,0.001
262.00,0.000
263.00,0.000
264.00,0.000
265.00,-0.000
266.00,-0.002
267.00,0.000
268.00,0.000
269.00,0.000
270.00,0.001
271.00,-0.000
272.00,0.001
273.00,-0.000
274.00,-0.002
275.00,-0.001
276.00,0.000
277.00,0.000
278.00,-0.001
279.00,0.001
280.00,0.001
281.00,0.002
282.00,0.000
283.00,0.001
284.00,0.001
285.00,0.002
286.00,-0.001
287.00,0.000
288.00,0.000
289.00,-0.002
290.00,-0.000
291.00,0.001
292.00,-0.000
293.00,0.001
294.00,0.001
295.00,0.000
296.00,-0.000
297.00,0.001
298.00,0.002
299.00,0.003
300.00,0.003
301.00,0.005
302.00,0.008
303.00,0.011
304.00,0.017
305.00,0.031
306.00,0.049
307.00,0.069
308.00,0.108
309.00,0.167
310.00,0.229
311.00,0.312
312.00,0.421
313.00,0.567
314.00,0.741
315.00,0.956
316.00,1.201
317.00,1.478
318.00,1.837
319.00,2.250
320.00,2.704
321.00,3.210
322.00,3.778
323.00,4.413
324.00,5.091
325.00,5.749
326.00,6.446
327.00,7.225
328.00,7.985
329.00,8.809
330.00,9.621
331.00,10.425
332.00,11.237
333.00,12.161
334.00,12.963
335.00,13.838
336.00,14.600
337.00,15.458
338.00,16.297
339.00,17.015
340.00,17.744
341.00,18.439
342.00,19.092
343.00,19.805
344.00,20.398
345.00,21.051
346.00,21.528
347.00,22.103
348.00,22.595
349.00,22.997
350.00,23.429
351.00,23.843
352.00,24.237
353.00,24.568
354.00,24.879
355.00,25.058
356.00,25.486
357.00,25.750
358.00,25.969
359.00,26.215
360.00,26.431
361.00,26.597
362.00,26.705
363.00,26.913
364.00,27.077
365.00,27.167
366.00,27.299
367.00,27.334
368.00,27.398
369.00,27.436
370.00,27.529
371.00,27.536
372.00,27.528
373.00,27.480
374.00,27.512
375.00,27.450
376.00,27.440
377.00,27.369
378.00,27.283
379.00,27.165
380.00,27.171
381.00,27.197
382.00,27.149
383.00,27.133
384.00,27.205
385.00,27.235
386.00,27.199
387.00,27.310
388.00,27.329
389.00,27.354
390.00,27.443
391.00,27.442
392.00,27.494
393.00,27.495
394.00,27.473
395.00,27.520
396.00,27.520
397.00,27.501
398.00,27.523
399.00,27.560
400.00,27.571
401.00,27.549
402.00,27.586
403.00,27.551
404.00,27.490
405.00,27.524
406.00,27.486
407.00,27.484
408.00,27.462
409.00,27.379
410.00,27.301
411.00,27.365
412.00,27.334
413.00,27.341
414.00,27.301
415.00,27.335
416.00,27.357
417.00,27.360
418.00,27.383
419.00,27.444
420.00,27.490
421.00,27.541
422.00,27.574
423.00,27.592
424.00,27.653
425.00,27.662
426.00,27.727
427.00,27.777
428.00,27.794
429.00,27.863
430.00,27.872
431.00,27.941
432.00,27.968
433.00,28.066
434.00,28.119
435.00,28.167
436.00,28.253
437.00,28.328
438.00,28.390
439.00,28.553
440.00,28.513
441.00,28.601
442.00,28.658
443.00,28.732
444.00,28.830
445.00,28.915
446.00,29.058
447.00,29.143
448.00,29.207
449.00,29.348
450.00,29.469
451.00,29.545
452.00,29.674
453.00,29.764
454.00,29.888
455.00,29.986
456.00,30.139
457.00,30.229
458.00,30.294
459.00,30.414
460.00,30.529
461.00,30.684
462.00,30.814
463.00,30.846
464.00,31.024
465.00,31.200
466.00,31.318
467.00,31.472
468.00,31.473
469.00,31.612
470.00,31.749
471.00,31.888
472.00,32.000
473.00,32.043
474.00,32.133
475.00,32.268
476.00,32.371
477.00,32.490
478.00,32.592
479.00,32.757
480.00,32.915
481.00,33.015
482.00,33.181
483.00,33.296
484.00,33.424
485.00,33.622
486.00,33.741
487.00,33.893
488.00,34.011
489.00,34.160
490.00,34.322
491.00,34.411
492.00,34.670
493.00,34.752
494.00,34.751
495.00,34.834
496.00,35.054
497.00,35.176
498.00,35.289
499.00,35.465
500.00,35.555
501.00,35.684
502.00,35.802
503.00,35.945
504.00,35.999
505.00,36.081
506.00,36.256
507.00,36.315
508.00,36.401
509.00,36.536
510.00,36.646
511.00,36.779
512.00,36.907
513.00,36.998
514.00,37.147
515.00,37.336
516.00,37.366
517.00,37.509
518.00,37.628
519.00,37.663
520.00,37.698
521.00,37.805
522.00,37.891
523.00,37.961
524.00,38.035
525.00,38.113
526.00,38.218
527.00,38.275
528.00,38.355
529.00,38.491
530.00,38.525
531.00,38.764
532.00,38.799
533.00,38.912
534.00,38.968
535.00,39.076
536.00,39.141
537.00,39.192
538.00,39.252
539.00,39.298
540.00,39.310
541.00,39.358
542.00,39.430
543.00,39.486
544.00,39.548
545.00,39.533
546.00,39.643
547.00,39.710
548.00,39.745
549.00,39.799
550.00,39.956
551.00,40.053
552.00,40.124
553.00,40.192
554.00,40.259
555.00,40.294
556.00,40.349
557.00,40.420
558.00,40.395
559.00,40.458
560.00,40.467
561.00,40.578
562.00,40.656
563.00,40.647
564.00,40.681
565.00,40.738
566.00,40.710
567.00,40.734
568.00,40.794
569.00,40.832
570.00,40.691
571.00,40.975
572.00,40.982
573.00,40.998
574.00,41.033
575.00,41.057
576.00,41.046
577.00,41.063
578.00,41.157
579.00,41.217
580.00,41.235
581.00,41.327
582.00,41.386
583.00,41.472
584.00,41.507
585.00,41.601
586.00,41.570
587.00,41.650
588.00,41.710
589.00,41.682
590.00,41.742
591.00,41.714
592.00,41.764
593.00,41.768
594.00,41.801
595.00,41.870
596.00,41.965
597.00,42.000
598.00,42.094
599.00,42.061
600.00,42.068
601.00,42.102
602.00,42.164
603.00,42.250
604.00,42.249
605.00,42.331
606.00,42.324
607.00,42.342
608.00,42.425
609.00,42.444
610.00,42.282
611.00,42.362
612.00,42.577
613.00,42.596
614.00,42.652
615.00,42.646
616.00,42.717
617.00,42.737
618.00,42.768
619.00,42.854
620.00,42.837
621.00,42.876
622.00,42.966
623.00,42.969
624.00,43.040
625.00,43.016
626.00,43.084
627.00,43.241
628.00,43.242
629.00,43.275
630.00,43.327
631.00,43.351
632.00,43.471
633.00,43.511
634.00,43.608
635.00,43.676
636.00,43.793
637.00,43.798
638.00,43.832
639.00,43.950
640.00,43.949
641.00,43.990
642.00,44.046
643.00,44.143
644.00,44.203
645.00,44.294
646.00,44.438
647.00,44.412
648.00,44.529
649.00,44.643
650.00,44.503
651.00,44.655
652.00,44.704
653.00,44.759
654.00,44.886
655.00,44.894
656.00,45.037
657.00,45.117
658.00,45.139
659.00,45.262
660.00,45.427
661.00,45.383
662.00,45.482
663.00,45.468
664.00,45.685
665.00,45.770
666.00,45.699
667.00,45.891
668.00,45.882
669.00,46.039
670.00,46.227
671.00,46.209
672.00,46.383
673.00,46.288
674.00,46.432
675.00,46.453
676.00,46.601
677.00,46.703
678.00,46.668
679.00,46.733
680.00,46.768
681.00,46.895
682.00,46.996
683.00,47.078
684.00,47.294
685.00,47.292
686.00,47.216
687.00,47.280
688.00,47.402
689.00,47.364
690.00,47.581
691.00,47.720
692.00,47.651
693.00,47.750
694.00,47.693
695.00,47.797
696.00,47.936
697.00,47.990
698.00,48.092
699.00,48.256
700.00,48.321
701.00,48.380
702.00,48.478
703.00,48.624
704.00,48.560
705.00,48.586
706.00,48.715
707.00,48.772
708.00,48.530
709.00,48.779
710.00,49.104
711.00,48.843
712.00,48.948
713.00,49.029
714.00,49.055
715.00,49.078
716.00,49.174
717.00,49.142
718.00,49.236
719.00,49.350
720.00,49.421
721.00,53.761
722.00,53.771
723.00,53.833
724.00,53.682
725.00,53.679
726.00,53.817
727.00,53.760
728.00,53.799
729.00,53.757
730.00,53.835
731.00,53.856
732.00,53.865
733.00,53.874
734.00,53.878
735.00,53.892
736.00,53.886
737.00,53.988
738.00,54.024
739.00,53.985
740.00,54.046
741.00,54.034
742.00,54.117
743.00,54.081
744.00,54.033
745.00,54.084
746.00,54.094
747.00,54.108
748.00,54.064
749.00,54.054
750.00,54.087
751.00,53.925
752.00,54.003
753.00,54.048
754.00,54.032
755.00,53.992
756.00,54.074
757.00,53.990
758.00,54.107
759.00,54.028
760.00,54.042
761.00,54.070
762.00,53.987
763.00,54.097
764.00,54.072
765.00,54.073
766.00,54.096
767.00,53.988
768.00,54.130
769.00,54.035
770.00,54.158
771.00,54.074
772.00,54.119
773.00,54.058
774.00,54.121
775.00,54.095
776.00,54.063
777.00,54.120
778.00,54.069
779.00,54.123
780.00,54.094
781.00,54.197
782.00,54.184
783.00,54.110
784.00,54.110
785.00,53.974
786.00,54.040
787.00,54.093
788.00,54.035
789.00,54.011
790.00,54.003
791.00,54.048
792.00,53.981
793.00,53.997
794.00,54.015
795.00,53.944
796.00,53.985
797.00,53.874
798.00,53.942
799.00,53.897
800.00,53.844
801.00,53.804
802.00,53.829
803.00,53.818
804.00,53.812
805.00,53.842
806.00,53.780
807.00,53.772
808.00,53.873
809.00,53.731
810.00,53.710
811.00,53.792
812.00,53.778
813.00,53.730
814.00,53.681
815.00,53.608
816.00,53.622
817.00,53.658
818.00,53.458
819.00,53.607
820.00,53.569
821.00,53.586
822.00,53.568
823.00,53.511
824.00,53.503
825.00,53.379
826.00,53.529
827.00,53.582
828.00,53.629
829.00,53.381
830.00,53.431
831.00,55.976
832.00,55.978
833.00,55.916
834.00,55.931
835.00,55.896
836.00,55.903
837.00,55.886
838.00,55.858
839.00,55.904
840.00,55.859
841.00,55.862
842.00,55.746
843.00,55.874
844.00,55.806
845.00,55.701
846.00,55.754
847.00,55.733
848.00,55.727
849.00,55.657
850.00,55.612
851.00,55.579
852.00,55.610
853.00,55.587
854.00,55.520
855.00,55.502
856.00,55.472
857.00,55.470
858.00,55.410
859.00,55.401
860.00,55.435
861.00,55.442
862.00,55.374
863.00,55.404
864.00,55.323
865.00,55.348
866.00,55.326
867.00,55.319
868.00,55.264
869.00,55.283
870.00,55.330
871.00,55.315
872.00,55.305
873.00,55.250
874.00,55.298
875.00,55.204
876.00,55.251
877.00,55.213
878.00,55.229
879.00,55.173
880.00,55.170
881.00,55.170
882.00,55.237
883.00,55.151
884.00,55.124
885.00,55.103
886.00,55.127
887.00,55.061
888.00,55.043
889.00,55.039
890.00,55.037
891.00,55.004
892.00,54.996
893.00,54.972
894.00,54.983
895.00,54.958
896.00,54.932
897.00,54.916
898.00,54.878
899.00,54.861
900.00,54.846
901.00,54.855
902.00,54.888
903.00,54.810
904.00,54.814
905.00,54.821
906.00,54.800
907.00,54.780
908.00,54.737
909.00,54.742
910.00,54.679
911.00,54.691
912.00,54.646
913.00,54.684
914.00,54.519
915.00,54.612
916.00,54.559
917.00,54.552
918.00,54.589
919.00,54.514
920.00,54.486
921.00,54.520
922.00,54.505
923.00,54.438
924.00,54.478
925.00,54.443
926.00,54.420
927.00,54.426
928.00,54.365
929.00,54.400
930.00,54.343
931.00,54.362
932.00,54.291
933.00,54.337
934.00,54.293
935.00,54.262
936.00,54.241
937.00,54.224
938.00,54.179
939.00,54.202
940.00,54.181
941.00,54.182
942.00,54.139
943.00,54.128
944.00,54.095
945.00,54.099
946.00,54.082
947.00,54.026
948.00,54.040
949.00,54.010
950.00,53.989
951.00,53.970
952.00,53.969
953.00,53.923
954.00,53.898
955.00,53.863
956.00,53.848
957.00,53.808
958.00,53.819
959.00,53.753
960.00,53.748
961.00,53.751
962.00,53.766
963.00,53.723
964.00,53.726
965.00,53.729
966.00,53.721
967.00,53.722
968.00,53.689
969.00,53.717
970.00,53.693
971.00,53.696
972.00,53.659
973.00,53.710
974.00,53.723
975.00,53.726
976.00,53.729
977.00,53.713
978.00,53.734
979.00,53.696
980.00,53.701
981.00,53.717
982.00,53.671
983.00,53.673
984.00,53.652
985.00,53.712
986.00,53.654
987.00,53.686
988.00,53.644
989.00,53.636
990.00,53.640
991.00,53.616
992.00,53.622
993.00,53.581
994.00,53.571
995.00,53.578
996.00,53.566
997.00,53.537
998.00,53.506
999.00,53.540
1000.00,53.525
1001.00,53.491
1002.00,53.483
1003.00,53.463
1004.00,53.440
1005.00,53.417
1006.00,53.461
1007.00,53.444
1008.00,53.424
1009.00,53.406
1010.00,53.416
1011.00,53.390
1012.00,53.373
1013.00,53.368
1014.00,53.353
1015.00,53.353
1016.00,53.317
1017.00,53.309
1018.00,53.297
1019.00,53.263
1020.00,53.253
1021.00,53.239
1022.00,53.237
1023.00,53.181
1024.00,53.196
1025.00,53.169
1026.00,53.181
1027.00,53.146
1028.00,53.154
1029.00,53.141
1030.00,53.105
1031.00,53.126
1032.00,53.091
1033.00,53.097
1034.00,53.076
1035.00,53.046
1036.00,53.013
1037.00,52.986
1038.00,52.972
1039.00,52.956
1040.00,52.932
1041.00,52.897
1042.00,52.881
1043.00,52.870
1044.00,52.895
1045.00,52.884
1046.00,52.897
1047.00,52.909
1048.00,52.920
1049.00,52.926
1050.00,52.920
1051.00,52.948
1052.00,52.952
1053.00,52.968
1054.00,52.972
1055.00,52.986
1056.00,53.005
1057.00,53.007
1058.00,52.992
1059.00,52.990
1060.00,52.994
1061.00,53.013
1062.00,52.967
1063.00,52.971
1064.00,52.975
1065.00,52.957
1066.00,52.951
1067.00,52.952
1068.00,52.971
1069.00,52.937
1070.00,52.920
1071.00,52.902
1072.00,52.921
1073.00,52.899
1074.00,52.886
1075.00,52.877
1076.00,52.887
1077.00,52.870
1078.00,52.853
1079.00,52.860
1080.00,52.862
1081.00,52.832
1082.00,52.845
1083.00,52.837
1084.00,52.829
1085.00,52.842
1086.00,52.834
1087.00,52.843
1088.00,52.832
1089.00,52.822
1090.00,52.827
1091.00,52.836
1092.00,52.825
1093.00,52.803
1094.00,52.785
1095.00,52.779
1096.00,52.764
1097.00,52.762
1098.00,52.757
1099.00,52.747
1100.00,52.730
1101.00,52.730
1102.00,52.712
1103.00,52.708
1104.00,52.697
1105.00,52.692
1106.00,52.684
1107.00,52.679
1108.00,52.666
1109.00,52.668
1110.00,52.665
1111.00,52.641
1112.00,52.637
1113.00,52.640
1114.00,52.611
1115.00,52.624
1116.00,52.604
1117.00,52.580
1118.00,52.598
1119.00,52.584
1120.00,52.593
1121.00,52.625
1122.00,52.634
1123.00,52.578
1124.00,52.580
1125.00,52.559
1126.00,52.554
1127.00,52.560
1128.00,52.529
1129.00,52.514
1130.00,52.509
1131.00,52.521
1132.00,52.522
1133.00,52.517
1134.00,52.511
1135.00,52.484
1136.00,52.494
1137.00,52.499
1138.00,52.503
1139.00,52.503
1140.00,52.491
1141.00,52.488
1142.00,52.482
1143.00,52.510
1144.00,52.474
1145.00,52.467
1146.00,52.464
1147.00,52.450
1148.00,52.435
1149.00,52.445
1150.00,52.449
1151.00,52.444
1152.00,52.431
1153.00,52.436
1154.00,52.429
1155.00,52.426
1156.00,52.416
1157.00,52.439
1158.00,52.428
1159.00,52.429
1160.00,52.420
1161.00,52.438
1162.00,52.424
1163.00,52.422
1164.00,52.446
1165.00,52.449
1166.00,52.451
1167.00,52.460
1168.00,52.475
1169.00,52.454
1170.00,52.439
1171.00,52.446
1172.00,52.433
1173.00,52.411
1174.00,52.433
1175.00,52.422
1176.00,52.427
1177.00,52.409
1178.00,52.412
1179.00,52.421
1180.00,52.410
1181.00,52.427
1182.00,52.404
1183.00,52.402
1184.00,52.379
1185.00,52.412
1186.00,52.414
1187.00,52.411
1188.00,52.405
1189.00,52.408
1190.00,52.404
1191.00,52.404
1192.00,52.433
1193.00,52.419
1194.00,52.406
1195.00,52.383
1196.00,52.412
1197.00,52.420
1198.00,52.405
1199.00,52.405
1200.00,52.420
1201.00,52.429
1202.00,52.402
1203.00,52.392
1204.00,52.413
1205.00,52.453
1206.00,52.425
1207.00,52.413
1208.00,52.397
1209.00,52.418
1210.00,52.405
1211.00,52.408
1212.00,52.428
1213.00,52.379
1214.00,52.402
1215.00,52.380
1216.00,52.399
1217.00,52.406
1218.00,52.419
1219.00,52.422
1220.00,52.420
1221.00,52.444
1222.00,52.402
1223.00,52.436
1224.00,52.414
1225.00,52.407
1226.00,52.404
1227.00,52.410
1228.00,52.425
1229.00,52.414
1230.00,52.454
1231.00,52.459
1232.00,52.467
1233.00,52.471
1234.00,52.479
1235.00,52.472
1236.00,52.453
1237.00,52.459
1238.00,52.448
1239.00,52.446
1240.00,52.430
1241.00,52.441
1242.00,52.446
1243.00,52.452
1244.00,52.453
1245.00,52.476
1246.00,52.468
1247.00,52.470
1248.00,52.471
1249.00,52.483
1250.00,52.498
1251.00,52.508
1252.00,52.516
1253.00,52.511
1254.00,52.522
1255.00,52.507
1256.00,52.495
1257.00,52.493
1258.00,52.534
1259.00,52.525
1260.00,52.534
1261.00,52.545
1262.00,52.543
1263.00,52.536
1264.00,52.545
1265.00,52.546
1266.00,52.566
1267.00,52.581
1268.00,52.579
1269.00,52.567
1270.00,52.591
1271.00,52.584
1272.00,52.594
1273.00,52.611
1274.00,52.605
1275.00,52.600
1276.00,52.596
1277.00,52.608
1278.00,52.627
1279.00,52.624
1280.00,52.604
1281.00,52.632
1282.00,52.655
1283.00,52.629
1284.00,52.648
1285.00,52.654
1286.00,52.667
1287.00,52.664
1288.00,52.673
1289.00,52.682
1290.00,52.672
1291.00,52.696
1292.00,52.690
1293.00,52.687
1294.00,52.690
1295.00,52.704
1296.00,52.708
1297.00,52.716
1298.00,52.745
1299.00,52.719
1300.00,52.738
1301.00,52.741
1302.00,52.759
1303.00,52.774
1304.00,52.763
1305.00,52.797
1306.00,52.793
1307.00,52.796
1308.00,52.804
1309.00,52.804
1310.00,52.802
1311.00,52.793
1312.00,52.791
1313.00,52.788
1314.00,52.828
1315.00,52.835
1316.00,52.846
1317.00,52.863
1318.00,52.867
1319.00,52.880
1320.00,52.854
1321.00,53.038
1322.00,53.020
1323.00,53.024
1324.00,52.992
1325.00,52.970
1326.00,52.998
1327.00,52.963
1328.00,52.968
1329.00,52.952
1330.00,52.955
1331.00,52.977
1332.00,52.982
1333.00,52.974
1334.00,53.007
1335.00,53.031
1336.00,53.054
1337.00,53.089
1338.00,53.150
1339.00,53.195
1340.00,53.265
1341.00,53.311
1342.00,53.398
1343.00,53.424
1344.00,53.476
1345.00,53.542
1346.00,53.568
1347.00,53.592
1348.00,53.619
1349.00,53.609
1350.00,53.654
1351.00,53.673
1352.00,53.659
1353.00,53.679
1354.00,53.683
1355.00,53.640
1356.00,53.700
1357.00,53.684
1358.00,53.715
1359.00,53.685
1360.00,53.677
1361.00,53.694
1362.00,53.650
1363.00,53.517
1364.00,53.833
1365.00,53.718
1366.00,53.729
1367.00,53.741
1368.00,53.706
1369.00,53.720
1370.00,53.726
1371.00,53.625
1372.00,53.684
1373.00,53.706
1374.00,53.715
1375.00,53.713
1376.00,53.688
1377.00,53.610
1378.00,53.960
1379.00,53.661
1380.00,53.734
1381.00,53.835
1382.00,53.786
1383.00,53.768
1384.00,53.715
1385.00,53.616
1386.00,53.680
1387.00,53.822
1388.00,53.695
1389.00,53.619
1390.00,53.616
1391.00,53.837
1392.00,53.718
1393.00,53.582
1394.00,53.749
1395.00,53.719
1396.00,53.648
1397.00,53.613
1398.00,53.633
1399.00,53.742
1400.00,53.804
1401.00,53.666
1402.00,53.649
1403.00,53.781
1404.00,53.716
1405.00,53.750
1406.00,53.770
1407.00,53.725
1408.00,53.862
1409.00,53.761
1410.00,53.780
1411.00,53.682
1412.00,53.796
1413.00,53.769
1414.00,53.744
1415.00,53.743
1416.00,53.808
1417.00,53.848
1418.00,53.799
1419.00,53.800
1420.00,53.814
1421.00,53.858
1422.00,53.875
1423.00,53.892
1424.00,53.883
1425.00,53.908
1426.00,53.911
1427.00,53.948
1428.00,53.929
1429.00,53.912
1430.00,53.955
1431.00,53.973
1432.00,53.959
1433.00,53.986
1434.00,53.957
1435.00,54.028
1436.00,54.058
1437.00,54.033
1438.00,54.064
1439.00,54.099
1440.00,54.090
1441.00,54.114
1442.00,54.116
1443.00,54.140
1444.00,54.209
1445.00,54.161
1446.00,54.166
1447.00,54.222
1448.00,54.223
1449.00,54.248
1450.00,54.258
1451.00,54.255
1452.00,54.283
1453.00,54.300
1454.00,54.317
1455.00,54.349
1456.00,54.333
1457.00,54.335
1458.00,54.351
1459.00,54.361
1460.00,54.397
1461.00,54.408
1462.00,54.412
1463.00,54.417
1464.00,54.436
1465.00,54.456
1466.00,54.456
1467.00,54.472
1468.00,54.534
1469.00,54.521
1470.00,54.520
1471.00,54.562
1472.00,54.560
1473.00,54.540
1474.00,54.579
1475.00,54.598
1476.00,54.592
1477.00,54.601
1478.00,54.621
1479.00,54.651
1480.00,54.643
1481.00,54.631
1482.00,54.682
1483.00,54.695
1484.00,54.687
1485.00,54.716
1486.00,54.727
1487.00,54.735
1488.00,54.749
1489.00,54.731
1490.00,54.762
1491.00,54.785
1492.00,54.777
1493.00,54.773
1494.00,54.816
1495.00,54.795
1496.00,54.822
1497.00,54.822
1498.00,54.815
1499.00,54.840
1500.00,54.823
1501.00, 
1502.00, 
1503.00, 
1504.00, 
1505.00, 
1506.00, 
1507.00, 
1508.00, 
1509.00, 
1510.00, 
1511.00, 
1512.00, 
1513.00, 
1514.00, 
1515.00, 
1516.00, 
1517.00, 
1518.00, 
1519.00, 
1520.00, 
1521.00, 
1522.00, 
1523.00, 
1524.00, 
1525.00, 
1526.00, 
1527.00, 
1528.00, 
1529.00, 
1530.00, 
1531.00, 
1532.00, 
1533.00, 
1534.00, 
1535.00, 
1536.00, 
1537.00, 
1538.00, 
1539.00, 
1540.00, 
1541.00, 
1542.00, 
1543.00, 
1544.00, 
1545.00, 
1546.00, 
1547.00, 
1548.00, 
1549.00, 
1550.00, 
1551.00, 
1552.00, 
1553.00, 
1554.00, 
1555.00, 
1556.00, 
1557.00, 
1558.00, 
1559.00, 
1560.00, 
1561.00, 
1562.00, 
1563.00, 
1564.00, 
1565.00, 
1566.00, 
1567.00, 
1568.00, 
1569.00, 
1570.00, 
1571.00, 
1572.00, 
1573.00, 
1574.00, 
1575.00, 
1576.00, 
1577.00, 
1578.00, 
1579.00, 
1580.00, 
1581.00, 
1582.00, 
1583.00, 
1584.00, 
1585.00, 
1586.00, 
1587.00, 
1588.00, 
1589.00, 
1590.00, 
1591.00, 
1592.00, 
1593.00, 
1594.00, 
1595.00, 
1596.00, 
1597.00, 
1598.00, 
1599.00, 
1600.00, 
1601.00, 
1602.00, 
1603.00, 
1604.00, 
1605.00, 
1606.00, 
1607.00, 
1608.00, 
1609.00, 
1610.00, 
1611.00, 
1612.00, 
1613.00, 
1614.00, 
1615.00, 
1616.00, 
1617.00, 
1618.00, 
1619.00, 
1620.00, 
1621.00, 
1622.00, 
1623.00, 
1624.00, 
1625.00, 
1626.00, 
1627.00, 
1628.00, 
1629.00, 
1630.00, 
1631.00, 
1632.00, 
1633.00, 
1634.00, 
1635.00, 
1636.00, 
1637.00, 
1638.00, 
1639.00, 
1640.00, 
1641.00, 
1642.00, 
1643.00, 
1644.00, 
1645.00, 
1646.00, 
1647.00, 
1648.00, 
1649.00, 
1650.00, 
1651.00, 
1652.00, 
1653.00, 
1654.00, 
1655.00, 
1656.00, 
1657.00, 
1658.00, 
1659.00, 
1660.00, 
1661.00, 
1662.00, 
1663.00, 
1664.00, 
1665.00, 
1666.00, 
1667.00, 
1668.00, 
1669.00, 
1670.00, 
1671.00, 
1672.00, 
1673.00, 
1674.00, 
1675.00, 
1676.00, 
1677.00, 
1678.00, 
1679.00, 
1680.00, 
1681.00, 
1682.00, 
1683.00, 
1684.00, 
1685.00, 
1686.00, 
1687.00, 
1688.00, 
1689.00, 
1690.00, 
1691.00, 
1692.00, 
1693.00, 
1694.00, 
1695.00, 
1696.00, 
1697.00, 
1698.00, 
1699.00, 
1700.00, 
1701.00, 
1702.00, 
1703.00, 
1704.00, 
1705.00, 
1706.00, 
1707.00, 
1708.00, 
1709.00, 
1710.00, 
1711.00, 
1712.00, 
1713.00, 
1714.00, 
1715.00, 
1716.00, 
1717.00, 
1718.00, 
1719.00, 
1720.00, 
1721.00, 
1722.00, 
1723.00, 
1724.00, 
1725.00, 
1726.00, 
1727.00, 
1728.00, 
1729.00, 
1730.00, 
1731.00, 
1732.00, 
1733.00, 
1734.00, 
1735.00, 
1736.00, 
1737.00, 
1738.00, 
1739.00, 
1740.00, 
1741.00, 
1742.00, 
1743.00, 
1744.00, 
1745.00, 
1746.00, 
1747.00, 
1748.00, 
1749.00, 
1750.00, 
1751.00, 
1752.00, 
1753.00, 
1754.00, 
1755.00, 
1756.00, 
1757.00, 
1758.00, 
1759.00, 
1760.00, 
1761.00, 
1762.00, 
1763.00, 
1764.00, 
1765.00, 
1766.00, 
1767.00, 
1768.00, 
1769.00, 
1770.00, 
1771.00, 
1772.00, 
1773.00, 
1774.00, 
1775.00, 
1776.00, 
1777.00, 
1778.00, 
1779.00, 
1780.00, 
1781.00, 
1782.00, 
1783.00, 
1784.00, 
1785.00, 
1786.00, 
1787.00, 
1788.00, 
1789.00, 
1790.00, 
1791.00, 
1792.00, 
1793.00, 
1794.00, 
1795.00, 
1796.00, 
1797.00, 
1798.00, 
1799.00, 
1800.00, 
1801.00, 
1802.00, 
1803.00, 
1804.00, 
1805.00, 
1806.00, 
1807.00, 
1808.00, 
1809.00, 
1810.00, 
1811.00, 
1812.00, 
1813.00, 
1814.00, 
1815.00, 
1816.00, 
1817.00, 
1818.00, 
1819.00, 
1820.00, 
1821.00, 
1822.00, 
1823.00, 
1824.00, 
1825.00, 
1826.00, 
1827.00, 
1828.00, 
1829.00, 
1830.00, 
1831.00, 
1832.00, 
1833.00, 
1834.00, 
1835.00, 
1836.00, 
1837.00, 
1838.00, 
1839.00, 
1840.00, 
1841.00, 
1842.00, 
1843.00, 
1844.00, 
1845.00, 
1846.00, 
1847.00, 
1848.00, 
1849.00, 
1850.00, 
1851.00, 
1852.00, 
1853.00, 
1854.00, 
1855.00, 
1856.00, 
1857.00, 
1858.00, 
1859.00, 
1860.00, 
1861.00, 
1862.00, 
1863.00, 
1864.00, 
1865.00, 
1866.00, 
1867.00, 
1868.00, 
1869.00, 
1870.00, 
1871.00, 
1872.00, 
1873.00, 
1874.00, 
1875.00, 
1876.00, 
1877.00, 
1878.00, 
1879.00, 
1880.00, 
1881.00, 
1882.00, 
1883.00, 
1884.00, 
1885.00, 
1886.00, 
1887.00, 
1888.00, 
1889.00, 
1890.00, 
1891.00, 
1892.00, 
1893.00, 
1894.00, 
1895.00, 
1896.00, 
1897.00, 
1898.00, 
1899.00, 
1900.00, 
1901.00, 
1902.00, 
1903.00, 
1904.00, 
1905.00, 
1906.00, 
1907.00, 
1908.00, 
1909.00, 
1910.00, 
1911.00, 
1912.00, 
1913.00, 
1914.00, 
1915.00, 
1916.00, 
1917.00, 
1918.00, 
1919.00, 
1920.00, 
1921.00, 
1922.00, 
1923.00, 
1924.00, 
1925.00, 
1926.00, 
1927.00, 
1928.00, 
1929.00, 
1930.00, 
1931.00, 
1932.00, 
1933.00, 
1934.00, 
1935.00, 
1936.00, 
1937.00, 
1938.00, 
1939.00, 
1940.00, 
1941.00, 
1942.00, 
1943.00, 
1944.00, 
1945.00, 
1946.00, 
1947.00, 
1948.00, 
1949.00, 
1950.00, 
1951.00, 
1952.00, 
1953.00, 
1954.00, 
1955.00, 
1956.00, 
1957.00, 
1958.00, 
1959.00, 
1960.00, 
1961.00, 
1962.00, 
1963.00, 
1964.00, 
1965.00, 
1966.00, 
1967.00, 
1968.00, 
1969.00, 
1970.00, 
1971.00, 
1972.00, 
1973.00, 
1974.00, 
1975.00, 
1976.00, 
1977.00, 
1978.00, 
1979.00, 
1980.00, 
1981.00, 
1982.00, 
1983.00, 
1984.00, 
1985.00, 
1986.00, 
1987.00, 
1988.00, 
1989.00, 
1990.00, 
1991.00, 
1992.00, 
1993.00, 
1994.00, 
1995.00, 
1996.00, 
1997.00, 
1998.00, 
1999.00, 
2000.00, 
2001.00, 
2002.00, 
2003.00, 
2004.00, 
2005.00, 
2006.00, 
2007.00, 
2008.00, 
2009.00, 
2010.00, 
2011.00, 
2012.00, 
2013.00, 
2014.00, 
2015.00, 
2016.00, 
2017.00, 
2018.00, 
2019.00, 
2020.00, 
2021.00, 
2022.00, 
2023.00, 
2024.00, 
2025.00, 
2026.00, 
2027.00, 
2028.00, 
2029.00, 
2030.00, 
2031.00, 
2032.00, 
2033.00, 
2034.00, 
2035.00, 
2036.00, 
2037.00, 
2038.00, 
2039.00, 
2040.00, 
2041.00, 
2042.00, 
2043.00, 
2044.00, 
2045.00, 
2046.00, 
2047.00, 
2048.00, 
2049.00, 
2050.00, 
2051.00, 
2052.00, 
2053.00, 
2054.00, 
2055.00, 
2056.00, 
2057.00, 
2058.00, 
2059.00, 
2060.00, 
2061.00, 
2062.00, 
2063.00, 
2064.00, 
2065.00, 
2066.00, 
2067.00, 
2068.00, 
2069.00, 
2070.00, 
2071.00, 
2072.00, 
2073.00, 
2074.00, 
2075.00, 
2076.00, 
2077.00, 
2078.00, 
2079.00, 
2080.00, 
2081.00, 
2082.00, 
2083.00, 
2084.00, 
2085.00, 
2086.00, 
2087.00, 
2088.00, 
2089.00, 
2090.00, 
2091.00, 
2092.00, 
2093.00, 
2094.00, 
2095.00, 
2096.00, 
2097.00, 
2098.00, 
2099.00, 
2100.00, 
2101.00, 
2102.00, 
2103.00, 
2104.00, 
2105.00, 
2106.00, 
2107.00, 
2108.00, 
2109.00, 
2110.00, 
2111.00, 
2112.00, 
2113.00, 
2114.00, 
2115.00, 
2116.00, 
2117.00, 
2118.00, 
2119.00, 
2120.00, 
2121.00, 
2122.00, 
2123.00, 
2124.00, 
2125.00, 
2126.00, 
2127.00, 
2128.00, 
2129.00, 
2130.00, 
2131.00, 
2132.00, 
2133.00, 
2134.00, 
2135.00, 
2136.00, 
2137.00, 
2138.00, 
2139.00, 
2140.00, 
2141.00, 
2142.00, 
2143.00, 
2144.00, 
2145.00, 
2146.00, 
2147.00, 
2148.00, 
2149.00, 
2150.00, 
2151.00, 
2152.00, 
2153.00, 
2154.00, 
2155.00, 
2156.00, 
2157.00, 
2158.00, 
2159.00, 
2160.00, 
2161.00, 
2162.00, 
2163.00, 
2164.00, 
2165.00, 
2166.00, 
2167.00, 
2168.00, 
2169.00, 
2170.00, 
2171.00, 
2172.00, 
2173.00, 
2174.00, 
2175.00, 
2176.00, 
2177.00, 
2178.00, 
2179.00, 
2180.00, 
2181.00, 
2182.00, 
2183.00, 
2184.00, 
2185.00, 
2186.00, 
2187.00, 
2188.00, 
2189.00, 
2190.00, 
2191.00, 
2192.00, 
2193.00, 
2194.00, 
2195.00, 
2196.00, 
2197.00, 
2198.00, 
2199.00, 
2200.00, 
2201.00, 
2202.00, 
2203.00, 
2204.00, 
2205.00, 
2206.00, 
2207.00, 
2208.00, 
2209.00, 
2210.00, 
2211.00, 
2212.00, 
2213.00, 
2214.00, 
2215.00, 
2216.00, 
2217.00, 
2218.00, 
2219.00, 
2220.00, 
2221.00, 
2222.00, 
2223.00, 
2224.00, 
2225.00, 
2226.00, 
2227.00, 
2228.00, 
2229.00, 
2230.00, 
2231.00, 
2232.00, 
2233.00, 
2234.00, 
2235.00, 
2236.00, 
2237.00, 
2238.00, 
2239.00, 
2240.00, 
2241.00, 
2242.00, 
2243.00, 
2244.00, 
2245.00, 
2246.00, 
2247.00, 
2248.00, 
2249.00, 
2250.00, 
2251.00, 
2252.00, 
2253.00, 
2254.00, 
2255.00, 
2256.00, 
2257.00, 
2258.00, 
2259.00, 
2260.00, 
2261.00, 
2262.00, 
2263.00, 
2264.00, 
2265.00, 
2266.00, 
2267.00, 
2268.00, 
2269.00, 
2270.00, 
2271.00, 
2272.00, 
2273.00, 
2274.00, 
2275.00, 
2276.00, 
2277.00, 
2278.00, 
2279.00, 
2280.00, 
2281.00, 
2282.00, 
2283.00, 
2284.00, 
2285.00, 
2286.00, 
2287.00, 
2288.00, 
2289.00, 
2290.00, 
2291.00, 
2292.00, 
2293.00, 
2294.00, 
2295.00, 
2296.00, 
2297.00, 
2298.00, 
2299.00, 
2300.00, 
2301.00, 
2302.00, 
2303.00, 
2304.00, 
2305.00, 
2306.00, 
2307.00, 
2308.00, 
2309.00, 
2310.00, 
2311.00, 
2312.00, 
2313.00, 
2314.00, 
2315.00, 
2316.00, 
2317.00, 
2318.00, 
2319.00, 
2320.00, 
2321.00, 
2322.00, 
2323.00, 
2324.00, 
2325.00, 
2326.00, 
2327.00, 
2328.00, 
2329.00, 
2330.00, 
2331.00, 
2332.00, 
2333.00, 
2334.00, 
2335.00, 
2336.00, 
2337.00, 
2338.00, 
2339.00, 
2340.00, 
2341.00, 
2342.00, 
2343.00, 
2344.00, 
2345.00, 
2346.00, 
2347.00, 
2348.00, 
2349.00, 
2350.00, 
2351.00, 
2352.00, 
2353.00, 
2354.00, 
2355.00, 
2356.00, 
2357.00, 
2358.00, 
2359.00, 
2360.00, 
2361.00, 
2362.00, 
2363.00, 
2364.00, 
2365.00, 
2366.00, 
2367.00, 
2368.00, 
2369.00, 
2370.00, 
2371.00, 
2372.00, 
2373.00, 
2374.00, 
2375.00, 
2376.00, 
2377.00, 
2378.00, 
2379.00, 
2380.00, 
2381.00, 
2382.00, 
2383.00, 
2384.00, 
2385.00, 
2386.00, 
2387.00, 
2388.00, 
2389.00, 
2390.00, 
2391.00, 
2392.00, 
2393.00, 
2394.00, 
2395.00, 
2396.00, 
2397.00, 
2398.00, 
2399.00, 
2400.00, 
2401.00, 
2402.00, 
2403.00, 
2404.00, 
2405.00, 
2406.00, 
2407.00, 
2408.00, 
2409.00, 
2410.00, 
2411.00, 
2412.00, 
2413.00, 
2414.00, 
2415.00, 
2416.00, 
2417.00, 
2418.00, 
2419.00, 
2420.00, 
2421.00, 
2422.00, 
2423.00, 
2424.00, 
2425.00, 
2426.00, 
2427.00, 
2428.00, 
2429.00, 
2430.00, 
2431.00, 
2432.00, 
2433.00, 
2434.00, 
2435.00, 
2436.00, 
2437.00, 
2438.00, 
2439.00, 
2440.00, 
2441.00, 
2442.00, 
2443.00, 
2444.00, 
2445.00, 
2446.00, 
2447.00, 
2448.00, 
2449.00, 
2450.00, 
2451.00, 
2452.00, 
2453.00, 
2454.00, 
2455.00, 
2456.00, 
2457.00, 
2458.00, 
2459.00, 
2460.00, 
2461.00, 
2462.00, 
2463.00, 
2464.00, 
2465.00, 
2466.00, 
2467.00, 
2468.00, 
2469.00, 
2470.00, 
2471.00, 
2472.00, 
2473.00, 
2474.00, 
2475.00, 
2476.00, 
2477.00, 
2478.00, 
2479.00, 
2480.00, 
2481.00, 
2482.00, 
2483.00, 
2484.00, 
2485.00, 
2486.00, 
2487.00, 
2488.00, 
2489.00, 
2490.00, 
2491.00, 
2492.00, 
2493.00, 
2494.00, 
2495.00, 
2496.00, 
2497.00, 
2498.00, 
2499.00, 
2500.00, 
2501.00, 
2502.00, 
2503.00, 
2504.00, 
2505.00, 
2506.00, 
2507.00, 
2508.00, 
2509.00, 
2510.00, 
2511.00, 
2512.00, 
2513.00, 
2514.00, 
2515.00, 
2516.00, 
2517.00, 
2518.00, 
2519.00, 
2520.00, 
2521.00, 
2522.00, 
2523.00, 
2524.00, 
2525.00, 
2526.00, 
2527.00, 
2528.00, 
2529.00, 
2530.00, 
2531.00, 
2532.00, 
2533.00, 
2534.00, 
2535.00, 
2536.00, 
2537.00, 
2538.00, 
2539.00, 
2540.00, 
2541.00, 
2542.00, 
2543.00, 
2544.00, 
2545.00, 
2546.00, 
2547.00, 
2548.00, 
2549.00, 
2550.00, 
2551.00, 
2552.00, 
2553.00, 
2554.00, 
2555.00, 
2556.00, 
2557.00, 
2558.00, 
2559.00, 
2560.00, 
2561.00, 
2562.00, 
2563.00, 
2564.00, 
2565.00, 
2566.00, 
2567.00, 
2568.00, 
2569.00, 
2570.00, 
2571.00, 
2572.00, 
2573.00, 
2574.00, 
2575.00, 
2576.00, 
2577.00, 
2578.00, 
2579.00, 
2580.00, 
2581.00, 
2582.00, 
2583.00, 
2584.00, 
2585.00, 
2586.00, 
2587.00, 
2588.00, 
2589.00, 
2590.00, 
2591.00, 
2592.00, 
2593.00, 
2594.00, 
2595.00, 
2596.00, 
2597.00, 
2598.00, 
2599.00, 
2600.00, 
