"1cP1 - RawData"
"Wavelength nm.","T%"
200.00,0.001
201.00,0.002
202.00,-0.004
203.00,0.002
204.00,-0.000
205.00,0.000
206.00,0.001
207.00,0.004
208.00,0.002
209.00,0.001
210.00,-0.000
211.00,0.001
212.00,-0.000
213.00,0.001
214.00,0.002
215.00,0.001
216.00,-0.003
217.00,0.001
218.00,-0.001
219.00,0.002
220.00,0.002
221.00,0.002
222.00,0.001
223.00,0.003
224.00,-0.000
225.00,0.000
226.00,-0.002
227.00,-0.001
228.00,0.002
229.00,0.002
230.00,0.001
231.00,0.000
232.00,0.001
233.00,0.001
234.00,0.003
235.00,0.000
236.00,-0.000
237.00,0.001
238.00,-0.001
239.00,-0.000
240.00,-0.000
241.00,0.001
242.00,0.000
243.00,0.000
244.00,-0.000
245.00,-0.000
246.00,0.000
247.00,-0.000
248.00,-0.000
249.00,0.000
250.00,0.000
251.00,-0.000
252.00,0.001
253.00,-0.000
254.00,0.002
255.00,0.002
256.00,-0.000
257.00,-0.001
258.00,0.001
259.00,-0.001
260.00,0.001
261.00,0.002
262.00,0.001
263.00,0.002
264.00,0.001
265.00,0.001
266.00,0.000
267.00,-0.001
268.00,0.001
269.00,-0.001
270.00,-0.000
271.00,0.000
272.00,-0.000
273.00,-0.000
274.00,-0.003
275.00,0.001
276.00,0.000
277.00,0.001
278.00,0.000
279.00,-0.000
280.00,0.000
281.00,0.000
282.00,-0.001
283.00,-0.000
284.00,0.001
285.00,0.002
286.00,0.002
287.00,-0.001
288.00,-0.001
289.00,0.001
290.00,0.000
291.00,0.001
292.00,-0.001
293.00,-0.001
294.00,0.001
295.00,0.001
296.00,-0.000
297.00,0.000
298.00,0.002
299.00,0.002
300.00,0.001
301.00,0.001
302.00,-0.001
303.00,0.000
304.00,0.003
305.00,0.004
306.00,0.002
307.00,0.004
308.00,0.005
309.00,0.011
310.00,0.019
311.00,0.029
312.00,0.041
313.00,0.063
314.00,0.103
315.00,0.142
316.00,0.203
317.00,0.290
318.00,0.396
319.00,0.544
320.00,0.714
321.00,0.935
322.00,1.195
323.00,1.498
324.00,1.852
325.00,2.244
326.00,2.650
327.00,3.155
328.00,3.687
329.00,4.264
330.00,4.847
331.00,5.499
332.00,6.186
333.00,6.936
334.00,7.612
335.00,8.391
336.00,9.113
337.00,9.896
338.00,10.712
339.00,11.421
340.00,12.190
341.00,12.907
342.00,13.649
343.00,14.322
344.00,14.969
345.00,15.641
346.00,16.226
347.00,16.848
348.00,17.399
349.00,17.940
350.00,18.395
351.00,18.883
352.00,19.286
353.00,19.710
354.00,20.130
355.00,20.496
356.00,20.828
357.00,21.109
358.00,21.457
359.00,21.785
360.00,22.022
361.00,22.218
362.00,22.447
363.00,22.641
364.00,22.737
365.00,22.887
366.00,23.125
367.00,23.137
368.00,23.182
369.00,23.265
370.00,23.383
371.00,23.439
372.00,23.372
373.00,23.408
374.00,23.395
375.00,23.370
376.00,23.278
377.00,23.183
378.00,23.104
379.00,22.986
380.00,23.001
381.00,23.010
382.00,22.966
383.00,23.030
384.00,23.077
385.00,23.142
386.00,23.182
387.00,23.311
388.00,23.404
389.00,23.384
390.00,23.493
391.00,23.553
392.00,23.569
393.00,23.593
394.00,23.637
395.00,23.702
396.00,23.702
397.00,23.657
398.00,23.707
399.00,23.702
400.00,23.757
401.00,23.751
402.00,23.770
403.00,23.733
404.00,23.751
405.00,23.729
406.00,23.692
407.00,23.655
408.00,23.653
409.00,23.611
410.00,23.546
411.00,23.540
412.00,23.484
413.00,23.524
414.00,23.506
415.00,23.503
416.00,23.551
417.00,23.506
418.00,23.555
419.00,23.615
420.00,23.650
421.00,23.659
422.00,23.660
423.00,23.713
424.00,23.750
425.00,23.756
426.00,23.786
427.00,23.818
428.00,23.864
429.00,23.893
430.00,23.962
431.00,24.003
432.00,24.022
433.00,24.095
434.00,24.116
435.00,24.208
436.00,24.268
437.00,24.332
438.00,24.409
439.00,24.487
440.00,24.478
441.00,24.558
442.00,24.594
443.00,24.702
444.00,24.793
445.00,24.855
446.00,24.977
447.00,25.059
448.00,25.143
449.00,25.244
450.00,25.342
451.00,25.421
452.00,25.550
453.00,25.662
454.00,25.767
455.00,25.863
456.00,26.005
457.00,26.072
458.00,26.140
459.00,26.333
460.00,26.426
461.00,26.558
462.00,26.651
463.00,26.809
464.00,26.886
465.00,27.053
466.00,27.176
467.00,27.316
468.00,27.390
469.00,27.484
470.00,27.584
471.00,27.677
472.00,27.785
473.00,27.859
474.00,27.975
475.00,28.078
476.00,28.190
477.00,28.296
478.00,28.407
479.00,28.592
480.00,28.719
481.00,28.820
482.00,28.990
483.00,29.087
484.00,29.299
485.00,29.422
486.00,29.509
487.00,29.685
488.00,29.771
489.00,30.000
490.00,30.140
491.00,30.225
492.00,30.489
493.00,30.596
494.00,30.601
495.00,30.769
496.00,30.884
497.00,30.947
498.00,31.101
499.00,31.238
500.00,31.412
501.00,31.471
502.00,31.618
503.00,31.757
504.00,31.774
505.00,31.933
506.00,32.037
507.00,32.131
508.00,32.274
509.00,32.407
510.00,32.566
511.00,32.561
512.00,32.770
513.00,32.865
514.00,33.048
515.00,33.202
516.00,33.281
517.00,33.360
518.00,33.503
519.00,33.560
520.00,33.574
521.00,33.698
522.00,33.806
523.00,33.849
524.00,33.949
525.00,34.059
526.00,34.156
527.00,34.264
528.00,34.292
529.00,34.472
530.00,34.601
531.00,34.742
532.00,34.795
533.00,34.900
534.00,34.982
535.00,35.082
536.00,35.141
537.00,35.214
538.00,35.307
539.00,35.342
540.00,35.409
541.00,35.471
542.00,35.533
543.00,35.603
544.00,35.715
545.00,35.733
546.00,35.818
547.00,35.931
548.00,36.004
549.00,36.051
550.00,36.073
551.00,36.239
552.00,36.318
553.00,36.312
554.00,36.462
555.00,36.448
556.00,36.536
557.00,36.532
558.00,36.668
559.00,36.763
560.00,36.796
561.00,36.845
562.00,36.933
563.00,36.972
564.00,37.060
565.00,37.038
566.00,37.072
567.00,37.100
568.00,37.166
569.00,37.186
570.00,37.236
571.00,37.298
572.00,37.329
573.00,37.302
574.00,37.340
575.00,37.340
576.00,37.361
577.00,37.424
578.00,37.532
579.00,37.687
580.00,37.640
581.00,37.719
582.00,37.772
583.00,37.840
584.00,37.893
585.00,38.003
586.00,38.066
587.00,38.108
588.00,38.116
589.00,38.138
590.00,38.245
591.00,38.301
592.00,38.228
593.00,38.232
594.00,38.383
595.00,38.405
596.00,38.455
597.00,38.500
598.00,38.559
599.00,38.612
600.00,38.652
601.00,38.584
602.00,38.551
603.00,38.544
604.00,38.860
605.00,38.980
606.00,38.899
607.00,38.924
608.00,39.117
609.00,39.185
610.00,39.016
611.00,39.087
612.00,39.146
613.00,39.239
614.00,39.206
615.00,39.305
616.00,39.372
617.00,39.387
618.00,39.372
619.00,39.423
620.00,39.575
621.00,39.590
622.00,39.612
623.00,39.647
624.00,39.700
625.00,39.809
626.00,39.832
627.00,39.886
628.00,39.919
629.00,39.927
630.00,39.996
631.00,40.043
632.00,40.147
633.00,40.264
634.00,40.283
635.00,40.381
636.00,40.486
637.00,40.443
638.00,40.502
639.00,40.652
640.00,40.619
641.00,40.676
642.00,40.711
643.00,40.848
644.00,40.889
645.00,40.921
646.00,41.155
647.00,41.132
648.00,41.263
649.00,41.262
650.00,41.203
651.00,41.398
652.00,41.420
653.00,41.448
654.00,41.427
655.00,41.642
656.00,41.941
657.00,41.684
658.00,41.815
659.00,41.866
660.00,42.017
661.00,42.019
662.00,42.018
663.00,42.184
664.00,42.377
665.00,42.636
666.00,42.363
667.00,42.329
668.00,42.541
669.00,43.283
670.00,43.063
671.00,42.934
672.00,43.130
673.00,43.084
674.00,43.166
675.00,43.232
676.00,43.429
677.00,43.579
678.00,43.374
679.00,43.524
680.00,43.559
681.00,43.823
682.00,43.783
683.00,43.773
684.00,43.978
685.00,44.044
686.00,43.997
687.00,44.067
688.00,44.198
689.00,44.178
690.00,44.412
691.00,44.708
692.00,44.396
693.00,44.379
694.00,44.586
695.00,44.709
696.00,44.841
697.00,44.772
698.00,44.812
699.00,45.057
700.00,45.013
701.00,45.169
702.00,45.235
703.00,45.413
704.00,45.407
705.00,45.392
706.00,45.514
707.00,45.474
708.00,45.374
709.00,45.742
710.00,46.127
711.00,45.628
712.00,45.772
713.00,45.852
714.00,45.964
715.00,45.927
716.00,45.968
717.00,46.116
718.00,46.162
719.00,46.194
720.00,46.209
721.00,50.857
722.00,50.892
723.00,50.877
724.00,50.855
725.00,50.874
726.00,50.966
727.00,50.872
728.00,50.865
729.00,50.864
730.00,50.959
731.00,50.994
732.00,51.001
733.00,50.987
734.00,50.944
735.00,51.064
736.00,51.110
737.00,51.105
738.00,51.171
739.00,51.138
740.00,51.162
741.00,51.154
742.00,51.244
743.00,51.194
744.00,51.221
745.00,51.195
746.00,51.177
747.00,51.256
748.00,51.211
749.00,51.221
750.00,51.264
751.00,51.164
752.00,51.180
753.00,51.185
754.00,51.126
755.00,51.162
756.00,51.177
757.00,51.190
758.00,51.196
759.00,51.206
760.00,51.202
761.00,51.185
762.00,51.141
763.00,51.250
764.00,51.228
765.00,51.185
766.00,51.184
767.00,51.215
768.00,51.207
769.00,51.190
770.00,51.322
771.00,51.287
772.00,51.294
773.00,51.218
774.00,51.226
775.00,51.227
776.00,51.248
777.00,51.255
778.00,51.248
779.00,51.249
780.00,51.289
781.00,51.333
782.00,51.275
783.00,51.237
784.00,51.248
785.00,51.185
786.00,51.202
787.00,51.219
788.00,51.169
789.00,51.200
790.00,51.136
791.00,51.180
792.00,51.118
793.00,51.100
794.00,51.083
795.00,51.076
796.00,51.122
797.00,51.010
798.00,51.037
799.00,51.019
800.00,50.997
801.00,50.879
802.00,50.934
803.00,50.892
804.00,50.886
805.00,50.952
806.00,50.876
807.00,50.884
808.00,50.848
809.00,50.745
810.00,50.845
811.00,50.841
812.00,50.823
813.00,50.809
814.00,50.739
815.00,50.726
816.00,50.747
817.00,50.713
818.00,50.579
819.00,50.575
820.00,50.587
821.00,50.628
822.00,50.616
823.00,50.522
824.00,50.534
825.00,50.561
826.00,50.597
827.00,50.602
828.00,50.538
829.00,50.469
830.00,50.503
831.00,52.832
832.00,52.858
833.00,52.774
834.00,52.795
835.00,52.729
836.00,52.724
837.00,52.700
838.00,52.690
839.00,52.682
840.00,52.638
841.00,52.643
842.00,52.607
843.00,52.611
844.00,52.591
845.00,52.525
846.00,52.540
847.00,52.508
848.00,52.488
849.00,52.409
850.00,52.419
851.00,52.360
852.00,52.354
853.00,52.311
854.00,52.281
855.00,52.230
856.00,52.205
857.00,52.171
858.00,52.146
859.00,52.120
860.00,52.141
861.00,52.148
862.00,52.100
863.00,52.106
864.00,52.056
865.00,52.086
866.00,52.025
867.00,52.048
868.00,52.033
869.00,52.008
870.00,52.013
871.00,52.007
872.00,52.005
873.00,51.958
874.00,52.005
875.00,51.930
876.00,51.958
877.00,51.921
878.00,51.929
879.00,51.887
880.00,51.899
881.00,51.864
882.00,51.906
883.00,51.847
884.00,51.808
885.00,51.815
886.00,51.769
887.00,51.810
888.00,51.703
889.00,51.704
890.00,51.680
891.00,51.639
892.00,51.638
893.00,51.611
894.00,51.617
895.00,51.584
896.00,51.564
897.00,51.525
898.00,51.515
899.00,51.503
900.00,51.502
901.00,51.482
902.00,51.498
903.00,51.455
904.00,51.448
905.00,51.444
906.00,51.406
907.00,51.378
908.00,51.350
909.00,51.354
910.00,51.318
911.00,51.306
912.00,51.291
913.00,51.278
914.00,51.125
915.00,51.216
916.00,51.173
917.00,51.176
918.00,51.192
919.00,51.139
920.00,51.062
921.00,51.190
922.00,51.089
923.00,51.090
924.00,51.045
925.00,51.029
926.00,50.968
927.00,51.064
928.00,50.959
929.00,50.982
930.00,50.919
931.00,50.922
932.00,50.865
933.00,50.897
934.00,50.851
935.00,50.815
936.00,50.793
937.00,50.778
938.00,50.762
939.00,50.785
940.00,50.778
941.00,50.757
942.00,50.839
943.00,50.716
944.00,50.664
945.00,50.666
946.00,50.664
947.00,50.606
948.00,50.596
949.00,50.559
950.00,50.549
951.00,50.537
952.00,50.507
953.00,50.469
954.00,50.451
955.00,50.404
956.00,50.398
957.00,50.352
958.00,50.377
959.00,50.314
960.00,50.320
961.00,50.314
962.00,50.301
963.00,50.256
964.00,50.282
965.00,50.277
966.00,50.235
967.00,50.281
968.00,50.211
969.00,50.255
970.00,50.234
971.00,50.230
972.00,50.188
973.00,50.291
974.00,50.254
975.00,50.250
976.00,50.259
977.00,50.223
978.00,50.264
979.00,50.214
980.00,50.229
981.00,50.226
982.00,50.178
983.00,50.195
984.00,50.180
985.00,50.196
986.00,50.152
987.00,50.181
988.00,50.210
989.00,50.140
990.00,50.138
991.00,50.125
992.00,50.135
993.00,50.099
994.00,50.096
995.00,50.075
996.00,50.068
997.00,50.056
998.00,50.027
999.00,50.047
1000.00,50.010
1001.00,50.006
1002.00,49.996
1003.00,49.980
1004.00,49.954
1005.00,49.929
1006.00,49.971
1007.00,49.933
1008.00,49.925
1009.00,49.898
1010.00,49.900
1011.00,49.891
1012.00,49.853
1013.00,49.847
1014.00,49.813
1015.00,49.831
1016.00,49.791
1017.00,49.784
1018.00,49.781
1019.00,49.747
1020.00,49.747
1021.00,49.720
1022.00,49.732
1023.00,49.685
1024.00,49.695
1025.00,49.662
1026.00,49.674
1027.00,49.645
1028.00,49.644
1029.00,49.615
1030.00,49.577
1031.00,49.602
1032.00,49.548
1033.00,49.569
1034.00,49.575
1035.00,49.519
1036.00,49.492
1037.00,49.470
1038.00,49.460
1039.00,49.424
1040.00,49.402
1041.00,49.356
1042.00,49.351
1043.00,49.329
1044.00,49.360
1045.00,49.340
1046.00,49.358
1047.00,49.366
1048.00,49.377
1049.00,49.422
1050.00,49.391
1051.00,49.417
1052.00,49.426
1053.00,49.436
1054.00,49.427
1055.00,49.464
1056.00,49.462
1057.00,49.455
1058.00,49.449
1059.00,49.444
1060.00,49.451
1061.00,49.439
1062.00,49.415
1063.00,49.420
1064.00,49.422
1065.00,49.396
1066.00,49.413
1067.00,49.401
1068.00,49.433
1069.00,49.393
1070.00,49.371
1071.00,49.359
1072.00,49.386
1073.00,49.349
1074.00,49.363
1075.00,49.347
1076.00,49.336
1077.00,49.323
1078.00,49.298
1079.00,49.312
1080.00,49.310
1081.00,49.274
1082.00,49.289
1083.00,49.275
1084.00,49.268
1085.00,49.292
1086.00,49.266
1087.00,49.257
1088.00,49.243
1089.00,49.232
1090.00,49.222
1091.00,49.238
1092.00,49.238
1093.00,49.214
1094.00,49.191
1095.00,49.171
1096.00,49.162
1097.00,49.162
1098.00,49.149
1099.00,49.152
1100.00,49.130
1101.00,49.129
1102.00,49.114
1103.00,49.102
1104.00,49.102
1105.00,49.092
1106.00,49.050
1107.00,49.062
1108.00,49.067
1109.00,49.047
1110.00,49.042
1111.00,49.027
1112.00,49.012
1113.00,49.021
1114.00,49.005
1115.00,49.030
1116.00,49.010
1117.00,48.979
1118.00,48.978
1119.00,48.985
1120.00,48.965
1121.00,48.979
1122.00,48.956
1123.00,48.950
1124.00,48.948
1125.00,48.937
1126.00,48.933
1127.00,48.944
1128.00,48.915
1129.00,48.915
1130.00,48.901
1131.00,48.904
1132.00,48.908
1133.00,48.901
1134.00,48.881
1135.00,48.879
1136.00,48.872
1137.00,48.890
1138.00,48.897
1139.00,48.889
1140.00,48.878
1141.00,48.870
1142.00,48.849
1143.00,48.880
1144.00,48.847
1145.00,48.858
1146.00,48.865
1147.00,48.839
1148.00,48.837
1149.00,48.852
1150.00,48.838
1151.00,48.847
1152.00,48.832
1153.00,48.847
1154.00,48.823
1155.00,48.823
1156.00,48.817
1157.00,48.835
1158.00,48.823
1159.00,48.824
1160.00,48.824
1161.00,48.828
1162.00,48.823
1163.00,48.821
1164.00,48.818
1165.00,48.816
1166.00,48.825
1167.00,48.816
1168.00,48.836
1169.00,48.816
1170.00,48.815
1171.00,48.801
1172.00,48.792
1173.00,48.786
1174.00,48.804
1175.00,48.790
1176.00,48.807
1177.00,48.780
1178.00,48.783
1179.00,48.795
1180.00,48.784
1181.00,48.812
1182.00,48.783
1183.00,48.767
1184.00,48.758
1185.00,48.774
1186.00,48.755
1187.00,48.769
1188.00,48.774
1189.00,48.785
1190.00,48.785
1191.00,48.765
1192.00,48.797
1193.00,48.789
1194.00,48.792
1195.00,48.775
1196.00,48.803
1197.00,48.785
1198.00,48.788
1199.00,48.801
1200.00,48.790
1201.00,48.808
1202.00,48.771
1203.00,48.793
1204.00,48.781
1205.00,48.792
1206.00,48.790
1207.00,48.798
1208.00,48.766
1209.00,48.788
1210.00,48.782
1211.00,48.780
1212.00,48.805
1213.00,48.759
1214.00,48.817
1215.00,48.792
1216.00,48.769
1217.00,48.779
1218.00,48.772
1219.00,48.790
1220.00,48.783
1221.00,48.789
1222.00,48.774
1223.00,48.801
1224.00,48.787
1225.00,48.806
1226.00,48.797
1227.00,48.797
1228.00,48.835
1229.00,48.802
1230.00,48.832
1231.00,48.846
1232.00,48.860
1233.00,48.845
1234.00,48.852
1235.00,48.850
1236.00,48.854
1237.00,48.858
1238.00,48.845
1239.00,48.861
1240.00,48.836
1241.00,48.846
1242.00,48.859
1243.00,48.862
1244.00,48.844
1245.00,48.889
1246.00,48.887
1247.00,48.880
1248.00,48.891
1249.00,48.897
1250.00,48.918
1251.00,48.910
1252.00,48.912
1253.00,48.912
1254.00,48.923
1255.00,48.920
1256.00,48.910
1257.00,48.906
1258.00,48.941
1259.00,48.935
1260.00,48.968
1261.00,48.954
1262.00,48.940
1263.00,48.942
1264.00,48.949
1265.00,48.957
1266.00,48.951
1267.00,48.968
1268.00,48.971
1269.00,48.977
1270.00,48.989
1271.00,48.985
1272.00,49.010
1273.00,49.021
1274.00,49.023
1275.00,49.058
1276.00,49.037
1277.00,49.042
1278.00,49.047
1279.00,49.045
1280.00,49.044
1281.00,49.062
1282.00,49.062
1283.00,49.078
1284.00,49.067
1285.00,49.046
1286.00,49.079
1287.00,49.073
1288.00,49.077
1289.00,49.077
1290.00,49.099
1291.00,49.099
1292.00,49.096
1293.00,49.096
1294.00,49.122
1295.00,49.127
1296.00,49.116
1297.00,49.125
1298.00,49.157
1299.00,49.120
1300.00,49.148
1301.00,49.135
1302.00,49.163
1303.00,49.173
1304.00,49.152
1305.00,49.196
1306.00,49.194
1307.00,49.198
1308.00,49.222
1309.00,49.236
1310.00,49.241
1311.00,49.228
1312.00,49.236
1313.00,49.232
1314.00,49.265
1315.00,49.276
1316.00,49.274
1317.00,49.307
1318.00,49.294
1319.00,49.303
1320.00,49.306
1321.00,49.467
1322.00,49.466
1323.00,49.463
1324.00,49.442
1325.00,49.445
1326.00,49.463
1327.00,49.451
1328.00,49.455
1329.00,49.426
1330.00,49.425
1331.00,49.432
1332.00,49.420
1333.00,49.449
1334.00,49.542
1335.00,49.482
1336.00,49.537
1337.00,49.566
1338.00,49.624
1339.00,49.680
1340.00,49.737
1341.00,49.797
1342.00,49.872
1343.00,49.873
1344.00,49.946
1345.00,50.027
1346.00,50.054
1347.00,50.082
1348.00,50.131
1349.00,50.136
1350.00,50.156
1351.00,50.161
1352.00,50.177
1353.00,50.236
1354.00,50.176
1355.00,50.156
1356.00,50.198
1357.00,50.177
1358.00,50.236
1359.00,50.254
1360.00,50.273
1361.00,50.222
1362.00,50.304
1363.00,50.306
1364.00,50.242
1365.00,50.258
1366.00,50.277
1367.00,50.193
1368.00,50.250
1369.00,50.263
1370.00,50.260
1371.00,50.180
1372.00,50.225
1373.00,50.236
1374.00,50.245
1375.00,50.238
1376.00,50.193
1377.00,50.156
1378.00,50.344
1379.00,50.306
1380.00,50.341
1381.00,50.322
1382.00,50.199
1383.00,50.269
1384.00,50.218
1385.00,50.160
1386.00,50.270
1387.00,50.213
1388.00,50.204
1389.00,50.204
1390.00,50.384
1391.00,50.209
1392.00,50.227
1393.00,50.109
1394.00,50.225
1395.00,50.232
1396.00,50.152
1397.00,50.138
1398.00,50.171
1399.00,50.218
1400.00,50.222
1401.00,50.166
1402.00,50.189
1403.00,50.253
1404.00,50.230
1405.00,50.257
1406.00,50.281
1407.00,50.254
1408.00,50.347
1409.00,50.239
1410.00,50.295
1411.00,50.288
1412.00,50.339
1413.00,50.283
1414.00,50.294
1415.00,50.323
1416.00,50.374
1417.00,50.382
1418.00,50.342
1419.00,50.357
1420.00,50.353
1421.00,50.419
1422.00,50.426
1423.00,50.422
1424.00,50.408
1425.00,50.463
1426.00,50.424
1427.00,50.518
1428.00,50.498
1429.00,50.509
1430.00,50.536
1431.00,50.550
1432.00,50.558
1433.00,50.591
1434.00,50.579
1435.00,50.653
1436.00,50.658
1437.00,50.642
1438.00,50.674
1439.00,50.683
1440.00,50.687
1441.00,50.706
1442.00,50.717
1443.00,50.752
1444.00,50.827
1445.00,50.761
1446.00,50.805
1447.00,50.857
1448.00,50.888
1449.00,50.903
1450.00,50.905
1451.00,50.906
1452.00,50.941
1453.00,50.905
1454.00,50.952
1455.00,50.982
1456.00,50.986
1457.00,50.992
1458.00,51.019
1459.00,51.022
1460.00,51.065
1461.00,51.059
1462.00,51.083
1463.00,51.088
1464.00,51.105
1465.00,51.120
1466.00,51.134
1467.00,51.164
1468.00,51.223
1469.00,51.198
1470.00,51.204
1471.00,51.255
1472.00,51.254
1473.00,51.245
1474.00,51.290
1475.00,51.300
1476.00,51.316
1477.00,51.307
1478.00,51.326
1479.00,51.350
1480.00,51.354
1481.00,51.356
1482.00,51.399
1483.00,51.406
1484.00,51.415
1485.00,51.431
1486.00,51.421
1487.00,51.444
1488.00,51.477
1489.00,51.460
1490.00,51.481
1491.00,51.495
1492.00,51.528
1493.00,51.523
1494.00,51.552
1495.00,51.546
1496.00,51.581
1497.00,51.560
1498.00,51.582
1499.00,51.615
1500.00,51.617
1501.00, 
1502.00, 
1503.00, 
1504.00, 
1505.00, 
1506.00, 
1507.00, 
1508.00, 
1509.00, 
1510.00, 
1511.00, 
1512.00, 
1513.00, 
1514.00, 
1515.00, 
1516.00, 
1517.00, 
1518.00, 
1519.00, 
1520.00, 
1521.00, 
1522.00, 
1523.00, 
1524.00, 
1525.00, 
1526.00, 
1527.00, 
1528.00, 
1529.00, 
1530.00, 
1531.00, 
1532.00, 
1533.00, 
1534.00, 
1535.00, 
1536.00, 
1537.00, 
1538.00, 
1539.00, 
1540.00, 
1541.00, 
1542.00, 
1543.00, 
1544.00, 
1545.00, 
1546.00, 
1547.00, 
1548.00, 
1549.00, 
1550.00, 
1551.00, 
1552.00, 
1553.00, 
1554.00, 
1555.00, 
1556.00, 
1557.00, 
1558.00, 
1559.00, 
1560.00, 
1561.00, 
1562.00, 
1563.00, 
1564.00, 
1565.00, 
1566.00, 
1567.00, 
1568.00, 
1569.00, 
1570.00, 
1571.00, 
1572.00, 
1573.00, 
1574.00, 
1575.00, 
1576.00, 
1577.00, 
1578.00, 
1579.00, 
1580.00, 
1581.00, 
1582.00, 
1583.00, 
1584.00, 
1585.00, 
1586.00, 
1587.00, 
1588.00, 
1589.00, 
1590.00, 
1591.00, 
1592.00, 
1593.00, 
1594.00, 
1595.00, 
1596.00, 
1597.00, 
1598.00, 
1599.00, 
1600.00, 
1601.00, 
1602.00, 
1603.00, 
1604.00, 
1605.00, 
1606.00, 
1607.00, 
1608.00, 
1609.00, 
1610.00, 
1611.00, 
1612.00, 
1613.00, 
1614.00, 
1615.00, 
1616.00, 
1617.00, 
1618.00, 
1619.00, 
1620.00, 
1621.00, 
1622.00, 
1623.00, 
1624.00, 
1625.00, 
1626.00, 
1627.00, 
1628.00, 
1629.00, 
1630.00, 
1631.00, 
1632.00, 
1633.00, 
1634.00, 
1635.00, 
1636.00, 
1637.00, 
1638.00, 
1639.00, 
1640.00, 
1641.00, 
1642.00, 
1643.00, 
1644.00, 
1645.00, 
1646.00, 
1647.00, 
1648.00, 
1649.00, 
1650.00, 
1651.00, 
1652.00, 
1653.00, 
1654.00, 
1655.00, 
1656.00, 
1657.00, 
1658.00, 
1659.00, 
1660.00, 
1661.00, 
1662.00, 
1663.00, 
1664.00, 
1665.00, 
1666.00, 
1667.00, 
1668.00, 
1669.00, 
1670.00, 
1671.00, 
1672.00, 
1673.00, 
1674.00, 
1675.00, 
1676.00, 
1677.00, 
1678.00, 
1679.00, 
1680.00, 
1681.00, 
1682.00, 
1683.00, 
1684.00, 
1685.00, 
1686.00, 
1687.00, 
1688.00, 
1689.00, 
1690.00, 
1691.00, 
1692.00, 
1693.00, 
1694.00, 
1695.00, 
1696.00, 
1697.00, 
1698.00, 
1699.00, 
1700.00, 
1701.00, 
1702.00, 
1703.00, 
1704.00, 
1705.00, 
1706.00, 
1707.00, 
1708.00, 
1709.00, 
1710.00, 
1711.00, 
1712.00, 
1713.00, 
1714.00, 
1715.00, 
1716.00, 
1717.00, 
1718.00, 
1719.00, 
1720.00, 
1721.00, 
1722.00, 
1723.00, 
1724.00, 
1725.00, 
1726.00, 
1727.00, 
1728.00, 
1729.00, 
1730.00, 
1731.00, 
1732.00, 
1733.00, 
1734.00, 
1735.00, 
1736.00, 
1737.00, 
1738.00, 
1739.00, 
1740.00, 
1741.00, 
1742.00, 
1743.00, 
1744.00, 
1745.00, 
1746.00, 
1747.00, 
1748.00, 
1749.00, 
1750.00, 
1751.00, 
1752.00, 
1753.00, 
1754.00, 
1755.00, 
1756.00, 
1757.00, 
1758.00, 
1759.00, 
1760.00, 
1761.00, 
1762.00, 
1763.00, 
1764.00, 
1765.00, 
1766.00, 
1767.00, 
1768.00, 
1769.00, 
1770.00, 
1771.00, 
1772.00, 
1773.00, 
1774.00, 
1775.00, 
1776.00, 
1777.00, 
1778.00, 
1779.00, 
1780.00, 
1781.00, 
1782.00, 
1783.00, 
1784.00, 
1785.00, 
1786.00, 
1787.00, 
1788.00, 
1789.00, 
1790.00, 
1791.00, 
1792.00, 
1793.00, 
1794.00, 
1795.00, 
1796.00, 
1797.00, 
1798.00, 
1799.00, 
1800.00, 
1801.00, 
1802.00, 
1803.00, 
1804.00, 
1805.00, 
1806.00, 
1807.00, 
1808.00, 
1809.00, 
1810.00, 
1811.00, 
1812.00, 
1813.00, 
1814.00, 
1815.00, 
1816.00, 
1817.00, 
1818.00, 
1819.00, 
1820.00, 
1821.00, 
1822.00, 
1823.00, 
1824.00, 
1825.00, 
1826.00, 
1827.00, 
1828.00, 
1829.00, 
1830.00, 
1831.00, 
1832.00, 
1833.00, 
1834.00, 
1835.00, 
1836.00, 
1837.00, 
1838.00, 
1839.00, 
1840.00, 
1841.00, 
1842.00, 
1843.00, 
1844.00, 
1845.00, 
1846.00, 
1847.00, 
1848.00, 
1849.00, 
1850.00, 
1851.00, 
1852.00, 
1853.00, 
1854.00, 
1855.00, 
1856.00, 
1857.00, 
1858.00, 
1859.00, 
1860.00, 
1861.00, 
1862.00, 
1863.00, 
1864.00, 
1865.00, 
1866.00, 
1867.00, 
1868.00, 
1869.00, 
1870.00, 
1871.00, 
1872.00, 
1873.00, 
1874.00, 
1875.00, 
1876.00, 
1877.00, 
1878.00, 
1879.00, 
1880.00, 
1881.00, 
1882.00, 
1883.00, 
1884.00, 
1885.00, 
1886.00, 
1887.00, 
1888.00, 
1889.00, 
1890.00, 
1891.00, 
1892.00, 
1893.00, 
1894.00, 
1895.00, 
1896.00, 
1897.00, 
1898.00, 
1899.00, 
1900.00, 
1901.00, 
1902.00, 
1903.00, 
1904.00, 
1905.00, 
1906.00, 
1907.00, 
1908.00, 
1909.00, 
1910.00, 
1911.00, 
1912.00, 
1913.00, 
1914.00, 
1915.00, 
1916.00, 
1917.00, 
1918.00, 
1919.00, 
1920.00, 
1921.00, 
1922.00, 
1923.00, 
1924.00, 
1925.00, 
1926.00, 
1927.00, 
1928.00, 
1929.00, 
1930.00, 
1931.00, 
1932.00, 
1933.00, 
1934.00, 
1935.00, 
1936.00, 
1937.00, 
1938.00, 
1939.00, 
1940.00, 
1941.00, 
1942.00, 
1943.00, 
1944.00, 
1945.00, 
1946.00, 
1947.00, 
1948.00, 
1949.00, 
1950.00, 
1951.00, 
1952.00, 
1953.00, 
1954.00, 
1955.00, 
1956.00, 
1957.00, 
1958.00, 
1959.00, 
1960.00, 
1961.00, 
1962.00, 
1963.00, 
1964.00, 
1965.00, 
1966.00, 
1967.00, 
1968.00, 
1969.00, 
1970.00, 
1971.00, 
1972.00, 
1973.00, 
1974.00, 
1975.00, 
1976.00, 
1977.00, 
1978.00, 
1979.00, 
1980.00, 
1981.00, 
1982.00, 
1983.00, 
1984.00, 
1985.00, 
1986.00, 
1987.00, 
1988.00, 
1989.00, 
1990.00, 
1991.00, 
1992.00, 
1993.00, 
1994.00, 
1995.00, 
1996.00, 
1997.00, 
1998.00, 
1999.00, 
2000.00, 
2001.00, 
2002.00, 
2003.00, 
2004.00, 
2005.00, 
2006.00, 
2007.00, 
2008.00, 
2009.00, 
2010.00, 
2011.00, 
2012.00, 
2013.00, 
2014.00, 
2015.00, 
2016.00, 
2017.00, 
2018.00, 
2019.00, 
2020.00, 
2021.00, 
2022.00, 
2023.00, 
2024.00, 
2025.00, 
2026.00, 
2027.00, 
2028.00, 
2029.00, 
2030.00, 
2031.00, 
2032.00, 
2033.00, 
2034.00, 
2035.00, 
2036.00, 
2037.00, 
2038.00, 
2039.00, 
2040.00, 
2041.00, 
2042.00, 
2043.00, 
2044.00, 
2045.00, 
2046.00, 
2047.00, 
2048.00, 
2049.00, 
2050.00, 
2051.00, 
2052.00, 
2053.00, 
2054.00, 
2055.00, 
2056.00, 
2057.00, 
2058.00, 
2059.00, 
2060.00, 
2061.00, 
2062.00, 
2063.00, 
2064.00, 
2065.00, 
2066.00, 
2067.00, 
2068.00, 
2069.00, 
2070.00, 
2071.00, 
2072.00, 
2073.00, 
2074.00, 
2075.00, 
2076.00, 
2077.00, 
2078.00, 
2079.00, 
2080.00, 
2081.00, 
2082.00, 
2083.00, 
2084.00, 
2085.00, 
2086.00, 
2087.00, 
2088.00, 
2089.00, 
2090.00, 
2091.00, 
2092.00, 
2093.00, 
2094.00, 
2095.00, 
2096.00, 
2097.00, 
2098.00, 
2099.00, 
2100.00, 
2101.00, 
2102.00, 
2103.00, 
2104.00, 
2105.00, 
2106.00, 
2107.00, 
2108.00, 
2109.00, 
2110.00, 
2111.00, 
2112.00, 
2113.00, 
2114.00, 
2115.00, 
2116.00, 
2117.00, 
2118.00, 
2119.00, 
2120.00, 
2121.00, 
2122.00, 
2123.00, 
2124.00, 
2125.00, 
2126.00, 
2127.00, 
2128.00, 
2129.00, 
2130.00, 
2131.00, 
2132.00, 
2133.00, 
2134.00, 
2135.00, 
2136.00, 
2137.00, 
2138.00, 
2139.00, 
2140.00, 
2141.00, 
2142.00, 
2143.00, 
2144.00, 
2145.00, 
2146.00, 
2147.00, 
2148.00, 
2149.00, 
2150.00, 
2151.00, 
2152.00, 
2153.00, 
2154.00, 
2155.00, 
2156.00, 
2157.00, 
2158.00, 
2159.00, 
2160.00, 
2161.00, 
2162.00, 
2163.00, 
2164.00, 
2165.00, 
2166.00, 
2167.00, 
2168.00, 
2169.00, 
2170.00, 
2171.00, 
2172.00, 
2173.00, 
2174.00, 
2175.00, 
2176.00, 
2177.00, 
2178.00, 
2179.00, 
2180.00, 
2181.00, 
2182.00, 
2183.00, 
2184.00, 
2185.00, 
2186.00, 
2187.00, 
2188.00, 
2189.00, 
2190.00, 
2191.00, 
2192.00, 
2193.00, 
2194.00, 
2195.00, 
2196.00, 
2197.00, 
2198.00, 
2199.00, 
2200.00, 
2201.00, 
2202.00, 
2203.00, 
2204.00, 
2205.00, 
2206.00, 
2207.00, 
2208.00, 
2209.00, 
2210.00, 
2211.00, 
2212.00, 
2213.00, 
2214.00, 
2215.00, 
2216.00, 
2217.00, 
2218.00, 
2219.00, 
2220.00, 
2221.00, 
2222.00, 
2223.00, 
2224.00, 
2225.00, 
2226.00, 
2227.00, 
2228.00, 
2229.00, 
2230.00, 
2231.00, 
2232.00, 
2233.00, 
2234.00, 
2235.00, 
2236.00, 
2237.00, 
2238.00, 
2239.00, 
2240.00, 
2241.00, 
2242.00, 
2243.00, 
2244.00, 
2245.00, 
2246.00, 
2247.00, 
2248.00, 
2249.00, 
2250.00, 
2251.00, 
2252.00, 
2253.00, 
2254.00, 
2255.00, 
2256.00, 
2257.00, 
2258.00, 
2259.00, 
2260.00, 
2261.00, 
2262.00, 
2263.00, 
2264.00, 
2265.00, 
2266.00, 
2267.00, 
2268.00, 
2269.00, 
2270.00, 
2271.00, 
2272.00, 
2273.00, 
2274.00, 
2275.00, 
2276.00, 
2277.00, 
2278.00, 
2279.00, 
2280.00, 
2281.00, 
2282.00, 
2283.00, 
2284.00, 
2285.00, 
2286.00, 
2287.00, 
2288.00, 
2289.00, 
2290.00, 
2291.00, 
2292.00, 
2293.00, 
2294.00, 
2295.00, 
2296.00, 
2297.00, 
2298.00, 
2299.00, 
2300.00, 
2301.00, 
2302.00, 
2303.00, 
2304.00, 
2305.00, 
2306.00, 
2307.00, 
2308.00, 
2309.00, 
2310.00, 
2311.00, 
2312.00, 
2313.00, 
2314.00, 
2315.00, 
2316.00, 
2317.00, 
2318.00, 
2319.00, 
2320.00, 
2321.00, 
2322.00, 
2323.00, 
2324.00, 
2325.00, 
2326.00, 
2327.00, 
2328.00, 
2329.00, 
2330.00, 
2331.00, 
2332.00, 
2333.00, 
2334.00, 
2335.00, 
2336.00, 
2337.00, 
2338.00, 
2339.00, 
2340.00, 
2341.00, 
2342.00, 
2343.00, 
2344.00, 
2345.00, 
2346.00, 
2347.00, 
2348.00, 
2349.00, 
2350.00, 
2351.00, 
2352.00, 
2353.00, 
2354.00, 
2355.00, 
2356.00, 
2357.00, 
2358.00, 
2359.00, 
2360.00, 
2361.00, 
2362.00, 
2363.00, 
2364.00, 
2365.00, 
2366.00, 
2367.00, 
2368.00, 
2369.00, 
2370.00, 
2371.00, 
2372.00, 
2373.00, 
2374.00, 
2375.00, 
2376.00, 
2377.00, 
2378.00, 
2379.00, 
2380.00, 
2381.00, 
2382.00, 
2383.00, 
2384.00, 
2385.00, 
2386.00, 
2387.00, 
2388.00, 
2389.00, 
2390.00, 
2391.00, 
2392.00, 
2393.00, 
2394.00, 
2395.00, 
2396.00, 
2397.00, 
2398.00, 
2399.00, 
2400.00, 
2401.00, 
2402.00, 
2403.00, 
2404.00, 
2405.00, 
2406.00, 
2407.00, 
2408.00, 
2409.00, 
2410.00, 
2411.00, 
2412.00, 
2413.00, 
2414.00, 
2415.00, 
2416.00, 
2417.00, 
2418.00, 
2419.00, 
2420.00, 
2421.00, 
2422.00, 
2423.00, 
2424.00, 
2425.00, 
2426.00, 
2427.00, 
2428.00, 
2429.00, 
2430.00, 
2431.00, 
2432.00, 
2433.00, 
2434.00, 
2435.00, 
2436.00, 
2437.00, 
2438.00, 
2439.00, 
2440.00, 
2441.00, 
2442.00, 
2443.00, 
2444.00, 
2445.00, 
2446.00, 
2447.00, 
2448.00, 
2449.00, 
2450.00, 
2451.00, 
2452.00, 
2453.00, 
2454.00, 
2455.00, 
2456.00, 
2457.00, 
2458.00, 
2459.00, 
2460.00, 
2461.00, 
2462.00, 
2463.00, 
2464.00, 
2465.00, 
2466.00, 
2467.00, 
2468.00, 
2469.00, 
2470.00, 
2471.00, 
2472.00, 
2473.00, 
2474.00, 
2475.00, 
2476.00, 
2477.00, 
2478.00, 
2479.00, 
2480.00, 
2481.00, 
2482.00, 
2483.00, 
2484.00, 
2485.00, 
2486.00, 
2487.00, 
2488.00, 
2489.00, 
2490.00, 
2491.00, 
2492.00, 
2493.00, 
2494.00, 
2495.00, 
2496.00, 
2497.00, 
2498.00, 
2499.00, 
2500.00, 
2501.00, 
2502.00, 
2503.00, 
2504.00, 
2505.00, 
2506.00, 
2507.00, 
2508.00, 
2509.00, 
2510.00, 
2511.00, 
2512.00, 
2513.00, 
2514.00, 
2515.00, 
2516.00, 
2517.00, 
2518.00, 
2519.00, 
2520.00, 
2521.00, 
2522.00, 
2523.00, 
2524.00, 
2525.00, 
2526.00, 
2527.00, 
2528.00, 
2529.00, 
2530.00, 
2531.00, 
2532.00, 
2533.00, 
2534.00, 
2535.00, 
2536.00, 
2537.00, 
2538.00, 
2539.00, 
2540.00, 
2541.00, 
2542.00, 
2543.00, 
2544.00, 
2545.00, 
2546.00, 
2547.00, 
2548.00, 
2549.00, 
2550.00, 
2551.00, 
2552.00, 
2553.00, 
2554.00, 
2555.00, 
2556.00, 
2557.00, 
2558.00, 
2559.00, 
2560.00, 
2561.00, 
2562.00, 
2563.00, 
2564.00, 
2565.00, 
2566.00, 
2567.00, 
2568.00, 
2569.00, 
2570.00, 
2571.00, 
2572.00, 
2573.00, 
2574.00, 
2575.00, 
2576.00, 
2577.00, 
2578.00, 
2579.00, 
2580.00, 
2581.00, 
2582.00, 
2583.00, 
2584.00, 
2585.00, 
2586.00, 
2587.00, 
2588.00, 
2589.00, 
2590.00, 
2591.00, 
2592.00, 
2593.00, 
2594.00, 
2595.00, 
2596.00, 
2597.00, 
2598.00, 
2599.00, 
2600.00, 
