"1cP3 - RawData"
"Wavelength nm.","T%"
200.00,-0.001
201.00,-0.003
202.00,-0.004
203.00,0.003
204.00,0.000
205.00,0.001
206.00,0.001
207.00,-0.001
208.00,-0.001
209.00,0.004
210.00,-0.001
211.00,0.001
212.00,0.001
213.00,0.002
214.00,0.001
215.00,-0.003
216.00,0.002
217.00,0.005
218.00,0.001
219.00,-0.000
220.00,0.002
221.00,0.002
222.00,-0.003
223.00,0.003
224.00,0.001
225.00,-0.000
226.00,0.000
227.00,0.001
228.00,0.001
229.00,0.001
230.00,-0.000
231.00,0.001
232.00,-0.002
233.00,0.001
234.00,-0.000
235.00,0.002
236.00,0.001
237.00,-0.002
238.00,0.001
239.00,0.000
240.00,0.000
241.00,0.001
242.00,0.001
243.00,-0.000
244.00,0.002
245.00,-0.000
246.00,0.001
247.00,0.001
248.00,0.001
249.00,-0.001
250.00,-0.001
251.00,0.000
252.00,0.002
253.00,-0.001
254.00,0.001
255.00,0.002
256.00,0.001
257.00,-0.001
258.00,0.002
259.00,0.000
260.00,-0.000
261.00,-0.002
262.00,-0.000
263.00,0.000
264.00,-0.001
265.00,0.000
266.00,0.000
267.00,-0.001
268.00,0.000
269.00,0.001
270.00,0.002
271.00,0.001
272.00,-0.002
273.00,0.001
274.00,-0.000
275.00,-0.002
276.00,-0.000
277.00,-0.000
278.00,0.002
279.00,0.001
280.00,0.000
281.00,-0.000
282.00,-0.000
283.00,0.002
284.00,0.001
285.00,-0.001
286.00,0.001
287.00,0.000
288.00,-0.001
289.00,0.000
290.00,0.001
291.00,0.000
292.00,-0.000
293.00,0.001
294.00,0.001
295.00,0.001
296.00,0.000
297.00,0.001
298.00,0.000
299.00,-0.000
300.00,0.000
301.00,-0.001
302.00,0.000
303.00,-0.000
304.00,0.002
305.00,0.001
306.00,0.000
307.00,0.004
308.00,0.004
309.00,0.013
310.00,0.018
311.00,0.029
312.00,0.047
313.00,0.070
314.00,0.102
315.00,0.153
316.00,0.219
317.00,0.316
318.00,0.430
319.00,0.588
320.00,0.790
321.00,1.006
322.00,1.283
323.00,1.619
324.00,2.014
325.00,2.423
326.00,2.877
327.00,3.418
328.00,4.005
329.00,4.614
330.00,5.296
331.00,5.994
332.00,6.727
333.00,7.548
334.00,8.318
335.00,9.155
336.00,9.963
337.00,10.846
338.00,11.729
339.00,12.512
340.00,13.330
341.00,14.138
342.00,14.919
343.00,15.688
344.00,16.418
345.00,17.139
346.00,17.824
347.00,18.508
348.00,19.138
349.00,19.698
350.00,20.239
351.00,20.798
352.00,21.228
353.00,21.716
354.00,22.145
355.00,22.624
356.00,22.985
357.00,23.331
358.00,23.700
359.00,24.087
360.00,24.385
361.00,24.593
362.00,24.828
363.00,25.066
364.00,25.225
365.00,25.397
366.00,25.608
367.00,25.727
368.00,25.808
369.00,25.972
370.00,26.002
371.00,26.081
372.00,26.079
373.00,26.110
374.00,26.162
375.00,26.089
376.00,26.012
377.00,25.956
378.00,25.853
379.00,25.725
380.00,25.777
381.00,25.779
382.00,25.789
383.00,25.861
384.00,25.948
385.00,26.044
386.00,26.059
387.00,26.231
388.00,26.413
389.00,26.364
390.00,26.514
391.00,26.445
392.00,26.603
393.00,26.643
394.00,26.694
395.00,26.773
396.00,26.734
397.00,26.792
398.00,26.811
399.00,26.848
400.00,26.842
401.00,26.878
402.00,26.898
403.00,26.854
404.00,26.855
405.00,26.860
406.00,26.827
407.00,26.826
408.00,26.848
409.00,26.762
410.00,26.661
411.00,26.678
412.00,26.618
413.00,26.650
414.00,26.603
415.00,26.622
416.00,26.668
417.00,26.642
418.00,26.656
419.00,26.774
420.00,26.794
421.00,26.795
422.00,26.776
423.00,26.771
424.00,26.872
425.00,26.827
426.00,26.891
427.00,26.948
428.00,26.942
429.00,27.017
430.00,27.055
431.00,27.085
432.00,27.113
433.00,27.195
434.00,27.193
435.00,27.284
436.00,27.341
437.00,27.373
438.00,27.446
439.00,27.554
440.00,27.508
441.00,27.584
442.00,27.596
443.00,27.681
444.00,27.779
445.00,27.857
446.00,27.945
447.00,27.996
448.00,28.103
449.00,28.201
450.00,28.292
451.00,28.359
452.00,28.463
453.00,28.576
454.00,28.680
455.00,28.762
456.00,28.908
457.00,28.950
458.00,29.007
459.00,29.146
460.00,29.257
461.00,29.372
462.00,29.449
463.00,29.545
464.00,29.643
465.00,29.789
466.00,29.925
467.00,30.001
468.00,29.995
469.00,30.137
470.00,30.275
471.00,30.204
472.00,30.444
473.00,30.490
474.00,30.565
475.00,30.644
476.00,30.745
477.00,30.860
478.00,30.975
479.00,31.110
480.00,31.220
481.00,31.342
482.00,31.478
483.00,31.585
484.00,31.763
485.00,31.866
486.00,32.000
487.00,32.123
488.00,32.233
489.00,32.381
490.00,32.496
491.00,32.607
492.00,32.828
493.00,32.946
494.00,32.913
495.00,32.997
496.00,33.098
497.00,33.139
498.00,33.332
499.00,33.491
500.00,33.626
501.00,33.676
502.00,33.782
503.00,33.905
504.00,33.934
505.00,34.047
506.00,34.187
507.00,34.237
508.00,34.370
509.00,34.473
510.00,34.594
511.00,34.669
512.00,34.791
513.00,34.933
514.00,35.025
515.00,35.168
516.00,35.229
517.00,35.316
518.00,35.499
519.00,35.499
520.00,35.505
521.00,35.616
522.00,35.709
523.00,35.799
524.00,35.848
525.00,35.977
526.00,36.046
527.00,36.119
528.00,36.214
529.00,36.376
530.00,36.507
531.00,36.564
532.00,36.603
533.00,36.695
534.00,36.787
535.00,36.867
536.00,36.952
537.00,37.005
538.00,37.043
539.00,37.070
540.00,37.197
541.00,37.142
542.00,37.282
543.00,37.351
544.00,37.410
545.00,37.486
546.00,37.500
547.00,37.673
548.00,37.724
549.00,37.761
550.00,37.873
551.00,37.948
552.00,38.017
553.00,38.075
554.00,38.140
555.00,38.221
556.00,38.266
557.00,38.343
558.00,38.324
559.00,38.406
560.00,38.428
561.00,38.539
562.00,38.650
563.00,38.617
564.00,38.687
565.00,38.688
566.00,38.727
567.00,38.721
568.00,38.803
569.00,38.842
570.00,38.850
571.00,38.956
572.00,38.956
573.00,38.900
574.00,38.945
575.00,39.019
576.00,39.000
577.00,39.048
578.00,39.153
579.00,39.171
580.00,39.252
581.00,39.332
582.00,39.484
583.00,39.500
584.00,39.525
585.00,39.558
586.00,39.571
587.00,39.686
588.00,39.724
589.00,39.727
590.00,39.829
591.00,39.871
592.00,39.772
593.00,39.815
594.00,39.936
595.00,40.021
596.00,40.100
597.00,40.179
598.00,40.227
599.00,40.225
600.00,40.186
601.00,40.212
602.00,40.285
603.00,40.318
604.00,40.388
605.00,40.449
606.00,40.433
607.00,40.487
608.00,40.646
609.00,40.758
610.00,40.480
611.00,40.549
612.00,40.649
613.00,40.690
614.00,40.692
615.00,40.745
616.00,40.880
617.00,40.839
618.00,40.837
619.00,40.925
620.00,41.000
621.00,40.987
622.00,41.018
623.00,41.097
624.00,41.165
625.00,41.185
626.00,41.252
627.00,41.269
628.00,41.268
629.00,41.299
630.00,41.345
631.00,41.373
632.00,41.471
633.00,41.556
634.00,41.588
635.00,41.632
636.00,41.748
637.00,41.712
638.00,41.720
639.00,41.887
640.00,41.857
641.00,41.839
642.00,41.803
643.00,42.045
644.00,42.142
645.00,42.197
646.00,42.351
647.00,42.296
648.00,42.378
649.00,42.448
650.00,42.317
651.00,42.535
652.00,42.581
653.00,42.482
654.00,42.544
655.00,42.776
656.00,42.963
657.00,42.913
658.00,42.833
659.00,42.837
660.00,43.040
661.00,43.018
662.00,43.075
663.00,43.102
664.00,43.379
665.00,43.516
666.00,43.351
667.00,43.389
668.00,43.447
669.00,43.632
670.00,43.829
671.00,43.709
672.00,43.840
673.00,43.786
674.00,43.857
675.00,43.898
676.00,44.028
677.00,44.216
678.00,43.922
679.00,44.066
680.00,44.102
681.00,44.275
682.00,44.204
683.00,44.219
684.00,44.432
685.00,44.470
686.00,44.289
687.00,44.176
688.00,44.570
689.00,44.654
690.00,44.711
691.00,44.974
692.00,44.557
693.00,44.538
694.00,44.624
695.00,44.542
696.00,44.575
697.00,44.644
698.00,45.165
699.00,45.596
700.00,45.205
701.00,45.173
702.00,45.306
703.00,45.363
704.00,45.421
705.00,45.305
706.00,45.348
707.00,45.458
708.00,45.278
709.00,45.572
710.00,46.017
711.00,45.465
712.00,45.581
713.00,45.630
714.00,45.684
715.00,45.645
716.00,45.672
717.00,45.765
718.00,45.892
719.00,45.868
720.00,45.940
721.00,50.937
722.00,51.001
723.00,50.981
724.00,50.846
725.00,50.864
726.00,50.952
727.00,50.815
728.00,50.811
729.00,50.798
730.00,50.859
731.00,50.875
732.00,50.916
733.00,50.867
734.00,50.864
735.00,50.909
736.00,50.858
737.00,50.868
738.00,50.985
739.00,50.866
740.00,50.921
741.00,50.886
742.00,50.928
743.00,50.857
744.00,50.853
745.00,50.829
746.00,50.797
747.00,50.800
748.00,50.804
749.00,50.796
750.00,50.738
751.00,50.676
752.00,50.678
753.00,50.666
754.00,50.598
755.00,50.613
756.00,50.667
757.00,50.655
758.00,50.604
759.00,50.573
760.00,50.640
761.00,50.559
762.00,50.538
763.00,50.641
764.00,50.554
765.00,50.531
766.00,50.571
767.00,50.503
768.00,50.521
769.00,50.510
770.00,50.605
771.00,50.553
772.00,50.527
773.00,50.446
774.00,50.493
775.00,50.438
776.00,50.525
777.00,50.453
778.00,50.382
779.00,50.527
780.00,50.439
781.00,50.510
782.00,50.389
783.00,50.366
784.00,50.426
785.00,50.308
786.00,50.331
787.00,50.359
788.00,50.343
789.00,50.245
790.00,50.286
791.00,50.265
792.00,50.211
793.00,50.144
794.00,50.156
795.00,50.169
796.00,50.170
797.00,50.024
798.00,50.042
799.00,50.001
800.00,50.009
801.00,49.936
802.00,49.955
803.00,49.948
804.00,49.960
805.00,49.959
806.00,49.876
807.00,49.867
808.00,49.839
809.00,49.786
810.00,49.831
811.00,49.837
812.00,49.791
813.00,49.759
814.00,49.716
815.00,49.689
816.00,49.734
817.00,49.666
818.00,49.574
819.00,49.507
820.00,49.574
821.00,49.564
822.00,49.591
823.00,49.366
824.00,49.461
825.00,49.462
826.00,49.468
827.00,49.464
828.00,49.394
829.00,49.358
830.00,49.413
831.00,51.793
832.00,51.783
833.00,51.745
834.00,51.733
835.00,51.689
836.00,51.705
837.00,51.671
838.00,51.645
839.00,51.620
840.00,51.575
841.00,51.584
842.00,51.549
843.00,51.536
844.00,51.521
845.00,51.459
846.00,51.454
847.00,51.455
848.00,51.426
849.00,51.370
850.00,51.346
851.00,51.283
852.00,51.278
853.00,51.241
854.00,51.218
855.00,51.155
856.00,51.148
857.00,51.113
858.00,51.042
859.00,51.038
860.00,51.059
861.00,51.053
862.00,51.003
863.00,50.991
864.00,50.923
865.00,50.964
866.00,50.926
867.00,50.937
868.00,50.896
869.00,50.893
870.00,50.899
871.00,50.862
872.00,50.850
873.00,50.837
874.00,50.879
875.00,50.791
876.00,50.807
877.00,50.928
878.00,50.785
879.00,50.731
880.00,50.745
881.00,50.719
882.00,50.739
883.00,50.677
884.00,50.655
885.00,50.665
886.00,50.638
887.00,50.587
888.00,50.547
889.00,50.563
890.00,50.522
891.00,50.492
892.00,50.481
893.00,50.447
894.00,50.455
895.00,50.431
896.00,50.429
897.00,50.378
898.00,50.355
899.00,50.356
900.00,50.340
901.00,50.328
902.00,50.340
903.00,50.267
904.00,50.262
905.00,50.313
906.00,50.235
907.00,50.199
908.00,50.202
909.00,50.184
910.00,50.138
911.00,50.125
912.00,50.120
913.00,50.101
914.00,49.963
915.00,50.042
916.00,49.941
917.00,50.054
918.00,49.958
919.00,49.922
920.00,49.902
921.00,49.899
922.00,49.882
923.00,49.864
924.00,49.826
925.00,49.807
926.00,49.827
927.00,49.793
928.00,49.765
929.00,49.770
930.00,49.733
931.00,49.710
932.00,49.652
933.00,49.680
934.00,49.654
935.00,49.620
936.00,49.602
937.00,49.592
938.00,49.557
939.00,49.550
940.00,49.500
941.00,49.513
942.00,49.480
943.00,49.468
944.00,49.443
945.00,49.449
946.00,49.393
947.00,49.348
948.00,49.377
949.00,49.327
950.00,49.329
951.00,49.303
952.00,49.278
953.00,49.223
954.00,49.206
955.00,49.176
956.00,49.174
957.00,49.123
958.00,49.131
959.00,49.083
960.00,49.075
961.00,49.085
962.00,49.098
963.00,49.033
964.00,49.034
965.00,49.034
966.00,49.013
967.00,49.003
968.00,48.964
969.00,49.013
970.00,48.983
971.00,48.998
972.00,48.966
973.00,49.016
974.00,49.011
975.00,49.021
976.00,49.025
977.00,49.007
978.00,49.029
979.00,48.976
980.00,48.990
981.00,48.990
982.00,48.951
983.00,48.983
984.00,48.957
985.00,48.968
986.00,48.936
987.00,48.952
988.00,48.914
989.00,48.915
990.00,48.908
991.00,48.886
992.00,48.891
993.00,48.856
994.00,48.840
995.00,48.833
996.00,48.829
997.00,48.806
998.00,48.777
999.00,48.793
1000.00,48.757
1001.00,48.742
1002.00,48.740
1003.00,48.738
1004.00,48.691
1005.00,48.654
1006.00,48.767
1007.00,48.685
1008.00,48.681
1009.00,48.658
1010.00,48.658
1011.00,48.635
1012.00,48.588
1013.00,48.599
1014.00,48.580
1015.00,48.575
1016.00,48.544
1017.00,48.543
1018.00,48.536
1019.00,48.494
1020.00,48.504
1021.00,48.504
1022.00,48.460
1023.00,48.411
1024.00,48.417
1025.00,48.367
1026.00,48.361
1027.00,48.345
1028.00,48.357
1029.00,48.345
1030.00,48.305
1031.00,48.326
1032.00,48.286
1033.00,48.299
1034.00,48.260
1035.00,48.228
1036.00,48.211
1037.00,48.175
1038.00,48.165
1039.00,48.135
1040.00,48.133
1041.00,48.094
1042.00,48.094
1043.00,48.063
1044.00,48.101
1045.00,48.073
1046.00,48.051
1047.00,48.092
1048.00,48.094
1049.00,48.104
1050.00,48.111
1051.00,48.161
1052.00,48.176
1053.00,48.166
1054.00,48.158
1055.00,48.181
1056.00,48.183
1057.00,48.186
1058.00,48.184
1059.00,48.178
1060.00,48.185
1061.00,48.183
1062.00,48.157
1063.00,48.175
1064.00,48.180
1065.00,48.171
1066.00,48.164
1067.00,48.157
1068.00,48.164
1069.00,48.125
1070.00,48.107
1071.00,48.100
1072.00,48.114
1073.00,48.075
1074.00,48.072
1075.00,48.051
1076.00,48.051
1077.00,48.031
1078.00,48.010
1079.00,48.029
1080.00,48.029
1081.00,48.017
1082.00,48.040
1083.00,48.009
1084.00,48.000
1085.00,48.003
1086.00,47.990
1087.00,47.978
1088.00,47.967
1089.00,47.971
1090.00,47.954
1091.00,47.964
1092.00,47.949
1093.00,47.948
1094.00,47.929
1095.00,47.918
1096.00,47.918
1097.00,47.925
1098.00,47.881
1099.00,47.882
1100.00,47.872
1101.00,47.856
1102.00,47.831
1103.00,47.825
1104.00,47.821
1105.00,47.815
1106.00,47.796
1107.00,47.790
1108.00,47.772
1109.00,47.771
1110.00,47.769
1111.00,47.758
1112.00,47.752
1113.00,47.756
1114.00,47.738
1115.00,47.744
1116.00,47.731
1117.00,47.720
1118.00,47.712
1119.00,47.717
1120.00,47.709
1121.00,47.712
1122.00,47.691
1123.00,47.678
1124.00,47.673
1125.00,47.660
1126.00,47.664
1127.00,47.666
1128.00,47.645
1129.00,47.639
1130.00,47.622
1131.00,47.623
1132.00,47.631
1133.00,47.631
1134.00,47.602
1135.00,47.605
1136.00,47.606
1137.00,47.613
1138.00,47.601
1139.00,47.605
1140.00,47.596
1141.00,47.570
1142.00,47.562
1143.00,47.602
1144.00,47.564
1145.00,47.566
1146.00,47.571
1147.00,47.561
1148.00,47.554
1149.00,47.563
1150.00,47.569
1151.00,47.572
1152.00,47.554
1153.00,47.549
1154.00,47.544
1155.00,47.533
1156.00,47.520
1157.00,47.539
1158.00,47.517
1159.00,47.514
1160.00,47.507
1161.00,47.541
1162.00,47.537
1163.00,47.529
1164.00,47.540
1165.00,47.535
1166.00,47.544
1167.00,47.522
1168.00,47.543
1169.00,47.525
1170.00,47.519
1171.00,47.516
1172.00,47.512
1173.00,47.500
1174.00,47.515
1175.00,47.504
1176.00,47.507
1177.00,47.485
1178.00,47.486
1179.00,47.513
1180.00,47.493
1181.00,47.510
1182.00,47.495
1183.00,47.493
1184.00,47.489
1185.00,47.502
1186.00,47.489
1187.00,47.497
1188.00,47.484
1189.00,47.479
1190.00,47.478
1191.00,47.454
1192.00,47.482
1193.00,47.476
1194.00,47.483
1195.00,47.465
1196.00,47.497
1197.00,47.491
1198.00,47.478
1199.00,47.476
1200.00,47.476
1201.00,47.501
1202.00,47.478
1203.00,47.495
1204.00,47.491
1205.00,47.486
1206.00,47.482
1207.00,47.484
1208.00,47.477
1209.00,47.493
1210.00,47.490
1211.00,47.481
1212.00,47.505
1213.00,47.458
1214.00,47.492
1215.00,47.475
1216.00,47.479
1217.00,47.490
1218.00,47.484
1219.00,47.499
1220.00,47.483
1221.00,47.495
1222.00,47.479
1223.00,47.510
1224.00,47.493
1225.00,47.489
1226.00,47.498
1227.00,47.500
1228.00,47.523
1229.00,47.511
1230.00,47.516
1231.00,47.511
1232.00,47.552
1233.00,47.540
1234.00,47.544
1235.00,47.559
1236.00,47.551
1237.00,47.568
1238.00,47.558
1239.00,47.568
1240.00,47.546
1241.00,47.554
1242.00,47.562
1243.00,47.565
1244.00,47.546
1245.00,47.576
1246.00,47.569
1247.00,47.579
1248.00,47.580
1249.00,47.608
1250.00,47.633
1251.00,47.592
1252.00,47.594
1253.00,47.586
1254.00,47.594
1255.00,47.586
1256.00,47.581
1257.00,47.575
1258.00,47.614
1259.00,47.613
1260.00,47.639
1261.00,47.627
1262.00,47.633
1263.00,47.619
1264.00,47.644
1265.00,47.667
1266.00,47.640
1267.00,47.677
1268.00,47.670
1269.00,47.666
1270.00,47.689
1271.00,47.683
1272.00,47.693
1273.00,47.701
1274.00,47.693
1275.00,47.709
1276.00,47.704
1277.00,47.712
1278.00,47.731
1279.00,47.732
1280.00,47.724
1281.00,47.727
1282.00,47.734
1283.00,47.726
1284.00,47.724
1285.00,47.697
1286.00,47.703
1287.00,47.689
1288.00,47.708
1289.00,47.706
1290.00,47.752
1291.00,47.750
1292.00,47.742
1293.00,47.748
1294.00,47.765
1295.00,47.787
1296.00,47.787
1297.00,47.812
1298.00,47.846
1299.00,47.809
1300.00,47.826
1301.00,47.813
1302.00,47.846
1303.00,47.854
1304.00,47.838
1305.00,47.877
1306.00,47.863
1307.00,47.860
1308.00,47.881
1309.00,47.898
1310.00,47.889
1311.00,47.880
1312.00,47.876
1313.00,47.889
1314.00,47.924
1315.00,47.926
1316.00,47.930
1317.00,47.962
1318.00,47.950
1319.00,47.966
1320.00,47.962
1321.00,48.130
1322.00,48.123
1323.00,48.123
1324.00,48.100
1325.00,48.106
1326.00,48.136
1327.00,48.093
1328.00,48.112
1329.00,48.108
1330.00,48.107
1331.00,48.117
1332.00,48.112
1333.00,48.112
1334.00,48.144
1335.00,48.175
1336.00,48.208
1337.00,48.245
1338.00,48.289
1339.00,48.357
1340.00,48.419
1341.00,48.465
1342.00,48.546
1343.00,48.556
1344.00,48.624
1345.00,48.713
1346.00,48.727
1347.00,48.741
1348.00,48.773
1349.00,48.804
1350.00,48.819
1351.00,48.854
1352.00,48.872
1353.00,48.869
1354.00,48.834
1355.00,48.805
1356.00,48.861
1357.00,48.899
1358.00,48.862
1359.00,48.930
1360.00,48.923
1361.00,48.842
1362.00,48.912
1363.00,48.997
1364.00,48.927
1365.00,48.898
1366.00,48.947
1367.00,48.869
1368.00,48.887
1369.00,48.901
1370.00,48.901
1371.00,48.807
1372.00,48.854
1373.00,48.844
1374.00,48.904
1375.00,48.888
1376.00,48.880
1377.00,48.821
1378.00,48.952
1379.00,48.901
1380.00,48.933
1381.00,48.914
1382.00,48.899
1383.00,48.920
1384.00,48.865
1385.00,48.867
1386.00,48.892
1387.00,48.851
1388.00,48.792
1389.00,48.861
1390.00,48.867
1391.00,48.838
1392.00,48.874
1393.00,48.912
1394.00,48.868
1395.00,48.807
1396.00,48.814
1397.00,48.896
1398.00,48.926
1399.00,48.834
1400.00,48.794
1401.00,48.835
1402.00,48.913
1403.00,48.854
1404.00,48.862
1405.00,48.903
1406.00,48.933
1407.00,48.928
1408.00,48.929
1409.00,48.885
1410.00,48.926
1411.00,48.906
1412.00,49.021
1413.00,49.177
1414.00,48.875
1415.00,48.935
1416.00,49.007
1417.00,49.035
1418.00,48.959
1419.00,48.952
1420.00,48.999
1421.00,49.053
1422.00,49.050
1423.00,49.053
1424.00,49.065
1425.00,49.091
1426.00,49.103
1427.00,49.162
1428.00,49.154
1429.00,49.142
1430.00,49.169
1431.00,49.181
1432.00,49.184
1433.00,49.215
1434.00,49.193
1435.00,49.256
1436.00,49.276
1437.00,49.259
1438.00,49.303
1439.00,49.324
1440.00,49.318
1441.00,49.369
1442.00,49.350
1443.00,49.436
1444.00,49.488
1445.00,49.390
1446.00,49.418
1447.00,49.457
1448.00,49.490
1449.00,49.485
1450.00,49.495
1451.00,49.489
1452.00,49.524
1453.00,49.523
1454.00,49.542
1455.00,49.579
1456.00,49.566
1457.00,49.591
1458.00,49.654
1459.00,49.642
1460.00,49.680
1461.00,49.671
1462.00,49.692
1463.00,49.690
1464.00,49.716
1465.00,49.724
1466.00,49.730
1467.00,49.743
1468.00,49.820
1469.00,49.798
1470.00,49.796
1471.00,49.855
1472.00,49.851
1473.00,49.857
1474.00,49.903
1475.00,49.898
1476.00,49.897
1477.00,49.900
1478.00,49.921
1479.00,49.951
1480.00,49.939
1481.00,49.939
1482.00,49.983
1483.00,49.990
1484.00,49.994
1485.00,50.003
1486.00,50.008
1487.00,50.038
1488.00,50.076
1489.00,50.033
1490.00,50.060
1491.00,50.085
1492.00,50.124
1493.00,50.112
1494.00,50.147
1495.00,50.128
1496.00,50.160
1497.00,50.148
1498.00,50.156
1499.00,50.180
1500.00,50.175
1501.00, 
1502.00, 
1503.00, 
1504.00, 
1505.00, 
1506.00, 
1507.00, 
1508.00, 
1509.00, 
1510.00, 
1511.00, 
1512.00, 
1513.00, 
1514.00, 
1515.00, 
1516.00, 
1517.00, 
1518.00, 
1519.00, 
1520.00, 
1521.00, 
1522.00, 
1523.00, 
1524.00, 
1525.00, 
1526.00, 
1527.00, 
1528.00, 
1529.00, 
1530.00, 
1531.00, 
1532.00, 
1533.00, 
1534.00, 
1535.00, 
1536.00, 
1537.00, 
1538.00, 
1539.00, 
1540.00, 
1541.00, 
1542.00, 
1543.00, 
1544.00, 
1545.00, 
1546.00, 
1547.00, 
1548.00, 
1549.00, 
1550.00, 
1551.00, 
1552.00, 
1553.00, 
1554.00, 
1555.00, 
1556.00, 
1557.00, 
1558.00, 
1559.00, 
1560.00, 
1561.00, 
1562.00, 
1563.00, 
1564.00, 
1565.00, 
1566.00, 
1567.00, 
1568.00, 
1569.00, 
1570.00, 
1571.00, 
1572.00, 
1573.00, 
1574.00, 
1575.00, 
1576.00, 
1577.00, 
1578.00, 
1579.00, 
1580.00, 
1581.00, 
1582.00, 
1583.00, 
1584.00, 
1585.00, 
1586.00, 
1587.00, 
1588.00, 
1589.00, 
1590.00, 
1591.00, 
1592.00, 
1593.00, 
1594.00, 
1595.00, 
1596.00, 
1597.00, 
1598.00, 
1599.00, 
1600.00, 
1601.00, 
1602.00, 
1603.00, 
1604.00, 
1605.00, 
1606.00, 
1607.00, 
1608.00, 
1609.00, 
1610.00, 
1611.00, 
1612.00, 
1613.00, 
1614.00, 
1615.00, 
1616.00, 
1617.00, 
1618.00, 
1619.00, 
1620.00, 
1621.00, 
1622.00, 
1623.00, 
1624.00, 
1625.00, 
1626.00, 
1627.00, 
1628.00, 
1629.00, 
1630.00, 
1631.00, 
1632.00, 
1633.00, 
1634.00, 
1635.00, 
1636.00, 
1637.00, 
1638.00, 
1639.00, 
1640.00, 
1641.00, 
1642.00, 
1643.00, 
1644.00, 
1645.00, 
1646.00, 
1647.00, 
1648.00, 
1649.00, 
1650.00, 
1651.00, 
1652.00, 
1653.00, 
1654.00, 
1655.00, 
1656.00, 
1657.00, 
1658.00, 
1659.00, 
1660.00, 
1661.00, 
1662.00, 
1663.00, 
1664.00, 
1665.00, 
1666.00, 
1667.00, 
1668.00, 
1669.00, 
1670.00, 
1671.00, 
1672.00, 
1673.00, 
1674.00, 
1675.00, 
1676.00, 
1677.00, 
1678.00, 
1679.00, 
1680.00, 
1681.00, 
1682.00, 
1683.00, 
1684.00, 
1685.00, 
1686.00, 
1687.00, 
1688.00, 
1689.00, 
1690.00, 
1691.00, 
1692.00, 
1693.00, 
1694.00, 
1695.00, 
1696.00, 
1697.00, 
1698.00, 
1699.00, 
1700.00, 
1701.00, 
1702.00, 
1703.00, 
1704.00, 
1705.00, 
1706.00, 
1707.00, 
1708.00, 
1709.00, 
1710.00, 
1711.00, 
1712.00, 
1713.00, 
1714.00, 
1715.00, 
1716.00, 
1717.00, 
1718.00, 
1719.00, 
1720.00, 
1721.00, 
1722.00, 
1723.00, 
1724.00, 
1725.00, 
1726.00, 
1727.00, 
1728.00, 
1729.00, 
1730.00, 
1731.00, 
1732.00, 
1733.00, 
1734.00, 
1735.00, 
1736.00, 
1737.00, 
1738.00, 
1739.00, 
1740.00, 
1741.00, 
1742.00, 
1743.00, 
1744.00, 
1745.00, 
1746.00, 
1747.00, 
1748.00, 
1749.00, 
1750.00, 
1751.00, 
1752.00, 
1753.00, 
1754.00, 
1755.00, 
1756.00, 
1757.00, 
1758.00, 
1759.00, 
1760.00, 
1761.00, 
1762.00, 
1763.00, 
1764.00, 
1765.00, 
1766.00, 
1767.00, 
1768.00, 
1769.00, 
1770.00, 
1771.00, 
1772.00, 
1773.00, 
1774.00, 
1775.00, 
1776.00, 
1777.00, 
1778.00, 
1779.00, 
1780.00, 
1781.00, 
1782.00, 
1783.00, 
1784.00, 
1785.00, 
1786.00, 
1787.00, 
1788.00, 
1789.00, 
1790.00, 
1791.00, 
1792.00, 
1793.00, 
1794.00, 
1795.00, 
1796.00, 
1797.00, 
1798.00, 
1799.00, 
1800.00, 
1801.00, 
1802.00, 
1803.00, 
1804.00, 
1805.00, 
1806.00, 
1807.00, 
1808.00, 
1809.00, 
1810.00, 
1811.00, 
1812.00, 
1813.00, 
1814.00, 
1815.00, 
1816.00, 
1817.00, 
1818.00, 
1819.00, 
1820.00, 
1821.00, 
1822.00, 
1823.00, 
1824.00, 
1825.00, 
1826.00, 
1827.00, 
1828.00, 
1829.00, 
1830.00, 
1831.00, 
1832.00, 
1833.00, 
1834.00, 
1835.00, 
1836.00, 
1837.00, 
1838.00, 
1839.00, 
1840.00, 
1841.00, 
1842.00, 
1843.00, 
1844.00, 
1845.00, 
1846.00, 
1847.00, 
1848.00, 
1849.00, 
1850.00, 
1851.00, 
1852.00, 
1853.00, 
1854.00, 
1855.00, 
1856.00, 
1857.00, 
1858.00, 
1859.00, 
1860.00, 
1861.00, 
1862.00, 
1863.00, 
1864.00, 
1865.00, 
1866.00, 
1867.00, 
1868.00, 
1869.00, 
1870.00, 
1871.00, 
1872.00, 
1873.00, 
1874.00, 
1875.00, 
1876.00, 
1877.00, 
1878.00, 
1879.00, 
1880.00, 
1881.00, 
1882.00, 
1883.00, 
1884.00, 
1885.00, 
1886.00, 
1887.00, 
1888.00, 
1889.00, 
1890.00, 
1891.00, 
1892.00, 
1893.00, 
1894.00, 
1895.00, 
1896.00, 
1897.00, 
1898.00, 
1899.00, 
1900.00, 
1901.00, 
1902.00, 
1903.00, 
1904.00, 
1905.00, 
1906.00, 
1907.00, 
1908.00, 
1909.00, 
1910.00, 
1911.00, 
1912.00, 
1913.00, 
1914.00, 
1915.00, 
1916.00, 
1917.00, 
1918.00, 
1919.00, 
1920.00, 
1921.00, 
1922.00, 
1923.00, 
1924.00, 
1925.00, 
1926.00, 
1927.00, 
1928.00, 
1929.00, 
1930.00, 
1931.00, 
1932.00, 
1933.00, 
1934.00, 
1935.00, 
1936.00, 
1937.00, 
1938.00, 
1939.00, 
1940.00, 
1941.00, 
1942.00, 
1943.00, 
1944.00, 
1945.00, 
1946.00, 
1947.00, 
1948.00, 
1949.00, 
1950.00, 
1951.00, 
1952.00, 
1953.00, 
1954.00, 
1955.00, 
1956.00, 
1957.00, 
1958.00, 
1959.00, 
1960.00, 
1961.00, 
1962.00, 
1963.00, 
1964.00, 
1965.00, 
1966.00, 
1967.00, 
1968.00, 
1969.00, 
1970.00, 
1971.00, 
1972.00, 
1973.00, 
1974.00, 
1975.00, 
1976.00, 
1977.00, 
1978.00, 
1979.00, 
1980.00, 
1981.00, 
1982.00, 
1983.00, 
1984.00, 
1985.00, 
1986.00, 
1987.00, 
1988.00, 
1989.00, 
1990.00, 
1991.00, 
1992.00, 
1993.00, 
1994.00, 
1995.00, 
1996.00, 
1997.00, 
1998.00, 
1999.00, 
2000.00, 
2001.00, 
2002.00, 
2003.00, 
2004.00, 
2005.00, 
2006.00, 
2007.00, 
2008.00, 
2009.00, 
2010.00, 
2011.00, 
2012.00, 
2013.00, 
2014.00, 
2015.00, 
2016.00, 
2017.00, 
2018.00, 
2019.00, 
2020.00, 
2021.00, 
2022.00, 
2023.00, 
2024.00, 
2025.00, 
2026.00, 
2027.00, 
2028.00, 
2029.00, 
2030.00, 
2031.00, 
2032.00, 
2033.00, 
2034.00, 
2035.00, 
2036.00, 
2037.00, 
2038.00, 
2039.00, 
2040.00, 
2041.00, 
2042.00, 
2043.00, 
2044.00, 
2045.00, 
2046.00, 
2047.00, 
2048.00, 
2049.00, 
2050.00, 
2051.00, 
2052.00, 
2053.00, 
2054.00, 
2055.00, 
2056.00, 
2057.00, 
2058.00, 
2059.00, 
2060.00, 
2061.00, 
2062.00, 
2063.00, 
2064.00, 
2065.00, 
2066.00, 
2067.00, 
2068.00, 
2069.00, 
2070.00, 
2071.00, 
2072.00, 
2073.00, 
2074.00, 
2075.00, 
2076.00, 
2077.00, 
2078.00, 
2079.00, 
2080.00, 
2081.00, 
2082.00, 
2083.00, 
2084.00, 
2085.00, 
2086.00, 
2087.00, 
2088.00, 
2089.00, 
2090.00, 
2091.00, 
2092.00, 
2093.00, 
2094.00, 
2095.00, 
2096.00, 
2097.00, 
2098.00, 
2099.00, 
2100.00, 
2101.00, 
2102.00, 
2103.00, 
2104.00, 
2105.00, 
2106.00, 
2107.00, 
2108.00, 
2109.00, 
2110.00, 
2111.00, 
2112.00, 
2113.00, 
2114.00, 
2115.00, 
2116.00, 
2117.00, 
2118.00, 
2119.00, 
2120.00, 
2121.00, 
2122.00, 
2123.00, 
2124.00, 
2125.00, 
2126.00, 
2127.00, 
2128.00, 
2129.00, 
2130.00, 
2131.00, 
2132.00, 
2133.00, 
2134.00, 
2135.00, 
2136.00, 
2137.00, 
2138.00, 
2139.00, 
2140.00, 
2141.00, 
2142.00, 
2143.00, 
2144.00, 
2145.00, 
2146.00, 
2147.00, 
2148.00, 
2149.00, 
2150.00, 
2151.00, 
2152.00, 
2153.00, 
2154.00, 
2155.00, 
2156.00, 
2157.00, 
2158.00, 
2159.00, 
2160.00, 
2161.00, 
2162.00, 
2163.00, 
2164.00, 
2165.00, 
2166.00, 
2167.00, 
2168.00, 
2169.00, 
2170.00, 
2171.00, 
2172.00, 
2173.00, 
2174.00, 
2175.00, 
2176.00, 
2177.00, 
2178.00, 
2179.00, 
2180.00, 
2181.00, 
2182.00, 
2183.00, 
2184.00, 
2185.00, 
2186.00, 
2187.00, 
2188.00, 
2189.00, 
2190.00, 
2191.00, 
2192.00, 
2193.00, 
2194.00, 
2195.00, 
2196.00, 
2197.00, 
2198.00, 
2199.00, 
2200.00, 
2201.00, 
2202.00, 
2203.00, 
2204.00, 
2205.00, 
2206.00, 
2207.00, 
2208.00, 
2209.00, 
2210.00, 
2211.00, 
2212.00, 
2213.00, 
2214.00, 
2215.00, 
2216.00, 
2217.00, 
2218.00, 
2219.00, 
2220.00, 
2221.00, 
2222.00, 
2223.00, 
2224.00, 
2225.00, 
2226.00, 
2227.00, 
2228.00, 
2229.00, 
2230.00, 
2231.00, 
2232.00, 
2233.00, 
2234.00, 
2235.00, 
2236.00, 
2237.00, 
2238.00, 
2239.00, 
2240.00, 
2241.00, 
2242.00, 
2243.00, 
2244.00, 
2245.00, 
2246.00, 
2247.00, 
2248.00, 
2249.00, 
2250.00, 
2251.00, 
2252.00, 
2253.00, 
2254.00, 
2255.00, 
2256.00, 
2257.00, 
2258.00, 
2259.00, 
2260.00, 
2261.00, 
2262.00, 
2263.00, 
2264.00, 
2265.00, 
2266.00, 
2267.00, 
2268.00, 
2269.00, 
2270.00, 
2271.00, 
2272.00, 
2273.00, 
2274.00, 
2275.00, 
2276.00, 
2277.00, 
2278.00, 
2279.00, 
2280.00, 
2281.00, 
2282.00, 
2283.00, 
2284.00, 
2285.00, 
2286.00, 
2287.00, 
2288.00, 
2289.00, 
2290.00, 
2291.00, 
2292.00, 
2293.00, 
2294.00, 
2295.00, 
2296.00, 
2297.00, 
2298.00, 
2299.00, 
2300.00, 
2301.00, 
2302.00, 
2303.00, 
2304.00, 
2305.00, 
2306.00, 
2307.00, 
2308.00, 
2309.00, 
2310.00, 
2311.00, 
2312.00, 
2313.00, 
2314.00, 
2315.00, 
2316.00, 
2317.00, 
2318.00, 
2319.00, 
2320.00, 
2321.00, 
2322.00, 
2323.00, 
2324.00, 
2325.00, 
2326.00, 
2327.00, 
2328.00, 
2329.00, 
2330.00, 
2331.00, 
2332.00, 
2333.00, 
2334.00, 
2335.00, 
2336.00, 
2337.00, 
2338.00, 
2339.00, 
2340.00, 
2341.00, 
2342.00, 
2343.00, 
2344.00, 
2345.00, 
2346.00, 
2347.00, 
2348.00, 
2349.00, 
2350.00, 
2351.00, 
2352.00, 
2353.00, 
2354.00, 
2355.00, 
2356.00, 
2357.00, 
2358.00, 
2359.00, 
2360.00, 
2361.00, 
2362.00, 
2363.00, 
2364.00, 
2365.00, 
2366.00, 
2367.00, 
2368.00, 
2369.00, 
2370.00, 
2371.00, 
2372.00, 
2373.00, 
2374.00, 
2375.00, 
2376.00, 
2377.00, 
2378.00, 
2379.00, 
2380.00, 
2381.00, 
2382.00, 
2383.00, 
2384.00, 
2385.00, 
2386.00, 
2387.00, 
2388.00, 
2389.00, 
2390.00, 
2391.00, 
2392.00, 
2393.00, 
2394.00, 
2395.00, 
2396.00, 
2397.00, 
2398.00, 
2399.00, 
2400.00, 
2401.00, 
2402.00, 
2403.00, 
2404.00, 
2405.00, 
2406.00, 
2407.00, 
2408.00, 
2409.00, 
2410.00, 
2411.00, 
2412.00, 
2413.00, 
2414.00, 
2415.00, 
2416.00, 
2417.00, 
2418.00, 
2419.00, 
2420.00, 
2421.00, 
2422.00, 
2423.00, 
2424.00, 
2425.00, 
2426.00, 
2427.00, 
2428.00, 
2429.00, 
2430.00, 
2431.00, 
2432.00, 
2433.00, 
2434.00, 
2435.00, 
2436.00, 
2437.00, 
2438.00, 
2439.00, 
2440.00, 
2441.00, 
2442.00, 
2443.00, 
2444.00, 
2445.00, 
2446.00, 
2447.00, 
2448.00, 
2449.00, 
2450.00, 
2451.00, 
2452.00, 
2453.00, 
2454.00, 
2455.00, 
2456.00, 
2457.00, 
2458.00, 
2459.00, 
2460.00, 
2461.00, 
2462.00, 
2463.00, 
2464.00, 
2465.00, 
2466.00, 
2467.00, 
2468.00, 
2469.00, 
2470.00, 
2471.00, 
2472.00, 
2473.00, 
2474.00, 
2475.00, 
2476.00, 
2477.00, 
2478.00, 
2479.00, 
2480.00, 
2481.00, 
2482.00, 
2483.00, 
2484.00, 
2485.00, 
2486.00, 
2487.00, 
2488.00, 
2489.00, 
2490.00, 
2491.00, 
2492.00, 
2493.00, 
2494.00, 
2495.00, 
2496.00, 
2497.00, 
2498.00, 
2499.00, 
2500.00, 
2501.00, 
2502.00, 
2503.00, 
2504.00, 
2505.00, 
2506.00, 
2507.00, 
2508.00, 
2509.00, 
2510.00, 
2511.00, 
2512.00, 
2513.00, 
2514.00, 
2515.00, 
2516.00, 
2517.00, 
2518.00, 
2519.00, 
2520.00, 
2521.00, 
2522.00, 
2523.00, 
2524.00, 
2525.00, 
2526.00, 
2527.00, 
2528.00, 
2529.00, 
2530.00, 
2531.00, 
2532.00, 
2533.00, 
2534.00, 
2535.00, 
2536.00, 
2537.00, 
2538.00, 
2539.00, 
2540.00, 
2541.00, 
2542.00, 
2543.00, 
2544.00, 
2545.00, 
2546.00, 
2547.00, 
2548.00, 
2549.00, 
2550.00, 
2551.00, 
2552.00, 
2553.00, 
2554.00, 
2555.00, 
2556.00, 
2557.00, 
2558.00, 
2559.00, 
2560.00, 
2561.00, 
2562.00, 
2563.00, 
2564.00, 
2565.00, 
2566.00, 
2567.00, 
2568.00, 
2569.00, 
2570.00, 
2571.00, 
2572.00, 
2573.00, 
2574.00, 
2575.00, 
2576.00, 
2577.00, 
2578.00, 
2579.00, 
2580.00, 
2581.00, 
2582.00, 
2583.00, 
2584.00, 
2585.00, 
2586.00, 
2587.00, 
2588.00, 
2589.00, 
2590.00, 
2591.00, 
2592.00, 
2593.00, 
2594.00, 
2595.00, 
2596.00, 
2597.00, 
2598.00, 
2599.00, 
2600.00, 
