"1cP4 - RawData"
"Wavelength nm.","T%"
200.00,0.006
201.00,0.002
202.00,0.003
203.00,-0.002
204.00,-0.000
205.00,0.000
206.00,0.003
207.00,-0.001
208.00,0.000
209.00,0.001
210.00,-0.001
211.00,0.001
212.00,-0.001
213.00,0.001
214.00,0.002
215.00,0.002
216.00,-0.001
217.00,-0.000
218.00,0.002
219.00,0.001
220.00,0.001
221.00,-0.001
222.00,0.001
223.00,0.000
224.00,0.001
225.00,0.001
226.00,0.000
227.00,0.001
228.00,0.001
229.00,-0.002
230.00,-0.001
231.00,0.002
232.00,0.001
233.00,0.000
234.00,-0.001
235.00,-0.000
236.00,0.001
237.00,0.000
238.00,0.001
239.00,0.002
240.00,-0.001
241.00,-0.000
242.00,0.003
243.00,0.001
244.00,-0.001
245.00,0.000
246.00,-0.000
247.00,-0.000
248.00,-0.000
249.00,0.001
250.00,0.001
251.00,0.001
252.00,0.001
253.00,-0.000
254.00,0.001
255.00,0.000
256.00,-0.000
257.00,0.000
258.00,0.001
259.00,0.000
260.00,-0.001
261.00,0.001
262.00,0.001
263.00,-0.002
264.00,0.001
265.00,0.001
266.00,0.002
267.00,-0.001
268.00,-0.001
269.00,-0.002
270.00,0.001
271.00,0.000
272.00,-0.000
273.00,0.002
274.00,0.001
275.00,0.001
276.00,-0.000
277.00,-0.001
278.00,0.001
279.00,0.001
280.00,0.002
281.00,0.001
282.00,0.000
283.00,0.002
284.00,-0.001
285.00,0.001
286.00,0.001
287.00,-0.001
288.00,0.000
289.00,-0.001
290.00,0.000
291.00,-0.000
292.00,0.000
293.00,0.001
294.00,0.002
295.00,0.001
296.00,0.001
297.00,-0.000
298.00,0.000
299.00,-0.000
300.00,-0.001
301.00,-0.001
302.00,-0.000
303.00,0.000
304.00,0.001
305.00,0.003
306.00,0.002
307.00,0.003
308.00,0.008
309.00,0.013
310.00,0.015
311.00,0.027
312.00,0.042
313.00,0.061
314.00,0.093
315.00,0.142
316.00,0.204
317.00,0.285
318.00,0.382
319.00,0.520
320.00,0.697
321.00,0.903
322.00,1.143
323.00,1.444
324.00,1.789
325.00,2.163
326.00,2.569
327.00,3.046
328.00,3.557
329.00,4.049
330.00,4.665
331.00,5.276
332.00,5.917
333.00,6.606
334.00,7.275
335.00,8.019
336.00,8.717
337.00,9.466
338.00,10.245
339.00,10.911
340.00,11.623
341.00,12.306
342.00,12.996
343.00,13.616
344.00,14.244
345.00,14.840
346.00,15.456
347.00,15.998
348.00,16.545
349.00,17.011
350.00,17.485
351.00,17.893
352.00,18.273
353.00,18.668
354.00,19.004
355.00,19.306
356.00,19.715
357.00,19.969
358.00,20.238
359.00,20.579
360.00,20.817
361.00,20.967
362.00,21.151
363.00,21.349
364.00,21.475
365.00,21.555
366.00,21.730
367.00,21.799
368.00,21.825
369.00,21.907
370.00,21.978
371.00,22.007
372.00,21.969
373.00,21.931
374.00,21.984
375.00,21.923
376.00,21.847
377.00,21.753
378.00,21.661
379.00,21.570
380.00,21.570
381.00,21.511
382.00,21.513
383.00,21.584
384.00,21.606
385.00,21.668
386.00,21.668
387.00,21.767
388.00,21.904
389.00,21.897
390.00,21.960
391.00,21.991
392.00,22.030
393.00,22.093
394.00,22.014
395.00,22.122
396.00,22.062
397.00,22.120
398.00,22.154
399.00,22.170
400.00,22.156
401.00,22.155
402.00,22.157
403.00,22.132
404.00,22.096
405.00,22.124
406.00,22.097
407.00,22.072
408.00,22.066
409.00,22.037
410.00,21.943
411.00,21.950
412.00,21.914
413.00,21.945
414.00,21.918
415.00,21.921
416.00,21.975
417.00,21.931
418.00,21.982
419.00,22.053
420.00,22.095
421.00,22.101
422.00,22.108
423.00,22.138
424.00,22.208
425.00,22.227
426.00,22.268
427.00,22.304
428.00,22.351
429.00,22.407
430.00,22.446
431.00,22.504
432.00,22.537
433.00,22.592
434.00,22.628
435.00,22.721
436.00,22.782
437.00,22.844
438.00,22.942
439.00,23.060
440.00,23.036
441.00,23.104
442.00,23.162
443.00,23.267
444.00,23.362
445.00,23.426
446.00,23.567
447.00,23.626
448.00,23.734
449.00,23.874
450.00,23.974
451.00,24.021
452.00,24.148
453.00,24.283
454.00,24.360
455.00,24.527
456.00,24.689
457.00,24.753
458.00,24.819
459.00,24.986
460.00,25.132
461.00,25.223
462.00,25.362
463.00,25.503
464.00,25.633
465.00,25.760
466.00,25.925
467.00,26.022
468.00,26.103
469.00,26.245
470.00,26.321
471.00,26.461
472.00,26.580
473.00,26.664
474.00,26.763
475.00,26.889
476.00,27.021
477.00,27.141
478.00,27.244
479.00,27.461
480.00,27.557
481.00,27.645
482.00,27.874
483.00,27.973
484.00,28.102
485.00,28.339
486.00,28.401
487.00,28.609
488.00,28.752
489.00,28.921
490.00,29.070
491.00,29.190
492.00,29.440
493.00,29.563
494.00,29.542
495.00,29.647
496.00,29.825
497.00,29.870
498.00,30.057
499.00,30.231
500.00,30.406
501.00,30.460
502.00,30.637
503.00,30.779
504.00,30.812
505.00,30.914
506.00,31.089
507.00,31.163
508.00,31.313
509.00,31.424
510.00,31.601
511.00,31.696
512.00,31.821
513.00,31.981
514.00,32.097
515.00,32.232
516.00,32.308
517.00,32.434
518.00,32.578
519.00,32.630
520.00,32.636
521.00,32.771
522.00,32.900
523.00,32.941
524.00,33.023
525.00,33.174
526.00,33.258
527.00,33.336
528.00,33.378
529.00,33.587
530.00,33.718
531.00,33.801
532.00,33.861
533.00,33.998
534.00,34.053
535.00,34.191
536.00,34.262
537.00,34.303
538.00,34.366
539.00,34.439
540.00,34.529
541.00,34.537
542.00,34.604
543.00,34.717
544.00,34.775
545.00,34.824
546.00,34.848
547.00,34.983
548.00,35.057
549.00,35.105
550.00,35.196
551.00,35.297
552.00,35.389
553.00,35.415
554.00,35.523
555.00,35.571
556.00,35.640
557.00,35.721
558.00,35.723
559.00,35.740
560.00,35.826
561.00,35.933
562.00,36.012
563.00,35.992
564.00,36.062
565.00,36.114
566.00,36.100
567.00,36.133
568.00,36.239
569.00,36.258
570.00,36.277
571.00,36.389
572.00,36.368
573.00,36.326
574.00,36.389
575.00,36.427
576.00,36.406
577.00,36.433
578.00,36.608
579.00,36.642
580.00,36.613
581.00,36.830
582.00,36.854
583.00,36.843
584.00,36.919
585.00,37.005
586.00,37.014
587.00,37.107
588.00,37.053
589.00,37.003
590.00,37.227
591.00,37.322
592.00,37.218
593.00,37.228
594.00,37.371
595.00,37.453
596.00,37.549
597.00,37.576
598.00,37.645
599.00,37.618
600.00,37.638
601.00,37.672
602.00,37.696
603.00,37.785
604.00,37.875
605.00,37.917
606.00,37.915
607.00,37.959
608.00,38.126
609.00,38.178
610.00,38.045
611.00,38.135
612.00,38.188
613.00,38.268
614.00,38.310
615.00,38.354
616.00,38.466
617.00,38.443
618.00,38.443
619.00,38.529
620.00,38.598
621.00,38.584
622.00,38.667
623.00,38.754
624.00,38.862
625.00,38.883
626.00,38.922
627.00,38.997
628.00,39.024
629.00,39.015
630.00,39.081
631.00,39.154
632.00,39.216
633.00,39.395
634.00,39.446
635.00,39.457
636.00,39.508
637.00,39.639
638.00,39.705
639.00,39.835
640.00,39.856
641.00,39.890
642.00,39.903
643.00,40.061
644.00,40.135
645.00,40.208
646.00,40.402
647.00,40.399
648.00,40.520
649.00,40.550
650.00,40.523
651.00,40.702
652.00,40.773
653.00,40.740
654.00,40.812
655.00,41.073
656.00,41.244
657.00,41.222
658.00,41.188
659.00,41.260
660.00,41.439
661.00,41.458
662.00,41.506
663.00,41.680
664.00,42.045
665.00,42.079
666.00,42.039
667.00,42.133
668.00,42.068
669.00,42.350
670.00,42.633
671.00,42.464
672.00,42.615
673.00,42.644
674.00,42.720
675.00,42.792
676.00,42.984
677.00,43.220
678.00,43.002
679.00,43.140
680.00,43.234
681.00,43.493
682.00,43.439
683.00,43.521
684.00,43.737
685.00,43.794
686.00,43.652
687.00,43.806
688.00,43.895
689.00,43.873
690.00,44.170
691.00,44.482
692.00,44.204
693.00,44.286
694.00,44.441
695.00,44.578
696.00,44.671
697.00,44.583
698.00,44.724
699.00,45.013
700.00,45.106
701.00,45.127
702.00,45.212
703.00,45.307
704.00,45.356
705.00,45.303
706.00,45.554
707.00,45.490
708.00,45.349
709.00,45.754
710.00,46.150
711.00,45.683
712.00,45.779
713.00,45.912
714.00,46.059
715.00,45.985
716.00,46.019
717.00,46.205
718.00,46.352
719.00,46.343
720.00,46.330
721.00,50.882
722.00,50.937
723.00,50.938
724.00,50.901
725.00,50.909
726.00,51.054
727.00,50.943
728.00,50.971
729.00,50.952
730.00,51.028
731.00,51.110
732.00,51.099
733.00,51.181
734.00,51.199
735.00,51.294
736.00,51.220
737.00,51.300
738.00,51.355
739.00,51.371
740.00,51.355
741.00,51.357
742.00,51.409
743.00,51.374
744.00,51.460
745.00,51.430
746.00,51.436
747.00,51.518
748.00,51.455
749.00,51.510
750.00,51.477
751.00,51.472
752.00,51.444
753.00,51.487
754.00,51.436
755.00,51.514
756.00,51.562
757.00,51.552
758.00,51.543
759.00,51.522
760.00,51.500
761.00,51.555
762.00,51.518
763.00,51.615
764.00,51.616
765.00,51.595
766.00,51.605
767.00,51.546
768.00,51.629
769.00,51.609
770.00,51.746
771.00,51.634
772.00,51.699
773.00,51.631
774.00,51.665
775.00,51.672
776.00,51.669
777.00,51.676
778.00,51.705
779.00,51.767
780.00,51.726
781.00,51.771
782.00,51.729
783.00,51.724
784.00,51.730
785.00,51.653
786.00,51.624
787.00,51.681
788.00,51.700
789.00,51.621
790.00,51.579
791.00,51.759
792.00,51.647
793.00,51.648
794.00,51.624
795.00,51.634
796.00,51.623
797.00,51.553
798.00,51.563
799.00,51.531
800.00,51.543
801.00,51.445
802.00,51.468
803.00,51.503
804.00,51.399
805.00,51.498
806.00,51.456
807.00,51.418
808.00,51.396
809.00,51.359
810.00,51.337
811.00,51.367
812.00,51.374
813.00,51.365
814.00,51.276
815.00,51.285
816.00,51.310
817.00,51.253
818.00,51.150
819.00,51.164
820.00,51.216
821.00,51.180
822.00,51.238
823.00,51.107
824.00,51.098
825.00,51.046
826.00,51.254
827.00,51.220
828.00,51.223
829.00,51.078
830.00,51.111
831.00,53.404
832.00,53.488
833.00,53.307
834.00,53.404
835.00,53.395
836.00,53.329
837.00,53.317
838.00,53.294
839.00,53.289
840.00,53.260
841.00,53.293
842.00,53.204
843.00,53.231
844.00,53.229
845.00,53.157
846.00,53.142
847.00,53.154
848.00,53.116
849.00,53.043
850.00,53.054
851.00,52.982
852.00,53.019
853.00,52.944
854.00,52.936
855.00,52.884
856.00,52.873
857.00,52.870
858.00,52.819
859.00,52.790
860.00,52.771
861.00,52.830
862.00,52.787
863.00,52.760
864.00,52.714
865.00,52.746
866.00,52.723
867.00,52.695
868.00,52.686
869.00,52.683
870.00,52.658
871.00,52.668
872.00,52.651
873.00,52.628
874.00,52.678
875.00,52.572
876.00,52.607
877.00,52.761
878.00,52.591
879.00,52.570
880.00,52.545
881.00,52.544
882.00,52.590
883.00,52.510
884.00,52.463
885.00,52.472
886.00,52.467
887.00,52.391
888.00,52.378
889.00,52.384
890.00,52.361
891.00,52.319
892.00,52.305
893.00,52.301
894.00,52.308
895.00,52.277
896.00,52.265
897.00,52.220
898.00,52.195
899.00,52.180
900.00,52.168
901.00,52.172
902.00,52.185
903.00,52.118
904.00,52.122
905.00,52.124
906.00,52.103
907.00,52.072
908.00,52.053
909.00,52.054
910.00,52.010
911.00,51.995
912.00,51.991
913.00,52.004
914.00,51.854
915.00,51.896
916.00,51.827
917.00,52.001
918.00,51.871
919.00,51.846
920.00,51.808
921.00,51.808
922.00,51.819
923.00,51.770
924.00,51.724
925.00,51.747
926.00,51.735
927.00,51.690
928.00,51.658
929.00,51.674
930.00,51.613
931.00,51.585
932.00,51.646
933.00,51.592
934.00,51.548
935.00,51.526
936.00,51.511
937.00,51.497
938.00,51.495
939.00,51.489
940.00,51.451
941.00,51.436
942.00,51.420
943.00,51.411
944.00,51.369
945.00,51.377
946.00,51.370
947.00,51.316
948.00,51.307
949.00,51.288
950.00,51.277
951.00,51.254
952.00,51.233
953.00,51.193
954.00,51.154
955.00,51.125
956.00,51.122
957.00,51.077
958.00,51.099
959.00,51.025
960.00,51.036
961.00,51.022
962.00,51.011
963.00,50.979
964.00,50.993
965.00,50.978
966.00,50.972
967.00,50.970
968.00,50.926
969.00,50.974
970.00,50.934
971.00,50.934
972.00,50.905
973.00,50.946
974.00,50.953
975.00,50.939
976.00,50.954
977.00,50.927
978.00,50.968
979.00,50.911
980.00,50.942
981.00,50.943
982.00,50.891
983.00,50.913
984.00,50.898
985.00,50.911
986.00,50.894
987.00,50.889
988.00,50.865
989.00,50.854
990.00,50.858
991.00,50.852
992.00,50.845
993.00,50.805
994.00,50.801
995.00,50.793
996.00,50.779
997.00,50.766
998.00,50.735
999.00,50.738
1000.00,50.697
1001.00,50.691
1002.00,50.699
1003.00,50.680
1004.00,50.653
1005.00,50.641
1006.00,50.663
1007.00,50.632
1008.00,50.640
1009.00,50.590
1010.00,50.601
1011.00,50.594
1012.00,50.559
1013.00,50.551
1014.00,50.519
1015.00,50.526
1016.00,50.503
1017.00,50.502
1018.00,50.507
1019.00,50.474
1020.00,50.460
1021.00,50.444
1022.00,50.453
1023.00,50.425
1024.00,50.411
1025.00,50.371
1026.00,50.387
1027.00,50.361
1028.00,50.353
1029.00,50.331
1030.00,50.297
1031.00,50.309
1032.00,50.272
1033.00,50.290
1034.00,50.252
1035.00,50.228
1036.00,50.202
1037.00,50.184
1038.00,50.181
1039.00,50.132
1040.00,50.124
1041.00,50.092
1042.00,50.087
1043.00,50.066
1044.00,50.097
1045.00,50.070
1046.00,50.080
1047.00,50.097
1048.00,50.104
1049.00,50.132
1050.00,50.124
1051.00,50.155
1052.00,50.165
1053.00,50.159
1054.00,50.159
1055.00,50.180
1056.00,50.176
1057.00,50.177
1058.00,50.152
1059.00,50.159
1060.00,50.181
1061.00,50.145
1062.00,50.127
1063.00,50.140
1064.00,50.126
1065.00,50.123
1066.00,50.122
1067.00,50.109
1068.00,50.164
1069.00,50.107
1070.00,50.093
1071.00,50.087
1072.00,50.105
1073.00,50.075
1074.00,50.078
1075.00,50.049
1076.00,50.058
1077.00,50.045
1078.00,50.016
1079.00,50.037
1080.00,50.030
1081.00,50.001
1082.00,50.018
1083.00,50.002
1084.00,50.008
1085.00,50.014
1086.00,49.981
1087.00,49.994
1088.00,49.978
1089.00,49.959
1090.00,49.967
1091.00,49.974
1092.00,49.960
1093.00,49.951
1094.00,49.917
1095.00,49.910
1096.00,49.905
1097.00,49.888
1098.00,49.888
1099.00,49.889
1100.00,49.869
1101.00,49.869
1102.00,49.858
1103.00,49.854
1104.00,49.848
1105.00,49.836
1106.00,49.821
1107.00,49.815
1108.00,49.795
1109.00,49.800
1110.00,49.802
1111.00,49.779
1112.00,49.777
1113.00,49.782
1114.00,49.748
1115.00,49.770
1116.00,49.743
1117.00,49.727
1118.00,49.723
1119.00,49.710
1120.00,49.719
1121.00,49.724
1122.00,49.694
1123.00,49.689
1124.00,49.697
1125.00,49.688
1126.00,49.679
1127.00,49.679
1128.00,49.658
1129.00,49.663
1130.00,49.657
1131.00,49.653
1132.00,49.659
1133.00,49.638
1134.00,49.626
1135.00,49.623
1136.00,49.623
1137.00,49.636
1138.00,49.627
1139.00,49.620
1140.00,49.613
1141.00,49.602
1142.00,49.610
1143.00,49.623
1144.00,49.578
1145.00,49.603
1146.00,49.592
1147.00,49.578
1148.00,49.584
1149.00,49.586
1150.00,49.589
1151.00,49.601
1152.00,49.588
1153.00,49.604
1154.00,49.584
1155.00,49.583
1156.00,49.571
1157.00,49.585
1158.00,49.575
1159.00,49.569
1160.00,49.565
1161.00,49.591
1162.00,49.575
1163.00,49.553
1164.00,49.577
1165.00,49.574
1166.00,49.570
1167.00,49.568
1168.00,49.583
1169.00,49.572
1170.00,49.571
1171.00,49.549
1172.00,49.545
1173.00,49.545
1174.00,49.543
1175.00,49.547
1176.00,49.549
1177.00,49.518
1178.00,49.538
1179.00,49.551
1180.00,49.533
1181.00,49.561
1182.00,49.545
1183.00,49.548
1184.00,49.537
1185.00,49.548
1186.00,49.539
1187.00,49.542
1188.00,49.533
1189.00,49.538
1190.00,49.526
1191.00,49.504
1192.00,49.549
1193.00,49.528
1194.00,49.531
1195.00,49.514
1196.00,49.537
1197.00,49.553
1198.00,49.540
1199.00,49.537
1200.00,49.549
1201.00,49.564
1202.00,49.536
1203.00,49.542
1204.00,49.532
1205.00,49.527
1206.00,49.525
1207.00,49.523
1208.00,49.506
1209.00,49.525
1210.00,49.516
1211.00,49.531
1212.00,49.550
1213.00,49.508
1214.00,49.561
1215.00,49.534
1216.00,49.538
1217.00,49.555
1218.00,49.533
1219.00,49.560
1220.00,49.554
1221.00,49.554
1222.00,49.552
1223.00,49.581
1224.00,49.567
1225.00,49.550
1226.00,49.547
1227.00,49.535
1228.00,49.571
1229.00,49.549
1230.00,49.588
1231.00,49.589
1232.00,49.598
1233.00,49.608
1234.00,49.606
1235.00,49.601
1236.00,49.611
1237.00,49.612
1238.00,49.590
1239.00,49.609
1240.00,49.589
1241.00,49.609
1242.00,49.630
1243.00,49.631
1244.00,49.632
1245.00,49.654
1246.00,49.652
1247.00,49.663
1248.00,49.641
1249.00,49.672
1250.00,49.675
1251.00,49.648
1252.00,49.656
1253.00,49.637
1254.00,49.661
1255.00,49.659
1256.00,49.647
1257.00,49.640
1258.00,49.695
1259.00,49.670
1260.00,49.688
1261.00,49.716
1262.00,49.696
1263.00,49.695
1264.00,49.711
1265.00,49.716
1266.00,49.723
1267.00,49.755
1268.00,49.738
1269.00,49.734
1270.00,49.736
1271.00,49.747
1272.00,49.757
1273.00,49.760
1274.00,49.770
1275.00,49.788
1276.00,49.767
1277.00,49.783
1278.00,49.799
1279.00,49.803
1280.00,49.793
1281.00,49.811
1282.00,49.828
1283.00,49.817
1284.00,49.818
1285.00,49.809
1286.00,49.835
1287.00,49.830
1288.00,49.841
1289.00,49.839
1290.00,49.860
1291.00,49.862
1292.00,49.836
1293.00,49.840
1294.00,49.867
1295.00,49.878
1296.00,49.881
1297.00,49.897
1298.00,49.935
1299.00,49.915
1300.00,49.927
1301.00,49.916
1302.00,49.953
1303.00,49.942
1304.00,49.928
1305.00,49.967
1306.00,49.949
1307.00,49.961
1308.00,49.978
1309.00,49.993
1310.00,50.007
1311.00,49.986
1312.00,50.000
1313.00,49.999
1314.00,50.010
1315.00,50.015
1316.00,50.033
1317.00,50.050
1318.00,50.046
1319.00,50.073
1320.00,50.068
1321.00,50.247
1322.00,50.229
1323.00,50.226
1324.00,50.209
1325.00,50.219
1326.00,50.226
1327.00,50.225
1328.00,50.237
1329.00,50.208
1330.00,50.266
1331.00,50.200
1332.00,50.239
1333.00,50.242
1334.00,50.273
1335.00,50.300
1336.00,50.324
1337.00,50.340
1338.00,50.396
1339.00,50.444
1340.00,50.499
1341.00,50.553
1342.00,50.624
1343.00,50.650
1344.00,50.707
1345.00,50.775
1346.00,50.813
1347.00,50.817
1348.00,50.872
1349.00,50.885
1350.00,50.906
1351.00,50.915
1352.00,50.928
1353.00,50.953
1354.00,50.923
1355.00,50.830
1356.00,50.949
1357.00,50.938
1358.00,50.998
1359.00,50.991
1360.00,50.950
1361.00,50.825
1362.00,50.965
1363.00,51.031
1364.00,50.989
1365.00,50.985
1366.00,51.046
1367.00,50.976
1368.00,50.997
1369.00,51.014
1370.00,51.029
1371.00,50.929
1372.00,50.989
1373.00,51.002
1374.00,51.015
1375.00,51.015
1376.00,50.988
1377.00,50.966
1378.00,51.206
1379.00,51.053
1380.00,51.048
1381.00,51.089
1382.00,51.041
1383.00,51.063
1384.00,50.992
1385.00,50.968
1386.00,51.011
1387.00,51.058
1388.00,50.966
1389.00,51.042
1390.00,50.981
1391.00,51.054
1392.00,51.041
1393.00,51.025
1394.00,51.002
1395.00,50.942
1396.00,50.955
1397.00,51.014
1398.00,51.080
1399.00,50.985
1400.00,50.993
1401.00,51.005
1402.00,51.034
1403.00,51.050
1404.00,51.038
1405.00,51.091
1406.00,51.073
1407.00,51.128
1408.00,51.087
1409.00,51.064
1410.00,51.091
1411.00,51.075
1412.00,51.172
1413.00,51.085
1414.00,51.049
1415.00,51.118
1416.00,51.199
1417.00,51.203
1418.00,51.161
1419.00,51.153
1420.00,51.176
1421.00,51.256
1422.00,51.233
1423.00,51.241
1424.00,51.239
1425.00,51.275
1426.00,51.286
1427.00,51.291
1428.00,51.266
1429.00,51.292
1430.00,51.322
1431.00,51.351
1432.00,51.383
1433.00,51.402
1434.00,51.384
1435.00,51.450
1436.00,51.465
1437.00,51.456
1438.00,51.471
1439.00,51.497
1440.00,51.505
1441.00,51.508
1442.00,51.531
1443.00,51.558
1444.00,51.647
1445.00,51.570
1446.00,51.601
1447.00,51.656
1448.00,51.692
1449.00,51.691
1450.00,51.684
1451.00,51.699
1452.00,51.724
1453.00,51.729
1454.00,51.759
1455.00,51.784
1456.00,51.788
1457.00,51.794
1458.00,51.837
1459.00,51.839
1460.00,51.871
1461.00,51.863
1462.00,51.902
1463.00,51.886
1464.00,51.916
1465.00,51.934
1466.00,51.929
1467.00,51.937
1468.00,52.006
1469.00,51.995
1470.00,52.032
1471.00,52.081
1472.00,52.060
1473.00,52.053
1474.00,52.092
1475.00,52.101
1476.00,52.127
1477.00,52.120
1478.00,52.144
1479.00,52.168
1480.00,52.167
1481.00,52.169
1482.00,52.205
1483.00,52.216
1484.00,52.240
1485.00,52.235
1486.00,52.248
1487.00,52.276
1488.00,52.298
1489.00,52.289
1490.00,52.316
1491.00,52.334
1492.00,52.362
1493.00,52.330
1494.00,52.372
1495.00,52.354
1496.00,52.380
1497.00,52.373
1498.00,52.390
1499.00,52.420
1500.00,52.436
1501.00, 
1502.00, 
1503.00, 
1504.00, 
1505.00, 
1506.00, 
1507.00, 
1508.00, 
1509.00, 
1510.00, 
1511.00, 
1512.00, 
1513.00, 
1514.00, 
1515.00, 
1516.00, 
1517.00, 
1518.00, 
1519.00, 
1520.00, 
1521.00, 
1522.00, 
1523.00, 
1524.00, 
1525.00, 
1526.00, 
1527.00, 
1528.00, 
1529.00, 
1530.00, 
1531.00, 
1532.00, 
1533.00, 
1534.00, 
1535.00, 
1536.00, 
1537.00, 
1538.00, 
1539.00, 
1540.00, 
1541.00, 
1542.00, 
1543.00, 
1544.00, 
1545.00, 
1546.00, 
1547.00, 
1548.00, 
1549.00, 
1550.00, 
1551.00, 
1552.00, 
1553.00, 
1554.00, 
1555.00, 
1556.00, 
1557.00, 
1558.00, 
1559.00, 
1560.00, 
1561.00, 
1562.00, 
1563.00, 
1564.00, 
1565.00, 
1566.00, 
1567.00, 
1568.00, 
1569.00, 
1570.00, 
1571.00, 
1572.00, 
1573.00, 
1574.00, 
1575.00, 
1576.00, 
1577.00, 
1578.00, 
1579.00, 
1580.00, 
1581.00, 
1582.00, 
1583.00, 
1584.00, 
1585.00, 
1586.00, 
1587.00, 
1588.00, 
1589.00, 
1590.00, 
1591.00, 
1592.00, 
1593.00, 
1594.00, 
1595.00, 
1596.00, 
1597.00, 
1598.00, 
1599.00, 
1600.00, 
1601.00, 
1602.00, 
1603.00, 
1604.00, 
1605.00, 
1606.00, 
1607.00, 
1608.00, 
1609.00, 
1610.00, 
1611.00, 
1612.00, 
1613.00, 
1614.00, 
1615.00, 
1616.00, 
1617.00, 
1618.00, 
1619.00, 
1620.00, 
1621.00, 
1622.00, 
1623.00, 
1624.00, 
1625.00, 
1626.00, 
1627.00, 
1628.00, 
1629.00, 
1630.00, 
1631.00, 
1632.00, 
1633.00, 
1634.00, 
1635.00, 
1636.00, 
1637.00, 
1638.00, 
1639.00, 
1640.00, 
1641.00, 
1642.00, 
1643.00, 
1644.00, 
1645.00, 
1646.00, 
1647.00, 
1648.00, 
1649.00, 
1650.00, 
1651.00, 
1652.00, 
1653.00, 
1654.00, 
1655.00, 
1656.00, 
1657.00, 
1658.00, 
1659.00, 
1660.00, 
1661.00, 
1662.00, 
1663.00, 
1664.00, 
1665.00, 
1666.00, 
1667.00, 
1668.00, 
1669.00, 
1670.00, 
1671.00, 
1672.00, 
1673.00, 
1674.00, 
1675.00, 
1676.00, 
1677.00, 
1678.00, 
1679.00, 
1680.00, 
1681.00, 
1682.00, 
1683.00, 
1684.00, 
1685.00, 
1686.00, 
1687.00, 
1688.00, 
1689.00, 
1690.00, 
1691.00, 
1692.00, 
1693.00, 
1694.00, 
1695.00, 
1696.00, 
1697.00, 
1698.00, 
1699.00, 
1700.00, 
1701.00, 
1702.00, 
1703.00, 
1704.00, 
1705.00, 
1706.00, 
1707.00, 
1708.00, 
1709.00, 
1710.00, 
1711.00, 
1712.00, 
1713.00, 
1714.00, 
1715.00, 
1716.00, 
1717.00, 
1718.00, 
1719.00, 
1720.00, 
1721.00, 
1722.00, 
1723.00, 
1724.00, 
1725.00, 
1726.00, 
1727.00, 
1728.00, 
1729.00, 
1730.00, 
1731.00, 
1732.00, 
1733.00, 
1734.00, 
1735.00, 
1736.00, 
1737.00, 
1738.00, 
1739.00, 
1740.00, 
1741.00, 
1742.00, 
1743.00, 
1744.00, 
1745.00, 
1746.00, 
1747.00, 
1748.00, 
1749.00, 
1750.00, 
1751.00, 
1752.00, 
1753.00, 
1754.00, 
1755.00, 
1756.00, 
1757.00, 
1758.00, 
1759.00, 
1760.00, 
1761.00, 
1762.00, 
1763.00, 
1764.00, 
1765.00, 
1766.00, 
1767.00, 
1768.00, 
1769.00, 
1770.00, 
1771.00, 
1772.00, 
1773.00, 
1774.00, 
1775.00, 
1776.00, 
1777.00, 
1778.00, 
1779.00, 
1780.00, 
1781.00, 
1782.00, 
1783.00, 
1784.00, 
1785.00, 
1786.00, 
1787.00, 
1788.00, 
1789.00, 
1790.00, 
1791.00, 
1792.00, 
1793.00, 
1794.00, 
1795.00, 
1796.00, 
1797.00, 
1798.00, 
1799.00, 
1800.00, 
1801.00, 
1802.00, 
1803.00, 
1804.00, 
1805.00, 
1806.00, 
1807.00, 
1808.00, 
1809.00, 
1810.00, 
1811.00, 
1812.00, 
1813.00, 
1814.00, 
1815.00, 
1816.00, 
1817.00, 
1818.00, 
1819.00, 
1820.00, 
1821.00, 
1822.00, 
1823.00, 
1824.00, 
1825.00, 
1826.00, 
1827.00, 
1828.00, 
1829.00, 
1830.00, 
1831.00, 
1832.00, 
1833.00, 
1834.00, 
1835.00, 
1836.00, 
1837.00, 
1838.00, 
1839.00, 
1840.00, 
1841.00, 
1842.00, 
1843.00, 
1844.00, 
1845.00, 
1846.00, 
1847.00, 
1848.00, 
1849.00, 
1850.00, 
1851.00, 
1852.00, 
1853.00, 
1854.00, 
1855.00, 
1856.00, 
1857.00, 
1858.00, 
1859.00, 
1860.00, 
1861.00, 
1862.00, 
1863.00, 
1864.00, 
1865.00, 
1866.00, 
1867.00, 
1868.00, 
1869.00, 
1870.00, 
1871.00, 
1872.00, 
1873.00, 
1874.00, 
1875.00, 
1876.00, 
1877.00, 
1878.00, 
1879.00, 
1880.00, 
1881.00, 
1882.00, 
1883.00, 
1884.00, 
1885.00, 
1886.00, 
1887.00, 
1888.00, 
1889.00, 
1890.00, 
1891.00, 
1892.00, 
1893.00, 
1894.00, 
1895.00, 
1896.00, 
1897.00, 
1898.00, 
1899.00, 
1900.00, 
1901.00, 
1902.00, 
1903.00, 
1904.00, 
1905.00, 
1906.00, 
1907.00, 
1908.00, 
1909.00, 
1910.00, 
1911.00, 
1912.00, 
1913.00, 
1914.00, 
1915.00, 
1916.00, 
1917.00, 
1918.00, 
1919.00, 
1920.00, 
1921.00, 
1922.00, 
1923.00, 
1924.00, 
1925.00, 
1926.00, 
1927.00, 
1928.00, 
1929.00, 
1930.00, 
1931.00, 
1932.00, 
1933.00, 
1934.00, 
1935.00, 
1936.00, 
1937.00, 
1938.00, 
1939.00, 
1940.00, 
1941.00, 
1942.00, 
1943.00, 
1944.00, 
1945.00, 
1946.00, 
1947.00, 
1948.00, 
1949.00, 
1950.00, 
1951.00, 
1952.00, 
1953.00, 
1954.00, 
1955.00, 
1956.00, 
1957.00, 
1958.00, 
1959.00, 
1960.00, 
1961.00, 
1962.00, 
1963.00, 
1964.00, 
1965.00, 
1966.00, 
1967.00, 
1968.00, 
1969.00, 
1970.00, 
1971.00, 
1972.00, 
1973.00, 
1974.00, 
1975.00, 
1976.00, 
1977.00, 
1978.00, 
1979.00, 
1980.00, 
1981.00, 
1982.00, 
1983.00, 
1984.00, 
1985.00, 
1986.00, 
1987.00, 
1988.00, 
1989.00, 
1990.00, 
1991.00, 
1992.00, 
1993.00, 
1994.00, 
1995.00, 
1996.00, 
1997.00, 
1998.00, 
1999.00, 
2000.00, 
2001.00, 
2002.00, 
2003.00, 
2004.00, 
2005.00, 
2006.00, 
2007.00, 
2008.00, 
2009.00, 
2010.00, 
2011.00, 
2012.00, 
2013.00, 
2014.00, 
2015.00, 
2016.00, 
2017.00, 
2018.00, 
2019.00, 
2020.00, 
2021.00, 
2022.00, 
2023.00, 
2024.00, 
2025.00, 
2026.00, 
2027.00, 
2028.00, 
2029.00, 
2030.00, 
2031.00, 
2032.00, 
2033.00, 
2034.00, 
2035.00, 
2036.00, 
2037.00, 
2038.00, 
2039.00, 
2040.00, 
2041.00, 
2042.00, 
2043.00, 
2044.00, 
2045.00, 
2046.00, 
2047.00, 
2048.00, 
2049.00, 
2050.00, 
2051.00, 
2052.00, 
2053.00, 
2054.00, 
2055.00, 
2056.00, 
2057.00, 
2058.00, 
2059.00, 
2060.00, 
2061.00, 
2062.00, 
2063.00, 
2064.00, 
2065.00, 
2066.00, 
2067.00, 
2068.00, 
2069.00, 
2070.00, 
2071.00, 
2072.00, 
2073.00, 
2074.00, 
2075.00, 
2076.00, 
2077.00, 
2078.00, 
2079.00, 
2080.00, 
2081.00, 
2082.00, 
2083.00, 
2084.00, 
2085.00, 
2086.00, 
2087.00, 
2088.00, 
2089.00, 
2090.00, 
2091.00, 
2092.00, 
2093.00, 
2094.00, 
2095.00, 
2096.00, 
2097.00, 
2098.00, 
2099.00, 
2100.00, 
2101.00, 
2102.00, 
2103.00, 
2104.00, 
2105.00, 
2106.00, 
2107.00, 
2108.00, 
2109.00, 
2110.00, 
2111.00, 
2112.00, 
2113.00, 
2114.00, 
2115.00, 
2116.00, 
2117.00, 
2118.00, 
2119.00, 
2120.00, 
2121.00, 
2122.00, 
2123.00, 
2124.00, 
2125.00, 
2126.00, 
2127.00, 
2128.00, 
2129.00, 
2130.00, 
2131.00, 
2132.00, 
2133.00, 
2134.00, 
2135.00, 
2136.00, 
2137.00, 
2138.00, 
2139.00, 
2140.00, 
2141.00, 
2142.00, 
2143.00, 
2144.00, 
2145.00, 
2146.00, 
2147.00, 
2148.00, 
2149.00, 
2150.00, 
2151.00, 
2152.00, 
2153.00, 
2154.00, 
2155.00, 
2156.00, 
2157.00, 
2158.00, 
2159.00, 
2160.00, 
2161.00, 
2162.00, 
2163.00, 
2164.00, 
2165.00, 
2166.00, 
2167.00, 
2168.00, 
2169.00, 
2170.00, 
2171.00, 
2172.00, 
2173.00, 
2174.00, 
2175.00, 
2176.00, 
2177.00, 
2178.00, 
2179.00, 
2180.00, 
2181.00, 
2182.00, 
2183.00, 
2184.00, 
2185.00, 
2186.00, 
2187.00, 
2188.00, 
2189.00, 
2190.00, 
2191.00, 
2192.00, 
2193.00, 
2194.00, 
2195.00, 
2196.00, 
2197.00, 
2198.00, 
2199.00, 
2200.00, 
2201.00, 
2202.00, 
2203.00, 
2204.00, 
2205.00, 
2206.00, 
2207.00, 
2208.00, 
2209.00, 
2210.00, 
2211.00, 
2212.00, 
2213.00, 
2214.00, 
2215.00, 
2216.00, 
2217.00, 
2218.00, 
2219.00, 
2220.00, 
2221.00, 
2222.00, 
2223.00, 
2224.00, 
2225.00, 
2226.00, 
2227.00, 
2228.00, 
2229.00, 
2230.00, 
2231.00, 
2232.00, 
2233.00, 
2234.00, 
2235.00, 
2236.00, 
2237.00, 
2238.00, 
2239.00, 
2240.00, 
2241.00, 
2242.00, 
2243.00, 
2244.00, 
2245.00, 
2246.00, 
2247.00, 
2248.00, 
2249.00, 
2250.00, 
2251.00, 
2252.00, 
2253.00, 
2254.00, 
2255.00, 
2256.00, 
2257.00, 
2258.00, 
2259.00, 
2260.00, 
2261.00, 
2262.00, 
2263.00, 
2264.00, 
2265.00, 
2266.00, 
2267.00, 
2268.00, 
2269.00, 
2270.00, 
2271.00, 
2272.00, 
2273.00, 
2274.00, 
2275.00, 
2276.00, 
2277.00, 
2278.00, 
2279.00, 
2280.00, 
2281.00, 
2282.00, 
2283.00, 
2284.00, 
2285.00, 
2286.00, 
2287.00, 
2288.00, 
2289.00, 
2290.00, 
2291.00, 
2292.00, 
2293.00, 
2294.00, 
2295.00, 
2296.00, 
2297.00, 
2298.00, 
2299.00, 
2300.00, 
2301.00, 
2302.00, 
2303.00, 
2304.00, 
2305.00, 
2306.00, 
2307.00, 
2308.00, 
2309.00, 
2310.00, 
2311.00, 
2312.00, 
2313.00, 
2314.00, 
2315.00, 
2316.00, 
2317.00, 
2318.00, 
2319.00, 
2320.00, 
2321.00, 
2322.00, 
2323.00, 
2324.00, 
2325.00, 
2326.00, 
2327.00, 
2328.00, 
2329.00, 
2330.00, 
2331.00, 
2332.00, 
2333.00, 
2334.00, 
2335.00, 
2336.00, 
2337.00, 
2338.00, 
2339.00, 
2340.00, 
2341.00, 
2342.00, 
2343.00, 
2344.00, 
2345.00, 
2346.00, 
2347.00, 
2348.00, 
2349.00, 
2350.00, 
2351.00, 
2352.00, 
2353.00, 
2354.00, 
2355.00, 
2356.00, 
2357.00, 
2358.00, 
2359.00, 
2360.00, 
2361.00, 
2362.00, 
2363.00, 
2364.00, 
2365.00, 
2366.00, 
2367.00, 
2368.00, 
2369.00, 
2370.00, 
2371.00, 
2372.00, 
2373.00, 
2374.00, 
2375.00, 
2376.00, 
2377.00, 
2378.00, 
2379.00, 
2380.00, 
2381.00, 
2382.00, 
2383.00, 
2384.00, 
2385.00, 
2386.00, 
2387.00, 
2388.00, 
2389.00, 
2390.00, 
2391.00, 
2392.00, 
2393.00, 
2394.00, 
2395.00, 
2396.00, 
2397.00, 
2398.00, 
2399.00, 
2400.00, 
2401.00, 
2402.00, 
2403.00, 
2404.00, 
2405.00, 
2406.00, 
2407.00, 
2408.00, 
2409.00, 
2410.00, 
2411.00, 
2412.00, 
2413.00, 
2414.00, 
2415.00, 
2416.00, 
2417.00, 
2418.00, 
2419.00, 
2420.00, 
2421.00, 
2422.00, 
2423.00, 
2424.00, 
2425.00, 
2426.00, 
2427.00, 
2428.00, 
2429.00, 
2430.00, 
2431.00, 
2432.00, 
2433.00, 
2434.00, 
2435.00, 
2436.00, 
2437.00, 
2438.00, 
2439.00, 
2440.00, 
2441.00, 
2442.00, 
2443.00, 
2444.00, 
2445.00, 
2446.00, 
2447.00, 
2448.00, 
2449.00, 
2450.00, 
2451.00, 
2452.00, 
2453.00, 
2454.00, 
2455.00, 
2456.00, 
2457.00, 
2458.00, 
2459.00, 
2460.00, 
2461.00, 
2462.00, 
2463.00, 
2464.00, 
2465.00, 
2466.00, 
2467.00, 
2468.00, 
2469.00, 
2470.00, 
2471.00, 
2472.00, 
2473.00, 
2474.00, 
2475.00, 
2476.00, 
2477.00, 
2478.00, 
2479.00, 
2480.00, 
2481.00, 
2482.00, 
2483.00, 
2484.00, 
2485.00, 
2486.00, 
2487.00, 
2488.00, 
2489.00, 
2490.00, 
2491.00, 
2492.00, 
2493.00, 
2494.00, 
2495.00, 
2496.00, 
2497.00, 
2498.00, 
2499.00, 
2500.00, 
2501.00, 
2502.00, 
2503.00, 
2504.00, 
2505.00, 
2506.00, 
2507.00, 
2508.00, 
2509.00, 
2510.00, 
2511.00, 
2512.00, 
2513.00, 
2514.00, 
2515.00, 
2516.00, 
2517.00, 
2518.00, 
2519.00, 
2520.00, 
2521.00, 
2522.00, 
2523.00, 
2524.00, 
2525.00, 
2526.00, 
2527.00, 
2528.00, 
2529.00, 
2530.00, 
2531.00, 
2532.00, 
2533.00, 
2534.00, 
2535.00, 
2536.00, 
2537.00, 
2538.00, 
2539.00, 
2540.00, 
2541.00, 
2542.00, 
2543.00, 
2544.00, 
2545.00, 
2546.00, 
2547.00, 
2548.00, 
2549.00, 
2550.00, 
2551.00, 
2552.00, 
2553.00, 
2554.00, 
2555.00, 
2556.00, 
2557.00, 
2558.00, 
2559.00, 
2560.00, 
2561.00, 
2562.00, 
2563.00, 
2564.00, 
2565.00, 
2566.00, 
2567.00, 
2568.00, 
2569.00, 
2570.00, 
2571.00, 
2572.00, 
2573.00, 
2574.00, 
2575.00, 
2576.00, 
2577.00, 
2578.00, 
2579.00, 
2580.00, 
2581.00, 
2582.00, 
2583.00, 
2584.00, 
2585.00, 
2586.00, 
2587.00, 
2588.00, 
2589.00, 
2590.00, 
2591.00, 
2592.00, 
2593.00, 
2594.00, 
2595.00, 
2596.00, 
2597.00, 
2598.00, 
2599.00, 
2600.00, 
