"1cP5 - RawData"
"Wavelength nm.","T%"
200.00,0.002
201.00,-0.001
202.00,-0.000
203.00,0.005
204.00,0.001
205.00,0.001
206.00,0.002
207.00,-0.000
208.00,-0.003
209.00,0.005
210.00,0.002
211.00,0.001
212.00,0.002
213.00,0.003
214.00,-0.000
215.00,-0.000
216.00,-0.001
217.00,-0.001
218.00,0.004
219.00,0.002
220.00,-0.000
221.00,-0.001
222.00,-0.000
223.00,-0.000
224.00,0.002
225.00,-0.001
226.00,-0.001
227.00,-0.000
228.00,-0.001
229.00,-0.000
230.00,0.001
231.00,0.001
232.00,0.003
233.00,0.001
234.00,-0.002
235.00,0.001
236.00,-0.000
237.00,0.001
238.00,0.001
239.00,0.003
240.00,-0.000
241.00,0.003
242.00,0.001
243.00,0.000
244.00,-0.001
245.00,0.000
246.00,0.000
247.00,0.000
248.00,0.002
249.00,0.002
250.00,0.001
251.00,0.001
252.00,0.001
253.00,0.001
254.00,-0.001
255.00,0.003
256.00,0.001
257.00,0.001
258.00,0.000
259.00,0.001
260.00,-0.002
261.00,0.000
262.00,0.001
263.00,0.002
264.00,-0.001
265.00,0.001
266.00,0.001
267.00,0.000
268.00,0.000
269.00,-0.001
270.00,-0.001
271.00,-0.000
272.00,0.001
273.00,0.000
274.00,-0.000
275.00,0.001
276.00,-0.000
277.00,-0.002
278.00,-0.000
279.00,0.002
280.00,0.001
281.00,0.001
282.00,-0.000
283.00,-0.000
284.00,0.001
285.00,-0.001
286.00,0.000
287.00,0.002
288.00,0.001
289.00,-0.001
290.00,-0.000
291.00,0.001
292.00,0.001
293.00,-0.001
294.00,0.000
295.00,0.000
296.00,0.001
297.00,0.002
298.00,0.000
299.00,0.000
300.00,-0.001
301.00,0.001
302.00,-0.001
303.00,-0.000
304.00,-0.001
305.00,0.002
306.00,0.003
307.00,0.003
308.00,0.007
309.00,0.011
310.00,0.019
311.00,0.028
312.00,0.039
313.00,0.063
314.00,0.088
315.00,0.133
316.00,0.179
317.00,0.269
318.00,0.370
319.00,0.495
320.00,0.663
321.00,0.844
322.00,1.089
323.00,1.384
324.00,1.709
325.00,2.049
326.00,2.433
327.00,2.812
328.00,3.367
329.00,3.859
330.00,4.426
331.00,4.992
332.00,5.633
333.00,6.277
334.00,6.926
335.00,7.622
336.00,8.284
337.00,9.002
338.00,9.676
339.00,10.346
340.00,10.994
341.00,11.662
342.00,12.311
343.00,12.900
344.00,13.508
345.00,14.106
346.00,14.635
347.00,15.158
348.00,15.651
349.00,16.120
350.00,16.531
351.00,16.930
352.00,17.295
353.00,17.675
354.00,18.012
355.00,18.353
356.00,18.630
357.00,18.868
358.00,19.136
359.00,19.430
360.00,19.676
361.00,19.823
362.00,19.996
363.00,20.159
364.00,20.260
365.00,20.342
366.00,20.484
367.00,20.511
368.00,20.611
369.00,20.638
370.00,20.697
371.00,20.741
372.00,20.696
373.00,20.664
374.00,20.646
375.00,20.644
376.00,20.522
377.00,20.483
378.00,20.348
379.00,20.274
380.00,20.253
381.00,20.235
382.00,20.222
383.00,20.235
384.00,20.267
385.00,20.328
386.00,20.345
387.00,20.443
388.00,20.540
389.00,20.544
390.00,20.615
391.00,20.578
392.00,20.654
393.00,20.628
394.00,20.705
395.00,20.753
396.00,20.717
397.00,20.725
398.00,20.726
399.00,20.708
400.00,20.749
401.00,20.732
402.00,20.729
403.00,20.697
404.00,20.678
405.00,20.682
406.00,20.627
407.00,20.617
408.00,20.633
409.00,20.569
410.00,20.496
411.00,20.537
412.00,20.485
413.00,20.502
414.00,20.478
415.00,20.464
416.00,20.509
417.00,20.479
418.00,20.514
419.00,20.569
420.00,20.627
421.00,20.629
422.00,20.632
423.00,20.683
424.00,20.745
425.00,20.753
426.00,20.786
427.00,20.851
428.00,20.872
429.00,20.922
430.00,20.973
431.00,21.014
432.00,21.036
433.00,21.088
434.00,21.125
435.00,21.238
436.00,21.300
437.00,21.360
438.00,21.465
439.00,21.548
440.00,21.563
441.00,21.612
442.00,21.695
443.00,21.791
444.00,21.872
445.00,21.964
446.00,22.062
447.00,22.171
448.00,22.255
449.00,22.369
450.00,22.464
451.00,22.546
452.00,22.625
453.00,22.813
454.00,22.904
455.00,23.029
456.00,23.201
457.00,23.258
458.00,23.320
459.00,23.489
460.00,23.610
461.00,23.762
462.00,23.870
463.00,24.005
464.00,24.130
465.00,24.269
466.00,24.433
467.00,24.577
468.00,24.627
469.00,24.779
470.00,24.874
471.00,24.976
472.00,25.099
473.00,25.203
474.00,25.304
475.00,25.452
476.00,25.543
477.00,25.683
478.00,25.792
479.00,25.981
480.00,26.142
481.00,26.194
482.00,26.398
483.00,26.475
484.00,26.709
485.00,26.881
486.00,27.028
487.00,27.194
488.00,27.292
489.00,27.480
490.00,27.602
491.00,27.739
492.00,28.000
493.00,28.127
494.00,28.143
495.00,28.326
496.00,28.433
497.00,28.538
498.00,28.651
499.00,28.856
500.00,29.018
501.00,29.097
502.00,29.265
503.00,29.415
504.00,29.469
505.00,29.580
506.00,29.733
507.00,29.807
508.00,29.936
509.00,30.095
510.00,30.236
511.00,30.281
512.00,30.469
513.00,30.631
514.00,30.741
515.00,30.884
516.00,31.012
517.00,31.092
518.00,31.250
519.00,31.318
520.00,31.344
521.00,31.472
522.00,31.568
523.00,31.673
524.00,31.759
525.00,31.845
526.00,31.988
527.00,32.054
528.00,32.084
529.00,32.322
530.00,32.421
531.00,32.570
532.00,32.626
533.00,32.741
534.00,32.800
535.00,32.917
536.00,33.001
537.00,33.075
538.00,33.168
539.00,33.187
540.00,33.324
541.00,33.358
542.00,33.399
543.00,33.469
544.00,33.548
545.00,33.611
546.00,33.673
547.00,33.755
548.00,33.887
549.00,33.939
550.00,33.950
551.00,34.121
552.00,34.158
553.00,34.182
554.00,34.342
555.00,34.319
556.00,34.422
557.00,34.501
558.00,34.528
559.00,34.578
560.00,34.594
561.00,34.724
562.00,34.784
563.00,34.734
564.00,34.879
565.00,34.883
566.00,34.891
567.00,34.874
568.00,34.962
569.00,35.017
570.00,35.090
571.00,35.200
572.00,35.211
573.00,35.185
574.00,35.226
575.00,35.251
576.00,35.225
577.00,35.289
578.00,35.402
579.00,35.488
580.00,35.484
581.00,35.624
582.00,35.701
583.00,35.691
584.00,35.812
585.00,35.875
586.00,35.894
587.00,35.986
588.00,35.966
589.00,35.973
590.00,36.058
591.00,36.079
592.00,36.062
593.00,36.103
594.00,36.223
595.00,36.247
596.00,36.289
597.00,36.381
598.00,36.409
599.00,36.419
600.00,36.461
601.00,36.526
602.00,36.573
603.00,36.628
604.00,36.647
605.00,36.693
606.00,36.718
607.00,36.744
608.00,36.942
609.00,36.997
610.00,36.852
611.00,36.939
612.00,36.989
613.00,37.062
614.00,37.089
615.00,37.153
616.00,37.273
617.00,37.282
618.00,37.240
619.00,37.355
620.00,37.407
621.00,37.441
622.00,37.506
623.00,37.566
624.00,37.679
625.00,37.684
626.00,37.754
627.00,37.851
628.00,37.838
629.00,37.845
630.00,37.928
631.00,37.996
632.00,38.072
633.00,38.191
634.00,38.248
635.00,38.306
636.00,38.475
637.00,38.437
638.00,38.496
639.00,38.505
640.00,38.629
641.00,38.698
642.00,38.782
643.00,38.919
644.00,38.954
645.00,39.013
646.00,39.247
647.00,39.229
648.00,39.389
649.00,39.416
650.00,39.361
651.00,39.533
652.00,39.589
653.00,39.574
654.00,39.683
655.00,39.842
656.00,40.081
657.00,40.130
658.00,40.177
659.00,40.309
660.00,40.390
661.00,40.376
662.00,40.385
663.00,40.509
664.00,40.807
665.00,40.977
666.00,40.835
667.00,40.985
668.00,41.032
669.00,41.219
670.00,41.483
671.00,41.469
672.00,41.491
673.00,41.610
674.00,41.681
675.00,41.687
676.00,41.948
677.00,42.120
678.00,41.992
679.00,42.068
680.00,42.216
681.00,42.454
682.00,42.447
683.00,42.535
684.00,42.750
685.00,42.780
686.00,42.585
687.00,42.827
688.00,42.979
689.00,43.041
690.00,43.286
691.00,43.557
692.00,43.291
693.00,43.265
694.00,43.391
695.00,43.692
696.00,43.794
697.00,43.778
698.00,43.827
699.00,44.154
700.00,44.084
701.00,44.159
702.00,44.239
703.00,44.527
704.00,44.585
705.00,44.524
706.00,44.700
707.00,44.636
708.00,44.453
709.00,44.893
710.00,45.255
711.00,44.899
712.00,45.016
713.00,45.082
714.00,45.229
715.00,45.260
716.00,45.255
717.00,45.377
718.00,45.504
719.00,45.635
720.00,45.623
721.00,50.053
722.00,50.088
723.00,50.138
724.00,50.095
725.00,50.157
726.00,50.183
727.00,50.217
728.00,50.116
729.00,50.233
730.00,50.357
731.00,50.333
732.00,50.384
733.00,50.394
734.00,50.407
735.00,50.501
736.00,50.503
737.00,50.573
738.00,50.646
739.00,50.684
740.00,50.688
741.00,50.694
742.00,50.822
743.00,50.759
744.00,50.737
745.00,50.778
746.00,50.841
747.00,50.886
748.00,50.853
749.00,50.836
750.00,50.873
751.00,50.806
752.00,50.791
753.00,50.916
754.00,50.874
755.00,50.888
756.00,50.987
757.00,50.921
758.00,50.995
759.00,50.987
760.00,50.952
761.00,51.001
762.00,50.961
763.00,51.105
764.00,51.054
765.00,51.034
766.00,51.103
767.00,51.053
768.00,51.127
769.00,51.084
770.00,51.280
771.00,51.133
772.00,51.184
773.00,51.146
774.00,51.192
775.00,51.231
776.00,51.227
777.00,51.225
778.00,51.169
779.00,51.345
780.00,51.257
781.00,51.310
782.00,51.242
783.00,51.227
784.00,51.267
785.00,51.191
786.00,51.196
787.00,51.256
788.00,51.273
789.00,51.272
790.00,51.257
791.00,51.263
792.00,51.214
793.00,51.224
794.00,51.198
795.00,51.165
796.00,51.228
797.00,51.145
798.00,51.174
799.00,51.082
800.00,51.142
801.00,51.072
802.00,51.022
803.00,51.041
804.00,51.026
805.00,51.086
806.00,51.080
807.00,51.060
808.00,50.999
809.00,51.003
810.00,51.060
811.00,50.984
812.00,50.986
813.00,51.007
814.00,50.906
815.00,50.940
816.00,50.973
817.00,50.901
818.00,50.794
819.00,50.882
820.00,50.867
821.00,50.850
822.00,50.860
823.00,50.789
824.00,50.817
825.00,50.703
826.00,50.810
827.00,50.874
828.00,50.792
829.00,50.790
830.00,50.824
831.00,53.156
832.00,53.122
833.00,53.076
834.00,53.074
835.00,53.053
836.00,53.028
837.00,52.998
838.00,53.012
839.00,53.006
840.00,53.009
841.00,53.002
842.00,52.975
843.00,52.970
844.00,52.942
845.00,52.839
846.00,52.882
847.00,52.851
848.00,52.887
849.00,52.786
850.00,52.768
851.00,52.716
852.00,52.724
853.00,52.692
854.00,52.656
855.00,52.617
856.00,52.595
857.00,52.592
858.00,52.541
859.00,52.533
860.00,52.552
861.00,52.550
862.00,52.526
863.00,52.506
864.00,52.439
865.00,52.507
866.00,52.477
867.00,52.488
868.00,52.458
869.00,52.458
870.00,52.443
871.00,52.435
872.00,52.419
873.00,52.380
874.00,52.423
875.00,52.360
876.00,52.384
877.00,52.366
878.00,52.388
879.00,52.338
880.00,52.317
881.00,52.325
882.00,52.372
883.00,52.202
884.00,52.238
885.00,52.239
886.00,52.257
887.00,52.183
888.00,52.170
889.00,52.179
890.00,52.180
891.00,52.114
892.00,52.098
893.00,52.022
894.00,52.172
895.00,52.072
896.00,52.030
897.00,52.020
898.00,52.009
899.00,51.982
900.00,51.976
901.00,51.987
902.00,51.992
903.00,51.937
904.00,51.929
905.00,51.915
906.00,51.914
907.00,51.894
908.00,51.852
909.00,51.824
910.00,51.904
911.00,51.803
912.00,51.794
913.00,51.788
914.00,51.636
915.00,51.745
916.00,51.681
917.00,51.672
918.00,51.686
919.00,51.631
920.00,51.607
921.00,51.612
922.00,51.628
923.00,51.600
924.00,51.538
925.00,51.538
926.00,51.528
927.00,51.514
928.00,51.458
929.00,51.507
930.00,51.445
931.00,51.440
932.00,51.381
933.00,51.428
934.00,51.396
935.00,51.378
936.00,51.340
937.00,51.309
938.00,51.222
939.00,51.299
940.00,51.254
941.00,51.245
942.00,51.222
943.00,51.209
944.00,51.187
945.00,51.188
946.00,51.199
947.00,51.126
948.00,51.130
949.00,51.095
950.00,51.070
951.00,51.050
952.00,51.041
953.00,51.001
954.00,50.989
955.00,50.946
956.00,50.936
957.00,50.912
958.00,50.920
959.00,50.849
960.00,50.859
961.00,50.837
962.00,50.842
963.00,50.789
964.00,50.794
965.00,50.798
966.00,50.769
967.00,50.779
968.00,50.744
969.00,50.770
970.00,50.743
971.00,50.739
972.00,50.698
973.00,50.763
974.00,50.759
975.00,50.761
976.00,50.772
977.00,50.748
978.00,50.783
979.00,50.728
980.00,50.739
981.00,50.754
982.00,50.699
983.00,50.735
984.00,50.719
985.00,50.730
986.00,50.703
987.00,50.716
988.00,50.675
989.00,50.666
990.00,50.674
991.00,50.663
992.00,50.651
993.00,50.623
994.00,50.603
995.00,50.596
996.00,50.581
997.00,50.562
998.00,50.538
999.00,50.559
1000.00,50.565
1001.00,50.514
1002.00,50.516
1003.00,50.494
1004.00,50.477
1005.00,50.461
1006.00,50.509
1007.00,50.478
1008.00,50.467
1009.00,50.434
1010.00,50.425
1011.00,50.416
1012.00,50.397
1013.00,50.386
1014.00,50.344
1015.00,50.366
1016.00,50.322
1017.00,50.318
1018.00,50.314
1019.00,50.281
1020.00,50.267
1021.00,50.247
1022.00,50.253
1023.00,50.206
1024.00,50.215
1025.00,50.173
1026.00,50.188
1027.00,50.152
1028.00,50.145
1029.00,50.135
1030.00,50.092
1031.00,50.118
1032.00,50.069
1033.00,50.071
1034.00,50.059
1035.00,50.036
1036.00,50.003
1037.00,49.997
1038.00,49.973
1039.00,49.943
1040.00,49.939
1041.00,49.901
1042.00,49.904
1043.00,49.881
1044.00,49.924
1045.00,49.905
1046.00,49.894
1047.00,49.922
1048.00,49.918
1049.00,49.932
1050.00,49.926
1051.00,49.966
1052.00,49.978
1053.00,49.981
1054.00,49.979
1055.00,50.005
1056.00,50.004
1057.00,49.993
1058.00,49.985
1059.00,49.970
1060.00,49.975
1061.00,50.000
1062.00,49.949
1063.00,49.960
1064.00,49.960
1065.00,49.940
1066.00,49.945
1067.00,49.937
1068.00,49.978
1069.00,49.930
1070.00,49.915
1071.00,49.889
1072.00,49.915
1073.00,49.904
1074.00,49.894
1075.00,49.894
1076.00,49.914
1077.00,49.872
1078.00,49.845
1079.00,49.852
1080.00,49.843
1081.00,49.814
1082.00,49.824
1083.00,49.825
1084.00,49.807
1085.00,49.815
1086.00,49.798
1087.00,49.798
1088.00,49.779
1089.00,49.778
1090.00,49.774
1091.00,49.777
1092.00,49.758
1093.00,49.751
1094.00,49.726
1095.00,49.706
1096.00,49.707
1097.00,49.706
1098.00,49.683
1099.00,49.675
1100.00,49.667
1101.00,49.678
1102.00,49.664
1103.00,49.652
1104.00,49.635
1105.00,49.641
1106.00,49.619
1107.00,49.626
1108.00,49.621
1109.00,49.622
1110.00,49.621
1111.00,49.602
1112.00,49.596
1113.00,49.580
1114.00,49.575
1115.00,49.589
1116.00,49.560
1117.00,49.555
1118.00,49.531
1119.00,49.527
1120.00,49.534
1121.00,49.550
1122.00,49.568
1123.00,49.515
1124.00,49.515
1125.00,49.507
1126.00,49.499
1127.00,49.507
1128.00,49.483
1129.00,49.468
1130.00,49.445
1131.00,49.461
1132.00,49.466
1133.00,49.434
1134.00,49.426
1135.00,49.451
1136.00,49.460
1137.00,49.464
1138.00,49.449
1139.00,49.458
1140.00,49.445
1141.00,49.445
1142.00,49.431
1143.00,49.452
1144.00,49.411
1145.00,49.420
1146.00,49.412
1147.00,49.391
1148.00,49.384
1149.00,49.405
1150.00,49.400
1151.00,49.401
1152.00,49.390
1153.00,49.404
1154.00,49.386
1155.00,49.392
1156.00,49.383
1157.00,49.393
1158.00,49.382
1159.00,49.380
1160.00,49.369
1161.00,49.384
1162.00,49.386
1163.00,49.383
1164.00,49.396
1165.00,49.387
1166.00,49.392
1167.00,49.377
1168.00,49.388
1169.00,49.381
1170.00,49.377
1171.00,49.370
1172.00,49.366
1173.00,49.364
1174.00,49.365
1175.00,49.364
1176.00,49.380
1177.00,49.357
1178.00,49.378
1179.00,49.377
1180.00,49.373
1181.00,49.376
1182.00,49.355
1183.00,49.379
1184.00,49.346
1185.00,49.370
1186.00,49.364
1187.00,49.366
1188.00,49.356
1189.00,49.359
1190.00,49.352
1191.00,49.342
1192.00,49.376
1193.00,49.368
1194.00,49.365
1195.00,49.338
1196.00,49.370
1197.00,49.379
1198.00,49.361
1199.00,49.365
1200.00,49.362
1201.00,49.385
1202.00,49.355
1203.00,49.351
1204.00,49.343
1205.00,49.357
1206.00,49.360
1207.00,49.360
1208.00,49.347
1209.00,49.370
1210.00,49.366
1211.00,49.360
1212.00,49.371
1213.00,49.337
1214.00,49.364
1215.00,49.342
1216.00,49.360
1217.00,49.366
1218.00,49.358
1219.00,49.372
1220.00,49.366
1221.00,49.376
1222.00,49.355
1223.00,49.391
1224.00,49.375
1225.00,49.363
1226.00,49.367
1227.00,49.363
1228.00,49.386
1229.00,49.364
1230.00,49.397
1231.00,49.399
1232.00,49.423
1233.00,49.436
1234.00,49.433
1235.00,49.427
1236.00,49.424
1237.00,49.438
1238.00,49.432
1239.00,49.437
1240.00,49.411
1241.00,49.422
1242.00,49.430
1243.00,49.439
1244.00,49.428
1245.00,49.449
1246.00,49.453
1247.00,49.437
1248.00,49.441
1249.00,49.457
1250.00,49.478
1251.00,49.466
1252.00,49.473
1253.00,49.475
1254.00,49.495
1255.00,49.486
1256.00,49.474
1257.00,49.457
1258.00,49.505
1259.00,49.487
1260.00,49.507
1261.00,49.514
1262.00,49.504
1263.00,49.514
1264.00,49.520
1265.00,49.539
1266.00,49.537
1267.00,49.559
1268.00,49.565
1269.00,49.550
1270.00,49.582
1271.00,49.578
1272.00,49.577
1273.00,49.595
1274.00,49.588
1275.00,49.605
1276.00,49.595
1277.00,49.596
1278.00,49.604
1279.00,49.617
1280.00,49.591
1281.00,49.610
1282.00,49.637
1283.00,49.635
1284.00,49.648
1285.00,49.626
1286.00,49.654
1287.00,49.647
1288.00,49.660
1289.00,49.645
1290.00,49.682
1291.00,49.674
1292.00,49.661
1293.00,49.665
1294.00,49.684
1295.00,49.707
1296.00,49.702
1297.00,49.718
1298.00,49.753
1299.00,49.718
1300.00,49.737
1301.00,49.725
1302.00,49.759
1303.00,49.757
1304.00,49.750
1305.00,49.783
1306.00,49.774
1307.00,49.775
1308.00,49.782
1309.00,49.805
1310.00,49.812
1311.00,49.782
1312.00,49.809
1313.00,49.813
1314.00,49.837
1315.00,49.859
1316.00,49.849
1317.00,49.882
1318.00,49.876
1319.00,49.889
1320.00,49.891
1321.00,50.068
1322.00,50.039
1323.00,50.046
1324.00,50.034
1325.00,50.009
1326.00,50.040
1327.00,50.016
1328.00,50.039
1329.00,50.023
1330.00,50.016
1331.00,50.036
1332.00,50.050
1333.00,50.046
1334.00,50.083
1335.00,50.119
1336.00,50.129
1337.00,50.197
1338.00,50.210
1339.00,50.275
1340.00,50.336
1341.00,50.370
1342.00,50.442
1343.00,50.469
1344.00,50.520
1345.00,50.591
1346.00,50.637
1347.00,50.639
1348.00,50.703
1349.00,50.703
1350.00,50.750
1351.00,50.724
1352.00,50.742
1353.00,50.797
1354.00,50.751
1355.00,50.704
1356.00,50.791
1357.00,50.768
1358.00,50.805
1359.00,50.809
1360.00,50.760
1361.00,50.807
1362.00,50.827
1363.00,50.852
1364.00,50.836
1365.00,50.828
1366.00,50.859
1367.00,50.815
1368.00,50.824
1369.00,50.849
1370.00,50.830
1371.00,50.758
1372.00,50.812
1373.00,50.803
1374.00,50.809
1375.00,50.818
1376.00,50.800
1377.00,50.753
1378.00,50.940
1379.00,50.855
1380.00,50.877
1381.00,50.929
1382.00,50.837
1383.00,50.893
1384.00,50.815
1385.00,50.789
1386.00,50.852
1387.00,50.840
1388.00,50.771
1389.00,50.819
1390.00,50.823
1391.00,50.844
1392.00,50.838
1393.00,50.783
1394.00,50.815
1395.00,50.740
1396.00,50.734
1397.00,50.825
1398.00,50.847
1399.00,50.754
1400.00,50.987
1401.00,50.781
1402.00,50.846
1403.00,50.826
1404.00,50.827
1405.00,50.864
1406.00,50.891
1407.00,50.834
1408.00,50.884
1409.00,50.848
1410.00,50.881
1411.00,50.867
1412.00,50.936
1413.00,50.895
1414.00,50.890
1415.00,50.882
1416.00,50.972
1417.00,50.992
1418.00,50.958
1419.00,50.949
1420.00,50.976
1421.00,51.047
1422.00,51.030
1423.00,51.042
1424.00,51.040
1425.00,51.079
1426.00,51.067
1427.00,51.115
1428.00,51.105
1429.00,51.114
1430.00,51.142
1431.00,51.162
1432.00,51.171
1433.00,51.202
1434.00,51.178
1435.00,51.240
1436.00,51.265
1437.00,51.229
1438.00,51.271
1439.00,51.304
1440.00,51.307
1441.00,51.325
1442.00,51.333
1443.00,51.373
1444.00,51.442
1445.00,51.343
1446.00,51.428
1447.00,51.450
1448.00,51.483
1449.00,51.492
1450.00,51.507
1451.00,51.511
1452.00,51.541
1453.00,51.534
1454.00,51.563
1455.00,51.599
1456.00,51.596
1457.00,51.582
1458.00,51.623
1459.00,51.633
1460.00,51.686
1461.00,51.665
1462.00,51.695
1463.00,51.711
1464.00,51.728
1465.00,51.739
1466.00,51.751
1467.00,51.747
1468.00,51.796
1469.00,51.784
1470.00,51.788
1471.00,51.852
1472.00,51.866
1473.00,51.884
1474.00,51.940
1475.00,51.926
1476.00,51.959
1477.00,51.931
1478.00,51.948
1479.00,51.966
1480.00,51.962
1481.00,51.959
1482.00,52.015
1483.00,52.024
1484.00,52.036
1485.00,52.044
1486.00,52.057
1487.00,52.070
1488.00,52.091
1489.00,52.082
1490.00,52.101
1491.00,52.108
1492.00,52.125
1493.00,52.117
1494.00,52.165
1495.00,52.151
1496.00,52.200
1497.00,52.189
1498.00,52.202
1499.00,52.242
1500.00,52.250
1501.00, 
1502.00, 
1503.00, 
1504.00, 
1505.00, 
1506.00, 
1507.00, 
1508.00, 
1509.00, 
1510.00, 
1511.00, 
1512.00, 
1513.00, 
1514.00, 
1515.00, 
1516.00, 
1517.00, 
1518.00, 
1519.00, 
1520.00, 
1521.00, 
1522.00, 
1523.00, 
1524.00, 
1525.00, 
1526.00, 
1527.00, 
1528.00, 
1529.00, 
1530.00, 
1531.00, 
1532.00, 
1533.00, 
1534.00, 
1535.00, 
1536.00, 
1537.00, 
1538.00, 
1539.00, 
1540.00, 
1541.00, 
1542.00, 
1543.00, 
1544.00, 
1545.00, 
1546.00, 
1547.00, 
1548.00, 
1549.00, 
1550.00, 
1551.00, 
1552.00, 
1553.00, 
1554.00, 
1555.00, 
1556.00, 
1557.00, 
1558.00, 
1559.00, 
1560.00, 
1561.00, 
1562.00, 
1563.00, 
1564.00, 
1565.00, 
1566.00, 
1567.00, 
1568.00, 
1569.00, 
1570.00, 
1571.00, 
1572.00, 
1573.00, 
1574.00, 
1575.00, 
1576.00, 
1577.00, 
1578.00, 
1579.00, 
1580.00, 
1581.00, 
1582.00, 
1583.00, 
1584.00, 
1585.00, 
1586.00, 
1587.00, 
1588.00, 
1589.00, 
1590.00, 
1591.00, 
1592.00, 
1593.00, 
1594.00, 
1595.00, 
1596.00, 
1597.00, 
1598.00, 
1599.00, 
1600.00, 
1601.00, 
1602.00, 
1603.00, 
1604.00, 
1605.00, 
1606.00, 
1607.00, 
1608.00, 
1609.00, 
1610.00, 
1611.00, 
1612.00, 
1613.00, 
1614.00, 
1615.00, 
1616.00, 
1617.00, 
1618.00, 
1619.00, 
1620.00, 
1621.00, 
1622.00, 
1623.00, 
1624.00, 
1625.00, 
1626.00, 
1627.00, 
1628.00, 
1629.00, 
1630.00, 
1631.00, 
1632.00, 
1633.00, 
1634.00, 
1635.00, 
1636.00, 
1637.00, 
1638.00, 
1639.00, 
1640.00, 
1641.00, 
1642.00, 
1643.00, 
1644.00, 
1645.00, 
1646.00, 
1647.00, 
1648.00, 
1649.00, 
1650.00, 
1651.00, 
1652.00, 
1653.00, 
1654.00, 
1655.00, 
1656.00, 
1657.00, 
1658.00, 
1659.00, 
1660.00, 
1661.00, 
1662.00, 
1663.00, 
1664.00, 
1665.00, 
1666.00, 
1667.00, 
1668.00, 
1669.00, 
1670.00, 
1671.00, 
1672.00, 
1673.00, 
1674.00, 
1675.00, 
1676.00, 
1677.00, 
1678.00, 
1679.00, 
1680.00, 
1681.00, 
1682.00, 
1683.00, 
1684.00, 
1685.00, 
1686.00, 
1687.00, 
1688.00, 
1689.00, 
1690.00, 
1691.00, 
1692.00, 
1693.00, 
1694.00, 
1695.00, 
1696.00, 
1697.00, 
1698.00, 
1699.00, 
1700.00, 
1701.00, 
1702.00, 
1703.00, 
1704.00, 
1705.00, 
1706.00, 
1707.00, 
1708.00, 
1709.00, 
1710.00, 
1711.00, 
1712.00, 
1713.00, 
1714.00, 
1715.00, 
1716.00, 
1717.00, 
1718.00, 
1719.00, 
1720.00, 
1721.00, 
1722.00, 
1723.00, 
1724.00, 
1725.00, 
1726.00, 
1727.00, 
1728.00, 
1729.00, 
1730.00, 
1731.00, 
1732.00, 
1733.00, 
1734.00, 
1735.00, 
1736.00, 
1737.00, 
1738.00, 
1739.00, 
1740.00, 
1741.00, 
1742.00, 
1743.00, 
1744.00, 
1745.00, 
1746.00, 
1747.00, 
1748.00, 
1749.00, 
1750.00, 
1751.00, 
1752.00, 
1753.00, 
1754.00, 
1755.00, 
1756.00, 
1757.00, 
1758.00, 
1759.00, 
1760.00, 
1761.00, 
1762.00, 
1763.00, 
1764.00, 
1765.00, 
1766.00, 
1767.00, 
1768.00, 
1769.00, 
1770.00, 
1771.00, 
1772.00, 
1773.00, 
1774.00, 
1775.00, 
1776.00, 
1777.00, 
1778.00, 
1779.00, 
1780.00, 
1781.00, 
1782.00, 
1783.00, 
1784.00, 
1785.00, 
1786.00, 
1787.00, 
1788.00, 
1789.00, 
1790.00, 
1791.00, 
1792.00, 
1793.00, 
1794.00, 
1795.00, 
1796.00, 
1797.00, 
1798.00, 
1799.00, 
1800.00, 
1801.00, 
1802.00, 
1803.00, 
1804.00, 
1805.00, 
1806.00, 
1807.00, 
1808.00, 
1809.00, 
1810.00, 
1811.00, 
1812.00, 
1813.00, 
1814.00, 
1815.00, 
1816.00, 
1817.00, 
1818.00, 
1819.00, 
1820.00, 
1821.00, 
1822.00, 
1823.00, 
1824.00, 
1825.00, 
1826.00, 
1827.00, 
1828.00, 
1829.00, 
1830.00, 
1831.00, 
1832.00, 
1833.00, 
1834.00, 
1835.00, 
1836.00, 
1837.00, 
1838.00, 
1839.00, 
1840.00, 
1841.00, 
1842.00, 
1843.00, 
1844.00, 
1845.00, 
1846.00, 
1847.00, 
1848.00, 
1849.00, 
1850.00, 
1851.00, 
1852.00, 
1853.00, 
1854.00, 
1855.00, 
1856.00, 
1857.00, 
1858.00, 
1859.00, 
1860.00, 
1861.00, 
1862.00, 
1863.00, 
1864.00, 
1865.00, 
1866.00, 
1867.00, 
1868.00, 
1869.00, 
1870.00, 
1871.00, 
1872.00, 
1873.00, 
1874.00, 
1875.00, 
1876.00, 
1877.00, 
1878.00, 
1879.00, 
1880.00, 
1881.00, 
1882.00, 
1883.00, 
1884.00, 
1885.00, 
1886.00, 
1887.00, 
1888.00, 
1889.00, 
1890.00, 
1891.00, 
1892.00, 
1893.00, 
1894.00, 
1895.00, 
1896.00, 
1897.00, 
1898.00, 
1899.00, 
1900.00, 
1901.00, 
1902.00, 
1903.00, 
1904.00, 
1905.00, 
1906.00, 
1907.00, 
1908.00, 
1909.00, 
1910.00, 
1911.00, 
1912.00, 
1913.00, 
1914.00, 
1915.00, 
1916.00, 
1917.00, 
1918.00, 
1919.00, 
1920.00, 
1921.00, 
1922.00, 
1923.00, 
1924.00, 
1925.00, 
1926.00, 
1927.00, 
1928.00, 
1929.00, 
1930.00, 
1931.00, 
1932.00, 
1933.00, 
1934.00, 
1935.00, 
1936.00, 
1937.00, 
1938.00, 
1939.00, 
1940.00, 
1941.00, 
1942.00, 
1943.00, 
1944.00, 
1945.00, 
1946.00, 
1947.00, 
1948.00, 
1949.00, 
1950.00, 
1951.00, 
1952.00, 
1953.00, 
1954.00, 
1955.00, 
1956.00, 
1957.00, 
1958.00, 
1959.00, 
1960.00, 
1961.00, 
1962.00, 
1963.00, 
1964.00, 
1965.00, 
1966.00, 
1967.00, 
1968.00, 
1969.00, 
1970.00, 
1971.00, 
1972.00, 
1973.00, 
1974.00, 
1975.00, 
1976.00, 
1977.00, 
1978.00, 
1979.00, 
1980.00, 
1981.00, 
1982.00, 
1983.00, 
1984.00, 
1985.00, 
1986.00, 
1987.00, 
1988.00, 
1989.00, 
1990.00, 
1991.00, 
1992.00, 
1993.00, 
1994.00, 
1995.00, 
1996.00, 
1997.00, 
1998.00, 
1999.00, 
2000.00, 
2001.00, 
2002.00, 
2003.00, 
2004.00, 
2005.00, 
2006.00, 
2007.00, 
2008.00, 
2009.00, 
2010.00, 
2011.00, 
2012.00, 
2013.00, 
2014.00, 
2015.00, 
2016.00, 
2017.00, 
2018.00, 
2019.00, 
2020.00, 
2021.00, 
2022.00, 
2023.00, 
2024.00, 
2025.00, 
2026.00, 
2027.00, 
2028.00, 
2029.00, 
2030.00, 
2031.00, 
2032.00, 
2033.00, 
2034.00, 
2035.00, 
2036.00, 
2037.00, 
2038.00, 
2039.00, 
2040.00, 
2041.00, 
2042.00, 
2043.00, 
2044.00, 
2045.00, 
2046.00, 
2047.00, 
2048.00, 
2049.00, 
2050.00, 
2051.00, 
2052.00, 
2053.00, 
2054.00, 
2055.00, 
2056.00, 
2057.00, 
2058.00, 
2059.00, 
2060.00, 
2061.00, 
2062.00, 
2063.00, 
2064.00, 
2065.00, 
2066.00, 
2067.00, 
2068.00, 
2069.00, 
2070.00, 
2071.00, 
2072.00, 
2073.00, 
2074.00, 
2075.00, 
2076.00, 
2077.00, 
2078.00, 
2079.00, 
2080.00, 
2081.00, 
2082.00, 
2083.00, 
2084.00, 
2085.00, 
2086.00, 
2087.00, 
2088.00, 
2089.00, 
2090.00, 
2091.00, 
2092.00, 
2093.00, 
2094.00, 
2095.00, 
2096.00, 
2097.00, 
2098.00, 
2099.00, 
2100.00, 
2101.00, 
2102.00, 
2103.00, 
2104.00, 
2105.00, 
2106.00, 
2107.00, 
2108.00, 
2109.00, 
2110.00, 
2111.00, 
2112.00, 
2113.00, 
2114.00, 
2115.00, 
2116.00, 
2117.00, 
2118.00, 
2119.00, 
2120.00, 
2121.00, 
2122.00, 
2123.00, 
2124.00, 
2125.00, 
2126.00, 
2127.00, 
2128.00, 
2129.00, 
2130.00, 
2131.00, 
2132.00, 
2133.00, 
2134.00, 
2135.00, 
2136.00, 
2137.00, 
2138.00, 
2139.00, 
2140.00, 
2141.00, 
2142.00, 
2143.00, 
2144.00, 
2145.00, 
2146.00, 
2147.00, 
2148.00, 
2149.00, 
2150.00, 
2151.00, 
2152.00, 
2153.00, 
2154.00, 
2155.00, 
2156.00, 
2157.00, 
2158.00, 
2159.00, 
2160.00, 
2161.00, 
2162.00, 
2163.00, 
2164.00, 
2165.00, 
2166.00, 
2167.00, 
2168.00, 
2169.00, 
2170.00, 
2171.00, 
2172.00, 
2173.00, 
2174.00, 
2175.00, 
2176.00, 
2177.00, 
2178.00, 
2179.00, 
2180.00, 
2181.00, 
2182.00, 
2183.00, 
2184.00, 
2185.00, 
2186.00, 
2187.00, 
2188.00, 
2189.00, 
2190.00, 
2191.00, 
2192.00, 
2193.00, 
2194.00, 
2195.00, 
2196.00, 
2197.00, 
2198.00, 
2199.00, 
2200.00, 
2201.00, 
2202.00, 
2203.00, 
2204.00, 
2205.00, 
2206.00, 
2207.00, 
2208.00, 
2209.00, 
2210.00, 
2211.00, 
2212.00, 
2213.00, 
2214.00, 
2215.00, 
2216.00, 
2217.00, 
2218.00, 
2219.00, 
2220.00, 
2221.00, 
2222.00, 
2223.00, 
2224.00, 
2225.00, 
2226.00, 
2227.00, 
2228.00, 
2229.00, 
2230.00, 
2231.00, 
2232.00, 
2233.00, 
2234.00, 
2235.00, 
2236.00, 
2237.00, 
2238.00, 
2239.00, 
2240.00, 
2241.00, 
2242.00, 
2243.00, 
2244.00, 
2245.00, 
2246.00, 
2247.00, 
2248.00, 
2249.00, 
2250.00, 
2251.00, 
2252.00, 
2253.00, 
2254.00, 
2255.00, 
2256.00, 
2257.00, 
2258.00, 
2259.00, 
2260.00, 
2261.00, 
2262.00, 
2263.00, 
2264.00, 
2265.00, 
2266.00, 
2267.00, 
2268.00, 
2269.00, 
2270.00, 
2271.00, 
2272.00, 
2273.00, 
2274.00, 
2275.00, 
2276.00, 
2277.00, 
2278.00, 
2279.00, 
2280.00, 
2281.00, 
2282.00, 
2283.00, 
2284.00, 
2285.00, 
2286.00, 
2287.00, 
2288.00, 
2289.00, 
2290.00, 
2291.00, 
2292.00, 
2293.00, 
2294.00, 
2295.00, 
2296.00, 
2297.00, 
2298.00, 
2299.00, 
2300.00, 
2301.00, 
2302.00, 
2303.00, 
2304.00, 
2305.00, 
2306.00, 
2307.00, 
2308.00, 
2309.00, 
2310.00, 
2311.00, 
2312.00, 
2313.00, 
2314.00, 
2315.00, 
2316.00, 
2317.00, 
2318.00, 
2319.00, 
2320.00, 
2321.00, 
2322.00, 
2323.00, 
2324.00, 
2325.00, 
2326.00, 
2327.00, 
2328.00, 
2329.00, 
2330.00, 
2331.00, 
2332.00, 
2333.00, 
2334.00, 
2335.00, 
2336.00, 
2337.00, 
2338.00, 
2339.00, 
2340.00, 
2341.00, 
2342.00, 
2343.00, 
2344.00, 
2345.00, 
2346.00, 
2347.00, 
2348.00, 
2349.00, 
2350.00, 
2351.00, 
2352.00, 
2353.00, 
2354.00, 
2355.00, 
2356.00, 
2357.00, 
2358.00, 
2359.00, 
2360.00, 
2361.00, 
2362.00, 
2363.00, 
2364.00, 
2365.00, 
2366.00, 
2367.00, 
2368.00, 
2369.00, 
2370.00, 
2371.00, 
2372.00, 
2373.00, 
2374.00, 
2375.00, 
2376.00, 
2377.00, 
2378.00, 
2379.00, 
2380.00, 
2381.00, 
2382.00, 
2383.00, 
2384.00, 
2385.00, 
2386.00, 
2387.00, 
2388.00, 
2389.00, 
2390.00, 
2391.00, 
2392.00, 
2393.00, 
2394.00, 
2395.00, 
2396.00, 
2397.00, 
2398.00, 
2399.00, 
2400.00, 
2401.00, 
2402.00, 
2403.00, 
2404.00, 
2405.00, 
2406.00, 
2407.00, 
2408.00, 
2409.00, 
2410.00, 
2411.00, 
2412.00, 
2413.00, 
2414.00, 
2415.00, 
2416.00, 
2417.00, 
2418.00, 
2419.00, 
2420.00, 
2421.00, 
2422.00, 
2423.00, 
2424.00, 
2425.00, 
2426.00, 
2427.00, 
2428.00, 
2429.00, 
2430.00, 
2431.00, 
2432.00, 
2433.00, 
2434.00, 
2435.00, 
2436.00, 
2437.00, 
2438.00, 
2439.00, 
2440.00, 
2441.00, 
2442.00, 
2443.00, 
2444.00, 
2445.00, 
2446.00, 
2447.00, 
2448.00, 
2449.00, 
2450.00, 
2451.00, 
2452.00, 
2453.00, 
2454.00, 
2455.00, 
2456.00, 
2457.00, 
2458.00, 
2459.00, 
2460.00, 
2461.00, 
2462.00, 
2463.00, 
2464.00, 
2465.00, 
2466.00, 
2467.00, 
2468.00, 
2469.00, 
2470.00, 
2471.00, 
2472.00, 
2473.00, 
2474.00, 
2475.00, 
2476.00, 
2477.00, 
2478.00, 
2479.00, 
2480.00, 
2481.00, 
2482.00, 
2483.00, 
2484.00, 
2485.00, 
2486.00, 
2487.00, 
2488.00, 
2489.00, 
2490.00, 
2491.00, 
2492.00, 
2493.00, 
2494.00, 
2495.00, 
2496.00, 
2497.00, 
2498.00, 
2499.00, 
2500.00, 
2501.00, 
2502.00, 
2503.00, 
2504.00, 
2505.00, 
2506.00, 
2507.00, 
2508.00, 
2509.00, 
2510.00, 
2511.00, 
2512.00, 
2513.00, 
2514.00, 
2515.00, 
2516.00, 
2517.00, 
2518.00, 
2519.00, 
2520.00, 
2521.00, 
2522.00, 
2523.00, 
2524.00, 
2525.00, 
2526.00, 
2527.00, 
2528.00, 
2529.00, 
2530.00, 
2531.00, 
2532.00, 
2533.00, 
2534.00, 
2535.00, 
2536.00, 
2537.00, 
2538.00, 
2539.00, 
2540.00, 
2541.00, 
2542.00, 
2543.00, 
2544.00, 
2545.00, 
2546.00, 
2547.00, 
2548.00, 
2549.00, 
2550.00, 
2551.00, 
2552.00, 
2553.00, 
2554.00, 
2555.00, 
2556.00, 
2557.00, 
2558.00, 
2559.00, 
2560.00, 
2561.00, 
2562.00, 
2563.00, 
2564.00, 
2565.00, 
2566.00, 
2567.00, 
2568.00, 
2569.00, 
2570.00, 
2571.00, 
2572.00, 
2573.00, 
2574.00, 
2575.00, 
2576.00, 
2577.00, 
2578.00, 
2579.00, 
2580.00, 
2581.00, 
2582.00, 
2583.00, 
2584.00, 
2585.00, 
2586.00, 
2587.00, 
2588.00, 
2589.00, 
2590.00, 
2591.00, 
2592.00, 
2593.00, 
2594.00, 
2595.00, 
2596.00, 
2597.00, 
2598.00, 
2599.00, 
2600.00, 
