"2cP3 - RawData"
"Wavelength nm.","T%"
200.00,-0.000
201.00,-0.002
202.00,-0.000
203.00,0.003
204.00,0.002
205.00,0.000
206.00,0.003
207.00,-0.001
208.00,0.003
209.00,0.003
210.00,-0.003
211.00,0.001
212.00,-0.001
213.00,0.002
214.00,0.001
215.00,0.003
216.00,-0.000
217.00,-0.000
218.00,0.001
219.00,-0.000
220.00,0.002
221.00,0.002
222.00,0.003
223.00,0.001
224.00,0.004
225.00,-0.001
226.00,-0.001
227.00,-0.001
228.00,0.002
229.00,0.004
230.00,0.003
231.00,-0.001
232.00,-0.000
233.00,0.001
234.00,0.003
235.00,0.003
236.00,-0.001
237.00,-0.001
238.00,0.001
239.00,0.001
240.00,0.001
241.00,0.001
242.00,-0.000
243.00,-0.001
244.00,0.001
245.00,0.001
246.00,0.003
247.00,0.002
248.00,0.001
249.00,0.000
250.00,0.001
251.00,-0.001
252.00,0.001
253.00,-0.001
254.00,0.001
255.00,0.000
256.00,-0.001
257.00,-0.000
258.00,-0.000
259.00,0.001
260.00,0.000
261.00,-0.000
262.00,-0.001
263.00,-0.000
264.00,0.004
265.00,0.000
266.00,0.000
267.00,0.002
268.00,0.001
269.00,-0.001
270.00,0.001
271.00,-0.001
272.00,0.002
273.00,0.001
274.00,0.002
275.00,0.000
276.00,0.001
277.00,0.000
278.00,-0.001
279.00,0.000
280.00,0.002
281.00,-0.001
282.00,0.000
283.00,-0.001
284.00,-0.000
285.00,0.002
286.00,-0.001
287.00,0.002
288.00,0.000
289.00,-0.000
290.00,0.002
291.00,-0.001
292.00,-0.000
293.00,0.000
294.00,0.001
295.00,0.002
296.00,0.000
297.00,-0.000
298.00,0.001
299.00,0.002
300.00,0.003
301.00,0.005
302.00,0.003
303.00,0.009
304.00,0.014
305.00,0.021
306.00,0.032
307.00,0.047
308.00,0.074
309.00,0.115
310.00,0.161
311.00,0.216
312.00,0.293
313.00,0.402
314.00,0.536
315.00,0.693
316.00,0.886
317.00,1.120
318.00,1.381
319.00,1.703
320.00,2.074
321.00,2.481
322.00,2.965
323.00,3.423
324.00,4.039
325.00,4.582
326.00,5.182
327.00,5.868
328.00,6.540
329.00,7.233
330.00,7.975
331.00,8.751
332.00,9.527
333.00,10.312
334.00,11.088
335.00,11.904
336.00,12.653
337.00,13.421
338.00,14.210
339.00,14.925
340.00,15.663
341.00,16.393
342.00,17.078
343.00,17.763
344.00,18.384
345.00,18.951
346.00,19.466
347.00,20.069
348.00,20.568
349.00,21.093
350.00,21.531
351.00,21.942
352.00,22.372
353.00,22.761
354.00,23.128
355.00,23.456
356.00,23.827
357.00,24.114
358.00,24.425
359.00,24.679
360.00,24.938
361.00,25.120
362.00,25.353
363.00,25.464
364.00,25.733
365.00,25.889
366.00,26.060
367.00,26.170
368.00,26.236
369.00,26.378
370.00,26.429
371.00,26.502
372.00,26.542
373.00,26.546
374.00,26.562
375.00,26.592
376.00,26.569
377.00,26.509
378.00,26.476
379.00,26.431
380.00,26.428
381.00,26.474
382.00,26.419
383.00,26.501
384.00,26.460
385.00,26.600
386.00,26.640
387.00,26.728
388.00,26.795
389.00,26.820
390.00,26.908
391.00,26.922
392.00,26.952
393.00,26.992
394.00,27.020
395.00,27.055
396.00,27.043
397.00,27.080
398.00,27.083
399.00,27.102
400.00,27.106
401.00,27.119
402.00,27.153
403.00,27.126
404.00,27.153
405.00,27.073
406.00,27.164
407.00,27.120
408.00,27.112
409.00,27.069
410.00,27.036
411.00,27.046
412.00,27.019
413.00,26.999
414.00,27.004
415.00,27.043
416.00,27.048
417.00,27.043
418.00,27.143
419.00,27.113
420.00,27.136
421.00,27.214
422.00,27.242
423.00,27.226
424.00,27.288
425.00,27.300
426.00,27.358
427.00,27.371
428.00,27.424
429.00,27.483
430.00,27.504
431.00,27.517
432.00,27.589
433.00,27.601
434.00,27.696
435.00,27.802
436.00,27.810
437.00,27.918
438.00,27.984
439.00,28.107
440.00,28.049
441.00,28.107
442.00,28.172
443.00,28.253
444.00,28.346
445.00,28.387
446.00,28.481
447.00,28.597
448.00,28.646
449.00,28.760
450.00,28.852
451.00,28.958
452.00,29.056
453.00,29.148
454.00,29.259
455.00,29.359
456.00,29.502
457.00,29.538
458.00,29.622
459.00,29.728
460.00,29.838
461.00,29.929
462.00,30.076
463.00,30.138
464.00,30.246
465.00,30.378
466.00,30.479
467.00,30.592
468.00,30.688
469.00,30.805
470.00,30.882
471.00,30.988
472.00,31.091
473.00,31.158
474.00,31.242
475.00,31.359
476.00,31.445
477.00,31.548
478.00,31.656
479.00,31.795
480.00,31.942
481.00,32.065
482.00,32.170
483.00,32.295
484.00,32.425
485.00,32.596
486.00,32.683
487.00,32.870
488.00,32.962
489.00,33.081
490.00,33.173
491.00,33.264
492.00,33.570
493.00,33.627
494.00,33.673
495.00,33.801
496.00,33.849
497.00,34.020
498.00,34.131
499.00,34.310
500.00,34.394
501.00,34.506
502.00,34.624
503.00,34.739
504.00,34.843
505.00,34.938
506.00,35.067
507.00,35.167
508.00,35.267
509.00,35.348
510.00,35.501
511.00,35.607
512.00,35.663
513.00,35.801
514.00,35.930
515.00,36.051
516.00,36.121
517.00,36.213
518.00,36.391
519.00,36.390
520.00,36.515
521.00,36.566
522.00,36.643
523.00,36.750
524.00,36.831
525.00,36.949
526.00,37.018
527.00,37.152
528.00,37.191
529.00,37.306
530.00,37.391
531.00,37.479
532.00,37.574
533.00,37.669
534.00,37.732
535.00,37.818
536.00,37.892
537.00,37.948
538.00,38.033
539.00,38.080
540.00,38.163
541.00,38.164
542.00,38.193
543.00,38.343
544.00,38.386
545.00,38.544
546.00,38.597
547.00,38.701
548.00,38.785
549.00,38.811
550.00,38.926
551.00,39.017
552.00,39.126
553.00,39.170
554.00,39.251
555.00,39.326
556.00,39.385
557.00,39.454
558.00,39.493
559.00,39.520
560.00,39.574
561.00,39.669
562.00,39.773
563.00,39.719
564.00,39.795
565.00,39.860
566.00,39.868
567.00,39.890
568.00,39.940
569.00,39.964
570.00,39.901
571.00,40.062
572.00,40.124
573.00,40.080
574.00,40.195
575.00,40.209
576.00,40.159
577.00,40.356
578.00,40.414
579.00,40.492
580.00,40.554
581.00,40.658
582.00,40.727
583.00,40.796
584.00,40.891
585.00,40.932
586.00,40.974
587.00,41.076
588.00,41.101
589.00,41.157
590.00,41.193
591.00,41.198
592.00,41.241
593.00,41.249
594.00,41.304
595.00,41.376
596.00,41.401
597.00,41.442
598.00,41.514
599.00,41.541
600.00,41.655
601.00,41.677
602.00,41.719
603.00,41.783
604.00,41.802
605.00,41.892
606.00,41.923
607.00,41.958
608.00,42.044
609.00,42.043
610.00,42.027
611.00,42.091
612.00,42.115
613.00,42.207
614.00,42.153
615.00,42.185
616.00,42.322
617.00,42.300
618.00,42.436
619.00,42.454
620.00,42.485
621.00,42.540
622.00,42.582
623.00,42.662
624.00,42.705
625.00,42.776
626.00,42.793
627.00,42.870
628.00,42.919
629.00,42.969
630.00,42.991
631.00,43.029
632.00,43.087
633.00,43.158
634.00,43.192
635.00,43.266
636.00,43.378
637.00,43.405
638.00,43.494
639.00,43.556
640.00,43.557
641.00,43.653
642.00,43.622
643.00,43.768
644.00,43.815
645.00,43.888
646.00,44.024
647.00,43.996
648.00,44.112
649.00,44.247
650.00,44.144
651.00,44.246
652.00,44.279
653.00,44.333
654.00,44.393
655.00,44.482
656.00,44.520
657.00,44.744
658.00,44.759
659.00,44.779
660.00,44.875
661.00,44.795
662.00,44.980
663.00,45.073
664.00,45.200
665.00,45.266
666.00,45.305
667.00,45.308
668.00,45.458
669.00,45.632
670.00,45.566
671.00,45.569
672.00,45.677
673.00,45.538
674.00,45.835
675.00,45.792
676.00,45.812
677.00,46.063
678.00,45.965
679.00,45.999
680.00,46.122
681.00,46.128
682.00,46.226
683.00,46.351
684.00,46.528
685.00,46.516
686.00,46.470
687.00,46.600
688.00,46.707
689.00,46.699
690.00,46.858
691.00,46.904
692.00,46.769
693.00,46.788
694.00,46.877
695.00,46.995
696.00,47.044
697.00,47.117
698.00,47.202
699.00,47.284
700.00,47.374
701.00,47.393
702.00,47.498
703.00,47.591
704.00,47.589
705.00,47.682
706.00,47.876
707.00,47.737
708.00,47.674
709.00,47.874
710.00,48.078
711.00,47.829
712.00,47.926
713.00,48.002
714.00,48.038
715.00,48.013
716.00,48.093
717.00,48.124
718.00,48.190
719.00,48.280
720.00,48.278
721.00,52.566
722.00,52.636
723.00,52.591
724.00,52.544
725.00,52.514
726.00,52.572
727.00,52.512
728.00,52.469
729.00,52.506
730.00,52.632
731.00,52.619
732.00,52.612
733.00,52.587
734.00,52.699
735.00,52.639
736.00,52.665
737.00,52.667
738.00,52.710
739.00,52.733
740.00,52.660
741.00,52.683
742.00,52.703
743.00,52.726
744.00,52.694
745.00,52.670
746.00,52.689
747.00,52.685
748.00,52.690
749.00,52.600
750.00,52.622
751.00,52.580
752.00,52.559
753.00,52.580
754.00,52.517
755.00,52.583
756.00,52.577
757.00,52.577
758.00,52.506
759.00,52.579
760.00,52.532
761.00,52.568
762.00,52.566
763.00,52.560
764.00,52.617
765.00,52.531
766.00,52.551
767.00,52.422
768.00,52.585
769.00,52.504
770.00,52.601
771.00,52.539
772.00,52.528
773.00,52.493
774.00,52.514
775.00,52.539
776.00,52.591
777.00,52.524
778.00,52.553
779.00,52.490
780.00,52.524
781.00,52.543
782.00,52.534
783.00,52.531
784.00,52.495
785.00,52.471
786.00,52.354
787.00,52.505
788.00,52.466
789.00,52.371
790.00,52.432
791.00,52.387
792.00,52.318
793.00,52.304
794.00,52.350
795.00,52.260
796.00,52.316
797.00,52.249
798.00,52.270
799.00,52.212
800.00,52.170
801.00,52.186
802.00,52.141
803.00,52.103
804.00,52.150
805.00,52.116
806.00,52.098
807.00,52.078
808.00,52.058
809.00,51.988
810.00,52.018
811.00,52.029
812.00,51.964
813.00,51.992
814.00,51.967
815.00,51.893
816.00,51.919
817.00,51.825
818.00,51.787
819.00,51.790
820.00,51.804
821.00,51.818
822.00,51.787
823.00,51.758
824.00,51.678
825.00,51.726
826.00,51.806
827.00,51.786
828.00,51.696
829.00,51.611
830.00,51.604
831.00,54.175
832.00,54.194
833.00,54.165
834.00,54.134
835.00,54.077
836.00,54.061
837.00,54.070
838.00,54.045
839.00,53.997
840.00,54.003
841.00,53.995
842.00,53.975
843.00,53.951
844.00,53.946
845.00,53.863
846.00,53.902
847.00,53.918
848.00,53.826
849.00,53.796
850.00,53.740
851.00,53.689
852.00,53.686
853.00,53.676
854.00,53.626
855.00,53.588
856.00,53.586
857.00,53.541
858.00,53.503
859.00,53.462
860.00,53.493
861.00,53.463
862.00,53.432
863.00,53.430
864.00,53.361
865.00,53.389
866.00,53.336
867.00,53.354
868.00,53.352
869.00,53.329
870.00,53.313
871.00,53.318
872.00,53.289
873.00,53.262
874.00,53.264
875.00,53.249
876.00,53.260
877.00,53.224
878.00,53.196
879.00,53.162
880.00,53.147
881.00,53.143
882.00,53.148
883.00,53.115
884.00,53.094
885.00,53.069
886.00,53.058
887.00,53.027
888.00,53.002
889.00,52.979
890.00,52.971
891.00,52.942
892.00,52.928
893.00,52.901
894.00,52.904
895.00,52.878
896.00,52.844
897.00,52.808
898.00,52.803
899.00,52.778
900.00,52.793
901.00,52.760
902.00,52.774
903.00,52.710
904.00,52.706
905.00,52.695
906.00,52.665
907.00,52.650
908.00,52.642
909.00,52.642
910.00,52.595
911.00,52.576
912.00,52.598
913.00,52.517
914.00,52.526
915.00,52.480
916.00,52.462
917.00,52.450
918.00,52.422
919.00,52.404
920.00,52.364
921.00,52.360
922.00,52.339
923.00,52.333
924.00,52.325
925.00,52.269
926.00,52.286
927.00,52.263
928.00,52.210
929.00,52.196
930.00,52.184
931.00,52.167
932.00,52.128
933.00,52.153
934.00,52.122
935.00,52.086
936.00,52.084
937.00,52.057
938.00,52.037
939.00,52.033
940.00,51.995
941.00,51.985
942.00,51.949
943.00,51.935
944.00,51.966
945.00,51.907
946.00,51.900
947.00,51.853
948.00,51.846
949.00,51.822
950.00,51.810
951.00,51.795
952.00,51.755
953.00,51.709
954.00,51.700
955.00,51.678
956.00,51.665
957.00,51.627
958.00,51.639
959.00,51.602
960.00,51.576
961.00,51.547
962.00,51.557
963.00,51.501
964.00,51.494
965.00,51.478
966.00,51.481
967.00,51.481
968.00,51.445
969.00,51.485
970.00,51.437
971.00,51.441
972.00,51.413
973.00,51.449
974.00,51.462
975.00,51.462
976.00,51.488
977.00,51.443
978.00,51.474
979.00,51.442
980.00,51.458
981.00,51.451
982.00,51.402
983.00,51.436
984.00,51.440
985.00,51.430
986.00,51.403
987.00,51.416
988.00,51.387
989.00,51.358
990.00,51.370
991.00,51.346
992.00,51.347
993.00,51.319
994.00,51.302
995.00,51.304
996.00,51.277
997.00,51.268
998.00,51.244
999.00,51.269
1000.00,51.225
1001.00,51.231
1002.00,51.240
1003.00,51.210
1004.00,51.187
1005.00,51.164
1006.00,51.195
1007.00,51.148
1008.00,51.138
1009.00,51.122
1010.00,51.113
1011.00,51.098
1012.00,51.061
1013.00,51.085
1014.00,51.044
1015.00,51.046
1016.00,51.013
1017.00,51.006
1018.00,50.994
1019.00,50.951
1020.00,50.960
1021.00,50.971
1022.00,50.934
1023.00,50.893
1024.00,50.890
1025.00,50.860
1026.00,50.872
1027.00,50.851
1028.00,50.844
1029.00,50.808
1030.00,50.789
1031.00,50.790
1032.00,50.740
1033.00,50.756
1034.00,50.731
1035.00,50.701
1036.00,50.666
1037.00,50.654
1038.00,50.648
1039.00,50.601
1040.00,50.605
1041.00,50.559
1042.00,50.562
1043.00,50.530
1044.00,50.567
1045.00,50.544
1046.00,50.547
1047.00,50.545
1048.00,50.564
1049.00,50.597
1050.00,50.586
1051.00,50.610
1052.00,50.613
1053.00,50.627
1054.00,50.614
1055.00,50.630
1056.00,50.642
1057.00,50.650
1058.00,50.631
1059.00,50.636
1060.00,50.649
1061.00,50.674
1062.00,50.598
1063.00,50.616
1064.00,50.597
1065.00,50.576
1066.00,50.580
1067.00,50.569
1068.00,50.586
1069.00,50.545
1070.00,50.537
1071.00,50.524
1072.00,50.525
1073.00,50.488
1074.00,50.502
1075.00,50.491
1076.00,50.477
1077.00,50.464
1078.00,50.450
1079.00,50.447
1080.00,50.447
1081.00,50.445
1082.00,50.466
1083.00,50.420
1084.00,50.402
1085.00,50.407
1086.00,50.397
1087.00,50.387
1088.00,50.369
1089.00,50.364
1090.00,50.359
1091.00,50.351
1092.00,50.341
1093.00,50.329
1094.00,50.315
1095.00,50.304
1096.00,50.295
1097.00,50.284
1098.00,50.273
1099.00,50.263
1100.00,50.253
1101.00,50.233
1102.00,50.223
1103.00,50.218
1104.00,50.215
1105.00,50.186
1106.00,50.168
1107.00,50.174
1108.00,50.174
1109.00,50.167
1110.00,50.167
1111.00,50.144
1112.00,50.139
1113.00,50.126
1114.00,50.122
1115.00,50.133
1116.00,50.113
1117.00,50.096
1118.00,50.098
1119.00,50.099
1120.00,50.097
1121.00,50.089
1122.00,50.076
1123.00,50.055
1124.00,50.056
1125.00,50.041
1126.00,50.040
1127.00,50.035
1128.00,50.019
1129.00,50.008
1130.00,49.992
1131.00,49.984
1132.00,50.009
1133.00,49.942
1134.00,49.976
1135.00,49.952
1136.00,49.965
1137.00,49.963
1138.00,49.948
1139.00,49.951
1140.00,49.948
1141.00,49.923
1142.00,49.929
1143.00,49.939
1144.00,49.921
1145.00,49.933
1146.00,49.936
1147.00,49.918
1148.00,49.908
1149.00,49.892
1150.00,49.890
1151.00,49.905
1152.00,49.888
1153.00,49.881
1154.00,49.867
1155.00,49.871
1156.00,49.864
1157.00,49.878
1158.00,49.873
1159.00,49.868
1160.00,49.862
1161.00,49.874
1162.00,49.855
1163.00,49.852
1164.00,49.846
1165.00,49.835
1166.00,49.837
1167.00,49.827
1168.00,49.836
1169.00,49.827
1170.00,49.824
1171.00,49.794
1172.00,49.800
1173.00,49.786
1174.00,49.810
1175.00,49.813
1176.00,49.818
1177.00,49.808
1178.00,49.807
1179.00,49.812
1180.00,49.797
1181.00,49.818
1182.00,49.796
1183.00,49.782
1184.00,49.764
1185.00,49.796
1186.00,49.785
1187.00,49.795
1188.00,49.778
1189.00,49.778
1190.00,49.769
1191.00,49.763
1192.00,49.791
1193.00,49.770
1194.00,49.768
1195.00,49.740
1196.00,49.768
1197.00,49.765
1198.00,49.758
1199.00,49.765
1200.00,49.755
1201.00,49.768
1202.00,49.753
1203.00,49.770
1204.00,49.755
1205.00,49.767
1206.00,49.751
1207.00,49.765
1208.00,49.751
1209.00,49.744
1210.00,49.754
1211.00,49.740
1212.00,49.761
1213.00,49.725
1214.00,49.748
1215.00,49.730
1216.00,49.735
1217.00,49.747
1218.00,49.733
1219.00,49.745
1220.00,49.730
1221.00,49.735
1222.00,49.722
1223.00,49.737
1224.00,49.735
1225.00,49.723
1226.00,49.731
1227.00,49.713
1228.00,49.742
1229.00,49.733
1230.00,49.773
1231.00,49.772
1232.00,49.779
1233.00,49.771
1234.00,49.776
1235.00,49.764
1236.00,49.776
1237.00,49.768
1238.00,49.768
1239.00,49.774
1240.00,49.761
1241.00,49.774
1242.00,49.772
1243.00,49.793
1244.00,49.772
1245.00,49.786
1246.00,49.791
1247.00,49.792
1248.00,49.784
1249.00,49.787
1250.00,49.792
1251.00,49.795
1252.00,49.795
1253.00,49.799
1254.00,49.838
1255.00,49.809
1256.00,49.794
1257.00,49.775
1258.00,49.829
1259.00,49.810
1260.00,49.830
1261.00,49.834
1262.00,49.829
1263.00,49.822
1264.00,49.836
1265.00,49.837
1266.00,49.829
1267.00,49.838
1268.00,49.854
1269.00,49.852
1270.00,49.852
1271.00,49.856
1272.00,49.865
1273.00,49.875
1274.00,49.875
1275.00,49.875
1276.00,49.884
1277.00,49.888
1278.00,49.887
1279.00,49.888
1280.00,49.878
1281.00,49.888
1282.00,49.903
1283.00,49.892
1284.00,49.915
1285.00,49.891
1286.00,49.914
1287.00,49.897
1288.00,49.922
1289.00,49.908
1290.00,49.934
1291.00,49.931
1292.00,49.929
1293.00,49.912
1294.00,49.932
1295.00,49.939
1296.00,49.946
1297.00,49.954
1298.00,49.961
1299.00,49.953
1300.00,49.992
1301.00,49.968
1302.00,49.970
1303.00,49.983
1304.00,49.963
1305.00,49.980
1306.00,49.982
1307.00,49.997
1308.00,50.004
1309.00,50.017
1310.00,50.021
1311.00,50.012
1312.00,50.016
1313.00,50.013
1314.00,50.023
1315.00,50.019
1316.00,50.023
1317.00,50.048
1318.00,50.043
1319.00,50.053
1320.00,50.068
1321.00,50.236
1322.00,50.238
1323.00,50.229
1324.00,50.228
1325.00,50.196
1326.00,50.235
1327.00,50.201
1328.00,50.214
1329.00,50.211
1330.00,50.204
1331.00,50.229
1332.00,50.221
1333.00,50.211
1334.00,50.268
1335.00,50.281
1336.00,50.301
1337.00,50.331
1338.00,50.374
1339.00,50.420
1340.00,50.494
1341.00,50.531
1342.00,50.626
1343.00,50.640
1344.00,50.683
1345.00,50.784
1346.00,50.816
1347.00,50.832
1348.00,50.852
1349.00,50.901
1350.00,50.899
1351.00,50.925
1352.00,50.915
1353.00,50.949
1354.00,50.926
1355.00,50.843
1356.00,50.947
1357.00,50.922
1358.00,50.926
1359.00,50.940
1360.00,50.971
1361.00,50.887
1362.00,50.876
1363.00,50.957
1364.00,50.949
1365.00,50.948
1366.00,51.129
1367.00,50.897
1368.00,50.935
1369.00,50.936
1370.00,50.942
1371.00,50.874
1372.00,50.906
1373.00,50.893
1374.00,50.930
1375.00,50.909
1376.00,50.906
1377.00,50.850
1378.00,51.003
1379.00,50.920
1380.00,50.927
1381.00,50.930
1382.00,50.837
1383.00,50.905
1384.00,50.867
1385.00,50.835
1386.00,50.904
1387.00,50.864
1388.00,50.818
1389.00,50.896
1390.00,50.911
1391.00,50.857
1392.00,50.910
1393.00,50.942
1394.00,50.857
1395.00,50.802
1396.00,50.791
1397.00,50.971
1398.00,50.994
1399.00,50.838
1400.00,50.794
1401.00,50.892
1402.00,50.923
1403.00,50.898
1404.00,50.888
1405.00,50.944
1406.00,50.931
1407.00,50.962
1408.00,50.897
1409.00,50.879
1410.00,50.941
1411.00,50.971
1412.00,51.024
1413.00,50.916
1414.00,50.931
1415.00,51.002
1416.00,51.036
1417.00,51.041
1418.00,50.990
1419.00,50.980
1420.00,51.033
1421.00,51.039
1422.00,51.075
1423.00,51.063
1424.00,51.085
1425.00,51.071
1426.00,51.083
1427.00,51.116
1428.00,51.111
1429.00,51.106
1430.00,51.139
1431.00,51.144
1432.00,51.153
1433.00,51.210
1434.00,51.187
1435.00,51.240
1436.00,51.264
1437.00,51.248
1438.00,51.264
1439.00,51.289
1440.00,51.274
1441.00,51.297
1442.00,51.288
1443.00,51.339
1444.00,51.383
1445.00,51.335
1446.00,51.328
1447.00,51.413
1448.00,51.422
1449.00,51.428
1450.00,51.416
1451.00,51.421
1452.00,51.444
1453.00,51.466
1454.00,51.474
1455.00,51.521
1456.00,51.511
1457.00,51.516
1458.00,51.546
1459.00,51.562
1460.00,51.575
1461.00,51.585
1462.00,51.596
1463.00,51.616
1464.00,51.635
1465.00,51.643
1466.00,51.651
1467.00,51.656
1468.00,51.694
1469.00,51.704
1470.00,51.692
1471.00,51.734
1472.00,51.747
1473.00,51.718
1474.00,51.758
1475.00,51.766
1476.00,51.806
1477.00,51.813
1478.00,51.813
1479.00,51.829
1480.00,51.844
1481.00,51.831
1482.00,51.866
1483.00,51.865
1484.00,51.861
1485.00,51.896
1486.00,51.893
1487.00,51.902
1488.00,51.929
1489.00,51.915
1490.00,51.927
1491.00,51.945
1492.00,51.960
1493.00,51.956
1494.00,51.964
1495.00,51.960
1496.00,51.991
1497.00,52.013
1498.00,52.001
1499.00,52.040
1500.00,52.046
1501.00, 
1502.00, 
1503.00, 
1504.00, 
1505.00, 
1506.00, 
1507.00, 
1508.00, 
1509.00, 
1510.00, 
1511.00, 
1512.00, 
1513.00, 
1514.00, 
1515.00, 
1516.00, 
1517.00, 
1518.00, 
1519.00, 
1520.00, 
1521.00, 
1522.00, 
1523.00, 
1524.00, 
1525.00, 
1526.00, 
1527.00, 
1528.00, 
1529.00, 
1530.00, 
1531.00, 
1532.00, 
1533.00, 
1534.00, 
1535.00, 
1536.00, 
1537.00, 
1538.00, 
1539.00, 
1540.00, 
1541.00, 
1542.00, 
1543.00, 
1544.00, 
1545.00, 
1546.00, 
1547.00, 
1548.00, 
1549.00, 
1550.00, 
1551.00, 
1552.00, 
1553.00, 
1554.00, 
1555.00, 
1556.00, 
1557.00, 
1558.00, 
1559.00, 
1560.00, 
1561.00, 
1562.00, 
1563.00, 
1564.00, 
1565.00, 
1566.00, 
1567.00, 
1568.00, 
1569.00, 
1570.00, 
1571.00, 
1572.00, 
1573.00, 
1574.00, 
1575.00, 
1576.00, 
1577.00, 
1578.00, 
1579.00, 
1580.00, 
1581.00, 
1582.00, 
1583.00, 
1584.00, 
1585.00, 
1586.00, 
1587.00, 
1588.00, 
1589.00, 
1590.00, 
1591.00, 
1592.00, 
1593.00, 
1594.00, 
1595.00, 
1596.00, 
1597.00, 
1598.00, 
1599.00, 
1600.00, 
1601.00, 
1602.00, 
1603.00, 
1604.00, 
1605.00, 
1606.00, 
1607.00, 
1608.00, 
1609.00, 
1610.00, 
1611.00, 
1612.00, 
1613.00, 
1614.00, 
1615.00, 
1616.00, 
1617.00, 
1618.00, 
1619.00, 
1620.00, 
1621.00, 
1622.00, 
1623.00, 
1624.00, 
1625.00, 
1626.00, 
1627.00, 
1628.00, 
1629.00, 
1630.00, 
1631.00, 
1632.00, 
1633.00, 
1634.00, 
1635.00, 
1636.00, 
1637.00, 
1638.00, 
1639.00, 
1640.00, 
1641.00, 
1642.00, 
1643.00, 
1644.00, 
1645.00, 
1646.00, 
1647.00, 
1648.00, 
1649.00, 
1650.00, 
1651.00, 
1652.00, 
1653.00, 
1654.00, 
1655.00, 
1656.00, 
1657.00, 
1658.00, 
1659.00, 
1660.00, 
1661.00, 
1662.00, 
1663.00, 
1664.00, 
1665.00, 
1666.00, 
1667.00, 
1668.00, 
1669.00, 
1670.00, 
1671.00, 
1672.00, 
1673.00, 
1674.00, 
1675.00, 
1676.00, 
1677.00, 
1678.00, 
1679.00, 
1680.00, 
1681.00, 
1682.00, 
1683.00, 
1684.00, 
1685.00, 
1686.00, 
1687.00, 
1688.00, 
1689.00, 
1690.00, 
1691.00, 
1692.00, 
1693.00, 
1694.00, 
1695.00, 
1696.00, 
1697.00, 
1698.00, 
1699.00, 
1700.00, 
1701.00, 
1702.00, 
1703.00, 
1704.00, 
1705.00, 
1706.00, 
1707.00, 
1708.00, 
1709.00, 
1710.00, 
1711.00, 
1712.00, 
1713.00, 
1714.00, 
1715.00, 
1716.00, 
1717.00, 
1718.00, 
1719.00, 
1720.00, 
1721.00, 
1722.00, 
1723.00, 
1724.00, 
1725.00, 
1726.00, 
1727.00, 
1728.00, 
1729.00, 
1730.00, 
1731.00, 
1732.00, 
1733.00, 
1734.00, 
1735.00, 
1736.00, 
1737.00, 
1738.00, 
1739.00, 
1740.00, 
1741.00, 
1742.00, 
1743.00, 
1744.00, 
1745.00, 
1746.00, 
1747.00, 
1748.00, 
1749.00, 
1750.00, 
1751.00, 
1752.00, 
1753.00, 
1754.00, 
1755.00, 
1756.00, 
1757.00, 
1758.00, 
1759.00, 
1760.00, 
1761.00, 
1762.00, 
1763.00, 
1764.00, 
1765.00, 
1766.00, 
1767.00, 
1768.00, 
1769.00, 
1770.00, 
1771.00, 
1772.00, 
1773.00, 
1774.00, 
1775.00, 
1776.00, 
1777.00, 
1778.00, 
1779.00, 
1780.00, 
1781.00, 
1782.00, 
1783.00, 
1784.00, 
1785.00, 
1786.00, 
1787.00, 
1788.00, 
1789.00, 
1790.00, 
1791.00, 
1792.00, 
1793.00, 
1794.00, 
1795.00, 
1796.00, 
1797.00, 
1798.00, 
1799.00, 
1800.00, 
1801.00, 
1802.00, 
1803.00, 
1804.00, 
1805.00, 
1806.00, 
1807.00, 
1808.00, 
1809.00, 
1810.00, 
1811.00, 
1812.00, 
1813.00, 
1814.00, 
1815.00, 
1816.00, 
1817.00, 
1818.00, 
1819.00, 
1820.00, 
1821.00, 
1822.00, 
1823.00, 
1824.00, 
1825.00, 
1826.00, 
1827.00, 
1828.00, 
1829.00, 
1830.00, 
1831.00, 
1832.00, 
1833.00, 
1834.00, 
1835.00, 
1836.00, 
1837.00, 
1838.00, 
1839.00, 
1840.00, 
1841.00, 
1842.00, 
1843.00, 
1844.00, 
1845.00, 
1846.00, 
1847.00, 
1848.00, 
1849.00, 
1850.00, 
1851.00, 
1852.00, 
1853.00, 
1854.00, 
1855.00, 
1856.00, 
1857.00, 
1858.00, 
1859.00, 
1860.00, 
1861.00, 
1862.00, 
1863.00, 
1864.00, 
1865.00, 
1866.00, 
1867.00, 
1868.00, 
1869.00, 
1870.00, 
1871.00, 
1872.00, 
1873.00, 
1874.00, 
1875.00, 
1876.00, 
1877.00, 
1878.00, 
1879.00, 
1880.00, 
1881.00, 
1882.00, 
1883.00, 
1884.00, 
1885.00, 
1886.00, 
1887.00, 
1888.00, 
1889.00, 
1890.00, 
1891.00, 
1892.00, 
1893.00, 
1894.00, 
1895.00, 
1896.00, 
1897.00, 
1898.00, 
1899.00, 
1900.00, 
1901.00, 
1902.00, 
1903.00, 
1904.00, 
1905.00, 
1906.00, 
1907.00, 
1908.00, 
1909.00, 
1910.00, 
1911.00, 
1912.00, 
1913.00, 
1914.00, 
1915.00, 
1916.00, 
1917.00, 
1918.00, 
1919.00, 
1920.00, 
1921.00, 
1922.00, 
1923.00, 
1924.00, 
1925.00, 
1926.00, 
1927.00, 
1928.00, 
1929.00, 
1930.00, 
1931.00, 
1932.00, 
1933.00, 
1934.00, 
1935.00, 
1936.00, 
1937.00, 
1938.00, 
1939.00, 
1940.00, 
1941.00, 
1942.00, 
1943.00, 
1944.00, 
1945.00, 
1946.00, 
1947.00, 
1948.00, 
1949.00, 
1950.00, 
1951.00, 
1952.00, 
1953.00, 
1954.00, 
1955.00, 
1956.00, 
1957.00, 
1958.00, 
1959.00, 
1960.00, 
1961.00, 
1962.00, 
1963.00, 
1964.00, 
1965.00, 
1966.00, 
1967.00, 
1968.00, 
1969.00, 
1970.00, 
1971.00, 
1972.00, 
1973.00, 
1974.00, 
1975.00, 
1976.00, 
1977.00, 
1978.00, 
1979.00, 
1980.00, 
1981.00, 
1982.00, 
1983.00, 
1984.00, 
1985.00, 
1986.00, 
1987.00, 
1988.00, 
1989.00, 
1990.00, 
1991.00, 
1992.00, 
1993.00, 
1994.00, 
1995.00, 
1996.00, 
1997.00, 
1998.00, 
1999.00, 
2000.00, 
2001.00, 
2002.00, 
2003.00, 
2004.00, 
2005.00, 
2006.00, 
2007.00, 
2008.00, 
2009.00, 
2010.00, 
2011.00, 
2012.00, 
2013.00, 
2014.00, 
2015.00, 
2016.00, 
2017.00, 
2018.00, 
2019.00, 
2020.00, 
2021.00, 
2022.00, 
2023.00, 
2024.00, 
2025.00, 
2026.00, 
2027.00, 
2028.00, 
2029.00, 
2030.00, 
2031.00, 
2032.00, 
2033.00, 
2034.00, 
2035.00, 
2036.00, 
2037.00, 
2038.00, 
2039.00, 
2040.00, 
2041.00, 
2042.00, 
2043.00, 
2044.00, 
2045.00, 
2046.00, 
2047.00, 
2048.00, 
2049.00, 
2050.00, 
2051.00, 
2052.00, 
2053.00, 
2054.00, 
2055.00, 
2056.00, 
2057.00, 
2058.00, 
2059.00, 
2060.00, 
2061.00, 
2062.00, 
2063.00, 
2064.00, 
2065.00, 
2066.00, 
2067.00, 
2068.00, 
2069.00, 
2070.00, 
2071.00, 
2072.00, 
2073.00, 
2074.00, 
2075.00, 
2076.00, 
2077.00, 
2078.00, 
2079.00, 
2080.00, 
2081.00, 
2082.00, 
2083.00, 
2084.00, 
2085.00, 
2086.00, 
2087.00, 
2088.00, 
2089.00, 
2090.00, 
2091.00, 
2092.00, 
2093.00, 
2094.00, 
2095.00, 
2096.00, 
2097.00, 
2098.00, 
2099.00, 
2100.00, 
2101.00, 
2102.00, 
2103.00, 
2104.00, 
2105.00, 
2106.00, 
2107.00, 
2108.00, 
2109.00, 
2110.00, 
2111.00, 
2112.00, 
2113.00, 
2114.00, 
2115.00, 
2116.00, 
2117.00, 
2118.00, 
2119.00, 
2120.00, 
2121.00, 
2122.00, 
2123.00, 
2124.00, 
2125.00, 
2126.00, 
2127.00, 
2128.00, 
2129.00, 
2130.00, 
2131.00, 
2132.00, 
2133.00, 
2134.00, 
2135.00, 
2136.00, 
2137.00, 
2138.00, 
2139.00, 
2140.00, 
2141.00, 
2142.00, 
2143.00, 
2144.00, 
2145.00, 
2146.00, 
2147.00, 
2148.00, 
2149.00, 
2150.00, 
2151.00, 
2152.00, 
2153.00, 
2154.00, 
2155.00, 
2156.00, 
2157.00, 
2158.00, 
2159.00, 
2160.00, 
2161.00, 
2162.00, 
2163.00, 
2164.00, 
2165.00, 
2166.00, 
2167.00, 
2168.00, 
2169.00, 
2170.00, 
2171.00, 
2172.00, 
2173.00, 
2174.00, 
2175.00, 
2176.00, 
2177.00, 
2178.00, 
2179.00, 
2180.00, 
2181.00, 
2182.00, 
2183.00, 
2184.00, 
2185.00, 
2186.00, 
2187.00, 
2188.00, 
2189.00, 
2190.00, 
2191.00, 
2192.00, 
2193.00, 
2194.00, 
2195.00, 
2196.00, 
2197.00, 
2198.00, 
2199.00, 
2200.00, 
2201.00, 
2202.00, 
2203.00, 
2204.00, 
2205.00, 
2206.00, 
2207.00, 
2208.00, 
2209.00, 
2210.00, 
2211.00, 
2212.00, 
2213.00, 
2214.00, 
2215.00, 
2216.00, 
2217.00, 
2218.00, 
2219.00, 
2220.00, 
2221.00, 
2222.00, 
2223.00, 
2224.00, 
2225.00, 
2226.00, 
2227.00, 
2228.00, 
2229.00, 
2230.00, 
2231.00, 
2232.00, 
2233.00, 
2234.00, 
2235.00, 
2236.00, 
2237.00, 
2238.00, 
2239.00, 
2240.00, 
2241.00, 
2242.00, 
2243.00, 
2244.00, 
2245.00, 
2246.00, 
2247.00, 
2248.00, 
2249.00, 
2250.00, 
2251.00, 
2252.00, 
2253.00, 
2254.00, 
2255.00, 
2256.00, 
2257.00, 
2258.00, 
2259.00, 
2260.00, 
2261.00, 
2262.00, 
2263.00, 
2264.00, 
2265.00, 
2266.00, 
2267.00, 
2268.00, 
2269.00, 
2270.00, 
2271.00, 
2272.00, 
2273.00, 
2274.00, 
2275.00, 
2276.00, 
2277.00, 
2278.00, 
2279.00, 
2280.00, 
2281.00, 
2282.00, 
2283.00, 
2284.00, 
2285.00, 
2286.00, 
2287.00, 
2288.00, 
2289.00, 
2290.00, 
2291.00, 
2292.00, 
2293.00, 
2294.00, 
2295.00, 
2296.00, 
2297.00, 
2298.00, 
2299.00, 
2300.00, 
2301.00, 
2302.00, 
2303.00, 
2304.00, 
2305.00, 
2306.00, 
2307.00, 
2308.00, 
2309.00, 
2310.00, 
2311.00, 
2312.00, 
2313.00, 
2314.00, 
2315.00, 
2316.00, 
2317.00, 
2318.00, 
2319.00, 
2320.00, 
2321.00, 
2322.00, 
2323.00, 
2324.00, 
2325.00, 
2326.00, 
2327.00, 
2328.00, 
2329.00, 
2330.00, 
2331.00, 
2332.00, 
2333.00, 
2334.00, 
2335.00, 
2336.00, 
2337.00, 
2338.00, 
2339.00, 
2340.00, 
2341.00, 
2342.00, 
2343.00, 
2344.00, 
2345.00, 
2346.00, 
2347.00, 
2348.00, 
2349.00, 
2350.00, 
2351.00, 
2352.00, 
2353.00, 
2354.00, 
2355.00, 
2356.00, 
2357.00, 
2358.00, 
2359.00, 
2360.00, 
2361.00, 
2362.00, 
2363.00, 
2364.00, 
2365.00, 
2366.00, 
2367.00, 
2368.00, 
2369.00, 
2370.00, 
2371.00, 
2372.00, 
2373.00, 
2374.00, 
2375.00, 
2376.00, 
2377.00, 
2378.00, 
2379.00, 
2380.00, 
2381.00, 
2382.00, 
2383.00, 
2384.00, 
2385.00, 
2386.00, 
2387.00, 
2388.00, 
2389.00, 
2390.00, 
2391.00, 
2392.00, 
2393.00, 
2394.00, 
2395.00, 
2396.00, 
2397.00, 
2398.00, 
2399.00, 
2400.00, 
2401.00, 
2402.00, 
2403.00, 
2404.00, 
2405.00, 
2406.00, 
2407.00, 
2408.00, 
2409.00, 
2410.00, 
2411.00, 
2412.00, 
2413.00, 
2414.00, 
2415.00, 
2416.00, 
2417.00, 
2418.00, 
2419.00, 
2420.00, 
2421.00, 
2422.00, 
2423.00, 
2424.00, 
2425.00, 
2426.00, 
2427.00, 
2428.00, 
2429.00, 
2430.00, 
2431.00, 
2432.00, 
2433.00, 
2434.00, 
2435.00, 
2436.00, 
2437.00, 
2438.00, 
2439.00, 
2440.00, 
2441.00, 
2442.00, 
2443.00, 
2444.00, 
2445.00, 
2446.00, 
2447.00, 
2448.00, 
2449.00, 
2450.00, 
2451.00, 
2452.00, 
2453.00, 
2454.00, 
2455.00, 
2456.00, 
2457.00, 
2458.00, 
2459.00, 
2460.00, 
2461.00, 
2462.00, 
2463.00, 
2464.00, 
2465.00, 
2466.00, 
2467.00, 
2468.00, 
2469.00, 
2470.00, 
2471.00, 
2472.00, 
2473.00, 
2474.00, 
2475.00, 
2476.00, 
2477.00, 
2478.00, 
2479.00, 
2480.00, 
2481.00, 
2482.00, 
2483.00, 
2484.00, 
2485.00, 
2486.00, 
2487.00, 
2488.00, 
2489.00, 
2490.00, 
2491.00, 
2492.00, 
2493.00, 
2494.00, 
2495.00, 
2496.00, 
2497.00, 
2498.00, 
2499.00, 
2500.00, 
2501.00, 
2502.00, 
2503.00, 
2504.00, 
2505.00, 
2506.00, 
2507.00, 
2508.00, 
2509.00, 
2510.00, 
2511.00, 
2512.00, 
2513.00, 
2514.00, 
2515.00, 
2516.00, 
2517.00, 
2518.00, 
2519.00, 
2520.00, 
2521.00, 
2522.00, 
2523.00, 
2524.00, 
2525.00, 
2526.00, 
2527.00, 
2528.00, 
2529.00, 
2530.00, 
2531.00, 
2532.00, 
2533.00, 
2534.00, 
2535.00, 
2536.00, 
2537.00, 
2538.00, 
2539.00, 
2540.00, 
2541.00, 
2542.00, 
2543.00, 
2544.00, 
2545.00, 
2546.00, 
2547.00, 
2548.00, 
2549.00, 
2550.00, 
2551.00, 
2552.00, 
2553.00, 
2554.00, 
2555.00, 
2556.00, 
2557.00, 
2558.00, 
2559.00, 
2560.00, 
2561.00, 
2562.00, 
2563.00, 
2564.00, 
2565.00, 
2566.00, 
2567.00, 
2568.00, 
2569.00, 
2570.00, 
2571.00, 
2572.00, 
2573.00, 
2574.00, 
2575.00, 
2576.00, 
2577.00, 
2578.00, 
2579.00, 
2580.00, 
2581.00, 
2582.00, 
2583.00, 
2584.00, 
2585.00, 
2586.00, 
2587.00, 
2588.00, 
2589.00, 
2590.00, 
2591.00, 
2592.00, 
2593.00, 
2594.00, 
2595.00, 
2596.00, 
2597.00, 
2598.00, 
2599.00, 
2600.00, 
