"2bP2 - RawData"
"Wavelength nm.","T%"
200.00,0.000
201.00,-0.000
202.00,0.004
203.00,0.005
204.00,0.002
205.00,-0.000
206.00,-0.002
207.00,-0.002
208.00,0.002
209.00,0.003
210.00,-0.000
211.00,0.004
212.00,0.002
213.00,-0.001
214.00,0.003
215.00,0.003
216.00,-0.000
217.00,-0.001
218.00,0.001
219.00,-0.000
220.00,0.000
221.00,0.001
222.00,0.003
223.00,0.002
224.00,0.001
225.00,0.004
226.00,0.002
227.00,0.004
228.00,0.002
229.00,0.001
230.00,0.002
231.00,0.001
232.00,0.001
233.00,-0.001
234.00,0.000
235.00,-0.003
236.00,-0.001
237.00,0.000
238.00,0.002
239.00,0.001
240.00,-0.000
241.00,0.002
242.00,-0.000
243.00,0.003
244.00,-0.000
245.00,0.000
246.00,-0.001
247.00,-0.001
248.00,-0.000
249.00,-0.000
250.00,-0.000
251.00,0.001
252.00,0.001
253.00,-0.002
254.00,-0.001
255.00,0.002
256.00,0.001
257.00,-0.000
258.00,-0.001
259.00,-0.001
260.00,0.000
261.00,0.000
262.00,-0.001
263.00,-0.001
264.00,-0.001
265.00,-0.000
266.00,0.001
267.00,-0.001
268.00,0.001
269.00,0.000
270.00,0.001
271.00,0.000
272.00,0.000
273.00,-0.001
274.00,-0.001
275.00,0.000
276.00,0.000
277.00,-0.000
278.00,0.000
279.00,0.001
280.00,-0.001
281.00,-0.001
282.00,0.001
283.00,0.001
284.00,0.001
285.00,-0.001
286.00,-0.001
287.00,-0.001
288.00,0.000
289.00,0.001
290.00,0.001
291.00,-0.000
292.00,0.003
293.00,-0.000
294.00,-0.000
295.00,0.001
296.00,-0.002
297.00,0.000
298.00,0.001
299.00,0.002
300.00,0.001
301.00,0.004
302.00,0.002
303.00,0.004
304.00,0.009
305.00,0.016
306.00,0.023
307.00,0.035
308.00,0.059
309.00,0.087
310.00,0.124
311.00,0.160
312.00,0.224
313.00,0.300
314.00,0.400
315.00,0.527
316.00,0.671
317.00,0.840
318.00,1.047
319.00,1.277
320.00,1.546
321.00,1.854
322.00,2.197
323.00,2.599
324.00,3.009
325.00,3.418
326.00,3.874
327.00,4.344
328.00,4.872
329.00,5.367
330.00,5.917
331.00,6.446
332.00,6.998
333.00,7.595
334.00,8.163
335.00,8.747
336.00,9.311
337.00,9.899
338.00,10.488
339.00,10.976
340.00,11.477
341.00,11.958
342.00,12.461
343.00,12.902
344.00,13.368
345.00,13.852
346.00,14.232
347.00,14.608
348.00,15.004
349.00,15.286
350.00,15.626
351.00,15.940
352.00,16.166
353.00,16.435
354.00,16.675
355.00,16.918
356.00,17.126
357.00,17.310
358.00,17.513
359.00,17.710
360.00,17.855
361.00,17.954
362.00,18.098
363.00,18.230
364.00,18.320
365.00,18.369
366.00,18.458
367.00,18.548
368.00,18.526
369.00,18.607
370.00,18.646
371.00,18.649
372.00,18.672
373.00,18.654
374.00,18.636
375.00,18.634
376.00,18.596
377.00,18.536
378.00,18.472
379.00,18.417
380.00,18.415
381.00,18.409
382.00,18.377
383.00,18.402
384.00,18.411
385.00,18.423
386.00,18.411
387.00,18.470
388.00,18.506
389.00,18.481
390.00,18.530
391.00,18.541
392.00,18.504
393.00,18.522
394.00,18.520
395.00,18.557
396.00,18.538
397.00,18.542
398.00,18.553
399.00,18.544
400.00,18.540
401.00,18.553
402.00,18.532
403.00,18.543
404.00,18.523
405.00,18.511
406.00,18.512
407.00,18.504
408.00,18.498
409.00,18.433
410.00,18.414
411.00,18.408
412.00,18.383
413.00,18.429
414.00,18.396
415.00,18.422
416.00,18.444
417.00,18.447
418.00,18.481
419.00,18.538
420.00,18.565
421.00,18.603
422.00,18.624
423.00,18.658
424.00,18.702
425.00,18.720
426.00,18.770
427.00,18.820
428.00,18.857
429.00,18.903
430.00,18.977
431.00,19.016
432.00,19.063
433.00,19.119
434.00,19.161
435.00,19.271
436.00,19.310
437.00,19.401
438.00,19.468
439.00,19.581
440.00,19.580
441.00,19.662
442.00,19.735
443.00,19.815
444.00,19.930
445.00,20.002
446.00,20.126
447.00,20.225
448.00,20.278
449.00,20.440
450.00,20.527
451.00,20.620
452.00,20.740
453.00,20.841
454.00,20.960
455.00,21.043
456.00,21.230
457.00,21.293
458.00,21.411
459.00,21.555
460.00,21.650
461.00,21.792
462.00,21.901
463.00,22.061
464.00,22.176
465.00,22.315
466.00,22.455
467.00,22.603
468.00,22.701
469.00,22.798
470.00,22.929
471.00,23.047
472.00,23.165
473.00,23.266
474.00,23.383
475.00,23.505
476.00,23.632
477.00,23.773
478.00,23.895
479.00,24.056
480.00,24.230
481.00,24.347
482.00,24.505
483.00,24.653
484.00,24.814
485.00,24.974
486.00,25.107
487.00,25.286
488.00,25.423
489.00,25.608
490.00,25.745
491.00,25.860
492.00,26.090
493.00,26.239
494.00,26.273
495.00,26.413
496.00,26.546
497.00,26.682
498.00,26.800
499.00,26.993
500.00,27.110
501.00,27.233
502.00,27.407
503.00,27.526
504.00,27.609
505.00,27.766
506.00,27.886
507.00,27.970
508.00,28.103
509.00,28.215
510.00,28.423
511.00,28.520
512.00,28.680
513.00,28.814
514.00,28.937
515.00,29.119
516.00,29.188
517.00,29.271
518.00,29.458
519.00,29.512
520.00,29.535
521.00,29.674
522.00,29.815
523.00,29.882
524.00,29.971
525.00,30.070
526.00,30.174
527.00,30.283
528.00,30.316
529.00,30.521
530.00,30.673
531.00,30.759
532.00,30.820
533.00,30.927
534.00,31.032
535.00,31.130
536.00,31.166
537.00,31.331
538.00,31.350
539.00,31.435
540.00,31.544
541.00,31.599
542.00,31.674
543.00,31.757
544.00,31.825
545.00,31.887
546.00,31.934
547.00,32.104
548.00,32.150
549.00,32.200
550.00,32.285
551.00,32.429
552.00,32.506
553.00,32.509
554.00,32.598
555.00,32.666
556.00,32.683
557.00,32.774
558.00,32.834
559.00,32.927
560.00,32.885
561.00,32.941
562.00,33.145
563.00,33.038
564.00,33.206
565.00,33.243
566.00,33.277
567.00,33.317
568.00,33.362
569.00,33.406
570.00,33.475
571.00,33.561
572.00,33.549
573.00,33.525
574.00,33.590
575.00,33.644
576.00,33.634
577.00,33.699
578.00,33.799
579.00,33.921
580.00,33.935
581.00,34.005
582.00,34.033
583.00,34.065
584.00,34.179
585.00,34.290
586.00,34.321
587.00,34.431
588.00,34.451
589.00,34.438
590.00,34.529
591.00,34.581
592.00,34.565
593.00,34.596
594.00,34.748
595.00,34.787
596.00,34.839
597.00,34.899
598.00,34.954
599.00,34.961
600.00,34.966
601.00,35.061
602.00,35.141
603.00,35.179
604.00,35.215
605.00,35.285
606.00,35.268
607.00,35.331
608.00,35.518
609.00,35.586
610.00,35.458
611.00,35.560
612.00,35.599
613.00,35.695
614.00,35.723
615.00,35.783
616.00,35.882
617.00,35.891
618.00,35.905
619.00,35.973
620.00,36.074
621.00,36.063
622.00,36.154
623.00,36.203
624.00,36.303
625.00,36.374
626.00,36.434
627.00,36.511
628.00,36.566
629.00,36.652
630.00,36.702
631.00,36.750
632.00,36.850
633.00,36.957
634.00,37.048
635.00,37.117
636.00,37.244
637.00,37.261
638.00,37.296
639.00,37.464
640.00,37.455
641.00,37.515
642.00,37.613
643.00,37.730
644.00,37.786
645.00,37.863
646.00,38.064
647.00,38.089
648.00,38.251
649.00,38.312
650.00,38.256
651.00,38.421
652.00,38.517
653.00,38.525
654.00,38.643
655.00,38.859
656.00,39.025
657.00,39.010
658.00,39.068
659.00,39.207
660.00,39.281
661.00,39.393
662.00,39.480
663.00,39.553
664.00,39.858
665.00,39.983
666.00,39.979
667.00,40.043
668.00,40.139
669.00,40.378
670.00,40.504
671.00,40.549
672.00,40.632
673.00,40.695
674.00,40.785
675.00,40.946
676.00,41.084
677.00,41.251
678.00,41.127
679.00,41.119
680.00,41.225
681.00,41.623
682.00,41.557
683.00,41.378
684.00,41.738
685.00,42.146
686.00,42.124
687.00,42.090
688.00,42.250
689.00,42.277
690.00,42.550
691.00,42.793
692.00,42.653
693.00,42.712
694.00,42.744
695.00,42.768
696.00,43.168
697.00,43.359
698.00,43.284
699.00,43.627
700.00,43.606
701.00,43.544
702.00,43.811
703.00,43.992
704.00,43.999
705.00,44.005
706.00,44.253
707.00,44.222
708.00,44.163
709.00,44.515
710.00,44.778
711.00,44.464
712.00,44.564
713.00,44.661
714.00,44.818
715.00,44.821
716.00,44.665
717.00,45.062
718.00,45.485
719.00,45.304
720.00,45.380
721.00,49.804
722.00,49.880
723.00,49.861
724.00,49.880
725.00,49.955
726.00,49.982
727.00,49.995
728.00,50.065
729.00,50.091
730.00,50.207
731.00,50.243
732.00,50.276
733.00,50.332
734.00,50.380
735.00,50.465
736.00,50.560
737.00,50.575
738.00,50.601
739.00,50.667
740.00,50.687
741.00,50.785
742.00,50.843
743.00,50.796
744.00,50.874
745.00,50.879
746.00,50.896
747.00,50.989
748.00,50.913
749.00,51.017
750.00,50.990
751.00,50.992
752.00,51.037
753.00,51.080
754.00,51.017
755.00,51.042
756.00,51.132
757.00,51.177
758.00,51.199
759.00,51.150
760.00,51.283
761.00,51.219
762.00,51.264
763.00,51.367
764.00,51.387
765.00,51.364
766.00,51.362
767.00,51.385
768.00,51.466
769.00,51.384
770.00,51.516
771.00,51.593
772.00,51.584
773.00,51.476
774.00,51.607
775.00,51.608
776.00,51.617
777.00,51.583
778.00,51.654
779.00,51.692
780.00,51.726
781.00,51.721
782.00,51.749
783.00,51.688
784.00,51.710
785.00,51.742
786.00,51.740
787.00,51.780
788.00,51.717
789.00,51.796
790.00,51.678
791.00,51.759
792.00,51.758
793.00,51.726
794.00,51.687
795.00,51.731
796.00,51.713
797.00,51.618
798.00,51.701
799.00,51.763
800.00,51.680
801.00,51.606
802.00,51.650
803.00,51.612
804.00,51.718
805.00,51.663
806.00,51.648
807.00,51.685
808.00,51.673
809.00,51.632
810.00,51.646
811.00,51.651
812.00,51.675
813.00,51.685
814.00,51.574
815.00,51.591
816.00,51.659
817.00,51.633
818.00,51.471
819.00,51.511
820.00,51.542
821.00,51.539
822.00,51.609
823.00,51.446
824.00,51.474
825.00,51.464
826.00,51.536
827.00,51.552
828.00,51.601
829.00,51.384
830.00,51.569
831.00,53.672
832.00,53.672
833.00,53.617
834.00,53.654
835.00,53.581
836.00,53.670
837.00,53.585
838.00,53.563
839.00,53.586
840.00,53.562
841.00,53.591
842.00,53.516
843.00,53.530
844.00,53.508
845.00,53.440
846.00,53.459
847.00,53.482
848.00,53.410
849.00,53.386
850.00,53.400
851.00,53.324
852.00,53.350
853.00,53.299
854.00,53.266
855.00,53.238
856.00,53.207
857.00,53.217
858.00,53.157
859.00,53.143
860.00,53.155
861.00,53.168
862.00,53.108
863.00,53.113
864.00,53.183
865.00,53.105
866.00,53.068
867.00,53.084
868.00,53.076
869.00,53.061
870.00,53.055
871.00,53.053
872.00,53.040
873.00,53.019
874.00,53.045
875.00,52.990
876.00,53.020
877.00,52.984
878.00,52.997
879.00,52.961
880.00,52.964
881.00,52.949
882.00,52.989
883.00,52.933
884.00,52.903
885.00,52.903
886.00,52.904
887.00,52.837
888.00,52.814
889.00,52.809
890.00,52.797
891.00,52.756
892.00,52.757
893.00,52.718
894.00,52.757
895.00,52.721
896.00,52.717
897.00,52.672
898.00,52.640
899.00,52.627
900.00,52.632
901.00,52.619
902.00,52.619
903.00,52.599
904.00,52.594
905.00,52.573
906.00,52.536
907.00,52.539
908.00,52.497
909.00,52.493
910.00,52.450
911.00,52.449
912.00,52.452
913.00,52.448
914.00,52.286
915.00,52.377
916.00,52.347
917.00,52.324
918.00,52.286
919.00,52.291
920.00,52.279
921.00,52.268
922.00,52.263
923.00,52.242
924.00,52.202
925.00,52.191
926.00,52.190
927.00,52.183
928.00,52.135
929.00,52.161
930.00,52.104
931.00,52.098
932.00,52.049
933.00,52.081
934.00,52.052
935.00,52.029
936.00,52.006
937.00,51.981
938.00,51.968
939.00,51.960
940.00,51.919
941.00,51.926
942.00,51.893
943.00,51.905
944.00,51.872
945.00,51.884
946.00,51.871
947.00,51.812
948.00,51.812
949.00,51.779
950.00,51.776
951.00,51.747
952.00,51.729
953.00,51.678
954.00,51.668
955.00,51.630
956.00,51.628
957.00,51.590
958.00,51.593
959.00,51.535
960.00,51.526
961.00,51.524
962.00,51.527
963.00,51.474
964.00,51.477
965.00,51.564
966.00,51.449
967.00,51.453
968.00,51.413
969.00,51.449
970.00,51.402
971.00,51.429
972.00,51.418
973.00,51.454
974.00,51.460
975.00,51.455
976.00,51.477
977.00,51.440
978.00,51.483
979.00,51.432
980.00,51.438
981.00,51.447
982.00,51.394
983.00,51.431
984.00,51.395
985.00,51.419
986.00,51.402
987.00,51.397
988.00,51.384
989.00,51.373
990.00,51.386
991.00,51.350
992.00,51.347
993.00,51.351
994.00,51.290
995.00,51.274
996.00,51.286
997.00,51.274
998.00,51.240
999.00,51.273
1000.00,51.237
1001.00,51.225
1002.00,51.229
1003.00,51.194
1004.00,51.180
1005.00,51.153
1006.00,51.197
1007.00,51.154
1008.00,51.152
1009.00,51.128
1010.00,51.116
1011.00,51.152
1012.00,51.074
1013.00,51.092
1014.00,51.057
1015.00,51.047
1016.00,51.021
1017.00,51.000
1018.00,51.007
1019.00,50.969
1020.00,50.973
1021.00,50.948
1022.00,50.954
1023.00,50.918
1024.00,50.883
1025.00,50.836
1026.00,50.865
1027.00,50.836
1028.00,50.835
1029.00,50.830
1030.00,50.793
1031.00,50.806
1032.00,50.772
1033.00,50.774
1034.00,50.769
1035.00,50.726
1036.00,50.699
1037.00,50.677
1038.00,50.666
1039.00,50.642
1040.00,50.617
1041.00,50.584
1042.00,50.572
1043.00,50.550
1044.00,50.583
1045.00,50.572
1046.00,50.569
1047.00,50.587
1048.00,50.587
1049.00,50.613
1050.00,50.600
1051.00,50.629
1052.00,50.631
1053.00,50.637
1054.00,50.646
1055.00,50.662
1056.00,50.679
1057.00,50.665
1058.00,50.656
1059.00,50.653
1060.00,50.666
1061.00,50.647
1062.00,50.623
1063.00,50.626
1064.00,50.620
1065.00,50.605
1066.00,50.601
1067.00,50.596
1068.00,50.613
1069.00,50.574
1070.00,50.551
1071.00,50.537
1072.00,50.557
1073.00,50.522
1074.00,50.532
1075.00,50.528
1076.00,50.513
1077.00,50.499
1078.00,50.481
1079.00,50.496
1080.00,50.503
1081.00,50.482
1082.00,50.494
1083.00,50.480
1084.00,50.452
1085.00,50.458
1086.00,50.446
1087.00,50.436
1088.00,50.422
1089.00,50.407
1090.00,50.393
1091.00,50.392
1092.00,50.374
1093.00,50.374
1094.00,50.353
1095.00,50.337
1096.00,50.323
1097.00,50.321
1098.00,50.319
1099.00,50.309
1100.00,50.293
1101.00,50.296
1102.00,50.303
1103.00,50.275
1104.00,50.273
1105.00,50.270
1106.00,50.247
1107.00,50.243
1108.00,50.234
1109.00,50.223
1110.00,50.225
1111.00,50.207
1112.00,50.202
1113.00,50.198
1114.00,50.187
1115.00,50.191
1116.00,50.177
1117.00,50.158
1118.00,50.147
1119.00,50.149
1120.00,50.130
1121.00,50.134
1122.00,50.122
1123.00,50.102
1124.00,50.106
1125.00,50.092
1126.00,50.091
1127.00,50.090
1128.00,50.059
1129.00,50.051
1130.00,50.031
1131.00,50.039
1132.00,50.043
1133.00,50.044
1134.00,50.029
1135.00,50.020
1136.00,50.011
1137.00,50.004
1138.00,50.006
1139.00,50.006
1140.00,49.996
1141.00,49.980
1142.00,49.964
1143.00,49.993
1144.00,49.959
1145.00,49.973
1146.00,49.969
1147.00,49.964
1148.00,49.963
1149.00,49.963
1150.00,49.975
1151.00,49.966
1152.00,49.949
1153.00,49.951
1154.00,49.942
1155.00,49.930
1156.00,49.923
1157.00,49.936
1158.00,49.921
1159.00,49.910
1160.00,49.910
1161.00,49.909
1162.00,49.909
1163.00,49.919
1164.00,49.919
1165.00,49.907
1166.00,49.922
1167.00,49.912
1168.00,49.915
1169.00,49.907
1170.00,49.900
1171.00,49.889
1172.00,49.882
1173.00,49.874
1174.00,49.884
1175.00,49.880
1176.00,49.883
1177.00,49.874
1178.00,49.887
1179.00,49.884
1180.00,49.874
1181.00,49.888
1182.00,49.886
1183.00,49.863
1184.00,49.850
1185.00,49.867
1186.00,49.856
1187.00,49.856
1188.00,49.844
1189.00,49.850
1190.00,49.841
1191.00,49.839
1192.00,49.846
1193.00,49.832
1194.00,49.851
1195.00,49.819
1196.00,49.842
1197.00,49.854
1198.00,49.846
1199.00,49.854
1200.00,49.836
1201.00,49.855
1202.00,49.831
1203.00,49.853
1204.00,49.852
1205.00,49.821
1206.00,49.829
1207.00,49.824
1208.00,49.823
1209.00,49.831
1210.00,49.817
1211.00,49.818
1212.00,49.837
1213.00,49.803
1214.00,49.827
1215.00,49.817
1216.00,49.802
1217.00,49.821
1218.00,49.812
1219.00,49.825
1220.00,49.804
1221.00,49.819
1222.00,49.809
1223.00,49.835
1224.00,49.837
1225.00,49.809
1226.00,49.807
1227.00,49.796
1228.00,49.815
1229.00,49.828
1230.00,49.849
1231.00,49.846
1232.00,49.850
1233.00,49.853
1234.00,49.851
1235.00,49.841
1236.00,49.849
1237.00,49.848
1238.00,49.839
1239.00,49.850
1240.00,49.839
1241.00,49.843
1242.00,49.848
1243.00,49.861
1244.00,49.852
1245.00,49.871
1246.00,49.877
1247.00,49.869
1248.00,49.867
1249.00,49.864
1250.00,49.877
1251.00,49.869
1252.00,49.895
1253.00,49.897
1254.00,49.893
1255.00,49.896
1256.00,49.865
1257.00,49.845
1258.00,49.913
1259.00,49.893
1260.00,49.903
1261.00,49.910
1262.00,49.887
1263.00,49.888
1264.00,49.895
1265.00,49.908
1266.00,49.906
1267.00,49.908
1268.00,49.930
1269.00,49.920
1270.00,49.918
1271.00,49.929
1272.00,49.943
1273.00,49.954
1274.00,49.955
1275.00,49.954
1276.00,49.962
1277.00,49.956
1278.00,49.971
1279.00,49.967
1280.00,49.962
1281.00,49.984
1282.00,49.970
1283.00,49.967
1284.00,49.968
1285.00,49.968
1286.00,49.981
1287.00,49.968
1288.00,49.982
1289.00,49.978
1290.00,49.993
1291.00,50.002
1292.00,49.987
1293.00,49.989
1294.00,50.004
1295.00,50.020
1296.00,50.016
1297.00,50.026
1298.00,50.051
1299.00,50.032
1300.00,50.038
1301.00,50.029
1302.00,50.045
1303.00,50.055
1304.00,50.039
1305.00,50.064
1306.00,50.072
1307.00,50.077
1308.00,50.089
1309.00,50.095
1310.00,50.099
1311.00,50.100
1312.00,50.107
1313.00,50.093
1314.00,50.122
1315.00,50.112
1316.00,50.112
1317.00,50.140
1318.00,50.137
1319.00,50.141
1320.00,50.149
1321.00,50.320
1322.00,50.309
1323.00,50.301
1324.00,50.292
1325.00,50.266
1326.00,50.285
1327.00,50.270
1328.00,50.273
1329.00,50.275
1330.00,50.241
1331.00,50.286
1332.00,50.268
1333.00,50.258
1334.00,50.312
1335.00,50.340
1336.00,50.356
1337.00,50.388
1338.00,50.425
1339.00,50.487
1340.00,50.538
1341.00,50.588
1342.00,50.677
1343.00,50.708
1344.00,50.747
1345.00,50.834
1346.00,50.862
1347.00,50.880
1348.00,50.906
1349.00,50.931
1350.00,50.944
1351.00,50.967
1352.00,50.947
1353.00,51.025
1354.00,50.976
1355.00,50.906
1356.00,51.006
1357.00,50.998
1358.00,50.985
1359.00,51.042
1360.00,50.975
1361.00,50.929
1362.00,51.003
1363.00,51.054
1364.00,51.047
1365.00,51.024
1366.00,51.122
1367.00,50.960
1368.00,51.016
1369.00,50.990
1370.00,51.014
1371.00,50.944
1372.00,50.974
1373.00,50.973
1374.00,50.978
1375.00,50.995
1376.00,50.950
1377.00,50.887
1378.00,51.002
1379.00,50.994
1380.00,50.998
1381.00,51.195
1382.00,50.917
1383.00,50.993
1384.00,50.929
1385.00,50.885
1386.00,50.982
1387.00,51.013
1388.00,50.903
1389.00,50.920
1390.00,50.957
1391.00,50.983
1392.00,50.984
1393.00,50.924
1394.00,50.947
1395.00,50.930
1396.00,50.864
1397.00,50.926
1398.00,51.010
1399.00,50.929
1400.00,50.940
1401.00,50.963
1402.00,50.974
1403.00,50.935
1404.00,50.982
1405.00,50.998
1406.00,51.012
1407.00,51.016
1408.00,51.076
1409.00,50.977
1410.00,51.012
1411.00,51.023
1412.00,51.078
1413.00,51.009
1414.00,50.988
1415.00,51.034
1416.00,51.086
1417.00,51.099
1418.00,51.041
1419.00,51.050
1420.00,51.097
1421.00,51.118
1422.00,51.133
1423.00,51.127
1424.00,51.118
1425.00,51.157
1426.00,51.093
1427.00,51.181
1428.00,51.172
1429.00,51.165
1430.00,51.208
1431.00,51.210
1432.00,51.222
1433.00,51.259
1434.00,51.237
1435.00,51.276
1436.00,51.304
1437.00,51.277
1438.00,51.309
1439.00,51.337
1440.00,51.327
1441.00,51.357
1442.00,51.359
1443.00,51.385
1444.00,51.415
1445.00,51.372
1446.00,51.390
1447.00,51.450
1448.00,51.453
1449.00,51.476
1450.00,51.480
1451.00,51.476
1452.00,51.514
1453.00,51.528
1454.00,51.539
1455.00,51.577
1456.00,51.578
1457.00,51.591
1458.00,51.601
1459.00,51.618
1460.00,51.646
1461.00,51.632
1462.00,51.655
1463.00,51.674
1464.00,51.691
1465.00,51.704
1466.00,51.698
1467.00,51.719
1468.00,51.758
1469.00,51.768
1470.00,51.755
1471.00,51.821
1472.00,51.822
1473.00,51.796
1474.00,51.840
1475.00,51.846
1476.00,51.843
1477.00,51.860
1478.00,51.864
1479.00,51.893
1480.00,51.882
1481.00,51.884
1482.00,51.927
1483.00,51.928
1484.00,51.928
1485.00,51.957
1486.00,51.955
1487.00,51.965
1488.00,51.993
1489.00,51.982
1490.00,51.990
1491.00,52.017
1492.00,52.023
1493.00,52.026
1494.00,52.044
1495.00,52.043
1496.00,52.055
1497.00,52.065
1498.00,52.052
1499.00,52.100
1500.00,52.107
1501.00, 
1502.00, 
1503.00, 
1504.00, 
1505.00, 
1506.00, 
1507.00, 
1508.00, 
1509.00, 
1510.00, 
1511.00, 
1512.00, 
1513.00, 
1514.00, 
1515.00, 
1516.00, 
1517.00, 
1518.00, 
1519.00, 
1520.00, 
1521.00, 
1522.00, 
1523.00, 
1524.00, 
1525.00, 
1526.00, 
1527.00, 
1528.00, 
1529.00, 
1530.00, 
1531.00, 
1532.00, 
1533.00, 
1534.00, 
1535.00, 
1536.00, 
1537.00, 
1538.00, 
1539.00, 
1540.00, 
1541.00, 
1542.00, 
1543.00, 
1544.00, 
1545.00, 
1546.00, 
1547.00, 
1548.00, 
1549.00, 
1550.00, 
1551.00, 
1552.00, 
1553.00, 
1554.00, 
1555.00, 
1556.00, 
1557.00, 
1558.00, 
1559.00, 
1560.00, 
1561.00, 
1562.00, 
1563.00, 
1564.00, 
1565.00, 
1566.00, 
1567.00, 
1568.00, 
1569.00, 
1570.00, 
1571.00, 
1572.00, 
1573.00, 
1574.00, 
1575.00, 
1576.00, 
1577.00, 
1578.00, 
1579.00, 
1580.00, 
1581.00, 
1582.00, 
1583.00, 
1584.00, 
1585.00, 
1586.00, 
1587.00, 
1588.00, 
1589.00, 
1590.00, 
1591.00, 
1592.00, 
1593.00, 
1594.00, 
1595.00, 
1596.00, 
1597.00, 
1598.00, 
1599.00, 
1600.00, 
1601.00, 
1602.00, 
1603.00, 
1604.00, 
1605.00, 
1606.00, 
1607.00, 
1608.00, 
1609.00, 
1610.00, 
1611.00, 
1612.00, 
1613.00, 
1614.00, 
1615.00, 
1616.00, 
1617.00, 
1618.00, 
1619.00, 
1620.00, 
1621.00, 
1622.00, 
1623.00, 
1624.00, 
1625.00, 
1626.00, 
1627.00, 
1628.00, 
1629.00, 
1630.00, 
1631.00, 
1632.00, 
1633.00, 
1634.00, 
1635.00, 
1636.00, 
1637.00, 
1638.00, 
1639.00, 
1640.00, 
1641.00, 
1642.00, 
1643.00, 
1644.00, 
1645.00, 
1646.00, 
1647.00, 
1648.00, 
1649.00, 
1650.00, 
1651.00, 
1652.00, 
1653.00, 
1654.00, 
1655.00, 
1656.00, 
1657.00, 
1658.00, 
1659.00, 
1660.00, 
1661.00, 
1662.00, 
1663.00, 
1664.00, 
1665.00, 
1666.00, 
1667.00, 
1668.00, 
1669.00, 
1670.00, 
1671.00, 
1672.00, 
1673.00, 
1674.00, 
1675.00, 
1676.00, 
1677.00, 
1678.00, 
1679.00, 
1680.00, 
1681.00, 
1682.00, 
1683.00, 
1684.00, 
1685.00, 
1686.00, 
1687.00, 
1688.00, 
1689.00, 
1690.00, 
1691.00, 
1692.00, 
1693.00, 
1694.00, 
1695.00, 
1696.00, 
1697.00, 
1698.00, 
1699.00, 
1700.00, 
1701.00, 
1702.00, 
1703.00, 
1704.00, 
1705.00, 
1706.00, 
1707.00, 
1708.00, 
1709.00, 
1710.00, 
1711.00, 
1712.00, 
1713.00, 
1714.00, 
1715.00, 
1716.00, 
1717.00, 
1718.00, 
1719.00, 
1720.00, 
1721.00, 
1722.00, 
1723.00, 
1724.00, 
1725.00, 
1726.00, 
1727.00, 
1728.00, 
1729.00, 
1730.00, 
1731.00, 
1732.00, 
1733.00, 
1734.00, 
1735.00, 
1736.00, 
1737.00, 
1738.00, 
1739.00, 
1740.00, 
1741.00, 
1742.00, 
1743.00, 
1744.00, 
1745.00, 
1746.00, 
1747.00, 
1748.00, 
1749.00, 
1750.00, 
1751.00, 
1752.00, 
1753.00, 
1754.00, 
1755.00, 
1756.00, 
1757.00, 
1758.00, 
1759.00, 
1760.00, 
1761.00, 
1762.00, 
1763.00, 
1764.00, 
1765.00, 
1766.00, 
1767.00, 
1768.00, 
1769.00, 
1770.00, 
1771.00, 
1772.00, 
1773.00, 
1774.00, 
1775.00, 
1776.00, 
1777.00, 
1778.00, 
1779.00, 
1780.00, 
1781.00, 
1782.00, 
1783.00, 
1784.00, 
1785.00, 
1786.00, 
1787.00, 
1788.00, 
1789.00, 
1790.00, 
1791.00, 
1792.00, 
1793.00, 
1794.00, 
1795.00, 
1796.00, 
1797.00, 
1798.00, 
1799.00, 
1800.00, 
1801.00, 
1802.00, 
1803.00, 
1804.00, 
1805.00, 
1806.00, 
1807.00, 
1808.00, 
1809.00, 
1810.00, 
1811.00, 
1812.00, 
1813.00, 
1814.00, 
1815.00, 
1816.00, 
1817.00, 
1818.00, 
1819.00, 
1820.00, 
1821.00, 
1822.00, 
1823.00, 
1824.00, 
1825.00, 
1826.00, 
1827.00, 
1828.00, 
1829.00, 
1830.00, 
1831.00, 
1832.00, 
1833.00, 
1834.00, 
1835.00, 
1836.00, 
1837.00, 
1838.00, 
1839.00, 
1840.00, 
1841.00, 
1842.00, 
1843.00, 
1844.00, 
1845.00, 
1846.00, 
1847.00, 
1848.00, 
1849.00, 
1850.00, 
1851.00, 
1852.00, 
1853.00, 
1854.00, 
1855.00, 
1856.00, 
1857.00, 
1858.00, 
1859.00, 
1860.00, 
1861.00, 
1862.00, 
1863.00, 
1864.00, 
1865.00, 
1866.00, 
1867.00, 
1868.00, 
1869.00, 
1870.00, 
1871.00, 
1872.00, 
1873.00, 
1874.00, 
1875.00, 
1876.00, 
1877.00, 
1878.00, 
1879.00, 
1880.00, 
1881.00, 
1882.00, 
1883.00, 
1884.00, 
1885.00, 
1886.00, 
1887.00, 
1888.00, 
1889.00, 
1890.00, 
1891.00, 
1892.00, 
1893.00, 
1894.00, 
1895.00, 
1896.00, 
1897.00, 
1898.00, 
1899.00, 
1900.00, 
1901.00, 
1902.00, 
1903.00, 
1904.00, 
1905.00, 
1906.00, 
1907.00, 
1908.00, 
1909.00, 
1910.00, 
1911.00, 
1912.00, 
1913.00, 
1914.00, 
1915.00, 
1916.00, 
1917.00, 
1918.00, 
1919.00, 
1920.00, 
1921.00, 
1922.00, 
1923.00, 
1924.00, 
1925.00, 
1926.00, 
1927.00, 
1928.00, 
1929.00, 
1930.00, 
1931.00, 
1932.00, 
1933.00, 
1934.00, 
1935.00, 
1936.00, 
1937.00, 
1938.00, 
1939.00, 
1940.00, 
1941.00, 
1942.00, 
1943.00, 
1944.00, 
1945.00, 
1946.00, 
1947.00, 
1948.00, 
1949.00, 
1950.00, 
1951.00, 
1952.00, 
1953.00, 
1954.00, 
1955.00, 
1956.00, 
1957.00, 
1958.00, 
1959.00, 
1960.00, 
1961.00, 
1962.00, 
1963.00, 
1964.00, 
1965.00, 
1966.00, 
1967.00, 
1968.00, 
1969.00, 
1970.00, 
1971.00, 
1972.00, 
1973.00, 
1974.00, 
1975.00, 
1976.00, 
1977.00, 
1978.00, 
1979.00, 
1980.00, 
1981.00, 
1982.00, 
1983.00, 
1984.00, 
1985.00, 
1986.00, 
1987.00, 
1988.00, 
1989.00, 
1990.00, 
1991.00, 
1992.00, 
1993.00, 
1994.00, 
1995.00, 
1996.00, 
1997.00, 
1998.00, 
1999.00, 
2000.00, 
2001.00, 
2002.00, 
2003.00, 
2004.00, 
2005.00, 
2006.00, 
2007.00, 
2008.00, 
2009.00, 
2010.00, 
2011.00, 
2012.00, 
2013.00, 
2014.00, 
2015.00, 
2016.00, 
2017.00, 
2018.00, 
2019.00, 
2020.00, 
2021.00, 
2022.00, 
2023.00, 
2024.00, 
2025.00, 
2026.00, 
2027.00, 
2028.00, 
2029.00, 
2030.00, 
2031.00, 
2032.00, 
2033.00, 
2034.00, 
2035.00, 
2036.00, 
2037.00, 
2038.00, 
2039.00, 
2040.00, 
2041.00, 
2042.00, 
2043.00, 
2044.00, 
2045.00, 
2046.00, 
2047.00, 
2048.00, 
2049.00, 
2050.00, 
2051.00, 
2052.00, 
2053.00, 
2054.00, 
2055.00, 
2056.00, 
2057.00, 
2058.00, 
2059.00, 
2060.00, 
2061.00, 
2062.00, 
2063.00, 
2064.00, 
2065.00, 
2066.00, 
2067.00, 
2068.00, 
2069.00, 
2070.00, 
2071.00, 
2072.00, 
2073.00, 
2074.00, 
2075.00, 
2076.00, 
2077.00, 
2078.00, 
2079.00, 
2080.00, 
2081.00, 
2082.00, 
2083.00, 
2084.00, 
2085.00, 
2086.00, 
2087.00, 
2088.00, 
2089.00, 
2090.00, 
2091.00, 
2092.00, 
2093.00, 
2094.00, 
2095.00, 
2096.00, 
2097.00, 
2098.00, 
2099.00, 
2100.00, 
2101.00, 
2102.00, 
2103.00, 
2104.00, 
2105.00, 
2106.00, 
2107.00, 
2108.00, 
2109.00, 
2110.00, 
2111.00, 
2112.00, 
2113.00, 
2114.00, 
2115.00, 
2116.00, 
2117.00, 
2118.00, 
2119.00, 
2120.00, 
2121.00, 
2122.00, 
2123.00, 
2124.00, 
2125.00, 
2126.00, 
2127.00, 
2128.00, 
2129.00, 
2130.00, 
2131.00, 
2132.00, 
2133.00, 
2134.00, 
2135.00, 
2136.00, 
2137.00, 
2138.00, 
2139.00, 
2140.00, 
2141.00, 
2142.00, 
2143.00, 
2144.00, 
2145.00, 
2146.00, 
2147.00, 
2148.00, 
2149.00, 
2150.00, 
2151.00, 
2152.00, 
2153.00, 
2154.00, 
2155.00, 
2156.00, 
2157.00, 
2158.00, 
2159.00, 
2160.00, 
2161.00, 
2162.00, 
2163.00, 
2164.00, 
2165.00, 
2166.00, 
2167.00, 
2168.00, 
2169.00, 
2170.00, 
2171.00, 
2172.00, 
2173.00, 
2174.00, 
2175.00, 
2176.00, 
2177.00, 
2178.00, 
2179.00, 
2180.00, 
2181.00, 
2182.00, 
2183.00, 
2184.00, 
2185.00, 
2186.00, 
2187.00, 
2188.00, 
2189.00, 
2190.00, 
2191.00, 
2192.00, 
2193.00, 
2194.00, 
2195.00, 
2196.00, 
2197.00, 
2198.00, 
2199.00, 
2200.00, 
2201.00, 
2202.00, 
2203.00, 
2204.00, 
2205.00, 
2206.00, 
2207.00, 
2208.00, 
2209.00, 
2210.00, 
2211.00, 
2212.00, 
2213.00, 
2214.00, 
2215.00, 
2216.00, 
2217.00, 
2218.00, 
2219.00, 
2220.00, 
2221.00, 
2222.00, 
2223.00, 
2224.00, 
2225.00, 
2226.00, 
2227.00, 
2228.00, 
2229.00, 
2230.00, 
2231.00, 
2232.00, 
2233.00, 
2234.00, 
2235.00, 
2236.00, 
2237.00, 
2238.00, 
2239.00, 
2240.00, 
2241.00, 
2242.00, 
2243.00, 
2244.00, 
2245.00, 
2246.00, 
2247.00, 
2248.00, 
2249.00, 
2250.00, 
2251.00, 
2252.00, 
2253.00, 
2254.00, 
2255.00, 
2256.00, 
2257.00, 
2258.00, 
2259.00, 
2260.00, 
2261.00, 
2262.00, 
2263.00, 
2264.00, 
2265.00, 
2266.00, 
2267.00, 
2268.00, 
2269.00, 
2270.00, 
2271.00, 
2272.00, 
2273.00, 
2274.00, 
2275.00, 
2276.00, 
2277.00, 
2278.00, 
2279.00, 
2280.00, 
2281.00, 
2282.00, 
2283.00, 
2284.00, 
2285.00, 
2286.00, 
2287.00, 
2288.00, 
2289.00, 
2290.00, 
2291.00, 
2292.00, 
2293.00, 
2294.00, 
2295.00, 
2296.00, 
2297.00, 
2298.00, 
2299.00, 
2300.00, 
2301.00, 
2302.00, 
2303.00, 
2304.00, 
2305.00, 
2306.00, 
2307.00, 
2308.00, 
2309.00, 
2310.00, 
2311.00, 
2312.00, 
2313.00, 
2314.00, 
2315.00, 
2316.00, 
2317.00, 
2318.00, 
2319.00, 
2320.00, 
2321.00, 
2322.00, 
2323.00, 
2324.00, 
2325.00, 
2326.00, 
2327.00, 
2328.00, 
2329.00, 
2330.00, 
2331.00, 
2332.00, 
2333.00, 
2334.00, 
2335.00, 
2336.00, 
2337.00, 
2338.00, 
2339.00, 
2340.00, 
2341.00, 
2342.00, 
2343.00, 
2344.00, 
2345.00, 
2346.00, 
2347.00, 
2348.00, 
2349.00, 
2350.00, 
2351.00, 
2352.00, 
2353.00, 
2354.00, 
2355.00, 
2356.00, 
2357.00, 
2358.00, 
2359.00, 
2360.00, 
2361.00, 
2362.00, 
2363.00, 
2364.00, 
2365.00, 
2366.00, 
2367.00, 
2368.00, 
2369.00, 
2370.00, 
2371.00, 
2372.00, 
2373.00, 
2374.00, 
2375.00, 
2376.00, 
2377.00, 
2378.00, 
2379.00, 
2380.00, 
2381.00, 
2382.00, 
2383.00, 
2384.00, 
2385.00, 
2386.00, 
2387.00, 
2388.00, 
2389.00, 
2390.00, 
2391.00, 
2392.00, 
2393.00, 
2394.00, 
2395.00, 
2396.00, 
2397.00, 
2398.00, 
2399.00, 
2400.00, 
2401.00, 
2402.00, 
2403.00, 
2404.00, 
2405.00, 
2406.00, 
2407.00, 
2408.00, 
2409.00, 
2410.00, 
2411.00, 
2412.00, 
2413.00, 
2414.00, 
2415.00, 
2416.00, 
2417.00, 
2418.00, 
2419.00, 
2420.00, 
2421.00, 
2422.00, 
2423.00, 
2424.00, 
2425.00, 
2426.00, 
2427.00, 
2428.00, 
2429.00, 
2430.00, 
2431.00, 
2432.00, 
2433.00, 
2434.00, 
2435.00, 
2436.00, 
2437.00, 
2438.00, 
2439.00, 
2440.00, 
2441.00, 
2442.00, 
2443.00, 
2444.00, 
2445.00, 
2446.00, 
2447.00, 
2448.00, 
2449.00, 
2450.00, 
2451.00, 
2452.00, 
2453.00, 
2454.00, 
2455.00, 
2456.00, 
2457.00, 
2458.00, 
2459.00, 
2460.00, 
2461.00, 
2462.00, 
2463.00, 
2464.00, 
2465.00, 
2466.00, 
2467.00, 
2468.00, 
2469.00, 
2470.00, 
2471.00, 
2472.00, 
2473.00, 
2474.00, 
2475.00, 
2476.00, 
2477.00, 
2478.00, 
2479.00, 
2480.00, 
2481.00, 
2482.00, 
2483.00, 
2484.00, 
2485.00, 
2486.00, 
2487.00, 
2488.00, 
2489.00, 
2490.00, 
2491.00, 
2492.00, 
2493.00, 
2494.00, 
2495.00, 
2496.00, 
2497.00, 
2498.00, 
2499.00, 
2500.00, 
2501.00, 
2502.00, 
2503.00, 
2504.00, 
2505.00, 
2506.00, 
2507.00, 
2508.00, 
2509.00, 
2510.00, 
2511.00, 
2512.00, 
2513.00, 
2514.00, 
2515.00, 
2516.00, 
2517.00, 
2518.00, 
2519.00, 
2520.00, 
2521.00, 
2522.00, 
2523.00, 
2524.00, 
2525.00, 
2526.00, 
2527.00, 
2528.00, 
2529.00, 
2530.00, 
2531.00, 
2532.00, 
2533.00, 
2534.00, 
2535.00, 
2536.00, 
2537.00, 
2538.00, 
2539.00, 
2540.00, 
2541.00, 
2542.00, 
2543.00, 
2544.00, 
2545.00, 
2546.00, 
2547.00, 
2548.00, 
2549.00, 
2550.00, 
2551.00, 
2552.00, 
2553.00, 
2554.00, 
2555.00, 
2556.00, 
2557.00, 
2558.00, 
2559.00, 
2560.00, 
2561.00, 
2562.00, 
2563.00, 
2564.00, 
2565.00, 
2566.00, 
2567.00, 
2568.00, 
2569.00, 
2570.00, 
2571.00, 
2572.00, 
2573.00, 
2574.00, 
2575.00, 
2576.00, 
2577.00, 
2578.00, 
2579.00, 
2580.00, 
2581.00, 
2582.00, 
2583.00, 
2584.00, 
2585.00, 
2586.00, 
2587.00, 
2588.00, 
2589.00, 
2590.00, 
2591.00, 
2592.00, 
2593.00, 
2594.00, 
2595.00, 
2596.00, 
2597.00, 
2598.00, 
2599.00, 
2600.00, 
