"1bP2 - RawData"
"Wavelength nm.","T%"
200.00,-0.002
201.00,-0.001
202.00,-0.000
203.00,0.002
204.00,0.002
205.00,0.003
206.00,0.002
207.00,-0.001
208.00,0.001
209.00,0.000
210.00,-0.001
211.00,-0.000
212.00,0.001
213.00,0.002
214.00,0.001
215.00,0.000
216.00,0.000
217.00,0.004
218.00,0.002
219.00,0.002
220.00,0.001
221.00,0.001
222.00,0.001
223.00,-0.001
224.00,-0.001
225.00,0.000
226.00,0.001
227.00,0.001
228.00,0.000
229.00,-0.000
230.00,0.001
231.00,0.000
232.00,0.001
233.00,-0.001
234.00,0.001
235.00,0.001
236.00,0.001
237.00,0.001
238.00,0.000
239.00,0.002
240.00,-0.001
241.00,-0.001
242.00,-0.000
243.00,-0.001
244.00,0.000
245.00,0.001
246.00,0.001
247.00,0.000
248.00,-0.002
249.00,0.001
250.00,-0.002
251.00,-0.000
252.00,0.001
253.00,-0.002
254.00,0.002
255.00,0.001
256.00,-0.002
257.00,0.001
258.00,-0.001
259.00,0.002
260.00,0.001
261.00,0.002
262.00,0.001
263.00,-0.000
264.00,0.002
265.00,0.001
266.00,0.000
267.00,0.001
268.00,0.000
269.00,0.001
270.00,0.000
271.00,0.000
272.00,-0.000
273.00,0.000
274.00,-0.001
275.00,0.001
276.00,-0.000
277.00,-0.001
278.00,-0.000
279.00,-0.000
280.00,-0.000
281.00,0.001
282.00,0.000
283.00,-0.001
284.00,-0.000
285.00,-0.002
286.00,-0.000
287.00,0.000
288.00,-0.002
289.00,0.003
290.00,0.000
291.00,-0.001
292.00,0.001
293.00,0.003
294.00,-0.001
295.00,0.000
296.00,0.001
297.00,0.002
298.00,0.002
299.00,0.003
300.00,0.003
301.00,0.007
302.00,0.009
303.00,0.014
304.00,0.017
305.00,0.032
306.00,0.045
307.00,0.068
308.00,0.105
309.00,0.158
310.00,0.224
311.00,0.297
312.00,0.405
313.00,0.546
314.00,0.705
315.00,0.909
316.00,1.150
317.00,1.428
318.00,1.776
319.00,2.079
320.00,2.568
321.00,3.068
322.00,3.576
323.00,4.184
324.00,4.809
325.00,5.407
326.00,6.032
327.00,6.775
328.00,7.518
329.00,8.247
330.00,9.009
331.00,9.769
332.00,10.556
333.00,11.358
334.00,12.078
335.00,12.882
336.00,13.589
337.00,14.385
338.00,15.122
339.00,15.763
340.00,16.455
341.00,17.129
342.00,17.759
343.00,18.323
344.00,18.895
345.00,19.438
346.00,19.964
347.00,20.379
348.00,20.847
349.00,21.241
350.00,21.627
351.00,21.970
352.00,22.329
353.00,22.669
354.00,22.933
355.00,23.167
356.00,23.425
357.00,23.602
358.00,23.840
359.00,24.052
360.00,24.203
361.00,24.365
362.00,24.524
363.00,24.719
364.00,24.758
365.00,24.878
366.00,24.994
367.00,24.989
368.00,25.047
369.00,25.038
370.00,25.109
371.00,25.068
372.00,25.055
373.00,25.111
374.00,25.025
375.00,25.020
376.00,24.963
377.00,24.898
378.00,24.802
379.00,24.724
380.00,24.703
381.00,24.681
382.00,24.708
383.00,24.648
384.00,24.681
385.00,24.643
386.00,24.697
387.00,24.757
388.00,24.802
389.00,24.819
390.00,24.857
391.00,24.841
392.00,24.869
393.00,24.847
394.00,24.857
395.00,24.846
396.00,24.847
397.00,24.848
398.00,24.803
399.00,24.818
400.00,24.824
401.00,24.787
402.00,24.852
403.00,24.819
404.00,24.859
405.00,24.816
406.00,24.820
407.00,24.726
408.00,24.746
409.00,24.716
410.00,24.657
411.00,24.644
412.00,24.561
413.00,24.627
414.00,24.598
415.00,24.553
416.00,24.610
417.00,24.588
418.00,24.593
419.00,24.681
420.00,24.663
421.00,24.676
422.00,24.708
423.00,24.762
424.00,24.747
425.00,24.784
426.00,24.827
427.00,24.885
428.00,24.908
429.00,24.910
430.00,24.972
431.00,25.020
432.00,25.056
433.00,25.162
434.00,25.105
435.00,25.222
436.00,25.310
437.00,25.333
438.00,25.436
439.00,25.481
440.00,25.469
441.00,25.631
442.00,25.712
443.00,25.732
444.00,25.870
445.00,25.926
446.00,26.022
447.00,26.122
448.00,26.196
449.00,26.303
450.00,26.395
451.00,26.512
452.00,26.610
453.00,26.700
454.00,26.812
455.00,26.877
456.00,27.036
457.00,27.158
458.00,27.238
459.00,27.362
460.00,27.524
461.00,27.676
462.00,27.726
463.00,27.851
464.00,27.975
465.00,28.100
466.00,28.239
467.00,28.344
468.00,28.456
469.00,28.600
470.00,28.662
471.00,28.758
472.00,28.887
473.00,28.959
474.00,29.056
475.00,29.225
476.00,29.249
477.00,29.448
478.00,29.536
479.00,29.727
480.00,29.848
481.00,29.962
482.00,30.143
483.00,30.264
484.00,30.392
485.00,30.573
486.00,30.691
487.00,30.849
488.00,30.964
489.00,31.086
490.00,31.230
491.00,31.337
492.00,31.469
493.00,31.727
494.00,31.790
495.00,31.835
496.00,31.989
497.00,31.966
498.00,32.257
499.00,32.423
500.00,32.589
501.00,32.602
502.00,32.724
503.00,32.894
504.00,32.943
505.00,33.031
506.00,33.181
507.00,33.306
508.00,33.356
509.00,33.464
510.00,33.598
511.00,33.801
512.00,33.914
513.00,34.001
514.00,34.209
515.00,34.247
516.00,34.333
517.00,34.508
518.00,34.627
519.00,34.683
520.00,34.732
521.00,34.801
522.00,34.972
523.00,34.995
524.00,35.062
525.00,35.177
526.00,35.276
527.00,35.310
528.00,35.426
529.00,35.508
530.00,35.598
531.00,35.785
532.00,35.843
533.00,35.950
534.00,36.018
535.00,36.114
536.00,36.159
537.00,36.257
538.00,36.326
539.00,36.410
540.00,36.478
541.00,36.503
542.00,36.532
543.00,36.577
544.00,36.673
545.00,36.722
546.00,36.799
547.00,36.903
548.00,36.941
549.00,37.010
550.00,37.086
551.00,37.178
552.00,37.213
553.00,37.284
554.00,37.354
555.00,37.422
556.00,37.422
557.00,37.534
558.00,37.575
559.00,37.589
560.00,37.689
561.00,37.733
562.00,37.755
563.00,37.820
564.00,37.862
565.00,37.858
566.00,37.903
567.00,37.922
568.00,37.946
569.00,38.030
570.00,37.997
571.00,38.076
572.00,38.154
573.00,38.072
574.00,38.141
575.00,38.183
576.00,38.169
577.00,38.268
578.00,38.311
579.00,38.343
580.00,38.416
581.00,38.536
582.00,38.614
583.00,38.596
584.00,38.729
585.00,38.741
586.00,38.748
587.00,38.879
588.00,38.906
589.00,38.925
590.00,38.925
591.00,39.017
592.00,38.978
593.00,39.024
594.00,39.087
595.00,39.086
596.00,39.166
597.00,39.268
598.00,39.332
599.00,39.331
600.00,39.411
601.00,39.449
602.00,39.416
603.00,39.477
604.00,39.498
605.00,39.595
606.00,39.601
607.00,39.658
608.00,39.660
609.00,39.668
610.00,39.781
611.00,39.670
612.00,39.686
613.00,39.826
614.00,39.897
615.00,39.917
616.00,40.033
617.00,40.058
618.00,40.116
619.00,40.122
620.00,40.134
621.00,40.201
622.00,40.253
623.00,40.350
624.00,40.378
625.00,40.429
626.00,40.423
627.00,40.545
628.00,40.617
629.00,40.618
630.00,40.658
631.00,40.731
632.00,40.830
633.00,40.921
634.00,41.006
635.00,41.007
636.00,41.109
637.00,41.192
638.00,41.189
639.00,41.268
640.00,41.318
641.00,41.368
642.00,41.315
643.00,41.417
644.00,41.561
645.00,41.636
646.00,41.827
647.00,41.840
648.00,41.936
649.00,41.967
650.00,41.967
651.00,42.081
652.00,42.099
653.00,42.212
654.00,42.259
655.00,42.376
656.00,42.437
657.00,42.594
658.00,42.664
659.00,42.506
660.00,42.730
661.00,42.722
662.00,43.010
663.00,42.955
664.00,43.064
665.00,43.201
666.00,43.281
667.00,43.423
668.00,43.316
669.00,43.494
670.00,43.712
671.00,43.692
672.00,43.807
673.00,43.865
674.00,43.992
675.00,43.956
676.00,44.059
677.00,44.156
678.00,44.242
679.00,44.391
680.00,44.433
681.00,44.538
682.00,44.692
683.00,44.673
684.00,44.879
685.00,44.900
686.00,44.859
687.00,45.047
688.00,45.087
689.00,44.970
690.00,45.157
691.00,45.409
692.00,45.290
693.00,45.432
694.00,45.395
695.00,45.450
696.00,45.458
697.00,45.649
698.00,45.433
699.00,45.941
700.00,46.618
701.00,46.074
702.00,46.243
703.00,46.299
704.00,46.385
705.00,46.343
706.00,46.338
707.00,46.725
708.00,46.423
709.00,46.635
710.00,46.883
711.00,46.863
712.00,46.743
713.00,46.857
714.00,46.869
715.00,47.030
716.00,47.085
717.00,47.115
718.00,47.207
719.00,47.325
720.00,47.420
721.00,51.781
722.00,51.748
723.00,51.726
724.00,51.792
725.00,51.764
726.00,51.741
727.00,51.744
728.00,51.818
729.00,51.818
730.00,51.843
731.00,51.934
732.00,51.941
733.00,51.941
734.00,51.965
735.00,52.029
736.00,52.090
737.00,52.015
738.00,52.119
739.00,52.087
740.00,52.071
741.00,52.135
742.00,52.194
743.00,52.207
744.00,52.117
745.00,52.202
746.00,52.170
747.00,52.227
748.00,52.137
749.00,52.191
750.00,52.223
751.00,52.160
752.00,52.257
753.00,52.197
754.00,52.237
755.00,52.172
756.00,52.272
757.00,52.250
758.00,52.241
759.00,52.279
760.00,52.266
761.00,52.200
762.00,52.329
763.00,52.310
764.00,52.323
765.00,52.321
766.00,52.313
767.00,52.368
768.00,52.372
769.00,52.315
770.00,52.353
771.00,52.399
772.00,52.433
773.00,52.385
774.00,52.376
775.00,52.468
776.00,52.337
777.00,52.512
778.00,52.453
779.00,52.452
780.00,52.464
781.00,52.420
782.00,52.431
783.00,52.390
784.00,52.381
785.00,52.305
786.00,52.438
787.00,52.421
788.00,52.375
789.00,52.390
790.00,52.310
791.00,52.370
792.00,52.328
793.00,52.351
794.00,52.324
795.00,52.303
796.00,52.354
797.00,52.261
798.00,52.353
799.00,52.246
800.00,52.249
801.00,52.278
802.00,52.245
803.00,52.198
804.00,52.180
805.00,52.281
806.00,52.225
807.00,52.186
808.00,52.175
809.00,52.123
810.00,52.137
811.00,52.131
812.00,52.160
813.00,52.085
814.00,52.137
815.00,52.095
816.00,52.088
817.00,52.096
818.00,51.939
819.00,51.986
820.00,52.007
821.00,51.936
822.00,52.046
823.00,51.937
824.00,52.000
825.00,51.949
826.00,51.962
827.00,51.916
828.00,51.989
829.00,51.909
830.00,51.895
831.00,54.632
832.00,54.610
833.00,54.560
834.00,54.555
835.00,54.523
836.00,54.536
837.00,54.484
838.00,54.437
839.00,54.475
840.00,54.435
841.00,54.440
842.00,54.412
843.00,54.435
844.00,54.411
845.00,54.367
846.00,54.376
847.00,54.335
848.00,54.354
849.00,54.301
850.00,54.268
851.00,54.185
852.00,54.181
853.00,54.322
854.00,54.132
855.00,54.113
856.00,54.112
857.00,54.060
858.00,54.076
859.00,54.056
860.00,54.086
861.00,54.055
862.00,54.007
863.00,54.003
864.00,53.970
865.00,53.993
866.00,53.940
867.00,53.952
868.00,54.170
869.00,53.947
870.00,53.968
871.00,53.954
872.00,53.925
873.00,53.904
874.00,53.932
875.00,53.885
876.00,53.900
877.00,53.904
878.00,53.905
879.00,53.837
880.00,53.897
881.00,53.845
882.00,53.870
883.00,53.831
884.00,53.750
885.00,53.750
886.00,53.734
887.00,53.705
888.00,53.684
889.00,53.680
890.00,53.659
891.00,53.672
892.00,53.656
893.00,53.669
894.00,53.633
895.00,53.611
896.00,53.586
897.00,53.576
898.00,53.545
899.00,53.548
900.00,53.519
901.00,53.504
902.00,53.522
903.00,53.491
904.00,53.472
905.00,53.475
906.00,53.476
907.00,53.448
908.00,53.427
909.00,53.412
910.00,53.379
911.00,53.357
912.00,53.342
913.00,53.329
914.00,53.330
915.00,53.314
916.00,53.275
917.00,53.256
918.00,53.225
919.00,53.226
920.00,53.179
921.00,53.170
922.00,53.180
923.00,53.163
924.00,53.134
925.00,53.148
926.00,53.124
927.00,53.119
928.00,53.081
929.00,53.088
930.00,53.041
931.00,53.017
932.00,52.946
933.00,53.102
934.00,52.994
935.00,52.951
936.00,52.948
937.00,52.936
938.00,52.942
939.00,52.916
940.00,52.878
941.00,52.886
942.00,52.861
943.00,52.849
944.00,52.807
945.00,52.797
946.00,52.797
947.00,52.755
948.00,52.734
949.00,52.736
950.00,52.715
951.00,52.659
952.00,52.658
953.00,52.683
954.00,52.586
955.00,52.581
956.00,52.561
957.00,52.532
958.00,52.553
959.00,52.492
960.00,52.496
961.00,52.501
962.00,52.482
963.00,52.475
964.00,52.455
965.00,52.430
966.00,52.454
967.00,52.412
968.00,52.410
969.00,52.495
970.00,52.400
971.00,52.396
972.00,52.363
973.00,52.399
974.00,52.422
975.00,52.386
976.00,52.395
977.00,52.408
978.00,52.434
979.00,52.399
980.00,52.441
981.00,52.445
982.00,52.410
983.00,52.434
984.00,52.400
985.00,52.420
986.00,52.410
987.00,52.423
988.00,52.382
989.00,52.364
990.00,52.355
991.00,52.354
992.00,52.326
993.00,52.283
994.00,52.332
995.00,52.277
996.00,52.298
997.00,52.289
998.00,52.265
999.00,52.279
1000.00,52.233
1001.00,52.240
1002.00,52.236
1003.00,52.227
1004.00,52.198
1005.00,52.171
1006.00,52.186
1007.00,52.170
1008.00,52.164
1009.00,52.134
1010.00,52.154
1011.00,52.114
1012.00,52.093
1013.00,52.111
1014.00,52.100
1015.00,52.089
1016.00,52.043
1017.00,52.030
1018.00,52.024
1019.00,52.002
1020.00,51.983
1021.00,51.979
1022.00,51.971
1023.00,51.930
1024.00,51.952
1025.00,51.908
1026.00,51.922
1027.00,51.890
1028.00,51.864
1029.00,51.888
1030.00,51.880
1031.00,51.841
1032.00,51.826
1033.00,51.820
1034.00,51.797
1035.00,51.764
1036.00,51.718
1037.00,51.717
1038.00,51.696
1039.00,51.656
1040.00,51.646
1041.00,51.629
1042.00,51.668
1043.00,51.618
1044.00,51.654
1045.00,51.629
1046.00,51.614
1047.00,51.610
1048.00,51.644
1049.00,51.643
1050.00,51.638
1051.00,51.681
1052.00,51.694
1053.00,51.669
1054.00,51.675
1055.00,51.728
1056.00,51.713
1057.00,51.732
1058.00,51.704
1059.00,51.716
1060.00,51.721
1061.00,51.694
1062.00,51.703
1063.00,51.716
1064.00,51.698
1065.00,51.706
1066.00,51.703
1067.00,51.702
1068.00,51.707
1069.00,51.679
1070.00,51.656
1071.00,51.650
1072.00,51.645
1073.00,51.634
1074.00,51.635
1075.00,51.623
1076.00,51.628
1077.00,51.611
1078.00,51.599
1079.00,51.608
1080.00,51.609
1081.00,51.592
1082.00,51.600
1083.00,51.578
1084.00,51.585
1085.00,51.595
1086.00,51.565
1087.00,51.572
1088.00,51.560
1089.00,51.547
1090.00,51.575
1091.00,51.590
1092.00,51.554
1093.00,51.528
1094.00,51.488
1095.00,51.501
1096.00,51.504
1097.00,51.479
1098.00,51.473
1099.00,51.458
1100.00,51.465
1101.00,51.459
1102.00,51.435
1103.00,51.443
1104.00,51.446
1105.00,51.401
1106.00,51.404
1107.00,51.394
1108.00,51.382
1109.00,51.382
1110.00,51.383
1111.00,51.370
1112.00,51.357
1113.00,51.349
1114.00,51.345
1115.00,51.360
1116.00,51.326
1117.00,51.323
1118.00,51.319
1119.00,51.296
1120.00,51.322
1121.00,51.305
1122.00,51.277
1123.00,51.284
1124.00,51.278
1125.00,51.291
1126.00,51.281
1127.00,51.247
1128.00,51.264
1129.00,51.221
1130.00,51.221
1131.00,51.255
1132.00,51.229
1133.00,51.202
1134.00,51.214
1135.00,51.188
1136.00,51.207
1137.00,51.202
1138.00,51.199
1139.00,51.226
1140.00,51.220
1141.00,51.198
1142.00,51.193
1143.00,51.211
1144.00,51.190
1145.00,51.184
1146.00,51.179
1147.00,51.178
1148.00,51.178
1149.00,51.171
1150.00,51.198
1151.00,51.213
1152.00,51.205
1153.00,51.188
1154.00,51.169
1155.00,51.174
1156.00,51.180
1157.00,51.178
1158.00,51.161
1159.00,51.163
1160.00,51.143
1161.00,51.174
1162.00,51.164
1163.00,51.152
1164.00,51.150
1165.00,51.144
1166.00,51.139
1167.00,51.136
1168.00,51.145
1169.00,51.137
1170.00,51.139
1171.00,51.105
1172.00,51.124
1173.00,51.121
1174.00,51.128
1175.00,51.127
1176.00,51.137
1177.00,51.121
1178.00,51.137
1179.00,51.142
1180.00,51.140
1181.00,51.155
1182.00,51.127
1183.00,51.139
1184.00,51.120
1185.00,51.137
1186.00,51.142
1187.00,51.146
1188.00,51.128
1189.00,51.137
1190.00,51.115
1191.00,51.117
1192.00,51.137
1193.00,51.108
1194.00,51.129
1195.00,51.105
1196.00,51.115
1197.00,51.120
1198.00,51.118
1199.00,51.111
1200.00,51.128
1201.00,51.131
1202.00,51.119
1203.00,51.134
1204.00,51.097
1205.00,51.139
1206.00,51.125
1207.00,51.114
1208.00,51.114
1209.00,51.120
1210.00,51.109
1211.00,51.118
1212.00,51.152
1213.00,51.117
1214.00,51.134
1215.00,51.084
1216.00,51.121
1217.00,51.118
1218.00,51.102
1219.00,51.119
1220.00,51.098
1221.00,51.119
1222.00,51.123
1223.00,51.151
1224.00,51.146
1225.00,51.136
1226.00,51.104
1227.00,51.122
1228.00,51.146
1229.00,51.121
1230.00,51.147
1231.00,51.137
1232.00,51.177
1233.00,51.186
1234.00,51.180
1235.00,51.189
1236.00,51.196
1237.00,51.158
1238.00,51.182
1239.00,51.189
1240.00,51.152
1241.00,51.185
1242.00,51.187
1243.00,51.201
1244.00,51.173
1245.00,51.184
1246.00,51.218
1247.00,51.211
1248.00,51.183
1249.00,51.213
1250.00,51.198
1251.00,51.185
1252.00,51.211
1253.00,51.208
1254.00,51.216
1255.00,51.202
1256.00,51.191
1257.00,51.204
1258.00,51.232
1259.00,51.194
1260.00,51.233
1261.00,51.227
1262.00,51.222
1263.00,51.233
1264.00,51.231
1265.00,51.241
1266.00,51.254
1267.00,51.258
1268.00,51.274
1269.00,51.272
1270.00,51.285
1271.00,51.279
1272.00,51.325
1273.00,51.327
1274.00,51.308
1275.00,51.321
1276.00,51.327
1277.00,51.322
1278.00,51.328
1279.00,51.336
1280.00,51.325
1281.00,51.324
1282.00,51.347
1283.00,51.327
1284.00,51.333
1285.00,51.341
1286.00,51.345
1287.00,51.323
1288.00,51.375
1289.00,51.364
1290.00,51.392
1291.00,51.386
1292.00,51.364
1293.00,51.387
1294.00,51.401
1295.00,51.404
1296.00,51.416
1297.00,51.422
1298.00,51.438
1299.00,51.417
1300.00,51.436
1301.00,51.432
1302.00,51.450
1303.00,51.438
1304.00,51.428
1305.00,51.458
1306.00,51.437
1307.00,51.461
1308.00,51.453
1309.00,51.454
1310.00,51.453
1311.00,51.433
1312.00,51.451
1313.00,51.456
1314.00,51.476
1315.00,51.501
1316.00,51.504
1317.00,51.511
1318.00,51.528
1319.00,51.544
1320.00,51.541
1321.00,51.706
1322.00,51.703
1323.00,51.664
1324.00,51.672
1325.00,51.638
1326.00,51.657
1327.00,51.647
1328.00,51.636
1329.00,51.622
1330.00,51.637
1331.00,51.618
1332.00,51.655
1333.00,51.644
1334.00,51.680
1335.00,51.705
1336.00,51.725
1337.00,51.745
1338.00,51.836
1339.00,51.845
1340.00,51.944
1341.00,52.005
1342.00,52.063
1343.00,52.136
1344.00,52.172
1345.00,52.235
1346.00,52.256
1347.00,52.281
1348.00,52.309
1349.00,52.324
1350.00,52.328
1351.00,52.361
1352.00,52.347
1353.00,52.281
1354.00,52.352
1355.00,52.320
1356.00,52.367
1357.00,52.345
1358.00,52.333
1359.00,52.354
1360.00,52.341
1361.00,52.353
1362.00,52.329
1363.00,52.283
1364.00,52.418
1365.00,52.385
1366.00,52.429
1367.00,52.397
1368.00,52.350
1369.00,52.362
1370.00,52.379
1371.00,52.358
1372.00,52.344
1373.00,52.380
1374.00,52.399
1375.00,52.369
1376.00,52.358
1377.00,52.343
1378.00,52.575
1379.00,52.312
1380.00,52.359
1381.00,52.372
1382.00,52.344
1383.00,52.363
1384.00,52.334
1385.00,52.274
1386.00,52.268
1387.00,52.310
1388.00,52.284
1389.00,52.299
1390.00,52.299
1391.00,52.341
1392.00,52.337
1393.00,52.370
1394.00,52.363
1395.00,52.340
1396.00,52.286
1397.00,52.276
1398.00,52.341
1399.00,52.391
1400.00,52.333
1401.00,52.309
1402.00,52.364
1403.00,52.387
1404.00,52.348
1405.00,52.382
1406.00,52.386
1407.00,52.370
1408.00,52.388
1409.00,52.383
1410.00,52.401
1411.00,52.333
1412.00,52.449
1413.00,52.385
1414.00,52.379
1415.00,52.431
1416.00,52.404
1417.00,52.458
1418.00,52.437
1419.00,52.420
1420.00,52.450
1421.00,52.472
1422.00,52.507
1423.00,52.485
1424.00,52.513
1425.00,52.529
1426.00,52.499
1427.00,52.518
1428.00,52.523
1429.00,52.558
1430.00,52.560
1431.00,52.591
1432.00,52.599
1433.00,52.609
1434.00,52.623
1435.00,52.644
1436.00,52.670
1437.00,52.648
1438.00,52.670
1439.00,52.717
1440.00,52.710
1441.00,52.717
1442.00,52.733
1443.00,52.749
1444.00,52.803
1445.00,52.765
1446.00,52.782
1447.00,52.805
1448.00,52.839
1449.00,52.868
1450.00,52.870
1451.00,52.880
1452.00,52.882
1453.00,52.906
1454.00,52.914
1455.00,52.940
1456.00,52.956
1457.00,52.932
1458.00,52.957
1459.00,52.973
1460.00,52.982
1461.00,52.980
1462.00,53.022
1463.00,53.004
1464.00,53.019
1465.00,53.039
1466.00,53.034
1467.00,53.084
1468.00,53.109
1469.00,53.089
1470.00,53.110
1471.00,53.106
1472.00,53.126
1473.00,53.137
1474.00,53.147
1475.00,53.181
1476.00,53.177
1477.00,53.167
1478.00,53.203
1479.00,53.213
1480.00,53.197
1481.00,53.230
1482.00,53.230
1483.00,53.271
1484.00,53.282
1485.00,53.266
1486.00,53.290
1487.00,53.309
1488.00,53.315
1489.00,53.318
1490.00,53.329
1491.00,53.352
1492.00,53.375
1493.00,53.351
1494.00,53.402
1495.00,53.389
1496.00,53.402
1497.00,53.415
1498.00,53.420
1499.00,53.422
1500.00,53.433
1501.00, 
1502.00, 
1503.00, 
1504.00, 
1505.00, 
1506.00, 
1507.00, 
1508.00, 
1509.00, 
1510.00, 
1511.00, 
1512.00, 
1513.00, 
1514.00, 
1515.00, 
1516.00, 
1517.00, 
1518.00, 
1519.00, 
1520.00, 
1521.00, 
1522.00, 
1523.00, 
1524.00, 
1525.00, 
1526.00, 
1527.00, 
1528.00, 
1529.00, 
1530.00, 
1531.00, 
1532.00, 
1533.00, 
1534.00, 
1535.00, 
1536.00, 
1537.00, 
1538.00, 
1539.00, 
1540.00, 
1541.00, 
1542.00, 
1543.00, 
1544.00, 
1545.00, 
1546.00, 
1547.00, 
1548.00, 
1549.00, 
1550.00, 
1551.00, 
1552.00, 
1553.00, 
1554.00, 
1555.00, 
1556.00, 
1557.00, 
1558.00, 
1559.00, 
1560.00, 
1561.00, 
1562.00, 
1563.00, 
1564.00, 
1565.00, 
1566.00, 
1567.00, 
1568.00, 
1569.00, 
1570.00, 
1571.00, 
1572.00, 
1573.00, 
1574.00, 
1575.00, 
1576.00, 
1577.00, 
1578.00, 
1579.00, 
1580.00, 
1581.00, 
1582.00, 
1583.00, 
1584.00, 
1585.00, 
1586.00, 
1587.00, 
1588.00, 
1589.00, 
1590.00, 
1591.00, 
1592.00, 
1593.00, 
1594.00, 
1595.00, 
1596.00, 
1597.00, 
1598.00, 
1599.00, 
1600.00, 
1601.00, 
1602.00, 
1603.00, 
1604.00, 
1605.00, 
1606.00, 
1607.00, 
1608.00, 
1609.00, 
1610.00, 
1611.00, 
1612.00, 
1613.00, 
1614.00, 
1615.00, 
1616.00, 
1617.00, 
1618.00, 
1619.00, 
1620.00, 
1621.00, 
1622.00, 
1623.00, 
1624.00, 
1625.00, 
1626.00, 
1627.00, 
1628.00, 
1629.00, 
1630.00, 
1631.00, 
1632.00, 
1633.00, 
1634.00, 
1635.00, 
1636.00, 
1637.00, 
1638.00, 
1639.00, 
1640.00, 
1641.00, 
1642.00, 
1643.00, 
1644.00, 
1645.00, 
1646.00, 
1647.00, 
1648.00, 
1649.00, 
1650.00, 
1651.00, 
1652.00, 
1653.00, 
1654.00, 
1655.00, 
1656.00, 
1657.00, 
1658.00, 
1659.00, 
1660.00, 
1661.00, 
1662.00, 
1663.00, 
1664.00, 
1665.00, 
1666.00, 
1667.00, 
1668.00, 
1669.00, 
1670.00, 
1671.00, 
1672.00, 
1673.00, 
1674.00, 
1675.00, 
1676.00, 
1677.00, 
1678.00, 
1679.00, 
1680.00, 
1681.00, 
1682.00, 
1683.00, 
1684.00, 
1685.00, 
1686.00, 
1687.00, 
1688.00, 
1689.00, 
1690.00, 
1691.00, 
1692.00, 
1693.00, 
1694.00, 
1695.00, 
1696.00, 
1697.00, 
1698.00, 
1699.00, 
1700.00, 
1701.00, 
1702.00, 
1703.00, 
1704.00, 
1705.00, 
1706.00, 
1707.00, 
1708.00, 
1709.00, 
1710.00, 
1711.00, 
1712.00, 
1713.00, 
1714.00, 
1715.00, 
1716.00, 
1717.00, 
1718.00, 
1719.00, 
1720.00, 
1721.00, 
1722.00, 
1723.00, 
1724.00, 
1725.00, 
1726.00, 
1727.00, 
1728.00, 
1729.00, 
1730.00, 
1731.00, 
1732.00, 
1733.00, 
1734.00, 
1735.00, 
1736.00, 
1737.00, 
1738.00, 
1739.00, 
1740.00, 
1741.00, 
1742.00, 
1743.00, 
1744.00, 
1745.00, 
1746.00, 
1747.00, 
1748.00, 
1749.00, 
1750.00, 
1751.00, 
1752.00, 
1753.00, 
1754.00, 
1755.00, 
1756.00, 
1757.00, 
1758.00, 
1759.00, 
1760.00, 
1761.00, 
1762.00, 
1763.00, 
1764.00, 
1765.00, 
1766.00, 
1767.00, 
1768.00, 
1769.00, 
1770.00, 
1771.00, 
1772.00, 
1773.00, 
1774.00, 
1775.00, 
1776.00, 
1777.00, 
1778.00, 
1779.00, 
1780.00, 
1781.00, 
1782.00, 
1783.00, 
1784.00, 
1785.00, 
1786.00, 
1787.00, 
1788.00, 
1789.00, 
1790.00, 
1791.00, 
1792.00, 
1793.00, 
1794.00, 
1795.00, 
1796.00, 
1797.00, 
1798.00, 
1799.00, 
1800.00, 
1801.00, 
1802.00, 
1803.00, 
1804.00, 
1805.00, 
1806.00, 
1807.00, 
1808.00, 
1809.00, 
1810.00, 
1811.00, 
1812.00, 
1813.00, 
1814.00, 
1815.00, 
1816.00, 
1817.00, 
1818.00, 
1819.00, 
1820.00, 
1821.00, 
1822.00, 
1823.00, 
1824.00, 
1825.00, 
1826.00, 
1827.00, 
1828.00, 
1829.00, 
1830.00, 
1831.00, 
1832.00, 
1833.00, 
1834.00, 
1835.00, 
1836.00, 
1837.00, 
1838.00, 
1839.00, 
1840.00, 
1841.00, 
1842.00, 
1843.00, 
1844.00, 
1845.00, 
1846.00, 
1847.00, 
1848.00, 
1849.00, 
1850.00, 
1851.00, 
1852.00, 
1853.00, 
1854.00, 
1855.00, 
1856.00, 
1857.00, 
1858.00, 
1859.00, 
1860.00, 
1861.00, 
1862.00, 
1863.00, 
1864.00, 
1865.00, 
1866.00, 
1867.00, 
1868.00, 
1869.00, 
1870.00, 
1871.00, 
1872.00, 
1873.00, 
1874.00, 
1875.00, 
1876.00, 
1877.00, 
1878.00, 
1879.00, 
1880.00, 
1881.00, 
1882.00, 
1883.00, 
1884.00, 
1885.00, 
1886.00, 
1887.00, 
1888.00, 
1889.00, 
1890.00, 
1891.00, 
1892.00, 
1893.00, 
1894.00, 
1895.00, 
1896.00, 
1897.00, 
1898.00, 
1899.00, 
1900.00, 
1901.00, 
1902.00, 
1903.00, 
1904.00, 
1905.00, 
1906.00, 
1907.00, 
1908.00, 
1909.00, 
1910.00, 
1911.00, 
1912.00, 
1913.00, 
1914.00, 
1915.00, 
1916.00, 
1917.00, 
1918.00, 
1919.00, 
1920.00, 
1921.00, 
1922.00, 
1923.00, 
1924.00, 
1925.00, 
1926.00, 
1927.00, 
1928.00, 
1929.00, 
1930.00, 
1931.00, 
1932.00, 
1933.00, 
1934.00, 
1935.00, 
1936.00, 
1937.00, 
1938.00, 
1939.00, 
1940.00, 
1941.00, 
1942.00, 
1943.00, 
1944.00, 
1945.00, 
1946.00, 
1947.00, 
1948.00, 
1949.00, 
1950.00, 
1951.00, 
1952.00, 
1953.00, 
1954.00, 
1955.00, 
1956.00, 
1957.00, 
1958.00, 
1959.00, 
1960.00, 
1961.00, 
1962.00, 
1963.00, 
1964.00, 
1965.00, 
1966.00, 
1967.00, 
1968.00, 
1969.00, 
1970.00, 
1971.00, 
1972.00, 
1973.00, 
1974.00, 
1975.00, 
1976.00, 
1977.00, 
1978.00, 
1979.00, 
1980.00, 
1981.00, 
1982.00, 
1983.00, 
1984.00, 
1985.00, 
1986.00, 
1987.00, 
1988.00, 
1989.00, 
1990.00, 
1991.00, 
1992.00, 
1993.00, 
1994.00, 
1995.00, 
1996.00, 
1997.00, 
1998.00, 
1999.00, 
2000.00, 
2001.00, 
2002.00, 
2003.00, 
2004.00, 
2005.00, 
2006.00, 
2007.00, 
2008.00, 
2009.00, 
2010.00, 
2011.00, 
2012.00, 
2013.00, 
2014.00, 
2015.00, 
2016.00, 
2017.00, 
2018.00, 
2019.00, 
2020.00, 
2021.00, 
2022.00, 
2023.00, 
2024.00, 
2025.00, 
2026.00, 
2027.00, 
2028.00, 
2029.00, 
2030.00, 
2031.00, 
2032.00, 
2033.00, 
2034.00, 
2035.00, 
2036.00, 
2037.00, 
2038.00, 
2039.00, 
2040.00, 
2041.00, 
2042.00, 
2043.00, 
2044.00, 
2045.00, 
2046.00, 
2047.00, 
2048.00, 
2049.00, 
2050.00, 
2051.00, 
2052.00, 
2053.00, 
2054.00, 
2055.00, 
2056.00, 
2057.00, 
2058.00, 
2059.00, 
2060.00, 
2061.00, 
2062.00, 
2063.00, 
2064.00, 
2065.00, 
2066.00, 
2067.00, 
2068.00, 
2069.00, 
2070.00, 
2071.00, 
2072.00, 
2073.00, 
2074.00, 
2075.00, 
2076.00, 
2077.00, 
2078.00, 
2079.00, 
2080.00, 
2081.00, 
2082.00, 
2083.00, 
2084.00, 
2085.00, 
2086.00, 
2087.00, 
2088.00, 
2089.00, 
2090.00, 
2091.00, 
2092.00, 
2093.00, 
2094.00, 
2095.00, 
2096.00, 
2097.00, 
2098.00, 
2099.00, 
2100.00, 
2101.00, 
2102.00, 
2103.00, 
2104.00, 
2105.00, 
2106.00, 
2107.00, 
2108.00, 
2109.00, 
2110.00, 
2111.00, 
2112.00, 
2113.00, 
2114.00, 
2115.00, 
2116.00, 
2117.00, 
2118.00, 
2119.00, 
2120.00, 
2121.00, 
2122.00, 
2123.00, 
2124.00, 
2125.00, 
2126.00, 
2127.00, 
2128.00, 
2129.00, 
2130.00, 
2131.00, 
2132.00, 
2133.00, 
2134.00, 
2135.00, 
2136.00, 
2137.00, 
2138.00, 
2139.00, 
2140.00, 
2141.00, 
2142.00, 
2143.00, 
2144.00, 
2145.00, 
2146.00, 
2147.00, 
2148.00, 
2149.00, 
2150.00, 
2151.00, 
2152.00, 
2153.00, 
2154.00, 
2155.00, 
2156.00, 
2157.00, 
2158.00, 
2159.00, 
2160.00, 
2161.00, 
2162.00, 
2163.00, 
2164.00, 
2165.00, 
2166.00, 
2167.00, 
2168.00, 
2169.00, 
2170.00, 
2171.00, 
2172.00, 
2173.00, 
2174.00, 
2175.00, 
2176.00, 
2177.00, 
2178.00, 
2179.00, 
2180.00, 
2181.00, 
2182.00, 
2183.00, 
2184.00, 
2185.00, 
2186.00, 
2187.00, 
2188.00, 
2189.00, 
2190.00, 
2191.00, 
2192.00, 
2193.00, 
2194.00, 
2195.00, 
2196.00, 
2197.00, 
2198.00, 
2199.00, 
2200.00, 
2201.00, 
2202.00, 
2203.00, 
2204.00, 
2205.00, 
2206.00, 
2207.00, 
2208.00, 
2209.00, 
2210.00, 
2211.00, 
2212.00, 
2213.00, 
2214.00, 
2215.00, 
2216.00, 
2217.00, 
2218.00, 
2219.00, 
2220.00, 
2221.00, 
2222.00, 
2223.00, 
2224.00, 
2225.00, 
2226.00, 
2227.00, 
2228.00, 
2229.00, 
2230.00, 
2231.00, 
2232.00, 
2233.00, 
2234.00, 
2235.00, 
2236.00, 
2237.00, 
2238.00, 
2239.00, 
2240.00, 
2241.00, 
2242.00, 
2243.00, 
2244.00, 
2245.00, 
2246.00, 
2247.00, 
2248.00, 
2249.00, 
2250.00, 
2251.00, 
2252.00, 
2253.00, 
2254.00, 
2255.00, 
2256.00, 
2257.00, 
2258.00, 
2259.00, 
2260.00, 
2261.00, 
2262.00, 
2263.00, 
2264.00, 
2265.00, 
2266.00, 
2267.00, 
2268.00, 
2269.00, 
2270.00, 
2271.00, 
2272.00, 
2273.00, 
2274.00, 
2275.00, 
2276.00, 
2277.00, 
2278.00, 
2279.00, 
2280.00, 
2281.00, 
2282.00, 
2283.00, 
2284.00, 
2285.00, 
2286.00, 
2287.00, 
2288.00, 
2289.00, 
2290.00, 
2291.00, 
2292.00, 
2293.00, 
2294.00, 
2295.00, 
2296.00, 
2297.00, 
2298.00, 
2299.00, 
2300.00, 
2301.00, 
2302.00, 
2303.00, 
2304.00, 
2305.00, 
2306.00, 
2307.00, 
2308.00, 
2309.00, 
2310.00, 
2311.00, 
2312.00, 
2313.00, 
2314.00, 
2315.00, 
2316.00, 
2317.00, 
2318.00, 
2319.00, 
2320.00, 
2321.00, 
2322.00, 
2323.00, 
2324.00, 
2325.00, 
2326.00, 
2327.00, 
2328.00, 
2329.00, 
2330.00, 
2331.00, 
2332.00, 
2333.00, 
2334.00, 
2335.00, 
2336.00, 
2337.00, 
2338.00, 
2339.00, 
2340.00, 
2341.00, 
2342.00, 
2343.00, 
2344.00, 
2345.00, 
2346.00, 
2347.00, 
2348.00, 
2349.00, 
2350.00, 
2351.00, 
2352.00, 
2353.00, 
2354.00, 
2355.00, 
2356.00, 
2357.00, 
2358.00, 
2359.00, 
2360.00, 
2361.00, 
2362.00, 
2363.00, 
2364.00, 
2365.00, 
2366.00, 
2367.00, 
2368.00, 
2369.00, 
2370.00, 
2371.00, 
2372.00, 
2373.00, 
2374.00, 
2375.00, 
2376.00, 
2377.00, 
2378.00, 
2379.00, 
2380.00, 
2381.00, 
2382.00, 
2383.00, 
2384.00, 
2385.00, 
2386.00, 
2387.00, 
2388.00, 
2389.00, 
2390.00, 
2391.00, 
2392.00, 
2393.00, 
2394.00, 
2395.00, 
2396.00, 
2397.00, 
2398.00, 
2399.00, 
2400.00, 
2401.00, 
2402.00, 
2403.00, 
2404.00, 
2405.00, 
2406.00, 
2407.00, 
2408.00, 
2409.00, 
2410.00, 
2411.00, 
2412.00, 
2413.00, 
2414.00, 
2415.00, 
2416.00, 
2417.00, 
2418.00, 
2419.00, 
2420.00, 
2421.00, 
2422.00, 
2423.00, 
2424.00, 
2425.00, 
2426.00, 
2427.00, 
2428.00, 
2429.00, 
2430.00, 
2431.00, 
2432.00, 
2433.00, 
2434.00, 
2435.00, 
2436.00, 
2437.00, 
2438.00, 
2439.00, 
2440.00, 
2441.00, 
2442.00, 
2443.00, 
2444.00, 
2445.00, 
2446.00, 
2447.00, 
2448.00, 
2449.00, 
2450.00, 
2451.00, 
2452.00, 
2453.00, 
2454.00, 
2455.00, 
2456.00, 
2457.00, 
2458.00, 
2459.00, 
2460.00, 
2461.00, 
2462.00, 
2463.00, 
2464.00, 
2465.00, 
2466.00, 
2467.00, 
2468.00, 
2469.00, 
2470.00, 
2471.00, 
2472.00, 
2473.00, 
2474.00, 
2475.00, 
2476.00, 
2477.00, 
2478.00, 
2479.00, 
2480.00, 
2481.00, 
2482.00, 
2483.00, 
2484.00, 
2485.00, 
2486.00, 
2487.00, 
2488.00, 
2489.00, 
2490.00, 
2491.00, 
2492.00, 
2493.00, 
2494.00, 
2495.00, 
2496.00, 
2497.00, 
2498.00, 
2499.00, 
2500.00, 
2501.00, 
2502.00, 
2503.00, 
2504.00, 
2505.00, 
2506.00, 
2507.00, 
2508.00, 
2509.00, 
2510.00, 
2511.00, 
2512.00, 
2513.00, 
2514.00, 
2515.00, 
2516.00, 
2517.00, 
2518.00, 
2519.00, 
2520.00, 
2521.00, 
2522.00, 
2523.00, 
2524.00, 
2525.00, 
2526.00, 
2527.00, 
2528.00, 
2529.00, 
2530.00, 
2531.00, 
2532.00, 
2533.00, 
2534.00, 
2535.00, 
2536.00, 
2537.00, 
2538.00, 
2539.00, 
2540.00, 
2541.00, 
2542.00, 
2543.00, 
2544.00, 
2545.00, 
2546.00, 
2547.00, 
2548.00, 
2549.00, 
2550.00, 
2551.00, 
2552.00, 
2553.00, 
2554.00, 
2555.00, 
2556.00, 
2557.00, 
2558.00, 
2559.00, 
2560.00, 
2561.00, 
2562.00, 
2563.00, 
2564.00, 
2565.00, 
2566.00, 
2567.00, 
2568.00, 
2569.00, 
2570.00, 
2571.00, 
2572.00, 
2573.00, 
2574.00, 
2575.00, 
2576.00, 
2577.00, 
2578.00, 
2579.00, 
2580.00, 
2581.00, 
2582.00, 
2583.00, 
2584.00, 
2585.00, 
2586.00, 
2587.00, 
2588.00, 
2589.00, 
2590.00, 
2591.00, 
2592.00, 
2593.00, 
2594.00, 
2595.00, 
2596.00, 
2597.00, 
2598.00, 
2599.00, 
2600.00, 
