"1cP2 - RawData"
"Wavelength nm.","T%"
200.00,-0.001
201.00,-0.002
202.00,0.001
203.00,-0.001
204.00,-0.001
205.00,0.003
206.00,0.001
207.00,-0.001
208.00,0.002
209.00,0.000
210.00,0.001
211.00,0.001
212.00,0.002
213.00,0.004
214.00,0.002
215.00,0.001
216.00,-0.001
217.00,-0.003
218.00,-0.001
219.00,-0.002
220.00,0.003
221.00,0.003
222.00,0.001
223.00,0.002
224.00,0.000
225.00,0.001
226.00,-0.001
227.00,0.002
228.00,-0.000
229.00,0.000
230.00,0.002
231.00,-0.000
232.00,0.001
233.00,-0.000
234.00,0.002
235.00,0.002
236.00,0.000
237.00,-0.000
238.00,0.002
239.00,-0.000
240.00,0.000
241.00,0.002
242.00,0.001
243.00,0.001
244.00,0.002
245.00,0.000
246.00,0.001
247.00,0.003
248.00,0.003
249.00,-0.000
250.00,-0.000
251.00,-0.000
252.00,-0.002
253.00,0.001
254.00,0.001
255.00,0.001
256.00,0.000
257.00,-0.002
258.00,0.001
259.00,-0.001
260.00,-0.000
261.00,0.001
262.00,0.001
263.00,0.002
264.00,0.002
265.00,0.000
266.00,-0.000
267.00,0.000
268.00,0.000
269.00,0.001
270.00,0.001
271.00,0.000
272.00,-0.001
273.00,0.000
274.00,0.001
275.00,-0.000
276.00,-0.000
277.00,0.000
278.00,0.001
279.00,0.001
280.00,0.000
281.00,-0.000
282.00,0.001
283.00,-0.001
284.00,-0.000
285.00,-0.000
286.00,0.000
287.00,0.001
288.00,-0.000
289.00,0.001
290.00,0.001
291.00,-0.001
292.00,0.000
293.00,-0.001
294.00,0.000
295.00,-0.001
296.00,-0.000
297.00,0.000
298.00,0.000
299.00,-0.001
300.00,-0.000
301.00,0.000
302.00,0.000
303.00,0.002
304.00,0.002
305.00,0.001
306.00,0.001
307.00,0.002
308.00,0.008
309.00,0.017
310.00,0.022
311.00,0.036
312.00,0.052
313.00,0.082
314.00,0.122
315.00,0.182
316.00,0.262
317.00,0.363
318.00,0.510
319.00,0.652
320.00,0.900
321.00,1.182
322.00,1.507
323.00,1.898
324.00,2.366
325.00,2.844
326.00,3.389
327.00,4.036
328.00,4.720
329.00,5.449
330.00,6.270
331.00,7.067
332.00,7.925
333.00,8.902
334.00,9.753
335.00,10.862
336.00,11.833
337.00,12.886
338.00,13.910
339.00,14.868
340.00,15.814
341.00,16.822
342.00,17.746
343.00,18.669
344.00,19.593
345.00,20.505
346.00,21.272
347.00,22.057
348.00,22.831
349.00,23.525
350.00,24.182
351.00,24.825
352.00,25.393
353.00,26.013
354.00,26.556
355.00,27.048
356.00,27.471
357.00,27.886
358.00,28.356
359.00,28.806
360.00,29.170
361.00,29.462
362.00,29.812
363.00,30.156
364.00,30.293
365.00,30.502
366.00,30.708
367.00,30.845
368.00,31.029
369.00,31.095
370.00,31.239
371.00,31.259
372.00,31.271
373.00,31.362
374.00,31.346
375.00,31.268
376.00,31.196
377.00,31.136
378.00,31.008
379.00,30.921
380.00,30.929
381.00,30.958
382.00,31.008
383.00,31.042
384.00,31.134
385.00,31.201
386.00,31.292
387.00,31.475
388.00,31.634
389.00,31.722
390.00,31.758
391.00,31.848
392.00,31.940
393.00,31.990
394.00,32.085
395.00,32.104
396.00,32.098
397.00,32.184
398.00,32.126
399.00,32.150
400.00,32.184
401.00,32.093
402.00,32.236
403.00,32.243
404.00,32.197
405.00,32.227
406.00,32.259
407.00,32.146
408.00,32.147
409.00,32.103
410.00,31.920
411.00,31.989
412.00,31.918
413.00,31.931
414.00,31.851
415.00,31.822
416.00,31.846
417.00,31.769
418.00,31.785
419.00,31.922
420.00,31.934
421.00,31.828
422.00,31.844
423.00,31.900
424.00,31.948
425.00,31.930
426.00,31.914
427.00,31.992
428.00,31.990
429.00,32.003
430.00,32.018
431.00,32.085
432.00,32.077
433.00,32.137
434.00,32.115
435.00,32.216
436.00,32.239
437.00,32.241
438.00,32.361
439.00,32.282
440.00,32.416
441.00,32.456
442.00,32.540
443.00,32.574
444.00,32.673
445.00,32.734
446.00,32.786
447.00,32.876
448.00,32.968
449.00,33.036
450.00,33.108
451.00,33.178
452.00,33.291
453.00,33.373
454.00,33.450
455.00,33.558
456.00,33.608
457.00,33.745
458.00,33.785
459.00,33.940
460.00,34.063
461.00,34.231
462.00,34.181
463.00,34.345
464.00,34.446
465.00,34.550
466.00,34.633
467.00,34.772
468.00,34.791
469.00,34.884
470.00,34.927
471.00,34.991
472.00,35.066
473.00,35.151
474.00,35.237
475.00,35.333
476.00,35.371
477.00,35.513
478.00,35.561
479.00,35.734
480.00,35.863
481.00,35.994
482.00,36.060
483.00,36.219
484.00,36.396
485.00,36.367
486.00,36.602
487.00,36.604
488.00,36.796
489.00,36.933
490.00,37.058
491.00,37.095
492.00,37.213
493.00,37.420
494.00,37.543
495.00,37.552
496.00,37.675
497.00,37.707
498.00,37.884
499.00,37.944
500.00,38.119
501.00,38.163
502.00,38.241
503.00,38.381
504.00,38.360
505.00,38.485
506.00,38.603
507.00,38.650
508.00,38.735
509.00,38.880
510.00,38.993
511.00,39.043
512.00,39.228
513.00,39.276
514.00,39.463
515.00,39.563
516.00,39.610
517.00,39.673
518.00,39.771
519.00,39.811
520.00,39.852
521.00,40.002
522.00,40.024
523.00,40.063
524.00,40.161
525.00,40.285
526.00,40.347
527.00,40.341
528.00,40.388
529.00,40.561
530.00,40.736
531.00,40.813
532.00,40.839
533.00,40.946
534.00,41.005
535.00,41.098
536.00,41.118
537.00,41.258
538.00,41.265
539.00,41.272
540.00,41.383
541.00,41.356
542.00,41.444
543.00,41.463
544.00,41.570
545.00,41.668
546.00,41.705
547.00,41.762
548.00,41.863
549.00,41.919
550.00,41.912
551.00,42.128
552.00,42.149
553.00,42.046
554.00,42.112
555.00,42.235
556.00,42.286
557.00,42.344
558.00,42.412
559.00,42.496
560.00,42.585
561.00,42.626
562.00,42.668
563.00,42.668
564.00,42.691
565.00,42.710
566.00,42.736
567.00,42.823
568.00,42.808
569.00,42.851
570.00,42.914
571.00,42.839
572.00,42.948
573.00,42.890
574.00,42.949
575.00,42.966
576.00,42.943
577.00,43.038
578.00,43.098
579.00,43.164
580.00,43.218
581.00,43.336
582.00,43.420
583.00,43.406
584.00,43.497
585.00,43.552
586.00,43.588
587.00,43.647
588.00,43.624
589.00,43.587
590.00,43.693
591.00,43.683
592.00,43.625
593.00,43.702
594.00,43.797
595.00,43.909
596.00,43.939
597.00,43.856
598.00,43.889
599.00,43.957
600.00,44.075
601.00,44.079
602.00,44.030
603.00,44.194
604.00,44.134
605.00,44.253
606.00,44.190
607.00,44.192
608.00,44.212
609.00,44.329
610.00,44.481
611.00,44.323
612.00,44.355
613.00,44.395
614.00,44.415
615.00,44.457
616.00,44.588
617.00,44.515
618.00,44.556
619.00,44.614
620.00,44.628
621.00,44.651
622.00,44.726
623.00,44.741
624.00,44.779
625.00,44.889
626.00,44.851
627.00,44.988
628.00,45.023
629.00,44.939
630.00,44.962
631.00,44.958
632.00,45.074
633.00,45.162
634.00,45.179
635.00,45.271
636.00,45.319
637.00,45.246
638.00,45.316
639.00,45.453
640.00,45.351
641.00,45.392
642.00,45.473
643.00,45.510
644.00,45.530
645.00,45.547
646.00,45.791
647.00,45.702
648.00,45.728
649.00,45.735
650.00,45.756
651.00,45.905
652.00,45.894
653.00,45.831
654.00,45.824
655.00,46.062
656.00,46.269
657.00,46.013
658.00,46.243
659.00,46.148
660.00,46.159
661.00,46.154
662.00,46.292
663.00,46.296
664.00,46.531
665.00,46.689
666.00,46.611
667.00,46.609
668.00,46.548
669.00,46.796
670.00,47.065
671.00,46.816
672.00,46.931
673.00,46.936
674.00,46.981
675.00,47.081
676.00,47.176
677.00,47.294
678.00,47.106
679.00,47.324
680.00,47.254
681.00,47.337
682.00,47.379
683.00,47.303
684.00,47.442
685.00,47.466
686.00,47.342
687.00,47.219
688.00,47.420
689.00,47.631
690.00,47.776
691.00,47.954
692.00,47.720
693.00,47.675
694.00,47.791
695.00,47.919
696.00,47.890
697.00,47.853
698.00,47.875
699.00,48.239
700.00,48.242
701.00,48.060
702.00,48.096
703.00,48.276
704.00,48.363
705.00,48.150
706.00,48.227
707.00,48.358
708.00,48.162
709.00,48.501
710.00,48.860
711.00,48.379
712.00,48.319
713.00,48.545
714.00,48.571
715.00,48.583
716.00,48.556
717.00,48.640
718.00,48.772
719.00,48.663
720.00,48.713
721.00,53.402
722.00,53.322
723.00,53.284
724.00,53.307
725.00,53.297
726.00,53.252
727.00,53.133
728.00,53.174
729.00,53.244
730.00,53.156
731.00,53.185
732.00,53.207
733.00,53.275
734.00,53.191
735.00,53.182
736.00,53.102
737.00,53.137
738.00,53.179
739.00,53.126
740.00,53.106
741.00,53.144
742.00,53.113
743.00,53.103
744.00,53.012
745.00,53.054
746.00,52.994
747.00,53.005
748.00,52.929
749.00,52.919
750.00,52.929
751.00,52.817
752.00,52.871
753.00,52.818
754.00,52.833
755.00,52.815
756.00,52.759
757.00,52.809
758.00,52.728
759.00,52.697
760.00,52.733
761.00,52.679
762.00,52.718
763.00,52.654
764.00,52.556
765.00,52.590
766.00,52.548
767.00,52.635
768.00,52.553
769.00,52.551
770.00,52.543
771.00,52.609
772.00,52.542
773.00,52.521
774.00,52.472
775.00,52.510
776.00,52.384
777.00,52.637
778.00,52.454
779.00,52.412
780.00,52.415
781.00,52.459
782.00,52.403
783.00,52.323
784.00,52.327
785.00,52.284
786.00,52.222
787.00,52.253
788.00,52.198
789.00,52.237
790.00,52.096
791.00,52.226
792.00,52.107
793.00,52.093
794.00,52.065
795.00,52.041
796.00,52.035
797.00,51.944
798.00,51.970
799.00,51.922
800.00,51.913
801.00,51.887
802.00,51.866
803.00,51.795
804.00,51.734
805.00,51.776
806.00,51.761
807.00,51.750
808.00,51.698
809.00,51.736
810.00,51.601
811.00,51.675
812.00,51.677
813.00,51.560
814.00,51.513
815.00,51.465
816.00,51.506
817.00,51.516
818.00,51.382
819.00,51.374
820.00,51.401
821.00,51.331
822.00,51.358
823.00,51.342
824.00,51.373
825.00,51.259
826.00,51.307
827.00,51.193
828.00,51.274
829.00,51.147
830.00,51.190
831.00,53.622
832.00,53.539
833.00,53.534
834.00,53.524
835.00,53.496
836.00,53.470
837.00,53.412
838.00,53.423
839.00,53.398
840.00,53.349
841.00,53.327
842.00,53.297
843.00,53.291
844.00,53.285
845.00,53.201
846.00,53.205
847.00,53.195
848.00,53.239
849.00,53.102
850.00,53.071
851.00,53.032
852.00,53.022
853.00,52.954
854.00,52.911
855.00,52.887
856.00,52.857
857.00,52.815
858.00,52.796
859.00,52.766
860.00,52.758
861.00,52.745
862.00,52.701
863.00,52.711
864.00,52.658
865.00,52.665
866.00,52.674
867.00,52.660
868.00,52.616
869.00,52.596
870.00,52.602
871.00,52.560
872.00,52.534
873.00,52.545
874.00,52.542
875.00,52.493
876.00,52.491
877.00,52.495
878.00,52.479
879.00,52.461
880.00,52.434
881.00,52.393
882.00,52.433
883.00,52.382
884.00,52.324
885.00,52.313
886.00,52.278
887.00,52.257
888.00,52.248
889.00,52.232
890.00,52.204
891.00,52.180
892.00,52.178
893.00,52.160
894.00,52.144
895.00,52.114
896.00,52.066
897.00,52.071
898.00,52.020
899.00,52.016
900.00,52.001
901.00,51.979
902.00,51.988
903.00,51.993
904.00,51.947
905.00,51.923
906.00,51.901
907.00,51.872
908.00,51.820
909.00,51.811
910.00,51.784
911.00,51.780
912.00,51.768
913.00,51.720
914.00,51.732
915.00,51.682
916.00,51.658
917.00,51.621
918.00,51.620
919.00,51.602
920.00,51.572
921.00,51.553
922.00,51.547
923.00,51.515
924.00,51.481
925.00,51.495
926.00,51.480
927.00,51.445
928.00,51.419
929.00,51.403
930.00,51.386
931.00,51.379
932.00,51.327
933.00,51.354
934.00,51.299
935.00,51.267
936.00,51.249
937.00,51.228
938.00,51.233
939.00,51.193
940.00,51.155
941.00,51.161
942.00,51.132
943.00,51.127
944.00,51.057
945.00,51.076
946.00,51.054
947.00,51.023
948.00,50.986
949.00,50.990
950.00,50.977
951.00,50.925
952.00,50.920
953.00,50.893
954.00,50.848
955.00,50.829
956.00,50.817
957.00,50.790
958.00,50.790
959.00,50.714
960.00,50.709
961.00,50.706
962.00,50.700
963.00,50.672
964.00,50.657
965.00,50.646
966.00,50.649
967.00,50.619
968.00,50.609
969.00,50.630
970.00,50.607
971.00,50.602
972.00,50.556
973.00,50.642
974.00,50.710
975.00,50.609
976.00,50.613
977.00,50.610
978.00,50.627
979.00,50.582
980.00,50.612
981.00,50.599
982.00,50.593
983.00,50.606
984.00,50.560
985.00,50.601
986.00,50.569
987.00,50.584
988.00,50.540
989.00,50.527
990.00,50.512
991.00,50.499
992.00,50.505
993.00,50.493
994.00,50.474
995.00,50.440
996.00,50.449
997.00,50.429
998.00,50.407
999.00,50.421
1000.00,50.365
1001.00,50.374
1002.00,50.364
1003.00,50.362
1004.00,50.334
1005.00,50.305
1006.00,50.361
1007.00,50.314
1008.00,50.297
1009.00,50.265
1010.00,50.276
1011.00,50.245
1012.00,50.209
1013.00,50.219
1014.00,50.192
1015.00,50.203
1016.00,50.172
1017.00,50.157
1018.00,50.150
1019.00,50.131
1020.00,50.101
1021.00,50.101
1022.00,50.120
1023.00,50.027
1024.00,50.037
1025.00,50.010
1026.00,50.002
1027.00,49.962
1028.00,49.961
1029.00,49.968
1030.00,49.928
1031.00,49.933
1032.00,49.904
1033.00,49.895
1034.00,49.865
1035.00,49.835
1036.00,49.794
1037.00,49.795
1038.00,49.789
1039.00,49.755
1040.00,49.764
1041.00,49.730
1042.00,49.732
1043.00,49.710
1044.00,49.736
1045.00,49.711
1046.00,49.689
1047.00,49.703
1048.00,49.736
1049.00,49.731
1050.00,49.730
1051.00,49.776
1052.00,49.782
1053.00,49.771
1054.00,49.780
1055.00,49.795
1056.00,49.786
1057.00,49.805
1058.00,49.790
1059.00,49.794
1060.00,49.785
1061.00,49.761
1062.00,49.760
1063.00,49.757
1064.00,49.748
1065.00,49.755
1066.00,49.747
1067.00,49.762
1068.00,49.759
1069.00,49.725
1070.00,49.706
1071.00,49.697
1072.00,49.714
1073.00,49.699
1074.00,49.682
1075.00,49.668
1076.00,49.682
1077.00,49.654
1078.00,49.630
1079.00,49.648
1080.00,49.641
1081.00,49.639
1082.00,49.653
1083.00,49.615
1084.00,49.627
1085.00,49.626
1086.00,49.605
1087.00,49.616
1088.00,49.580
1089.00,49.550
1090.00,49.559
1091.00,49.555
1092.00,49.557
1093.00,49.538
1094.00,49.505
1095.00,49.513
1096.00,49.504
1097.00,49.496
1098.00,49.493
1099.00,49.477
1100.00,49.478
1101.00,49.474
1102.00,49.456
1103.00,49.462
1104.00,49.447
1105.00,49.421
1106.00,49.421
1107.00,49.404
1108.00,49.385
1109.00,49.397
1110.00,49.389
1111.00,49.375
1112.00,49.375
1113.00,49.370
1114.00,49.358
1115.00,49.361
1116.00,49.344
1117.00,49.360
1118.00,49.330
1119.00,49.307
1120.00,49.330
1121.00,49.302
1122.00,49.285
1123.00,49.322
1124.00,49.283
1125.00,49.294
1126.00,49.293
1127.00,49.273
1128.00,49.284
1129.00,49.284
1130.00,49.230
1131.00,49.233
1132.00,49.215
1133.00,49.207
1134.00,49.209
1135.00,49.187
1136.00,49.206
1137.00,49.212
1138.00,49.197
1139.00,49.224
1140.00,49.215
1141.00,49.197
1142.00,49.205
1143.00,49.226
1144.00,49.202
1145.00,49.191
1146.00,49.185
1147.00,49.181
1148.00,49.180
1149.00,49.181
1150.00,49.193
1151.00,49.178
1152.00,49.165
1153.00,49.172
1154.00,49.149
1155.00,49.155
1156.00,49.152
1157.00,49.147
1158.00,49.148
1159.00,49.148
1160.00,49.132
1161.00,49.149
1162.00,49.137
1163.00,49.136
1164.00,49.144
1165.00,49.130
1166.00,49.136
1167.00,49.137
1168.00,49.136
1169.00,49.137
1170.00,49.128
1171.00,49.098
1172.00,49.127
1173.00,49.114
1174.00,49.132
1175.00,49.140
1176.00,49.113
1177.00,49.102
1178.00,49.109
1179.00,49.124
1180.00,49.117
1181.00,49.137
1182.00,49.128
1183.00,49.122
1184.00,49.109
1185.00,49.107
1186.00,49.101
1187.00,49.098
1188.00,49.081
1189.00,49.097
1190.00,49.098
1191.00,49.106
1192.00,49.126
1193.00,49.096
1194.00,49.112
1195.00,49.082
1196.00,49.113
1197.00,49.122
1198.00,49.099
1199.00,49.075
1200.00,49.113
1201.00,49.107
1202.00,49.103
1203.00,49.129
1204.00,49.087
1205.00,49.120
1206.00,49.108
1207.00,49.100
1208.00,49.100
1209.00,49.118
1210.00,49.112
1211.00,49.108
1212.00,49.117
1213.00,49.089
1214.00,49.109
1215.00,49.082
1216.00,49.124
1217.00,49.115
1218.00,49.107
1219.00,49.132
1220.00,49.108
1221.00,49.127
1222.00,49.113
1223.00,49.143
1224.00,49.135
1225.00,49.127
1226.00,49.110
1227.00,49.131
1228.00,49.148
1229.00,49.138
1230.00,49.170
1231.00,49.149
1232.00,49.151
1233.00,49.164
1234.00,49.160
1235.00,49.172
1236.00,49.173
1237.00,49.165
1238.00,49.176
1239.00,49.190
1240.00,49.180
1241.00,49.199
1242.00,49.192
1243.00,49.198
1244.00,49.187
1245.00,49.194
1246.00,49.222
1247.00,49.199
1248.00,49.192
1249.00,49.232
1250.00,49.230
1251.00,49.214
1252.00,49.248
1253.00,49.227
1254.00,49.246
1255.00,49.253
1256.00,49.233
1257.00,49.235
1258.00,49.272
1259.00,49.255
1260.00,49.289
1261.00,49.275
1262.00,49.268
1263.00,49.276
1264.00,49.266
1265.00,49.265
1266.00,49.279
1267.00,49.287
1268.00,49.311
1269.00,49.311
1270.00,49.314
1271.00,49.324
1272.00,49.322
1273.00,49.333
1274.00,49.343
1275.00,49.337
1276.00,49.330
1277.00,49.339
1278.00,49.346
1279.00,49.362
1280.00,49.337
1281.00,49.372
1282.00,49.406
1283.00,49.375
1284.00,49.387
1285.00,49.390
1286.00,49.388
1287.00,49.385
1288.00,49.405
1289.00,49.398
1290.00,49.435
1291.00,49.426
1292.00,49.424
1293.00,49.440
1294.00,49.447
1295.00,49.466
1296.00,49.473
1297.00,49.464
1298.00,49.491
1299.00,49.476
1300.00,49.485
1301.00,49.496
1302.00,49.507
1303.00,49.497
1304.00,49.495
1305.00,49.517
1306.00,49.516
1307.00,49.534
1308.00,49.521
1309.00,49.533
1310.00,49.532
1311.00,49.509
1312.00,49.539
1313.00,49.555
1314.00,49.574
1315.00,49.592
1316.00,49.592
1317.00,49.615
1318.00,49.620
1319.00,49.613
1320.00,49.627
1321.00,49.803
1322.00,49.792
1323.00,49.770
1324.00,49.777
1325.00,49.754
1326.00,49.772
1327.00,49.757
1328.00,49.767
1329.00,49.779
1330.00,49.797
1331.00,49.778
1332.00,49.799
1333.00,49.789
1334.00,49.811
1335.00,49.849
1336.00,49.859
1337.00,49.886
1338.00,49.951
1339.00,50.009
1340.00,50.107
1341.00,50.162
1342.00,50.190
1343.00,50.257
1344.00,50.286
1345.00,50.345
1346.00,50.383
1347.00,50.398
1348.00,50.432
1349.00,50.459
1350.00,50.458
1351.00,50.488
1352.00,50.484
1353.00,50.507
1354.00,50.500
1355.00,50.410
1356.00,50.540
1357.00,50.513
1358.00,50.538
1359.00,50.540
1360.00,50.561
1361.00,50.524
1362.00,50.563
1363.00,50.599
1364.00,50.585
1365.00,50.573
1366.00,50.493
1367.00,50.518
1368.00,50.500
1369.00,50.470
1370.00,50.564
1371.00,50.542
1372.00,50.550
1373.00,50.580
1374.00,50.584
1375.00,50.557
1376.00,50.562
1377.00,50.556
1378.00,50.648
1379.00,50.580
1380.00,50.549
1381.00,50.577
1382.00,50.559
1383.00,50.552
1384.00,50.516
1385.00,50.503
1386.00,50.487
1387.00,50.515
1388.00,50.479
1389.00,50.525
1390.00,50.502
1391.00,50.510
1392.00,50.515
1393.00,50.530
1394.00,50.548
1395.00,50.468
1396.00,50.522
1397.00,50.527
1398.00,50.526
1399.00,50.548
1400.00,50.470
1401.00,50.529
1402.00,50.322
1403.00,50.572
1404.00,50.555
1405.00,50.579
1406.00,50.627
1407.00,50.596
1408.00,50.604
1409.00,50.620
1410.00,50.649
1411.00,50.590
1412.00,50.692
1413.00,50.644
1414.00,50.646
1415.00,50.661
1416.00,50.692
1417.00,50.736
1418.00,50.700
1419.00,50.697
1420.00,50.746
1421.00,50.785
1422.00,50.766
1423.00,50.786
1424.00,50.777
1425.00,50.810
1426.00,50.822
1427.00,50.841
1428.00,50.843
1429.00,50.864
1430.00,50.864
1431.00,50.903
1432.00,50.915
1433.00,50.931
1434.00,50.943
1435.00,50.986
1436.00,50.991
1437.00,50.991
1438.00,51.002
1439.00,51.045
1440.00,51.052
1441.00,51.046
1442.00,51.083
1443.00,51.101
1444.00,51.135
1445.00,51.114
1446.00,51.134
1447.00,51.162
1448.00,51.193
1449.00,51.211
1450.00,51.218
1451.00,51.218
1452.00,51.236
1453.00,51.270
1454.00,51.278
1455.00,51.306
1456.00,51.339
1457.00,51.312
1458.00,51.350
1459.00,51.370
1460.00,51.392
1461.00,51.400
1462.00,51.454
1463.00,51.431
1464.00,51.467
1465.00,51.478
1466.00,51.482
1467.00,51.519
1468.00,51.553
1469.00,51.523
1470.00,51.548
1471.00,51.564
1472.00,51.582
1473.00,51.601
1474.00,51.618
1475.00,51.666
1476.00,51.655
1477.00,51.639
1478.00,51.697
1479.00,51.680
1480.00,51.687
1481.00,51.708
1482.00,51.728
1483.00,51.767
1484.00,51.762
1485.00,51.768
1486.00,51.784
1487.00,51.803
1488.00,51.822
1489.00,51.811
1490.00,51.825
1491.00,51.850
1492.00,51.882
1493.00,51.866
1494.00,51.910
1495.00,51.896
1496.00,51.916
1497.00,51.921
1498.00,51.928
1499.00,51.939
1500.00,51.961
1501.00, 
1502.00, 
1503.00, 
1504.00, 
1505.00, 
1506.00, 
1507.00, 
1508.00, 
1509.00, 
1510.00, 
1511.00, 
1512.00, 
1513.00, 
1514.00, 
1515.00, 
1516.00, 
1517.00, 
1518.00, 
1519.00, 
1520.00, 
1521.00, 
1522.00, 
1523.00, 
1524.00, 
1525.00, 
1526.00, 
1527.00, 
1528.00, 
1529.00, 
1530.00, 
1531.00, 
1532.00, 
1533.00, 
1534.00, 
1535.00, 
1536.00, 
1537.00, 
1538.00, 
1539.00, 
1540.00, 
1541.00, 
1542.00, 
1543.00, 
1544.00, 
1545.00, 
1546.00, 
1547.00, 
1548.00, 
1549.00, 
1550.00, 
1551.00, 
1552.00, 
1553.00, 
1554.00, 
1555.00, 
1556.00, 
1557.00, 
1558.00, 
1559.00, 
1560.00, 
1561.00, 
1562.00, 
1563.00, 
1564.00, 
1565.00, 
1566.00, 
1567.00, 
1568.00, 
1569.00, 
1570.00, 
1571.00, 
1572.00, 
1573.00, 
1574.00, 
1575.00, 
1576.00, 
1577.00, 
1578.00, 
1579.00, 
1580.00, 
1581.00, 
1582.00, 
1583.00, 
1584.00, 
1585.00, 
1586.00, 
1587.00, 
1588.00, 
1589.00, 
1590.00, 
1591.00, 
1592.00, 
1593.00, 
1594.00, 
1595.00, 
1596.00, 
1597.00, 
1598.00, 
1599.00, 
1600.00, 
1601.00, 
1602.00, 
1603.00, 
1604.00, 
1605.00, 
1606.00, 
1607.00, 
1608.00, 
1609.00, 
1610.00, 
1611.00, 
1612.00, 
1613.00, 
1614.00, 
1615.00, 
1616.00, 
1617.00, 
1618.00, 
1619.00, 
1620.00, 
1621.00, 
1622.00, 
1623.00, 
1624.00, 
1625.00, 
1626.00, 
1627.00, 
1628.00, 
1629.00, 
1630.00, 
1631.00, 
1632.00, 
1633.00, 
1634.00, 
1635.00, 
1636.00, 
1637.00, 
1638.00, 
1639.00, 
1640.00, 
1641.00, 
1642.00, 
1643.00, 
1644.00, 
1645.00, 
1646.00, 
1647.00, 
1648.00, 
1649.00, 
1650.00, 
1651.00, 
1652.00, 
1653.00, 
1654.00, 
1655.00, 
1656.00, 
1657.00, 
1658.00, 
1659.00, 
1660.00, 
1661.00, 
1662.00, 
1663.00, 
1664.00, 
1665.00, 
1666.00, 
1667.00, 
1668.00, 
1669.00, 
1670.00, 
1671.00, 
1672.00, 
1673.00, 
1674.00, 
1675.00, 
1676.00, 
1677.00, 
1678.00, 
1679.00, 
1680.00, 
1681.00, 
1682.00, 
1683.00, 
1684.00, 
1685.00, 
1686.00, 
1687.00, 
1688.00, 
1689.00, 
1690.00, 
1691.00, 
1692.00, 
1693.00, 
1694.00, 
1695.00, 
1696.00, 
1697.00, 
1698.00, 
1699.00, 
1700.00, 
1701.00, 
1702.00, 
1703.00, 
1704.00, 
1705.00, 
1706.00, 
1707.00, 
1708.00, 
1709.00, 
1710.00, 
1711.00, 
1712.00, 
1713.00, 
1714.00, 
1715.00, 
1716.00, 
1717.00, 
1718.00, 
1719.00, 
1720.00, 
1721.00, 
1722.00, 
1723.00, 
1724.00, 
1725.00, 
1726.00, 
1727.00, 
1728.00, 
1729.00, 
1730.00, 
1731.00, 
1732.00, 
1733.00, 
1734.00, 
1735.00, 
1736.00, 
1737.00, 
1738.00, 
1739.00, 
1740.00, 
1741.00, 
1742.00, 
1743.00, 
1744.00, 
1745.00, 
1746.00, 
1747.00, 
1748.00, 
1749.00, 
1750.00, 
1751.00, 
1752.00, 
1753.00, 
1754.00, 
1755.00, 
1756.00, 
1757.00, 
1758.00, 
1759.00, 
1760.00, 
1761.00, 
1762.00, 
1763.00, 
1764.00, 
1765.00, 
1766.00, 
1767.00, 
1768.00, 
1769.00, 
1770.00, 
1771.00, 
1772.00, 
1773.00, 
1774.00, 
1775.00, 
1776.00, 
1777.00, 
1778.00, 
1779.00, 
1780.00, 
1781.00, 
1782.00, 
1783.00, 
1784.00, 
1785.00, 
1786.00, 
1787.00, 
1788.00, 
1789.00, 
1790.00, 
1791.00, 
1792.00, 
1793.00, 
1794.00, 
1795.00, 
1796.00, 
1797.00, 
1798.00, 
1799.00, 
1800.00, 
1801.00, 
1802.00, 
1803.00, 
1804.00, 
1805.00, 
1806.00, 
1807.00, 
1808.00, 
1809.00, 
1810.00, 
1811.00, 
1812.00, 
1813.00, 
1814.00, 
1815.00, 
1816.00, 
1817.00, 
1818.00, 
1819.00, 
1820.00, 
1821.00, 
1822.00, 
1823.00, 
1824.00, 
1825.00, 
1826.00, 
1827.00, 
1828.00, 
1829.00, 
1830.00, 
1831.00, 
1832.00, 
1833.00, 
1834.00, 
1835.00, 
1836.00, 
1837.00, 
1838.00, 
1839.00, 
1840.00, 
1841.00, 
1842.00, 
1843.00, 
1844.00, 
1845.00, 
1846.00, 
1847.00, 
1848.00, 
1849.00, 
1850.00, 
1851.00, 
1852.00, 
1853.00, 
1854.00, 
1855.00, 
1856.00, 
1857.00, 
1858.00, 
1859.00, 
1860.00, 
1861.00, 
1862.00, 
1863.00, 
1864.00, 
1865.00, 
1866.00, 
1867.00, 
1868.00, 
1869.00, 
1870.00, 
1871.00, 
1872.00, 
1873.00, 
1874.00, 
1875.00, 
1876.00, 
1877.00, 
1878.00, 
1879.00, 
1880.00, 
1881.00, 
1882.00, 
1883.00, 
1884.00, 
1885.00, 
1886.00, 
1887.00, 
1888.00, 
1889.00, 
1890.00, 
1891.00, 
1892.00, 
1893.00, 
1894.00, 
1895.00, 
1896.00, 
1897.00, 
1898.00, 
1899.00, 
1900.00, 
1901.00, 
1902.00, 
1903.00, 
1904.00, 
1905.00, 
1906.00, 
1907.00, 
1908.00, 
1909.00, 
1910.00, 
1911.00, 
1912.00, 
1913.00, 
1914.00, 
1915.00, 
1916.00, 
1917.00, 
1918.00, 
1919.00, 
1920.00, 
1921.00, 
1922.00, 
1923.00, 
1924.00, 
1925.00, 
1926.00, 
1927.00, 
1928.00, 
1929.00, 
1930.00, 
1931.00, 
1932.00, 
1933.00, 
1934.00, 
1935.00, 
1936.00, 
1937.00, 
1938.00, 
1939.00, 
1940.00, 
1941.00, 
1942.00, 
1943.00, 
1944.00, 
1945.00, 
1946.00, 
1947.00, 
1948.00, 
1949.00, 
1950.00, 
1951.00, 
1952.00, 
1953.00, 
1954.00, 
1955.00, 
1956.00, 
1957.00, 
1958.00, 
1959.00, 
1960.00, 
1961.00, 
1962.00, 
1963.00, 
1964.00, 
1965.00, 
1966.00, 
1967.00, 
1968.00, 
1969.00, 
1970.00, 
1971.00, 
1972.00, 
1973.00, 
1974.00, 
1975.00, 
1976.00, 
1977.00, 
1978.00, 
1979.00, 
1980.00, 
1981.00, 
1982.00, 
1983.00, 
1984.00, 
1985.00, 
1986.00, 
1987.00, 
1988.00, 
1989.00, 
1990.00, 
1991.00, 
1992.00, 
1993.00, 
1994.00, 
1995.00, 
1996.00, 
1997.00, 
1998.00, 
1999.00, 
2000.00, 
2001.00, 
2002.00, 
2003.00, 
2004.00, 
2005.00, 
2006.00, 
2007.00, 
2008.00, 
2009.00, 
2010.00, 
2011.00, 
2012.00, 
2013.00, 
2014.00, 
2015.00, 
2016.00, 
2017.00, 
2018.00, 
2019.00, 
2020.00, 
2021.00, 
2022.00, 
2023.00, 
2024.00, 
2025.00, 
2026.00, 
2027.00, 
2028.00, 
2029.00, 
2030.00, 
2031.00, 
2032.00, 
2033.00, 
2034.00, 
2035.00, 
2036.00, 
2037.00, 
2038.00, 
2039.00, 
2040.00, 
2041.00, 
2042.00, 
2043.00, 
2044.00, 
2045.00, 
2046.00, 
2047.00, 
2048.00, 
2049.00, 
2050.00, 
2051.00, 
2052.00, 
2053.00, 
2054.00, 
2055.00, 
2056.00, 
2057.00, 
2058.00, 
2059.00, 
2060.00, 
2061.00, 
2062.00, 
2063.00, 
2064.00, 
2065.00, 
2066.00, 
2067.00, 
2068.00, 
2069.00, 
2070.00, 
2071.00, 
2072.00, 
2073.00, 
2074.00, 
2075.00, 
2076.00, 
2077.00, 
2078.00, 
2079.00, 
2080.00, 
2081.00, 
2082.00, 
2083.00, 
2084.00, 
2085.00, 
2086.00, 
2087.00, 
2088.00, 
2089.00, 
2090.00, 
2091.00, 
2092.00, 
2093.00, 
2094.00, 
2095.00, 
2096.00, 
2097.00, 
2098.00, 
2099.00, 
2100.00, 
2101.00, 
2102.00, 
2103.00, 
2104.00, 
2105.00, 
2106.00, 
2107.00, 
2108.00, 
2109.00, 
2110.00, 
2111.00, 
2112.00, 
2113.00, 
2114.00, 
2115.00, 
2116.00, 
2117.00, 
2118.00, 
2119.00, 
2120.00, 
2121.00, 
2122.00, 
2123.00, 
2124.00, 
2125.00, 
2126.00, 
2127.00, 
2128.00, 
2129.00, 
2130.00, 
2131.00, 
2132.00, 
2133.00, 
2134.00, 
2135.00, 
2136.00, 
2137.00, 
2138.00, 
2139.00, 
2140.00, 
2141.00, 
2142.00, 
2143.00, 
2144.00, 
2145.00, 
2146.00, 
2147.00, 
2148.00, 
2149.00, 
2150.00, 
2151.00, 
2152.00, 
2153.00, 
2154.00, 
2155.00, 
2156.00, 
2157.00, 
2158.00, 
2159.00, 
2160.00, 
2161.00, 
2162.00, 
2163.00, 
2164.00, 
2165.00, 
2166.00, 
2167.00, 
2168.00, 
2169.00, 
2170.00, 
2171.00, 
2172.00, 
2173.00, 
2174.00, 
2175.00, 
2176.00, 
2177.00, 
2178.00, 
2179.00, 
2180.00, 
2181.00, 
2182.00, 
2183.00, 
2184.00, 
2185.00, 
2186.00, 
2187.00, 
2188.00, 
2189.00, 
2190.00, 
2191.00, 
2192.00, 
2193.00, 
2194.00, 
2195.00, 
2196.00, 
2197.00, 
2198.00, 
2199.00, 
2200.00, 
2201.00, 
2202.00, 
2203.00, 
2204.00, 
2205.00, 
2206.00, 
2207.00, 
2208.00, 
2209.00, 
2210.00, 
2211.00, 
2212.00, 
2213.00, 
2214.00, 
2215.00, 
2216.00, 
2217.00, 
2218.00, 
2219.00, 
2220.00, 
2221.00, 
2222.00, 
2223.00, 
2224.00, 
2225.00, 
2226.00, 
2227.00, 
2228.00, 
2229.00, 
2230.00, 
2231.00, 
2232.00, 
2233.00, 
2234.00, 
2235.00, 
2236.00, 
2237.00, 
2238.00, 
2239.00, 
2240.00, 
2241.00, 
2242.00, 
2243.00, 
2244.00, 
2245.00, 
2246.00, 
2247.00, 
2248.00, 
2249.00, 
2250.00, 
2251.00, 
2252.00, 
2253.00, 
2254.00, 
2255.00, 
2256.00, 
2257.00, 
2258.00, 
2259.00, 
2260.00, 
2261.00, 
2262.00, 
2263.00, 
2264.00, 
2265.00, 
2266.00, 
2267.00, 
2268.00, 
2269.00, 
2270.00, 
2271.00, 
2272.00, 
2273.00, 
2274.00, 
2275.00, 
2276.00, 
2277.00, 
2278.00, 
2279.00, 
2280.00, 
2281.00, 
2282.00, 
2283.00, 
2284.00, 
2285.00, 
2286.00, 
2287.00, 
2288.00, 
2289.00, 
2290.00, 
2291.00, 
2292.00, 
2293.00, 
2294.00, 
2295.00, 
2296.00, 
2297.00, 
2298.00, 
2299.00, 
2300.00, 
2301.00, 
2302.00, 
2303.00, 
2304.00, 
2305.00, 
2306.00, 
2307.00, 
2308.00, 
2309.00, 
2310.00, 
2311.00, 
2312.00, 
2313.00, 
2314.00, 
2315.00, 
2316.00, 
2317.00, 
2318.00, 
2319.00, 
2320.00, 
2321.00, 
2322.00, 
2323.00, 
2324.00, 
2325.00, 
2326.00, 
2327.00, 
2328.00, 
2329.00, 
2330.00, 
2331.00, 
2332.00, 
2333.00, 
2334.00, 
2335.00, 
2336.00, 
2337.00, 
2338.00, 
2339.00, 
2340.00, 
2341.00, 
2342.00, 
2343.00, 
2344.00, 
2345.00, 
2346.00, 
2347.00, 
2348.00, 
2349.00, 
2350.00, 
2351.00, 
2352.00, 
2353.00, 
2354.00, 
2355.00, 
2356.00, 
2357.00, 
2358.00, 
2359.00, 
2360.00, 
2361.00, 
2362.00, 
2363.00, 
2364.00, 
2365.00, 
2366.00, 
2367.00, 
2368.00, 
2369.00, 
2370.00, 
2371.00, 
2372.00, 
2373.00, 
2374.00, 
2375.00, 
2376.00, 
2377.00, 
2378.00, 
2379.00, 
2380.00, 
2381.00, 
2382.00, 
2383.00, 
2384.00, 
2385.00, 
2386.00, 
2387.00, 
2388.00, 
2389.00, 
2390.00, 
2391.00, 
2392.00, 
2393.00, 
2394.00, 
2395.00, 
2396.00, 
2397.00, 
2398.00, 
2399.00, 
2400.00, 
2401.00, 
2402.00, 
2403.00, 
2404.00, 
2405.00, 
2406.00, 
2407.00, 
2408.00, 
2409.00, 
2410.00, 
2411.00, 
2412.00, 
2413.00, 
2414.00, 
2415.00, 
2416.00, 
2417.00, 
2418.00, 
2419.00, 
2420.00, 
2421.00, 
2422.00, 
2423.00, 
2424.00, 
2425.00, 
2426.00, 
2427.00, 
2428.00, 
2429.00, 
2430.00, 
2431.00, 
2432.00, 
2433.00, 
2434.00, 
2435.00, 
2436.00, 
2437.00, 
2438.00, 
2439.00, 
2440.00, 
2441.00, 
2442.00, 
2443.00, 
2444.00, 
2445.00, 
2446.00, 
2447.00, 
2448.00, 
2449.00, 
2450.00, 
2451.00, 
2452.00, 
2453.00, 
2454.00, 
2455.00, 
2456.00, 
2457.00, 
2458.00, 
2459.00, 
2460.00, 
2461.00, 
2462.00, 
2463.00, 
2464.00, 
2465.00, 
2466.00, 
2467.00, 
2468.00, 
2469.00, 
2470.00, 
2471.00, 
2472.00, 
2473.00, 
2474.00, 
2475.00, 
2476.00, 
2477.00, 
2478.00, 
2479.00, 
2480.00, 
2481.00, 
2482.00, 
2483.00, 
2484.00, 
2485.00, 
2486.00, 
2487.00, 
2488.00, 
2489.00, 
2490.00, 
2491.00, 
2492.00, 
2493.00, 
2494.00, 
2495.00, 
2496.00, 
2497.00, 
2498.00, 
2499.00, 
2500.00, 
2501.00, 
2502.00, 
2503.00, 
2504.00, 
2505.00, 
2506.00, 
2507.00, 
2508.00, 
2509.00, 
2510.00, 
2511.00, 
2512.00, 
2513.00, 
2514.00, 
2515.00, 
2516.00, 
2517.00, 
2518.00, 
2519.00, 
2520.00, 
2521.00, 
2522.00, 
2523.00, 
2524.00, 
2525.00, 
2526.00, 
2527.00, 
2528.00, 
2529.00, 
2530.00, 
2531.00, 
2532.00, 
2533.00, 
2534.00, 
2535.00, 
2536.00, 
2537.00, 
2538.00, 
2539.00, 
2540.00, 
2541.00, 
2542.00, 
2543.00, 
2544.00, 
2545.00, 
2546.00, 
2547.00, 
2548.00, 
2549.00, 
2550.00, 
2551.00, 
2552.00, 
2553.00, 
2554.00, 
2555.00, 
2556.00, 
2557.00, 
2558.00, 
2559.00, 
2560.00, 
2561.00, 
2562.00, 
2563.00, 
2564.00, 
2565.00, 
2566.00, 
2567.00, 
2568.00, 
2569.00, 
2570.00, 
2571.00, 
2572.00, 
2573.00, 
2574.00, 
2575.00, 
2576.00, 
2577.00, 
2578.00, 
2579.00, 
2580.00, 
2581.00, 
2582.00, 
2583.00, 
2584.00, 
2585.00, 
2586.00, 
2587.00, 
2588.00, 
2589.00, 
2590.00, 
2591.00, 
2592.00, 
2593.00, 
2594.00, 
2595.00, 
2596.00, 
2597.00, 
2598.00, 
2599.00, 
2600.00, 
