"1cP3 - RawData"
"Wavelength nm.","T%"
200.00,0.000
201.00,0.000
202.00,-0.002
203.00,0.002
204.00,0.003
205.00,-0.002
206.00,-0.001
207.00,0.002
208.00,-0.000
209.00,-0.000
210.00,-0.000
211.00,-0.001
212.00,0.001
213.00,0.002
214.00,-0.000
215.00,-0.002
216.00,-0.000
217.00,0.004
218.00,0.001
219.00,0.001
220.00,0.004
221.00,-0.001
222.00,-0.000
223.00,0.001
224.00,-0.002
225.00,0.002
226.00,0.000
227.00,0.003
228.00,-0.000
229.00,0.001
230.00,-0.001
231.00,0.000
232.00,0.000
233.00,0.002
234.00,0.001
235.00,0.001
236.00,-0.002
237.00,-0.001
238.00,0.003
239.00,-0.000
240.00,0.001
241.00,0.001
242.00,-0.001
243.00,-0.000
244.00,0.000
245.00,-0.001
246.00,-0.001
247.00,0.000
248.00,-0.000
249.00,0.001
250.00,0.001
251.00,-0.000
252.00,-0.001
253.00,0.001
254.00,0.001
255.00,0.001
256.00,0.002
257.00,0.000
258.00,0.001
259.00,-0.001
260.00,-0.001
261.00,-0.000
262.00,-0.000
263.00,0.001
264.00,-0.001
265.00,-0.001
266.00,0.003
267.00,-0.000
268.00,-0.000
269.00,-0.000
270.00,-0.000
271.00,0.000
272.00,0.000
273.00,0.000
274.00,0.001
275.00,0.000
276.00,0.001
277.00,0.001
278.00,0.002
279.00,0.001
280.00,0.001
281.00,-0.000
282.00,-0.001
283.00,-0.001
284.00,-0.000
285.00,0.001
286.00,-0.001
287.00,0.001
288.00,0.002
289.00,0.000
290.00,0.000
291.00,0.001
292.00,-0.002
293.00,0.002
294.00,-0.001
295.00,-0.001
296.00,-0.000
297.00,-0.001
298.00,0.000
299.00,0.001
300.00,0.001
301.00,-0.001
302.00,0.000
303.00,-0.000
304.00,0.001
305.00,0.002
306.00,0.002
307.00,0.003
308.00,0.006
309.00,0.011
310.00,0.016
311.00,0.020
312.00,0.037
313.00,0.060
314.00,0.086
315.00,0.129
316.00,0.183
317.00,0.257
318.00,0.358
319.00,0.485
320.00,0.635
321.00,0.831
322.00,1.055
323.00,1.340
324.00,1.658
325.00,1.973
326.00,2.357
327.00,2.810
328.00,3.304
329.00,3.787
330.00,4.345
331.00,4.899
332.00,5.516
333.00,6.148
334.00,6.764
335.00,7.461
336.00,8.137
337.00,8.851
338.00,9.556
339.00,10.177
340.00,10.858
341.00,11.514
342.00,12.125
343.00,12.742
344.00,13.341
345.00,13.908
346.00,14.476
347.00,14.992
348.00,15.494
349.00,15.930
350.00,16.368
351.00,16.796
352.00,17.140
353.00,17.554
354.00,17.893
355.00,18.223
356.00,18.491
357.00,18.747
358.00,19.036
359.00,19.312
360.00,19.540
361.00,19.680
362.00,19.876
363.00,20.122
364.00,20.164
365.00,20.284
366.00,20.413
367.00,20.501
368.00,20.575
369.00,20.629
370.00,20.729
371.00,20.674
372.00,20.666
373.00,20.733
374.00,20.685
375.00,20.628
376.00,20.565
377.00,20.513
378.00,20.384
379.00,20.323
380.00,20.306
381.00,20.306
382.00,20.330
383.00,20.331
384.00,20.397
385.00,20.448
386.00,20.459
387.00,20.558
388.00,20.626
389.00,20.646
390.00,20.689
391.00,20.741
392.00,20.765
393.00,20.793
394.00,20.827
395.00,20.844
396.00,20.805
397.00,20.859
398.00,20.834
399.00,20.850
400.00,20.852
401.00,20.788
402.00,20.854
403.00,20.864
404.00,20.857
405.00,20.840
406.00,20.853
407.00,20.785
408.00,20.796
409.00,20.744
410.00,20.673
411.00,20.670
412.00,20.619
413.00,20.628
414.00,20.596
415.00,20.580
416.00,20.615
417.00,20.584
418.00,20.600
419.00,20.703
420.00,20.730
421.00,20.656
422.00,20.665
423.00,20.726
424.00,20.711
425.00,20.761
426.00,20.769
427.00,20.843
428.00,20.839
429.00,20.871
430.00,20.919
431.00,20.962
432.00,20.972
433.00,21.061
434.00,21.069
435.00,21.141
436.00,21.172
437.00,21.226
438.00,21.307
439.00,21.377
440.00,21.423
441.00,21.501
442.00,21.561
443.00,21.599
444.00,21.735
445.00,21.787
446.00,21.869
447.00,21.921
448.00,22.045
449.00,22.116
450.00,22.215
451.00,22.308
452.00,22.395
453.00,22.472
454.00,22.600
455.00,22.722
456.00,22.780
457.00,22.890
458.00,23.004
459.00,23.092
460.00,23.270
461.00,23.450
462.00,23.460
463.00,23.602
464.00,23.703
465.00,23.835
466.00,23.962
467.00,24.059
468.00,24.129
469.00,24.255
470.00,24.342
471.00,24.404
472.00,24.545
473.00,24.658
474.00,24.764
475.00,24.883
476.00,24.964
477.00,25.116
478.00,25.207
479.00,25.379
480.00,25.516
481.00,25.611
482.00,25.780
483.00,25.943
484.00,26.090
485.00,26.200
486.00,26.358
487.00,26.431
488.00,26.564
489.00,26.747
490.00,26.856
491.00,27.003
492.00,27.120
493.00,27.361
494.00,27.497
495.00,27.498
496.00,27.667
497.00,27.740
498.00,27.881
499.00,28.038
500.00,28.211
501.00,28.288
502.00,28.350
503.00,28.520
504.00,28.573
505.00,28.695
506.00,28.857
507.00,28.955
508.00,29.091
509.00,29.222
510.00,29.347
511.00,29.435
512.00,29.590
513.00,29.706
514.00,29.843
515.00,29.952
516.00,30.028
517.00,30.172
518.00,30.311
519.00,30.351
520.00,30.422
521.00,30.591
522.00,30.703
523.00,30.725
524.00,30.814
525.00,30.981
526.00,31.061
527.00,31.097
528.00,31.214
529.00,31.384
530.00,31.524
531.00,31.618
532.00,31.708
533.00,31.774
534.00,31.892
535.00,31.980
536.00,32.057
537.00,32.164
538.00,32.228
539.00,32.306
540.00,32.408
541.00,32.432
542.00,32.485
543.00,32.567
544.00,32.640
545.00,32.724
546.00,32.788
547.00,32.930
548.00,33.011
549.00,33.083
550.00,33.177
551.00,33.232
552.00,33.300
553.00,33.360
554.00,33.445
555.00,33.506
556.00,33.558
557.00,33.615
558.00,33.654
559.00,33.738
560.00,33.830
561.00,33.914
562.00,34.007
563.00,33.981
564.00,34.029
565.00,34.142
566.00,34.118
567.00,34.131
568.00,34.219
569.00,34.305
570.00,34.329
571.00,34.406
572.00,34.432
573.00,34.278
574.00,34.363
575.00,34.515
576.00,34.430
577.00,34.614
578.00,34.726
579.00,34.764
580.00,34.805
581.00,34.932
582.00,35.023
583.00,35.035
584.00,35.126
585.00,35.153
586.00,35.220
587.00,35.350
588.00,35.284
589.00,35.220
590.00,35.371
591.00,35.496
592.00,35.442
593.00,35.484
594.00,35.604
595.00,35.681
596.00,35.748
597.00,35.833
598.00,35.900
599.00,35.847
600.00,35.902
601.00,35.941
602.00,35.934
603.00,36.018
604.00,36.076
605.00,36.152
606.00,36.224
607.00,36.229
608.00,36.271
609.00,36.343
610.00,36.464
611.00,36.332
612.00,36.345
613.00,36.477
614.00,36.537
615.00,36.411
616.00,36.497
617.00,36.632
618.00,36.786
619.00,36.749
620.00,36.801
621.00,36.843
622.00,36.974
623.00,37.042
624.00,37.029
625.00,37.134
626.00,37.215
627.00,37.287
628.00,37.336
629.00,37.347
630.00,37.368
631.00,37.318
632.00,37.564
633.00,37.698
634.00,37.729
635.00,37.825
636.00,37.887
637.00,37.912
638.00,37.961
639.00,38.095
640.00,38.142
641.00,38.146
642.00,38.237
643.00,38.328
644.00,38.388
645.00,38.452
646.00,38.629
647.00,38.682
648.00,38.693
649.00,38.740
650.00,38.796
651.00,38.939
652.00,39.037
653.00,38.998
654.00,39.075
655.00,39.265
656.00,39.471
657.00,39.355
658.00,39.522
659.00,39.545
660.00,39.641
661.00,39.669
662.00,39.859
663.00,39.847
664.00,40.095
665.00,40.278
666.00,40.163
667.00,40.202
668.00,40.178
669.00,40.505
670.00,40.692
671.00,40.657
672.00,40.796
673.00,40.667
674.00,40.839
675.00,40.969
676.00,41.052
677.00,41.281
678.00,41.304
679.00,41.405
680.00,41.352
681.00,41.491
682.00,41.621
683.00,41.539
684.00,41.782
685.00,41.879
686.00,41.727
687.00,41.944
688.00,41.895
689.00,41.864
690.00,42.233
691.00,42.465
692.00,42.281
693.00,42.306
694.00,42.484
695.00,42.562
696.00,42.543
697.00,42.577
698.00,42.720
699.00,43.053
700.00,43.136
701.00,43.022
702.00,43.133
703.00,43.328
704.00,43.373
705.00,43.253
706.00,43.363
707.00,43.543
708.00,43.321
709.00,43.755
710.00,44.037
711.00,43.673
712.00,43.682
713.00,43.832
714.00,43.981
715.00,44.033
716.00,43.970
717.00,44.216
718.00,44.397
719.00,44.383
720.00,44.410
721.00,49.088
722.00,49.088
723.00,49.125
724.00,49.156
725.00,49.117
726.00,49.096
727.00,49.143
728.00,49.212
729.00,49.213
730.00,49.247
731.00,49.233
732.00,49.337
733.00,49.384
734.00,49.362
735.00,49.437
736.00,49.417
737.00,49.462
738.00,49.555
739.00,49.485
740.00,49.553
741.00,49.582
742.00,49.626
743.00,49.638
744.00,49.595
745.00,49.632
746.00,49.613
747.00,49.643
748.00,49.643
749.00,49.623
750.00,49.679
751.00,49.606
752.00,49.663
753.00,49.650
754.00,49.687
755.00,49.713
756.00,49.735
757.00,49.707
758.00,49.699
759.00,49.713
760.00,49.785
761.00,49.737
762.00,49.734
763.00,49.779
764.00,49.783
765.00,49.748
766.00,49.741
767.00,49.823
768.00,49.813
769.00,49.768
770.00,49.805
771.00,49.903
772.00,49.902
773.00,49.868
774.00,49.840
775.00,49.921
776.00,49.896
777.00,49.975
778.00,49.882
779.00,49.928
780.00,49.916
781.00,49.949
782.00,49.919
783.00,49.906
784.00,49.900
785.00,49.854
786.00,49.810
787.00,49.897
788.00,49.819
789.00,49.890
790.00,49.738
791.00,49.835
792.00,49.773
793.00,49.777
794.00,49.772
795.00,49.796
796.00,49.839
797.00,49.708
798.00,49.855
799.00,49.728
800.00,49.710
801.00,49.674
802.00,49.732
803.00,49.750
804.00,49.637
805.00,49.694
806.00,49.675
807.00,49.603
808.00,49.666
809.00,49.602
810.00,49.647
811.00,49.598
812.00,49.638
813.00,49.570
814.00,49.548
815.00,49.538
816.00,49.473
817.00,49.541
818.00,49.442
819.00,49.467
820.00,49.489
821.00,49.444
822.00,49.464
823.00,49.417
824.00,49.419
825.00,49.398
826.00,49.354
827.00,49.368
828.00,49.321
829.00,49.352
830.00,49.337
831.00,51.830
832.00,51.811
833.00,51.761
834.00,51.754
835.00,51.726
836.00,51.741
837.00,51.694
838.00,51.671
839.00,51.675
840.00,51.630
841.00,51.635
842.00,51.617
843.00,51.616
844.00,51.621
845.00,51.539
846.00,51.583
847.00,51.527
848.00,51.526
849.00,51.457
850.00,51.417
851.00,51.358
852.00,51.374
853.00,51.348
854.00,51.299
855.00,51.282
856.00,51.244
857.00,51.225
858.00,51.205
859.00,51.225
860.00,51.216
861.00,51.150
862.00,51.161
863.00,51.224
864.00,51.137
865.00,51.127
866.00,51.104
867.00,51.104
868.00,51.101
869.00,51.067
870.00,51.055
871.00,51.042
872.00,51.035
873.00,51.031
874.00,51.028
875.00,50.993
876.00,50.993
877.00,51.004
878.00,50.978
879.00,50.973
880.00,50.921
881.00,50.935
882.00,50.951
883.00,50.912
884.00,50.845
885.00,50.834
886.00,50.817
887.00,50.793
888.00,50.773
889.00,50.779
890.00,50.746
891.00,50.738
892.00,50.721
893.00,50.707
894.00,50.702
895.00,50.678
896.00,50.666
897.00,50.642
898.00,50.603
899.00,50.610
900.00,50.591
901.00,50.577
902.00,50.568
903.00,50.546
904.00,50.527
905.00,50.516
906.00,50.499
907.00,50.534
908.00,50.448
909.00,50.428
910.00,50.424
911.00,50.402
912.00,50.373
913.00,50.347
914.00,50.337
915.00,50.308
916.00,50.289
917.00,50.250
918.00,50.259
919.00,50.225
920.00,50.202
921.00,50.187
922.00,50.191
923.00,50.150
924.00,50.122
925.00,50.125
926.00,50.132
927.00,50.093
928.00,50.078
929.00,50.049
930.00,50.041
931.00,50.023
932.00,49.972
933.00,50.002
934.00,49.965
935.00,49.937
936.00,49.920
937.00,49.901
938.00,49.912
939.00,49.885
940.00,49.869
941.00,49.838
942.00,49.826
943.00,49.791
944.00,49.775
945.00,49.769
946.00,49.757
947.00,49.717
948.00,49.714
949.00,49.707
950.00,49.670
951.00,49.637
952.00,49.606
953.00,49.605
954.00,49.557
955.00,49.547
956.00,49.525
957.00,49.509
958.00,49.497
959.00,49.452
960.00,49.435
961.00,49.446
962.00,49.422
963.00,49.378
964.00,49.390
965.00,49.370
966.00,49.369
967.00,49.343
968.00,49.341
969.00,49.349
970.00,49.344
971.00,49.344
972.00,49.317
973.00,49.358
974.00,49.355
975.00,49.343
976.00,49.335
977.00,49.342
978.00,49.372
979.00,49.360
980.00,49.344
981.00,49.338
982.00,49.334
983.00,49.330
984.00,49.297
985.00,49.310
986.00,49.299
987.00,49.300
988.00,49.268
989.00,49.264
990.00,49.244
991.00,49.238
992.00,49.245
993.00,49.224
994.00,49.199
995.00,49.168
996.00,49.187
997.00,49.177
998.00,49.159
999.00,49.162
1000.00,49.103
1001.00,49.103
1002.00,49.104
1003.00,49.115
1004.00,49.079
1005.00,49.068
1006.00,49.094
1007.00,49.071
1008.00,49.059
1009.00,49.019
1010.00,49.032
1011.00,49.002
1012.00,48.981
1013.00,48.979
1014.00,48.960
1015.00,48.966
1016.00,48.923
1017.00,48.913
1018.00,48.892
1019.00,48.874
1020.00,48.848
1021.00,48.826
1022.00,48.829
1023.00,48.784
1024.00,48.797
1025.00,48.814
1026.00,48.772
1027.00,48.743
1028.00,48.741
1029.00,48.739
1030.00,48.715
1031.00,48.711
1032.00,48.675
1033.00,48.671
1034.00,48.639
1035.00,48.602
1036.00,48.574
1037.00,48.548
1038.00,48.542
1039.00,48.507
1040.00,48.512
1041.00,48.485
1042.00,48.477
1043.00,48.467
1044.00,48.499
1045.00,48.471
1046.00,48.458
1047.00,48.467
1048.00,48.487
1049.00,48.476
1050.00,48.481
1051.00,48.509
1052.00,48.533
1053.00,48.529
1054.00,48.538
1055.00,48.566
1056.00,48.564
1057.00,48.578
1058.00,48.553
1059.00,48.562
1060.00,48.559
1061.00,48.541
1062.00,48.532
1063.00,48.544
1064.00,48.531
1065.00,48.515
1066.00,48.507
1067.00,48.516
1068.00,48.526
1069.00,48.506
1070.00,48.485
1071.00,48.474
1072.00,48.481
1073.00,48.459
1074.00,48.456
1075.00,48.438
1076.00,48.440
1077.00,48.419
1078.00,48.406
1079.00,48.398
1080.00,48.408
1081.00,48.393
1082.00,48.386
1083.00,48.371
1084.00,48.373
1085.00,48.387
1086.00,48.361
1087.00,48.363
1088.00,48.337
1089.00,48.303
1090.00,48.299
1091.00,48.320
1092.00,48.325
1093.00,48.285
1094.00,48.245
1095.00,48.244
1096.00,48.258
1097.00,48.264
1098.00,48.255
1099.00,48.243
1100.00,48.233
1101.00,48.234
1102.00,48.222
1103.00,48.220
1104.00,48.211
1105.00,48.184
1106.00,48.181
1107.00,48.170
1108.00,48.159
1109.00,48.166
1110.00,48.165
1111.00,48.153
1112.00,48.135
1113.00,48.139
1114.00,48.124
1115.00,48.123
1116.00,48.129
1117.00,48.107
1118.00,48.118
1119.00,48.116
1120.00,48.095
1121.00,48.083
1122.00,48.067
1123.00,48.055
1124.00,48.053
1125.00,48.053
1126.00,48.040
1127.00,48.035
1128.00,48.024
1129.00,48.007
1130.00,48.006
1131.00,48.009
1132.00,48.019
1133.00,48.005
1134.00,48.010
1135.00,48.000
1136.00,47.995
1137.00,47.997
1138.00,47.988
1139.00,48.001
1140.00,47.994
1141.00,47.979
1142.00,47.966
1143.00,47.985
1144.00,47.959
1145.00,47.956
1146.00,47.961
1147.00,47.946
1148.00,47.943
1149.00,47.955
1150.00,47.958
1151.00,47.952
1152.00,47.938
1153.00,47.932
1154.00,47.914
1155.00,47.926
1156.00,47.918
1157.00,47.932
1158.00,47.928
1159.00,47.920
1160.00,47.910
1161.00,47.925
1162.00,47.928
1163.00,47.932
1164.00,47.946
1165.00,47.948
1166.00,47.930
1167.00,47.933
1168.00,47.949
1169.00,47.937
1170.00,47.933
1171.00,47.901
1172.00,47.907
1173.00,47.907
1174.00,47.912
1175.00,47.908
1176.00,47.907
1177.00,47.893
1178.00,47.898
1179.00,47.915
1180.00,47.904
1181.00,47.913
1182.00,47.898
1183.00,47.894
1184.00,47.888
1185.00,47.885
1186.00,47.878
1187.00,47.877
1188.00,47.869
1189.00,47.878
1190.00,47.881
1191.00,47.875
1192.00,47.895
1193.00,47.879
1194.00,47.890
1195.00,47.888
1196.00,47.894
1197.00,47.894
1198.00,47.895
1199.00,47.873
1200.00,47.887
1201.00,47.894
1202.00,47.889
1203.00,47.896
1204.00,47.881
1205.00,47.910
1206.00,47.894
1207.00,47.890
1208.00,47.876
1209.00,47.896
1210.00,47.888
1211.00,47.885
1212.00,47.906
1213.00,47.863
1214.00,47.886
1215.00,47.860
1216.00,47.885
1217.00,47.892
1218.00,47.870
1219.00,47.887
1220.00,47.867
1221.00,47.887
1222.00,47.879
1223.00,47.900
1224.00,47.891
1225.00,47.882
1226.00,47.872
1227.00,47.867
1228.00,47.914
1229.00,47.910
1230.00,47.917
1231.00,47.925
1232.00,47.949
1233.00,47.954
1234.00,47.950
1235.00,47.945
1236.00,47.941
1237.00,47.928
1238.00,47.954
1239.00,47.949
1240.00,47.933
1241.00,47.966
1242.00,47.937
1243.00,47.942
1244.00,47.931
1245.00,47.954
1246.00,47.978
1247.00,47.960
1248.00,47.946
1249.00,47.975
1250.00,47.976
1251.00,47.964
1252.00,47.971
1253.00,47.998
1254.00,48.026
1255.00,47.972
1256.00,47.980
1257.00,47.982
1258.00,48.017
1259.00,48.001
1260.00,48.020
1261.00,48.020
1262.00,48.010
1263.00,48.013
1264.00,48.023
1265.00,48.026
1266.00,48.034
1267.00,48.049
1268.00,48.057
1269.00,48.054
1270.00,48.071
1271.00,48.082
1272.00,48.079
1273.00,48.087
1274.00,48.096
1275.00,48.108
1276.00,48.097
1277.00,48.098
1278.00,48.128
1279.00,48.117
1280.00,48.090
1281.00,48.107
1282.00,48.128
1283.00,48.112
1284.00,48.099
1285.00,48.127
1286.00,48.163
1287.00,48.135
1288.00,48.141
1289.00,48.149
1290.00,48.173
1291.00,48.165
1292.00,48.170
1293.00,48.182
1294.00,48.207
1295.00,48.209
1296.00,48.212
1297.00,48.222
1298.00,48.236
1299.00,48.235
1300.00,48.248
1301.00,48.258
1302.00,48.275
1303.00,48.255
1304.00,48.251
1305.00,48.281
1306.00,48.261
1307.00,48.279
1308.00,48.280
1309.00,48.268
1310.00,48.277
1311.00,48.297
1312.00,48.299
1313.00,48.305
1314.00,48.326
1315.00,48.340
1316.00,48.342
1317.00,48.368
1318.00,48.385
1319.00,48.378
1320.00,48.382
1321.00,48.542
1322.00,48.536
1323.00,48.513
1324.00,48.520
1325.00,48.514
1326.00,48.527
1327.00,48.523
1328.00,48.526
1329.00,48.520
1330.00,48.542
1331.00,48.520
1332.00,48.541
1333.00,48.546
1334.00,48.578
1335.00,48.598
1336.00,48.629
1337.00,48.641
1338.00,48.724
1339.00,48.757
1340.00,48.831
1341.00,48.897
1342.00,48.943
1343.00,49.000
1344.00,49.048
1345.00,49.097
1346.00,49.139
1347.00,49.175
1348.00,49.185
1349.00,49.200
1350.00,49.208
1351.00,49.220
1352.00,49.248
1353.00,49.213
1354.00,49.236
1355.00,49.208
1356.00,49.247
1357.00,49.245
1358.00,49.270
1359.00,49.275
1360.00,49.361
1361.00,49.551
1362.00,49.273
1363.00,49.324
1364.00,49.319
1365.00,49.298
1366.00,49.297
1367.00,49.311
1368.00,49.287
1369.00,49.268
1370.00,49.276
1371.00,49.267
1372.00,49.266
1373.00,49.291
1374.00,49.330
1375.00,49.284
1376.00,49.281
1377.00,49.280
1378.00,49.352
1379.00,49.275
1380.00,49.294
1381.00,49.308
1382.00,49.264
1383.00,49.291
1384.00,49.252
1385.00,49.255
1386.00,49.241
1387.00,49.233
1388.00,49.239
1389.00,49.269
1390.00,49.303
1391.00,49.247
1392.00,49.255
1393.00,49.317
1394.00,49.294
1395.00,49.189
1396.00,49.234
1397.00,49.283
1398.00,49.292
1399.00,49.301
1400.00,49.224
1401.00,49.238
1402.00,49.313
1403.00,49.292
1404.00,49.263
1405.00,49.318
1406.00,49.335
1407.00,49.265
1408.00,49.316
1409.00,49.348
1410.00,49.380
1411.00,49.309
1412.00,49.406
1413.00,49.350
1414.00,49.347
1415.00,49.377
1416.00,49.405
1417.00,49.436
1418.00,49.424
1419.00,49.418
1420.00,49.446
1421.00,49.501
1422.00,49.476
1423.00,49.490
1424.00,49.502
1425.00,49.518
1426.00,49.519
1427.00,49.543
1428.00,49.551
1429.00,49.571
1430.00,49.564
1431.00,49.598
1432.00,49.623
1433.00,49.638
1434.00,49.637
1435.00,49.696
1436.00,49.693
1437.00,49.690
1438.00,49.714
1439.00,49.741
1440.00,49.760
1441.00,49.758
1442.00,49.778
1443.00,49.812
1444.00,49.839
1445.00,49.817
1446.00,49.847
1447.00,49.865
1448.00,49.895
1449.00,49.916
1450.00,49.908
1451.00,49.933
1452.00,49.945
1453.00,49.955
1454.00,49.971
1455.00,49.993
1456.00,50.017
1457.00,50.016
1458.00,50.053
1459.00,50.079
1460.00,50.111
1461.00,50.110
1462.00,50.155
1463.00,50.144
1464.00,50.153
1465.00,50.178
1466.00,50.175
1467.00,50.197
1468.00,50.244
1469.00,50.220
1470.00,50.247
1471.00,50.272
1472.00,50.286
1473.00,50.309
1474.00,50.320
1475.00,50.331
1476.00,50.350
1477.00,50.332
1478.00,50.358
1479.00,50.375
1480.00,50.371
1481.00,50.378
1482.00,50.391
1483.00,50.407
1484.00,50.433
1485.00,50.438
1486.00,50.464
1487.00,50.504
1488.00,50.507
1489.00,50.507
1490.00,50.530
1491.00,50.543
1492.00,50.573
1493.00,50.542
1494.00,50.583
1495.00,50.579
1496.00,50.595
1497.00,50.589
1498.00,50.614
1499.00,50.616
1500.00,50.634
1501.00, 
1502.00, 
1503.00, 
1504.00, 
1505.00, 
1506.00, 
1507.00, 
1508.00, 
1509.00, 
1510.00, 
1511.00, 
1512.00, 
1513.00, 
1514.00, 
1515.00, 
1516.00, 
1517.00, 
1518.00, 
1519.00, 
1520.00, 
1521.00, 
1522.00, 
1523.00, 
1524.00, 
1525.00, 
1526.00, 
1527.00, 
1528.00, 
1529.00, 
1530.00, 
1531.00, 
1532.00, 
1533.00, 
1534.00, 
1535.00, 
1536.00, 
1537.00, 
1538.00, 
1539.00, 
1540.00, 
1541.00, 
1542.00, 
1543.00, 
1544.00, 
1545.00, 
1546.00, 
1547.00, 
1548.00, 
1549.00, 
1550.00, 
1551.00, 
1552.00, 
1553.00, 
1554.00, 
1555.00, 
1556.00, 
1557.00, 
1558.00, 
1559.00, 
1560.00, 
1561.00, 
1562.00, 
1563.00, 
1564.00, 
1565.00, 
1566.00, 
1567.00, 
1568.00, 
1569.00, 
1570.00, 
1571.00, 
1572.00, 
1573.00, 
1574.00, 
1575.00, 
1576.00, 
1577.00, 
1578.00, 
1579.00, 
1580.00, 
1581.00, 
1582.00, 
1583.00, 
1584.00, 
1585.00, 
1586.00, 
1587.00, 
1588.00, 
1589.00, 
1590.00, 
1591.00, 
1592.00, 
1593.00, 
1594.00, 
1595.00, 
1596.00, 
1597.00, 
1598.00, 
1599.00, 
1600.00, 
1601.00, 
1602.00, 
1603.00, 
1604.00, 
1605.00, 
1606.00, 
1607.00, 
1608.00, 
1609.00, 
1610.00, 
1611.00, 
1612.00, 
1613.00, 
1614.00, 
1615.00, 
1616.00, 
1617.00, 
1618.00, 
1619.00, 
1620.00, 
1621.00, 
1622.00, 
1623.00, 
1624.00, 
1625.00, 
1626.00, 
1627.00, 
1628.00, 
1629.00, 
1630.00, 
1631.00, 
1632.00, 
1633.00, 
1634.00, 
1635.00, 
1636.00, 
1637.00, 
1638.00, 
1639.00, 
1640.00, 
1641.00, 
1642.00, 
1643.00, 
1644.00, 
1645.00, 
1646.00, 
1647.00, 
1648.00, 
1649.00, 
1650.00, 
1651.00, 
1652.00, 
1653.00, 
1654.00, 
1655.00, 
1656.00, 
1657.00, 
1658.00, 
1659.00, 
1660.00, 
1661.00, 
1662.00, 
1663.00, 
1664.00, 
1665.00, 
1666.00, 
1667.00, 
1668.00, 
1669.00, 
1670.00, 
1671.00, 
1672.00, 
1673.00, 
1674.00, 
1675.00, 
1676.00, 
1677.00, 
1678.00, 
1679.00, 
1680.00, 
1681.00, 
1682.00, 
1683.00, 
1684.00, 
1685.00, 
1686.00, 
1687.00, 
1688.00, 
1689.00, 
1690.00, 
1691.00, 
1692.00, 
1693.00, 
1694.00, 
1695.00, 
1696.00, 
1697.00, 
1698.00, 
1699.00, 
1700.00, 
1701.00, 
1702.00, 
1703.00, 
1704.00, 
1705.00, 
1706.00, 
1707.00, 
1708.00, 
1709.00, 
1710.00, 
1711.00, 
1712.00, 
1713.00, 
1714.00, 
1715.00, 
1716.00, 
1717.00, 
1718.00, 
1719.00, 
1720.00, 
1721.00, 
1722.00, 
1723.00, 
1724.00, 
1725.00, 
1726.00, 
1727.00, 
1728.00, 
1729.00, 
1730.00, 
1731.00, 
1732.00, 
1733.00, 
1734.00, 
1735.00, 
1736.00, 
1737.00, 
1738.00, 
1739.00, 
1740.00, 
1741.00, 
1742.00, 
1743.00, 
1744.00, 
1745.00, 
1746.00, 
1747.00, 
1748.00, 
1749.00, 
1750.00, 
1751.00, 
1752.00, 
1753.00, 
1754.00, 
1755.00, 
1756.00, 
1757.00, 
1758.00, 
1759.00, 
1760.00, 
1761.00, 
1762.00, 
1763.00, 
1764.00, 
1765.00, 
1766.00, 
1767.00, 
1768.00, 
1769.00, 
1770.00, 
1771.00, 
1772.00, 
1773.00, 
1774.00, 
1775.00, 
1776.00, 
1777.00, 
1778.00, 
1779.00, 
1780.00, 
1781.00, 
1782.00, 
1783.00, 
1784.00, 
1785.00, 
1786.00, 
1787.00, 
1788.00, 
1789.00, 
1790.00, 
1791.00, 
1792.00, 
1793.00, 
1794.00, 
1795.00, 
1796.00, 
1797.00, 
1798.00, 
1799.00, 
1800.00, 
1801.00, 
1802.00, 
1803.00, 
1804.00, 
1805.00, 
1806.00, 
1807.00, 
1808.00, 
1809.00, 
1810.00, 
1811.00, 
1812.00, 
1813.00, 
1814.00, 
1815.00, 
1816.00, 
1817.00, 
1818.00, 
1819.00, 
1820.00, 
1821.00, 
1822.00, 
1823.00, 
1824.00, 
1825.00, 
1826.00, 
1827.00, 
1828.00, 
1829.00, 
1830.00, 
1831.00, 
1832.00, 
1833.00, 
1834.00, 
1835.00, 
1836.00, 
1837.00, 
1838.00, 
1839.00, 
1840.00, 
1841.00, 
1842.00, 
1843.00, 
1844.00, 
1845.00, 
1846.00, 
1847.00, 
1848.00, 
1849.00, 
1850.00, 
1851.00, 
1852.00, 
1853.00, 
1854.00, 
1855.00, 
1856.00, 
1857.00, 
1858.00, 
1859.00, 
1860.00, 
1861.00, 
1862.00, 
1863.00, 
1864.00, 
1865.00, 
1866.00, 
1867.00, 
1868.00, 
1869.00, 
1870.00, 
1871.00, 
1872.00, 
1873.00, 
1874.00, 
1875.00, 
1876.00, 
1877.00, 
1878.00, 
1879.00, 
1880.00, 
1881.00, 
1882.00, 
1883.00, 
1884.00, 
1885.00, 
1886.00, 
1887.00, 
1888.00, 
1889.00, 
1890.00, 
1891.00, 
1892.00, 
1893.00, 
1894.00, 
1895.00, 
1896.00, 
1897.00, 
1898.00, 
1899.00, 
1900.00, 
1901.00, 
1902.00, 
1903.00, 
1904.00, 
1905.00, 
1906.00, 
1907.00, 
1908.00, 
1909.00, 
1910.00, 
1911.00, 
1912.00, 
1913.00, 
1914.00, 
1915.00, 
1916.00, 
1917.00, 
1918.00, 
1919.00, 
1920.00, 
1921.00, 
1922.00, 
1923.00, 
1924.00, 
1925.00, 
1926.00, 
1927.00, 
1928.00, 
1929.00, 
1930.00, 
1931.00, 
1932.00, 
1933.00, 
1934.00, 
1935.00, 
1936.00, 
1937.00, 
1938.00, 
1939.00, 
1940.00, 
1941.00, 
1942.00, 
1943.00, 
1944.00, 
1945.00, 
1946.00, 
1947.00, 
1948.00, 
1949.00, 
1950.00, 
1951.00, 
1952.00, 
1953.00, 
1954.00, 
1955.00, 
1956.00, 
1957.00, 
1958.00, 
1959.00, 
1960.00, 
1961.00, 
1962.00, 
1963.00, 
1964.00, 
1965.00, 
1966.00, 
1967.00, 
1968.00, 
1969.00, 
1970.00, 
1971.00, 
1972.00, 
1973.00, 
1974.00, 
1975.00, 
1976.00, 
1977.00, 
1978.00, 
1979.00, 
1980.00, 
1981.00, 
1982.00, 
1983.00, 
1984.00, 
1985.00, 
1986.00, 
1987.00, 
1988.00, 
1989.00, 
1990.00, 
1991.00, 
1992.00, 
1993.00, 
1994.00, 
1995.00, 
1996.00, 
1997.00, 
1998.00, 
1999.00, 
2000.00, 
2001.00, 
2002.00, 
2003.00, 
2004.00, 
2005.00, 
2006.00, 
2007.00, 
2008.00, 
2009.00, 
2010.00, 
2011.00, 
2012.00, 
2013.00, 
2014.00, 
2015.00, 
2016.00, 
2017.00, 
2018.00, 
2019.00, 
2020.00, 
2021.00, 
2022.00, 
2023.00, 
2024.00, 
2025.00, 
2026.00, 
2027.00, 
2028.00, 
2029.00, 
2030.00, 
2031.00, 
2032.00, 
2033.00, 
2034.00, 
2035.00, 
2036.00, 
2037.00, 
2038.00, 
2039.00, 
2040.00, 
2041.00, 
2042.00, 
2043.00, 
2044.00, 
2045.00, 
2046.00, 
2047.00, 
2048.00, 
2049.00, 
2050.00, 
2051.00, 
2052.00, 
2053.00, 
2054.00, 
2055.00, 
2056.00, 
2057.00, 
2058.00, 
2059.00, 
2060.00, 
2061.00, 
2062.00, 
2063.00, 
2064.00, 
2065.00, 
2066.00, 
2067.00, 
2068.00, 
2069.00, 
2070.00, 
2071.00, 
2072.00, 
2073.00, 
2074.00, 
2075.00, 
2076.00, 
2077.00, 
2078.00, 
2079.00, 
2080.00, 
2081.00, 
2082.00, 
2083.00, 
2084.00, 
2085.00, 
2086.00, 
2087.00, 
2088.00, 
2089.00, 
2090.00, 
2091.00, 
2092.00, 
2093.00, 
2094.00, 
2095.00, 
2096.00, 
2097.00, 
2098.00, 
2099.00, 
2100.00, 
2101.00, 
2102.00, 
2103.00, 
2104.00, 
2105.00, 
2106.00, 
2107.00, 
2108.00, 
2109.00, 
2110.00, 
2111.00, 
2112.00, 
2113.00, 
2114.00, 
2115.00, 
2116.00, 
2117.00, 
2118.00, 
2119.00, 
2120.00, 
2121.00, 
2122.00, 
2123.00, 
2124.00, 
2125.00, 
2126.00, 
2127.00, 
2128.00, 
2129.00, 
2130.00, 
2131.00, 
2132.00, 
2133.00, 
2134.00, 
2135.00, 
2136.00, 
2137.00, 
2138.00, 
2139.00, 
2140.00, 
2141.00, 
2142.00, 
2143.00, 
2144.00, 
2145.00, 
2146.00, 
2147.00, 
2148.00, 
2149.00, 
2150.00, 
2151.00, 
2152.00, 
2153.00, 
2154.00, 
2155.00, 
2156.00, 
2157.00, 
2158.00, 
2159.00, 
2160.00, 
2161.00, 
2162.00, 
2163.00, 
2164.00, 
2165.00, 
2166.00, 
2167.00, 
2168.00, 
2169.00, 
2170.00, 
2171.00, 
2172.00, 
2173.00, 
2174.00, 
2175.00, 
2176.00, 
2177.00, 
2178.00, 
2179.00, 
2180.00, 
2181.00, 
2182.00, 
2183.00, 
2184.00, 
2185.00, 
2186.00, 
2187.00, 
2188.00, 
2189.00, 
2190.00, 
2191.00, 
2192.00, 
2193.00, 
2194.00, 
2195.00, 
2196.00, 
2197.00, 
2198.00, 
2199.00, 
2200.00, 
2201.00, 
2202.00, 
2203.00, 
2204.00, 
2205.00, 
2206.00, 
2207.00, 
2208.00, 
2209.00, 
2210.00, 
2211.00, 
2212.00, 
2213.00, 
2214.00, 
2215.00, 
2216.00, 
2217.00, 
2218.00, 
2219.00, 
2220.00, 
2221.00, 
2222.00, 
2223.00, 
2224.00, 
2225.00, 
2226.00, 
2227.00, 
2228.00, 
2229.00, 
2230.00, 
2231.00, 
2232.00, 
2233.00, 
2234.00, 
2235.00, 
2236.00, 
2237.00, 
2238.00, 
2239.00, 
2240.00, 
2241.00, 
2242.00, 
2243.00, 
2244.00, 
2245.00, 
2246.00, 
2247.00, 
2248.00, 
2249.00, 
2250.00, 
2251.00, 
2252.00, 
2253.00, 
2254.00, 
2255.00, 
2256.00, 
2257.00, 
2258.00, 
2259.00, 
2260.00, 
2261.00, 
2262.00, 
2263.00, 
2264.00, 
2265.00, 
2266.00, 
2267.00, 
2268.00, 
2269.00, 
2270.00, 
2271.00, 
2272.00, 
2273.00, 
2274.00, 
2275.00, 
2276.00, 
2277.00, 
2278.00, 
2279.00, 
2280.00, 
2281.00, 
2282.00, 
2283.00, 
2284.00, 
2285.00, 
2286.00, 
2287.00, 
2288.00, 
2289.00, 
2290.00, 
2291.00, 
2292.00, 
2293.00, 
2294.00, 
2295.00, 
2296.00, 
2297.00, 
2298.00, 
2299.00, 
2300.00, 
2301.00, 
2302.00, 
2303.00, 
2304.00, 
2305.00, 
2306.00, 
2307.00, 
2308.00, 
2309.00, 
2310.00, 
2311.00, 
2312.00, 
2313.00, 
2314.00, 
2315.00, 
2316.00, 
2317.00, 
2318.00, 
2319.00, 
2320.00, 
2321.00, 
2322.00, 
2323.00, 
2324.00, 
2325.00, 
2326.00, 
2327.00, 
2328.00, 
2329.00, 
2330.00, 
2331.00, 
2332.00, 
2333.00, 
2334.00, 
2335.00, 
2336.00, 
2337.00, 
2338.00, 
2339.00, 
2340.00, 
2341.00, 
2342.00, 
2343.00, 
2344.00, 
2345.00, 
2346.00, 
2347.00, 
2348.00, 
2349.00, 
2350.00, 
2351.00, 
2352.00, 
2353.00, 
2354.00, 
2355.00, 
2356.00, 
2357.00, 
2358.00, 
2359.00, 
2360.00, 
2361.00, 
2362.00, 
2363.00, 
2364.00, 
2365.00, 
2366.00, 
2367.00, 
2368.00, 
2369.00, 
2370.00, 
2371.00, 
2372.00, 
2373.00, 
2374.00, 
2375.00, 
2376.00, 
2377.00, 
2378.00, 
2379.00, 
2380.00, 
2381.00, 
2382.00, 
2383.00, 
2384.00, 
2385.00, 
2386.00, 
2387.00, 
2388.00, 
2389.00, 
2390.00, 
2391.00, 
2392.00, 
2393.00, 
2394.00, 
2395.00, 
2396.00, 
2397.00, 
2398.00, 
2399.00, 
2400.00, 
2401.00, 
2402.00, 
2403.00, 
2404.00, 
2405.00, 
2406.00, 
2407.00, 
2408.00, 
2409.00, 
2410.00, 
2411.00, 
2412.00, 
2413.00, 
2414.00, 
2415.00, 
2416.00, 
2417.00, 
2418.00, 
2419.00, 
2420.00, 
2421.00, 
2422.00, 
2423.00, 
2424.00, 
2425.00, 
2426.00, 
2427.00, 
2428.00, 
2429.00, 
2430.00, 
2431.00, 
2432.00, 
2433.00, 
2434.00, 
2435.00, 
2436.00, 
2437.00, 
2438.00, 
2439.00, 
2440.00, 
2441.00, 
2442.00, 
2443.00, 
2444.00, 
2445.00, 
2446.00, 
2447.00, 
2448.00, 
2449.00, 
2450.00, 
2451.00, 
2452.00, 
2453.00, 
2454.00, 
2455.00, 
2456.00, 
2457.00, 
2458.00, 
2459.00, 
2460.00, 
2461.00, 
2462.00, 
2463.00, 
2464.00, 
2465.00, 
2466.00, 
2467.00, 
2468.00, 
2469.00, 
2470.00, 
2471.00, 
2472.00, 
2473.00, 
2474.00, 
2475.00, 
2476.00, 
2477.00, 
2478.00, 
2479.00, 
2480.00, 
2481.00, 
2482.00, 
2483.00, 
2484.00, 
2485.00, 
2486.00, 
2487.00, 
2488.00, 
2489.00, 
2490.00, 
2491.00, 
2492.00, 
2493.00, 
2494.00, 
2495.00, 
2496.00, 
2497.00, 
2498.00, 
2499.00, 
2500.00, 
2501.00, 
2502.00, 
2503.00, 
2504.00, 
2505.00, 
2506.00, 
2507.00, 
2508.00, 
2509.00, 
2510.00, 
2511.00, 
2512.00, 
2513.00, 
2514.00, 
2515.00, 
2516.00, 
2517.00, 
2518.00, 
2519.00, 
2520.00, 
2521.00, 
2522.00, 
2523.00, 
2524.00, 
2525.00, 
2526.00, 
2527.00, 
2528.00, 
2529.00, 
2530.00, 
2531.00, 
2532.00, 
2533.00, 
2534.00, 
2535.00, 
2536.00, 
2537.00, 
2538.00, 
2539.00, 
2540.00, 
2541.00, 
2542.00, 
2543.00, 
2544.00, 
2545.00, 
2546.00, 
2547.00, 
2548.00, 
2549.00, 
2550.00, 
2551.00, 
2552.00, 
2553.00, 
2554.00, 
2555.00, 
2556.00, 
2557.00, 
2558.00, 
2559.00, 
2560.00, 
2561.00, 
2562.00, 
2563.00, 
2564.00, 
2565.00, 
2566.00, 
2567.00, 
2568.00, 
2569.00, 
2570.00, 
2571.00, 
2572.00, 
2573.00, 
2574.00, 
2575.00, 
2576.00, 
2577.00, 
2578.00, 
2579.00, 
2580.00, 
2581.00, 
2582.00, 
2583.00, 
2584.00, 
2585.00, 
2586.00, 
2587.00, 
2588.00, 
2589.00, 
2590.00, 
2591.00, 
2592.00, 
2593.00, 
2594.00, 
2595.00, 
2596.00, 
2597.00, 
2598.00, 
2599.00, 
2600.00, 
