"1cP4 - RawData"
"Wavelength nm.","T%"
200.00,-0.001
201.00,-0.002
202.00,0.001
203.00,0.002
204.00,0.002
205.00,-0.000
206.00,0.002
207.00,-0.001
208.00,0.004
209.00,-0.000
210.00,-0.001
211.00,-0.000
212.00,0.000
213.00,-0.000
214.00,0.001
215.00,0.001
216.00,0.002
217.00,0.003
218.00,-0.000
219.00,-0.001
220.00,0.002
221.00,0.002
222.00,0.005
223.00,-0.002
224.00,-0.000
225.00,0.000
226.00,-0.001
227.00,0.000
228.00,0.002
229.00,0.002
230.00,-0.000
231.00,-0.001
232.00,0.002
233.00,0.002
234.00,0.001
235.00,0.000
236.00,0.000
237.00,0.000
238.00,0.001
239.00,0.003
240.00,-0.001
241.00,0.000
242.00,0.002
243.00,-0.000
244.00,-0.001
245.00,0.001
246.00,-0.000
247.00,0.001
248.00,-0.000
249.00,0.001
250.00,-0.000
251.00,0.000
252.00,0.002
253.00,-0.000
254.00,0.001
255.00,-0.001
256.00,0.000
257.00,0.000
258.00,-0.001
259.00,0.001
260.00,0.001
261.00,0.002
262.00,-0.001
263.00,-0.002
264.00,-0.001
265.00,0.001
266.00,-0.002
267.00,-0.003
268.00,0.001
269.00,-0.000
270.00,0.001
271.00,0.001
272.00,-0.002
273.00,-0.000
274.00,0.001
275.00,0.000
276.00,-0.001
277.00,-0.001
278.00,0.001
279.00,-0.001
280.00,0.001
281.00,-0.000
282.00,-0.001
283.00,0.000
284.00,0.001
285.00,-0.000
286.00,0.001
287.00,0.000
288.00,0.001
289.00,0.001
290.00,-0.001
291.00,-0.000
292.00,-0.002
293.00,0.001
294.00,0.000
295.00,0.000
296.00,-0.001
297.00,-0.000
298.00,0.000
299.00,0.001
300.00,-0.000
301.00,0.000
302.00,0.002
303.00,-0.001
304.00,0.002
305.00,0.001
306.00,0.002
307.00,0.001
308.00,0.007
309.00,0.009
310.00,0.016
311.00,0.021
312.00,0.035
313.00,0.056
314.00,0.079
315.00,0.118
316.00,0.171
317.00,0.236
318.00,0.325
319.00,0.443
320.00,0.576
321.00,0.758
322.00,0.962
323.00,1.219
324.00,1.493
325.00,1.805
326.00,2.146
327.00,2.548
328.00,2.970
329.00,3.418
330.00,3.925
331.00,4.428
332.00,4.952
333.00,5.526
334.00,6.109
335.00,6.706
336.00,7.308
337.00,7.918
338.00,8.530
339.00,9.106
340.00,9.674
341.00,10.266
342.00,10.825
343.00,11.356
344.00,11.890
345.00,12.374
346.00,12.877
347.00,13.292
348.00,13.755
349.00,14.127
350.00,14.528
351.00,14.848
352.00,15.147
353.00,15.488
354.00,15.767
355.00,16.019
356.00,16.285
357.00,16.470
358.00,16.715
359.00,16.929
360.00,17.148
361.00,17.253
362.00,17.416
363.00,17.600
364.00,17.621
365.00,17.695
366.00,17.819
367.00,17.852
368.00,17.902
369.00,17.957
370.00,17.938
371.00,17.961
372.00,17.910
373.00,17.945
374.00,17.922
375.00,17.830
376.00,17.756
377.00,17.702
378.00,17.608
379.00,17.545
380.00,17.500
381.00,17.457
382.00,17.469
383.00,17.486
384.00,17.487
385.00,17.522
386.00,17.524
387.00,17.605
388.00,17.650
389.00,17.690
390.00,17.691
391.00,17.727
392.00,17.744
393.00,17.751
394.00,17.762
395.00,17.753
396.00,17.752
397.00,17.745
398.00,17.738
399.00,17.745
400.00,17.705
401.00,17.680
402.00,17.736
403.00,17.743
404.00,17.746
405.00,17.704
406.00,17.725
407.00,17.654
408.00,17.655
409.00,17.609
410.00,17.573
411.00,17.528
412.00,17.543
413.00,17.540
414.00,17.498
415.00,17.483
416.00,17.533
417.00,17.476
418.00,17.540
419.00,17.584
420.00,17.641
421.00,17.603
422.00,17.589
423.00,17.654
424.00,17.680
425.00,17.717
426.00,17.711
427.00,17.787
428.00,17.834
429.00,17.857
430.00,17.891
431.00,17.954
432.00,17.989
433.00,18.055
434.00,18.076
435.00,18.152
436.00,18.202
437.00,18.278
438.00,18.348
439.00,18.408
440.00,18.483
441.00,18.545
442.00,18.628
443.00,18.671
444.00,18.793
445.00,18.866
446.00,18.925
447.00,19.041
448.00,19.164
449.00,19.248
450.00,19.356
451.00,19.448
452.00,19.494
453.00,19.655
454.00,19.788
455.00,19.867
456.00,20.016
457.00,20.121
458.00,20.214
459.00,20.375
460.00,20.508
461.00,20.677
462.00,20.721
463.00,20.862
464.00,20.993
465.00,21.134
466.00,21.250
467.00,21.386
468.00,21.490
469.00,21.598
470.00,21.705
471.00,21.835
472.00,21.941
473.00,22.055
474.00,22.198
475.00,22.353
476.00,22.446
477.00,22.585
478.00,22.713
479.00,22.872
480.00,23.032
481.00,23.180
482.00,23.333
483.00,23.500
484.00,23.670
485.00,23.805
486.00,23.950
487.00,24.083
488.00,24.229
489.00,24.383
490.00,24.537
491.00,24.660
492.00,24.780
493.00,25.025
494.00,25.165
495.00,25.238
496.00,25.373
497.00,25.466
498.00,25.608
499.00,25.790
500.00,25.968
501.00,26.024
502.00,26.179
503.00,26.353
504.00,26.378
505.00,26.466
506.00,26.655
507.00,26.767
508.00,26.902
509.00,27.091
510.00,27.237
511.00,27.317
512.00,27.468
513.00,27.629
514.00,27.706
515.00,27.877
516.00,27.975
517.00,28.105
518.00,28.261
519.00,28.316
520.00,28.393
521.00,28.557
522.00,28.620
523.00,28.667
524.00,28.833
525.00,28.961
526.00,28.964
527.00,29.095
528.00,29.123
529.00,29.350
530.00,29.510
531.00,29.606
532.00,29.731
533.00,29.785
534.00,29.932
535.00,29.997
536.00,30.055
537.00,30.175
538.00,30.267
539.00,30.314
540.00,30.431
541.00,30.453
542.00,30.513
543.00,30.596
544.00,30.687
545.00,30.777
546.00,30.808
547.00,30.943
548.00,31.062
549.00,31.068
550.00,31.154
551.00,31.260
552.00,31.298
553.00,31.386
554.00,31.426
555.00,31.468
556.00,31.550
557.00,31.623
558.00,31.685
559.00,31.762
560.00,31.845
561.00,31.925
562.00,31.964
563.00,32.022
564.00,32.026
565.00,32.069
566.00,32.078
567.00,32.156
568.00,32.214
569.00,32.309
570.00,32.309
571.00,32.329
572.00,32.410
573.00,32.317
574.00,32.422
575.00,32.484
576.00,32.476
577.00,32.563
578.00,32.661
579.00,32.742
580.00,32.749
581.00,32.856
582.00,32.961
583.00,32.930
584.00,33.039
585.00,33.122
586.00,33.177
587.00,33.240
588.00,33.254
589.00,33.244
590.00,33.298
591.00,33.373
592.00,33.338
593.00,33.398
594.00,33.509
595.00,33.605
596.00,33.688
597.00,33.717
598.00,33.757
599.00,33.765
600.00,33.861
601.00,33.897
602.00,33.890
603.00,33.964
604.00,34.030
605.00,34.126
606.00,34.122
607.00,34.132
608.00,34.197
609.00,34.295
610.00,34.447
611.00,34.341
612.00,34.362
613.00,34.445
614.00,34.551
615.00,34.565
616.00,34.673
617.00,34.641
618.00,34.703
619.00,34.796
620.00,34.776
621.00,34.873
622.00,35.015
623.00,35.013
624.00,35.151
625.00,35.286
626.00,35.262
627.00,35.360
628.00,35.409
629.00,35.417
630.00,35.496
631.00,35.582
632.00,35.725
633.00,35.797
634.00,35.897
635.00,35.998
636.00,36.072
637.00,36.110
638.00,36.217
639.00,36.357
640.00,36.340
641.00,36.419
642.00,36.533
643.00,36.595
644.00,36.692
645.00,36.770
646.00,36.927
647.00,36.990
648.00,37.106
649.00,37.151
650.00,37.191
651.00,37.344
652.00,37.431
653.00,37.448
654.00,37.507
655.00,37.702
656.00,37.953
657.00,37.806
658.00,38.016
659.00,38.129
660.00,38.177
661.00,38.218
662.00,38.403
663.00,38.449
664.00,38.751
665.00,38.942
666.00,38.760
667.00,38.911
668.00,39.356
669.00,39.350
670.00,39.516
671.00,39.472
672.00,39.641
673.00,39.645
674.00,39.733
675.00,39.870
676.00,40.161
677.00,40.250
678.00,40.212
679.00,40.459
680.00,40.536
681.00,40.644
682.00,40.834
683.00,40.762
684.00,40.969
685.00,41.115
686.00,41.032
687.00,41.167
688.00,41.299
689.00,41.337
690.00,41.657
691.00,41.866
692.00,41.720
693.00,41.792
694.00,41.932
695.00,42.034
696.00,42.195
697.00,42.265
698.00,42.389
699.00,42.754
700.00,42.841
701.00,42.709
702.00,42.806
703.00,43.000
704.00,43.098
705.00,43.084
706.00,43.212
707.00,43.411
708.00,43.187
709.00,43.626
710.00,43.996
711.00,43.401
712.00,43.715
713.00,44.146
714.00,44.004
715.00,44.093
716.00,44.152
717.00,44.303
718.00,44.421
719.00,44.474
720.00,44.535
721.00,48.843
722.00,48.864
723.00,48.905
724.00,48.968
725.00,48.973
726.00,49.075
727.00,49.061
728.00,49.173
729.00,49.172
730.00,49.206
731.00,49.313
732.00,49.390
733.00,49.423
734.00,49.493
735.00,49.518
736.00,49.575
737.00,49.619
738.00,49.687
739.00,49.672
740.00,49.742
741.00,49.771
742.00,49.870
743.00,49.890
744.00,49.839
745.00,49.975
746.00,49.945
747.00,50.017
748.00,49.985
749.00,50.087
750.00,50.074
751.00,50.000
752.00,50.101
753.00,50.128
754.00,50.163
755.00,50.190
756.00,50.236
757.00,50.297
758.00,50.178
759.00,50.316
760.00,50.325
761.00,50.290
762.00,50.385
763.00,50.340
764.00,50.427
765.00,50.484
766.00,50.460
767.00,50.501
768.00,50.547
769.00,50.509
770.00,50.585
771.00,50.648
772.00,50.603
773.00,50.614
774.00,50.638
775.00,50.655
776.00,50.658
777.00,50.787
778.00,50.745
779.00,50.752
780.00,50.812
781.00,50.856
782.00,50.799
783.00,50.733
784.00,50.780
785.00,50.719
786.00,50.820
787.00,50.786
788.00,50.770
789.00,50.837
790.00,50.705
791.00,50.851
792.00,50.767
793.00,50.771
794.00,50.836
795.00,50.788
796.00,50.863
797.00,50.757
798.00,50.887
799.00,50.766
800.00,50.752
801.00,50.751
802.00,50.737
803.00,50.756
804.00,50.739
805.00,50.726
806.00,50.739
807.00,50.706
808.00,50.734
809.00,50.696
810.00,50.689
811.00,50.686
812.00,50.759
813.00,50.640
814.00,50.675
815.00,50.691
816.00,50.662
817.00,50.677
818.00,50.604
819.00,50.570
820.00,50.682
821.00,50.582
822.00,50.677
823.00,50.566
824.00,50.618
825.00,50.523
826.00,50.609
827.00,50.531
828.00,50.577
829.00,50.536
830.00,50.513
831.00,52.924
832.00,52.926
833.00,52.894
834.00,52.905
835.00,52.846
836.00,52.881
837.00,52.806
838.00,52.802
839.00,52.834
840.00,52.800
841.00,52.814
842.00,52.760
843.00,52.772
844.00,52.785
845.00,52.755
846.00,52.730
847.00,52.728
848.00,52.726
849.00,52.652
850.00,52.640
851.00,52.595
852.00,52.600
853.00,52.557
854.00,52.503
855.00,52.468
856.00,52.467
857.00,52.458
858.00,52.432
859.00,52.432
860.00,52.447
861.00,52.419
862.00,52.373
863.00,52.384
864.00,52.366
865.00,52.366
866.00,52.349
867.00,52.373
868.00,52.345
869.00,52.326
870.00,52.345
871.00,52.342
872.00,52.346
873.00,52.293
874.00,52.311
875.00,52.217
876.00,52.387
877.00,52.283
878.00,52.281
879.00,52.247
880.00,52.224
881.00,52.218
882.00,52.257
883.00,52.213
884.00,52.151
885.00,52.127
886.00,52.124
887.00,52.104
888.00,52.088
889.00,52.076
890.00,52.045
891.00,52.041
892.00,52.040
893.00,52.011
894.00,52.024
895.00,51.987
896.00,51.961
897.00,51.956
898.00,51.912
899.00,51.924
900.00,51.901
901.00,51.908
902.00,51.938
903.00,51.906
904.00,51.866
905.00,51.845
906.00,51.865
907.00,51.828
908.00,51.786
909.00,51.788
910.00,51.758
911.00,51.753
912.00,51.740
913.00,51.698
914.00,51.692
915.00,51.680
916.00,51.659
917.00,51.633
918.00,51.626
919.00,51.600
920.00,51.562
921.00,51.553
922.00,51.557
923.00,51.514
924.00,51.473
925.00,51.508
926.00,51.495
927.00,51.474
928.00,51.437
929.00,51.427
930.00,51.328
931.00,51.409
932.00,51.338
933.00,51.378
934.00,51.327
935.00,51.302
936.00,51.298
937.00,51.278
938.00,51.272
939.00,51.260
940.00,51.247
941.00,51.243
942.00,51.213
943.00,51.200
944.00,51.175
945.00,51.142
946.00,51.141
947.00,51.095
948.00,51.080
949.00,51.089
950.00,51.077
951.00,51.034
952.00,51.027
953.00,50.994
954.00,50.953
955.00,50.929
956.00,50.900
957.00,50.878
958.00,50.886
959.00,50.839
960.00,50.839
961.00,50.849
962.00,50.827
963.00,50.799
964.00,50.795
965.00,50.771
966.00,50.776
967.00,50.749
968.00,50.746
969.00,50.764
970.00,50.741
971.00,50.755
972.00,50.713
973.00,50.756
974.00,50.778
975.00,50.744
976.00,50.749
977.00,50.845
978.00,50.759
979.00,50.735
980.00,50.758
981.00,50.739
982.00,50.714
983.00,50.750
984.00,50.717
985.00,50.735
986.00,50.701
987.00,50.737
988.00,50.685
989.00,50.652
990.00,50.654
991.00,50.639
992.00,50.690
993.00,50.635
994.00,50.643
995.00,50.595
996.00,50.600
997.00,50.580
998.00,50.572
999.00,50.587
1000.00,50.515
1001.00,50.541
1002.00,50.526
1003.00,50.518
1004.00,50.494
1005.00,50.464
1006.00,50.481
1007.00,50.462
1008.00,50.457
1009.00,50.428
1010.00,50.441
1011.00,50.408
1012.00,50.402
1013.00,50.396
1014.00,50.371
1015.00,50.394
1016.00,50.351
1017.00,50.323
1018.00,50.324
1019.00,50.299
1020.00,50.286
1021.00,50.280
1022.00,50.276
1023.00,50.248
1024.00,50.248
1025.00,50.219
1026.00,50.210
1027.00,50.171
1028.00,50.171
1029.00,50.168
1030.00,50.131
1031.00,50.135
1032.00,50.116
1033.00,50.097
1034.00,50.079
1035.00,50.069
1036.00,50.011
1037.00,50.015
1038.00,50.039
1039.00,49.976
1040.00,49.980
1041.00,49.941
1042.00,49.940
1043.00,49.925
1044.00,49.936
1045.00,49.934
1046.00,49.922
1047.00,49.915
1048.00,49.948
1049.00,49.939
1050.00,49.943
1051.00,49.965
1052.00,49.957
1053.00,49.979
1054.00,49.970
1055.00,49.990
1056.00,49.999
1057.00,50.011
1058.00,49.991
1059.00,50.001
1060.00,50.020
1061.00,49.981
1062.00,49.984
1063.00,49.995
1064.00,49.984
1065.00,49.996
1066.00,49.975
1067.00,50.004
1068.00,50.014
1069.00,49.958
1070.00,49.938
1071.00,49.926
1072.00,49.928
1073.00,49.916
1074.00,49.905
1075.00,49.887
1076.00,49.909
1077.00,49.871
1078.00,49.862
1079.00,49.872
1080.00,49.867
1081.00,49.857
1082.00,49.860
1083.00,49.843
1084.00,49.847
1085.00,49.848
1086.00,49.825
1087.00,49.832
1088.00,49.796
1089.00,49.789
1090.00,49.796
1091.00,49.794
1092.00,49.791
1093.00,49.779
1094.00,49.734
1095.00,49.748
1096.00,49.754
1097.00,49.737
1098.00,49.748
1099.00,49.741
1100.00,49.706
1101.00,49.699
1102.00,49.681
1103.00,49.678
1104.00,49.692
1105.00,49.661
1106.00,49.665
1107.00,49.647
1108.00,49.643
1109.00,49.648
1110.00,49.620
1111.00,49.621
1112.00,49.614
1113.00,49.611
1114.00,49.606
1115.00,49.598
1116.00,49.580
1117.00,49.571
1118.00,49.561
1119.00,49.552
1120.00,49.558
1121.00,49.547
1122.00,49.539
1123.00,49.531
1124.00,49.524
1125.00,49.543
1126.00,49.531
1127.00,49.517
1128.00,49.524
1129.00,49.501
1130.00,49.493
1131.00,49.506
1132.00,49.500
1133.00,49.481
1134.00,49.471
1135.00,49.459
1136.00,49.468
1137.00,49.471
1138.00,49.456
1139.00,49.470
1140.00,49.443
1141.00,49.431
1142.00,49.437
1143.00,49.439
1144.00,49.427
1145.00,49.419
1146.00,49.415
1147.00,49.419
1148.00,49.421
1149.00,49.431
1150.00,49.440
1151.00,49.426
1152.00,49.417
1153.00,49.419
1154.00,49.393
1155.00,49.414
1156.00,49.418
1157.00,49.415
1158.00,49.414
1159.00,49.423
1160.00,49.407
1161.00,49.429
1162.00,49.425
1163.00,49.407
1164.00,49.411
1165.00,49.396
1166.00,49.404
1167.00,49.399
1168.00,49.403
1169.00,49.400
1170.00,49.393
1171.00,49.369
1172.00,49.401
1173.00,49.370
1174.00,49.394
1175.00,49.402
1176.00,49.377
1177.00,49.370
1178.00,49.381
1179.00,49.397
1180.00,49.380
1181.00,49.404
1182.00,49.383
1183.00,49.379
1184.00,49.361
1185.00,49.369
1186.00,49.367
1187.00,49.351
1188.00,49.356
1189.00,49.371
1190.00,49.351
1191.00,49.354
1192.00,49.382
1193.00,49.358
1194.00,49.372
1195.00,49.345
1196.00,49.376
1197.00,49.389
1198.00,49.380
1199.00,49.367
1200.00,49.374
1201.00,49.373
1202.00,49.384
1203.00,49.377
1204.00,49.370
1205.00,49.403
1206.00,49.365
1207.00,49.362
1208.00,49.355
1209.00,49.372
1210.00,49.371
1211.00,49.369
1212.00,49.390
1213.00,49.353
1214.00,49.373
1215.00,49.346
1216.00,49.390
1217.00,49.379
1218.00,49.362
1219.00,49.400
1220.00,49.355
1221.00,49.383
1222.00,49.387
1223.00,49.410
1224.00,49.400
1225.00,49.405
1226.00,49.393
1227.00,49.403
1228.00,49.414
1229.00,49.406
1230.00,49.432
1231.00,49.415
1232.00,49.430
1233.00,49.457
1234.00,49.434
1235.00,49.450
1236.00,49.476
1237.00,49.437
1238.00,49.441
1239.00,49.436
1240.00,49.429
1241.00,49.454
1242.00,49.446
1243.00,49.474
1244.00,49.452
1245.00,49.454
1246.00,49.495
1247.00,49.480
1248.00,49.458
1249.00,49.492
1250.00,49.496
1251.00,49.497
1252.00,49.510
1253.00,49.486
1254.00,49.515
1255.00,49.506
1256.00,49.501
1257.00,49.502
1258.00,49.529
1259.00,49.500
1260.00,49.532
1261.00,49.526
1262.00,49.525
1263.00,49.536
1264.00,49.530
1265.00,49.547
1266.00,49.567
1267.00,49.556
1268.00,49.579
1269.00,49.589
1270.00,49.598
1271.00,49.615
1272.00,49.598
1273.00,49.611
1274.00,49.625
1275.00,49.620
1276.00,49.631
1277.00,49.629
1278.00,49.640
1279.00,49.649
1280.00,49.629
1281.00,49.642
1282.00,49.672
1283.00,49.648
1284.00,49.656
1285.00,49.656
1286.00,49.660
1287.00,49.663
1288.00,49.666
1289.00,49.680
1290.00,49.727
1291.00,49.707
1292.00,49.699
1293.00,49.708
1294.00,49.725
1295.00,49.739
1296.00,49.750
1297.00,49.747
1298.00,49.785
1299.00,49.762
1300.00,49.769
1301.00,49.776
1302.00,49.801
1303.00,49.790
1304.00,49.779
1305.00,49.800
1306.00,49.793
1307.00,49.812
1308.00,49.806
1309.00,49.818
1310.00,49.822
1311.00,49.806
1312.00,49.830
1313.00,49.846
1314.00,49.859
1315.00,49.885
1316.00,49.878
1317.00,49.894
1318.00,49.916
1319.00,49.895
1320.00,49.914
1321.00,50.091
1322.00,50.071
1323.00,50.053
1324.00,50.071
1325.00,50.049
1326.00,50.068
1327.00,50.057
1328.00,50.057
1329.00,50.052
1330.00,50.058
1331.00,50.038
1332.00,50.074
1333.00,50.048
1334.00,50.095
1335.00,50.128
1336.00,50.140
1337.00,50.163
1338.00,50.238
1339.00,50.292
1340.00,50.391
1341.00,50.436
1342.00,50.465
1343.00,50.521
1344.00,50.553
1345.00,50.622
1346.00,50.650
1347.00,50.680
1348.00,50.697
1349.00,50.734
1350.00,50.748
1351.00,50.753
1352.00,50.764
1353.00,50.742
1354.00,50.781
1355.00,50.752
1356.00,50.794
1357.00,50.784
1358.00,50.795
1359.00,50.810
1360.00,50.817
1361.00,50.805
1362.00,50.845
1363.00,50.869
1364.00,50.861
1365.00,50.834
1366.00,50.872
1367.00,50.863
1368.00,50.822
1369.00,50.836
1370.00,50.853
1371.00,50.816
1372.00,50.830
1373.00,50.855
1374.00,50.847
1375.00,50.813
1376.00,50.816
1377.00,50.799
1378.00,50.836
1379.00,50.841
1380.00,50.882
1381.00,50.914
1382.00,50.887
1383.00,50.848
1384.00,50.840
1385.00,50.814
1386.00,50.783
1387.00,50.836
1388.00,50.772
1389.00,50.823
1390.00,50.800
1391.00,50.800
1392.00,50.801
1393.00,50.847
1394.00,50.841
1395.00,50.786
1396.00,50.766
1397.00,50.797
1398.00,50.839
1399.00,50.852
1400.00,50.816
1401.00,50.797
1402.00,50.836
1403.00,50.873
1404.00,50.832
1405.00,50.856
1406.00,50.891
1407.00,50.879
1408.00,50.881
1409.00,50.887
1410.00,50.923
1411.00,50.884
1412.00,51.002
1413.00,50.919
1414.00,50.926
1415.00,50.959
1416.00,51.005
1417.00,51.033
1418.00,50.991
1419.00,50.983
1420.00,51.038
1421.00,51.070
1422.00,51.047
1423.00,51.076
1424.00,51.068
1425.00,51.080
1426.00,51.096
1427.00,51.138
1428.00,51.153
1429.00,51.157
1430.00,51.191
1431.00,51.183
1432.00,51.182
1433.00,51.228
1434.00,51.219
1435.00,51.268
1436.00,51.275
1437.00,51.275
1438.00,51.286
1439.00,51.335
1440.00,51.339
1441.00,51.335
1442.00,51.365
1443.00,51.368
1444.00,51.428
1445.00,51.401
1446.00,51.426
1447.00,51.462
1448.00,51.524
1449.00,51.507
1450.00,51.529
1451.00,51.537
1452.00,51.556
1453.00,51.566
1454.00,51.565
1455.00,51.601
1456.00,51.629
1457.00,51.621
1458.00,51.650
1459.00,51.693
1460.00,51.711
1461.00,51.718
1462.00,51.782
1463.00,51.731
1464.00,51.756
1465.00,51.765
1466.00,51.771
1467.00,51.817
1468.00,51.846
1469.00,51.825
1470.00,51.852
1471.00,51.867
1472.00,51.888
1473.00,51.896
1474.00,51.907
1475.00,51.934
1476.00,51.924
1477.00,51.928
1478.00,51.978
1479.00,51.981
1480.00,51.991
1481.00,52.005
1482.00,52.033
1483.00,52.056
1484.00,52.046
1485.00,52.041
1486.00,52.082
1487.00,52.109
1488.00,52.139
1489.00,52.137
1490.00,52.151
1491.00,52.160
1492.00,52.194
1493.00,52.178
1494.00,52.221
1495.00,52.187
1496.00,52.217
1497.00,52.223
1498.00,52.229
1499.00,52.254
1500.00,52.269
1501.00, 
1502.00, 
1503.00, 
1504.00, 
1505.00, 
1506.00, 
1507.00, 
1508.00, 
1509.00, 
1510.00, 
1511.00, 
1512.00, 
1513.00, 
1514.00, 
1515.00, 
1516.00, 
1517.00, 
1518.00, 
1519.00, 
1520.00, 
1521.00, 
1522.00, 
1523.00, 
1524.00, 
1525.00, 
1526.00, 
1527.00, 
1528.00, 
1529.00, 
1530.00, 
1531.00, 
1532.00, 
1533.00, 
1534.00, 
1535.00, 
1536.00, 
1537.00, 
1538.00, 
1539.00, 
1540.00, 
1541.00, 
1542.00, 
1543.00, 
1544.00, 
1545.00, 
1546.00, 
1547.00, 
1548.00, 
1549.00, 
1550.00, 
1551.00, 
1552.00, 
1553.00, 
1554.00, 
1555.00, 
1556.00, 
1557.00, 
1558.00, 
1559.00, 
1560.00, 
1561.00, 
1562.00, 
1563.00, 
1564.00, 
1565.00, 
1566.00, 
1567.00, 
1568.00, 
1569.00, 
1570.00, 
1571.00, 
1572.00, 
1573.00, 
1574.00, 
1575.00, 
1576.00, 
1577.00, 
1578.00, 
1579.00, 
1580.00, 
1581.00, 
1582.00, 
1583.00, 
1584.00, 
1585.00, 
1586.00, 
1587.00, 
1588.00, 
1589.00, 
1590.00, 
1591.00, 
1592.00, 
1593.00, 
1594.00, 
1595.00, 
1596.00, 
1597.00, 
1598.00, 
1599.00, 
1600.00, 
1601.00, 
1602.00, 
1603.00, 
1604.00, 
1605.00, 
1606.00, 
1607.00, 
1608.00, 
1609.00, 
1610.00, 
1611.00, 
1612.00, 
1613.00, 
1614.00, 
1615.00, 
1616.00, 
1617.00, 
1618.00, 
1619.00, 
1620.00, 
1621.00, 
1622.00, 
1623.00, 
1624.00, 
1625.00, 
1626.00, 
1627.00, 
1628.00, 
1629.00, 
1630.00, 
1631.00, 
1632.00, 
1633.00, 
1634.00, 
1635.00, 
1636.00, 
1637.00, 
1638.00, 
1639.00, 
1640.00, 
1641.00, 
1642.00, 
1643.00, 
1644.00, 
1645.00, 
1646.00, 
1647.00, 
1648.00, 
1649.00, 
1650.00, 
1651.00, 
1652.00, 
1653.00, 
1654.00, 
1655.00, 
1656.00, 
1657.00, 
1658.00, 
1659.00, 
1660.00, 
1661.00, 
1662.00, 
1663.00, 
1664.00, 
1665.00, 
1666.00, 
1667.00, 
1668.00, 
1669.00, 
1670.00, 
1671.00, 
1672.00, 
1673.00, 
1674.00, 
1675.00, 
1676.00, 
1677.00, 
1678.00, 
1679.00, 
1680.00, 
1681.00, 
1682.00, 
1683.00, 
1684.00, 
1685.00, 
1686.00, 
1687.00, 
1688.00, 
1689.00, 
1690.00, 
1691.00, 
1692.00, 
1693.00, 
1694.00, 
1695.00, 
1696.00, 
1697.00, 
1698.00, 
1699.00, 
1700.00, 
1701.00, 
1702.00, 
1703.00, 
1704.00, 
1705.00, 
1706.00, 
1707.00, 
1708.00, 
1709.00, 
1710.00, 
1711.00, 
1712.00, 
1713.00, 
1714.00, 
1715.00, 
1716.00, 
1717.00, 
1718.00, 
1719.00, 
1720.00, 
1721.00, 
1722.00, 
1723.00, 
1724.00, 
1725.00, 
1726.00, 
1727.00, 
1728.00, 
1729.00, 
1730.00, 
1731.00, 
1732.00, 
1733.00, 
1734.00, 
1735.00, 
1736.00, 
1737.00, 
1738.00, 
1739.00, 
1740.00, 
1741.00, 
1742.00, 
1743.00, 
1744.00, 
1745.00, 
1746.00, 
1747.00, 
1748.00, 
1749.00, 
1750.00, 
1751.00, 
1752.00, 
1753.00, 
1754.00, 
1755.00, 
1756.00, 
1757.00, 
1758.00, 
1759.00, 
1760.00, 
1761.00, 
1762.00, 
1763.00, 
1764.00, 
1765.00, 
1766.00, 
1767.00, 
1768.00, 
1769.00, 
1770.00, 
1771.00, 
1772.00, 
1773.00, 
1774.00, 
1775.00, 
1776.00, 
1777.00, 
1778.00, 
1779.00, 
1780.00, 
1781.00, 
1782.00, 
1783.00, 
1784.00, 
1785.00, 
1786.00, 
1787.00, 
1788.00, 
1789.00, 
1790.00, 
1791.00, 
1792.00, 
1793.00, 
1794.00, 
1795.00, 
1796.00, 
1797.00, 
1798.00, 
1799.00, 
1800.00, 
1801.00, 
1802.00, 
1803.00, 
1804.00, 
1805.00, 
1806.00, 
1807.00, 
1808.00, 
1809.00, 
1810.00, 
1811.00, 
1812.00, 
1813.00, 
1814.00, 
1815.00, 
1816.00, 
1817.00, 
1818.00, 
1819.00, 
1820.00, 
1821.00, 
1822.00, 
1823.00, 
1824.00, 
1825.00, 
1826.00, 
1827.00, 
1828.00, 
1829.00, 
1830.00, 
1831.00, 
1832.00, 
1833.00, 
1834.00, 
1835.00, 
1836.00, 
1837.00, 
1838.00, 
1839.00, 
1840.00, 
1841.00, 
1842.00, 
1843.00, 
1844.00, 
1845.00, 
1846.00, 
1847.00, 
1848.00, 
1849.00, 
1850.00, 
1851.00, 
1852.00, 
1853.00, 
1854.00, 
1855.00, 
1856.00, 
1857.00, 
1858.00, 
1859.00, 
1860.00, 
1861.00, 
1862.00, 
1863.00, 
1864.00, 
1865.00, 
1866.00, 
1867.00, 
1868.00, 
1869.00, 
1870.00, 
1871.00, 
1872.00, 
1873.00, 
1874.00, 
1875.00, 
1876.00, 
1877.00, 
1878.00, 
1879.00, 
1880.00, 
1881.00, 
1882.00, 
1883.00, 
1884.00, 
1885.00, 
1886.00, 
1887.00, 
1888.00, 
1889.00, 
1890.00, 
1891.00, 
1892.00, 
1893.00, 
1894.00, 
1895.00, 
1896.00, 
1897.00, 
1898.00, 
1899.00, 
1900.00, 
1901.00, 
1902.00, 
1903.00, 
1904.00, 
1905.00, 
1906.00, 
1907.00, 
1908.00, 
1909.00, 
1910.00, 
1911.00, 
1912.00, 
1913.00, 
1914.00, 
1915.00, 
1916.00, 
1917.00, 
1918.00, 
1919.00, 
1920.00, 
1921.00, 
1922.00, 
1923.00, 
1924.00, 
1925.00, 
1926.00, 
1927.00, 
1928.00, 
1929.00, 
1930.00, 
1931.00, 
1932.00, 
1933.00, 
1934.00, 
1935.00, 
1936.00, 
1937.00, 
1938.00, 
1939.00, 
1940.00, 
1941.00, 
1942.00, 
1943.00, 
1944.00, 
1945.00, 
1946.00, 
1947.00, 
1948.00, 
1949.00, 
1950.00, 
1951.00, 
1952.00, 
1953.00, 
1954.00, 
1955.00, 
1956.00, 
1957.00, 
1958.00, 
1959.00, 
1960.00, 
1961.00, 
1962.00, 
1963.00, 
1964.00, 
1965.00, 
1966.00, 
1967.00, 
1968.00, 
1969.00, 
1970.00, 
1971.00, 
1972.00, 
1973.00, 
1974.00, 
1975.00, 
1976.00, 
1977.00, 
1978.00, 
1979.00, 
1980.00, 
1981.00, 
1982.00, 
1983.00, 
1984.00, 
1985.00, 
1986.00, 
1987.00, 
1988.00, 
1989.00, 
1990.00, 
1991.00, 
1992.00, 
1993.00, 
1994.00, 
1995.00, 
1996.00, 
1997.00, 
1998.00, 
1999.00, 
2000.00, 
2001.00, 
2002.00, 
2003.00, 
2004.00, 
2005.00, 
2006.00, 
2007.00, 
2008.00, 
2009.00, 
2010.00, 
2011.00, 
2012.00, 
2013.00, 
2014.00, 
2015.00, 
2016.00, 
2017.00, 
2018.00, 
2019.00, 
2020.00, 
2021.00, 
2022.00, 
2023.00, 
2024.00, 
2025.00, 
2026.00, 
2027.00, 
2028.00, 
2029.00, 
2030.00, 
2031.00, 
2032.00, 
2033.00, 
2034.00, 
2035.00, 
2036.00, 
2037.00, 
2038.00, 
2039.00, 
2040.00, 
2041.00, 
2042.00, 
2043.00, 
2044.00, 
2045.00, 
2046.00, 
2047.00, 
2048.00, 
2049.00, 
2050.00, 
2051.00, 
2052.00, 
2053.00, 
2054.00, 
2055.00, 
2056.00, 
2057.00, 
2058.00, 
2059.00, 
2060.00, 
2061.00, 
2062.00, 
2063.00, 
2064.00, 
2065.00, 
2066.00, 
2067.00, 
2068.00, 
2069.00, 
2070.00, 
2071.00, 
2072.00, 
2073.00, 
2074.00, 
2075.00, 
2076.00, 
2077.00, 
2078.00, 
2079.00, 
2080.00, 
2081.00, 
2082.00, 
2083.00, 
2084.00, 
2085.00, 
2086.00, 
2087.00, 
2088.00, 
2089.00, 
2090.00, 
2091.00, 
2092.00, 
2093.00, 
2094.00, 
2095.00, 
2096.00, 
2097.00, 
2098.00, 
2099.00, 
2100.00, 
2101.00, 
2102.00, 
2103.00, 
2104.00, 
2105.00, 
2106.00, 
2107.00, 
2108.00, 
2109.00, 
2110.00, 
2111.00, 
2112.00, 
2113.00, 
2114.00, 
2115.00, 
2116.00, 
2117.00, 
2118.00, 
2119.00, 
2120.00, 
2121.00, 
2122.00, 
2123.00, 
2124.00, 
2125.00, 
2126.00, 
2127.00, 
2128.00, 
2129.00, 
2130.00, 
2131.00, 
2132.00, 
2133.00, 
2134.00, 
2135.00, 
2136.00, 
2137.00, 
2138.00, 
2139.00, 
2140.00, 
2141.00, 
2142.00, 
2143.00, 
2144.00, 
2145.00, 
2146.00, 
2147.00, 
2148.00, 
2149.00, 
2150.00, 
2151.00, 
2152.00, 
2153.00, 
2154.00, 
2155.00, 
2156.00, 
2157.00, 
2158.00, 
2159.00, 
2160.00, 
2161.00, 
2162.00, 
2163.00, 
2164.00, 
2165.00, 
2166.00, 
2167.00, 
2168.00, 
2169.00, 
2170.00, 
2171.00, 
2172.00, 
2173.00, 
2174.00, 
2175.00, 
2176.00, 
2177.00, 
2178.00, 
2179.00, 
2180.00, 
2181.00, 
2182.00, 
2183.00, 
2184.00, 
2185.00, 
2186.00, 
2187.00, 
2188.00, 
2189.00, 
2190.00, 
2191.00, 
2192.00, 
2193.00, 
2194.00, 
2195.00, 
2196.00, 
2197.00, 
2198.00, 
2199.00, 
2200.00, 
2201.00, 
2202.00, 
2203.00, 
2204.00, 
2205.00, 
2206.00, 
2207.00, 
2208.00, 
2209.00, 
2210.00, 
2211.00, 
2212.00, 
2213.00, 
2214.00, 
2215.00, 
2216.00, 
2217.00, 
2218.00, 
2219.00, 
2220.00, 
2221.00, 
2222.00, 
2223.00, 
2224.00, 
2225.00, 
2226.00, 
2227.00, 
2228.00, 
2229.00, 
2230.00, 
2231.00, 
2232.00, 
2233.00, 
2234.00, 
2235.00, 
2236.00, 
2237.00, 
2238.00, 
2239.00, 
2240.00, 
2241.00, 
2242.00, 
2243.00, 
2244.00, 
2245.00, 
2246.00, 
2247.00, 
2248.00, 
2249.00, 
2250.00, 
2251.00, 
2252.00, 
2253.00, 
2254.00, 
2255.00, 
2256.00, 
2257.00, 
2258.00, 
2259.00, 
2260.00, 
2261.00, 
2262.00, 
2263.00, 
2264.00, 
2265.00, 
2266.00, 
2267.00, 
2268.00, 
2269.00, 
2270.00, 
2271.00, 
2272.00, 
2273.00, 
2274.00, 
2275.00, 
2276.00, 
2277.00, 
2278.00, 
2279.00, 
2280.00, 
2281.00, 
2282.00, 
2283.00, 
2284.00, 
2285.00, 
2286.00, 
2287.00, 
2288.00, 
2289.00, 
2290.00, 
2291.00, 
2292.00, 
2293.00, 
2294.00, 
2295.00, 
2296.00, 
2297.00, 
2298.00, 
2299.00, 
2300.00, 
2301.00, 
2302.00, 
2303.00, 
2304.00, 
2305.00, 
2306.00, 
2307.00, 
2308.00, 
2309.00, 
2310.00, 
2311.00, 
2312.00, 
2313.00, 
2314.00, 
2315.00, 
2316.00, 
2317.00, 
2318.00, 
2319.00, 
2320.00, 
2321.00, 
2322.00, 
2323.00, 
2324.00, 
2325.00, 
2326.00, 
2327.00, 
2328.00, 
2329.00, 
2330.00, 
2331.00, 
2332.00, 
2333.00, 
2334.00, 
2335.00, 
2336.00, 
2337.00, 
2338.00, 
2339.00, 
2340.00, 
2341.00, 
2342.00, 
2343.00, 
2344.00, 
2345.00, 
2346.00, 
2347.00, 
2348.00, 
2349.00, 
2350.00, 
2351.00, 
2352.00, 
2353.00, 
2354.00, 
2355.00, 
2356.00, 
2357.00, 
2358.00, 
2359.00, 
2360.00, 
2361.00, 
2362.00, 
2363.00, 
2364.00, 
2365.00, 
2366.00, 
2367.00, 
2368.00, 
2369.00, 
2370.00, 
2371.00, 
2372.00, 
2373.00, 
2374.00, 
2375.00, 
2376.00, 
2377.00, 
2378.00, 
2379.00, 
2380.00, 
2381.00, 
2382.00, 
2383.00, 
2384.00, 
2385.00, 
2386.00, 
2387.00, 
2388.00, 
2389.00, 
2390.00, 
2391.00, 
2392.00, 
2393.00, 
2394.00, 
2395.00, 
2396.00, 
2397.00, 
2398.00, 
2399.00, 
2400.00, 
2401.00, 
2402.00, 
2403.00, 
2404.00, 
2405.00, 
2406.00, 
2407.00, 
2408.00, 
2409.00, 
2410.00, 
2411.00, 
2412.00, 
2413.00, 
2414.00, 
2415.00, 
2416.00, 
2417.00, 
2418.00, 
2419.00, 
2420.00, 
2421.00, 
2422.00, 
2423.00, 
2424.00, 
2425.00, 
2426.00, 
2427.00, 
2428.00, 
2429.00, 
2430.00, 
2431.00, 
2432.00, 
2433.00, 
2434.00, 
2435.00, 
2436.00, 
2437.00, 
2438.00, 
2439.00, 
2440.00, 
2441.00, 
2442.00, 
2443.00, 
2444.00, 
2445.00, 
2446.00, 
2447.00, 
2448.00, 
2449.00, 
2450.00, 
2451.00, 
2452.00, 
2453.00, 
2454.00, 
2455.00, 
2456.00, 
2457.00, 
2458.00, 
2459.00, 
2460.00, 
2461.00, 
2462.00, 
2463.00, 
2464.00, 
2465.00, 
2466.00, 
2467.00, 
2468.00, 
2469.00, 
2470.00, 
2471.00, 
2472.00, 
2473.00, 
2474.00, 
2475.00, 
2476.00, 
2477.00, 
2478.00, 
2479.00, 
2480.00, 
2481.00, 
2482.00, 
2483.00, 
2484.00, 
2485.00, 
2486.00, 
2487.00, 
2488.00, 
2489.00, 
2490.00, 
2491.00, 
2492.00, 
2493.00, 
2494.00, 
2495.00, 
2496.00, 
2497.00, 
2498.00, 
2499.00, 
2500.00, 
2501.00, 
2502.00, 
2503.00, 
2504.00, 
2505.00, 
2506.00, 
2507.00, 
2508.00, 
2509.00, 
2510.00, 
2511.00, 
2512.00, 
2513.00, 
2514.00, 
2515.00, 
2516.00, 
2517.00, 
2518.00, 
2519.00, 
2520.00, 
2521.00, 
2522.00, 
2523.00, 
2524.00, 
2525.00, 
2526.00, 
2527.00, 
2528.00, 
2529.00, 
2530.00, 
2531.00, 
2532.00, 
2533.00, 
2534.00, 
2535.00, 
2536.00, 
2537.00, 
2538.00, 
2539.00, 
2540.00, 
2541.00, 
2542.00, 
2543.00, 
2544.00, 
2545.00, 
2546.00, 
2547.00, 
2548.00, 
2549.00, 
2550.00, 
2551.00, 
2552.00, 
2553.00, 
2554.00, 
2555.00, 
2556.00, 
2557.00, 
2558.00, 
2559.00, 
2560.00, 
2561.00, 
2562.00, 
2563.00, 
2564.00, 
2565.00, 
2566.00, 
2567.00, 
2568.00, 
2569.00, 
2570.00, 
2571.00, 
2572.00, 
2573.00, 
2574.00, 
2575.00, 
2576.00, 
2577.00, 
2578.00, 
2579.00, 
2580.00, 
2581.00, 
2582.00, 
2583.00, 
2584.00, 
2585.00, 
2586.00, 
2587.00, 
2588.00, 
2589.00, 
2590.00, 
2591.00, 
2592.00, 
2593.00, 
2594.00, 
2595.00, 
2596.00, 
2597.00, 
2598.00, 
2599.00, 
2600.00, 
