"1cP5 - RawData"
"Wavelength nm.","T%"
200.00,0.002
201.00,0.002
202.00,-0.001
203.00,-0.003
204.00,0.000
205.00,0.000
206.00,0.002
207.00,0.002
208.00,0.002
209.00,0.003
210.00,0.001
211.00,0.000
212.00,-0.001
213.00,-0.001
214.00,0.000
215.00,0.002
216.00,0.002
217.00,-0.001
218.00,-0.001
219.00,0.003
220.00,0.000
221.00,-0.000
222.00,-0.001
223.00,0.001
224.00,0.002
225.00,0.002
226.00,0.000
227.00,-0.003
228.00,0.001
229.00,0.001
230.00,0.003
231.00,-0.001
232.00,0.001
233.00,0.001
234.00,0.000
235.00,0.002
236.00,0.001
237.00,0.001
238.00,0.000
239.00,-0.002
240.00,0.001
241.00,-0.000
242.00,0.001
243.00,0.000
244.00,0.000
245.00,-0.001
246.00,0.002
247.00,-0.001
248.00,0.002
249.00,0.002
250.00,0.002
251.00,0.002
252.00,0.001
253.00,0.001
254.00,0.001
255.00,0.000
256.00,0.000
257.00,-0.000
258.00,0.002
259.00,-0.001
260.00,0.001
261.00,-0.001
262.00,0.000
263.00,0.001
264.00,-0.002
265.00,0.001
266.00,0.002
267.00,0.001
268.00,0.000
269.00,-0.000
270.00,-0.001
271.00,-0.001
272.00,0.000
273.00,-0.002
274.00,0.000
275.00,0.000
276.00,0.002
277.00,0.001
278.00,-0.001
279.00,0.000
280.00,-0.000
281.00,0.000
282.00,0.001
283.00,0.000
284.00,-0.000
285.00,-0.000
286.00,0.000
287.00,0.001
288.00,0.000
289.00,0.002
290.00,0.001
291.00,-0.000
292.00,-0.001
293.00,0.000
294.00,0.001
295.00,-0.000
296.00,0.001
297.00,-0.001
298.00,0.000
299.00,0.002
300.00,0.000
301.00,-0.000
302.00,0.000
303.00,0.000
304.00,0.001
305.00,0.001
306.00,0.001
307.00,0.002
308.00,0.006
309.00,0.008
310.00,0.013
311.00,0.019
312.00,0.036
313.00,0.053
314.00,0.083
315.00,0.115
316.00,0.167
317.00,0.230
318.00,0.312
319.00,0.418
320.00,0.562
321.00,0.738
322.00,0.928
323.00,1.185
324.00,1.453
325.00,1.732
326.00,2.067
327.00,2.448
328.00,2.867
329.00,3.258
330.00,3.785
331.00,4.283
332.00,4.781
333.00,5.347
334.00,5.883
335.00,6.479
336.00,7.056
337.00,7.618
338.00,8.211
339.00,8.760
340.00,9.317
341.00,9.879
342.00,10.414
343.00,10.937
344.00,11.435
345.00,11.917
346.00,12.385
347.00,12.776
348.00,13.230
349.00,13.609
350.00,13.949
351.00,14.298
352.00,14.608
353.00,14.902
354.00,15.145
355.00,15.401
356.00,15.691
357.00,15.865
358.00,16.083
359.00,16.259
360.00,16.419
361.00,16.566
362.00,16.746
363.00,16.888
364.00,16.923
365.00,17.044
366.00,17.125
367.00,17.151
368.00,17.209
369.00,17.221
370.00,17.251
371.00,17.226
372.00,17.181
373.00,17.199
374.00,17.164
375.00,17.103
376.00,17.041
377.00,16.938
378.00,16.878
379.00,16.800
380.00,16.762
381.00,16.761
382.00,16.729
383.00,16.728
384.00,16.751
385.00,16.760
386.00,16.785
387.00,16.822
388.00,16.883
389.00,16.918
390.00,16.900
391.00,16.908
392.00,16.960
393.00,16.979
394.00,16.959
395.00,16.956
396.00,16.907
397.00,16.962
398.00,16.923
399.00,16.902
400.00,16.932
401.00,16.880
402.00,16.908
403.00,16.907
404.00,16.969
405.00,16.885
406.00,16.885
407.00,16.793
408.00,16.834
409.00,16.786
410.00,16.752
411.00,16.740
412.00,16.733
413.00,16.711
414.00,16.697
415.00,16.656
416.00,16.705
417.00,16.708
418.00,16.705
419.00,16.755
420.00,16.765
421.00,16.795
422.00,16.787
423.00,16.827
424.00,16.870
425.00,16.897
426.00,16.902
427.00,16.971
428.00,16.996
429.00,17.029
430.00,17.072
431.00,17.107
432.00,17.160
433.00,17.235
434.00,17.263
435.00,17.335
436.00,17.389
437.00,17.444
438.00,17.518
439.00,17.567
440.00,17.661
441.00,17.701
442.00,17.809
443.00,17.862
444.00,17.959
445.00,18.034
446.00,18.135
447.00,18.219
448.00,18.305
449.00,18.386
450.00,18.476
451.00,18.618
452.00,18.714
453.00,18.847
454.00,18.955
455.00,19.047
456.00,19.177
457.00,19.292
458.00,19.396
459.00,19.533
460.00,19.661
461.00,19.847
462.00,19.876
463.00,20.033
464.00,20.164
465.00,20.296
466.00,20.407
467.00,20.537
468.00,20.654
469.00,20.792
470.00,20.900
471.00,21.002
472.00,21.138
473.00,21.237
474.00,21.344
475.00,21.508
476.00,21.596
477.00,21.777
478.00,21.869
479.00,22.054
480.00,22.221
481.00,22.314
482.00,22.495
483.00,22.636
484.00,22.810
485.00,22.976
486.00,23.115
487.00,23.256
488.00,23.399
489.00,23.584
490.00,23.690
491.00,23.841
492.00,23.988
493.00,24.153
494.00,24.320
495.00,24.438
496.00,24.546
497.00,24.670
498.00,24.875
499.00,24.994
500.00,25.175
501.00,25.270
502.00,25.399
503.00,25.574
504.00,25.636
505.00,25.757
506.00,25.898
507.00,26.021
508.00,26.180
509.00,26.339
510.00,26.472
511.00,26.574
512.00,26.700
513.00,26.856
514.00,27.008
515.00,27.088
516.00,27.244
517.00,27.324
518.00,27.454
519.00,27.559
520.00,27.624
521.00,27.741
522.00,27.856
523.00,27.951
524.00,28.073
525.00,28.207
526.00,28.247
527.00,28.378
528.00,28.452
529.00,28.562
530.00,28.720
531.00,28.885
532.00,28.973
533.00,29.070
534.00,29.170
535.00,29.294
536.00,29.368
537.00,29.457
538.00,29.576
539.00,29.596
540.00,29.704
541.00,29.745
542.00,29.795
543.00,29.897
544.00,29.944
545.00,30.085
546.00,30.154
547.00,30.223
548.00,30.315
549.00,30.409
550.00,30.478
551.00,30.561
552.00,30.652
553.00,30.693
554.00,30.746
555.00,30.811
556.00,30.918
557.00,30.972
558.00,31.020
559.00,31.105
560.00,31.170
561.00,31.257
562.00,31.287
563.00,31.306
564.00,31.417
565.00,31.457
566.00,31.442
567.00,31.522
568.00,31.580
569.00,31.627
570.00,31.649
571.00,31.700
572.00,31.770
573.00,31.718
574.00,31.794
575.00,31.834
576.00,31.818
577.00,31.869
578.00,31.982
579.00,32.114
580.00,32.031
581.00,32.130
582.00,32.287
583.00,32.365
584.00,32.411
585.00,32.451
586.00,32.499
587.00,32.553
588.00,32.599
589.00,32.562
590.00,32.622
591.00,32.718
592.00,32.745
593.00,32.819
594.00,32.862
595.00,32.897
596.00,32.980
597.00,33.026
598.00,33.093
599.00,33.113
600.00,33.209
601.00,33.250
602.00,33.209
603.00,33.303
604.00,33.334
605.00,33.458
606.00,33.492
607.00,33.505
608.00,33.527
609.00,33.580
610.00,33.693
611.00,33.668
612.00,33.734
613.00,33.749
614.00,33.829
615.00,33.852
616.00,33.988
617.00,33.994
618.00,34.082
619.00,34.164
620.00,34.131
621.00,34.193
622.00,34.342
623.00,34.395
624.00,34.489
625.00,34.556
626.00,34.563
627.00,34.706
628.00,34.782
629.00,34.751
630.00,34.826
631.00,34.904
632.00,35.003
633.00,35.105
634.00,35.151
635.00,35.252
636.00,35.314
637.00,35.452
638.00,35.525
639.00,35.616
640.00,35.716
641.00,35.782
642.00,35.847
643.00,35.945
644.00,36.073
645.00,36.108
646.00,36.288
647.00,36.304
648.00,36.317
649.00,36.458
650.00,36.494
651.00,36.627
652.00,36.667
653.00,36.778
654.00,36.810
655.00,37.035
656.00,37.199
657.00,37.325
658.00,37.461
659.00,37.539
660.00,37.528
661.00,37.552
662.00,37.839
663.00,37.861
664.00,38.002
665.00,38.213
666.00,38.344
667.00,38.374
668.00,38.367
669.00,38.625
670.00,38.814
671.00,38.715
672.00,39.260
673.00,39.090
674.00,39.223
675.00,39.287
676.00,39.516
677.00,39.584
678.00,39.579
679.00,39.830
680.00,39.914
681.00,40.019
682.00,40.257
683.00,40.254
684.00,40.376
685.00,40.534
686.00,40.514
687.00,40.703
688.00,40.791
689.00,40.833
690.00,40.993
691.00,41.264
692.00,41.280
693.00,41.280
694.00,41.441
695.00,41.625
696.00,41.730
697.00,41.757
698.00,41.846
699.00,42.092
700.00,42.210
701.00,42.257
702.00,42.429
703.00,42.603
704.00,42.761
705.00,42.617
706.00,42.730
707.00,43.039
708.00,42.835
709.00,43.159
710.00,43.471
711.00,43.326
712.00,43.334
713.00,43.480
714.00,43.570
715.00,43.669
716.00,43.777
717.00,43.874
718.00,44.008
719.00,44.123
720.00,44.280
721.00,48.324
722.00,48.392
723.00,48.441
724.00,48.468
725.00,48.546
726.00,48.588
727.00,48.596
728.00,48.681
729.00,48.724
730.00,48.840
731.00,48.848
732.00,48.939
733.00,48.990
734.00,49.019
735.00,49.041
736.00,49.137
737.00,49.154
738.00,49.200
739.00,49.294
740.00,49.278
741.00,49.468
742.00,49.461
743.00,49.518
744.00,49.511
745.00,49.576
746.00,49.546
747.00,49.627
748.00,49.610
749.00,49.668
750.00,49.748
751.00,49.727
752.00,49.761
753.00,49.770
754.00,49.831
755.00,49.881
756.00,49.884
757.00,49.923
758.00,49.849
759.00,50.011
760.00,49.983
761.00,50.019
762.00,50.063
763.00,50.132
764.00,50.072
765.00,50.162
766.00,50.108
767.00,50.256
768.00,50.218
769.00,50.195
770.00,50.258
771.00,50.337
772.00,50.366
773.00,50.337
774.00,50.327
775.00,50.361
776.00,50.389
777.00,50.486
778.00,50.454
779.00,50.528
780.00,50.515
781.00,50.543
782.00,50.550
783.00,50.477
784.00,50.557
785.00,50.460
786.00,50.516
787.00,50.560
788.00,50.561
789.00,50.579
790.00,50.480
791.00,50.648
792.00,50.516
793.00,50.546
794.00,50.595
795.00,50.533
796.00,50.626
797.00,50.540
798.00,50.585
799.00,50.563
800.00,50.552
801.00,50.605
802.00,50.566
803.00,50.554
804.00,50.465
805.00,50.483
806.00,50.543
807.00,50.484
808.00,50.540
809.00,50.500
810.00,50.453
811.00,50.524
812.00,50.538
813.00,50.492
814.00,50.462
815.00,50.525
816.00,50.426
817.00,50.477
818.00,50.379
819.00,50.412
820.00,50.459
821.00,50.450
822.00,50.466
823.00,50.388
824.00,50.401
825.00,50.346
826.00,50.414
827.00,50.341
828.00,50.402
829.00,50.371
830.00,50.370
831.00,52.828
832.00,52.798
833.00,52.783
834.00,52.780
835.00,52.758
836.00,52.776
837.00,52.754
838.00,52.724
839.00,52.730
840.00,52.675
841.00,52.680
842.00,52.617
843.00,52.741
844.00,52.688
845.00,52.665
846.00,52.660
847.00,52.627
848.00,52.642
849.00,52.561
850.00,52.545
851.00,52.498
852.00,52.508
853.00,52.482
854.00,52.449
855.00,52.400
856.00,52.388
857.00,52.392
858.00,52.377
859.00,52.365
860.00,52.351
861.00,52.336
862.00,52.303
863.00,52.308
864.00,52.291
865.00,52.318
866.00,52.296
867.00,52.305
868.00,52.305
869.00,52.280
870.00,52.292
871.00,52.240
872.00,52.260
873.00,52.234
874.00,52.261
875.00,52.199
876.00,52.221
877.00,52.211
878.00,52.206
879.00,52.185
880.00,52.138
881.00,52.147
882.00,52.183
883.00,52.133
884.00,52.043
885.00,52.259
886.00,52.065
887.00,52.037
888.00,52.039
889.00,52.031
890.00,51.994
891.00,51.982
892.00,51.994
893.00,51.966
894.00,51.949
895.00,51.937
896.00,51.911
897.00,51.897
898.00,51.862
899.00,51.881
900.00,51.859
901.00,51.846
902.00,51.857
903.00,51.822
904.00,51.811
905.00,51.797
906.00,51.775
907.00,51.761
908.00,51.720
909.00,51.726
910.00,51.695
911.00,51.677
912.00,51.668
913.00,51.633
914.00,51.650
915.00,51.607
916.00,51.592
917.00,51.576
918.00,51.553
919.00,51.525
920.00,51.493
921.00,51.500
922.00,51.496
923.00,51.431
924.00,51.451
925.00,51.450
926.00,51.431
927.00,51.428
928.00,51.398
929.00,51.399
930.00,51.366
931.00,51.359
932.00,51.309
933.00,51.339
934.00,51.306
935.00,51.253
936.00,51.261
937.00,51.244
938.00,51.224
939.00,51.193
940.00,51.276
941.00,51.187
942.00,51.171
943.00,51.151
944.00,51.106
945.00,51.110
946.00,51.098
947.00,51.051
948.00,51.031
949.00,51.038
950.00,51.018
951.00,50.971
952.00,50.981
953.00,50.956
954.00,50.914
955.00,50.898
956.00,50.865
957.00,50.831
958.00,50.843
959.00,50.804
960.00,50.786
961.00,50.790
962.00,50.779
963.00,50.743
964.00,50.744
965.00,50.736
966.00,50.741
967.00,50.716
968.00,50.718
969.00,50.740
970.00,50.703
971.00,50.728
972.00,50.684
973.00,50.719
974.00,50.738
975.00,50.724
976.00,50.715
977.00,50.718
978.00,50.735
979.00,50.697
980.00,50.715
981.00,50.707
982.00,50.704
983.00,50.697
984.00,50.641
985.00,50.704
986.00,50.663
987.00,50.685
988.00,50.638
989.00,50.619
990.00,50.628
991.00,50.621
992.00,50.615
993.00,50.601
994.00,50.588
995.00,50.558
996.00,50.570
997.00,50.549
998.00,50.521
999.00,50.538
1000.00,50.497
1001.00,50.485
1002.00,50.492
1003.00,50.474
1004.00,50.456
1005.00,50.428
1006.00,50.456
1007.00,50.447
1008.00,50.420
1009.00,50.392
1010.00,50.402
1011.00,50.369
1012.00,50.342
1013.00,50.362
1014.00,50.313
1015.00,50.370
1016.00,50.351
1017.00,50.303
1018.00,50.291
1019.00,50.267
1020.00,50.247
1021.00,50.241
1022.00,50.215
1023.00,50.174
1024.00,50.166
1025.00,50.157
1026.00,50.153
1027.00,50.115
1028.00,50.126
1029.00,50.123
1030.00,50.078
1031.00,50.115
1032.00,50.062
1033.00,50.052
1034.00,50.031
1035.00,49.995
1036.00,49.963
1037.00,49.961
1038.00,49.960
1039.00,49.930
1040.00,49.928
1041.00,49.910
1042.00,49.877
1043.00,49.863
1044.00,49.880
1045.00,49.863
1046.00,49.862
1047.00,49.855
1048.00,49.898
1049.00,49.889
1050.00,49.886
1051.00,49.938
1052.00,49.945
1053.00,49.943
1054.00,49.954
1055.00,49.953
1056.00,49.956
1057.00,49.965
1058.00,49.946
1059.00,49.956
1060.00,49.971
1061.00,49.937
1062.00,49.939
1063.00,49.939
1064.00,49.932
1065.00,49.932
1066.00,49.920
1067.00,49.911
1068.00,49.931
1069.00,49.891
1070.00,49.875
1071.00,49.866
1072.00,49.870
1073.00,49.854
1074.00,49.855
1075.00,49.837
1076.00,49.853
1077.00,49.819
1078.00,49.809
1079.00,49.816
1080.00,49.808
1081.00,49.809
1082.00,49.810
1083.00,49.790
1084.00,49.789
1085.00,49.792
1086.00,49.767
1087.00,49.777
1088.00,49.756
1089.00,49.742
1090.00,49.756
1091.00,49.750
1092.00,49.746
1093.00,49.730
1094.00,49.691
1095.00,49.708
1096.00,49.690
1097.00,49.692
1098.00,49.683
1099.00,49.663
1100.00,49.662
1101.00,49.660
1102.00,49.638
1103.00,49.639
1104.00,49.643
1105.00,49.607
1106.00,49.608
1107.00,49.614
1108.00,49.582
1109.00,49.591
1110.00,49.576
1111.00,49.577
1112.00,49.576
1113.00,49.552
1114.00,49.550
1115.00,49.554
1116.00,49.538
1117.00,49.526
1118.00,49.504
1119.00,49.497
1120.00,49.515
1121.00,49.510
1122.00,49.498
1123.00,49.488
1124.00,49.472
1125.00,49.490
1126.00,49.493
1127.00,49.470
1128.00,49.471
1129.00,49.455
1130.00,49.445
1131.00,49.445
1132.00,49.434
1133.00,49.420
1134.00,49.420
1135.00,49.388
1136.00,49.406
1137.00,49.411
1138.00,49.405
1139.00,49.422
1140.00,49.410
1141.00,49.393
1142.00,49.400
1143.00,49.421
1144.00,49.405
1145.00,49.403
1146.00,49.384
1147.00,49.388
1148.00,49.378
1149.00,49.377
1150.00,49.399
1151.00,49.382
1152.00,49.381
1153.00,49.395
1154.00,49.360
1155.00,49.364
1156.00,49.359
1157.00,49.352
1158.00,49.357
1159.00,49.361
1160.00,49.349
1161.00,49.374
1162.00,49.365
1163.00,49.351
1164.00,49.352
1165.00,49.359
1166.00,49.342
1167.00,49.343
1168.00,49.362
1169.00,49.346
1170.00,49.342
1171.00,49.324
1172.00,49.328
1173.00,49.325
1174.00,49.322
1175.00,49.323
1176.00,49.318
1177.00,49.315
1178.00,49.323
1179.00,49.322
1180.00,49.322
1181.00,49.339
1182.00,49.325
1183.00,49.329
1184.00,49.318
1185.00,49.333
1186.00,49.342
1187.00,49.330
1188.00,49.324
1189.00,49.329
1190.00,49.305
1191.00,49.313
1192.00,49.343
1193.00,49.318
1194.00,49.333
1195.00,49.318
1196.00,49.335
1197.00,49.344
1198.00,49.328
1199.00,49.319
1200.00,49.330
1201.00,49.333
1202.00,49.338
1203.00,49.332
1204.00,49.314
1205.00,49.339
1206.00,49.335
1207.00,49.326
1208.00,49.314
1209.00,49.339
1210.00,49.325
1211.00,49.345
1212.00,49.343
1213.00,49.316
1214.00,49.363
1215.00,49.312
1216.00,49.345
1217.00,49.354
1218.00,49.341
1219.00,49.350
1220.00,49.334
1221.00,49.348
1222.00,49.345
1223.00,49.354
1224.00,49.364
1225.00,49.348
1226.00,49.339
1227.00,49.348
1228.00,49.380
1229.00,49.383
1230.00,49.395
1231.00,49.381
1232.00,49.395
1233.00,49.415
1234.00,49.382
1235.00,49.397
1236.00,49.394
1237.00,49.366
1238.00,49.385
1239.00,49.395
1240.00,49.382
1241.00,49.392
1242.00,49.396
1243.00,49.423
1244.00,49.403
1245.00,49.419
1246.00,49.459
1247.00,49.443
1248.00,49.424
1249.00,49.451
1250.00,49.453
1251.00,49.430
1252.00,49.463
1253.00,49.448
1254.00,49.461
1255.00,49.461
1256.00,49.444
1257.00,49.458
1258.00,49.492
1259.00,49.479
1260.00,49.511
1261.00,49.511
1262.00,49.505
1263.00,49.510
1264.00,49.502
1265.00,49.504
1266.00,49.508
1267.00,49.506
1268.00,49.531
1269.00,49.530
1270.00,49.528
1271.00,49.545
1272.00,49.557
1273.00,49.560
1274.00,49.581
1275.00,49.583
1276.00,49.578
1277.00,49.581
1278.00,49.583
1279.00,49.592
1280.00,49.582
1281.00,49.594
1282.00,49.616
1283.00,49.601
1284.00,49.613
1285.00,49.624
1286.00,49.620
1287.00,49.627
1288.00,49.632
1289.00,49.625
1290.00,49.673
1291.00,49.647
1292.00,49.628
1293.00,49.657
1294.00,49.668
1295.00,49.679
1296.00,49.695
1297.00,49.694
1298.00,49.721
1299.00,49.697
1300.00,49.700
1301.00,49.716
1302.00,49.720
1303.00,49.738
1304.00,49.734
1305.00,49.756
1306.00,49.753
1307.00,49.764
1308.00,49.760
1309.00,49.756
1310.00,49.767
1311.00,49.745
1312.00,49.772
1313.00,49.780
1314.00,49.790
1315.00,49.818
1316.00,49.820
1317.00,49.833
1318.00,49.858
1319.00,49.850
1320.00,49.853
1321.00,50.038
1322.00,50.012
1323.00,49.999
1324.00,50.012
1325.00,49.980
1326.00,49.995
1327.00,49.997
1328.00,49.996
1329.00,50.007
1330.00,50.025
1331.00,50.018
1332.00,50.016
1333.00,50.045
1334.00,50.055
1335.00,50.082
1336.00,50.084
1337.00,50.117
1338.00,50.195
1339.00,50.226
1340.00,50.298
1341.00,50.354
1342.00,50.412
1343.00,50.463
1344.00,50.507
1345.00,50.586
1346.00,50.606
1347.00,50.626
1348.00,50.665
1349.00,50.685
1350.00,50.689
1351.00,50.704
1352.00,50.712
1353.00,50.687
1354.00,50.727
1355.00,50.702
1356.00,50.727
1357.00,50.735
1358.00,50.760
1359.00,50.770
1360.00,50.777
1361.00,50.756
1362.00,50.734
1363.00,50.800
1364.00,50.820
1365.00,50.772
1366.00,50.784
1367.00,50.808
1368.00,50.767
1369.00,50.770
1370.00,50.800
1371.00,50.755
1372.00,50.753
1373.00,50.796
1374.00,50.799
1375.00,50.776
1376.00,50.764
1377.00,50.734
1378.00,50.834
1379.00,50.799
1380.00,50.798
1381.00,50.847
1382.00,50.823
1383.00,50.814
1384.00,50.767
1385.00,50.737
1386.00,50.733
1387.00,50.847
1388.00,50.775
1389.00,50.735
1390.00,50.724
1391.00,50.823
1392.00,50.777
1393.00,50.753
1394.00,50.808
1395.00,50.712
1396.00,50.746
1397.00,50.718
1398.00,50.757
1399.00,50.842
1400.00,50.787
1401.00,50.750
1402.00,50.787
1403.00,50.842
1404.00,50.803
1405.00,50.825
1406.00,50.845
1407.00,50.821
1408.00,50.859
1409.00,50.854
1410.00,50.869
1411.00,50.805
1412.00,50.911
1413.00,50.858
1414.00,50.866
1415.00,50.901
1416.00,50.914
1417.00,50.961
1418.00,50.943
1419.00,50.936
1420.00,50.959
1421.00,50.995
1422.00,50.984
1423.00,51.007
1424.00,51.013
1425.00,51.042
1426.00,51.048
1427.00,51.074
1428.00,51.083
1429.00,51.108
1430.00,51.108
1431.00,51.141
1432.00,51.160
1433.00,51.180
1434.00,51.171
1435.00,51.218
1436.00,51.238
1437.00,51.240
1438.00,51.249
1439.00,51.295
1440.00,51.300
1441.00,51.291
1442.00,51.318
1443.00,51.337
1444.00,51.393
1445.00,51.365
1446.00,51.384
1447.00,51.412
1448.00,51.438
1449.00,51.463
1450.00,51.470
1451.00,51.479
1452.00,51.483
1453.00,51.502
1454.00,51.514
1455.00,51.544
1456.00,51.573
1457.00,51.566
1458.00,51.593
1459.00,51.615
1460.00,51.645
1461.00,51.637
1462.00,51.709
1463.00,51.686
1464.00,51.707
1465.00,51.728
1466.00,51.713
1467.00,51.779
1468.00,51.784
1469.00,51.788
1470.00,51.810
1471.00,51.807
1472.00,51.838
1473.00,51.862
1474.00,51.868
1475.00,51.899
1476.00,51.905
1477.00,51.897
1478.00,51.929
1479.00,51.934
1480.00,51.939
1481.00,51.959
1482.00,51.974
1483.00,52.000
1484.00,52.002
1485.00,52.001
1486.00,52.026
1487.00,52.045
1488.00,52.053
1489.00,52.067
1490.00,52.066
1491.00,52.067
1492.00,52.102
1493.00,52.084
1494.00,52.139
1495.00,52.128
1496.00,52.153
1497.00,52.151
1498.00,52.156
1499.00,52.185
1500.00,52.207
1501.00, 
1502.00, 
1503.00, 
1504.00, 
1505.00, 
1506.00, 
1507.00, 
1508.00, 
1509.00, 
1510.00, 
1511.00, 
1512.00, 
1513.00, 
1514.00, 
1515.00, 
1516.00, 
1517.00, 
1518.00, 
1519.00, 
1520.00, 
1521.00, 
1522.00, 
1523.00, 
1524.00, 
1525.00, 
1526.00, 
1527.00, 
1528.00, 
1529.00, 
1530.00, 
1531.00, 
1532.00, 
1533.00, 
1534.00, 
1535.00, 
1536.00, 
1537.00, 
1538.00, 
1539.00, 
1540.00, 
1541.00, 
1542.00, 
1543.00, 
1544.00, 
1545.00, 
1546.00, 
1547.00, 
1548.00, 
1549.00, 
1550.00, 
1551.00, 
1552.00, 
1553.00, 
1554.00, 
1555.00, 
1556.00, 
1557.00, 
1558.00, 
1559.00, 
1560.00, 
1561.00, 
1562.00, 
1563.00, 
1564.00, 
1565.00, 
1566.00, 
1567.00, 
1568.00, 
1569.00, 
1570.00, 
1571.00, 
1572.00, 
1573.00, 
1574.00, 
1575.00, 
1576.00, 
1577.00, 
1578.00, 
1579.00, 
1580.00, 
1581.00, 
1582.00, 
1583.00, 
1584.00, 
1585.00, 
1586.00, 
1587.00, 
1588.00, 
1589.00, 
1590.00, 
1591.00, 
1592.00, 
1593.00, 
1594.00, 
1595.00, 
1596.00, 
1597.00, 
1598.00, 
1599.00, 
1600.00, 
1601.00, 
1602.00, 
1603.00, 
1604.00, 
1605.00, 
1606.00, 
1607.00, 
1608.00, 
1609.00, 
1610.00, 
1611.00, 
1612.00, 
1613.00, 
1614.00, 
1615.00, 
1616.00, 
1617.00, 
1618.00, 
1619.00, 
1620.00, 
1621.00, 
1622.00, 
1623.00, 
1624.00, 
1625.00, 
1626.00, 
1627.00, 
1628.00, 
1629.00, 
1630.00, 
1631.00, 
1632.00, 
1633.00, 
1634.00, 
1635.00, 
1636.00, 
1637.00, 
1638.00, 
1639.00, 
1640.00, 
1641.00, 
1642.00, 
1643.00, 
1644.00, 
1645.00, 
1646.00, 
1647.00, 
1648.00, 
1649.00, 
1650.00, 
1651.00, 
1652.00, 
1653.00, 
1654.00, 
1655.00, 
1656.00, 
1657.00, 
1658.00, 
1659.00, 
1660.00, 
1661.00, 
1662.00, 
1663.00, 
1664.00, 
1665.00, 
1666.00, 
1667.00, 
1668.00, 
1669.00, 
1670.00, 
1671.00, 
1672.00, 
1673.00, 
1674.00, 
1675.00, 
1676.00, 
1677.00, 
1678.00, 
1679.00, 
1680.00, 
1681.00, 
1682.00, 
1683.00, 
1684.00, 
1685.00, 
1686.00, 
1687.00, 
1688.00, 
1689.00, 
1690.00, 
1691.00, 
1692.00, 
1693.00, 
1694.00, 
1695.00, 
1696.00, 
1697.00, 
1698.00, 
1699.00, 
1700.00, 
1701.00, 
1702.00, 
1703.00, 
1704.00, 
1705.00, 
1706.00, 
1707.00, 
1708.00, 
1709.00, 
1710.00, 
1711.00, 
1712.00, 
1713.00, 
1714.00, 
1715.00, 
1716.00, 
1717.00, 
1718.00, 
1719.00, 
1720.00, 
1721.00, 
1722.00, 
1723.00, 
1724.00, 
1725.00, 
1726.00, 
1727.00, 
1728.00, 
1729.00, 
1730.00, 
1731.00, 
1732.00, 
1733.00, 
1734.00, 
1735.00, 
1736.00, 
1737.00, 
1738.00, 
1739.00, 
1740.00, 
1741.00, 
1742.00, 
1743.00, 
1744.00, 
1745.00, 
1746.00, 
1747.00, 
1748.00, 
1749.00, 
1750.00, 
1751.00, 
1752.00, 
1753.00, 
1754.00, 
1755.00, 
1756.00, 
1757.00, 
1758.00, 
1759.00, 
1760.00, 
1761.00, 
1762.00, 
1763.00, 
1764.00, 
1765.00, 
1766.00, 
1767.00, 
1768.00, 
1769.00, 
1770.00, 
1771.00, 
1772.00, 
1773.00, 
1774.00, 
1775.00, 
1776.00, 
1777.00, 
1778.00, 
1779.00, 
1780.00, 
1781.00, 
1782.00, 
1783.00, 
1784.00, 
1785.00, 
1786.00, 
1787.00, 
1788.00, 
1789.00, 
1790.00, 
1791.00, 
1792.00, 
1793.00, 
1794.00, 
1795.00, 
1796.00, 
1797.00, 
1798.00, 
1799.00, 
1800.00, 
1801.00, 
1802.00, 
1803.00, 
1804.00, 
1805.00, 
1806.00, 
1807.00, 
1808.00, 
1809.00, 
1810.00, 
1811.00, 
1812.00, 
1813.00, 
1814.00, 
1815.00, 
1816.00, 
1817.00, 
1818.00, 
1819.00, 
1820.00, 
1821.00, 
1822.00, 
1823.00, 
1824.00, 
1825.00, 
1826.00, 
1827.00, 
1828.00, 
1829.00, 
1830.00, 
1831.00, 
1832.00, 
1833.00, 
1834.00, 
1835.00, 
1836.00, 
1837.00, 
1838.00, 
1839.00, 
1840.00, 
1841.00, 
1842.00, 
1843.00, 
1844.00, 
1845.00, 
1846.00, 
1847.00, 
1848.00, 
1849.00, 
1850.00, 
1851.00, 
1852.00, 
1853.00, 
1854.00, 
1855.00, 
1856.00, 
1857.00, 
1858.00, 
1859.00, 
1860.00, 
1861.00, 
1862.00, 
1863.00, 
1864.00, 
1865.00, 
1866.00, 
1867.00, 
1868.00, 
1869.00, 
1870.00, 
1871.00, 
1872.00, 
1873.00, 
1874.00, 
1875.00, 
1876.00, 
1877.00, 
1878.00, 
1879.00, 
1880.00, 
1881.00, 
1882.00, 
1883.00, 
1884.00, 
1885.00, 
1886.00, 
1887.00, 
1888.00, 
1889.00, 
1890.00, 
1891.00, 
1892.00, 
1893.00, 
1894.00, 
1895.00, 
1896.00, 
1897.00, 
1898.00, 
1899.00, 
1900.00, 
1901.00, 
1902.00, 
1903.00, 
1904.00, 
1905.00, 
1906.00, 
1907.00, 
1908.00, 
1909.00, 
1910.00, 
1911.00, 
1912.00, 
1913.00, 
1914.00, 
1915.00, 
1916.00, 
1917.00, 
1918.00, 
1919.00, 
1920.00, 
1921.00, 
1922.00, 
1923.00, 
1924.00, 
1925.00, 
1926.00, 
1927.00, 
1928.00, 
1929.00, 
1930.00, 
1931.00, 
1932.00, 
1933.00, 
1934.00, 
1935.00, 
1936.00, 
1937.00, 
1938.00, 
1939.00, 
1940.00, 
1941.00, 
1942.00, 
1943.00, 
1944.00, 
1945.00, 
1946.00, 
1947.00, 
1948.00, 
1949.00, 
1950.00, 
1951.00, 
1952.00, 
1953.00, 
1954.00, 
1955.00, 
1956.00, 
1957.00, 
1958.00, 
1959.00, 
1960.00, 
1961.00, 
1962.00, 
1963.00, 
1964.00, 
1965.00, 
1966.00, 
1967.00, 
1968.00, 
1969.00, 
1970.00, 
1971.00, 
1972.00, 
1973.00, 
1974.00, 
1975.00, 
1976.00, 
1977.00, 
1978.00, 
1979.00, 
1980.00, 
1981.00, 
1982.00, 
1983.00, 
1984.00, 
1985.00, 
1986.00, 
1987.00, 
1988.00, 
1989.00, 
1990.00, 
1991.00, 
1992.00, 
1993.00, 
1994.00, 
1995.00, 
1996.00, 
1997.00, 
1998.00, 
1999.00, 
2000.00, 
2001.00, 
2002.00, 
2003.00, 
2004.00, 
2005.00, 
2006.00, 
2007.00, 
2008.00, 
2009.00, 
2010.00, 
2011.00, 
2012.00, 
2013.00, 
2014.00, 
2015.00, 
2016.00, 
2017.00, 
2018.00, 
2019.00, 
2020.00, 
2021.00, 
2022.00, 
2023.00, 
2024.00, 
2025.00, 
2026.00, 
2027.00, 
2028.00, 
2029.00, 
2030.00, 
2031.00, 
2032.00, 
2033.00, 
2034.00, 
2035.00, 
2036.00, 
2037.00, 
2038.00, 
2039.00, 
2040.00, 
2041.00, 
2042.00, 
2043.00, 
2044.00, 
2045.00, 
2046.00, 
2047.00, 
2048.00, 
2049.00, 
2050.00, 
2051.00, 
2052.00, 
2053.00, 
2054.00, 
2055.00, 
2056.00, 
2057.00, 
2058.00, 
2059.00, 
2060.00, 
2061.00, 
2062.00, 
2063.00, 
2064.00, 
2065.00, 
2066.00, 
2067.00, 
2068.00, 
2069.00, 
2070.00, 
2071.00, 
2072.00, 
2073.00, 
2074.00, 
2075.00, 
2076.00, 
2077.00, 
2078.00, 
2079.00, 
2080.00, 
2081.00, 
2082.00, 
2083.00, 
2084.00, 
2085.00, 
2086.00, 
2087.00, 
2088.00, 
2089.00, 
2090.00, 
2091.00, 
2092.00, 
2093.00, 
2094.00, 
2095.00, 
2096.00, 
2097.00, 
2098.00, 
2099.00, 
2100.00, 
2101.00, 
2102.00, 
2103.00, 
2104.00, 
2105.00, 
2106.00, 
2107.00, 
2108.00, 
2109.00, 
2110.00, 
2111.00, 
2112.00, 
2113.00, 
2114.00, 
2115.00, 
2116.00, 
2117.00, 
2118.00, 
2119.00, 
2120.00, 
2121.00, 
2122.00, 
2123.00, 
2124.00, 
2125.00, 
2126.00, 
2127.00, 
2128.00, 
2129.00, 
2130.00, 
2131.00, 
2132.00, 
2133.00, 
2134.00, 
2135.00, 
2136.00, 
2137.00, 
2138.00, 
2139.00, 
2140.00, 
2141.00, 
2142.00, 
2143.00, 
2144.00, 
2145.00, 
2146.00, 
2147.00, 
2148.00, 
2149.00, 
2150.00, 
2151.00, 
2152.00, 
2153.00, 
2154.00, 
2155.00, 
2156.00, 
2157.00, 
2158.00, 
2159.00, 
2160.00, 
2161.00, 
2162.00, 
2163.00, 
2164.00, 
2165.00, 
2166.00, 
2167.00, 
2168.00, 
2169.00, 
2170.00, 
2171.00, 
2172.00, 
2173.00, 
2174.00, 
2175.00, 
2176.00, 
2177.00, 
2178.00, 
2179.00, 
2180.00, 
2181.00, 
2182.00, 
2183.00, 
2184.00, 
2185.00, 
2186.00, 
2187.00, 
2188.00, 
2189.00, 
2190.00, 
2191.00, 
2192.00, 
2193.00, 
2194.00, 
2195.00, 
2196.00, 
2197.00, 
2198.00, 
2199.00, 
2200.00, 
2201.00, 
2202.00, 
2203.00, 
2204.00, 
2205.00, 
2206.00, 
2207.00, 
2208.00, 
2209.00, 
2210.00, 
2211.00, 
2212.00, 
2213.00, 
2214.00, 
2215.00, 
2216.00, 
2217.00, 
2218.00, 
2219.00, 
2220.00, 
2221.00, 
2222.00, 
2223.00, 
2224.00, 
2225.00, 
2226.00, 
2227.00, 
2228.00, 
2229.00, 
2230.00, 
2231.00, 
2232.00, 
2233.00, 
2234.00, 
2235.00, 
2236.00, 
2237.00, 
2238.00, 
2239.00, 
2240.00, 
2241.00, 
2242.00, 
2243.00, 
2244.00, 
2245.00, 
2246.00, 
2247.00, 
2248.00, 
2249.00, 
2250.00, 
2251.00, 
2252.00, 
2253.00, 
2254.00, 
2255.00, 
2256.00, 
2257.00, 
2258.00, 
2259.00, 
2260.00, 
2261.00, 
2262.00, 
2263.00, 
2264.00, 
2265.00, 
2266.00, 
2267.00, 
2268.00, 
2269.00, 
2270.00, 
2271.00, 
2272.00, 
2273.00, 
2274.00, 
2275.00, 
2276.00, 
2277.00, 
2278.00, 
2279.00, 
2280.00, 
2281.00, 
2282.00, 
2283.00, 
2284.00, 
2285.00, 
2286.00, 
2287.00, 
2288.00, 
2289.00, 
2290.00, 
2291.00, 
2292.00, 
2293.00, 
2294.00, 
2295.00, 
2296.00, 
2297.00, 
2298.00, 
2299.00, 
2300.00, 
2301.00, 
2302.00, 
2303.00, 
2304.00, 
2305.00, 
2306.00, 
2307.00, 
2308.00, 
2309.00, 
2310.00, 
2311.00, 
2312.00, 
2313.00, 
2314.00, 
2315.00, 
2316.00, 
2317.00, 
2318.00, 
2319.00, 
2320.00, 
2321.00, 
2322.00, 
2323.00, 
2324.00, 
2325.00, 
2326.00, 
2327.00, 
2328.00, 
2329.00, 
2330.00, 
2331.00, 
2332.00, 
2333.00, 
2334.00, 
2335.00, 
2336.00, 
2337.00, 
2338.00, 
2339.00, 
2340.00, 
2341.00, 
2342.00, 
2343.00, 
2344.00, 
2345.00, 
2346.00, 
2347.00, 
2348.00, 
2349.00, 
2350.00, 
2351.00, 
2352.00, 
2353.00, 
2354.00, 
2355.00, 
2356.00, 
2357.00, 
2358.00, 
2359.00, 
2360.00, 
2361.00, 
2362.00, 
2363.00, 
2364.00, 
2365.00, 
2366.00, 
2367.00, 
2368.00, 
2369.00, 
2370.00, 
2371.00, 
2372.00, 
2373.00, 
2374.00, 
2375.00, 
2376.00, 
2377.00, 
2378.00, 
2379.00, 
2380.00, 
2381.00, 
2382.00, 
2383.00, 
2384.00, 
2385.00, 
2386.00, 
2387.00, 
2388.00, 
2389.00, 
2390.00, 
2391.00, 
2392.00, 
2393.00, 
2394.00, 
2395.00, 
2396.00, 
2397.00, 
2398.00, 
2399.00, 
2400.00, 
2401.00, 
2402.00, 
2403.00, 
2404.00, 
2405.00, 
2406.00, 
2407.00, 
2408.00, 
2409.00, 
2410.00, 
2411.00, 
2412.00, 
2413.00, 
2414.00, 
2415.00, 
2416.00, 
2417.00, 
2418.00, 
2419.00, 
2420.00, 
2421.00, 
2422.00, 
2423.00, 
2424.00, 
2425.00, 
2426.00, 
2427.00, 
2428.00, 
2429.00, 
2430.00, 
2431.00, 
2432.00, 
2433.00, 
2434.00, 
2435.00, 
2436.00, 
2437.00, 
2438.00, 
2439.00, 
2440.00, 
2441.00, 
2442.00, 
2443.00, 
2444.00, 
2445.00, 
2446.00, 
2447.00, 
2448.00, 
2449.00, 
2450.00, 
2451.00, 
2452.00, 
2453.00, 
2454.00, 
2455.00, 
2456.00, 
2457.00, 
2458.00, 
2459.00, 
2460.00, 
2461.00, 
2462.00, 
2463.00, 
2464.00, 
2465.00, 
2466.00, 
2467.00, 
2468.00, 
2469.00, 
2470.00, 
2471.00, 
2472.00, 
2473.00, 
2474.00, 
2475.00, 
2476.00, 
2477.00, 
2478.00, 
2479.00, 
2480.00, 
2481.00, 
2482.00, 
2483.00, 
2484.00, 
2485.00, 
2486.00, 
2487.00, 
2488.00, 
2489.00, 
2490.00, 
2491.00, 
2492.00, 
2493.00, 
2494.00, 
2495.00, 
2496.00, 
2497.00, 
2498.00, 
2499.00, 
2500.00, 
2501.00, 
2502.00, 
2503.00, 
2504.00, 
2505.00, 
2506.00, 
2507.00, 
2508.00, 
2509.00, 
2510.00, 
2511.00, 
2512.00, 
2513.00, 
2514.00, 
2515.00, 
2516.00, 
2517.00, 
2518.00, 
2519.00, 
2520.00, 
2521.00, 
2522.00, 
2523.00, 
2524.00, 
2525.00, 
2526.00, 
2527.00, 
2528.00, 
2529.00, 
2530.00, 
2531.00, 
2532.00, 
2533.00, 
2534.00, 
2535.00, 
2536.00, 
2537.00, 
2538.00, 
2539.00, 
2540.00, 
2541.00, 
2542.00, 
2543.00, 
2544.00, 
2545.00, 
2546.00, 
2547.00, 
2548.00, 
2549.00, 
2550.00, 
2551.00, 
2552.00, 
2553.00, 
2554.00, 
2555.00, 
2556.00, 
2557.00, 
2558.00, 
2559.00, 
2560.00, 
2561.00, 
2562.00, 
2563.00, 
2564.00, 
2565.00, 
2566.00, 
2567.00, 
2568.00, 
2569.00, 
2570.00, 
2571.00, 
2572.00, 
2573.00, 
2574.00, 
2575.00, 
2576.00, 
2577.00, 
2578.00, 
2579.00, 
2580.00, 
2581.00, 
2582.00, 
2583.00, 
2584.00, 
2585.00, 
2586.00, 
2587.00, 
2588.00, 
2589.00, 
2590.00, 
2591.00, 
2592.00, 
2593.00, 
2594.00, 
2595.00, 
2596.00, 
2597.00, 
2598.00, 
2599.00, 
2600.00, 
