"2cP1 - RawData"
"Wavelength nm.","T%"
200.00,0.003
201.00,-0.001
202.00,0.002
203.00,0.001
204.00,-0.000
205.00,-0.001
206.00,0.002
207.00,-0.003
208.00,0.000
209.00,0.001
210.00,0.002
211.00,0.001
212.00,0.002
213.00,0.001
214.00,0.000
215.00,0.001
216.00,-0.002
217.00,0.001
218.00,0.002
219.00,0.002
220.00,0.003
221.00,-0.000
222.00,0.001
223.00,0.003
224.00,-0.000
225.00,0.001
226.00,0.001
227.00,0.002
228.00,0.002
229.00,0.000
230.00,0.002
231.00,0.002
232.00,-0.000
233.00,0.002
234.00,0.000
235.00,-0.001
236.00,-0.001
237.00,0.001
238.00,-0.000
239.00,-0.001
240.00,0.001
241.00,0.001
242.00,-0.001
243.00,0.000
244.00,-0.001
245.00,-0.000
246.00,-0.000
247.00,-0.000
248.00,-0.000
249.00,-0.001
250.00,0.000
251.00,0.000
252.00,0.000
253.00,-0.001
254.00,-0.001
255.00,0.001
256.00,0.000
257.00,-0.001
258.00,0.002
259.00,0.002
260.00,-0.000
261.00,0.000
262.00,0.001
263.00,-0.001
264.00,-0.001
265.00,-0.001
266.00,0.001
267.00,0.001
268.00,-0.000
269.00,-0.001
270.00,-0.000
271.00,-0.000
272.00,-0.000
273.00,-0.000
274.00,-0.000
275.00,0.002
276.00,0.001
277.00,-0.001
278.00,-0.000
279.00,0.001
280.00,0.000
281.00,0.001
282.00,-0.002
283.00,0.001
284.00,0.001
285.00,-0.001
286.00,0.001
287.00,-0.001
288.00,0.001
289.00,0.001
290.00,-0.000
291.00,0.000
292.00,-0.002
293.00,-0.000
294.00,-0.000
295.00,0.000
296.00,0.000
297.00,0.000
298.00,-0.001
299.00,0.003
300.00,0.001
301.00,0.004
302.00,0.003
303.00,0.007
304.00,0.009
305.00,0.014
306.00,0.022
307.00,0.031
308.00,0.051
309.00,0.082
310.00,0.114
311.00,0.155
312.00,0.205
313.00,0.279
314.00,0.367
315.00,0.485
316.00,0.617
317.00,0.767
318.00,0.961
319.00,1.182
320.00,1.414
321.00,1.713
322.00,2.017
323.00,2.391
324.00,2.776
325.00,3.160
326.00,3.518
327.00,4.016
328.00,4.507
329.00,4.972
330.00,5.476
331.00,5.989
332.00,6.483
333.00,7.028
334.00,7.535
335.00,8.091
336.00,8.630
337.00,9.147
338.00,9.663
339.00,10.125
340.00,10.619
341.00,11.087
342.00,11.530
343.00,11.964
344.00,12.379
345.00,12.732
346.00,13.159
347.00,13.495
348.00,13.853
349.00,14.139
350.00,14.409
351.00,14.664
352.00,14.924
353.00,15.211
354.00,15.410
355.00,15.608
356.00,15.826
357.00,15.988
358.00,16.158
359.00,16.293
360.00,16.412
361.00,16.560
362.00,16.683
363.00,16.798
364.00,16.884
365.00,16.933
366.00,17.009
367.00,17.081
368.00,17.094
369.00,17.146
370.00,17.206
371.00,17.184
372.00,17.160
373.00,17.175
374.00,17.122
375.00,17.142
376.00,17.088
377.00,17.036
378.00,16.988
379.00,16.977
380.00,16.903
381.00,16.880
382.00,16.899
383.00,16.880
384.00,16.902
385.00,16.906
386.00,16.910
387.00,16.929
388.00,16.921
389.00,16.927
390.00,16.944
391.00,16.921
392.00,16.953
393.00,16.895
394.00,16.957
395.00,16.961
396.00,16.931
397.00,16.961
398.00,16.939
399.00,16.936
400.00,16.938
401.00,16.917
402.00,16.920
403.00,16.894
404.00,16.917
405.00,16.941
406.00,16.892
407.00,16.890
408.00,16.867
409.00,16.842
410.00,16.832
411.00,16.794
412.00,16.785
413.00,16.792
414.00,16.761
415.00,16.775
416.00,16.800
417.00,16.806
418.00,16.801
419.00,16.815
420.00,16.846
421.00,16.871
422.00,16.887
423.00,16.910
424.00,16.919
425.00,16.950
426.00,16.984
427.00,17.036
428.00,17.066
429.00,17.115
430.00,17.134
431.00,17.219
432.00,17.229
433.00,17.303
434.00,17.334
435.00,17.402
436.00,17.430
437.00,17.512
438.00,17.586
439.00,17.630
440.00,17.731
441.00,17.788
442.00,17.865
443.00,17.912
444.00,18.029
445.00,18.094
446.00,18.180
447.00,18.269
448.00,18.357
449.00,18.447
450.00,18.551
451.00,18.647
452.00,18.738
453.00,18.843
454.00,18.974
455.00,19.070
456.00,19.171
457.00,19.297
458.00,19.394
459.00,19.496
460.00,19.654
461.00,19.788
462.00,19.856
463.00,19.983
464.00,20.093
465.00,20.229
466.00,20.350
467.00,20.481
468.00,20.590
469.00,20.697
470.00,20.808
471.00,20.939
472.00,21.046
473.00,21.160
474.00,21.268
475.00,21.396
476.00,21.518
477.00,21.649
478.00,21.791
479.00,21.930
480.00,22.066
481.00,22.206
482.00,22.358
483.00,22.517
484.00,22.660
485.00,22.804
486.00,22.972
487.00,23.081
488.00,23.243
489.00,23.394
490.00,23.534
491.00,23.674
492.00,23.818
493.00,24.010
494.00,24.073
495.00,24.177
496.00,24.330
497.00,24.440
498.00,24.617
499.00,24.769
500.00,24.929
501.00,24.996
502.00,25.167
503.00,25.337
504.00,25.417
505.00,25.541
506.00,25.693
507.00,25.817
508.00,25.941
509.00,26.108
510.00,26.182
511.00,26.339
512.00,26.500
513.00,26.569
514.00,26.744
515.00,26.813
516.00,26.921
517.00,27.133
518.00,27.264
519.00,27.334
520.00,27.438
521.00,27.560
522.00,27.647
523.00,27.739
524.00,27.842
525.00,27.948
526.00,28.058
527.00,28.136
528.00,28.238
529.00,28.353
530.00,28.437
531.00,28.653
532.00,28.686
533.00,28.792
534.00,28.882
535.00,28.923
536.00,29.150
537.00,29.188
538.00,29.293
539.00,29.423
540.00,29.468
541.00,29.495
542.00,29.593
543.00,29.699
544.00,29.762
545.00,29.830
546.00,29.887
547.00,29.963
548.00,30.103
549.00,30.197
550.00,30.314
551.00,30.367
552.00,30.447
553.00,30.555
554.00,30.622
555.00,30.701
556.00,30.738
557.00,30.848
558.00,30.880
559.00,30.939
560.00,31.044
561.00,31.107
562.00,31.156
563.00,31.187
564.00,31.271
565.00,31.312
566.00,31.308
567.00,31.405
568.00,31.446
569.00,31.504
570.00,31.536
571.00,31.594
572.00,31.660
573.00,31.684
574.00,31.714
575.00,31.773
576.00,31.819
577.00,31.889
578.00,31.976
579.00,31.978
580.00,32.062
581.00,32.068
582.00,32.304
583.00,32.372
584.00,32.456
585.00,32.486
586.00,32.554
587.00,32.642
588.00,32.671
589.00,32.678
590.00,32.739
591.00,32.832
592.00,32.851
593.00,32.913
594.00,32.969
595.00,33.001
596.00,33.088
597.00,33.160
598.00,33.246
599.00,33.265
600.00,33.328
601.00,33.377
602.00,33.422
603.00,33.498
604.00,33.551
605.00,33.629
606.00,33.686
607.00,33.726
608.00,33.778
609.00,33.814
610.00,33.849
611.00,33.916
612.00,33.996
613.00,34.008
614.00,34.080
615.00,34.115
616.00,34.245
617.00,34.259
618.00,34.370
619.00,34.438
620.00,34.455
621.00,34.517
622.00,34.616
623.00,34.671
624.00,34.730
625.00,34.810
626.00,34.873
627.00,34.998
628.00,35.087
629.00,35.078
630.00,35.180
631.00,35.239
632.00,35.346
633.00,35.428
634.00,35.482
635.00,35.587
636.00,35.709
637.00,35.768
638.00,35.851
639.00,35.963
640.00,35.980
641.00,36.057
642.00,36.198
643.00,36.258
644.00,36.319
645.00,36.482
646.00,36.571
647.00,36.610
648.00,36.708
649.00,36.873
650.00,36.907
651.00,36.955
652.00,37.002
653.00,37.146
654.00,37.300
655.00,37.411
656.00,37.486
657.00,37.582
658.00,37.768
659.00,37.795
660.00,37.962
661.00,37.971
662.00,38.265
663.00,38.238
664.00,38.433
665.00,38.482
666.00,38.616
667.00,38.718
668.00,38.794
669.00,38.968
670.00,39.074
671.00,39.165
672.00,39.263
673.00,39.363
674.00,39.477
675.00,39.642
676.00,39.724
677.00,39.795
678.00,39.962
679.00,40.006
680.00,40.140
681.00,40.241
682.00,40.372
683.00,40.473
684.00,40.680
685.00,40.773
686.00,40.766
687.00,40.986
688.00,41.009
689.00,41.065
690.00,41.306
691.00,41.429
692.00,41.455
693.00,41.516
694.00,41.688
695.00,41.813
696.00,41.903
697.00,42.032
698.00,42.200
699.00,42.462
700.00,42.611
701.00,42.500
702.00,42.664
703.00,42.813
704.00,42.869
705.00,42.947
706.00,43.127
707.00,43.325
708.00,43.204
709.00,43.381
710.00,43.586
711.00,43.574
712.00,43.563
713.00,43.774
714.00,43.785
715.00,43.897
716.00,44.050
717.00,44.119
718.00,44.178
719.00,44.324
720.00,44.479
721.00,48.413
722.00,48.451
723.00,48.540
724.00,48.540
725.00,48.627
726.00,48.604
727.00,48.654
728.00,48.751
729.00,48.695
730.00,48.858
731.00,48.829
732.00,48.988
733.00,49.063
734.00,49.128
735.00,49.081
736.00,49.176
737.00,49.181
738.00,49.308
739.00,49.328
740.00,49.340
741.00,49.405
742.00,49.469
743.00,49.529
744.00,49.532
745.00,49.524
746.00,49.587
747.00,49.583
748.00,49.679
749.00,49.619
750.00,49.696
751.00,49.721
752.00,49.732
753.00,49.773
754.00,49.872
755.00,49.909
756.00,49.899
757.00,49.901
758.00,49.849
759.00,49.979
760.00,50.017
761.00,49.922
762.00,50.089
763.00,50.010
764.00,50.171
765.00,50.200
766.00,50.136
767.00,50.256
768.00,50.213
769.00,50.258
770.00,50.291
771.00,50.339
772.00,50.373
773.00,50.386
774.00,50.369
775.00,50.429
776.00,50.456
777.00,50.504
778.00,50.502
779.00,50.527
780.00,50.545
781.00,50.583
782.00,50.527
783.00,50.569
784.00,50.558
785.00,50.589
786.00,50.600
787.00,50.595
788.00,50.562
789.00,50.618
790.00,50.513
791.00,50.636
792.00,50.621
793.00,50.593
794.00,50.569
795.00,50.568
796.00,50.720
797.00,50.601
798.00,50.686
799.00,50.621
800.00,50.566
801.00,50.561
802.00,50.618
803.00,50.618
804.00,50.613
805.00,50.576
806.00,50.624
807.00,50.568
808.00,50.563
809.00,50.605
810.00,50.634
811.00,50.558
812.00,50.617
813.00,50.526
814.00,50.546
815.00,50.585
816.00,50.592
817.00,50.602
818.00,50.430
819.00,50.431
820.00,50.516
821.00,50.451
822.00,50.558
823.00,50.449
824.00,50.566
825.00,50.432
826.00,50.512
827.00,50.474
828.00,50.602
829.00,50.399
830.00,50.510
831.00,52.947
832.00,52.960
833.00,52.917
834.00,52.929
835.00,52.909
836.00,52.929
837.00,52.867
838.00,52.852
839.00,52.877
840.00,52.821
841.00,52.824
842.00,52.782
843.00,52.820
844.00,52.810
845.00,52.770
846.00,52.799
847.00,52.727
848.00,52.742
849.00,52.723
850.00,52.666
851.00,52.632
852.00,52.587
853.00,52.676
854.00,52.519
855.00,52.508
856.00,52.500
857.00,52.459
858.00,52.477
859.00,52.439
860.00,52.454
861.00,52.454
862.00,52.414
863.00,52.438
864.00,52.412
865.00,52.410
866.00,52.400
867.00,52.440
868.00,52.386
869.00,52.368
870.00,52.352
871.00,52.336
872.00,52.328
873.00,52.312
874.00,52.317
875.00,52.310
876.00,52.302
877.00,52.308
878.00,52.290
879.00,52.312
880.00,52.276
881.00,52.246
882.00,52.245
883.00,52.233
884.00,52.183
885.00,52.161
886.00,52.138
887.00,52.127
888.00,52.126
889.00,52.106
890.00,52.097
891.00,52.085
892.00,52.088
893.00,52.056
894.00,52.022
895.00,52.008
896.00,51.994
897.00,51.975
898.00,51.946
899.00,51.978
900.00,51.952
901.00,51.954
902.00,51.933
903.00,51.922
904.00,51.918
905.00,51.885
906.00,51.869
907.00,51.847
908.00,51.833
909.00,51.815
910.00,51.769
911.00,51.813
912.00,51.795
913.00,51.741
914.00,51.730
915.00,51.703
916.00,51.696
917.00,51.644
918.00,51.647
919.00,51.618
920.00,51.593
921.00,51.595
922.00,51.594
923.00,51.558
924.00,51.538
925.00,51.543
926.00,51.526
927.00,51.509
928.00,51.486
929.00,51.462
930.00,51.437
931.00,51.435
932.00,51.402
933.00,51.418
934.00,51.381
935.00,51.351
936.00,51.331
937.00,51.335
938.00,51.330
939.00,51.314
940.00,51.286
941.00,51.270
942.00,51.241
943.00,51.251
944.00,51.207
945.00,51.197
946.00,51.190
947.00,51.161
948.00,51.119
949.00,51.124
950.00,51.095
951.00,51.069
952.00,51.039
953.00,51.020
954.00,50.993
955.00,50.969
956.00,50.955
957.00,50.926
958.00,50.937
959.00,50.888
960.00,50.883
961.00,50.870
962.00,50.858
963.00,50.825
964.00,50.821
965.00,50.794
966.00,50.806
967.00,50.796
968.00,50.771
969.00,50.787
970.00,50.783
971.00,50.793
972.00,50.767
973.00,50.782
974.00,50.812
975.00,50.781
976.00,50.781
977.00,50.772
978.00,50.801
979.00,50.762
980.00,50.795
981.00,50.787
982.00,50.773
983.00,50.779
984.00,50.759
985.00,50.779
986.00,50.742
987.00,50.754
988.00,50.729
989.00,50.713
990.00,50.705
991.00,50.682
992.00,50.688
993.00,50.682
994.00,50.656
995.00,50.651
996.00,50.657
997.00,50.633
998.00,50.602
999.00,50.649
1000.00,50.576
1001.00,50.584
1002.00,50.566
1003.00,50.571
1004.00,50.543
1005.00,50.519
1006.00,50.534
1007.00,50.514
1008.00,50.496
1009.00,50.484
1010.00,50.482
1011.00,50.462
1012.00,50.440
1013.00,50.444
1014.00,50.410
1015.00,50.422
1016.00,50.382
1017.00,50.392
1018.00,50.368
1019.00,50.343
1020.00,50.327
1021.00,50.313
1022.00,50.303
1023.00,50.265
1024.00,50.271
1025.00,50.244
1026.00,50.242
1027.00,50.210
1028.00,50.210
1029.00,50.202
1030.00,50.162
1031.00,50.166
1032.00,50.129
1033.00,50.134
1034.00,50.106
1035.00,50.066
1036.00,50.041
1037.00,50.032
1038.00,50.018
1039.00,49.987
1040.00,49.997
1041.00,49.960
1042.00,49.952
1043.00,49.933
1044.00,49.950
1045.00,49.930
1046.00,49.918
1047.00,49.921
1048.00,49.952
1049.00,49.946
1050.00,49.964
1051.00,49.984
1052.00,50.005
1053.00,50.004
1054.00,50.002
1055.00,50.008
1056.00,50.017
1057.00,50.040
1058.00,50.021
1059.00,50.022
1060.00,50.047
1061.00,50.005
1062.00,50.004
1063.00,50.004
1064.00,49.981
1065.00,49.978
1066.00,49.973
1067.00,49.974
1068.00,49.969
1069.00,49.944
1070.00,49.920
1071.00,49.912
1072.00,49.908
1073.00,49.897
1074.00,49.907
1075.00,49.906
1076.00,49.868
1077.00,49.848
1078.00,49.838
1079.00,49.824
1080.00,49.834
1081.00,49.818
1082.00,49.812
1083.00,49.805
1084.00,49.804
1085.00,49.795
1086.00,49.785
1087.00,49.786
1088.00,49.773
1089.00,49.766
1090.00,49.751
1091.00,49.738
1092.00,49.730
1093.00,49.703
1094.00,49.699
1095.00,49.695
1096.00,49.685
1097.00,49.678
1098.00,49.671
1099.00,49.651
1100.00,49.654
1101.00,49.638
1102.00,49.625
1103.00,49.618
1104.00,49.614
1105.00,49.592
1106.00,49.600
1107.00,49.565
1108.00,49.568
1109.00,49.563
1110.00,49.556
1111.00,49.559
1112.00,49.544
1113.00,49.528
1114.00,49.530
1115.00,49.526
1116.00,49.512
1117.00,49.494
1118.00,49.496
1119.00,49.482
1120.00,49.500
1121.00,49.482
1122.00,49.459
1123.00,49.451
1124.00,49.447
1125.00,49.448
1126.00,49.443
1127.00,49.438
1128.00,49.432
1129.00,49.403
1130.00,49.396
1131.00,49.382
1132.00,49.377
1133.00,49.356
1134.00,49.366
1135.00,49.353
1136.00,49.378
1137.00,49.352
1138.00,49.354
1139.00,49.365
1140.00,49.341
1141.00,49.339
1142.00,49.338
1143.00,49.349
1144.00,49.333
1145.00,49.323
1146.00,49.332
1147.00,49.306
1148.00,49.305
1149.00,49.321
1150.00,49.307
1151.00,49.297
1152.00,49.290
1153.00,49.284
1154.00,49.270
1155.00,49.285
1156.00,49.275
1157.00,49.269
1158.00,49.271
1159.00,49.254
1160.00,49.251
1161.00,49.267
1162.00,49.243
1163.00,49.245
1164.00,49.240
1165.00,49.233
1166.00,49.233
1167.00,49.236
1168.00,49.224
1169.00,49.233
1170.00,49.229
1171.00,49.210
1172.00,49.230
1173.00,49.210
1174.00,49.223
1175.00,49.219
1176.00,49.218
1177.00,49.211
1178.00,49.207
1179.00,49.211
1180.00,49.203
1181.00,49.234
1182.00,49.226
1183.00,49.205
1184.00,49.194
1185.00,49.211
1186.00,49.196
1187.00,49.190
1188.00,49.183
1189.00,49.185
1190.00,49.178
1191.00,49.182
1192.00,49.183
1193.00,49.177
1194.00,49.189
1195.00,49.164
1196.00,49.186
1197.00,49.181
1198.00,49.169
1199.00,49.160
1200.00,49.158
1201.00,49.162
1202.00,49.165
1203.00,49.152
1204.00,49.128
1205.00,49.160
1206.00,49.144
1207.00,49.142
1208.00,49.130
1209.00,49.137
1210.00,49.143
1211.00,49.129
1212.00,49.150
1213.00,49.127
1214.00,49.143
1215.00,49.120
1216.00,49.145
1217.00,49.140
1218.00,49.128
1219.00,49.138
1220.00,49.122
1221.00,49.133
1222.00,49.123
1223.00,49.152
1224.00,49.142
1225.00,49.139
1226.00,49.126
1227.00,49.135
1228.00,49.163
1229.00,49.150
1230.00,49.172
1231.00,49.156
1232.00,49.176
1233.00,49.180
1234.00,49.172
1235.00,49.181
1236.00,49.174
1237.00,49.157
1238.00,49.182
1239.00,49.173
1240.00,49.183
1241.00,49.174
1242.00,49.182
1243.00,49.206
1244.00,49.172
1245.00,49.176
1246.00,49.207
1247.00,49.193
1248.00,49.177
1249.00,49.194
1250.00,49.183
1251.00,49.186
1252.00,49.208
1253.00,49.192
1254.00,49.210
1255.00,49.213
1256.00,49.189
1257.00,49.177
1258.00,49.236
1259.00,49.212
1260.00,49.239
1261.00,49.232
1262.00,49.227
1263.00,49.229
1264.00,49.228
1265.00,49.225
1266.00,49.241
1267.00,49.238
1268.00,49.265
1269.00,49.238
1270.00,49.258
1271.00,49.276
1272.00,49.268
1273.00,49.270
1274.00,49.267
1275.00,49.268
1276.00,49.287
1277.00,49.272
1278.00,49.287
1279.00,49.289
1280.00,49.293
1281.00,49.297
1282.00,49.316
1283.00,49.295
1284.00,49.306
1285.00,49.289
1286.00,49.295
1287.00,49.301
1288.00,49.330
1289.00,49.328
1290.00,49.327
1291.00,49.320
1292.00,49.322
1293.00,49.317
1294.00,49.335
1295.00,49.346
1296.00,49.350
1297.00,49.349
1298.00,49.356
1299.00,49.352
1300.00,49.357
1301.00,49.378
1302.00,49.356
1303.00,49.390
1304.00,49.372
1305.00,49.390
1306.00,49.386
1307.00,49.397
1308.00,49.395
1309.00,49.401
1310.00,49.406
1311.00,49.388
1312.00,49.393
1313.00,49.394
1314.00,49.415
1315.00,49.418
1316.00,49.413
1317.00,49.434
1318.00,49.432
1319.00,49.435
1320.00,49.473
1321.00,49.616
1322.00,49.636
1323.00,49.605
1324.00,49.617
1325.00,49.599
1326.00,49.621
1327.00,49.611
1328.00,49.612
1329.00,49.617
1330.00,49.616
1331.00,49.612
1332.00,49.620
1333.00,49.624
1334.00,49.659
1335.00,49.665
1336.00,49.692
1337.00,49.711
1338.00,49.787
1339.00,49.830
1340.00,49.905
1341.00,49.956
1342.00,50.020
1343.00,50.073
1344.00,50.097
1345.00,50.179
1346.00,50.199
1347.00,50.200
1348.00,50.265
1349.00,50.268
1350.00,50.280
1351.00,50.308
1352.00,50.301
1353.00,50.314
1354.00,50.316
1355.00,50.290
1356.00,50.319
1357.00,50.322
1358.00,50.325
1359.00,50.346
1360.00,50.335
1361.00,50.245
1362.00,50.295
1363.00,50.227
1364.00,50.352
1365.00,50.338
1366.00,50.367
1367.00,50.328
1368.00,50.291
1369.00,50.311
1370.00,50.314
1371.00,50.267
1372.00,50.296
1373.00,50.312
1374.00,50.317
1375.00,50.297
1376.00,50.300
1377.00,50.293
1378.00,50.369
1379.00,50.296
1380.00,50.301
1381.00,50.260
1382.00,50.278
1383.00,50.289
1384.00,50.259
1385.00,50.239
1386.00,50.248
1387.00,50.236
1388.00,50.259
1389.00,50.256
1390.00,50.277
1391.00,50.259
1392.00,50.282
1393.00,50.336
1394.00,50.360
1395.00,50.238
1396.00,50.226
1397.00,50.264
1398.00,50.295
1399.00,50.282
1400.00,50.241
1401.00,50.270
1402.00,50.271
1403.00,50.275
1404.00,50.275
1405.00,50.315
1406.00,50.306
1407.00,50.328
1408.00,50.351
1409.00,50.426
1410.00,50.329
1411.00,50.315
1412.00,50.369
1413.00,50.320
1414.00,50.343
1415.00,50.365
1416.00,50.390
1417.00,50.397
1418.00,50.387
1419.00,50.386
1420.00,50.429
1421.00,50.435
1422.00,50.450
1423.00,50.448
1424.00,50.470
1425.00,50.465
1426.00,50.486
1427.00,50.510
1428.00,50.512
1429.00,50.519
1430.00,50.540
1431.00,50.551
1432.00,50.571
1433.00,50.592
1434.00,50.589
1435.00,50.617
1436.00,50.627
1437.00,50.629
1438.00,50.652
1439.00,50.681
1440.00,50.685
1441.00,50.680
1442.00,50.702
1443.00,50.730
1444.00,50.730
1445.00,50.731
1446.00,50.741
1447.00,50.769
1448.00,50.779
1449.00,50.820
1450.00,50.813
1451.00,50.830
1452.00,50.830
1453.00,50.868
1454.00,50.880
1455.00,50.901
1456.00,50.906
1457.00,50.897
1458.00,50.918
1459.00,50.935
1460.00,50.955
1461.00,50.973
1462.00,50.989
1463.00,51.004
1464.00,51.007
1465.00,51.020
1466.00,51.025
1467.00,51.062
1468.00,51.074
1469.00,51.085
1470.00,51.079
1471.00,51.109
1472.00,51.124
1473.00,51.127
1474.00,51.139
1475.00,51.154
1476.00,51.163
1477.00,51.175
1478.00,51.180
1479.00,51.203
1480.00,51.204
1481.00,51.218
1482.00,51.247
1483.00,51.255
1484.00,51.258
1485.00,51.266
1486.00,51.285
1487.00,51.304
1488.00,51.307
1489.00,51.317
1490.00,51.328
1491.00,51.339
1492.00,51.341
1493.00,51.352
1494.00,51.367
1495.00,51.379
1496.00,51.375
1497.00,51.388
1498.00,51.384
1499.00,51.414
1500.00,51.437
1501.00, 
1502.00, 
1503.00, 
1504.00, 
1505.00, 
1506.00, 
1507.00, 
1508.00, 
1509.00, 
1510.00, 
1511.00, 
1512.00, 
1513.00, 
1514.00, 
1515.00, 
1516.00, 
1517.00, 
1518.00, 
1519.00, 
1520.00, 
1521.00, 
1522.00, 
1523.00, 
1524.00, 
1525.00, 
1526.00, 
1527.00, 
1528.00, 
1529.00, 
1530.00, 
1531.00, 
1532.00, 
1533.00, 
1534.00, 
1535.00, 
1536.00, 
1537.00, 
1538.00, 
1539.00, 
1540.00, 
1541.00, 
1542.00, 
1543.00, 
1544.00, 
1545.00, 
1546.00, 
1547.00, 
1548.00, 
1549.00, 
1550.00, 
1551.00, 
1552.00, 
1553.00, 
1554.00, 
1555.00, 
1556.00, 
1557.00, 
1558.00, 
1559.00, 
1560.00, 
1561.00, 
1562.00, 
1563.00, 
1564.00, 
1565.00, 
1566.00, 
1567.00, 
1568.00, 
1569.00, 
1570.00, 
1571.00, 
1572.00, 
1573.00, 
1574.00, 
1575.00, 
1576.00, 
1577.00, 
1578.00, 
1579.00, 
1580.00, 
1581.00, 
1582.00, 
1583.00, 
1584.00, 
1585.00, 
1586.00, 
1587.00, 
1588.00, 
1589.00, 
1590.00, 
1591.00, 
1592.00, 
1593.00, 
1594.00, 
1595.00, 
1596.00, 
1597.00, 
1598.00, 
1599.00, 
1600.00, 
1601.00, 
1602.00, 
1603.00, 
1604.00, 
1605.00, 
1606.00, 
1607.00, 
1608.00, 
1609.00, 
1610.00, 
1611.00, 
1612.00, 
1613.00, 
1614.00, 
1615.00, 
1616.00, 
1617.00, 
1618.00, 
1619.00, 
1620.00, 
1621.00, 
1622.00, 
1623.00, 
1624.00, 
1625.00, 
1626.00, 
1627.00, 
1628.00, 
1629.00, 
1630.00, 
1631.00, 
1632.00, 
1633.00, 
1634.00, 
1635.00, 
1636.00, 
1637.00, 
1638.00, 
1639.00, 
1640.00, 
1641.00, 
1642.00, 
1643.00, 
1644.00, 
1645.00, 
1646.00, 
1647.00, 
1648.00, 
1649.00, 
1650.00, 
1651.00, 
1652.00, 
1653.00, 
1654.00, 
1655.00, 
1656.00, 
1657.00, 
1658.00, 
1659.00, 
1660.00, 
1661.00, 
1662.00, 
1663.00, 
1664.00, 
1665.00, 
1666.00, 
1667.00, 
1668.00, 
1669.00, 
1670.00, 
1671.00, 
1672.00, 
1673.00, 
1674.00, 
1675.00, 
1676.00, 
1677.00, 
1678.00, 
1679.00, 
1680.00, 
1681.00, 
1682.00, 
1683.00, 
1684.00, 
1685.00, 
1686.00, 
1687.00, 
1688.00, 
1689.00, 
1690.00, 
1691.00, 
1692.00, 
1693.00, 
1694.00, 
1695.00, 
1696.00, 
1697.00, 
1698.00, 
1699.00, 
1700.00, 
1701.00, 
1702.00, 
1703.00, 
1704.00, 
1705.00, 
1706.00, 
1707.00, 
1708.00, 
1709.00, 
1710.00, 
1711.00, 
1712.00, 
1713.00, 
1714.00, 
1715.00, 
1716.00, 
1717.00, 
1718.00, 
1719.00, 
1720.00, 
1721.00, 
1722.00, 
1723.00, 
1724.00, 
1725.00, 
1726.00, 
1727.00, 
1728.00, 
1729.00, 
1730.00, 
1731.00, 
1732.00, 
1733.00, 
1734.00, 
1735.00, 
1736.00, 
1737.00, 
1738.00, 
1739.00, 
1740.00, 
1741.00, 
1742.00, 
1743.00, 
1744.00, 
1745.00, 
1746.00, 
1747.00, 
1748.00, 
1749.00, 
1750.00, 
1751.00, 
1752.00, 
1753.00, 
1754.00, 
1755.00, 
1756.00, 
1757.00, 
1758.00, 
1759.00, 
1760.00, 
1761.00, 
1762.00, 
1763.00, 
1764.00, 
1765.00, 
1766.00, 
1767.00, 
1768.00, 
1769.00, 
1770.00, 
1771.00, 
1772.00, 
1773.00, 
1774.00, 
1775.00, 
1776.00, 
1777.00, 
1778.00, 
1779.00, 
1780.00, 
1781.00, 
1782.00, 
1783.00, 
1784.00, 
1785.00, 
1786.00, 
1787.00, 
1788.00, 
1789.00, 
1790.00, 
1791.00, 
1792.00, 
1793.00, 
1794.00, 
1795.00, 
1796.00, 
1797.00, 
1798.00, 
1799.00, 
1800.00, 
1801.00, 
1802.00, 
1803.00, 
1804.00, 
1805.00, 
1806.00, 
1807.00, 
1808.00, 
1809.00, 
1810.00, 
1811.00, 
1812.00, 
1813.00, 
1814.00, 
1815.00, 
1816.00, 
1817.00, 
1818.00, 
1819.00, 
1820.00, 
1821.00, 
1822.00, 
1823.00, 
1824.00, 
1825.00, 
1826.00, 
1827.00, 
1828.00, 
1829.00, 
1830.00, 
1831.00, 
1832.00, 
1833.00, 
1834.00, 
1835.00, 
1836.00, 
1837.00, 
1838.00, 
1839.00, 
1840.00, 
1841.00, 
1842.00, 
1843.00, 
1844.00, 
1845.00, 
1846.00, 
1847.00, 
1848.00, 
1849.00, 
1850.00, 
1851.00, 
1852.00, 
1853.00, 
1854.00, 
1855.00, 
1856.00, 
1857.00, 
1858.00, 
1859.00, 
1860.00, 
1861.00, 
1862.00, 
1863.00, 
1864.00, 
1865.00, 
1866.00, 
1867.00, 
1868.00, 
1869.00, 
1870.00, 
1871.00, 
1872.00, 
1873.00, 
1874.00, 
1875.00, 
1876.00, 
1877.00, 
1878.00, 
1879.00, 
1880.00, 
1881.00, 
1882.00, 
1883.00, 
1884.00, 
1885.00, 
1886.00, 
1887.00, 
1888.00, 
1889.00, 
1890.00, 
1891.00, 
1892.00, 
1893.00, 
1894.00, 
1895.00, 
1896.00, 
1897.00, 
1898.00, 
1899.00, 
1900.00, 
1901.00, 
1902.00, 
1903.00, 
1904.00, 
1905.00, 
1906.00, 
1907.00, 
1908.00, 
1909.00, 
1910.00, 
1911.00, 
1912.00, 
1913.00, 
1914.00, 
1915.00, 
1916.00, 
1917.00, 
1918.00, 
1919.00, 
1920.00, 
1921.00, 
1922.00, 
1923.00, 
1924.00, 
1925.00, 
1926.00, 
1927.00, 
1928.00, 
1929.00, 
1930.00, 
1931.00, 
1932.00, 
1933.00, 
1934.00, 
1935.00, 
1936.00, 
1937.00, 
1938.00, 
1939.00, 
1940.00, 
1941.00, 
1942.00, 
1943.00, 
1944.00, 
1945.00, 
1946.00, 
1947.00, 
1948.00, 
1949.00, 
1950.00, 
1951.00, 
1952.00, 
1953.00, 
1954.00, 
1955.00, 
1956.00, 
1957.00, 
1958.00, 
1959.00, 
1960.00, 
1961.00, 
1962.00, 
1963.00, 
1964.00, 
1965.00, 
1966.00, 
1967.00, 
1968.00, 
1969.00, 
1970.00, 
1971.00, 
1972.00, 
1973.00, 
1974.00, 
1975.00, 
1976.00, 
1977.00, 
1978.00, 
1979.00, 
1980.00, 
1981.00, 
1982.00, 
1983.00, 
1984.00, 
1985.00, 
1986.00, 
1987.00, 
1988.00, 
1989.00, 
1990.00, 
1991.00, 
1992.00, 
1993.00, 
1994.00, 
1995.00, 
1996.00, 
1997.00, 
1998.00, 
1999.00, 
2000.00, 
2001.00, 
2002.00, 
2003.00, 
2004.00, 
2005.00, 
2006.00, 
2007.00, 
2008.00, 
2009.00, 
2010.00, 
2011.00, 
2012.00, 
2013.00, 
2014.00, 
2015.00, 
2016.00, 
2017.00, 
2018.00, 
2019.00, 
2020.00, 
2021.00, 
2022.00, 
2023.00, 
2024.00, 
2025.00, 
2026.00, 
2027.00, 
2028.00, 
2029.00, 
2030.00, 
2031.00, 
2032.00, 
2033.00, 
2034.00, 
2035.00, 
2036.00, 
2037.00, 
2038.00, 
2039.00, 
2040.00, 
2041.00, 
2042.00, 
2043.00, 
2044.00, 
2045.00, 
2046.00, 
2047.00, 
2048.00, 
2049.00, 
2050.00, 
2051.00, 
2052.00, 
2053.00, 
2054.00, 
2055.00, 
2056.00, 
2057.00, 
2058.00, 
2059.00, 
2060.00, 
2061.00, 
2062.00, 
2063.00, 
2064.00, 
2065.00, 
2066.00, 
2067.00, 
2068.00, 
2069.00, 
2070.00, 
2071.00, 
2072.00, 
2073.00, 
2074.00, 
2075.00, 
2076.00, 
2077.00, 
2078.00, 
2079.00, 
2080.00, 
2081.00, 
2082.00, 
2083.00, 
2084.00, 
2085.00, 
2086.00, 
2087.00, 
2088.00, 
2089.00, 
2090.00, 
2091.00, 
2092.00, 
2093.00, 
2094.00, 
2095.00, 
2096.00, 
2097.00, 
2098.00, 
2099.00, 
2100.00, 
2101.00, 
2102.00, 
2103.00, 
2104.00, 
2105.00, 
2106.00, 
2107.00, 
2108.00, 
2109.00, 
2110.00, 
2111.00, 
2112.00, 
2113.00, 
2114.00, 
2115.00, 
2116.00, 
2117.00, 
2118.00, 
2119.00, 
2120.00, 
2121.00, 
2122.00, 
2123.00, 
2124.00, 
2125.00, 
2126.00, 
2127.00, 
2128.00, 
2129.00, 
2130.00, 
2131.00, 
2132.00, 
2133.00, 
2134.00, 
2135.00, 
2136.00, 
2137.00, 
2138.00, 
2139.00, 
2140.00, 
2141.00, 
2142.00, 
2143.00, 
2144.00, 
2145.00, 
2146.00, 
2147.00, 
2148.00, 
2149.00, 
2150.00, 
2151.00, 
2152.00, 
2153.00, 
2154.00, 
2155.00, 
2156.00, 
2157.00, 
2158.00, 
2159.00, 
2160.00, 
2161.00, 
2162.00, 
2163.00, 
2164.00, 
2165.00, 
2166.00, 
2167.00, 
2168.00, 
2169.00, 
2170.00, 
2171.00, 
2172.00, 
2173.00, 
2174.00, 
2175.00, 
2176.00, 
2177.00, 
2178.00, 
2179.00, 
2180.00, 
2181.00, 
2182.00, 
2183.00, 
2184.00, 
2185.00, 
2186.00, 
2187.00, 
2188.00, 
2189.00, 
2190.00, 
2191.00, 
2192.00, 
2193.00, 
2194.00, 
2195.00, 
2196.00, 
2197.00, 
2198.00, 
2199.00, 
2200.00, 
2201.00, 
2202.00, 
2203.00, 
2204.00, 
2205.00, 
2206.00, 
2207.00, 
2208.00, 
2209.00, 
2210.00, 
2211.00, 
2212.00, 
2213.00, 
2214.00, 
2215.00, 
2216.00, 
2217.00, 
2218.00, 
2219.00, 
2220.00, 
2221.00, 
2222.00, 
2223.00, 
2224.00, 
2225.00, 
2226.00, 
2227.00, 
2228.00, 
2229.00, 
2230.00, 
2231.00, 
2232.00, 
2233.00, 
2234.00, 
2235.00, 
2236.00, 
2237.00, 
2238.00, 
2239.00, 
2240.00, 
2241.00, 
2242.00, 
2243.00, 
2244.00, 
2245.00, 
2246.00, 
2247.00, 
2248.00, 
2249.00, 
2250.00, 
2251.00, 
2252.00, 
2253.00, 
2254.00, 
2255.00, 
2256.00, 
2257.00, 
2258.00, 
2259.00, 
2260.00, 
2261.00, 
2262.00, 
2263.00, 
2264.00, 
2265.00, 
2266.00, 
2267.00, 
2268.00, 
2269.00, 
2270.00, 
2271.00, 
2272.00, 
2273.00, 
2274.00, 
2275.00, 
2276.00, 
2277.00, 
2278.00, 
2279.00, 
2280.00, 
2281.00, 
2282.00, 
2283.00, 
2284.00, 
2285.00, 
2286.00, 
2287.00, 
2288.00, 
2289.00, 
2290.00, 
2291.00, 
2292.00, 
2293.00, 
2294.00, 
2295.00, 
2296.00, 
2297.00, 
2298.00, 
2299.00, 
2300.00, 
2301.00, 
2302.00, 
2303.00, 
2304.00, 
2305.00, 
2306.00, 
2307.00, 
2308.00, 
2309.00, 
2310.00, 
2311.00, 
2312.00, 
2313.00, 
2314.00, 
2315.00, 
2316.00, 
2317.00, 
2318.00, 
2319.00, 
2320.00, 
2321.00, 
2322.00, 
2323.00, 
2324.00, 
2325.00, 
2326.00, 
2327.00, 
2328.00, 
2329.00, 
2330.00, 
2331.00, 
2332.00, 
2333.00, 
2334.00, 
2335.00, 
2336.00, 
2337.00, 
2338.00, 
2339.00, 
2340.00, 
2341.00, 
2342.00, 
2343.00, 
2344.00, 
2345.00, 
2346.00, 
2347.00, 
2348.00, 
2349.00, 
2350.00, 
2351.00, 
2352.00, 
2353.00, 
2354.00, 
2355.00, 
2356.00, 
2357.00, 
2358.00, 
2359.00, 
2360.00, 
2361.00, 
2362.00, 
2363.00, 
2364.00, 
2365.00, 
2366.00, 
2367.00, 
2368.00, 
2369.00, 
2370.00, 
2371.00, 
2372.00, 
2373.00, 
2374.00, 
2375.00, 
2376.00, 
2377.00, 
2378.00, 
2379.00, 
2380.00, 
2381.00, 
2382.00, 
2383.00, 
2384.00, 
2385.00, 
2386.00, 
2387.00, 
2388.00, 
2389.00, 
2390.00, 
2391.00, 
2392.00, 
2393.00, 
2394.00, 
2395.00, 
2396.00, 
2397.00, 
2398.00, 
2399.00, 
2400.00, 
2401.00, 
2402.00, 
2403.00, 
2404.00, 
2405.00, 
2406.00, 
2407.00, 
2408.00, 
2409.00, 
2410.00, 
2411.00, 
2412.00, 
2413.00, 
2414.00, 
2415.00, 
2416.00, 
2417.00, 
2418.00, 
2419.00, 
2420.00, 
2421.00, 
2422.00, 
2423.00, 
2424.00, 
2425.00, 
2426.00, 
2427.00, 
2428.00, 
2429.00, 
2430.00, 
2431.00, 
2432.00, 
2433.00, 
2434.00, 
2435.00, 
2436.00, 
2437.00, 
2438.00, 
2439.00, 
2440.00, 
2441.00, 
2442.00, 
2443.00, 
2444.00, 
2445.00, 
2446.00, 
2447.00, 
2448.00, 
2449.00, 
2450.00, 
2451.00, 
2452.00, 
2453.00, 
2454.00, 
2455.00, 
2456.00, 
2457.00, 
2458.00, 
2459.00, 
2460.00, 
2461.00, 
2462.00, 
2463.00, 
2464.00, 
2465.00, 
2466.00, 
2467.00, 
2468.00, 
2469.00, 
2470.00, 
2471.00, 
2472.00, 
2473.00, 
2474.00, 
2475.00, 
2476.00, 
2477.00, 
2478.00, 
2479.00, 
2480.00, 
2481.00, 
2482.00, 
2483.00, 
2484.00, 
2485.00, 
2486.00, 
2487.00, 
2488.00, 
2489.00, 
2490.00, 
2491.00, 
2492.00, 
2493.00, 
2494.00, 
2495.00, 
2496.00, 
2497.00, 
2498.00, 
2499.00, 
2500.00, 
2501.00, 
2502.00, 
2503.00, 
2504.00, 
2505.00, 
2506.00, 
2507.00, 
2508.00, 
2509.00, 
2510.00, 
2511.00, 
2512.00, 
2513.00, 
2514.00, 
2515.00, 
2516.00, 
2517.00, 
2518.00, 
2519.00, 
2520.00, 
2521.00, 
2522.00, 
2523.00, 
2524.00, 
2525.00, 
2526.00, 
2527.00, 
2528.00, 
2529.00, 
2530.00, 
2531.00, 
2532.00, 
2533.00, 
2534.00, 
2535.00, 
2536.00, 
2537.00, 
2538.00, 
2539.00, 
2540.00, 
2541.00, 
2542.00, 
2543.00, 
2544.00, 
2545.00, 
2546.00, 
2547.00, 
2548.00, 
2549.00, 
2550.00, 
2551.00, 
2552.00, 
2553.00, 
2554.00, 
2555.00, 
2556.00, 
2557.00, 
2558.00, 
2559.00, 
2560.00, 
2561.00, 
2562.00, 
2563.00, 
2564.00, 
2565.00, 
2566.00, 
2567.00, 
2568.00, 
2569.00, 
2570.00, 
2571.00, 
2572.00, 
2573.00, 
2574.00, 
2575.00, 
2576.00, 
2577.00, 
2578.00, 
2579.00, 
2580.00, 
2581.00, 
2582.00, 
2583.00, 
2584.00, 
2585.00, 
2586.00, 
2587.00, 
2588.00, 
2589.00, 
2590.00, 
2591.00, 
2592.00, 
2593.00, 
2594.00, 
2595.00, 
2596.00, 
2597.00, 
2598.00, 
2599.00, 
2600.00, 
