"2cP2 - RawData"
"Wavelength nm.","T%"
200.00,0.001
201.00,-0.001
202.00,0.002
203.00,0.003
204.00,0.003
205.00,0.001
206.00,-0.000
207.00,0.001
208.00,0.001
209.00,0.002
210.00,0.004
211.00,0.001
212.00,0.002
213.00,0.001
214.00,0.002
215.00,-0.001
216.00,0.003
217.00,-0.002
218.00,0.000
219.00,0.003
220.00,0.000
221.00,0.003
222.00,0.001
223.00,-0.000
224.00,0.000
225.00,0.001
226.00,-0.000
227.00,-0.002
228.00,0.003
229.00,0.002
230.00,-0.000
231.00,0.001
232.00,-0.001
233.00,-0.000
234.00,0.001
235.00,-0.000
236.00,0.000
237.00,0.001
238.00,-0.002
239.00,-0.000
240.00,0.002
241.00,0.000
242.00,0.002
243.00,0.000
244.00,-0.001
245.00,0.000
246.00,0.000
247.00,0.001
248.00,-0.000
249.00,0.001
250.00,0.001
251.00,0.000
252.00,-0.001
253.00,0.002
254.00,0.000
255.00,0.001
256.00,0.001
257.00,0.000
258.00,-0.000
259.00,-0.000
260.00,0.003
261.00,0.000
262.00,-0.001
263.00,-0.001
264.00,0.002
265.00,-0.003
266.00,-0.000
267.00,-0.001
268.00,0.000
269.00,-0.000
270.00,0.000
271.00,0.000
272.00,-0.000
273.00,0.001
274.00,0.001
275.00,0.001
276.00,-0.001
277.00,0.001
278.00,-0.001
279.00,-0.001
280.00,-0.000
281.00,0.001
282.00,0.001
283.00,0.002
284.00,-0.000
285.00,-0.001
286.00,0.002
287.00,-0.001
288.00,0.000
289.00,0.003
290.00,0.001
291.00,-0.001
292.00,-0.002
293.00,-0.000
294.00,-0.000
295.00,0.001
296.00,0.001
297.00,0.000
298.00,0.001
299.00,0.002
300.00,0.003
301.00,0.003
302.00,0.007
303.00,0.010
304.00,0.014
305.00,0.025
306.00,0.036
307.00,0.057
308.00,0.089
309.00,0.138
310.00,0.185
311.00,0.251
312.00,0.349
313.00,0.467
314.00,0.631
315.00,0.814
316.00,1.043
317.00,1.310
318.00,1.632
319.00,2.005
320.00,2.375
321.00,2.924
322.00,3.483
323.00,4.106
324.00,4.780
325.00,5.393
326.00,6.125
327.00,6.931
328.00,7.756
329.00,8.556
330.00,9.464
331.00,10.352
332.00,11.246
333.00,12.203
334.00,13.103
335.00,14.047
336.00,14.997
337.00,15.921
338.00,16.799
339.00,17.675
340.00,18.551
341.00,19.405
342.00,20.235
343.00,21.032
344.00,21.773
345.00,22.488
346.00,23.180
347.00,23.825
348.00,24.434
349.00,25.087
350.00,25.615
351.00,26.088
352.00,26.631
353.00,27.095
354.00,27.543
355.00,27.886
356.00,28.379
357.00,28.710
358.00,29.033
359.00,29.349
360.00,29.647
361.00,29.932
362.00,30.253
363.00,30.501
364.00,30.681
365.00,30.882
366.00,31.057
367.00,31.201
368.00,31.312
369.00,31.448
370.00,31.522
371.00,31.600
372.00,31.581
373.00,31.604
374.00,31.683
375.00,31.686
376.00,31.679
377.00,31.685
378.00,31.570
379.00,31.581
380.00,31.521
381.00,31.557
382.00,31.577
383.00,31.625
384.00,31.702
385.00,31.733
386.00,31.802
387.00,31.894
388.00,31.987
389.00,31.988
390.00,32.016
391.00,32.015
392.00,32.178
393.00,32.204
394.00,32.237
395.00,32.209
396.00,32.267
397.00,32.300
398.00,32.272
399.00,32.279
400.00,32.285
401.00,32.293
402.00,32.335
403.00,32.358
404.00,32.430
405.00,32.456
406.00,32.444
407.00,32.357
408.00,32.327
409.00,32.307
410.00,32.278
411.00,32.197
412.00,32.203
413.00,32.161
414.00,32.126
415.00,32.118
416.00,32.087
417.00,32.133
418.00,32.057
419.00,32.174
420.00,32.215
421.00,32.205
422.00,32.203
423.00,32.255
424.00,32.246
425.00,32.283
426.00,32.311
427.00,32.357
428.00,32.348
429.00,32.359
430.00,32.406
431.00,32.430
432.00,32.470
433.00,32.538
434.00,32.554
435.00,32.613
436.00,32.638
437.00,32.713
438.00,32.764
439.00,32.803
440.00,32.834
441.00,32.885
442.00,32.973
443.00,32.998
444.00,33.124
445.00,33.135
446.00,33.244
447.00,33.311
448.00,33.401
449.00,33.447
450.00,33.527
451.00,33.618
452.00,33.708
453.00,33.767
454.00,33.888
455.00,33.959
456.00,34.021
457.00,34.148
458.00,34.210
459.00,34.273
460.00,34.463
461.00,34.565
462.00,34.554
463.00,34.719
464.00,34.820
465.00,34.894
466.00,35.007
467.00,35.133
468.00,35.213
469.00,35.297
470.00,35.344
471.00,35.413
472.00,35.460
473.00,35.503
474.00,35.604
475.00,35.708
476.00,35.757
477.00,35.883
478.00,35.956
479.00,36.094
480.00,36.236
481.00,36.357
482.00,36.406
483.00,36.566
484.00,36.720
485.00,36.790
486.00,36.933
487.00,36.948
488.00,37.183
489.00,37.310
490.00,37.355
491.00,37.443
492.00,37.551
493.00,37.663
494.00,37.799
495.00,37.862
496.00,37.936
497.00,38.018
498.00,38.205
499.00,38.302
500.00,38.433
501.00,38.469
502.00,38.573
503.00,38.698
504.00,38.745
505.00,38.852
506.00,38.930
507.00,38.979
508.00,39.100
509.00,39.265
510.00,39.334
511.00,39.390
512.00,39.511
513.00,39.618
514.00,39.787
515.00,39.851
516.00,39.935
517.00,40.035
518.00,40.127
519.00,40.158
520.00,40.180
521.00,40.302
522.00,40.394
523.00,40.400
524.00,40.432
525.00,40.586
526.00,40.611
527.00,40.673
528.00,40.759
529.00,40.819
530.00,40.880
531.00,41.109
532.00,41.109
533.00,41.216
534.00,41.323
535.00,41.376
536.00,41.396
537.00,41.509
538.00,41.578
539.00,41.570
540.00,41.651
541.00,41.683
542.00,41.727
543.00,41.783
544.00,41.809
545.00,41.922
546.00,42.065
547.00,42.116
548.00,42.185
549.00,42.203
550.00,42.332
551.00,42.390
552.00,42.429
553.00,42.476
554.00,42.505
555.00,42.569
556.00,42.623
557.00,42.718
558.00,42.772
559.00,42.804
560.00,42.859
561.00,42.939
562.00,42.947
563.00,42.931
564.00,42.996
565.00,43.030
566.00,42.992
567.00,43.044
568.00,43.080
569.00,43.130
570.00,43.175
571.00,43.197
572.00,43.272
573.00,43.251
574.00,43.280
575.00,43.292
576.00,43.272
577.00,43.315
578.00,43.408
579.00,43.529
580.00,43.633
581.00,43.699
582.00,43.766
583.00,43.803
584.00,43.902
585.00,43.934
586.00,43.956
587.00,44.008
588.00,44.061
589.00,44.049
590.00,44.084
591.00,44.165
592.00,44.082
593.00,44.111
594.00,44.290
595.00,44.319
596.00,44.361
597.00,44.420
598.00,44.533
599.00,44.496
600.00,44.597
601.00,44.586
602.00,44.506
603.00,44.620
604.00,44.586
605.00,44.684
606.00,44.764
607.00,44.719
608.00,44.744
609.00,44.784
610.00,44.848
611.00,44.767
612.00,44.833
613.00,44.810
614.00,44.897
615.00,44.905
616.00,45.042
617.00,45.003
618.00,45.133
619.00,45.156
620.00,45.028
621.00,45.128
622.00,45.244
623.00,45.238
624.00,45.271
625.00,45.356
626.00,45.305
627.00,45.426
628.00,45.527
629.00,45.376
630.00,45.403
631.00,45.486
632.00,45.581
633.00,45.617
634.00,45.587
635.00,45.728
636.00,45.839
637.00,45.809
638.00,45.895
639.00,45.925
640.00,45.902
641.00,45.944
642.00,46.053
643.00,46.033
644.00,46.107
645.00,46.148
646.00,46.273
647.00,46.196
648.00,46.280
649.00,46.393
650.00,46.279
651.00,46.394
652.00,46.444
653.00,46.450
654.00,46.504
655.00,46.551
656.00,46.695
657.00,46.737
658.00,46.773
659.00,46.815
660.00,46.754
661.00,46.682
662.00,47.036
663.00,46.934
664.00,47.002
665.00,47.103
666.00,47.173
667.00,47.189
668.00,47.199
669.00,47.255
670.00,47.362
671.00,47.298
672.00,47.502
673.00,47.521
674.00,47.549
675.00,47.637
676.00,47.623
677.00,47.644
678.00,47.658
679.00,47.703
680.00,47.787
681.00,47.833
682.00,47.935
683.00,47.951
684.00,48.017
685.00,48.044
686.00,47.961
687.00,48.146
688.00,48.194
689.00,48.129
690.00,48.239
691.00,48.372
692.00,48.346
693.00,48.374
694.00,48.402
695.00,48.421
696.00,48.459
697.00,48.517
698.00,48.561
699.00,48.757
700.00,48.707
701.00,48.696
702.00,48.845
703.00,48.818
704.00,48.862
705.00,48.778
706.00,48.864
707.00,49.033
708.00,48.836
709.00,49.012
710.00,49.283
711.00,49.013
712.00,48.989
713.00,49.091
714.00,49.088
715.00,49.104
716.00,49.058
717.00,49.204
718.00,49.265
719.00,49.295
720.00,49.380
721.00,53.571
722.00,53.567
723.00,53.630
724.00,53.590
725.00,53.563
726.00,53.484
727.00,53.457
728.00,53.446
729.00,53.470
730.00,53.488
731.00,53.417
732.00,53.428
733.00,53.499
734.00,53.423
735.00,53.434
736.00,53.456
737.00,53.378
738.00,53.434
739.00,53.437
740.00,53.374
741.00,53.422
742.00,53.455
743.00,53.435
744.00,53.327
745.00,53.301
746.00,53.253
747.00,53.303
748.00,53.178
749.00,53.192
750.00,53.192
751.00,53.130
752.00,53.133
753.00,53.132
754.00,53.114
755.00,53.066
756.00,53.102
757.00,53.073
758.00,53.008
759.00,53.033
760.00,53.032
761.00,52.976
762.00,52.955
763.00,52.909
764.00,52.927
765.00,52.943
766.00,52.850
767.00,52.910
768.00,52.934
769.00,52.865
770.00,52.792
771.00,52.928
772.00,52.878
773.00,52.827
774.00,52.786
775.00,52.827
776.00,52.787
777.00,52.885
778.00,52.738
779.00,52.834
780.00,52.833
781.00,52.813
782.00,52.742
783.00,52.661
784.00,52.655
785.00,52.581
786.00,52.621
787.00,52.620
788.00,52.618
789.00,52.584
790.00,52.453
791.00,52.537
792.00,52.478
793.00,52.449
794.00,52.419
795.00,52.436
796.00,52.485
797.00,52.375
798.00,52.400
799.00,52.335
800.00,52.270
801.00,52.232
802.00,52.265
803.00,52.269
804.00,52.227
805.00,52.161
806.00,52.255
807.00,52.095
808.00,52.092
809.00,52.061
810.00,52.115
811.00,52.096
812.00,52.036
813.00,51.973
814.00,51.972
815.00,51.950
816.00,51.880
817.00,51.906
818.00,51.815
819.00,51.760
820.00,51.904
821.00,51.819
822.00,51.819
823.00,51.725
824.00,51.705
825.00,51.703
826.00,51.696
827.00,51.668
828.00,51.709
829.00,51.572
830.00,51.613
831.00,54.167
832.00,54.119
833.00,54.105
834.00,54.085
835.00,54.044
836.00,54.058
837.00,53.995
838.00,53.966
839.00,53.942
840.00,53.927
841.00,53.901
842.00,53.855
843.00,53.884
844.00,53.850
845.00,53.780
846.00,53.795
847.00,53.767
848.00,53.755
849.00,53.623
850.00,53.669
851.00,53.596
852.00,53.559
853.00,53.529
854.00,53.473
855.00,53.441
856.00,53.452
857.00,53.397
858.00,53.385
859.00,53.351
860.00,53.355
861.00,53.344
862.00,53.287
863.00,53.297
864.00,53.236
865.00,53.234
866.00,53.223
867.00,53.253
868.00,53.201
869.00,53.160
870.00,53.160
871.00,53.135
872.00,53.114
873.00,53.090
874.00,53.087
875.00,53.079
876.00,53.060
877.00,53.054
878.00,53.030
879.00,53.026
880.00,53.004
881.00,52.964
882.00,52.970
883.00,52.940
884.00,52.891
885.00,52.850
886.00,52.830
887.00,52.803
888.00,52.798
889.00,52.760
890.00,52.745
891.00,52.732
892.00,52.737
893.00,52.704
894.00,52.711
895.00,52.653
896.00,52.632
897.00,52.632
898.00,52.583
899.00,52.584
900.00,52.580
901.00,52.556
902.00,52.537
903.00,52.528
904.00,52.504
905.00,52.480
906.00,52.476
907.00,52.447
908.00,52.386
909.00,52.389
910.00,52.350
911.00,52.345
912.00,52.354
913.00,52.290
914.00,52.287
915.00,52.289
916.00,52.265
917.00,52.164
918.00,52.342
919.00,52.165
920.00,52.150
921.00,52.112
922.00,52.104
923.00,52.085
924.00,52.049
925.00,52.036
926.00,52.045
927.00,52.034
928.00,51.999
929.00,51.970
930.00,51.951
931.00,51.945
932.00,51.911
933.00,51.901
934.00,51.875
935.00,51.871
936.00,51.833
937.00,51.823
938.00,51.803
939.00,51.791
940.00,51.749
941.00,51.738
942.00,51.717
943.00,51.716
944.00,51.655
945.00,51.668
946.00,51.647
947.00,51.618
948.00,51.602
949.00,51.571
950.00,51.526
951.00,51.586
952.00,51.502
953.00,51.473
954.00,51.446
955.00,51.421
956.00,51.403
957.00,51.366
958.00,51.372
959.00,51.329
960.00,51.318
961.00,51.303
962.00,51.294
963.00,51.258
964.00,51.250
965.00,51.222
966.00,51.272
967.00,51.222
968.00,51.205
969.00,51.208
970.00,51.202
971.00,51.201
972.00,51.182
973.00,51.196
974.00,51.224
975.00,51.191
976.00,51.194
977.00,51.183
978.00,51.203
979.00,51.168
980.00,51.204
981.00,51.190
982.00,51.181
983.00,51.184
984.00,51.165
985.00,51.178
986.00,51.137
987.00,51.133
988.00,51.114
989.00,51.099
990.00,51.086
991.00,51.054
992.00,51.069
993.00,51.046
994.00,51.023
995.00,51.020
996.00,51.015
997.00,51.006
998.00,50.991
999.00,51.008
1000.00,50.953
1001.00,50.969
1002.00,50.953
1003.00,50.950
1004.00,50.921
1005.00,50.900
1006.00,50.903
1007.00,50.876
1008.00,50.861
1009.00,50.850
1010.00,50.848
1011.00,50.831
1012.00,50.804
1013.00,50.812
1014.00,50.774
1015.00,50.784
1016.00,50.738
1017.00,50.740
1018.00,50.712
1019.00,50.691
1020.00,50.678
1021.00,50.664
1022.00,50.653
1023.00,50.612
1024.00,50.620
1025.00,50.598
1026.00,50.597
1027.00,50.577
1028.00,50.569
1029.00,50.561
1030.00,50.528
1031.00,50.517
1032.00,50.479
1033.00,50.486
1034.00,50.444
1035.00,50.416
1036.00,50.389
1037.00,50.376
1038.00,50.360
1039.00,50.330
1040.00,50.331
1041.00,50.298
1042.00,50.285
1043.00,50.266
1044.00,50.299
1045.00,50.272
1046.00,50.260
1047.00,50.268
1048.00,50.287
1049.00,50.290
1050.00,50.295
1051.00,50.317
1052.00,50.335
1053.00,50.341
1054.00,50.337
1055.00,50.349
1056.00,50.353
1057.00,50.363
1058.00,50.351
1059.00,50.345
1060.00,50.345
1061.00,50.335
1062.00,50.324
1063.00,50.329
1064.00,50.304
1065.00,50.301
1066.00,50.290
1067.00,50.289
1068.00,50.293
1069.00,50.262
1070.00,50.244
1071.00,50.231
1072.00,50.239
1073.00,50.218
1074.00,50.214
1075.00,50.197
1076.00,50.189
1077.00,50.177
1078.00,50.163
1079.00,50.149
1080.00,50.161
1081.00,50.138
1082.00,50.142
1083.00,50.127
1084.00,50.125
1085.00,50.108
1086.00,50.106
1087.00,50.108
1088.00,50.103
1089.00,50.065
1090.00,50.073
1091.00,50.066
1092.00,50.059
1093.00,50.028
1094.00,50.012
1095.00,50.008
1096.00,50.007
1097.00,49.977
1098.00,49.972
1099.00,49.964
1100.00,49.966
1101.00,49.948
1102.00,49.946
1103.00,49.938
1104.00,49.934
1105.00,49.908
1106.00,49.912
1107.00,49.898
1108.00,49.884
1109.00,49.879
1110.00,49.882
1111.00,49.877
1112.00,49.860
1113.00,49.848
1114.00,49.846
1115.00,49.846
1116.00,49.840
1117.00,49.823
1118.00,49.819
1119.00,49.792
1120.00,49.800
1121.00,49.790
1122.00,49.774
1123.00,49.767
1124.00,49.764
1125.00,49.758
1126.00,49.761
1127.00,49.745
1128.00,49.736
1129.00,49.719
1130.00,49.718
1131.00,49.706
1132.00,49.695
1133.00,49.685
1134.00,49.692
1135.00,49.674
1136.00,49.675
1137.00,49.660
1138.00,49.668
1139.00,49.670
1140.00,49.669
1141.00,49.651
1142.00,49.658
1143.00,49.666
1144.00,49.642
1145.00,49.639
1146.00,49.643
1147.00,49.621
1148.00,49.606
1149.00,49.611
1150.00,49.616
1151.00,49.604
1152.00,49.584
1153.00,49.581
1154.00,49.574
1155.00,49.572
1156.00,49.551
1157.00,49.565
1158.00,49.560
1159.00,49.553
1160.00,49.556
1161.00,49.576
1162.00,49.562
1163.00,49.558
1164.00,49.557
1165.00,49.539
1166.00,49.530
1167.00,49.538
1168.00,49.549
1169.00,49.544
1170.00,49.537
1171.00,49.522
1172.00,49.544
1173.00,49.534
1174.00,49.535
1175.00,49.535
1176.00,49.529
1177.00,49.521
1178.00,49.517
1179.00,49.542
1180.00,49.524
1181.00,49.527
1182.00,49.531
1183.00,49.507
1184.00,49.495
1185.00,49.514
1186.00,49.504
1187.00,49.501
1188.00,49.486
1189.00,49.489
1190.00,49.494
1191.00,49.493
1192.00,49.503
1193.00,49.492
1194.00,49.512
1195.00,49.491
1196.00,49.486
1197.00,49.488
1198.00,49.495
1199.00,49.480
1200.00,49.473
1201.00,49.481
1202.00,49.471
1203.00,49.462
1204.00,49.449
1205.00,49.465
1206.00,49.464
1207.00,49.463
1208.00,49.442
1209.00,49.447
1210.00,49.444
1211.00,49.442
1212.00,49.464
1213.00,49.439
1214.00,49.454
1215.00,49.449
1216.00,49.464
1217.00,49.462
1218.00,49.449
1219.00,49.470
1220.00,49.454
1221.00,49.452
1222.00,49.448
1223.00,49.465
1224.00,49.462
1225.00,49.454
1226.00,49.445
1227.00,49.442
1228.00,49.457
1229.00,49.458
1230.00,49.494
1231.00,49.484
1232.00,49.494
1233.00,49.504
1234.00,49.500
1235.00,49.492
1236.00,49.498
1237.00,49.479
1238.00,49.499
1239.00,49.494
1240.00,49.495
1241.00,49.513
1242.00,49.492
1243.00,49.507
1244.00,49.486
1245.00,49.494
1246.00,49.529
1247.00,49.504
1248.00,49.500
1249.00,49.509
1250.00,49.500
1251.00,49.496
1252.00,49.513
1253.00,49.514
1254.00,49.523
1255.00,49.539
1256.00,49.549
1257.00,49.499
1258.00,49.547
1259.00,49.533
1260.00,49.559
1261.00,49.555
1262.00,49.543
1263.00,49.537
1264.00,49.546
1265.00,49.539
1266.00,49.543
1267.00,49.546
1268.00,49.580
1269.00,49.566
1270.00,49.578
1271.00,49.581
1272.00,49.589
1273.00,49.582
1274.00,49.590
1275.00,49.596
1276.00,49.601
1277.00,49.586
1278.00,49.604
1279.00,49.589
1280.00,49.587
1281.00,49.591
1282.00,49.615
1283.00,49.612
1284.00,49.589
1285.00,49.609
1286.00,49.649
1287.00,49.630
1288.00,49.634
1289.00,49.636
1290.00,49.649
1291.00,49.639
1292.00,49.644
1293.00,49.643
1294.00,49.660
1295.00,49.669
1296.00,49.662
1297.00,49.684
1298.00,49.682
1299.00,49.687
1300.00,49.694
1301.00,49.711
1302.00,49.718
1303.00,49.715
1304.00,49.695
1305.00,49.720
1306.00,49.711
1307.00,49.727
1308.00,49.729
1309.00,49.722
1310.00,49.724
1311.00,49.719
1312.00,49.731
1313.00,49.725
1314.00,49.751
1315.00,49.760
1316.00,49.761
1317.00,49.770
1318.00,49.767
1319.00,49.767
1320.00,49.791
1321.00,49.936
1322.00,49.957
1323.00,49.930
1324.00,49.934
1325.00,49.914
1326.00,49.937
1327.00,49.921
1328.00,49.923
1329.00,49.919
1330.00,49.929
1331.00,49.915
1332.00,49.923
1333.00,49.931
1334.00,49.964
1335.00,49.977
1336.00,49.994
1337.00,50.026
1338.00,50.093
1339.00,50.134
1340.00,50.207
1341.00,50.248
1342.00,50.305
1343.00,50.359
1344.00,50.414
1345.00,50.482
1346.00,50.517
1347.00,50.554
1348.00,50.566
1349.00,50.590
1350.00,50.600
1351.00,50.618
1352.00,50.625
1353.00,50.601
1354.00,50.618
1355.00,50.587
1356.00,50.608
1357.00,50.622
1358.00,50.608
1359.00,50.649
1360.00,50.705
1361.00,51.041
1362.00,50.628
1363.00,50.682
1364.00,50.644
1365.00,50.635
1366.00,50.642
1367.00,50.629
1368.00,50.609
1369.00,50.626
1370.00,50.640
1371.00,50.592
1372.00,50.619
1373.00,50.613
1374.00,50.619
1375.00,50.611
1376.00,50.609
1377.00,50.609
1378.00,50.632
1379.00,50.615
1380.00,50.611
1381.00,50.623
1382.00,50.671
1383.00,50.614
1384.00,50.595
1385.00,50.567
1386.00,50.550
1387.00,50.602
1388.00,50.571
1389.00,50.560
1390.00,50.592
1391.00,50.595
1392.00,50.581
1393.00,50.565
1394.00,50.591
1395.00,50.586
1396.00,50.555
1397.00,50.544
1398.00,50.591
1399.00,50.650
1400.00,50.575
1401.00,50.578
1402.00,50.592
1403.00,50.624
1404.00,50.594
1405.00,50.628
1406.00,50.636
1407.00,50.649
1408.00,50.632
1409.00,50.620
1410.00,50.664
1411.00,50.652
1412.00,50.707
1413.00,50.664
1414.00,50.670
1415.00,50.692
1416.00,50.716
1417.00,50.723
1418.00,50.716
1419.00,50.707
1420.00,50.751
1421.00,50.778
1422.00,50.766
1423.00,50.771
1424.00,50.791
1425.00,50.795
1426.00,50.806
1427.00,50.835
1428.00,50.826
1429.00,50.843
1430.00,50.857
1431.00,50.873
1432.00,50.889
1433.00,50.906
1434.00,50.916
1435.00,50.955
1436.00,50.944
1437.00,50.948
1438.00,50.962
1439.00,50.994
1440.00,50.997
1441.00,50.995
1442.00,51.006
1443.00,51.043
1444.00,51.046
1445.00,51.056
1446.00,51.066
1447.00,51.091
1448.00,51.102
1449.00,51.152
1450.00,51.127
1451.00,51.145
1452.00,51.161
1453.00,51.188
1454.00,51.198
1455.00,51.220
1456.00,51.230
1457.00,51.235
1458.00,51.252
1459.00,51.276
1460.00,51.293
1461.00,51.296
1462.00,51.326
1463.00,51.325
1464.00,51.339
1465.00,51.355
1466.00,51.353
1467.00,51.395
1468.00,51.415
1469.00,51.403
1470.00,51.401
1471.00,51.428
1472.00,51.449
1473.00,51.459
1474.00,51.466
1475.00,51.483
1476.00,51.491
1477.00,51.498
1478.00,51.506
1479.00,51.521
1480.00,51.518
1481.00,51.547
1482.00,51.569
1483.00,51.584
1484.00,51.596
1485.00,51.601
1486.00,51.615
1487.00,51.629
1488.00,51.636
1489.00,51.643
1490.00,51.664
1491.00,51.669
1492.00,51.676
1493.00,51.693
1494.00,51.699
1495.00,51.721
1496.00,51.713
1497.00,51.726
1498.00,51.723
1499.00,51.741
1500.00,51.770
1501.00, 
1502.00, 
1503.00, 
1504.00, 
1505.00, 
1506.00, 
1507.00, 
1508.00, 
1509.00, 
1510.00, 
1511.00, 
1512.00, 
1513.00, 
1514.00, 
1515.00, 
1516.00, 
1517.00, 
1518.00, 
1519.00, 
1520.00, 
1521.00, 
1522.00, 
1523.00, 
1524.00, 
1525.00, 
1526.00, 
1527.00, 
1528.00, 
1529.00, 
1530.00, 
1531.00, 
1532.00, 
1533.00, 
1534.00, 
1535.00, 
1536.00, 
1537.00, 
1538.00, 
1539.00, 
1540.00, 
1541.00, 
1542.00, 
1543.00, 
1544.00, 
1545.00, 
1546.00, 
1547.00, 
1548.00, 
1549.00, 
1550.00, 
1551.00, 
1552.00, 
1553.00, 
1554.00, 
1555.00, 
1556.00, 
1557.00, 
1558.00, 
1559.00, 
1560.00, 
1561.00, 
1562.00, 
1563.00, 
1564.00, 
1565.00, 
1566.00, 
1567.00, 
1568.00, 
1569.00, 
1570.00, 
1571.00, 
1572.00, 
1573.00, 
1574.00, 
1575.00, 
1576.00, 
1577.00, 
1578.00, 
1579.00, 
1580.00, 
1581.00, 
1582.00, 
1583.00, 
1584.00, 
1585.00, 
1586.00, 
1587.00, 
1588.00, 
1589.00, 
1590.00, 
1591.00, 
1592.00, 
1593.00, 
1594.00, 
1595.00, 
1596.00, 
1597.00, 
1598.00, 
1599.00, 
1600.00, 
1601.00, 
1602.00, 
1603.00, 
1604.00, 
1605.00, 
1606.00, 
1607.00, 
1608.00, 
1609.00, 
1610.00, 
1611.00, 
1612.00, 
1613.00, 
1614.00, 
1615.00, 
1616.00, 
1617.00, 
1618.00, 
1619.00, 
1620.00, 
1621.00, 
1622.00, 
1623.00, 
1624.00, 
1625.00, 
1626.00, 
1627.00, 
1628.00, 
1629.00, 
1630.00, 
1631.00, 
1632.00, 
1633.00, 
1634.00, 
1635.00, 
1636.00, 
1637.00, 
1638.00, 
1639.00, 
1640.00, 
1641.00, 
1642.00, 
1643.00, 
1644.00, 
1645.00, 
1646.00, 
1647.00, 
1648.00, 
1649.00, 
1650.00, 
1651.00, 
1652.00, 
1653.00, 
1654.00, 
1655.00, 
1656.00, 
1657.00, 
1658.00, 
1659.00, 
1660.00, 
1661.00, 
1662.00, 
1663.00, 
1664.00, 
1665.00, 
1666.00, 
1667.00, 
1668.00, 
1669.00, 
1670.00, 
1671.00, 
1672.00, 
1673.00, 
1674.00, 
1675.00, 
1676.00, 
1677.00, 
1678.00, 
1679.00, 
1680.00, 
1681.00, 
1682.00, 
1683.00, 
1684.00, 
1685.00, 
1686.00, 
1687.00, 
1688.00, 
1689.00, 
1690.00, 
1691.00, 
1692.00, 
1693.00, 
1694.00, 
1695.00, 
1696.00, 
1697.00, 
1698.00, 
1699.00, 
1700.00, 
1701.00, 
1702.00, 
1703.00, 
1704.00, 
1705.00, 
1706.00, 
1707.00, 
1708.00, 
1709.00, 
1710.00, 
1711.00, 
1712.00, 
1713.00, 
1714.00, 
1715.00, 
1716.00, 
1717.00, 
1718.00, 
1719.00, 
1720.00, 
1721.00, 
1722.00, 
1723.00, 
1724.00, 
1725.00, 
1726.00, 
1727.00, 
1728.00, 
1729.00, 
1730.00, 
1731.00, 
1732.00, 
1733.00, 
1734.00, 
1735.00, 
1736.00, 
1737.00, 
1738.00, 
1739.00, 
1740.00, 
1741.00, 
1742.00, 
1743.00, 
1744.00, 
1745.00, 
1746.00, 
1747.00, 
1748.00, 
1749.00, 
1750.00, 
1751.00, 
1752.00, 
1753.00, 
1754.00, 
1755.00, 
1756.00, 
1757.00, 
1758.00, 
1759.00, 
1760.00, 
1761.00, 
1762.00, 
1763.00, 
1764.00, 
1765.00, 
1766.00, 
1767.00, 
1768.00, 
1769.00, 
1770.00, 
1771.00, 
1772.00, 
1773.00, 
1774.00, 
1775.00, 
1776.00, 
1777.00, 
1778.00, 
1779.00, 
1780.00, 
1781.00, 
1782.00, 
1783.00, 
1784.00, 
1785.00, 
1786.00, 
1787.00, 
1788.00, 
1789.00, 
1790.00, 
1791.00, 
1792.00, 
1793.00, 
1794.00, 
1795.00, 
1796.00, 
1797.00, 
1798.00, 
1799.00, 
1800.00, 
1801.00, 
1802.00, 
1803.00, 
1804.00, 
1805.00, 
1806.00, 
1807.00, 
1808.00, 
1809.00, 
1810.00, 
1811.00, 
1812.00, 
1813.00, 
1814.00, 
1815.00, 
1816.00, 
1817.00, 
1818.00, 
1819.00, 
1820.00, 
1821.00, 
1822.00, 
1823.00, 
1824.00, 
1825.00, 
1826.00, 
1827.00, 
1828.00, 
1829.00, 
1830.00, 
1831.00, 
1832.00, 
1833.00, 
1834.00, 
1835.00, 
1836.00, 
1837.00, 
1838.00, 
1839.00, 
1840.00, 
1841.00, 
1842.00, 
1843.00, 
1844.00, 
1845.00, 
1846.00, 
1847.00, 
1848.00, 
1849.00, 
1850.00, 
1851.00, 
1852.00, 
1853.00, 
1854.00, 
1855.00, 
1856.00, 
1857.00, 
1858.00, 
1859.00, 
1860.00, 
1861.00, 
1862.00, 
1863.00, 
1864.00, 
1865.00, 
1866.00, 
1867.00, 
1868.00, 
1869.00, 
1870.00, 
1871.00, 
1872.00, 
1873.00, 
1874.00, 
1875.00, 
1876.00, 
1877.00, 
1878.00, 
1879.00, 
1880.00, 
1881.00, 
1882.00, 
1883.00, 
1884.00, 
1885.00, 
1886.00, 
1887.00, 
1888.00, 
1889.00, 
1890.00, 
1891.00, 
1892.00, 
1893.00, 
1894.00, 
1895.00, 
1896.00, 
1897.00, 
1898.00, 
1899.00, 
1900.00, 
1901.00, 
1902.00, 
1903.00, 
1904.00, 
1905.00, 
1906.00, 
1907.00, 
1908.00, 
1909.00, 
1910.00, 
1911.00, 
1912.00, 
1913.00, 
1914.00, 
1915.00, 
1916.00, 
1917.00, 
1918.00, 
1919.00, 
1920.00, 
1921.00, 
1922.00, 
1923.00, 
1924.00, 
1925.00, 
1926.00, 
1927.00, 
1928.00, 
1929.00, 
1930.00, 
1931.00, 
1932.00, 
1933.00, 
1934.00, 
1935.00, 
1936.00, 
1937.00, 
1938.00, 
1939.00, 
1940.00, 
1941.00, 
1942.00, 
1943.00, 
1944.00, 
1945.00, 
1946.00, 
1947.00, 
1948.00, 
1949.00, 
1950.00, 
1951.00, 
1952.00, 
1953.00, 
1954.00, 
1955.00, 
1956.00, 
1957.00, 
1958.00, 
1959.00, 
1960.00, 
1961.00, 
1962.00, 
1963.00, 
1964.00, 
1965.00, 
1966.00, 
1967.00, 
1968.00, 
1969.00, 
1970.00, 
1971.00, 
1972.00, 
1973.00, 
1974.00, 
1975.00, 
1976.00, 
1977.00, 
1978.00, 
1979.00, 
1980.00, 
1981.00, 
1982.00, 
1983.00, 
1984.00, 
1985.00, 
1986.00, 
1987.00, 
1988.00, 
1989.00, 
1990.00, 
1991.00, 
1992.00, 
1993.00, 
1994.00, 
1995.00, 
1996.00, 
1997.00, 
1998.00, 
1999.00, 
2000.00, 
2001.00, 
2002.00, 
2003.00, 
2004.00, 
2005.00, 
2006.00, 
2007.00, 
2008.00, 
2009.00, 
2010.00, 
2011.00, 
2012.00, 
2013.00, 
2014.00, 
2015.00, 
2016.00, 
2017.00, 
2018.00, 
2019.00, 
2020.00, 
2021.00, 
2022.00, 
2023.00, 
2024.00, 
2025.00, 
2026.00, 
2027.00, 
2028.00, 
2029.00, 
2030.00, 
2031.00, 
2032.00, 
2033.00, 
2034.00, 
2035.00, 
2036.00, 
2037.00, 
2038.00, 
2039.00, 
2040.00, 
2041.00, 
2042.00, 
2043.00, 
2044.00, 
2045.00, 
2046.00, 
2047.00, 
2048.00, 
2049.00, 
2050.00, 
2051.00, 
2052.00, 
2053.00, 
2054.00, 
2055.00, 
2056.00, 
2057.00, 
2058.00, 
2059.00, 
2060.00, 
2061.00, 
2062.00, 
2063.00, 
2064.00, 
2065.00, 
2066.00, 
2067.00, 
2068.00, 
2069.00, 
2070.00, 
2071.00, 
2072.00, 
2073.00, 
2074.00, 
2075.00, 
2076.00, 
2077.00, 
2078.00, 
2079.00, 
2080.00, 
2081.00, 
2082.00, 
2083.00, 
2084.00, 
2085.00, 
2086.00, 
2087.00, 
2088.00, 
2089.00, 
2090.00, 
2091.00, 
2092.00, 
2093.00, 
2094.00, 
2095.00, 
2096.00, 
2097.00, 
2098.00, 
2099.00, 
2100.00, 
2101.00, 
2102.00, 
2103.00, 
2104.00, 
2105.00, 
2106.00, 
2107.00, 
2108.00, 
2109.00, 
2110.00, 
2111.00, 
2112.00, 
2113.00, 
2114.00, 
2115.00, 
2116.00, 
2117.00, 
2118.00, 
2119.00, 
2120.00, 
2121.00, 
2122.00, 
2123.00, 
2124.00, 
2125.00, 
2126.00, 
2127.00, 
2128.00, 
2129.00, 
2130.00, 
2131.00, 
2132.00, 
2133.00, 
2134.00, 
2135.00, 
2136.00, 
2137.00, 
2138.00, 
2139.00, 
2140.00, 
2141.00, 
2142.00, 
2143.00, 
2144.00, 
2145.00, 
2146.00, 
2147.00, 
2148.00, 
2149.00, 
2150.00, 
2151.00, 
2152.00, 
2153.00, 
2154.00, 
2155.00, 
2156.00, 
2157.00, 
2158.00, 
2159.00, 
2160.00, 
2161.00, 
2162.00, 
2163.00, 
2164.00, 
2165.00, 
2166.00, 
2167.00, 
2168.00, 
2169.00, 
2170.00, 
2171.00, 
2172.00, 
2173.00, 
2174.00, 
2175.00, 
2176.00, 
2177.00, 
2178.00, 
2179.00, 
2180.00, 
2181.00, 
2182.00, 
2183.00, 
2184.00, 
2185.00, 
2186.00, 
2187.00, 
2188.00, 
2189.00, 
2190.00, 
2191.00, 
2192.00, 
2193.00, 
2194.00, 
2195.00, 
2196.00, 
2197.00, 
2198.00, 
2199.00, 
2200.00, 
2201.00, 
2202.00, 
2203.00, 
2204.00, 
2205.00, 
2206.00, 
2207.00, 
2208.00, 
2209.00, 
2210.00, 
2211.00, 
2212.00, 
2213.00, 
2214.00, 
2215.00, 
2216.00, 
2217.00, 
2218.00, 
2219.00, 
2220.00, 
2221.00, 
2222.00, 
2223.00, 
2224.00, 
2225.00, 
2226.00, 
2227.00, 
2228.00, 
2229.00, 
2230.00, 
2231.00, 
2232.00, 
2233.00, 
2234.00, 
2235.00, 
2236.00, 
2237.00, 
2238.00, 
2239.00, 
2240.00, 
2241.00, 
2242.00, 
2243.00, 
2244.00, 
2245.00, 
2246.00, 
2247.00, 
2248.00, 
2249.00, 
2250.00, 
2251.00, 
2252.00, 
2253.00, 
2254.00, 
2255.00, 
2256.00, 
2257.00, 
2258.00, 
2259.00, 
2260.00, 
2261.00, 
2262.00, 
2263.00, 
2264.00, 
2265.00, 
2266.00, 
2267.00, 
2268.00, 
2269.00, 
2270.00, 
2271.00, 
2272.00, 
2273.00, 
2274.00, 
2275.00, 
2276.00, 
2277.00, 
2278.00, 
2279.00, 
2280.00, 
2281.00, 
2282.00, 
2283.00, 
2284.00, 
2285.00, 
2286.00, 
2287.00, 
2288.00, 
2289.00, 
2290.00, 
2291.00, 
2292.00, 
2293.00, 
2294.00, 
2295.00, 
2296.00, 
2297.00, 
2298.00, 
2299.00, 
2300.00, 
2301.00, 
2302.00, 
2303.00, 
2304.00, 
2305.00, 
2306.00, 
2307.00, 
2308.00, 
2309.00, 
2310.00, 
2311.00, 
2312.00, 
2313.00, 
2314.00, 
2315.00, 
2316.00, 
2317.00, 
2318.00, 
2319.00, 
2320.00, 
2321.00, 
2322.00, 
2323.00, 
2324.00, 
2325.00, 
2326.00, 
2327.00, 
2328.00, 
2329.00, 
2330.00, 
2331.00, 
2332.00, 
2333.00, 
2334.00, 
2335.00, 
2336.00, 
2337.00, 
2338.00, 
2339.00, 
2340.00, 
2341.00, 
2342.00, 
2343.00, 
2344.00, 
2345.00, 
2346.00, 
2347.00, 
2348.00, 
2349.00, 
2350.00, 
2351.00, 
2352.00, 
2353.00, 
2354.00, 
2355.00, 
2356.00, 
2357.00, 
2358.00, 
2359.00, 
2360.00, 
2361.00, 
2362.00, 
2363.00, 
2364.00, 
2365.00, 
2366.00, 
2367.00, 
2368.00, 
2369.00, 
2370.00, 
2371.00, 
2372.00, 
2373.00, 
2374.00, 
2375.00, 
2376.00, 
2377.00, 
2378.00, 
2379.00, 
2380.00, 
2381.00, 
2382.00, 
2383.00, 
2384.00, 
2385.00, 
2386.00, 
2387.00, 
2388.00, 
2389.00, 
2390.00, 
2391.00, 
2392.00, 
2393.00, 
2394.00, 
2395.00, 
2396.00, 
2397.00, 
2398.00, 
2399.00, 
2400.00, 
2401.00, 
2402.00, 
2403.00, 
2404.00, 
2405.00, 
2406.00, 
2407.00, 
2408.00, 
2409.00, 
2410.00, 
2411.00, 
2412.00, 
2413.00, 
2414.00, 
2415.00, 
2416.00, 
2417.00, 
2418.00, 
2419.00, 
2420.00, 
2421.00, 
2422.00, 
2423.00, 
2424.00, 
2425.00, 
2426.00, 
2427.00, 
2428.00, 
2429.00, 
2430.00, 
2431.00, 
2432.00, 
2433.00, 
2434.00, 
2435.00, 
2436.00, 
2437.00, 
2438.00, 
2439.00, 
2440.00, 
2441.00, 
2442.00, 
2443.00, 
2444.00, 
2445.00, 
2446.00, 
2447.00, 
2448.00, 
2449.00, 
2450.00, 
2451.00, 
2452.00, 
2453.00, 
2454.00, 
2455.00, 
2456.00, 
2457.00, 
2458.00, 
2459.00, 
2460.00, 
2461.00, 
2462.00, 
2463.00, 
2464.00, 
2465.00, 
2466.00, 
2467.00, 
2468.00, 
2469.00, 
2470.00, 
2471.00, 
2472.00, 
2473.00, 
2474.00, 
2475.00, 
2476.00, 
2477.00, 
2478.00, 
2479.00, 
2480.00, 
2481.00, 
2482.00, 
2483.00, 
2484.00, 
2485.00, 
2486.00, 
2487.00, 
2488.00, 
2489.00, 
2490.00, 
2491.00, 
2492.00, 
2493.00, 
2494.00, 
2495.00, 
2496.00, 
2497.00, 
2498.00, 
2499.00, 
2500.00, 
2501.00, 
2502.00, 
2503.00, 
2504.00, 
2505.00, 
2506.00, 
2507.00, 
2508.00, 
2509.00, 
2510.00, 
2511.00, 
2512.00, 
2513.00, 
2514.00, 
2515.00, 
2516.00, 
2517.00, 
2518.00, 
2519.00, 
2520.00, 
2521.00, 
2522.00, 
2523.00, 
2524.00, 
2525.00, 
2526.00, 
2527.00, 
2528.00, 
2529.00, 
2530.00, 
2531.00, 
2532.00, 
2533.00, 
2534.00, 
2535.00, 
2536.00, 
2537.00, 
2538.00, 
2539.00, 
2540.00, 
2541.00, 
2542.00, 
2543.00, 
2544.00, 
2545.00, 
2546.00, 
2547.00, 
2548.00, 
2549.00, 
2550.00, 
2551.00, 
2552.00, 
2553.00, 
2554.00, 
2555.00, 
2556.00, 
2557.00, 
2558.00, 
2559.00, 
2560.00, 
2561.00, 
2562.00, 
2563.00, 
2564.00, 
2565.00, 
2566.00, 
2567.00, 
2568.00, 
2569.00, 
2570.00, 
2571.00, 
2572.00, 
2573.00, 
2574.00, 
2575.00, 
2576.00, 
2577.00, 
2578.00, 
2579.00, 
2580.00, 
2581.00, 
2582.00, 
2583.00, 
2584.00, 
2585.00, 
2586.00, 
2587.00, 
2588.00, 
2589.00, 
2590.00, 
2591.00, 
2592.00, 
2593.00, 
2594.00, 
2595.00, 
2596.00, 
2597.00, 
2598.00, 
2599.00, 
2600.00, 
