"2cP3 - RawData"
"Wavelength nm.","T%"
200.00,0.002
201.00,0.003
202.00,0.001
203.00,0.004
204.00,0.003
205.00,0.002
206.00,0.003
207.00,0.003
208.00,0.003
209.00,0.002
210.00,0.002
211.00,0.003
212.00,0.001
213.00,-0.001
214.00,0.001
215.00,-0.000
216.00,0.001
217.00,0.002
218.00,-0.002
219.00,0.001
220.00,0.002
221.00,-0.001
222.00,0.001
223.00,-0.001
224.00,-0.000
225.00,0.002
226.00,-0.000
227.00,-0.001
228.00,-0.001
229.00,-0.001
230.00,0.002
231.00,-0.001
232.00,0.002
233.00,0.001
234.00,-0.001
235.00,0.000
236.00,0.000
237.00,-0.000
238.00,0.000
239.00,0.002
240.00,0.001
241.00,0.000
242.00,0.000
243.00,-0.000
244.00,0.000
245.00,0.000
246.00,0.000
247.00,0.002
248.00,0.001
249.00,-0.001
250.00,0.001
251.00,-0.001
252.00,0.001
253.00,0.001
254.00,0.001
255.00,0.001
256.00,0.001
257.00,-0.000
258.00,-0.000
259.00,-0.000
260.00,0.001
261.00,0.002
262.00,-0.001
263.00,-0.000
264.00,0.002
265.00,-0.001
266.00,0.002
267.00,0.000
268.00,-0.001
269.00,0.001
270.00,-0.001
271.00,-0.002
272.00,0.000
273.00,0.000
274.00,0.001
275.00,0.001
276.00,0.000
277.00,0.000
278.00,0.002
279.00,0.000
280.00,0.001
281.00,0.001
282.00,0.002
283.00,0.003
284.00,0.001
285.00,-0.001
286.00,-0.001
287.00,0.001
288.00,0.001
289.00,0.001
290.00,0.001
291.00,-0.000
292.00,-0.000
293.00,0.002
294.00,-0.001
295.00,-0.000
296.00,0.001
297.00,0.002
298.00,0.001
299.00,0.002
300.00,0.001
301.00,0.003
302.00,0.005
303.00,0.007
304.00,0.010
305.00,0.015
306.00,0.024
307.00,0.037
308.00,0.059
309.00,0.090
310.00,0.125
311.00,0.166
312.00,0.227
313.00,0.307
314.00,0.404
315.00,0.530
316.00,0.680
317.00,0.851
318.00,1.062
319.00,1.306
320.00,1.578
321.00,1.897
322.00,2.249
323.00,2.633
324.00,3.054
325.00,3.479
326.00,3.953
327.00,4.460
328.00,4.992
329.00,5.515
330.00,6.082
331.00,6.569
332.00,7.194
333.00,7.787
334.00,8.350
335.00,8.990
336.00,9.557
337.00,10.128
338.00,10.710
339.00,11.222
340.00,11.780
341.00,12.317
342.00,12.807
343.00,13.286
344.00,13.783
345.00,14.239
346.00,14.659
347.00,15.029
348.00,15.396
349.00,15.780
350.00,16.096
351.00,16.427
352.00,16.686
353.00,16.970
354.00,17.240
355.00,17.476
356.00,17.710
357.00,17.912
358.00,18.106
359.00,18.292
360.00,18.491
361.00,18.608
362.00,18.747
363.00,18.913
364.00,18.983
365.00,19.080
366.00,19.179
367.00,19.234
368.00,19.285
369.00,19.356
370.00,19.410
371.00,19.421
372.00,19.391
373.00,19.432
374.00,19.436
375.00,19.383
376.00,19.378
377.00,19.373
378.00,19.296
379.00,19.248
380.00,19.177
381.00,19.206
382.00,19.173
383.00,19.219
384.00,19.255
385.00,19.267
386.00,19.248
387.00,19.293
388.00,19.332
389.00,19.368
390.00,19.358
391.00,19.402
392.00,19.386
393.00,19.387
394.00,19.411
395.00,19.390
396.00,19.398
397.00,19.413
398.00,19.375
399.00,19.412
400.00,19.420
401.00,19.356
402.00,19.417
403.00,19.415
404.00,19.420
405.00,19.409
406.00,19.403
407.00,19.403
408.00,19.374
409.00,19.339
410.00,19.313
411.00,19.285
412.00,19.261
413.00,19.265
414.00,19.216
415.00,19.245
416.00,19.250
417.00,19.248
418.00,19.276
419.00,19.319
420.00,19.363
421.00,19.338
422.00,19.339
423.00,19.390
424.00,19.403
425.00,19.451
426.00,19.439
427.00,19.494
428.00,19.529
429.00,19.551
430.00,19.596
431.00,19.656
432.00,19.687
433.00,19.792
434.00,19.798
435.00,19.831
436.00,19.898
437.00,19.922
438.00,20.027
439.00,20.099
440.00,20.170
441.00,20.193
442.00,20.284
443.00,20.355
444.00,20.457
445.00,20.527
446.00,20.595
447.00,20.671
448.00,20.778
449.00,20.885
450.00,20.959
451.00,21.024
452.00,21.114
453.00,21.229
454.00,21.325
455.00,21.439
456.00,21.549
457.00,21.648
458.00,21.729
459.00,21.826
460.00,21.999
461.00,22.148
462.00,22.189
463.00,22.345
464.00,22.430
465.00,22.556
466.00,22.688
467.00,22.823
468.00,22.869
469.00,22.989
470.00,23.068
471.00,23.160
472.00,23.293
473.00,23.383
474.00,23.505
475.00,23.620
476.00,23.714
477.00,23.865
478.00,23.987
479.00,24.169
480.00,24.278
481.00,24.371
482.00,24.530
483.00,24.646
484.00,24.879
485.00,24.979
486.00,25.142
487.00,25.259
488.00,25.387
489.00,25.574
490.00,25.681
491.00,25.806
492.00,25.926
493.00,26.122
494.00,26.250
495.00,26.274
496.00,26.446
497.00,26.509
498.00,26.679
499.00,26.828
500.00,26.981
501.00,27.050
502.00,27.184
503.00,27.291
504.00,27.428
505.00,27.550
506.00,27.689
507.00,27.796
508.00,27.915
509.00,28.082
510.00,28.196
511.00,28.287
512.00,28.481
513.00,28.572
514.00,28.711
515.00,28.796
516.00,28.954
517.00,29.028
518.00,29.177
519.00,29.208
520.00,29.271
521.00,29.471
522.00,29.551
523.00,29.585
524.00,29.734
525.00,29.854
526.00,29.951
527.00,30.020
528.00,30.087
529.00,30.266
530.00,30.417
531.00,30.519
532.00,30.603
533.00,30.700
534.00,30.805
535.00,30.881
536.00,30.957
537.00,31.048
538.00,31.121
539.00,31.210
540.00,31.315
541.00,31.365
542.00,31.422
543.00,31.515
544.00,31.580
545.00,31.716
546.00,31.757
547.00,31.866
548.00,31.969
549.00,32.018
550.00,32.094
551.00,32.192
552.00,32.271
553.00,32.336
554.00,32.359
555.00,32.426
556.00,32.544
557.00,32.609
558.00,32.661
559.00,32.743
560.00,32.875
561.00,32.907
562.00,32.974
563.00,32.988
564.00,33.074
565.00,33.093
566.00,33.113
567.00,33.170
568.00,33.242
569.00,33.293
570.00,33.385
571.00,33.413
572.00,33.478
573.00,33.442
574.00,33.543
575.00,33.578
576.00,33.587
577.00,33.665
578.00,33.786
579.00,33.835
580.00,33.891
581.00,34.048
582.00,34.154
583.00,34.119
584.00,34.225
585.00,34.316
586.00,34.362
587.00,34.446
588.00,34.433
589.00,34.478
590.00,34.592
591.00,34.616
592.00,34.637
593.00,34.683
594.00,34.785
595.00,34.932
596.00,34.919
597.00,34.894
598.00,35.060
599.00,35.003
600.00,35.122
601.00,35.170
602.00,35.152
603.00,35.252
604.00,35.271
605.00,35.413
606.00,35.448
607.00,35.471
608.00,35.487
609.00,35.613
610.00,35.736
611.00,35.627
612.00,35.672
613.00,35.755
614.00,35.814
615.00,35.887
616.00,36.007
617.00,35.944
618.00,36.008
619.00,36.143
620.00,36.091
621.00,36.195
622.00,36.320
623.00,36.306
624.00,36.401
625.00,36.500
626.00,36.509
627.00,36.648
628.00,36.718
629.00,36.706
630.00,36.747
631.00,36.828
632.00,36.911
633.00,37.062
634.00,37.102
635.00,37.224
636.00,37.303
637.00,37.274
638.00,37.325
639.00,37.567
640.00,37.579
641.00,37.586
642.00,37.699
643.00,37.766
644.00,37.811
645.00,37.882
646.00,38.058
647.00,38.144
648.00,38.161
649.00,38.226
650.00,38.337
651.00,38.502
652.00,38.556
653.00,38.483
654.00,38.629
655.00,38.915
656.00,39.065
657.00,38.864
658.00,39.104
659.00,39.192
660.00,39.361
661.00,39.326
662.00,39.426
663.00,39.480
664.00,39.713
665.00,39.908
666.00,39.733
667.00,39.788
668.00,39.779
669.00,40.106
670.00,40.341
671.00,40.243
672.00,40.278
673.00,40.441
674.00,40.532
675.00,40.607
676.00,40.876
677.00,40.959
678.00,40.838
679.00,41.040
680.00,41.083
681.00,41.204
682.00,41.276
683.00,41.295
684.00,41.472
685.00,41.635
686.00,41.585
687.00,41.668
688.00,41.737
689.00,41.787
690.00,42.140
691.00,42.326
692.00,42.070
693.00,42.061
694.00,42.464
695.00,42.573
696.00,42.519
697.00,42.512
698.00,42.654
699.00,43.003
700.00,43.012
701.00,42.938
702.00,43.076
703.00,43.190
704.00,43.314
705.00,43.351
706.00,43.366
707.00,43.555
708.00,43.474
709.00,43.787
710.00,44.138
711.00,43.702
712.00,43.717
713.00,43.954
714.00,44.084
715.00,44.068
716.00,44.126
717.00,44.279
718.00,44.411
719.00,44.372
720.00,44.412
721.00,49.082
722.00,49.085
723.00,49.104
724.00,49.158
725.00,49.171
726.00,49.218
727.00,49.176
728.00,49.279
729.00,49.374
730.00,49.284
731.00,49.355
732.00,49.401
733.00,49.513
734.00,49.526
735.00,49.555
736.00,49.539
737.00,49.554
738.00,49.615
739.00,49.673
740.00,49.669
741.00,49.792
742.00,49.887
743.00,49.833
744.00,49.819
745.00,49.826
746.00,49.861
747.00,49.915
748.00,49.795
749.00,49.839
750.00,49.896
751.00,49.865
752.00,49.933
753.00,49.925
754.00,49.948
755.00,50.007
756.00,50.041
757.00,50.023
758.00,50.056
759.00,50.013
760.00,50.063
761.00,50.015
762.00,50.039
763.00,50.103
764.00,50.102
765.00,50.155
766.00,50.140
767.00,50.165
768.00,50.195
769.00,50.236
770.00,50.228
771.00,50.278
772.00,50.272
773.00,50.311
774.00,50.320
775.00,50.335
776.00,50.294
777.00,50.379
778.00,50.348
779.00,50.459
780.00,50.358
781.00,50.444
782.00,50.363
783.00,50.346
784.00,50.379
785.00,50.274
786.00,50.387
787.00,50.399
788.00,50.323
789.00,50.441
790.00,50.257
791.00,50.438
792.00,50.380
793.00,50.345
794.00,50.331
795.00,50.328
796.00,50.391
797.00,50.289
798.00,50.351
799.00,50.390
800.00,50.312
801.00,50.307
802.00,50.328
803.00,50.343
804.00,50.251
805.00,50.300
806.00,50.250
807.00,50.246
808.00,50.283
809.00,50.198
810.00,50.245
811.00,50.242
812.00,50.276
813.00,50.147
814.00,50.141
815.00,50.218
816.00,50.131
817.00,50.221
818.00,50.149
819.00,50.099
820.00,50.123
821.00,50.091
822.00,50.108
823.00,50.054
824.00,50.121
825.00,50.104
826.00,50.169
827.00,50.079
828.00,50.077
829.00,49.966
830.00,50.045
831.00,52.554
832.00,52.555
833.00,52.508
834.00,52.507
835.00,52.473
836.00,52.470
837.00,52.435
838.00,52.411
839.00,52.427
840.00,52.392
841.00,52.383
842.00,52.331
843.00,52.350
844.00,52.371
845.00,52.304
846.00,52.347
847.00,52.288
848.00,52.272
849.00,52.235
850.00,52.185
851.00,52.168
852.00,52.171
853.00,52.114
854.00,52.089
855.00,52.071
856.00,52.036
857.00,52.017
858.00,51.998
859.00,51.950
860.00,51.961
861.00,51.948
862.00,51.915
863.00,51.916
864.00,51.895
865.00,51.894
866.00,51.903
867.00,51.916
868.00,51.900
869.00,51.832
870.00,51.995
871.00,51.838
872.00,51.838
873.00,51.822
874.00,51.815
875.00,51.793
876.00,51.785
877.00,51.780
878.00,51.782
879.00,51.766
880.00,51.742
881.00,51.722
882.00,51.736
883.00,51.713
884.00,51.659
885.00,51.655
886.00,51.648
887.00,51.638
888.00,51.610
889.00,51.591
890.00,51.568
891.00,51.545
892.00,51.547
893.00,51.534
894.00,51.520
895.00,51.428
896.00,51.490
897.00,51.460
898.00,51.419
899.00,51.419
900.00,51.413
901.00,51.425
902.00,51.408
903.00,51.370
904.00,51.362
905.00,51.331
906.00,51.337
907.00,51.294
908.00,51.282
909.00,51.258
910.00,51.241
911.00,51.228
912.00,51.232
913.00,51.168
914.00,51.169
915.00,51.135
916.00,51.120
917.00,51.090
918.00,51.079
919.00,51.059
920.00,51.020
921.00,51.012
922.00,51.004
923.00,50.986
924.00,50.947
925.00,50.953
926.00,50.954
927.00,50.927
928.00,50.901
929.00,50.884
930.00,50.860
931.00,50.842
932.00,50.814
933.00,50.837
934.00,50.821
935.00,50.771
936.00,50.755
937.00,50.747
938.00,50.755
939.00,50.717
940.00,50.689
941.00,50.680
942.00,50.652
943.00,50.641
944.00,50.612
945.00,50.603
946.00,50.582
947.00,50.549
948.00,50.525
949.00,50.522
950.00,50.496
951.00,50.470
952.00,50.456
953.00,50.443
954.00,50.411
955.00,50.382
956.00,50.369
957.00,50.433
958.00,50.359
959.00,50.295
960.00,50.290
961.00,50.291
962.00,50.259
963.00,50.226
964.00,50.227
965.00,50.202
966.00,50.200
967.00,50.192
968.00,50.180
969.00,50.199
970.00,50.181
971.00,50.188
972.00,50.159
973.00,50.184
974.00,50.210
975.00,50.182
976.00,50.177
977.00,50.175
978.00,50.198
979.00,50.166
980.00,50.193
981.00,50.180
982.00,50.178
983.00,50.175
984.00,50.144
985.00,50.171
986.00,50.142
987.00,50.141
988.00,50.120
989.00,50.113
990.00,50.100
991.00,50.078
992.00,50.090
993.00,50.067
994.00,50.047
995.00,50.034
996.00,50.036
997.00,50.014
998.00,50.006
999.00,50.020
1000.00,49.963
1001.00,49.972
1002.00,49.986
1003.00,49.944
1004.00,49.919
1005.00,49.897
1006.00,49.915
1007.00,49.893
1008.00,49.877
1009.00,49.850
1010.00,49.856
1011.00,49.833
1012.00,49.811
1013.00,49.816
1014.00,49.781
1015.00,49.796
1016.00,49.746
1017.00,49.744
1018.00,49.731
1019.00,49.703
1020.00,49.696
1021.00,49.670
1022.00,49.658
1023.00,49.629
1024.00,49.641
1025.00,49.614
1026.00,49.620
1027.00,49.583
1028.00,49.570
1029.00,49.577
1030.00,49.528
1031.00,49.522
1032.00,49.481
1033.00,49.489
1034.00,49.472
1035.00,49.433
1036.00,49.407
1037.00,49.404
1038.00,49.400
1039.00,49.358
1040.00,49.356
1041.00,49.318
1042.00,49.309
1043.00,49.294
1044.00,49.308
1045.00,49.291
1046.00,49.267
1047.00,49.278
1048.00,49.316
1049.00,49.307
1050.00,49.307
1051.00,49.349
1052.00,49.365
1053.00,49.355
1054.00,49.367
1055.00,49.377
1056.00,49.379
1057.00,49.390
1058.00,49.369
1059.00,49.375
1060.00,49.363
1061.00,49.355
1062.00,49.354
1063.00,49.348
1064.00,49.380
1065.00,49.348
1066.00,49.326
1067.00,49.322
1068.00,49.335
1069.00,49.296
1070.00,49.273
1071.00,49.271
1072.00,49.283
1073.00,49.263
1074.00,49.241
1075.00,49.233
1076.00,49.241
1077.00,49.219
1078.00,49.211
1079.00,49.210
1080.00,49.190
1081.00,49.188
1082.00,49.191
1083.00,49.169
1084.00,49.167
1085.00,49.164
1086.00,49.142
1087.00,49.148
1088.00,49.122
1089.00,49.111
1090.00,49.114
1091.00,49.121
1092.00,49.148
1093.00,49.112
1094.00,49.051
1095.00,49.062
1096.00,49.052
1097.00,49.037
1098.00,49.034
1099.00,49.022
1100.00,49.014
1101.00,49.006
1102.00,48.987
1103.00,48.987
1104.00,48.981
1105.00,48.955
1106.00,48.965
1107.00,48.938
1108.00,48.931
1109.00,48.929
1110.00,48.921
1111.00,48.918
1112.00,48.907
1113.00,48.887
1114.00,48.885
1115.00,48.890
1116.00,48.861
1117.00,48.859
1118.00,48.849
1119.00,48.840
1120.00,48.853
1121.00,48.825
1122.00,48.828
1123.00,48.815
1124.00,48.822
1125.00,48.847
1126.00,48.805
1127.00,48.790
1128.00,48.786
1129.00,48.765
1130.00,48.753
1131.00,48.750
1132.00,48.739
1133.00,48.734
1134.00,48.735
1135.00,48.704
1136.00,48.709
1137.00,48.719
1138.00,48.721
1139.00,48.757
1140.00,48.743
1141.00,48.696
1142.00,48.694
1143.00,48.690
1144.00,48.673
1145.00,48.673
1146.00,48.675
1147.00,48.664
1148.00,48.659
1149.00,48.656
1150.00,48.675
1151.00,48.660
1152.00,48.651
1153.00,48.660
1154.00,48.636
1155.00,48.643
1156.00,48.634
1157.00,48.632
1158.00,48.631
1159.00,48.610
1160.00,48.598
1161.00,48.613
1162.00,48.603
1163.00,48.596
1164.00,48.592
1165.00,48.588
1166.00,48.596
1167.00,48.592
1168.00,48.585
1169.00,48.596
1170.00,48.590
1171.00,48.558
1172.00,48.579
1173.00,48.573
1174.00,48.572
1175.00,48.578
1176.00,48.574
1177.00,48.556
1178.00,48.557
1179.00,48.569
1180.00,48.567
1181.00,48.576
1182.00,48.557
1183.00,48.561
1184.00,48.552
1185.00,48.567
1186.00,48.577
1187.00,48.541
1188.00,48.531
1189.00,48.524
1190.00,48.518
1191.00,48.522
1192.00,48.528
1193.00,48.524
1194.00,48.540
1195.00,48.515
1196.00,48.536
1197.00,48.543
1198.00,48.529
1199.00,48.513
1200.00,48.529
1201.00,48.554
1202.00,48.535
1203.00,48.522
1204.00,48.505
1205.00,48.534
1206.00,48.513
1207.00,48.507
1208.00,48.498
1209.00,48.502
1210.00,48.501
1211.00,48.498
1212.00,48.499
1213.00,48.477
1214.00,48.498
1215.00,48.468
1216.00,48.499
1217.00,48.479
1218.00,48.454
1219.00,48.482
1220.00,48.467
1221.00,48.482
1222.00,48.472
1223.00,48.495
1224.00,48.502
1225.00,48.481
1226.00,48.474
1227.00,48.482
1228.00,48.501
1229.00,48.494
1230.00,48.521
1231.00,48.512
1232.00,48.524
1233.00,48.537
1234.00,48.521
1235.00,48.527
1236.00,48.516
1237.00,48.507
1238.00,48.520
1239.00,48.516
1240.00,48.514
1241.00,48.534
1242.00,48.545
1243.00,48.534
1244.00,48.518
1245.00,48.523
1246.00,48.559
1247.00,48.556
1248.00,48.519
1249.00,48.547
1250.00,48.539
1251.00,48.540
1252.00,48.565
1253.00,48.539
1254.00,48.565
1255.00,48.568
1256.00,48.536
1257.00,48.533
1258.00,48.579
1259.00,48.563
1260.00,48.586
1261.00,48.582
1262.00,48.578
1263.00,48.572
1264.00,48.571
1265.00,48.581
1266.00,48.594
1267.00,48.588
1268.00,48.612
1269.00,48.600
1270.00,48.603
1271.00,48.614
1272.00,48.603
1273.00,48.611
1274.00,48.615
1275.00,48.621
1276.00,48.625
1277.00,48.623
1278.00,48.625
1279.00,48.631
1280.00,48.622
1281.00,48.620
1282.00,48.644
1283.00,48.623
1284.00,48.632
1285.00,48.627
1286.00,48.649
1287.00,48.645
1288.00,48.646
1289.00,48.634
1290.00,48.665
1291.00,48.668
1292.00,48.677
1293.00,48.690
1294.00,48.690
1295.00,48.683
1296.00,48.684
1297.00,48.692
1298.00,48.709
1299.00,48.704
1300.00,48.705
1301.00,48.718
1302.00,48.715
1303.00,48.700
1304.00,48.687
1305.00,48.711
1306.00,48.724
1307.00,48.748
1308.00,48.746
1309.00,48.751
1310.00,48.749
1311.00,48.727
1312.00,48.747
1313.00,48.757
1314.00,48.775
1315.00,48.798
1316.00,48.777
1317.00,48.796
1318.00,48.801
1319.00,48.788
1320.00,48.810
1321.00,48.956
1322.00,48.965
1323.00,48.938
1324.00,48.936
1325.00,48.928
1326.00,48.960
1327.00,48.955
1328.00,48.935
1329.00,48.955
1330.00,48.953
1331.00,48.947
1332.00,48.959
1333.00,48.957
1334.00,48.986
1335.00,49.009
1336.00,49.023
1337.00,49.058
1338.00,49.120
1339.00,49.153
1340.00,49.216
1341.00,49.264
1342.00,49.324
1343.00,49.388
1344.00,49.431
1345.00,49.492
1346.00,49.527
1347.00,49.556
1348.00,49.579
1349.00,49.630
1350.00,49.604
1351.00,49.632
1352.00,49.641
1353.00,49.612
1354.00,49.638
1355.00,49.616
1356.00,49.631
1357.00,49.646
1358.00,49.647
1359.00,49.664
1360.00,49.662
1361.00,49.616
1362.00,49.679
1363.00,49.688
1364.00,49.667
1365.00,49.670
1366.00,49.739
1367.00,49.795
1368.00,49.636
1369.00,49.621
1370.00,49.639
1371.00,49.603
1372.00,49.608
1373.00,49.635
1374.00,49.641
1375.00,49.612
1376.00,49.621
1377.00,49.611
1378.00,49.701
1379.00,49.634
1380.00,49.603
1381.00,49.618
1382.00,49.592
1383.00,49.587
1384.00,49.573
1385.00,49.548
1386.00,49.544
1387.00,49.567
1388.00,49.561
1389.00,49.585
1390.00,49.613
1391.00,49.575
1392.00,49.576
1393.00,49.605
1394.00,49.578
1395.00,49.566
1396.00,49.504
1397.00,49.622
1398.00,49.305
1399.00,49.613
1400.00,49.548
1401.00,49.560
1402.00,49.597
1403.00,49.604
1404.00,49.591
1405.00,49.615
1406.00,49.632
1407.00,49.657
1408.00,49.612
1409.00,49.630
1410.00,49.640
1411.00,49.643
1412.00,49.757
1413.00,49.847
1414.00,49.675
1415.00,49.693
1416.00,49.687
1417.00,49.722
1418.00,49.707
1419.00,49.684
1420.00,49.740
1421.00,49.773
1422.00,49.758
1423.00,49.761
1424.00,49.778
1425.00,49.794
1426.00,49.801
1427.00,49.811
1428.00,49.828
1429.00,49.830
1430.00,49.831
1431.00,49.861
1432.00,49.880
1433.00,49.880
1434.00,49.890
1435.00,49.923
1436.00,49.934
1437.00,49.933
1438.00,49.947
1439.00,49.980
1440.00,49.975
1441.00,49.961
1442.00,49.990
1443.00,50.008
1444.00,50.038
1445.00,50.021
1446.00,50.034
1447.00,50.062
1448.00,50.072
1449.00,50.111
1450.00,50.103
1451.00,50.114
1452.00,50.115
1453.00,50.153
1454.00,50.149
1455.00,50.180
1456.00,50.206
1457.00,50.201
1458.00,50.267
1459.00,50.259
1460.00,50.271
1461.00,50.282
1462.00,50.300
1463.00,50.294
1464.00,50.309
1465.00,50.322
1466.00,50.315
1467.00,50.348
1468.00,50.371
1469.00,50.367
1470.00,50.360
1471.00,50.389
1472.00,50.401
1473.00,50.426
1474.00,50.434
1475.00,50.441
1476.00,50.444
1477.00,50.441
1478.00,50.466
1479.00,50.474
1480.00,50.482
1481.00,50.489
1482.00,50.517
1483.00,50.537
1484.00,50.544
1485.00,50.547
1486.00,50.553
1487.00,50.574
1488.00,50.592
1489.00,50.601
1490.00,50.612
1491.00,50.630
1492.00,50.648
1493.00,50.635
1494.00,50.668
1495.00,50.674
1496.00,50.673
1497.00,50.682
1498.00,50.689
1499.00,50.708
1500.00,50.724
1501.00, 
1502.00, 
1503.00, 
1504.00, 
1505.00, 
1506.00, 
1507.00, 
1508.00, 
1509.00, 
1510.00, 
1511.00, 
1512.00, 
1513.00, 
1514.00, 
1515.00, 
1516.00, 
1517.00, 
1518.00, 
1519.00, 
1520.00, 
1521.00, 
1522.00, 
1523.00, 
1524.00, 
1525.00, 
1526.00, 
1527.00, 
1528.00, 
1529.00, 
1530.00, 
1531.00, 
1532.00, 
1533.00, 
1534.00, 
1535.00, 
1536.00, 
1537.00, 
1538.00, 
1539.00, 
1540.00, 
1541.00, 
1542.00, 
1543.00, 
1544.00, 
1545.00, 
1546.00, 
1547.00, 
1548.00, 
1549.00, 
1550.00, 
1551.00, 
1552.00, 
1553.00, 
1554.00, 
1555.00, 
1556.00, 
1557.00, 
1558.00, 
1559.00, 
1560.00, 
1561.00, 
1562.00, 
1563.00, 
1564.00, 
1565.00, 
1566.00, 
1567.00, 
1568.00, 
1569.00, 
1570.00, 
1571.00, 
1572.00, 
1573.00, 
1574.00, 
1575.00, 
1576.00, 
1577.00, 
1578.00, 
1579.00, 
1580.00, 
1581.00, 
1582.00, 
1583.00, 
1584.00, 
1585.00, 
1586.00, 
1587.00, 
1588.00, 
1589.00, 
1590.00, 
1591.00, 
1592.00, 
1593.00, 
1594.00, 
1595.00, 
1596.00, 
1597.00, 
1598.00, 
1599.00, 
1600.00, 
1601.00, 
1602.00, 
1603.00, 
1604.00, 
1605.00, 
1606.00, 
1607.00, 
1608.00, 
1609.00, 
1610.00, 
1611.00, 
1612.00, 
1613.00, 
1614.00, 
1615.00, 
1616.00, 
1617.00, 
1618.00, 
1619.00, 
1620.00, 
1621.00, 
1622.00, 
1623.00, 
1624.00, 
1625.00, 
1626.00, 
1627.00, 
1628.00, 
1629.00, 
1630.00, 
1631.00, 
1632.00, 
1633.00, 
1634.00, 
1635.00, 
1636.00, 
1637.00, 
1638.00, 
1639.00, 
1640.00, 
1641.00, 
1642.00, 
1643.00, 
1644.00, 
1645.00, 
1646.00, 
1647.00, 
1648.00, 
1649.00, 
1650.00, 
1651.00, 
1652.00, 
1653.00, 
1654.00, 
1655.00, 
1656.00, 
1657.00, 
1658.00, 
1659.00, 
1660.00, 
1661.00, 
1662.00, 
1663.00, 
1664.00, 
1665.00, 
1666.00, 
1667.00, 
1668.00, 
1669.00, 
1670.00, 
1671.00, 
1672.00, 
1673.00, 
1674.00, 
1675.00, 
1676.00, 
1677.00, 
1678.00, 
1679.00, 
1680.00, 
1681.00, 
1682.00, 
1683.00, 
1684.00, 
1685.00, 
1686.00, 
1687.00, 
1688.00, 
1689.00, 
1690.00, 
1691.00, 
1692.00, 
1693.00, 
1694.00, 
1695.00, 
1696.00, 
1697.00, 
1698.00, 
1699.00, 
1700.00, 
1701.00, 
1702.00, 
1703.00, 
1704.00, 
1705.00, 
1706.00, 
1707.00, 
1708.00, 
1709.00, 
1710.00, 
1711.00, 
1712.00, 
1713.00, 
1714.00, 
1715.00, 
1716.00, 
1717.00, 
1718.00, 
1719.00, 
1720.00, 
1721.00, 
1722.00, 
1723.00, 
1724.00, 
1725.00, 
1726.00, 
1727.00, 
1728.00, 
1729.00, 
1730.00, 
1731.00, 
1732.00, 
1733.00, 
1734.00, 
1735.00, 
1736.00, 
1737.00, 
1738.00, 
1739.00, 
1740.00, 
1741.00, 
1742.00, 
1743.00, 
1744.00, 
1745.00, 
1746.00, 
1747.00, 
1748.00, 
1749.00, 
1750.00, 
1751.00, 
1752.00, 
1753.00, 
1754.00, 
1755.00, 
1756.00, 
1757.00, 
1758.00, 
1759.00, 
1760.00, 
1761.00, 
1762.00, 
1763.00, 
1764.00, 
1765.00, 
1766.00, 
1767.00, 
1768.00, 
1769.00, 
1770.00, 
1771.00, 
1772.00, 
1773.00, 
1774.00, 
1775.00, 
1776.00, 
1777.00, 
1778.00, 
1779.00, 
1780.00, 
1781.00, 
1782.00, 
1783.00, 
1784.00, 
1785.00, 
1786.00, 
1787.00, 
1788.00, 
1789.00, 
1790.00, 
1791.00, 
1792.00, 
1793.00, 
1794.00, 
1795.00, 
1796.00, 
1797.00, 
1798.00, 
1799.00, 
1800.00, 
1801.00, 
1802.00, 
1803.00, 
1804.00, 
1805.00, 
1806.00, 
1807.00, 
1808.00, 
1809.00, 
1810.00, 
1811.00, 
1812.00, 
1813.00, 
1814.00, 
1815.00, 
1816.00, 
1817.00, 
1818.00, 
1819.00, 
1820.00, 
1821.00, 
1822.00, 
1823.00, 
1824.00, 
1825.00, 
1826.00, 
1827.00, 
1828.00, 
1829.00, 
1830.00, 
1831.00, 
1832.00, 
1833.00, 
1834.00, 
1835.00, 
1836.00, 
1837.00, 
1838.00, 
1839.00, 
1840.00, 
1841.00, 
1842.00, 
1843.00, 
1844.00, 
1845.00, 
1846.00, 
1847.00, 
1848.00, 
1849.00, 
1850.00, 
1851.00, 
1852.00, 
1853.00, 
1854.00, 
1855.00, 
1856.00, 
1857.00, 
1858.00, 
1859.00, 
1860.00, 
1861.00, 
1862.00, 
1863.00, 
1864.00, 
1865.00, 
1866.00, 
1867.00, 
1868.00, 
1869.00, 
1870.00, 
1871.00, 
1872.00, 
1873.00, 
1874.00, 
1875.00, 
1876.00, 
1877.00, 
1878.00, 
1879.00, 
1880.00, 
1881.00, 
1882.00, 
1883.00, 
1884.00, 
1885.00, 
1886.00, 
1887.00, 
1888.00, 
1889.00, 
1890.00, 
1891.00, 
1892.00, 
1893.00, 
1894.00, 
1895.00, 
1896.00, 
1897.00, 
1898.00, 
1899.00, 
1900.00, 
1901.00, 
1902.00, 
1903.00, 
1904.00, 
1905.00, 
1906.00, 
1907.00, 
1908.00, 
1909.00, 
1910.00, 
1911.00, 
1912.00, 
1913.00, 
1914.00, 
1915.00, 
1916.00, 
1917.00, 
1918.00, 
1919.00, 
1920.00, 
1921.00, 
1922.00, 
1923.00, 
1924.00, 
1925.00, 
1926.00, 
1927.00, 
1928.00, 
1929.00, 
1930.00, 
1931.00, 
1932.00, 
1933.00, 
1934.00, 
1935.00, 
1936.00, 
1937.00, 
1938.00, 
1939.00, 
1940.00, 
1941.00, 
1942.00, 
1943.00, 
1944.00, 
1945.00, 
1946.00, 
1947.00, 
1948.00, 
1949.00, 
1950.00, 
1951.00, 
1952.00, 
1953.00, 
1954.00, 
1955.00, 
1956.00, 
1957.00, 
1958.00, 
1959.00, 
1960.00, 
1961.00, 
1962.00, 
1963.00, 
1964.00, 
1965.00, 
1966.00, 
1967.00, 
1968.00, 
1969.00, 
1970.00, 
1971.00, 
1972.00, 
1973.00, 
1974.00, 
1975.00, 
1976.00, 
1977.00, 
1978.00, 
1979.00, 
1980.00, 
1981.00, 
1982.00, 
1983.00, 
1984.00, 
1985.00, 
1986.00, 
1987.00, 
1988.00, 
1989.00, 
1990.00, 
1991.00, 
1992.00, 
1993.00, 
1994.00, 
1995.00, 
1996.00, 
1997.00, 
1998.00, 
1999.00, 
2000.00, 
2001.00, 
2002.00, 
2003.00, 
2004.00, 
2005.00, 
2006.00, 
2007.00, 
2008.00, 
2009.00, 
2010.00, 
2011.00, 
2012.00, 
2013.00, 
2014.00, 
2015.00, 
2016.00, 
2017.00, 
2018.00, 
2019.00, 
2020.00, 
2021.00, 
2022.00, 
2023.00, 
2024.00, 
2025.00, 
2026.00, 
2027.00, 
2028.00, 
2029.00, 
2030.00, 
2031.00, 
2032.00, 
2033.00, 
2034.00, 
2035.00, 
2036.00, 
2037.00, 
2038.00, 
2039.00, 
2040.00, 
2041.00, 
2042.00, 
2043.00, 
2044.00, 
2045.00, 
2046.00, 
2047.00, 
2048.00, 
2049.00, 
2050.00, 
2051.00, 
2052.00, 
2053.00, 
2054.00, 
2055.00, 
2056.00, 
2057.00, 
2058.00, 
2059.00, 
2060.00, 
2061.00, 
2062.00, 
2063.00, 
2064.00, 
2065.00, 
2066.00, 
2067.00, 
2068.00, 
2069.00, 
2070.00, 
2071.00, 
2072.00, 
2073.00, 
2074.00, 
2075.00, 
2076.00, 
2077.00, 
2078.00, 
2079.00, 
2080.00, 
2081.00, 
2082.00, 
2083.00, 
2084.00, 
2085.00, 
2086.00, 
2087.00, 
2088.00, 
2089.00, 
2090.00, 
2091.00, 
2092.00, 
2093.00, 
2094.00, 
2095.00, 
2096.00, 
2097.00, 
2098.00, 
2099.00, 
2100.00, 
2101.00, 
2102.00, 
2103.00, 
2104.00, 
2105.00, 
2106.00, 
2107.00, 
2108.00, 
2109.00, 
2110.00, 
2111.00, 
2112.00, 
2113.00, 
2114.00, 
2115.00, 
2116.00, 
2117.00, 
2118.00, 
2119.00, 
2120.00, 
2121.00, 
2122.00, 
2123.00, 
2124.00, 
2125.00, 
2126.00, 
2127.00, 
2128.00, 
2129.00, 
2130.00, 
2131.00, 
2132.00, 
2133.00, 
2134.00, 
2135.00, 
2136.00, 
2137.00, 
2138.00, 
2139.00, 
2140.00, 
2141.00, 
2142.00, 
2143.00, 
2144.00, 
2145.00, 
2146.00, 
2147.00, 
2148.00, 
2149.00, 
2150.00, 
2151.00, 
2152.00, 
2153.00, 
2154.00, 
2155.00, 
2156.00, 
2157.00, 
2158.00, 
2159.00, 
2160.00, 
2161.00, 
2162.00, 
2163.00, 
2164.00, 
2165.00, 
2166.00, 
2167.00, 
2168.00, 
2169.00, 
2170.00, 
2171.00, 
2172.00, 
2173.00, 
2174.00, 
2175.00, 
2176.00, 
2177.00, 
2178.00, 
2179.00, 
2180.00, 
2181.00, 
2182.00, 
2183.00, 
2184.00, 
2185.00, 
2186.00, 
2187.00, 
2188.00, 
2189.00, 
2190.00, 
2191.00, 
2192.00, 
2193.00, 
2194.00, 
2195.00, 
2196.00, 
2197.00, 
2198.00, 
2199.00, 
2200.00, 
2201.00, 
2202.00, 
2203.00, 
2204.00, 
2205.00, 
2206.00, 
2207.00, 
2208.00, 
2209.00, 
2210.00, 
2211.00, 
2212.00, 
2213.00, 
2214.00, 
2215.00, 
2216.00, 
2217.00, 
2218.00, 
2219.00, 
2220.00, 
2221.00, 
2222.00, 
2223.00, 
2224.00, 
2225.00, 
2226.00, 
2227.00, 
2228.00, 
2229.00, 
2230.00, 
2231.00, 
2232.00, 
2233.00, 
2234.00, 
2235.00, 
2236.00, 
2237.00, 
2238.00, 
2239.00, 
2240.00, 
2241.00, 
2242.00, 
2243.00, 
2244.00, 
2245.00, 
2246.00, 
2247.00, 
2248.00, 
2249.00, 
2250.00, 
2251.00, 
2252.00, 
2253.00, 
2254.00, 
2255.00, 
2256.00, 
2257.00, 
2258.00, 
2259.00, 
2260.00, 
2261.00, 
2262.00, 
2263.00, 
2264.00, 
2265.00, 
2266.00, 
2267.00, 
2268.00, 
2269.00, 
2270.00, 
2271.00, 
2272.00, 
2273.00, 
2274.00, 
2275.00, 
2276.00, 
2277.00, 
2278.00, 
2279.00, 
2280.00, 
2281.00, 
2282.00, 
2283.00, 
2284.00, 
2285.00, 
2286.00, 
2287.00, 
2288.00, 
2289.00, 
2290.00, 
2291.00, 
2292.00, 
2293.00, 
2294.00, 
2295.00, 
2296.00, 
2297.00, 
2298.00, 
2299.00, 
2300.00, 
2301.00, 
2302.00, 
2303.00, 
2304.00, 
2305.00, 
2306.00, 
2307.00, 
2308.00, 
2309.00, 
2310.00, 
2311.00, 
2312.00, 
2313.00, 
2314.00, 
2315.00, 
2316.00, 
2317.00, 
2318.00, 
2319.00, 
2320.00, 
2321.00, 
2322.00, 
2323.00, 
2324.00, 
2325.00, 
2326.00, 
2327.00, 
2328.00, 
2329.00, 
2330.00, 
2331.00, 
2332.00, 
2333.00, 
2334.00, 
2335.00, 
2336.00, 
2337.00, 
2338.00, 
2339.00, 
2340.00, 
2341.00, 
2342.00, 
2343.00, 
2344.00, 
2345.00, 
2346.00, 
2347.00, 
2348.00, 
2349.00, 
2350.00, 
2351.00, 
2352.00, 
2353.00, 
2354.00, 
2355.00, 
2356.00, 
2357.00, 
2358.00, 
2359.00, 
2360.00, 
2361.00, 
2362.00, 
2363.00, 
2364.00, 
2365.00, 
2366.00, 
2367.00, 
2368.00, 
2369.00, 
2370.00, 
2371.00, 
2372.00, 
2373.00, 
2374.00, 
2375.00, 
2376.00, 
2377.00, 
2378.00, 
2379.00, 
2380.00, 
2381.00, 
2382.00, 
2383.00, 
2384.00, 
2385.00, 
2386.00, 
2387.00, 
2388.00, 
2389.00, 
2390.00, 
2391.00, 
2392.00, 
2393.00, 
2394.00, 
2395.00, 
2396.00, 
2397.00, 
2398.00, 
2399.00, 
2400.00, 
2401.00, 
2402.00, 
2403.00, 
2404.00, 
2405.00, 
2406.00, 
2407.00, 
2408.00, 
2409.00, 
2410.00, 
2411.00, 
2412.00, 
2413.00, 
2414.00, 
2415.00, 
2416.00, 
2417.00, 
2418.00, 
2419.00, 
2420.00, 
2421.00, 
2422.00, 
2423.00, 
2424.00, 
2425.00, 
2426.00, 
2427.00, 
2428.00, 
2429.00, 
2430.00, 
2431.00, 
2432.00, 
2433.00, 
2434.00, 
2435.00, 
2436.00, 
2437.00, 
2438.00, 
2439.00, 
2440.00, 
2441.00, 
2442.00, 
2443.00, 
2444.00, 
2445.00, 
2446.00, 
2447.00, 
2448.00, 
2449.00, 
2450.00, 
2451.00, 
2452.00, 
2453.00, 
2454.00, 
2455.00, 
2456.00, 
2457.00, 
2458.00, 
2459.00, 
2460.00, 
2461.00, 
2462.00, 
2463.00, 
2464.00, 
2465.00, 
2466.00, 
2467.00, 
2468.00, 
2469.00, 
2470.00, 
2471.00, 
2472.00, 
2473.00, 
2474.00, 
2475.00, 
2476.00, 
2477.00, 
2478.00, 
2479.00, 
2480.00, 
2481.00, 
2482.00, 
2483.00, 
2484.00, 
2485.00, 
2486.00, 
2487.00, 
2488.00, 
2489.00, 
2490.00, 
2491.00, 
2492.00, 
2493.00, 
2494.00, 
2495.00, 
2496.00, 
2497.00, 
2498.00, 
2499.00, 
2500.00, 
2501.00, 
2502.00, 
2503.00, 
2504.00, 
2505.00, 
2506.00, 
2507.00, 
2508.00, 
2509.00, 
2510.00, 
2511.00, 
2512.00, 
2513.00, 
2514.00, 
2515.00, 
2516.00, 
2517.00, 
2518.00, 
2519.00, 
2520.00, 
2521.00, 
2522.00, 
2523.00, 
2524.00, 
2525.00, 
2526.00, 
2527.00, 
2528.00, 
2529.00, 
2530.00, 
2531.00, 
2532.00, 
2533.00, 
2534.00, 
2535.00, 
2536.00, 
2537.00, 
2538.00, 
2539.00, 
2540.00, 
2541.00, 
2542.00, 
2543.00, 
2544.00, 
2545.00, 
2546.00, 
2547.00, 
2548.00, 
2549.00, 
2550.00, 
2551.00, 
2552.00, 
2553.00, 
2554.00, 
2555.00, 
2556.00, 
2557.00, 
2558.00, 
2559.00, 
2560.00, 
2561.00, 
2562.00, 
2563.00, 
2564.00, 
2565.00, 
2566.00, 
2567.00, 
2568.00, 
2569.00, 
2570.00, 
2571.00, 
2572.00, 
2573.00, 
2574.00, 
2575.00, 
2576.00, 
2577.00, 
2578.00, 
2579.00, 
2580.00, 
2581.00, 
2582.00, 
2583.00, 
2584.00, 
2585.00, 
2586.00, 
2587.00, 
2588.00, 
2589.00, 
2590.00, 
2591.00, 
2592.00, 
2593.00, 
2594.00, 
2595.00, 
2596.00, 
2597.00, 
2598.00, 
2599.00, 
2600.00, 
