"2cP4 - RawData"
"Wavelength nm.","T%"
200.00,0.003
201.00,-0.004
202.00,0.003
203.00,0.001
204.00,0.003
205.00,0.000
206.00,0.002
207.00,0.002
208.00,0.002
209.00,0.002
210.00,-0.001
211.00,0.001
212.00,0.001
213.00,0.002
214.00,-0.001
215.00,0.001
216.00,0.001
217.00,0.003
218.00,0.001
219.00,0.000
220.00,-0.001
221.00,-0.000
222.00,0.003
223.00,0.001
224.00,-0.001
225.00,0.000
226.00,-0.000
227.00,-0.001
228.00,0.001
229.00,0.000
230.00,-0.000
231.00,0.000
232.00,-0.000
233.00,0.002
234.00,0.001
235.00,0.001
236.00,-0.000
237.00,-0.001
238.00,0.000
239.00,-0.001
240.00,0.001
241.00,0.000
242.00,0.001
243.00,0.001
244.00,-0.000
245.00,0.001
246.00,0.002
247.00,0.002
248.00,0.002
249.00,0.001
250.00,-0.000
251.00,-0.001
252.00,0.001
253.00,0.001
254.00,-0.000
255.00,-0.001
256.00,-0.001
257.00,0.000
258.00,0.002
259.00,-0.001
260.00,0.002
261.00,0.000
262.00,0.001
263.00,-0.001
264.00,-0.001
265.00,0.001
266.00,0.001
267.00,-0.001
268.00,0.001
269.00,0.001
270.00,0.001
271.00,-0.000
272.00,-0.001
273.00,-0.000
274.00,0.001
275.00,0.000
276.00,0.000
277.00,-0.000
278.00,0.000
279.00,0.002
280.00,0.000
281.00,0.000
282.00,0.000
283.00,0.001
284.00,0.000
285.00,-0.001
286.00,0.001
287.00,0.001
288.00,0.000
289.00,0.001
290.00,0.000
291.00,-0.000
292.00,-0.001
293.00,0.000
294.00,0.001
295.00,0.001
296.00,0.002
297.00,-0.001
298.00,0.000
299.00,0.000
300.00,0.001
301.00,0.003
302.00,0.004
303.00,0.007
304.00,0.009
305.00,0.013
306.00,0.022
307.00,0.032
308.00,0.050
309.00,0.074
310.00,0.106
311.00,0.142
312.00,0.194
313.00,0.266
314.00,0.343
315.00,0.448
316.00,0.577
317.00,0.723
318.00,0.892
319.00,1.087
320.00,1.337
321.00,1.598
322.00,1.887
323.00,2.223
324.00,2.574
325.00,2.924
326.00,3.295
327.00,3.716
328.00,4.148
329.00,4.598
330.00,5.055
331.00,5.497
332.00,5.985
333.00,6.488
334.00,6.955
335.00,7.428
336.00,7.915
337.00,8.402
338.00,8.859
339.00,9.307
340.00,9.733
341.00,10.169
342.00,10.579
343.00,10.941
344.00,11.356
345.00,11.712
346.00,12.046
347.00,12.352
348.00,12.651
349.00,12.955
350.00,13.192
351.00,13.414
352.00,13.651
353.00,13.785
354.00,14.060
355.00,14.247
356.00,14.419
357.00,14.519
358.00,14.703
359.00,14.850
360.00,14.978
361.00,15.080
362.00,15.199
363.00,15.308
364.00,15.309
365.00,15.376
366.00,15.443
367.00,15.504
368.00,15.501
369.00,15.519
370.00,15.513
371.00,15.533
372.00,15.470
373.00,15.525
374.00,15.514
375.00,15.460
376.00,15.461
377.00,15.429
378.00,15.308
379.00,15.316
380.00,15.260
381.00,15.220
382.00,15.190
383.00,15.204
384.00,15.210
385.00,15.215
386.00,15.184
387.00,15.232
388.00,15.243
389.00,15.241
390.00,15.254
391.00,15.217
392.00,15.239
393.00,15.197
394.00,15.235
395.00,15.239
396.00,15.203
397.00,15.209
398.00,15.181
399.00,15.182
400.00,15.164
401.00,15.156
402.00,15.183
403.00,15.178
404.00,15.204
405.00,15.176
406.00,15.167
407.00,15.143
408.00,15.147
409.00,15.119
410.00,15.094
411.00,15.072
412.00,15.065
413.00,15.060
414.00,15.041
415.00,15.047
416.00,15.089
417.00,15.062
418.00,15.077
419.00,15.148
420.00,15.181
421.00,15.142
422.00,15.202
423.00,15.208
424.00,15.264
425.00,15.285
426.00,15.314
427.00,15.384
428.00,15.403
429.00,15.440
430.00,15.470
431.00,15.534
432.00,15.594
433.00,15.662
434.00,15.687
435.00,15.738
436.00,15.829
437.00,15.882
438.00,15.947
439.00,16.022
440.00,16.096
441.00,16.176
442.00,16.240
443.00,16.323
444.00,16.421
445.00,16.511
446.00,16.583
447.00,16.664
448.00,16.776
449.00,16.872
450.00,16.988
451.00,17.062
452.00,17.180
453.00,17.262
454.00,17.392
455.00,17.498
456.00,17.616
457.00,17.712
458.00,17.827
459.00,17.941
460.00,18.095
461.00,18.257
462.00,18.313
463.00,18.480
464.00,18.613
465.00,18.714
466.00,18.886
467.00,18.994
468.00,19.131
469.00,19.239
470.00,19.340
471.00,19.456
472.00,19.566
473.00,19.674
474.00,19.814
475.00,19.933
476.00,20.044
477.00,20.195
478.00,20.347
479.00,20.500
480.00,20.652
481.00,20.792
482.00,20.930
483.00,21.096
484.00,21.271
485.00,21.412
486.00,21.573
487.00,21.697
488.00,21.839
489.00,22.015
490.00,22.153
491.00,22.291
492.00,22.439
493.00,22.627
494.00,22.791
495.00,22.871
496.00,23.029
497.00,23.132
498.00,23.285
499.00,23.438
500.00,23.614
501.00,23.710
502.00,23.886
503.00,24.025
504.00,24.073
505.00,24.210
506.00,24.388
507.00,24.509
508.00,24.627
509.00,24.805
510.00,24.937
511.00,25.016
512.00,25.194
513.00,25.325
514.00,25.436
515.00,25.625
516.00,25.766
517.00,25.788
518.00,25.923
519.00,26.016
520.00,26.065
521.00,26.292
522.00,26.408
523.00,26.421
524.00,26.554
525.00,26.699
526.00,26.805
527.00,26.849
528.00,26.983
529.00,27.120
530.00,27.241
531.00,27.376
532.00,27.471
533.00,27.605
534.00,27.672
535.00,27.747
536.00,27.830
537.00,27.987
538.00,27.994
539.00,28.100
540.00,28.228
541.00,28.252
542.00,28.324
543.00,28.412
544.00,28.508
545.00,28.616
546.00,28.673
547.00,28.776
548.00,28.860
549.00,28.907
550.00,28.996
551.00,29.110
552.00,29.149
553.00,29.212
554.00,29.291
555.00,29.353
556.00,29.427
557.00,29.513
558.00,29.564
559.00,29.658
560.00,29.711
561.00,29.759
562.00,29.846
563.00,29.867
564.00,29.978
565.00,30.026
566.00,29.996
567.00,30.031
568.00,30.134
569.00,30.140
570.00,30.279
571.00,30.309
572.00,30.364
573.00,30.335
574.00,30.395
575.00,30.447
576.00,30.440
577.00,30.555
578.00,30.653
579.00,30.712
580.00,30.782
581.00,30.891
582.00,30.985
583.00,30.982
584.00,31.074
585.00,31.146
586.00,31.184
587.00,31.273
588.00,31.268
589.00,31.273
590.00,31.419
591.00,31.464
592.00,31.466
593.00,31.515
594.00,31.613
595.00,31.660
596.00,31.772
597.00,31.868
598.00,31.930
599.00,31.943
600.00,31.991
601.00,32.001
602.00,31.995
603.00,32.095
604.00,32.135
605.00,32.233
606.00,32.319
607.00,32.295
608.00,32.334
609.00,32.460
610.00,32.599
611.00,32.500
612.00,32.584
613.00,32.623
614.00,32.702
615.00,32.791
616.00,32.961
617.00,32.880
618.00,32.938
619.00,33.035
620.00,33.087
621.00,33.183
622.00,33.281
623.00,33.344
624.00,33.432
625.00,33.526
626.00,33.573
627.00,33.686
628.00,33.791
629.00,33.770
630.00,33.861
631.00,33.978
632.00,34.096
633.00,34.178
634.00,34.275
635.00,34.415
636.00,34.455
637.00,34.524
638.00,34.574
639.00,34.777
640.00,34.806
641.00,34.876
642.00,35.026
643.00,35.045
644.00,35.149
645.00,35.255
646.00,35.449
647.00,35.482
648.00,35.584
649.00,35.646
650.00,35.775
651.00,35.951
652.00,36.020
653.00,36.011
654.00,36.098
655.00,36.440
656.00,36.659
657.00,36.592
658.00,36.696
659.00,36.779
660.00,36.944
661.00,37.075
662.00,37.096
663.00,37.223
664.00,37.425
665.00,37.675
666.00,37.673
667.00,37.660
668.00,37.686
669.00,37.998
670.00,38.327
671.00,38.260
672.00,38.398
673.00,38.474
674.00,38.627
675.00,38.713
676.00,38.882
677.00,39.155
678.00,38.954
679.00,39.154
680.00,39.455
681.00,39.616
682.00,39.739
683.00,39.689
684.00,39.902
685.00,39.917
686.00,40.129
687.00,40.396
688.00,40.307
689.00,40.305
690.00,40.678
691.00,40.934
692.00,40.894
693.00,40.980
694.00,41.243
695.00,41.334
696.00,41.431
697.00,41.426
698.00,41.586
699.00,41.881
700.00,42.082
701.00,41.950
702.00,42.153
703.00,42.373
704.00,42.447
705.00,42.431
706.00,42.578
707.00,42.774
708.00,42.659
709.00,43.043
710.00,43.480
711.00,43.102
712.00,43.166
713.00,43.472
714.00,43.538
715.00,43.569
716.00,43.588
717.00,43.868
718.00,44.024
719.00,44.058
720.00,44.250
721.00,48.511
722.00,48.539
723.00,48.586
724.00,48.683
725.00,48.763
726.00,48.781
727.00,48.862
728.00,48.896
729.00,48.966
730.00,49.056
731.00,49.147
732.00,49.232
733.00,49.318
734.00,49.366
735.00,49.408
736.00,49.440
737.00,49.501
738.00,49.640
739.00,49.632
740.00,49.738
741.00,49.763
742.00,49.846
743.00,49.893
744.00,49.895
745.00,49.999
746.00,50.052
747.00,50.067
748.00,50.113
749.00,50.098
750.00,50.227
751.00,50.168
752.00,50.244
753.00,50.273
754.00,50.317
755.00,50.411
756.00,50.398
757.00,50.433
758.00,50.539
759.00,50.552
760.00,50.603
761.00,50.687
762.00,50.661
763.00,50.683
764.00,50.719
765.00,50.822
766.00,50.719
767.00,50.902
768.00,50.907
769.00,50.930
770.00,51.013
771.00,51.008
772.00,51.016
773.00,51.067
774.00,51.104
775.00,51.155
776.00,51.214
777.00,51.255
778.00,51.297
779.00,51.321
780.00,51.260
781.00,51.362
782.00,51.309
783.00,51.327
784.00,51.319
785.00,51.288
786.00,51.398
787.00,51.429
788.00,51.429
789.00,51.411
790.00,51.368
791.00,51.515
792.00,51.420
793.00,51.392
794.00,51.424
795.00,51.439
796.00,51.505
797.00,51.416
798.00,51.514
799.00,51.479
800.00,51.477
801.00,51.473
802.00,51.519
803.00,51.486
804.00,51.404
805.00,51.487
806.00,51.500
807.00,51.493
808.00,51.481
809.00,51.474
810.00,51.507
811.00,51.495
812.00,51.520
813.00,51.457
814.00,51.478
815.00,51.481
816.00,51.424
817.00,51.551
818.00,51.435
819.00,51.452
820.00,51.477
821.00,51.446
822.00,51.526
823.00,51.450
824.00,51.450
825.00,51.442
826.00,51.502
827.00,51.482
828.00,51.414
829.00,51.387
830.00,51.404
831.00,53.578
832.00,53.521
833.00,53.526
834.00,53.544
835.00,53.465
836.00,53.518
837.00,53.472
838.00,53.476
839.00,53.486
840.00,53.431
841.00,53.433
842.00,53.425
843.00,53.444
844.00,53.374
845.00,53.404
846.00,53.408
847.00,53.433
848.00,53.414
849.00,53.361
850.00,53.332
851.00,53.269
852.00,53.263
853.00,53.232
854.00,53.216
855.00,53.171
856.00,53.134
857.00,53.288
858.00,53.133
859.00,53.107
860.00,53.131
861.00,53.106
862.00,53.084
863.00,53.096
864.00,53.055
865.00,53.087
866.00,53.077
867.00,53.112
868.00,53.055
869.00,53.057
870.00,53.041
871.00,53.011
872.00,53.028
873.00,53.006
874.00,53.001
875.00,53.004
876.00,52.986
877.00,53.003
878.00,52.962
879.00,52.960
880.00,52.955
881.00,52.935
882.00,52.936
883.00,52.915
884.00,52.894
885.00,52.870
886.00,52.810
887.00,52.872
888.00,52.830
889.00,52.814
890.00,52.771
891.00,52.774
892.00,52.775
893.00,52.767
894.00,52.749
895.00,52.722
896.00,52.714
897.00,52.695
898.00,52.665
899.00,52.681
900.00,52.662
901.00,52.784
902.00,52.655
903.00,52.620
904.00,52.605
905.00,52.596
906.00,52.592
907.00,52.560
908.00,52.538
909.00,52.518
910.00,52.516
911.00,52.479
912.00,52.491
913.00,52.455
914.00,52.468
915.00,52.429
916.00,52.406
917.00,52.386
918.00,52.381
919.00,52.355
920.00,52.341
921.00,52.304
922.00,52.286
923.00,52.282
924.00,52.241
925.00,52.257
926.00,52.240
927.00,52.236
928.00,52.215
929.00,52.183
930.00,52.152
931.00,52.178
932.00,52.118
933.00,52.139
934.00,52.106
935.00,52.084
936.00,52.087
937.00,52.047
938.00,52.044
939.00,52.040
940.00,51.997
941.00,51.997
942.00,52.044
943.00,51.980
944.00,51.948
945.00,51.954
946.00,51.921
947.00,51.901
948.00,51.872
949.00,51.857
950.00,51.845
951.00,51.800
952.00,51.794
953.00,51.772
954.00,51.726
955.00,51.714
956.00,51.704
957.00,51.694
958.00,51.668
959.00,51.616
960.00,51.617
961.00,51.616
962.00,51.601
963.00,51.564
964.00,51.570
965.00,51.541
966.00,51.550
967.00,51.545
968.00,51.528
969.00,51.549
970.00,51.524
971.00,51.534
972.00,51.509
973.00,51.524
974.00,51.552
975.00,51.532
976.00,51.520
977.00,51.501
978.00,51.553
979.00,51.499
980.00,51.543
981.00,51.538
982.00,51.530
983.00,51.544
984.00,51.497
985.00,51.514
986.00,51.484
987.00,51.490
988.00,51.462
989.00,51.461
990.00,51.460
991.00,51.445
992.00,51.456
993.00,51.429
994.00,51.408
995.00,51.385
996.00,51.394
997.00,51.379
998.00,51.354
999.00,51.370
1000.00,51.325
1001.00,51.337
1002.00,51.320
1003.00,51.305
1004.00,51.329
1005.00,51.273
1006.00,51.286
1007.00,51.258
1008.00,51.245
1009.00,51.225
1010.00,51.225
1011.00,51.215
1012.00,51.190
1013.00,51.194
1014.00,51.156
1015.00,51.166
1016.00,51.131
1017.00,51.114
1018.00,51.086
1019.00,51.084
1020.00,51.069
1021.00,51.054
1022.00,51.044
1023.00,51.009
1024.00,51.025
1025.00,50.994
1026.00,50.991
1027.00,50.958
1028.00,50.955
1029.00,50.949
1030.00,50.915
1031.00,50.917
1032.00,50.882
1033.00,50.879
1034.00,50.856
1035.00,50.826
1036.00,50.790
1037.00,50.775
1038.00,50.773
1039.00,50.741
1040.00,50.739
1041.00,50.713
1042.00,50.704
1043.00,50.685
1044.00,50.704
1045.00,50.678
1046.00,50.663
1047.00,50.669
1048.00,50.697
1049.00,50.702
1050.00,50.698
1051.00,50.732
1052.00,50.746
1053.00,50.735
1054.00,50.727
1055.00,50.751
1056.00,50.757
1057.00,50.774
1058.00,50.753
1059.00,50.747
1060.00,50.747
1061.00,50.731
1062.00,50.738
1063.00,50.753
1064.00,50.747
1065.00,50.759
1066.00,50.718
1067.00,50.708
1068.00,50.714
1069.00,50.675
1070.00,50.656
1071.00,50.649
1072.00,50.657
1073.00,50.640
1074.00,50.629
1075.00,50.614
1076.00,50.630
1077.00,50.616
1078.00,50.584
1079.00,50.607
1080.00,50.601
1081.00,50.565
1082.00,50.579
1083.00,50.561
1084.00,50.564
1085.00,50.557
1086.00,50.551
1087.00,50.542
1088.00,50.513
1089.00,50.495
1090.00,50.516
1091.00,50.502
1092.00,50.485
1093.00,50.469
1094.00,50.452
1095.00,50.461
1096.00,50.460
1097.00,50.442
1098.00,50.431
1099.00,50.417
1100.00,50.424
1101.00,50.404
1102.00,50.394
1103.00,50.386
1104.00,50.378
1105.00,50.355
1106.00,50.356
1107.00,50.339
1108.00,50.333
1109.00,50.338
1110.00,50.332
1111.00,50.310
1112.00,50.310
1113.00,50.294
1114.00,50.284
1115.00,50.294
1116.00,50.272
1117.00,50.261
1118.00,50.247
1119.00,50.238
1120.00,50.238
1121.00,50.221
1122.00,50.213
1123.00,50.215
1124.00,50.211
1125.00,50.226
1126.00,50.242
1127.00,50.197
1128.00,50.192
1129.00,50.179
1130.00,50.167
1131.00,50.168
1132.00,50.149
1133.00,50.144
1134.00,50.150
1135.00,50.131
1136.00,50.135
1137.00,50.126
1138.00,50.127
1139.00,50.153
1140.00,50.156
1141.00,50.134
1142.00,50.082
1143.00,50.103
1144.00,50.074
1145.00,50.085
1146.00,50.080
1147.00,50.073
1148.00,50.071
1149.00,50.059
1150.00,50.060
1151.00,50.054
1152.00,50.039
1153.00,50.039
1154.00,50.025
1155.00,50.030
1156.00,50.032
1157.00,50.038
1158.00,50.037
1159.00,50.034
1160.00,50.020
1161.00,50.027
1162.00,50.015
1163.00,50.003
1164.00,49.997
1165.00,49.988
1166.00,49.997
1167.00,49.993
1168.00,49.996
1169.00,49.996
1170.00,50.008
1171.00,49.977
1172.00,49.990
1173.00,49.990
1174.00,49.988
1175.00,49.989
1176.00,49.986
1177.00,49.972
1178.00,49.975
1179.00,49.981
1180.00,49.960
1181.00,49.980
1182.00,49.963
1183.00,49.942
1184.00,49.965
1185.00,49.950
1186.00,49.951
1187.00,49.978
1188.00,49.955
1189.00,49.963
1190.00,49.950
1191.00,49.938
1192.00,49.959
1193.00,49.944
1194.00,49.958
1195.00,49.932
1196.00,49.949
1197.00,49.949
1198.00,49.922
1199.00,49.919
1200.00,49.931
1201.00,49.950
1202.00,49.932
1203.00,49.931
1204.00,49.907
1205.00,49.926
1206.00,49.920
1207.00,49.904
1208.00,49.898
1209.00,49.909
1210.00,49.900
1211.00,49.904
1212.00,49.911
1213.00,49.882
1214.00,49.912
1215.00,49.882
1216.00,49.901
1217.00,49.904
1218.00,49.878
1219.00,49.904
1220.00,49.888
1221.00,49.895
1222.00,49.890
1223.00,49.905
1224.00,49.895
1225.00,49.882
1226.00,49.868
1227.00,49.873
1228.00,49.909
1229.00,49.901
1230.00,49.928
1231.00,49.936
1232.00,49.958
1233.00,49.978
1234.00,49.947
1235.00,49.949
1236.00,49.956
1237.00,49.942
1238.00,49.954
1239.00,49.954
1240.00,49.933
1241.00,49.949
1242.00,49.953
1243.00,49.969
1244.00,49.946
1245.00,49.963
1246.00,49.996
1247.00,49.976
1248.00,49.959
1249.00,49.977
1250.00,49.987
1251.00,49.968
1252.00,49.981
1253.00,49.966
1254.00,49.984
1255.00,49.990
1256.00,49.957
1257.00,49.951
1258.00,50.020
1259.00,49.996
1260.00,50.021
1261.00,50.018
1262.00,50.001
1263.00,49.999
1264.00,50.002
1265.00,50.002
1266.00,50.012
1267.00,50.005
1268.00,50.017
1269.00,50.011
1270.00,50.019
1271.00,50.034
1272.00,50.039
1273.00,50.032
1274.00,50.044
1275.00,50.057
1276.00,50.046
1277.00,50.047
1278.00,50.056
1279.00,50.047
1280.00,50.051
1281.00,50.052
1282.00,50.072
1283.00,50.065
1284.00,50.058
1285.00,50.049
1286.00,50.067
1287.00,50.069
1288.00,50.082
1289.00,50.077
1290.00,50.111
1291.00,50.116
1292.00,50.106
1293.00,50.113
1294.00,50.123
1295.00,50.130
1296.00,50.135
1297.00,50.137
1298.00,50.155
1299.00,50.145
1300.00,50.147
1301.00,50.156
1302.00,50.165
1303.00,50.161
1304.00,50.145
1305.00,50.176
1306.00,50.186
1307.00,50.183
1308.00,50.209
1309.00,50.205
1310.00,50.190
1311.00,50.166
1312.00,50.177
1313.00,50.196
1314.00,50.213
1315.00,50.219
1316.00,50.213
1317.00,50.236
1318.00,50.241
1319.00,50.238
1320.00,50.251
1321.00,50.429
1322.00,50.426
1323.00,50.383
1324.00,50.391
1325.00,50.375
1326.00,50.389
1327.00,50.391
1328.00,50.381
1329.00,50.389
1330.00,50.400
1331.00,50.389
1332.00,50.386
1333.00,50.403
1334.00,50.408
1335.00,50.445
1336.00,50.476
1337.00,50.477
1338.00,50.559
1339.00,50.588
1340.00,50.652
1341.00,50.709
1342.00,50.768
1343.00,50.822
1344.00,50.875
1345.00,50.937
1346.00,50.971
1347.00,51.002
1348.00,51.014
1349.00,51.048
1350.00,51.040
1351.00,51.057
1352.00,51.070
1353.00,51.044
1354.00,51.065
1355.00,51.057
1356.00,51.076
1357.00,51.089
1358.00,51.090
1359.00,51.097
1360.00,51.083
1361.00,51.080
1362.00,51.089
1363.00,51.132
1364.00,51.165
1365.00,51.100
1366.00,51.087
1367.00,51.088
1368.00,51.065
1369.00,51.076
1370.00,51.079
1371.00,51.028
1372.00,51.049
1373.00,51.077
1374.00,51.080
1375.00,51.052
1376.00,51.033
1377.00,51.053
1378.00,51.058
1379.00,51.059
1380.00,51.030
1381.00,51.046
1382.00,51.076
1383.00,51.048
1384.00,51.042
1385.00,51.031
1386.00,51.016
1387.00,51.018
1388.00,51.004
1389.00,51.022
1390.00,51.028
1391.00,51.045
1392.00,51.022
1393.00,51.021
1394.00,51.043
1395.00,51.030
1396.00,51.004
1397.00,51.049
1398.00,51.059
1399.00,51.114
1400.00,51.009
1401.00,51.023
1402.00,51.068
1403.00,51.083
1404.00,51.071
1405.00,51.083
1406.00,51.104
1407.00,51.116
1408.00,51.138
1409.00,51.106
1410.00,51.123
1411.00,51.140
1412.00,51.169
1413.00,51.140
1414.00,51.126
1415.00,51.176
1416.00,51.161
1417.00,51.185
1418.00,51.192
1419.00,51.178
1420.00,51.206
1421.00,51.249
1422.00,51.227
1423.00,51.245
1424.00,51.257
1425.00,51.261
1426.00,51.284
1427.00,51.294
1428.00,51.291
1429.00,51.301
1430.00,51.314
1431.00,51.340
1432.00,51.352
1433.00,51.355
1434.00,51.367
1435.00,51.397
1436.00,51.400
1437.00,51.414
1438.00,51.424
1439.00,51.456
1440.00,51.470
1441.00,51.454
1442.00,51.474
1443.00,51.509
1444.00,51.530
1445.00,51.521
1446.00,51.544
1447.00,51.554
1448.00,51.575
1449.00,51.603
1450.00,51.601
1451.00,51.629
1452.00,51.628
1453.00,51.643
1454.00,51.645
1455.00,51.667
1456.00,51.703
1457.00,51.687
1458.00,51.707
1459.00,51.734
1460.00,51.748
1461.00,51.750
1462.00,51.792
1463.00,51.784
1464.00,51.800
1465.00,51.808
1466.00,51.796
1467.00,51.834
1468.00,51.862
1469.00,51.844
1470.00,51.863
1471.00,51.883
1472.00,51.907
1473.00,51.939
1474.00,51.973
1475.00,51.968
1476.00,51.959
1477.00,51.952
1478.00,51.981
1479.00,51.989
1480.00,51.993
1481.00,52.007
1482.00,52.029
1483.00,52.039
1484.00,52.061
1485.00,52.052
1486.00,52.061
1487.00,52.092
1488.00,52.109
1489.00,52.133
1490.00,52.141
1491.00,52.136
1492.00,52.158
1493.00,52.141
1494.00,52.165
1495.00,52.182
1496.00,52.176
1497.00,52.179
1498.00,52.190
1499.00,52.199
1500.00,52.238
1501.00, 
1502.00, 
1503.00, 
1504.00, 
1505.00, 
1506.00, 
1507.00, 
1508.00, 
1509.00, 
1510.00, 
1511.00, 
1512.00, 
1513.00, 
1514.00, 
1515.00, 
1516.00, 
1517.00, 
1518.00, 
1519.00, 
1520.00, 
1521.00, 
1522.00, 
1523.00, 
1524.00, 
1525.00, 
1526.00, 
1527.00, 
1528.00, 
1529.00, 
1530.00, 
1531.00, 
1532.00, 
1533.00, 
1534.00, 
1535.00, 
1536.00, 
1537.00, 
1538.00, 
1539.00, 
1540.00, 
1541.00, 
1542.00, 
1543.00, 
1544.00, 
1545.00, 
1546.00, 
1547.00, 
1548.00, 
1549.00, 
1550.00, 
1551.00, 
1552.00, 
1553.00, 
1554.00, 
1555.00, 
1556.00, 
1557.00, 
1558.00, 
1559.00, 
1560.00, 
1561.00, 
1562.00, 
1563.00, 
1564.00, 
1565.00, 
1566.00, 
1567.00, 
1568.00, 
1569.00, 
1570.00, 
1571.00, 
1572.00, 
1573.00, 
1574.00, 
1575.00, 
1576.00, 
1577.00, 
1578.00, 
1579.00, 
1580.00, 
1581.00, 
1582.00, 
1583.00, 
1584.00, 
1585.00, 
1586.00, 
1587.00, 
1588.00, 
1589.00, 
1590.00, 
1591.00, 
1592.00, 
1593.00, 
1594.00, 
1595.00, 
1596.00, 
1597.00, 
1598.00, 
1599.00, 
1600.00, 
1601.00, 
1602.00, 
1603.00, 
1604.00, 
1605.00, 
1606.00, 
1607.00, 
1608.00, 
1609.00, 
1610.00, 
1611.00, 
1612.00, 
1613.00, 
1614.00, 
1615.00, 
1616.00, 
1617.00, 
1618.00, 
1619.00, 
1620.00, 
1621.00, 
1622.00, 
1623.00, 
1624.00, 
1625.00, 
1626.00, 
1627.00, 
1628.00, 
1629.00, 
1630.00, 
1631.00, 
1632.00, 
1633.00, 
1634.00, 
1635.00, 
1636.00, 
1637.00, 
1638.00, 
1639.00, 
1640.00, 
1641.00, 
1642.00, 
1643.00, 
1644.00, 
1645.00, 
1646.00, 
1647.00, 
1648.00, 
1649.00, 
1650.00, 
1651.00, 
1652.00, 
1653.00, 
1654.00, 
1655.00, 
1656.00, 
1657.00, 
1658.00, 
1659.00, 
1660.00, 
1661.00, 
1662.00, 
1663.00, 
1664.00, 
1665.00, 
1666.00, 
1667.00, 
1668.00, 
1669.00, 
1670.00, 
1671.00, 
1672.00, 
1673.00, 
1674.00, 
1675.00, 
1676.00, 
1677.00, 
1678.00, 
1679.00, 
1680.00, 
1681.00, 
1682.00, 
1683.00, 
1684.00, 
1685.00, 
1686.00, 
1687.00, 
1688.00, 
1689.00, 
1690.00, 
1691.00, 
1692.00, 
1693.00, 
1694.00, 
1695.00, 
1696.00, 
1697.00, 
1698.00, 
1699.00, 
1700.00, 
1701.00, 
1702.00, 
1703.00, 
1704.00, 
1705.00, 
1706.00, 
1707.00, 
1708.00, 
1709.00, 
1710.00, 
1711.00, 
1712.00, 
1713.00, 
1714.00, 
1715.00, 
1716.00, 
1717.00, 
1718.00, 
1719.00, 
1720.00, 
1721.00, 
1722.00, 
1723.00, 
1724.00, 
1725.00, 
1726.00, 
1727.00, 
1728.00, 
1729.00, 
1730.00, 
1731.00, 
1732.00, 
1733.00, 
1734.00, 
1735.00, 
1736.00, 
1737.00, 
1738.00, 
1739.00, 
1740.00, 
1741.00, 
1742.00, 
1743.00, 
1744.00, 
1745.00, 
1746.00, 
1747.00, 
1748.00, 
1749.00, 
1750.00, 
1751.00, 
1752.00, 
1753.00, 
1754.00, 
1755.00, 
1756.00, 
1757.00, 
1758.00, 
1759.00, 
1760.00, 
1761.00, 
1762.00, 
1763.00, 
1764.00, 
1765.00, 
1766.00, 
1767.00, 
1768.00, 
1769.00, 
1770.00, 
1771.00, 
1772.00, 
1773.00, 
1774.00, 
1775.00, 
1776.00, 
1777.00, 
1778.00, 
1779.00, 
1780.00, 
1781.00, 
1782.00, 
1783.00, 
1784.00, 
1785.00, 
1786.00, 
1787.00, 
1788.00, 
1789.00, 
1790.00, 
1791.00, 
1792.00, 
1793.00, 
1794.00, 
1795.00, 
1796.00, 
1797.00, 
1798.00, 
1799.00, 
1800.00, 
1801.00, 
1802.00, 
1803.00, 
1804.00, 
1805.00, 
1806.00, 
1807.00, 
1808.00, 
1809.00, 
1810.00, 
1811.00, 
1812.00, 
1813.00, 
1814.00, 
1815.00, 
1816.00, 
1817.00, 
1818.00, 
1819.00, 
1820.00, 
1821.00, 
1822.00, 
1823.00, 
1824.00, 
1825.00, 
1826.00, 
1827.00, 
1828.00, 
1829.00, 
1830.00, 
1831.00, 
1832.00, 
1833.00, 
1834.00, 
1835.00, 
1836.00, 
1837.00, 
1838.00, 
1839.00, 
1840.00, 
1841.00, 
1842.00, 
1843.00, 
1844.00, 
1845.00, 
1846.00, 
1847.00, 
1848.00, 
1849.00, 
1850.00, 
1851.00, 
1852.00, 
1853.00, 
1854.00, 
1855.00, 
1856.00, 
1857.00, 
1858.00, 
1859.00, 
1860.00, 
1861.00, 
1862.00, 
1863.00, 
1864.00, 
1865.00, 
1866.00, 
1867.00, 
1868.00, 
1869.00, 
1870.00, 
1871.00, 
1872.00, 
1873.00, 
1874.00, 
1875.00, 
1876.00, 
1877.00, 
1878.00, 
1879.00, 
1880.00, 
1881.00, 
1882.00, 
1883.00, 
1884.00, 
1885.00, 
1886.00, 
1887.00, 
1888.00, 
1889.00, 
1890.00, 
1891.00, 
1892.00, 
1893.00, 
1894.00, 
1895.00, 
1896.00, 
1897.00, 
1898.00, 
1899.00, 
1900.00, 
1901.00, 
1902.00, 
1903.00, 
1904.00, 
1905.00, 
1906.00, 
1907.00, 
1908.00, 
1909.00, 
1910.00, 
1911.00, 
1912.00, 
1913.00, 
1914.00, 
1915.00, 
1916.00, 
1917.00, 
1918.00, 
1919.00, 
1920.00, 
1921.00, 
1922.00, 
1923.00, 
1924.00, 
1925.00, 
1926.00, 
1927.00, 
1928.00, 
1929.00, 
1930.00, 
1931.00, 
1932.00, 
1933.00, 
1934.00, 
1935.00, 
1936.00, 
1937.00, 
1938.00, 
1939.00, 
1940.00, 
1941.00, 
1942.00, 
1943.00, 
1944.00, 
1945.00, 
1946.00, 
1947.00, 
1948.00, 
1949.00, 
1950.00, 
1951.00, 
1952.00, 
1953.00, 
1954.00, 
1955.00, 
1956.00, 
1957.00, 
1958.00, 
1959.00, 
1960.00, 
1961.00, 
1962.00, 
1963.00, 
1964.00, 
1965.00, 
1966.00, 
1967.00, 
1968.00, 
1969.00, 
1970.00, 
1971.00, 
1972.00, 
1973.00, 
1974.00, 
1975.00, 
1976.00, 
1977.00, 
1978.00, 
1979.00, 
1980.00, 
1981.00, 
1982.00, 
1983.00, 
1984.00, 
1985.00, 
1986.00, 
1987.00, 
1988.00, 
1989.00, 
1990.00, 
1991.00, 
1992.00, 
1993.00, 
1994.00, 
1995.00, 
1996.00, 
1997.00, 
1998.00, 
1999.00, 
2000.00, 
2001.00, 
2002.00, 
2003.00, 
2004.00, 
2005.00, 
2006.00, 
2007.00, 
2008.00, 
2009.00, 
2010.00, 
2011.00, 
2012.00, 
2013.00, 
2014.00, 
2015.00, 
2016.00, 
2017.00, 
2018.00, 
2019.00, 
2020.00, 
2021.00, 
2022.00, 
2023.00, 
2024.00, 
2025.00, 
2026.00, 
2027.00, 
2028.00, 
2029.00, 
2030.00, 
2031.00, 
2032.00, 
2033.00, 
2034.00, 
2035.00, 
2036.00, 
2037.00, 
2038.00, 
2039.00, 
2040.00, 
2041.00, 
2042.00, 
2043.00, 
2044.00, 
2045.00, 
2046.00, 
2047.00, 
2048.00, 
2049.00, 
2050.00, 
2051.00, 
2052.00, 
2053.00, 
2054.00, 
2055.00, 
2056.00, 
2057.00, 
2058.00, 
2059.00, 
2060.00, 
2061.00, 
2062.00, 
2063.00, 
2064.00, 
2065.00, 
2066.00, 
2067.00, 
2068.00, 
2069.00, 
2070.00, 
2071.00, 
2072.00, 
2073.00, 
2074.00, 
2075.00, 
2076.00, 
2077.00, 
2078.00, 
2079.00, 
2080.00, 
2081.00, 
2082.00, 
2083.00, 
2084.00, 
2085.00, 
2086.00, 
2087.00, 
2088.00, 
2089.00, 
2090.00, 
2091.00, 
2092.00, 
2093.00, 
2094.00, 
2095.00, 
2096.00, 
2097.00, 
2098.00, 
2099.00, 
2100.00, 
2101.00, 
2102.00, 
2103.00, 
2104.00, 
2105.00, 
2106.00, 
2107.00, 
2108.00, 
2109.00, 
2110.00, 
2111.00, 
2112.00, 
2113.00, 
2114.00, 
2115.00, 
2116.00, 
2117.00, 
2118.00, 
2119.00, 
2120.00, 
2121.00, 
2122.00, 
2123.00, 
2124.00, 
2125.00, 
2126.00, 
2127.00, 
2128.00, 
2129.00, 
2130.00, 
2131.00, 
2132.00, 
2133.00, 
2134.00, 
2135.00, 
2136.00, 
2137.00, 
2138.00, 
2139.00, 
2140.00, 
2141.00, 
2142.00, 
2143.00, 
2144.00, 
2145.00, 
2146.00, 
2147.00, 
2148.00, 
2149.00, 
2150.00, 
2151.00, 
2152.00, 
2153.00, 
2154.00, 
2155.00, 
2156.00, 
2157.00, 
2158.00, 
2159.00, 
2160.00, 
2161.00, 
2162.00, 
2163.00, 
2164.00, 
2165.00, 
2166.00, 
2167.00, 
2168.00, 
2169.00, 
2170.00, 
2171.00, 
2172.00, 
2173.00, 
2174.00, 
2175.00, 
2176.00, 
2177.00, 
2178.00, 
2179.00, 
2180.00, 
2181.00, 
2182.00, 
2183.00, 
2184.00, 
2185.00, 
2186.00, 
2187.00, 
2188.00, 
2189.00, 
2190.00, 
2191.00, 
2192.00, 
2193.00, 
2194.00, 
2195.00, 
2196.00, 
2197.00, 
2198.00, 
2199.00, 
2200.00, 
2201.00, 
2202.00, 
2203.00, 
2204.00, 
2205.00, 
2206.00, 
2207.00, 
2208.00, 
2209.00, 
2210.00, 
2211.00, 
2212.00, 
2213.00, 
2214.00, 
2215.00, 
2216.00, 
2217.00, 
2218.00, 
2219.00, 
2220.00, 
2221.00, 
2222.00, 
2223.00, 
2224.00, 
2225.00, 
2226.00, 
2227.00, 
2228.00, 
2229.00, 
2230.00, 
2231.00, 
2232.00, 
2233.00, 
2234.00, 
2235.00, 
2236.00, 
2237.00, 
2238.00, 
2239.00, 
2240.00, 
2241.00, 
2242.00, 
2243.00, 
2244.00, 
2245.00, 
2246.00, 
2247.00, 
2248.00, 
2249.00, 
2250.00, 
2251.00, 
2252.00, 
2253.00, 
2254.00, 
2255.00, 
2256.00, 
2257.00, 
2258.00, 
2259.00, 
2260.00, 
2261.00, 
2262.00, 
2263.00, 
2264.00, 
2265.00, 
2266.00, 
2267.00, 
2268.00, 
2269.00, 
2270.00, 
2271.00, 
2272.00, 
2273.00, 
2274.00, 
2275.00, 
2276.00, 
2277.00, 
2278.00, 
2279.00, 
2280.00, 
2281.00, 
2282.00, 
2283.00, 
2284.00, 
2285.00, 
2286.00, 
2287.00, 
2288.00, 
2289.00, 
2290.00, 
2291.00, 
2292.00, 
2293.00, 
2294.00, 
2295.00, 
2296.00, 
2297.00, 
2298.00, 
2299.00, 
2300.00, 
2301.00, 
2302.00, 
2303.00, 
2304.00, 
2305.00, 
2306.00, 
2307.00, 
2308.00, 
2309.00, 
2310.00, 
2311.00, 
2312.00, 
2313.00, 
2314.00, 
2315.00, 
2316.00, 
2317.00, 
2318.00, 
2319.00, 
2320.00, 
2321.00, 
2322.00, 
2323.00, 
2324.00, 
2325.00, 
2326.00, 
2327.00, 
2328.00, 
2329.00, 
2330.00, 
2331.00, 
2332.00, 
2333.00, 
2334.00, 
2335.00, 
2336.00, 
2337.00, 
2338.00, 
2339.00, 
2340.00, 
2341.00, 
2342.00, 
2343.00, 
2344.00, 
2345.00, 
2346.00, 
2347.00, 
2348.00, 
2349.00, 
2350.00, 
2351.00, 
2352.00, 
2353.00, 
2354.00, 
2355.00, 
2356.00, 
2357.00, 
2358.00, 
2359.00, 
2360.00, 
2361.00, 
2362.00, 
2363.00, 
2364.00, 
2365.00, 
2366.00, 
2367.00, 
2368.00, 
2369.00, 
2370.00, 
2371.00, 
2372.00, 
2373.00, 
2374.00, 
2375.00, 
2376.00, 
2377.00, 
2378.00, 
2379.00, 
2380.00, 
2381.00, 
2382.00, 
2383.00, 
2384.00, 
2385.00, 
2386.00, 
2387.00, 
2388.00, 
2389.00, 
2390.00, 
2391.00, 
2392.00, 
2393.00, 
2394.00, 
2395.00, 
2396.00, 
2397.00, 
2398.00, 
2399.00, 
2400.00, 
2401.00, 
2402.00, 
2403.00, 
2404.00, 
2405.00, 
2406.00, 
2407.00, 
2408.00, 
2409.00, 
2410.00, 
2411.00, 
2412.00, 
2413.00, 
2414.00, 
2415.00, 
2416.00, 
2417.00, 
2418.00, 
2419.00, 
2420.00, 
2421.00, 
2422.00, 
2423.00, 
2424.00, 
2425.00, 
2426.00, 
2427.00, 
2428.00, 
2429.00, 
2430.00, 
2431.00, 
2432.00, 
2433.00, 
2434.00, 
2435.00, 
2436.00, 
2437.00, 
2438.00, 
2439.00, 
2440.00, 
2441.00, 
2442.00, 
2443.00, 
2444.00, 
2445.00, 
2446.00, 
2447.00, 
2448.00, 
2449.00, 
2450.00, 
2451.00, 
2452.00, 
2453.00, 
2454.00, 
2455.00, 
2456.00, 
2457.00, 
2458.00, 
2459.00, 
2460.00, 
2461.00, 
2462.00, 
2463.00, 
2464.00, 
2465.00, 
2466.00, 
2467.00, 
2468.00, 
2469.00, 
2470.00, 
2471.00, 
2472.00, 
2473.00, 
2474.00, 
2475.00, 
2476.00, 
2477.00, 
2478.00, 
2479.00, 
2480.00, 
2481.00, 
2482.00, 
2483.00, 
2484.00, 
2485.00, 
2486.00, 
2487.00, 
2488.00, 
2489.00, 
2490.00, 
2491.00, 
2492.00, 
2493.00, 
2494.00, 
2495.00, 
2496.00, 
2497.00, 
2498.00, 
2499.00, 
2500.00, 
2501.00, 
2502.00, 
2503.00, 
2504.00, 
2505.00, 
2506.00, 
2507.00, 
2508.00, 
2509.00, 
2510.00, 
2511.00, 
2512.00, 
2513.00, 
2514.00, 
2515.00, 
2516.00, 
2517.00, 
2518.00, 
2519.00, 
2520.00, 
2521.00, 
2522.00, 
2523.00, 
2524.00, 
2525.00, 
2526.00, 
2527.00, 
2528.00, 
2529.00, 
2530.00, 
2531.00, 
2532.00, 
2533.00, 
2534.00, 
2535.00, 
2536.00, 
2537.00, 
2538.00, 
2539.00, 
2540.00, 
2541.00, 
2542.00, 
2543.00, 
2544.00, 
2545.00, 
2546.00, 
2547.00, 
2548.00, 
2549.00, 
2550.00, 
2551.00, 
2552.00, 
2553.00, 
2554.00, 
2555.00, 
2556.00, 
2557.00, 
2558.00, 
2559.00, 
2560.00, 
2561.00, 
2562.00, 
2563.00, 
2564.00, 
2565.00, 
2566.00, 
2567.00, 
2568.00, 
2569.00, 
2570.00, 
2571.00, 
2572.00, 
2573.00, 
2574.00, 
2575.00, 
2576.00, 
2577.00, 
2578.00, 
2579.00, 
2580.00, 
2581.00, 
2582.00, 
2583.00, 
2584.00, 
2585.00, 
2586.00, 
2587.00, 
2588.00, 
2589.00, 
2590.00, 
2591.00, 
2592.00, 
2593.00, 
2594.00, 
2595.00, 
2596.00, 
2597.00, 
2598.00, 
2599.00, 
2600.00, 
