"2cP5 - RawData"
"Wavelength nm.","T%"
200.00,-0.001
201.00,0.002
202.00,-0.002
203.00,-0.001
204.00,0.001
205.00,0.001
206.00,0.000
207.00,0.001
208.00,-0.001
209.00,0.004
210.00,0.001
211.00,-0.001
212.00,-0.002
213.00,0.002
214.00,0.001
215.00,0.000
216.00,0.002
217.00,0.000
218.00,-0.001
219.00,-0.000
220.00,-0.000
221.00,-0.001
222.00,0.001
223.00,-0.001
224.00,-0.001
225.00,0.002
226.00,0.000
227.00,-0.001
228.00,0.001
229.00,0.001
230.00,-0.002
231.00,0.000
232.00,0.003
233.00,-0.001
234.00,0.001
235.00,-0.001
236.00,0.000
237.00,0.001
238.00,-0.002
239.00,0.001
240.00,0.002
241.00,0.002
242.00,-0.000
243.00,0.000
244.00,-0.001
245.00,0.001
246.00,0.000
247.00,-0.000
248.00,0.000
249.00,0.002
250.00,0.002
251.00,-0.000
252.00,-0.002
253.00,0.002
254.00,-0.000
255.00,0.001
256.00,0.001
257.00,0.001
258.00,0.001
259.00,0.000
260.00,-0.001
261.00,-0.000
262.00,0.001
263.00,0.000
264.00,0.002
265.00,0.002
266.00,-0.001
267.00,-0.001
268.00,0.001
269.00,0.000
270.00,0.000
271.00,0.001
272.00,0.002
273.00,0.000
274.00,0.001
275.00,-0.000
276.00,-0.000
277.00,-0.001
278.00,0.000
279.00,0.002
280.00,-0.002
281.00,0.000
282.00,-0.001
283.00,-0.000
284.00,0.001
285.00,-0.000
286.00,0.001
287.00,0.002
288.00,0.000
289.00,-0.002
290.00,0.000
291.00,-0.001
292.00,0.002
293.00,0.000
294.00,-0.001
295.00,0.001
296.00,0.000
297.00,-0.001
298.00,0.001
299.00,0.001
300.00,0.003
301.00,0.003
302.00,0.002
303.00,0.007
304.00,0.008
305.00,0.013
306.00,0.023
307.00,0.031
308.00,0.046
309.00,0.073
310.00,0.097
311.00,0.135
312.00,0.185
313.00,0.249
314.00,0.325
315.00,0.429
316.00,0.549
317.00,0.684
318.00,0.838
319.00,1.042
320.00,1.260
321.00,1.516
322.00,1.799
323.00,2.113
324.00,2.453
325.00,2.784
326.00,3.138
327.00,3.548
328.00,3.945
329.00,4.374
330.00,4.802
331.00,5.248
332.00,5.699
333.00,6.168
334.00,6.625
335.00,7.113
336.00,7.545
337.00,8.001
338.00,8.441
339.00,8.852
340.00,9.277
341.00,9.694
342.00,10.069
343.00,10.405
344.00,10.822
345.00,11.143
346.00,11.483
347.00,11.778
348.00,12.049
349.00,12.297
350.00,12.549
351.00,12.782
352.00,12.999
353.00,13.209
354.00,13.379
355.00,13.546
356.00,13.698
357.00,13.821
358.00,13.960
359.00,14.099
360.00,14.222
361.00,14.324
362.00,14.438
363.00,14.544
364.00,14.564
365.00,14.581
366.00,14.656
367.00,14.683
368.00,14.731
369.00,14.728
370.00,14.744
371.00,14.725
372.00,14.699
373.00,14.731
374.00,14.723
375.00,14.662
376.00,14.629
377.00,14.600
378.00,14.511
379.00,14.489
380.00,14.443
381.00,14.411
382.00,14.402
383.00,14.385
384.00,14.396
385.00,14.408
386.00,14.368
387.00,14.415
388.00,14.415
389.00,14.428
390.00,14.401
391.00,14.405
392.00,14.405
393.00,14.428
394.00,14.401
395.00,14.410
396.00,14.371
397.00,14.374
398.00,14.319
399.00,14.334
400.00,14.307
401.00,14.294
402.00,14.331
403.00,14.325
404.00,14.345
405.00,14.325
406.00,14.312
407.00,14.281
408.00,14.283
409.00,14.257
410.00,14.222
411.00,14.212
412.00,14.207
413.00,14.198
414.00,14.180
415.00,14.195
416.00,14.207
417.00,14.200
418.00,14.225
419.00,14.275
420.00,14.304
421.00,14.329
422.00,14.313
423.00,14.370
424.00,14.386
425.00,14.425
426.00,14.434
427.00,14.483
428.00,14.515
429.00,14.545
430.00,14.610
431.00,14.662
432.00,14.698
433.00,14.768
434.00,14.782
435.00,14.855
436.00,14.921
437.00,14.995
438.00,15.071
439.00,15.122
440.00,15.200
441.00,15.260
442.00,15.346
443.00,15.413
444.00,15.513
445.00,15.594
446.00,15.664
447.00,15.777
448.00,15.867
449.00,15.957
450.00,16.069
451.00,16.145
452.00,16.237
453.00,16.352
454.00,16.455
455.00,16.580
456.00,16.688
457.00,16.804
458.00,16.900
459.00,17.037
460.00,17.161
461.00,17.332
462.00,17.388
463.00,17.514
464.00,17.673
465.00,17.818
466.00,17.903
467.00,18.022
468.00,18.185
469.00,18.276
470.00,18.383
471.00,18.504
472.00,18.633
473.00,18.719
474.00,18.856
475.00,19.000
476.00,19.129
477.00,19.209
478.00,19.381
479.00,19.529
480.00,19.715
481.00,19.869
482.00,20.005
483.00,20.151
484.00,20.311
485.00,20.460
486.00,20.618
487.00,20.759
488.00,20.903
489.00,21.082
490.00,21.193
491.00,21.333
492.00,21.505
493.00,21.679
494.00,21.829
495.00,21.926
496.00,22.052
497.00,22.178
498.00,22.346
499.00,22.518
500.00,22.676
501.00,22.781
502.00,22.947
503.00,23.088
504.00,23.165
505.00,23.315
506.00,23.448
507.00,23.581
508.00,23.704
509.00,23.890
510.00,24.012
511.00,24.145
512.00,24.308
513.00,24.424
514.00,24.586
515.00,24.706
516.00,24.820
517.00,24.934
518.00,25.083
519.00,25.125
520.00,25.226
521.00,25.404
522.00,25.504
523.00,25.544
524.00,25.658
525.00,25.804
526.00,25.879
527.00,25.956
528.00,26.053
529.00,26.215
530.00,26.355
531.00,26.503
532.00,26.603
533.00,26.699
534.00,26.847
535.00,26.927
536.00,26.989
537.00,27.117
538.00,27.193
539.00,27.247
540.00,27.369
541.00,27.401
542.00,27.463
543.00,27.559
544.00,27.646
545.00,27.758
546.00,27.783
547.00,27.885
548.00,28.035
549.00,28.046
550.00,28.196
551.00,28.286
552.00,28.259
553.00,28.333
554.00,28.430
555.00,28.517
556.00,28.598
557.00,28.685
558.00,28.731
559.00,28.813
560.00,28.905
561.00,28.984
562.00,29.028
563.00,29.067
564.00,29.125
565.00,29.174
566.00,29.196
567.00,29.237
568.00,29.299
569.00,29.371
570.00,29.429
571.00,29.471
572.00,29.546
573.00,29.565
574.00,29.573
575.00,29.629
576.00,29.634
577.00,29.704
578.00,29.827
579.00,29.908
580.00,29.936
581.00,30.073
582.00,30.118
583.00,30.176
584.00,30.272
585.00,30.333
586.00,30.395
587.00,30.477
588.00,30.452
589.00,30.455
590.00,30.570
591.00,30.669
592.00,30.656
593.00,30.696
594.00,30.812
595.00,30.854
596.00,30.930
597.00,31.010
598.00,31.093
599.00,31.086
600.00,31.168
601.00,31.240
602.00,31.205
603.00,31.282
604.00,31.273
605.00,31.395
606.00,31.486
607.00,31.454
608.00,31.508
609.00,31.632
610.00,31.725
611.00,31.692
612.00,31.823
613.00,31.817
614.00,31.927
615.00,31.944
616.00,32.077
617.00,32.058
618.00,32.127
619.00,32.215
620.00,32.215
621.00,32.301
622.00,32.452
623.00,32.521
624.00,32.530
625.00,32.634
626.00,32.722
627.00,32.845
628.00,32.944
629.00,32.925
630.00,33.013
631.00,33.101
632.00,33.228
633.00,33.321
634.00,33.432
635.00,33.564
636.00,33.628
637.00,33.686
638.00,33.743
639.00,33.918
640.00,33.943
641.00,34.041
642.00,34.180
643.00,34.234
644.00,34.282
645.00,34.362
646.00,34.636
647.00,34.655
648.00,34.740
649.00,34.835
650.00,34.922
651.00,35.100
652.00,35.164
653.00,35.186
654.00,35.259
655.00,35.533
656.00,35.816
657.00,35.677
658.00,35.880
659.00,35.961
660.00,36.082
661.00,36.075
662.00,36.253
663.00,36.391
664.00,36.602
665.00,36.806
666.00,36.856
667.00,36.847
668.00,36.925
669.00,37.215
670.00,37.453
671.00,37.423
672.00,37.546
673.00,37.671
674.00,37.822
675.00,37.917
676.00,38.170
677.00,38.307
678.00,38.196
679.00,38.463
680.00,38.644
681.00,38.784
682.00,38.961
683.00,38.998
684.00,39.137
685.00,39.255
686.00,39.241
687.00,39.516
688.00,39.565
689.00,39.612
690.00,39.892
691.00,40.167
692.00,40.079
693.00,40.143
694.00,40.467
695.00,40.584
696.00,40.685
697.00,40.650
698.00,40.836
699.00,41.175
700.00,41.185
701.00,41.236
702.00,41.379
703.00,41.614
704.00,41.718
705.00,41.653
706.00,41.767
707.00,42.025
708.00,41.858
709.00,42.262
710.00,42.588
711.00,42.488
712.00,42.482
713.00,42.782
714.00,42.866
715.00,42.865
716.00,42.957
717.00,43.236
718.00,43.385
719.00,43.390
720.00,43.532
721.00,47.814
722.00,47.923
723.00,47.952
724.00,47.983
725.00,48.045
726.00,48.134
727.00,48.185
728.00,48.306
729.00,48.349
730.00,48.476
731.00,48.534
732.00,48.619
733.00,48.699
734.00,48.776
735.00,48.830
736.00,48.899
737.00,48.942
738.00,49.047
739.00,49.131
740.00,49.114
741.00,49.205
742.00,49.372
743.00,49.406
744.00,49.357
745.00,49.438
746.00,49.519
747.00,49.544
748.00,49.583
749.00,49.606
750.00,49.674
751.00,49.723
752.00,49.754
753.00,49.827
754.00,49.810
755.00,49.954
756.00,49.904
757.00,50.006
758.00,49.996
759.00,50.017
760.00,50.152
761.00,50.108
762.00,50.248
763.00,50.202
764.00,50.257
765.00,50.311
766.00,50.328
767.00,50.418
768.00,50.429
769.00,50.495
770.00,50.536
771.00,50.567
772.00,50.628
773.00,50.647
774.00,50.649
775.00,50.715
776.00,50.717
777.00,50.831
778.00,50.782
779.00,50.887
780.00,50.850
781.00,50.896
782.00,50.892
783.00,50.907
784.00,50.952
785.00,50.900
786.00,51.019
787.00,50.960
788.00,51.017
789.00,51.030
790.00,50.929
791.00,51.064
792.00,51.013
793.00,51.029
794.00,50.991
795.00,51.126
796.00,51.187
797.00,51.075
798.00,51.136
799.00,51.151
800.00,51.097
801.00,51.127
802.00,51.123
803.00,51.142
804.00,51.062
805.00,51.157
806.00,51.137
807.00,51.133
808.00,51.178
809.00,51.141
810.00,51.192
811.00,51.176
812.00,51.167
813.00,51.164
814.00,51.124
815.00,51.094
816.00,51.128
817.00,51.174
818.00,51.088
819.00,51.068
820.00,51.136
821.00,51.121
822.00,51.128
823.00,51.095
824.00,51.157
825.00,51.126
826.00,51.131
827.00,51.047
828.00,51.135
829.00,51.036
830.00,51.086
831.00,53.282
832.00,53.262
833.00,53.226
834.00,53.199
835.00,53.183
836.00,53.241
837.00,53.177
838.00,53.206
839.00,53.178
840.00,53.152
841.00,53.159
842.00,53.124
843.00,53.156
844.00,53.130
845.00,53.099
846.00,53.168
847.00,53.138
848.00,53.117
849.00,53.067
850.00,53.040
851.00,52.970
852.00,52.991
853.00,52.950
854.00,52.916
855.00,52.894
856.00,52.900
857.00,52.901
858.00,52.884
859.00,52.841
860.00,52.895
861.00,52.845
862.00,52.813
863.00,52.835
864.00,52.808
865.00,52.812
866.00,52.783
867.00,52.839
868.00,52.811
869.00,52.799
870.00,52.795
871.00,52.753
872.00,52.743
873.00,52.747
874.00,52.764
875.00,52.772
876.00,52.761
877.00,52.740
878.00,52.758
879.00,52.753
880.00,52.690
881.00,52.698
882.00,52.721
883.00,52.665
884.00,52.646
885.00,52.655
886.00,52.628
887.00,52.534
888.00,52.645
889.00,52.580
890.00,52.561
891.00,52.543
892.00,52.564
893.00,52.529
894.00,52.528
895.00,52.496
896.00,52.458
897.00,52.496
898.00,52.428
899.00,52.437
900.00,52.430
901.00,52.527
902.00,52.432
903.00,52.394
904.00,52.391
905.00,52.370
906.00,52.363
907.00,52.333
908.00,52.329
909.00,52.307
910.00,52.287
911.00,52.271
912.00,52.268
913.00,52.226
914.00,52.242
915.00,52.198
916.00,52.193
917.00,52.163
918.00,52.141
919.00,52.112
920.00,52.092
921.00,52.084
922.00,52.086
923.00,52.076
924.00,52.044
925.00,52.060
926.00,52.039
927.00,51.995
928.00,52.081
929.00,51.981
930.00,51.942
931.00,51.957
932.00,51.907
933.00,51.944
934.00,51.901
935.00,51.887
936.00,51.858
937.00,51.847
938.00,51.833
939.00,51.831
940.00,51.796
941.00,51.786
942.00,51.724
943.00,51.743
944.00,51.718
945.00,51.732
946.00,51.713
947.00,51.683
948.00,51.665
949.00,51.658
950.00,51.636
951.00,51.601
952.00,51.592
953.00,51.553
954.00,51.520
955.00,51.487
956.00,51.487
957.00,51.446
958.00,51.462
959.00,51.412
960.00,51.413
961.00,51.402
962.00,51.389
963.00,51.350
964.00,51.350
965.00,51.327
966.00,51.340
967.00,51.331
968.00,51.311
969.00,51.345
970.00,51.328
971.00,51.329
972.00,51.291
973.00,51.329
974.00,51.350
975.00,51.317
976.00,51.330
977.00,51.310
978.00,51.341
979.00,51.293
980.00,51.332
981.00,51.312
982.00,51.287
983.00,51.338
984.00,51.287
985.00,51.306
986.00,51.290
987.00,51.296
988.00,51.242
989.00,51.252
990.00,51.241
991.00,51.213
992.00,51.234
993.00,51.210
994.00,51.199
995.00,51.186
996.00,51.184
997.00,51.156
998.00,51.135
999.00,51.165
1000.00,51.112
1001.00,51.135
1002.00,51.115
1003.00,51.107
1004.00,51.111
1005.00,51.069
1006.00,51.100
1007.00,51.068
1008.00,51.058
1009.00,51.031
1010.00,51.038
1011.00,51.010
1012.00,50.990
1013.00,50.990
1014.00,50.944
1015.00,50.972
1016.00,50.924
1017.00,50.931
1018.00,50.918
1019.00,50.890
1020.00,50.882
1021.00,50.866
1022.00,50.856
1023.00,50.815
1024.00,50.824
1025.00,50.805
1026.00,50.797
1027.00,50.758
1028.00,50.749
1029.00,50.739
1030.00,50.698
1031.00,50.700
1032.00,50.675
1033.00,50.651
1034.00,50.641
1035.00,50.640
1036.00,50.594
1037.00,50.583
1038.00,50.567
1039.00,50.544
1040.00,50.537
1041.00,50.505
1042.00,50.501
1043.00,50.482
1044.00,50.499
1045.00,50.485
1046.00,50.465
1047.00,50.482
1048.00,50.516
1049.00,50.524
1050.00,50.539
1051.00,50.555
1052.00,50.556
1053.00,50.554
1054.00,50.543
1055.00,50.556
1056.00,50.576
1057.00,50.583
1058.00,50.556
1059.00,50.566
1060.00,50.569
1061.00,50.544
1062.00,50.536
1063.00,50.530
1064.00,50.524
1065.00,50.534
1066.00,50.517
1067.00,50.525
1068.00,50.525
1069.00,50.478
1070.00,50.467
1071.00,50.455
1072.00,50.484
1073.00,50.453
1074.00,50.446
1075.00,50.426
1076.00,50.429
1077.00,50.409
1078.00,50.393
1079.00,50.392
1080.00,50.387
1081.00,50.379
1082.00,50.375
1083.00,50.364
1084.00,50.351
1085.00,50.348
1086.00,50.336
1087.00,50.335
1088.00,50.306
1089.00,50.306
1090.00,50.318
1091.00,50.295
1092.00,50.290
1093.00,50.281
1094.00,50.253
1095.00,50.268
1096.00,50.276
1097.00,50.239
1098.00,50.233
1099.00,50.218
1100.00,50.216
1101.00,50.208
1102.00,50.196
1103.00,50.197
1104.00,50.185
1105.00,50.176
1106.00,50.169
1107.00,50.149
1108.00,50.147
1109.00,50.154
1110.00,50.145
1111.00,50.162
1112.00,50.128
1113.00,50.106
1114.00,50.098
1115.00,50.105
1116.00,50.085
1117.00,50.073
1118.00,50.058
1119.00,50.057
1120.00,50.056
1121.00,50.031
1122.00,50.029
1123.00,50.024
1124.00,50.020
1125.00,50.038
1126.00,50.029
1127.00,50.000
1128.00,49.995
1129.00,49.979
1130.00,49.971
1131.00,49.968
1132.00,49.953
1133.00,49.949
1134.00,49.935
1135.00,49.917
1136.00,49.928
1137.00,49.926
1138.00,49.916
1139.00,49.934
1140.00,49.912
1141.00,49.901
1142.00,49.892
1143.00,49.894
1144.00,49.884
1145.00,49.875
1146.00,49.873
1147.00,49.876
1148.00,49.872
1149.00,49.879
1150.00,49.886
1151.00,49.877
1152.00,49.869
1153.00,49.857
1154.00,49.849
1155.00,49.856
1156.00,49.852
1157.00,49.870
1158.00,49.843
1159.00,49.836
1160.00,49.829
1161.00,49.847
1162.00,49.835
1163.00,49.824
1164.00,49.825
1165.00,49.820
1166.00,49.827
1167.00,49.807
1168.00,49.810
1169.00,49.824
1170.00,49.794
1171.00,49.784
1172.00,49.823
1173.00,49.781
1174.00,49.787
1175.00,49.792
1176.00,49.781
1177.00,49.772
1178.00,49.774
1179.00,49.793
1180.00,49.777
1181.00,49.790
1182.00,49.795
1183.00,49.774
1184.00,49.769
1185.00,49.798
1186.00,49.766
1187.00,49.761
1188.00,49.768
1189.00,49.775
1190.00,49.758
1191.00,49.758
1192.00,49.772
1193.00,49.754
1194.00,49.770
1195.00,49.746
1196.00,49.772
1197.00,49.761
1198.00,49.744
1199.00,49.739
1200.00,49.749
1201.00,49.764
1202.00,49.755
1203.00,49.740
1204.00,49.721
1205.00,49.749
1206.00,49.733
1207.00,49.725
1208.00,49.725
1209.00,49.731
1210.00,49.722
1211.00,49.722
1212.00,49.733
1213.00,49.713
1214.00,49.720
1215.00,49.719
1216.00,49.728
1217.00,49.727
1218.00,49.735
1219.00,49.729
1220.00,49.704
1221.00,49.709
1222.00,49.701
1223.00,49.723
1224.00,49.728
1225.00,49.719
1226.00,49.709
1227.00,49.711
1228.00,49.722
1229.00,49.730
1230.00,49.749
1231.00,49.746
1232.00,49.786
1233.00,49.797
1234.00,49.764
1235.00,49.765
1236.00,49.759
1237.00,49.753
1238.00,49.759
1239.00,49.756
1240.00,49.749
1241.00,49.759
1242.00,49.760
1243.00,49.769
1244.00,49.740
1245.00,49.750
1246.00,49.787
1247.00,49.770
1248.00,49.759
1249.00,49.778
1250.00,49.783
1251.00,49.771
1252.00,49.791
1253.00,49.774
1254.00,49.796
1255.00,49.796
1256.00,49.770
1257.00,49.763
1258.00,49.816
1259.00,49.800
1260.00,49.821
1261.00,49.806
1262.00,49.811
1263.00,49.816
1264.00,49.806
1265.00,49.808
1266.00,49.812
1267.00,49.807
1268.00,49.825
1269.00,49.825
1270.00,49.833
1271.00,49.852
1272.00,49.846
1273.00,49.858
1274.00,49.860
1275.00,49.858
1276.00,49.869
1277.00,49.866
1278.00,49.888
1279.00,49.895
1280.00,49.859
1281.00,49.876
1282.00,49.889
1283.00,49.878
1284.00,49.885
1285.00,49.877
1286.00,49.883
1287.00,49.882
1288.00,49.886
1289.00,49.888
1290.00,49.916
1291.00,49.908
1292.00,49.908
1293.00,49.914
1294.00,49.924
1295.00,49.937
1296.00,49.929
1297.00,49.937
1298.00,49.956
1299.00,49.951
1300.00,49.959
1301.00,49.958
1302.00,49.963
1303.00,49.967
1304.00,49.957
1305.00,49.977
1306.00,49.986
1307.00,49.992
1308.00,49.993
1309.00,50.000
1310.00,50.014
1311.00,49.984
1312.00,50.002
1313.00,50.011
1314.00,50.022
1315.00,50.023
1316.00,50.003
1317.00,50.038
1318.00,50.043
1319.00,50.037
1320.00,50.057
1321.00,50.234
1322.00,50.235
1323.00,50.227
1324.00,50.199
1325.00,50.191
1326.00,50.207
1327.00,50.200
1328.00,50.201
1329.00,50.200
1330.00,50.197
1331.00,50.194
1332.00,50.179
1333.00,50.196
1334.00,50.206
1335.00,50.263
1336.00,50.249
1337.00,50.299
1338.00,50.370
1339.00,50.404
1340.00,50.475
1341.00,50.518
1342.00,50.588
1343.00,50.639
1344.00,50.682
1345.00,50.731
1346.00,50.757
1347.00,50.800
1348.00,50.818
1349.00,50.845
1350.00,50.889
1351.00,50.893
1352.00,50.872
1353.00,50.896
1354.00,50.899
1355.00,50.859
1356.00,50.913
1357.00,50.903
1358.00,50.891
1359.00,50.925
1360.00,50.891
1361.00,50.881
1362.00,50.922
1363.00,50.935
1364.00,50.947
1365.00,50.914
1366.00,50.897
1367.00,50.910
1368.00,50.902
1369.00,50.889
1370.00,50.900
1371.00,50.844
1372.00,50.867
1373.00,50.889
1374.00,50.874
1375.00,50.877
1376.00,50.855
1377.00,50.862
1378.00,50.912
1379.00,50.897
1380.00,50.847
1381.00,50.892
1382.00,50.864
1383.00,50.884
1384.00,50.826
1385.00,50.812
1386.00,50.828
1387.00,50.856
1388.00,50.814
1389.00,50.823
1390.00,50.838
1391.00,50.857
1392.00,50.837
1393.00,50.824
1394.00,50.854
1395.00,50.812
1396.00,50.810
1397.00,50.837
1398.00,51.037
1399.00,50.915
1400.00,50.832
1401.00,50.844
1402.00,50.880
1403.00,50.893
1404.00,50.882
1405.00,50.894
1406.00,50.912
1407.00,50.921
1408.00,50.929
1409.00,50.898
1410.00,50.927
1411.00,50.917
1412.00,50.980
1413.00,50.921
1414.00,50.920
1415.00,50.959
1416.00,50.961
1417.00,50.996
1418.00,50.973
1419.00,50.973
1420.00,51.000
1421.00,51.036
1422.00,51.037
1423.00,51.044
1424.00,51.050
1425.00,51.072
1426.00,51.080
1427.00,51.096
1428.00,51.070
1429.00,51.088
1430.00,51.098
1431.00,51.138
1432.00,51.155
1433.00,51.172
1434.00,51.167
1435.00,51.188
1436.00,51.216
1437.00,51.212
1438.00,51.229
1439.00,51.256
1440.00,51.244
1441.00,51.226
1442.00,51.250
1443.00,51.293
1444.00,51.403
1445.00,51.369
1446.00,51.334
1447.00,51.356
1448.00,51.385
1449.00,51.413
1450.00,51.406
1451.00,51.410
1452.00,51.440
1453.00,51.462
1454.00,51.468
1455.00,51.488
1456.00,51.496
1457.00,51.502
1458.00,51.518
1459.00,51.550
1460.00,51.584
1461.00,51.558
1462.00,51.587
1463.00,51.581
1464.00,51.592
1465.00,51.612
1466.00,51.606
1467.00,51.642
1468.00,51.673
1469.00,51.657
1470.00,51.661
1471.00,51.684
1472.00,51.699
1473.00,51.706
1474.00,51.720
1475.00,51.746
1476.00,51.750
1477.00,51.749
1478.00,51.773
1479.00,51.774
1480.00,51.775
1481.00,51.798
1482.00,51.840
1483.00,51.864
1484.00,51.863
1485.00,51.867
1486.00,51.871
1487.00,51.883
1488.00,51.896
1489.00,51.899
1490.00,51.933
1491.00,51.925
1492.00,51.942
1493.00,51.935
1494.00,51.963
1495.00,51.965
1496.00,51.977
1497.00,51.982
1498.00,51.991
1499.00,52.005
1500.00,52.034
1501.00, 
1502.00, 
1503.00, 
1504.00, 
1505.00, 
1506.00, 
1507.00, 
1508.00, 
1509.00, 
1510.00, 
1511.00, 
1512.00, 
1513.00, 
1514.00, 
1515.00, 
1516.00, 
1517.00, 
1518.00, 
1519.00, 
1520.00, 
1521.00, 
1522.00, 
1523.00, 
1524.00, 
1525.00, 
1526.00, 
1527.00, 
1528.00, 
1529.00, 
1530.00, 
1531.00, 
1532.00, 
1533.00, 
1534.00, 
1535.00, 
1536.00, 
1537.00, 
1538.00, 
1539.00, 
1540.00, 
1541.00, 
1542.00, 
1543.00, 
1544.00, 
1545.00, 
1546.00, 
1547.00, 
1548.00, 
1549.00, 
1550.00, 
1551.00, 
1552.00, 
1553.00, 
1554.00, 
1555.00, 
1556.00, 
1557.00, 
1558.00, 
1559.00, 
1560.00, 
1561.00, 
1562.00, 
1563.00, 
1564.00, 
1565.00, 
1566.00, 
1567.00, 
1568.00, 
1569.00, 
1570.00, 
1571.00, 
1572.00, 
1573.00, 
1574.00, 
1575.00, 
1576.00, 
1577.00, 
1578.00, 
1579.00, 
1580.00, 
1581.00, 
1582.00, 
1583.00, 
1584.00, 
1585.00, 
1586.00, 
1587.00, 
1588.00, 
1589.00, 
1590.00, 
1591.00, 
1592.00, 
1593.00, 
1594.00, 
1595.00, 
1596.00, 
1597.00, 
1598.00, 
1599.00, 
1600.00, 
1601.00, 
1602.00, 
1603.00, 
1604.00, 
1605.00, 
1606.00, 
1607.00, 
1608.00, 
1609.00, 
1610.00, 
1611.00, 
1612.00, 
1613.00, 
1614.00, 
1615.00, 
1616.00, 
1617.00, 
1618.00, 
1619.00, 
1620.00, 
1621.00, 
1622.00, 
1623.00, 
1624.00, 
1625.00, 
1626.00, 
1627.00, 
1628.00, 
1629.00, 
1630.00, 
1631.00, 
1632.00, 
1633.00, 
1634.00, 
1635.00, 
1636.00, 
1637.00, 
1638.00, 
1639.00, 
1640.00, 
1641.00, 
1642.00, 
1643.00, 
1644.00, 
1645.00, 
1646.00, 
1647.00, 
1648.00, 
1649.00, 
1650.00, 
1651.00, 
1652.00, 
1653.00, 
1654.00, 
1655.00, 
1656.00, 
1657.00, 
1658.00, 
1659.00, 
1660.00, 
1661.00, 
1662.00, 
1663.00, 
1664.00, 
1665.00, 
1666.00, 
1667.00, 
1668.00, 
1669.00, 
1670.00, 
1671.00, 
1672.00, 
1673.00, 
1674.00, 
1675.00, 
1676.00, 
1677.00, 
1678.00, 
1679.00, 
1680.00, 
1681.00, 
1682.00, 
1683.00, 
1684.00, 
1685.00, 
1686.00, 
1687.00, 
1688.00, 
1689.00, 
1690.00, 
1691.00, 
1692.00, 
1693.00, 
1694.00, 
1695.00, 
1696.00, 
1697.00, 
1698.00, 
1699.00, 
1700.00, 
1701.00, 
1702.00, 
1703.00, 
1704.00, 
1705.00, 
1706.00, 
1707.00, 
1708.00, 
1709.00, 
1710.00, 
1711.00, 
1712.00, 
1713.00, 
1714.00, 
1715.00, 
1716.00, 
1717.00, 
1718.00, 
1719.00, 
1720.00, 
1721.00, 
1722.00, 
1723.00, 
1724.00, 
1725.00, 
1726.00, 
1727.00, 
1728.00, 
1729.00, 
1730.00, 
1731.00, 
1732.00, 
1733.00, 
1734.00, 
1735.00, 
1736.00, 
1737.00, 
1738.00, 
1739.00, 
1740.00, 
1741.00, 
1742.00, 
1743.00, 
1744.00, 
1745.00, 
1746.00, 
1747.00, 
1748.00, 
1749.00, 
1750.00, 
1751.00, 
1752.00, 
1753.00, 
1754.00, 
1755.00, 
1756.00, 
1757.00, 
1758.00, 
1759.00, 
1760.00, 
1761.00, 
1762.00, 
1763.00, 
1764.00, 
1765.00, 
1766.00, 
1767.00, 
1768.00, 
1769.00, 
1770.00, 
1771.00, 
1772.00, 
1773.00, 
1774.00, 
1775.00, 
1776.00, 
1777.00, 
1778.00, 
1779.00, 
1780.00, 
1781.00, 
1782.00, 
1783.00, 
1784.00, 
1785.00, 
1786.00, 
1787.00, 
1788.00, 
1789.00, 
1790.00, 
1791.00, 
1792.00, 
1793.00, 
1794.00, 
1795.00, 
1796.00, 
1797.00, 
1798.00, 
1799.00, 
1800.00, 
1801.00, 
1802.00, 
1803.00, 
1804.00, 
1805.00, 
1806.00, 
1807.00, 
1808.00, 
1809.00, 
1810.00, 
1811.00, 
1812.00, 
1813.00, 
1814.00, 
1815.00, 
1816.00, 
1817.00, 
1818.00, 
1819.00, 
1820.00, 
1821.00, 
1822.00, 
1823.00, 
1824.00, 
1825.00, 
1826.00, 
1827.00, 
1828.00, 
1829.00, 
1830.00, 
1831.00, 
1832.00, 
1833.00, 
1834.00, 
1835.00, 
1836.00, 
1837.00, 
1838.00, 
1839.00, 
1840.00, 
1841.00, 
1842.00, 
1843.00, 
1844.00, 
1845.00, 
1846.00, 
1847.00, 
1848.00, 
1849.00, 
1850.00, 
1851.00, 
1852.00, 
1853.00, 
1854.00, 
1855.00, 
1856.00, 
1857.00, 
1858.00, 
1859.00, 
1860.00, 
1861.00, 
1862.00, 
1863.00, 
1864.00, 
1865.00, 
1866.00, 
1867.00, 
1868.00, 
1869.00, 
1870.00, 
1871.00, 
1872.00, 
1873.00, 
1874.00, 
1875.00, 
1876.00, 
1877.00, 
1878.00, 
1879.00, 
1880.00, 
1881.00, 
1882.00, 
1883.00, 
1884.00, 
1885.00, 
1886.00, 
1887.00, 
1888.00, 
1889.00, 
1890.00, 
1891.00, 
1892.00, 
1893.00, 
1894.00, 
1895.00, 
1896.00, 
1897.00, 
1898.00, 
1899.00, 
1900.00, 
1901.00, 
1902.00, 
1903.00, 
1904.00, 
1905.00, 
1906.00, 
1907.00, 
1908.00, 
1909.00, 
1910.00, 
1911.00, 
1912.00, 
1913.00, 
1914.00, 
1915.00, 
1916.00, 
1917.00, 
1918.00, 
1919.00, 
1920.00, 
1921.00, 
1922.00, 
1923.00, 
1924.00, 
1925.00, 
1926.00, 
1927.00, 
1928.00, 
1929.00, 
1930.00, 
1931.00, 
1932.00, 
1933.00, 
1934.00, 
1935.00, 
1936.00, 
1937.00, 
1938.00, 
1939.00, 
1940.00, 
1941.00, 
1942.00, 
1943.00, 
1944.00, 
1945.00, 
1946.00, 
1947.00, 
1948.00, 
1949.00, 
1950.00, 
1951.00, 
1952.00, 
1953.00, 
1954.00, 
1955.00, 
1956.00, 
1957.00, 
1958.00, 
1959.00, 
1960.00, 
1961.00, 
1962.00, 
1963.00, 
1964.00, 
1965.00, 
1966.00, 
1967.00, 
1968.00, 
1969.00, 
1970.00, 
1971.00, 
1972.00, 
1973.00, 
1974.00, 
1975.00, 
1976.00, 
1977.00, 
1978.00, 
1979.00, 
1980.00, 
1981.00, 
1982.00, 
1983.00, 
1984.00, 
1985.00, 
1986.00, 
1987.00, 
1988.00, 
1989.00, 
1990.00, 
1991.00, 
1992.00, 
1993.00, 
1994.00, 
1995.00, 
1996.00, 
1997.00, 
1998.00, 
1999.00, 
2000.00, 
2001.00, 
2002.00, 
2003.00, 
2004.00, 
2005.00, 
2006.00, 
2007.00, 
2008.00, 
2009.00, 
2010.00, 
2011.00, 
2012.00, 
2013.00, 
2014.00, 
2015.00, 
2016.00, 
2017.00, 
2018.00, 
2019.00, 
2020.00, 
2021.00, 
2022.00, 
2023.00, 
2024.00, 
2025.00, 
2026.00, 
2027.00, 
2028.00, 
2029.00, 
2030.00, 
2031.00, 
2032.00, 
2033.00, 
2034.00, 
2035.00, 
2036.00, 
2037.00, 
2038.00, 
2039.00, 
2040.00, 
2041.00, 
2042.00, 
2043.00, 
2044.00, 
2045.00, 
2046.00, 
2047.00, 
2048.00, 
2049.00, 
2050.00, 
2051.00, 
2052.00, 
2053.00, 
2054.00, 
2055.00, 
2056.00, 
2057.00, 
2058.00, 
2059.00, 
2060.00, 
2061.00, 
2062.00, 
2063.00, 
2064.00, 
2065.00, 
2066.00, 
2067.00, 
2068.00, 
2069.00, 
2070.00, 
2071.00, 
2072.00, 
2073.00, 
2074.00, 
2075.00, 
2076.00, 
2077.00, 
2078.00, 
2079.00, 
2080.00, 
2081.00, 
2082.00, 
2083.00, 
2084.00, 
2085.00, 
2086.00, 
2087.00, 
2088.00, 
2089.00, 
2090.00, 
2091.00, 
2092.00, 
2093.00, 
2094.00, 
2095.00, 
2096.00, 
2097.00, 
2098.00, 
2099.00, 
2100.00, 
2101.00, 
2102.00, 
2103.00, 
2104.00, 
2105.00, 
2106.00, 
2107.00, 
2108.00, 
2109.00, 
2110.00, 
2111.00, 
2112.00, 
2113.00, 
2114.00, 
2115.00, 
2116.00, 
2117.00, 
2118.00, 
2119.00, 
2120.00, 
2121.00, 
2122.00, 
2123.00, 
2124.00, 
2125.00, 
2126.00, 
2127.00, 
2128.00, 
2129.00, 
2130.00, 
2131.00, 
2132.00, 
2133.00, 
2134.00, 
2135.00, 
2136.00, 
2137.00, 
2138.00, 
2139.00, 
2140.00, 
2141.00, 
2142.00, 
2143.00, 
2144.00, 
2145.00, 
2146.00, 
2147.00, 
2148.00, 
2149.00, 
2150.00, 
2151.00, 
2152.00, 
2153.00, 
2154.00, 
2155.00, 
2156.00, 
2157.00, 
2158.00, 
2159.00, 
2160.00, 
2161.00, 
2162.00, 
2163.00, 
2164.00, 
2165.00, 
2166.00, 
2167.00, 
2168.00, 
2169.00, 
2170.00, 
2171.00, 
2172.00, 
2173.00, 
2174.00, 
2175.00, 
2176.00, 
2177.00, 
2178.00, 
2179.00, 
2180.00, 
2181.00, 
2182.00, 
2183.00, 
2184.00, 
2185.00, 
2186.00, 
2187.00, 
2188.00, 
2189.00, 
2190.00, 
2191.00, 
2192.00, 
2193.00, 
2194.00, 
2195.00, 
2196.00, 
2197.00, 
2198.00, 
2199.00, 
2200.00, 
2201.00, 
2202.00, 
2203.00, 
2204.00, 
2205.00, 
2206.00, 
2207.00, 
2208.00, 
2209.00, 
2210.00, 
2211.00, 
2212.00, 
2213.00, 
2214.00, 
2215.00, 
2216.00, 
2217.00, 
2218.00, 
2219.00, 
2220.00, 
2221.00, 
2222.00, 
2223.00, 
2224.00, 
2225.00, 
2226.00, 
2227.00, 
2228.00, 
2229.00, 
2230.00, 
2231.00, 
2232.00, 
2233.00, 
2234.00, 
2235.00, 
2236.00, 
2237.00, 
2238.00, 
2239.00, 
2240.00, 
2241.00, 
2242.00, 
2243.00, 
2244.00, 
2245.00, 
2246.00, 
2247.00, 
2248.00, 
2249.00, 
2250.00, 
2251.00, 
2252.00, 
2253.00, 
2254.00, 
2255.00, 
2256.00, 
2257.00, 
2258.00, 
2259.00, 
2260.00, 
2261.00, 
2262.00, 
2263.00, 
2264.00, 
2265.00, 
2266.00, 
2267.00, 
2268.00, 
2269.00, 
2270.00, 
2271.00, 
2272.00, 
2273.00, 
2274.00, 
2275.00, 
2276.00, 
2277.00, 
2278.00, 
2279.00, 
2280.00, 
2281.00, 
2282.00, 
2283.00, 
2284.00, 
2285.00, 
2286.00, 
2287.00, 
2288.00, 
2289.00, 
2290.00, 
2291.00, 
2292.00, 
2293.00, 
2294.00, 
2295.00, 
2296.00, 
2297.00, 
2298.00, 
2299.00, 
2300.00, 
2301.00, 
2302.00, 
2303.00, 
2304.00, 
2305.00, 
2306.00, 
2307.00, 
2308.00, 
2309.00, 
2310.00, 
2311.00, 
2312.00, 
2313.00, 
2314.00, 
2315.00, 
2316.00, 
2317.00, 
2318.00, 
2319.00, 
2320.00, 
2321.00, 
2322.00, 
2323.00, 
2324.00, 
2325.00, 
2326.00, 
2327.00, 
2328.00, 
2329.00, 
2330.00, 
2331.00, 
2332.00, 
2333.00, 
2334.00, 
2335.00, 
2336.00, 
2337.00, 
2338.00, 
2339.00, 
2340.00, 
2341.00, 
2342.00, 
2343.00, 
2344.00, 
2345.00, 
2346.00, 
2347.00, 
2348.00, 
2349.00, 
2350.00, 
2351.00, 
2352.00, 
2353.00, 
2354.00, 
2355.00, 
2356.00, 
2357.00, 
2358.00, 
2359.00, 
2360.00, 
2361.00, 
2362.00, 
2363.00, 
2364.00, 
2365.00, 
2366.00, 
2367.00, 
2368.00, 
2369.00, 
2370.00, 
2371.00, 
2372.00, 
2373.00, 
2374.00, 
2375.00, 
2376.00, 
2377.00, 
2378.00, 
2379.00, 
2380.00, 
2381.00, 
2382.00, 
2383.00, 
2384.00, 
2385.00, 
2386.00, 
2387.00, 
2388.00, 
2389.00, 
2390.00, 
2391.00, 
2392.00, 
2393.00, 
2394.00, 
2395.00, 
2396.00, 
2397.00, 
2398.00, 
2399.00, 
2400.00, 
2401.00, 
2402.00, 
2403.00, 
2404.00, 
2405.00, 
2406.00, 
2407.00, 
2408.00, 
2409.00, 
2410.00, 
2411.00, 
2412.00, 
2413.00, 
2414.00, 
2415.00, 
2416.00, 
2417.00, 
2418.00, 
2419.00, 
2420.00, 
2421.00, 
2422.00, 
2423.00, 
2424.00, 
2425.00, 
2426.00, 
2427.00, 
2428.00, 
2429.00, 
2430.00, 
2431.00, 
2432.00, 
2433.00, 
2434.00, 
2435.00, 
2436.00, 
2437.00, 
2438.00, 
2439.00, 
2440.00, 
2441.00, 
2442.00, 
2443.00, 
2444.00, 
2445.00, 
2446.00, 
2447.00, 
2448.00, 
2449.00, 
2450.00, 
2451.00, 
2452.00, 
2453.00, 
2454.00, 
2455.00, 
2456.00, 
2457.00, 
2458.00, 
2459.00, 
2460.00, 
2461.00, 
2462.00, 
2463.00, 
2464.00, 
2465.00, 
2466.00, 
2467.00, 
2468.00, 
2469.00, 
2470.00, 
2471.00, 
2472.00, 
2473.00, 
2474.00, 
2475.00, 
2476.00, 
2477.00, 
2478.00, 
2479.00, 
2480.00, 
2481.00, 
2482.00, 
2483.00, 
2484.00, 
2485.00, 
2486.00, 
2487.00, 
2488.00, 
2489.00, 
2490.00, 
2491.00, 
2492.00, 
2493.00, 
2494.00, 
2495.00, 
2496.00, 
2497.00, 
2498.00, 
2499.00, 
2500.00, 
2501.00, 
2502.00, 
2503.00, 
2504.00, 
2505.00, 
2506.00, 
2507.00, 
2508.00, 
2509.00, 
2510.00, 
2511.00, 
2512.00, 
2513.00, 
2514.00, 
2515.00, 
2516.00, 
2517.00, 
2518.00, 
2519.00, 
2520.00, 
2521.00, 
2522.00, 
2523.00, 
2524.00, 
2525.00, 
2526.00, 
2527.00, 
2528.00, 
2529.00, 
2530.00, 
2531.00, 
2532.00, 
2533.00, 
2534.00, 
2535.00, 
2536.00, 
2537.00, 
2538.00, 
2539.00, 
2540.00, 
2541.00, 
2542.00, 
2543.00, 
2544.00, 
2545.00, 
2546.00, 
2547.00, 
2548.00, 
2549.00, 
2550.00, 
2551.00, 
2552.00, 
2553.00, 
2554.00, 
2555.00, 
2556.00, 
2557.00, 
2558.00, 
2559.00, 
2560.00, 
2561.00, 
2562.00, 
2563.00, 
2564.00, 
2565.00, 
2566.00, 
2567.00, 
2568.00, 
2569.00, 
2570.00, 
2571.00, 
2572.00, 
2573.00, 
2574.00, 
2575.00, 
2576.00, 
2577.00, 
2578.00, 
2579.00, 
2580.00, 
2581.00, 
2582.00, 
2583.00, 
2584.00, 
2585.00, 
2586.00, 
2587.00, 
2588.00, 
2589.00, 
2590.00, 
2591.00, 
2592.00, 
2593.00, 
2594.00, 
2595.00, 
2596.00, 
2597.00, 
2598.00, 
2599.00, 
2600.00, 
