"1bP2 - RawData"
"Wavelength nm.","T%"
200.00,-0.001
201.00,0.003
202.00,0.003
203.00,0.002
204.00,-0.001
205.00,0.005
206.00,0.003
207.00,0.003
208.00,0.003
209.00,0.000
210.00,0.003
211.00,0.004
212.00,0.001
213.00,0.003
214.00,0.002
215.00,0.003
216.00,0.001
217.00,-0.000
218.00,0.003
219.00,0.003
220.00,0.002
221.00,0.002
222.00,0.003
223.00,0.001
224.00,0.002
225.00,0.002
226.00,0.001
227.00,0.001
228.00,0.001
229.00,0.000
230.00,-0.002
231.00,0.002
232.00,-0.002
233.00,0.001
234.00,0.001
235.00,0.001
236.00,0.001
237.00,0.000
238.00,0.002
239.00,0.001
240.00,0.001
241.00,0.001
242.00,0.000
243.00,0.000
244.00,0.002
245.00,0.001
246.00,0.001
247.00,-0.000
248.00,0.002
249.00,0.001
250.00,0.001
251.00,0.002
252.00,0.000
253.00,0.000
254.00,0.002
255.00,0.001
256.00,0.000
257.00,0.002
258.00,0.001
259.00,0.002
260.00,-0.001
261.00,0.001
262.00,0.001
263.00,0.000
264.00,0.001
265.00,0.001
266.00,0.002
267.00,-0.000
268.00,0.001
269.00,0.000
270.00,-0.000
271.00,-0.002
272.00,-0.000
273.00,-0.000
274.00,-0.001
275.00,0.001
276.00,0.001
277.00,0.001
278.00,-0.000
279.00,-0.000
280.00,-0.000
281.00,0.000
282.00,0.002
283.00,0.002
284.00,0.002
285.00,-0.001
286.00,-0.000
287.00,-0.001
288.00,0.001
289.00,0.001
290.00,0.001
291.00,-0.001
292.00,0.000
293.00,0.001
294.00,0.001
295.00,0.001
296.00,0.001
297.00,0.001
298.00,0.001
299.00,0.004
300.00,0.004
301.00,0.007
302.00,0.011
303.00,0.016
304.00,0.026
305.00,0.042
306.00,0.065
307.00,0.095
308.00,0.146
309.00,0.227
310.00,0.315
311.00,0.423
312.00,0.567
313.00,0.754
314.00,0.989
315.00,1.275
316.00,1.603
317.00,2.009
318.00,2.448
319.00,2.989
320.00,3.605
321.00,4.269
322.00,5.040
323.00,5.877
324.00,6.757
325.00,7.638
326.00,8.581
327.00,9.571
328.00,10.674
329.00,11.678
330.00,12.773
331.00,13.935
332.00,15.075
333.00,16.198
334.00,17.237
335.00,18.171
336.00,19.495
337.00,20.549
338.00,21.649
339.00,22.663
340.00,23.606
341.00,24.553
342.00,25.292
343.00,26.361
344.00,27.234
345.00,27.876
346.00,28.753
347.00,29.467
348.00,30.176
349.00,30.783
350.00,31.307
351.00,31.850
352.00,32.231
353.00,32.892
354.00,33.332
355.00,33.700
356.00,34.204
357.00,34.645
358.00,34.940
359.00,35.236
360.00,35.448
361.00,35.729
362.00,35.932
363.00,36.205
364.00,36.473
365.00,36.703
366.00,36.859
367.00,36.985
368.00,37.165
369.00,37.147
370.00,37.260
371.00,37.425
372.00,37.384
373.00,37.356
374.00,37.353
375.00,37.464
376.00,37.315
377.00,37.338
378.00,37.313
379.00,37.270
380.00,37.207
381.00,37.242
382.00,37.285
383.00,37.311
384.00,37.391
385.00,37.516
386.00,37.535
387.00,37.598
388.00,37.694
389.00,37.814
390.00,37.848
391.00,37.890
392.00,37.990
393.00,38.059
394.00,38.064
395.00,38.116
396.00,38.212
397.00,38.193
398.00,38.215
399.00,38.279
400.00,38.315
401.00,38.318
402.00,38.325
403.00,38.394
404.00,38.336
405.00,38.302
406.00,38.303
407.00,38.257
408.00,38.304
409.00,38.260
410.00,38.155
411.00,38.169
412.00,38.143
413.00,38.193
414.00,38.222
415.00,38.194
416.00,38.139
417.00,38.249
418.00,38.214
419.00,38.231
420.00,38.205
421.00,38.305
422.00,38.381
423.00,38.390
424.00,38.376
425.00,38.405
426.00,38.435
427.00,38.438
428.00,38.511
429.00,38.516
430.00,38.589
431.00,38.644
432.00,38.612
433.00,38.698
434.00,38.717
435.00,38.775
436.00,38.825
437.00,38.868
438.00,38.905
439.00,38.956
440.00,39.006
441.00,39.073
442.00,39.182
443.00,39.165
444.00,39.263
445.00,39.315
446.00,39.354
447.00,39.506
448.00,39.493
449.00,39.638
450.00,39.683
451.00,39.788
452.00,39.917
453.00,39.981
454.00,40.069
455.00,40.077
456.00,40.141
457.00,40.332
458.00,40.381
459.00,40.483
460.00,40.537
461.00,40.620
462.00,40.775
463.00,40.791
464.00,40.947
465.00,41.005
466.00,41.101
467.00,41.198
468.00,41.260
469.00,41.389
470.00,41.372
471.00,41.464
472.00,41.560
473.00,41.579
474.00,41.669
475.00,41.803
476.00,41.855
477.00,41.951
478.00,41.993
479.00,42.071
480.00,42.180
481.00,42.290
482.00,42.386
483.00,42.466
484.00,42.551
485.00,42.743
486.00,42.829
487.00,42.926
488.00,43.051
489.00,43.139
490.00,43.221
491.00,43.347
492.00,43.416
493.00,43.435
494.00,43.523
495.00,43.562
496.00,43.649
497.00,43.719
498.00,43.865
499.00,43.947
500.00,43.939
501.00,44.082
502.00,44.121
503.00,44.190
504.00,44.352
505.00,44.401
506.00,44.496
507.00,44.525
508.00,44.571
509.00,44.750
510.00,44.728
511.00,44.885
512.00,44.858
513.00,44.890
514.00,45.121
515.00,45.209
516.00,45.241
517.00,45.417
518.00,45.414
519.00,45.456
520.00,45.546
521.00,45.545
522.00,45.661
523.00,45.786
524.00,45.739
525.00,45.774
526.00,45.890
527.00,45.958
528.00,46.002
529.00,46.015
530.00,45.950
531.00,46.110
532.00,46.100
533.00,46.182
534.00,46.242
535.00,46.258
536.00,46.351
537.00,46.302
538.00,46.376
539.00,46.565
540.00,46.537
541.00,46.576
542.00,46.595
543.00,46.614
544.00,46.712
545.00,46.612
546.00,46.693
547.00,46.740
548.00,46.713
549.00,46.775
550.00,46.861
551.00,46.857
552.00,46.938
553.00,47.081
554.00,47.169
555.00,47.174
556.00,47.173
557.00,47.195
558.00,47.135
559.00,47.278
560.00,47.305
561.00,47.311
562.00,47.376
563.00,47.380
564.00,47.409
565.00,47.414
566.00,47.411
567.00,47.426
568.00,47.465
569.00,47.425
570.00,47.438
571.00,47.499
572.00,47.491
573.00,47.584
574.00,47.613
575.00,47.621
576.00,47.591
577.00,47.620
578.00,47.605
579.00,47.587
580.00,47.666
581.00,47.746
582.00,47.762
583.00,47.763
584.00,48.016
585.00,47.991
586.00,47.918
587.00,48.014
588.00,48.085
589.00,48.162
590.00,48.105
591.00,48.030
592.00,48.136
593.00,48.140
594.00,48.087
595.00,48.110
596.00,48.172
597.00,48.218
598.00,48.292
599.00,48.264
600.00,48.308
601.00,48.362
602.00,48.359
603.00,48.499
604.00,48.424
605.00,48.489
606.00,48.552
607.00,48.500
608.00,48.439
609.00,48.304
610.00,48.396
611.00,48.513
612.00,48.528
613.00,48.481
614.00,48.515
615.00,48.429
616.00,48.449
617.00,48.570
618.00,48.627
619.00,48.632
620.00,48.556
621.00,48.600
622.00,48.589
623.00,48.635
624.00,48.788
625.00,48.767
626.00,48.735
627.00,48.758
628.00,48.838
629.00,48.836
630.00,48.858
631.00,48.840
632.00,48.882
633.00,48.922
634.00,48.890
635.00,48.965
636.00,49.035
637.00,49.205
638.00,49.248
639.00,49.175
640.00,49.248
641.00,49.189
642.00,49.187
643.00,49.250
644.00,49.374
645.00,49.308
646.00,49.343
647.00,49.347
648.00,49.499
649.00,49.645
650.00,49.493
651.00,49.514
652.00,49.535
653.00,49.748
654.00,49.696
655.00,49.503
656.00,49.477
657.00,50.027
658.00,49.800
659.00,49.687
660.00,49.822
661.00,49.850
662.00,50.072
663.00,49.940
664.00,49.923
665.00,49.883
666.00,49.953
667.00,50.234
668.00,50.243
669.00,50.035
670.00,50.016
671.00,50.230
672.00,50.048
673.00,50.291
674.00,50.375
675.00,50.279
676.00,50.219
677.00,50.128
678.00,50.346
679.00,50.348
680.00,50.338
681.00,50.313
682.00,50.581
683.00,50.597
684.00,50.701
685.00,50.818
686.00,50.747
687.00,50.704
688.00,50.772
689.00,50.583
690.00,50.642
691.00,50.571
692.00,50.658
693.00,50.801
694.00,50.633
695.00,50.373
696.00,50.563
697.00,50.968
698.00,50.951
699.00,50.792
700.00,51.144
701.00,51.167
702.00,51.050
703.00,51.087
704.00,51.112
705.00,51.165
706.00,51.423
707.00,51.168
708.00,50.929
709.00,51.080
710.00,51.198
711.00,51.206
712.00,51.127
713.00,51.094
714.00,51.012
715.00,51.209
716.00,51.302
717.00,51.060
718.00,51.057
719.00,51.194
720.00,51.240
721.00,55.682
722.00,55.740
723.00,55.773
724.00,55.638
725.00,55.560
726.00,55.577
727.00,55.477
728.00,55.454
729.00,55.471
730.00,55.529
731.00,55.400
732.00,55.446
733.00,55.425
734.00,55.385
735.00,55.312
736.00,55.343
737.00,55.384
738.00,55.334
739.00,55.193
740.00,55.237
741.00,55.350
742.00,55.199
743.00,55.267
744.00,55.257
745.00,55.123
746.00,55.094
747.00,55.091
748.00,55.067
749.00,55.001
750.00,54.974
751.00,54.860
752.00,54.959
753.00,54.844
754.00,54.828
755.00,54.756
756.00,54.815
757.00,54.718
758.00,54.687
759.00,54.683
760.00,54.608
761.00,54.630
762.00,54.626
763.00,54.642
764.00,54.579
765.00,54.559
766.00,54.592
767.00,54.623
768.00,54.561
769.00,54.365
770.00,54.494
771.00,54.484
772.00,54.439
773.00,54.409
774.00,54.378
775.00,54.467
776.00,54.312
777.00,54.362
778.00,54.272
779.00,54.332
780.00,54.216
781.00,54.303
782.00,54.220
783.00,54.152
784.00,54.182
785.00,54.090
786.00,54.103
787.00,54.100
788.00,54.057
789.00,54.030
790.00,54.041
791.00,54.008
792.00,53.923
793.00,53.927
794.00,53.960
795.00,53.897
796.00,53.918
797.00,53.806
798.00,53.813
799.00,53.794
800.00,53.727
801.00,53.732
802.00,53.678
803.00,53.703
804.00,53.557
805.00,53.530
806.00,53.495
807.00,53.562
808.00,53.501
809.00,53.475
810.00,53.547
811.00,53.364
812.00,53.455
813.00,53.371
814.00,53.407
815.00,53.356
816.00,53.301
817.00,53.370
818.00,53.208
819.00,53.306
820.00,53.244
821.00,53.232
822.00,53.242
823.00,53.083
824.00,53.146
825.00,53.036
826.00,52.998
827.00,53.064
828.00,53.141
829.00,53.043
830.00,52.963
831.00,55.685
832.00,55.678
833.00,55.667
834.00,55.633
835.00,55.576
836.00,55.577
837.00,55.537
838.00,55.545
839.00,55.491
840.00,55.459
841.00,55.464
842.00,55.403
843.00,55.407
844.00,55.405
845.00,55.355
846.00,55.335
847.00,55.285
848.00,55.259
849.00,55.251
850.00,55.198
851.00,55.160
852.00,55.152
853.00,55.141
854.00,55.060
855.00,55.019
856.00,54.978
857.00,54.975
858.00,55.004
859.00,54.950
860.00,54.925
861.00,54.920
862.00,54.913
863.00,54.861
864.00,54.866
865.00,54.893
866.00,54.868
867.00,54.793
868.00,54.839
869.00,54.806
870.00,54.787
871.00,54.767
872.00,54.807
873.00,54.747
874.00,54.764
875.00,54.762
876.00,54.758
877.00,54.645
878.00,54.656
879.00,54.855
880.00,54.646
881.00,54.638
882.00,54.642
883.00,54.609
884.00,54.555
885.00,54.537
886.00,54.542
887.00,54.521
888.00,54.430
889.00,54.432
890.00,54.466
891.00,54.424
892.00,54.365
893.00,54.366
894.00,54.358
895.00,54.334
896.00,54.319
897.00,54.325
898.00,54.283
899.00,54.276
900.00,54.226
901.00,54.262
902.00,54.222
903.00,54.242
904.00,54.206
905.00,54.190
906.00,54.134
907.00,54.256
908.00,54.088
909.00,54.088
910.00,54.078
911.00,54.043
912.00,54.050
913.00,54.015
914.00,53.973
915.00,53.993
916.00,53.928
917.00,53.887
918.00,53.918
919.00,53.883
920.00,53.848
921.00,53.840
922.00,53.852
923.00,53.799
924.00,53.784
925.00,53.786
926.00,53.765
927.00,53.716
928.00,53.793
929.00,53.684
930.00,53.686
931.00,53.654
932.00,53.649
933.00,53.620
934.00,53.596
935.00,53.562
936.00,53.588
937.00,53.578
938.00,53.589
939.00,53.525
940.00,53.505
941.00,53.495
942.00,53.455
943.00,53.445
944.00,53.426
945.00,53.408
946.00,53.393
947.00,53.368
948.00,53.335
949.00,53.384
950.00,53.320
951.00,53.330
952.00,53.283
953.00,53.258
954.00,53.221
955.00,53.216
956.00,53.175
957.00,53.147
958.00,53.147
959.00,53.120
960.00,53.072
961.00,53.062
962.00,53.092
963.00,53.044
964.00,53.039
965.00,53.022
966.00,53.022
967.00,52.992
968.00,53.012
969.00,52.985
970.00,52.989
971.00,53.025
972.00,52.939
973.00,52.995
974.00,53.004
975.00,53.015
976.00,53.000
977.00,53.011
978.00,53.024
979.00,52.964
980.00,52.994
981.00,53.015
982.00,53.009
983.00,52.975
984.00,53.009
985.00,52.994
986.00,52.982
987.00,52.982
988.00,52.916
989.00,52.933
990.00,52.936
991.00,52.928
992.00,52.929
993.00,52.890
994.00,52.882
995.00,52.877
996.00,52.874
997.00,52.856
998.00,52.856
999.00,52.837
1000.00,52.798
1001.00,52.811
1002.00,52.772
1003.00,52.782
1004.00,52.769
1005.00,52.737
1006.00,52.754
1007.00,52.737
1008.00,52.721
1009.00,52.716
1010.00,52.749
1011.00,52.689
1012.00,52.685
1013.00,52.677
1014.00,52.661
1015.00,52.683
1016.00,52.622
1017.00,52.644
1018.00,52.606
1019.00,52.609
1020.00,52.582
1021.00,52.563
1022.00,52.542
1023.00,52.522
1024.00,52.518
1025.00,52.545
1026.00,52.516
1027.00,52.465
1028.00,52.478
1029.00,52.434
1030.00,52.449
1031.00,52.412
1032.00,52.367
1033.00,52.383
1034.00,52.352
1035.00,52.323
1036.00,52.305
1037.00,52.333
1038.00,52.286
1039.00,52.243
1040.00,52.228
1041.00,52.215
1042.00,52.224
1043.00,52.147
1044.00,52.215
1045.00,52.185
1046.00,52.183
1047.00,52.191
1048.00,52.234
1049.00,52.231
1050.00,52.228
1051.00,52.246
1052.00,52.269
1053.00,52.262
1054.00,52.268
1055.00,52.297
1056.00,52.294
1057.00,52.288
1058.00,52.297
1059.00,52.286
1060.00,52.258
1061.00,52.263
1062.00,52.254
1063.00,52.265
1064.00,52.244
1065.00,52.260
1066.00,52.245
1067.00,52.256
1068.00,52.237
1069.00,52.235
1070.00,52.264
1071.00,52.245
1072.00,52.221
1073.00,52.194
1074.00,52.208
1075.00,52.182
1076.00,52.172
1077.00,52.175
1078.00,52.174
1079.00,52.147
1080.00,52.173
1081.00,52.169
1082.00,52.165
1083.00,52.137
1084.00,52.146
1085.00,52.139
1086.00,52.122
1087.00,52.091
1088.00,52.114
1089.00,52.080
1090.00,52.050
1091.00,52.080
1092.00,52.097
1093.00,52.030
1094.00,52.020
1095.00,52.026
1096.00,52.029
1097.00,51.991
1098.00,52.000
1099.00,52.007
1100.00,52.000
1101.00,51.947
1102.00,51.984
1103.00,51.997
1104.00,51.947
1105.00,51.936
1106.00,51.957
1107.00,51.947
1108.00,51.936
1109.00,51.924
1110.00,51.938
1111.00,51.906
1112.00,51.885
1113.00,51.901
1114.00,51.913
1115.00,51.882
1116.00,51.882
1117.00,51.857
1118.00,51.867
1119.00,51.853
1120.00,51.850
1121.00,51.844
1122.00,51.824
1123.00,51.789
1124.00,51.845
1125.00,51.842
1126.00,51.796
1127.00,51.807
1128.00,51.814
1129.00,51.774
1130.00,51.752
1131.00,51.766
1132.00,51.761
1133.00,51.751
1134.00,51.726
1135.00,51.750
1136.00,51.757
1137.00,51.713
1138.00,51.739
1139.00,51.765
1140.00,51.752
1141.00,51.734
1142.00,51.745
1143.00,51.751
1144.00,51.732
1145.00,51.698
1146.00,51.754
1147.00,51.758
1148.00,51.692
1149.00,51.729
1150.00,51.746
1151.00,51.735
1152.00,51.705
1153.00,51.721
1154.00,51.725
1155.00,51.710
1156.00,51.691
1157.00,51.735
1158.00,51.690
1159.00,51.686
1160.00,51.692
1161.00,51.716
1162.00,51.697
1163.00,51.699
1164.00,51.707
1165.00,51.707
1166.00,51.679
1167.00,51.665
1168.00,51.709
1169.00,51.685
1170.00,51.662
1171.00,51.682
1172.00,51.672
1173.00,51.654
1174.00,51.658
1175.00,51.644
1176.00,51.666
1177.00,51.660
1178.00,51.648
1179.00,51.681
1180.00,51.671
1181.00,51.665
1182.00,51.681
1183.00,51.691
1184.00,51.657
1185.00,51.688
1186.00,51.664
1187.00,51.683
1188.00,51.648
1189.00,51.651
1190.00,51.642
1191.00,51.653
1192.00,51.650
1193.00,51.652
1194.00,51.676
1195.00,51.657
1196.00,51.673
1197.00,51.679
1198.00,51.685
1199.00,51.661
1200.00,51.663
1201.00,51.692
1202.00,51.676
1203.00,51.672
1204.00,51.676
1205.00,51.684
1206.00,51.659
1207.00,51.676
1208.00,51.659
1209.00,51.684
1210.00,51.670
1211.00,51.677
1212.00,51.708
1213.00,51.642
1214.00,51.662
1215.00,51.643
1216.00,51.647
1217.00,51.655
1218.00,51.659
1219.00,51.664
1220.00,51.646
1221.00,51.672
1222.00,51.642
1223.00,51.695
1224.00,51.671
1225.00,51.639
1226.00,51.651
1227.00,51.647
1228.00,51.651
1229.00,51.703
1230.00,51.720
1231.00,51.700
1232.00,51.720
1233.00,51.713
1234.00,51.738
1235.00,51.708
1236.00,51.735
1237.00,51.708
1238.00,51.716
1239.00,51.739
1240.00,51.706
1241.00,51.715
1242.00,51.712
1243.00,51.746
1244.00,51.717
1245.00,51.733
1246.00,51.743
1247.00,51.746
1248.00,51.741
1249.00,51.731
1250.00,51.738
1251.00,51.741
1252.00,51.747
1253.00,51.740
1254.00,51.755
1255.00,51.737
1256.00,51.754
1257.00,51.760
1258.00,51.771
1259.00,51.762
1260.00,51.787
1261.00,51.789
1262.00,51.805
1263.00,51.776
1264.00,51.809
1265.00,51.806
1266.00,51.820
1267.00,51.836
1268.00,51.835
1269.00,51.820
1270.00,51.851
1271.00,51.828
1272.00,51.841
1273.00,51.852
1274.00,51.849
1275.00,51.844
1276.00,51.866
1277.00,51.868
1278.00,51.882
1279.00,51.869
1280.00,51.858
1281.00,51.897
1282.00,51.882
1283.00,51.873
1284.00,51.946
1285.00,51.891
1286.00,51.900
1287.00,51.905
1288.00,51.923
1289.00,51.886
1290.00,51.912
1291.00,51.910
1292.00,51.903
1293.00,51.906
1294.00,51.929
1295.00,51.954
1296.00,51.929
1297.00,51.962
1298.00,51.984
1299.00,51.938
1300.00,51.980
1301.00,51.975
1302.00,51.980
1303.00,51.970
1304.00,51.944
1305.00,51.989
1306.00,51.980
1307.00,52.000
1308.00,52.018
1309.00,52.019
1310.00,52.034
1311.00,52.037
1312.00,52.056
1313.00,52.022
1314.00,52.042
1315.00,52.046
1316.00,52.077
1317.00,52.074
1318.00,52.064
1319.00,52.070
1320.00,52.084
1321.00,52.225
1322.00,52.262
1323.00,52.233
1324.00,52.229
1325.00,52.214
1326.00,52.247
1327.00,52.200
1328.00,52.212
1329.00,52.206
1330.00,52.227
1331.00,52.172
1332.00,52.199
1333.00,52.205
1334.00,52.231
1335.00,52.218
1336.00,52.322
1337.00,52.340
1338.00,52.366
1339.00,52.419
1340.00,52.495
1341.00,52.569
1342.00,52.583
1343.00,52.652
1344.00,52.715
1345.00,52.730
1346.00,52.717
1347.00,52.784
1348.00,52.849
1349.00,52.810
1350.00,52.833
1351.00,52.893
1352.00,52.886
1353.00,52.827
1354.00,52.901
1355.00,52.926
1356.00,52.984
1357.00,52.838
1358.00,52.826
1359.00,52.900
1360.00,52.971
1361.00,53.530
1362.00,52.945
1363.00,52.697
1364.00,53.053
1365.00,53.024
1366.00,52.956
1367.00,53.022
1368.00,52.838
1369.00,52.881
1370.00,52.937
1371.00,52.980
1372.00,52.902
1373.00,52.905
1374.00,52.913
1375.00,52.877
1376.00,52.922
1377.00,52.860
1378.00,52.987
1379.00,52.861
1380.00,52.967
1381.00,52.922
1382.00,52.984
1383.00,52.912
1384.00,52.898
1385.00,52.787
1386.00,52.864
1387.00,52.919
1388.00,52.881
1389.00,52.769
1390.00,52.759
1391.00,52.934
1392.00,52.945
1393.00,53.031
1394.00,52.928
1395.00,52.771
1396.00,52.887
1397.00,52.848
1398.00,52.672
1399.00,53.019
1400.00,52.874
1401.00,52.872
1402.00,52.908
1403.00,53.022
1404.00,52.766
1405.00,52.802
1406.00,52.875
1407.00,53.100
1408.00,52.926
1409.00,53.013
1410.00,52.963
1411.00,52.882
1412.00,53.155
1413.00,53.091
1414.00,52.739
1415.00,52.955
1416.00,53.049
1417.00,53.068
1418.00,52.987
1419.00,52.844
1420.00,53.077
1421.00,53.174
1422.00,53.071
1423.00,53.016
1424.00,53.080
1425.00,53.085
1426.00,53.098
1427.00,53.120
1428.00,53.115
1429.00,53.124
1430.00,53.162
1431.00,53.095
1432.00,53.149
1433.00,53.226
1434.00,53.215
1435.00,53.256
1436.00,53.186
1437.00,53.211
1438.00,53.207
1439.00,53.248
1440.00,53.273
1441.00,53.261
1442.00,53.263
1443.00,53.337
1444.00,53.375
1445.00,53.271
1446.00,53.275
1447.00,53.354
1448.00,53.399
1449.00,53.439
1450.00,53.360
1451.00,53.409
1452.00,53.410
1453.00,53.427
1454.00,53.442
1455.00,53.464
1456.00,53.485
1457.00,53.519
1458.00,53.521
1459.00,53.499
1460.00,53.554
1461.00,53.553
1462.00,53.564
1463.00,53.566
1464.00,53.584
1465.00,53.609
1466.00,53.575
1467.00,53.617
1468.00,53.687
1469.00,53.658
1470.00,53.656
1471.00,53.714
1472.00,53.703
1473.00,53.720
1474.00,53.761
1475.00,53.745
1476.00,53.765
1477.00,53.737
1478.00,53.771
1479.00,53.801
1480.00,53.791
1481.00,53.789
1482.00,53.835
1483.00,53.824
1484.00,53.825
1485.00,53.861
1486.00,53.854
1487.00,53.881
1488.00,53.880
1489.00,53.890
1490.00,53.906
1491.00,53.924
1492.00,53.908
1493.00,53.930
1494.00,53.931
1495.00,53.925
1496.00,53.943
1497.00,53.955
1498.00,53.975
1499.00,53.990
1500.00,54.001
1501.00, 
1502.00, 
1503.00, 
1504.00, 
1505.00, 
1506.00, 
1507.00, 
1508.00, 
1509.00, 
1510.00, 
1511.00, 
1512.00, 
1513.00, 
1514.00, 
1515.00, 
1516.00, 
1517.00, 
1518.00, 
1519.00, 
1520.00, 
1521.00, 
1522.00, 
1523.00, 
1524.00, 
1525.00, 
1526.00, 
1527.00, 
1528.00, 
1529.00, 
1530.00, 
1531.00, 
1532.00, 
1533.00, 
1534.00, 
1535.00, 
1536.00, 
1537.00, 
1538.00, 
1539.00, 
1540.00, 
1541.00, 
1542.00, 
1543.00, 
1544.00, 
1545.00, 
1546.00, 
1547.00, 
1548.00, 
1549.00, 
1550.00, 
1551.00, 
1552.00, 
1553.00, 
1554.00, 
1555.00, 
1556.00, 
1557.00, 
1558.00, 
1559.00, 
1560.00, 
1561.00, 
1562.00, 
1563.00, 
1564.00, 
1565.00, 
1566.00, 
1567.00, 
1568.00, 
1569.00, 
1570.00, 
1571.00, 
1572.00, 
1573.00, 
1574.00, 
1575.00, 
1576.00, 
1577.00, 
1578.00, 
1579.00, 
1580.00, 
1581.00, 
1582.00, 
1583.00, 
1584.00, 
1585.00, 
1586.00, 
1587.00, 
1588.00, 
1589.00, 
1590.00, 
1591.00, 
1592.00, 
1593.00, 
1594.00, 
1595.00, 
1596.00, 
1597.00, 
1598.00, 
1599.00, 
1600.00, 
1601.00, 
1602.00, 
1603.00, 
1604.00, 
1605.00, 
1606.00, 
1607.00, 
1608.00, 
1609.00, 
1610.00, 
1611.00, 
1612.00, 
1613.00, 
1614.00, 
1615.00, 
1616.00, 
1617.00, 
1618.00, 
1619.00, 
1620.00, 
1621.00, 
1622.00, 
1623.00, 
1624.00, 
1625.00, 
1626.00, 
1627.00, 
1628.00, 
1629.00, 
1630.00, 
1631.00, 
1632.00, 
1633.00, 
1634.00, 
1635.00, 
1636.00, 
1637.00, 
1638.00, 
1639.00, 
1640.00, 
1641.00, 
1642.00, 
1643.00, 
1644.00, 
1645.00, 
1646.00, 
1647.00, 
1648.00, 
1649.00, 
1650.00, 
1651.00, 
1652.00, 
1653.00, 
1654.00, 
1655.00, 
1656.00, 
1657.00, 
1658.00, 
1659.00, 
1660.00, 
1661.00, 
1662.00, 
1663.00, 
1664.00, 
1665.00, 
1666.00, 
1667.00, 
1668.00, 
1669.00, 
1670.00, 
1671.00, 
1672.00, 
1673.00, 
1674.00, 
1675.00, 
1676.00, 
1677.00, 
1678.00, 
1679.00, 
1680.00, 
1681.00, 
1682.00, 
1683.00, 
1684.00, 
1685.00, 
1686.00, 
1687.00, 
1688.00, 
1689.00, 
1690.00, 
1691.00, 
1692.00, 
1693.00, 
1694.00, 
1695.00, 
1696.00, 
1697.00, 
1698.00, 
1699.00, 
1700.00, 
1701.00, 
1702.00, 
1703.00, 
1704.00, 
1705.00, 
1706.00, 
1707.00, 
1708.00, 
1709.00, 
1710.00, 
1711.00, 
1712.00, 
1713.00, 
1714.00, 
1715.00, 
1716.00, 
1717.00, 
1718.00, 
1719.00, 
1720.00, 
1721.00, 
1722.00, 
1723.00, 
1724.00, 
1725.00, 
1726.00, 
1727.00, 
1728.00, 
1729.00, 
1730.00, 
1731.00, 
1732.00, 
1733.00, 
1734.00, 
1735.00, 
1736.00, 
1737.00, 
1738.00, 
1739.00, 
1740.00, 
1741.00, 
1742.00, 
1743.00, 
1744.00, 
1745.00, 
1746.00, 
1747.00, 
1748.00, 
1749.00, 
1750.00, 
1751.00, 
1752.00, 
1753.00, 
1754.00, 
1755.00, 
1756.00, 
1757.00, 
1758.00, 
1759.00, 
1760.00, 
1761.00, 
1762.00, 
1763.00, 
1764.00, 
1765.00, 
1766.00, 
1767.00, 
1768.00, 
1769.00, 
1770.00, 
1771.00, 
1772.00, 
1773.00, 
1774.00, 
1775.00, 
1776.00, 
1777.00, 
1778.00, 
1779.00, 
1780.00, 
1781.00, 
1782.00, 
1783.00, 
1784.00, 
1785.00, 
1786.00, 
1787.00, 
1788.00, 
1789.00, 
1790.00, 
1791.00, 
1792.00, 
1793.00, 
1794.00, 
1795.00, 
1796.00, 
1797.00, 
1798.00, 
1799.00, 
1800.00, 
1801.00, 
1802.00, 
1803.00, 
1804.00, 
1805.00, 
1806.00, 
1807.00, 
1808.00, 
1809.00, 
1810.00, 
1811.00, 
1812.00, 
1813.00, 
1814.00, 
1815.00, 
1816.00, 
1817.00, 
1818.00, 
1819.00, 
1820.00, 
1821.00, 
1822.00, 
1823.00, 
1824.00, 
1825.00, 
1826.00, 
1827.00, 
1828.00, 
1829.00, 
1830.00, 
1831.00, 
1832.00, 
1833.00, 
1834.00, 
1835.00, 
1836.00, 
1837.00, 
1838.00, 
1839.00, 
1840.00, 
1841.00, 
1842.00, 
1843.00, 
1844.00, 
1845.00, 
1846.00, 
1847.00, 
1848.00, 
1849.00, 
1850.00, 
1851.00, 
1852.00, 
1853.00, 
1854.00, 
1855.00, 
1856.00, 
1857.00, 
1858.00, 
1859.00, 
1860.00, 
1861.00, 
1862.00, 
1863.00, 
1864.00, 
1865.00, 
1866.00, 
1867.00, 
1868.00, 
1869.00, 
1870.00, 
1871.00, 
1872.00, 
1873.00, 
1874.00, 
1875.00, 
1876.00, 
1877.00, 
1878.00, 
1879.00, 
1880.00, 
1881.00, 
1882.00, 
1883.00, 
1884.00, 
1885.00, 
1886.00, 
1887.00, 
1888.00, 
1889.00, 
1890.00, 
1891.00, 
1892.00, 
1893.00, 
1894.00, 
1895.00, 
1896.00, 
1897.00, 
1898.00, 
1899.00, 
1900.00, 
1901.00, 
1902.00, 
1903.00, 
1904.00, 
1905.00, 
1906.00, 
1907.00, 
1908.00, 
1909.00, 
1910.00, 
1911.00, 
1912.00, 
1913.00, 
1914.00, 
1915.00, 
1916.00, 
1917.00, 
1918.00, 
1919.00, 
1920.00, 
1921.00, 
1922.00, 
1923.00, 
1924.00, 
1925.00, 
1926.00, 
1927.00, 
1928.00, 
1929.00, 
1930.00, 
1931.00, 
1932.00, 
1933.00, 
1934.00, 
1935.00, 
1936.00, 
1937.00, 
1938.00, 
1939.00, 
1940.00, 
1941.00, 
1942.00, 
1943.00, 
1944.00, 
1945.00, 
1946.00, 
1947.00, 
1948.00, 
1949.00, 
1950.00, 
1951.00, 
1952.00, 
1953.00, 
1954.00, 
1955.00, 
1956.00, 
1957.00, 
1958.00, 
1959.00, 
1960.00, 
1961.00, 
1962.00, 
1963.00, 
1964.00, 
1965.00, 
1966.00, 
1967.00, 
1968.00, 
1969.00, 
1970.00, 
1971.00, 
1972.00, 
1973.00, 
1974.00, 
1975.00, 
1976.00, 
1977.00, 
1978.00, 
1979.00, 
1980.00, 
1981.00, 
1982.00, 
1983.00, 
1984.00, 
1985.00, 
1986.00, 
1987.00, 
1988.00, 
1989.00, 
1990.00, 
1991.00, 
1992.00, 
1993.00, 
1994.00, 
1995.00, 
1996.00, 
1997.00, 
1998.00, 
1999.00, 
2000.00, 
2001.00, 
2002.00, 
2003.00, 
2004.00, 
2005.00, 
2006.00, 
2007.00, 
2008.00, 
2009.00, 
2010.00, 
2011.00, 
2012.00, 
2013.00, 
2014.00, 
2015.00, 
2016.00, 
2017.00, 
2018.00, 
2019.00, 
2020.00, 
2021.00, 
2022.00, 
2023.00, 
2024.00, 
2025.00, 
2026.00, 
2027.00, 
2028.00, 
2029.00, 
2030.00, 
2031.00, 
2032.00, 
2033.00, 
2034.00, 
2035.00, 
2036.00, 
2037.00, 
2038.00, 
2039.00, 
2040.00, 
2041.00, 
2042.00, 
2043.00, 
2044.00, 
2045.00, 
2046.00, 
2047.00, 
2048.00, 
2049.00, 
2050.00, 
2051.00, 
2052.00, 
2053.00, 
2054.00, 
2055.00, 
2056.00, 
2057.00, 
2058.00, 
2059.00, 
2060.00, 
2061.00, 
2062.00, 
2063.00, 
2064.00, 
2065.00, 
2066.00, 
2067.00, 
2068.00, 
2069.00, 
2070.00, 
2071.00, 
2072.00, 
2073.00, 
2074.00, 
2075.00, 
2076.00, 
2077.00, 
2078.00, 
2079.00, 
2080.00, 
2081.00, 
2082.00, 
2083.00, 
2084.00, 
2085.00, 
2086.00, 
2087.00, 
2088.00, 
2089.00, 
2090.00, 
2091.00, 
2092.00, 
2093.00, 
2094.00, 
2095.00, 
2096.00, 
2097.00, 
2098.00, 
2099.00, 
2100.00, 
2101.00, 
2102.00, 
2103.00, 
2104.00, 
2105.00, 
2106.00, 
2107.00, 
2108.00, 
2109.00, 
2110.00, 
2111.00, 
2112.00, 
2113.00, 
2114.00, 
2115.00, 
2116.00, 
2117.00, 
2118.00, 
2119.00, 
2120.00, 
2121.00, 
2122.00, 
2123.00, 
2124.00, 
2125.00, 
2126.00, 
2127.00, 
2128.00, 
2129.00, 
2130.00, 
2131.00, 
2132.00, 
2133.00, 
2134.00, 
2135.00, 
2136.00, 
2137.00, 
2138.00, 
2139.00, 
2140.00, 
2141.00, 
2142.00, 
2143.00, 
2144.00, 
2145.00, 
2146.00, 
2147.00, 
2148.00, 
2149.00, 
2150.00, 
2151.00, 
2152.00, 
2153.00, 
2154.00, 
2155.00, 
2156.00, 
2157.00, 
2158.00, 
2159.00, 
2160.00, 
2161.00, 
2162.00, 
2163.00, 
2164.00, 
2165.00, 
2166.00, 
2167.00, 
2168.00, 
2169.00, 
2170.00, 
2171.00, 
2172.00, 
2173.00, 
2174.00, 
2175.00, 
2176.00, 
2177.00, 
2178.00, 
2179.00, 
2180.00, 
2181.00, 
2182.00, 
2183.00, 
2184.00, 
2185.00, 
2186.00, 
2187.00, 
2188.00, 
2189.00, 
2190.00, 
2191.00, 
2192.00, 
2193.00, 
2194.00, 
2195.00, 
2196.00, 
2197.00, 
2198.00, 
2199.00, 
2200.00, 
2201.00, 
2202.00, 
2203.00, 
2204.00, 
2205.00, 
2206.00, 
2207.00, 
2208.00, 
2209.00, 
2210.00, 
2211.00, 
2212.00, 
2213.00, 
2214.00, 
2215.00, 
2216.00, 
2217.00, 
2218.00, 
2219.00, 
2220.00, 
2221.00, 
2222.00, 
2223.00, 
2224.00, 
2225.00, 
2226.00, 
2227.00, 
2228.00, 
2229.00, 
2230.00, 
2231.00, 
2232.00, 
2233.00, 
2234.00, 
2235.00, 
2236.00, 
2237.00, 
2238.00, 
2239.00, 
2240.00, 
2241.00, 
2242.00, 
2243.00, 
2244.00, 
2245.00, 
2246.00, 
2247.00, 
2248.00, 
2249.00, 
2250.00, 
2251.00, 
2252.00, 
2253.00, 
2254.00, 
2255.00, 
2256.00, 
2257.00, 
2258.00, 
2259.00, 
2260.00, 
2261.00, 
2262.00, 
2263.00, 
2264.00, 
2265.00, 
2266.00, 
2267.00, 
2268.00, 
2269.00, 
2270.00, 
2271.00, 
2272.00, 
2273.00, 
2274.00, 
2275.00, 
2276.00, 
2277.00, 
2278.00, 
2279.00, 
2280.00, 
2281.00, 
2282.00, 
2283.00, 
2284.00, 
2285.00, 
2286.00, 
2287.00, 
2288.00, 
2289.00, 
2290.00, 
2291.00, 
2292.00, 
2293.00, 
2294.00, 
2295.00, 
2296.00, 
2297.00, 
2298.00, 
2299.00, 
2300.00, 
2301.00, 
2302.00, 
2303.00, 
2304.00, 
2305.00, 
2306.00, 
2307.00, 
2308.00, 
2309.00, 
2310.00, 
2311.00, 
2312.00, 
2313.00, 
2314.00, 
2315.00, 
2316.00, 
2317.00, 
2318.00, 
2319.00, 
2320.00, 
2321.00, 
2322.00, 
2323.00, 
2324.00, 
2325.00, 
2326.00, 
2327.00, 
2328.00, 
2329.00, 
2330.00, 
2331.00, 
2332.00, 
2333.00, 
2334.00, 
2335.00, 
2336.00, 
2337.00, 
2338.00, 
2339.00, 
2340.00, 
2341.00, 
2342.00, 
2343.00, 
2344.00, 
2345.00, 
2346.00, 
2347.00, 
2348.00, 
2349.00, 
2350.00, 
2351.00, 
2352.00, 
2353.00, 
2354.00, 
2355.00, 
2356.00, 
2357.00, 
2358.00, 
2359.00, 
2360.00, 
2361.00, 
2362.00, 
2363.00, 
2364.00, 
2365.00, 
2366.00, 
2367.00, 
2368.00, 
2369.00, 
2370.00, 
2371.00, 
2372.00, 
2373.00, 
2374.00, 
2375.00, 
2376.00, 
2377.00, 
2378.00, 
2379.00, 
2380.00, 
2381.00, 
2382.00, 
2383.00, 
2384.00, 
2385.00, 
2386.00, 
2387.00, 
2388.00, 
2389.00, 
2390.00, 
2391.00, 
2392.00, 
2393.00, 
2394.00, 
2395.00, 
2396.00, 
2397.00, 
2398.00, 
2399.00, 
2400.00, 
2401.00, 
2402.00, 
2403.00, 
2404.00, 
2405.00, 
2406.00, 
2407.00, 
2408.00, 
2409.00, 
2410.00, 
2411.00, 
2412.00, 
2413.00, 
2414.00, 
2415.00, 
2416.00, 
2417.00, 
2418.00, 
2419.00, 
2420.00, 
2421.00, 
2422.00, 
2423.00, 
2424.00, 
2425.00, 
2426.00, 
2427.00, 
2428.00, 
2429.00, 
2430.00, 
2431.00, 
2432.00, 
2433.00, 
2434.00, 
2435.00, 
2436.00, 
2437.00, 
2438.00, 
2439.00, 
2440.00, 
2441.00, 
2442.00, 
2443.00, 
2444.00, 
2445.00, 
2446.00, 
2447.00, 
2448.00, 
2449.00, 
2450.00, 
2451.00, 
2452.00, 
2453.00, 
2454.00, 
2455.00, 
2456.00, 
2457.00, 
2458.00, 
2459.00, 
2460.00, 
2461.00, 
2462.00, 
2463.00, 
2464.00, 
2465.00, 
2466.00, 
2467.00, 
2468.00, 
2469.00, 
2470.00, 
2471.00, 
2472.00, 
2473.00, 
2474.00, 
2475.00, 
2476.00, 
2477.00, 
2478.00, 
2479.00, 
2480.00, 
2481.00, 
2482.00, 
2483.00, 
2484.00, 
2485.00, 
2486.00, 
2487.00, 
2488.00, 
2489.00, 
2490.00, 
2491.00, 
2492.00, 
2493.00, 
2494.00, 
2495.00, 
2496.00, 
2497.00, 
2498.00, 
2499.00, 
2500.00, 
2501.00, 
2502.00, 
2503.00, 
2504.00, 
2505.00, 
2506.00, 
2507.00, 
2508.00, 
2509.00, 
2510.00, 
2511.00, 
2512.00, 
2513.00, 
2514.00, 
2515.00, 
2516.00, 
2517.00, 
2518.00, 
2519.00, 
2520.00, 
2521.00, 
2522.00, 
2523.00, 
2524.00, 
2525.00, 
2526.00, 
2527.00, 
2528.00, 
2529.00, 
2530.00, 
2531.00, 
2532.00, 
2533.00, 
2534.00, 
2535.00, 
2536.00, 
2537.00, 
2538.00, 
2539.00, 
2540.00, 
2541.00, 
2542.00, 
2543.00, 
2544.00, 
2545.00, 
2546.00, 
2547.00, 
2548.00, 
2549.00, 
2550.00, 
2551.00, 
2552.00, 
2553.00, 
2554.00, 
2555.00, 
2556.00, 
2557.00, 
2558.00, 
2559.00, 
2560.00, 
2561.00, 
2562.00, 
2563.00, 
2564.00, 
2565.00, 
2566.00, 
2567.00, 
2568.00, 
2569.00, 
2570.00, 
2571.00, 
2572.00, 
2573.00, 
2574.00, 
2575.00, 
2576.00, 
2577.00, 
2578.00, 
2579.00, 
2580.00, 
2581.00, 
2582.00, 
2583.00, 
2584.00, 
2585.00, 
2586.00, 
2587.00, 
2588.00, 
2589.00, 
2590.00, 
2591.00, 
2592.00, 
2593.00, 
2594.00, 
2595.00, 
2596.00, 
2597.00, 
2598.00, 
2599.00, 
2600.00, 
