"1cP1 - RawData"
"Wavelength nm.","T%"
200.00,0.002
201.00,0.003
202.00,0.001
203.00,0.003
204.00,0.003
205.00,-0.001
206.00,0.001
207.00,0.002
208.00,0.001
209.00,0.001
210.00,0.001
211.00,0.001
212.00,0.002
213.00,0.002
214.00,0.001
215.00,0.003
216.00,0.001
217.00,0.003
218.00,0.003
219.00,-0.000
220.00,0.004
221.00,0.003
222.00,-0.000
223.00,0.001
224.00,0.001
225.00,0.002
226.00,0.002
227.00,-0.002
228.00,0.003
229.00,0.002
230.00,0.001
231.00,0.004
232.00,0.002
233.00,0.001
234.00,0.001
235.00,0.001
236.00,-0.001
237.00,-0.001
238.00,0.000
239.00,0.001
240.00,-0.003
241.00,-0.001
242.00,0.001
243.00,0.003
244.00,0.000
245.00,0.001
246.00,0.002
247.00,0.000
248.00,-0.001
249.00,-0.000
250.00,0.001
251.00,-0.000
252.00,0.002
253.00,0.001
254.00,0.003
255.00,0.000
256.00,0.002
257.00,0.001
258.00,0.002
259.00,-0.001
260.00,0.000
261.00,-0.001
262.00,-0.000
263.00,-0.000
264.00,0.002
265.00,-0.000
266.00,-0.000
267.00,-0.001
268.00,0.000
269.00,0.000
270.00,0.000
271.00,0.000
272.00,0.001
273.00,0.001
274.00,0.001
275.00,-0.000
276.00,-0.000
277.00,0.002
278.00,0.001
279.00,0.001
280.00,0.000
281.00,-0.001
282.00,-0.001
283.00,0.001
284.00,-0.000
285.00,-0.000
286.00,0.003
287.00,-0.001
288.00,-0.001
289.00,-0.001
290.00,0.001
291.00,0.001
292.00,0.001
293.00,0.001
294.00,0.001
295.00,0.000
296.00,0.000
297.00,-0.000
298.00,0.000
299.00,0.000
300.00,0.001
301.00,0.000
302.00,0.002
303.00,0.001
304.00,0.000
305.00,0.003
306.00,0.003
307.00,0.004
308.00,0.007
309.00,0.017
310.00,0.022
311.00,0.033
312.00,0.059
313.00,0.087
314.00,0.128
315.00,0.190
316.00,0.269
317.00,0.380
318.00,0.513
319.00,0.707
320.00,0.937
321.00,1.224
322.00,1.555
323.00,1.977
324.00,2.433
325.00,2.945
326.00,3.500
327.00,4.163
328.00,4.888
329.00,5.628
330.00,6.448
331.00,7.287
332.00,8.207
333.00,9.153
334.00,10.092
335.00,11.152
336.00,12.191
337.00,13.266
338.00,14.287
339.00,15.269
340.00,16.304
341.00,17.260
342.00,18.243
343.00,19.181
344.00,20.143
345.00,20.926
346.00,21.879
347.00,22.688
348.00,23.451
349.00,24.217
350.00,24.826
351.00,25.484
352.00,26.129
353.00,26.731
354.00,27.308
355.00,27.779
356.00,28.323
357.00,28.808
358.00,29.244
359.00,29.617
360.00,29.935
361.00,30.295
362.00,30.550
363.00,30.933
364.00,31.223
365.00,31.491
366.00,31.748
367.00,31.845
368.00,32.073
369.00,32.172
370.00,32.268
371.00,32.417
372.00,32.396
373.00,32.435
374.00,32.329
375.00,32.427
376.00,32.342
377.00,32.257
378.00,32.203
379.00,32.268
380.00,32.194
381.00,32.204
382.00,32.275
383.00,32.358
384.00,32.483
385.00,32.605
386.00,32.743
387.00,32.840
388.00,33.012
389.00,33.143
390.00,33.245
391.00,33.359
392.00,33.471
393.00,33.531
394.00,33.638
395.00,33.635
396.00,33.678
397.00,33.780
398.00,33.848
399.00,33.876
400.00,33.909
401.00,33.948
402.00,33.944
403.00,33.996
404.00,33.955
405.00,33.916
406.00,33.963
407.00,33.916
408.00,33.955
409.00,33.947
410.00,33.830
411.00,33.785
412.00,33.841
413.00,33.852
414.00,33.870
415.00,33.849
416.00,33.851
417.00,33.896
418.00,33.882
419.00,33.880
420.00,33.837
421.00,34.017
422.00,34.079
423.00,34.057
424.00,34.026
425.00,34.064
426.00,34.126
427.00,34.147
428.00,34.223
429.00,34.208
430.00,34.257
431.00,34.310
432.00,34.341
433.00,34.380
434.00,34.369
435.00,34.440
436.00,34.524
437.00,34.565
438.00,34.640
439.00,34.687
440.00,34.711
441.00,34.806
442.00,34.913
443.00,34.948
444.00,34.965
445.00,35.050
446.00,35.104
447.00,35.248
448.00,35.291
449.00,35.414
450.00,35.490
451.00,35.576
452.00,35.710
453.00,35.767
454.00,35.871
455.00,35.934
456.00,36.026
457.00,36.113
458.00,36.255
459.00,36.299
460.00,36.406
461.00,36.546
462.00,36.665
463.00,36.656
464.00,36.872
465.00,36.907
466.00,37.005
467.00,37.105
468.00,37.242
469.00,37.371
470.00,37.429
471.00,37.503
472.00,37.611
473.00,37.616
474.00,37.744
475.00,37.862
476.00,37.894
477.00,37.966
478.00,38.023
479.00,38.129
480.00,38.292
481.00,38.408
482.00,38.535
483.00,38.636
484.00,38.701
485.00,38.890
486.00,38.998
487.00,39.098
488.00,39.215
489.00,39.348
490.00,39.460
491.00,39.546
492.00,39.667
493.00,39.738
494.00,39.761
495.00,39.820
496.00,39.954
497.00,40.036
498.00,40.144
499.00,40.295
500.00,40.306
501.00,40.440
502.00,40.484
503.00,40.597
504.00,40.766
505.00,40.826
506.00,40.902
507.00,40.956
508.00,41.042
509.00,41.183
510.00,41.217
511.00,41.394
512.00,41.394
513.00,41.483
514.00,41.695
515.00,41.746
516.00,41.799
517.00,42.010
518.00,42.016
519.00,42.123
520.00,42.205
521.00,42.181
522.00,42.302
523.00,42.434
524.00,42.383
525.00,42.438
526.00,42.582
527.00,42.637
528.00,42.697
529.00,42.749
530.00,42.686
531.00,42.824
532.00,42.833
533.00,43.025
534.00,43.064
535.00,43.169
536.00,43.219
537.00,43.261
538.00,43.418
539.00,43.490
540.00,43.458
541.00,43.524
542.00,43.558
543.00,43.591
544.00,43.727
545.00,43.652
546.00,43.766
547.00,43.782
548.00,43.859
549.00,43.918
550.00,43.993
551.00,44.037
552.00,44.071
553.00,44.216
554.00,44.320
555.00,44.316
556.00,44.302
557.00,44.364
558.00,44.389
559.00,44.471
560.00,44.561
561.00,44.552
562.00,44.582
563.00,44.609
564.00,44.645
565.00,44.706
566.00,44.708
567.00,44.675
568.00,44.736
569.00,44.726
570.00,44.714
571.00,44.802
572.00,44.847
573.00,44.859
574.00,44.869
575.00,44.971
576.00,44.977
577.00,44.953
578.00,44.910
579.00,44.942
580.00,45.148
581.00,45.159
582.00,45.194
583.00,45.314
584.00,45.427
585.00,45.341
586.00,45.388
587.00,45.463
588.00,45.564
589.00,45.548
590.00,45.583
591.00,45.524
592.00,45.541
593.00,45.594
594.00,45.599
595.00,45.560
596.00,45.673
597.00,45.727
598.00,45.850
599.00,45.748
600.00,45.804
601.00,45.982
602.00,45.806
603.00,45.919
604.00,46.059
605.00,46.039
606.00,46.158
607.00,46.102
608.00,46.039
609.00,45.881
610.00,46.071
611.00,46.060
612.00,46.135
613.00,46.193
614.00,46.072
615.00,46.089
616.00,46.221
617.00,46.215
618.00,46.203
619.00,46.279
620.00,46.352
621.00,46.306
622.00,46.361
623.00,46.396
624.00,46.495
625.00,46.532
626.00,46.511
627.00,46.538
628.00,46.588
629.00,46.614
630.00,46.692
631.00,46.673
632.00,46.687
633.00,46.684
634.00,46.694
635.00,46.756
636.00,46.854
637.00,47.008
638.00,47.108
639.00,46.998
640.00,47.038
641.00,47.068
642.00,47.027
643.00,47.140
644.00,47.248
645.00,47.161
646.00,47.180
647.00,47.204
648.00,47.365
649.00,47.513
650.00,47.404
651.00,47.371
652.00,47.429
653.00,47.638
654.00,47.622
655.00,47.400
656.00,47.364
657.00,47.878
658.00,47.780
659.00,47.740
660.00,47.799
661.00,47.810
662.00,48.052
663.00,47.927
664.00,47.903
665.00,47.851
666.00,48.040
667.00,48.241
668.00,48.152
669.00,48.112
670.00,48.027
671.00,48.310
672.00,48.224
673.00,48.442
674.00,48.466
675.00,48.416
676.00,48.284
677.00,48.275
678.00,48.488
679.00,48.472
680.00,48.457
681.00,48.540
682.00,48.641
683.00,48.755
684.00,48.855
685.00,48.871
686.00,48.920
687.00,48.849
688.00,48.932
689.00,48.896
690.00,48.840
691.00,48.789
692.00,48.950
693.00,49.035
694.00,48.890
695.00,48.847
696.00,49.010
697.00,49.197
698.00,49.229
699.00,49.138
700.00,49.352
701.00,49.502
702.00,49.319
703.00,49.331
704.00,49.366
705.00,49.549
706.00,49.665
707.00,49.525
708.00,49.280
709.00,49.374
710.00,49.564
711.00,49.576
712.00,49.526
713.00,49.553
714.00,49.474
715.00,49.623
716.00,49.771
717.00,49.423
718.00,49.547
719.00,49.579
720.00,49.686
721.00,54.122
722.00,54.132
723.00,54.112
724.00,53.978
725.00,53.897
726.00,53.992
727.00,53.917
728.00,53.875
729.00,53.856
730.00,53.867
731.00,53.831
732.00,53.809
733.00,53.843
734.00,53.807
735.00,53.721
736.00,53.812
737.00,53.762
738.00,53.794
739.00,53.711
740.00,53.735
741.00,53.764
742.00,53.707
743.00,53.697
744.00,53.644
745.00,53.620
746.00,53.563
747.00,53.511
748.00,53.557
749.00,53.447
750.00,53.448
751.00,53.350
752.00,53.423
753.00,53.322
754.00,53.336
755.00,53.272
756.00,53.310
757.00,53.156
758.00,53.276
759.00,53.199
760.00,53.128
761.00,53.123
762.00,53.167
763.00,53.183
764.00,53.054
765.00,53.042
766.00,53.106
767.00,53.074
768.00,53.087
769.00,52.980
770.00,53.097
771.00,52.979
772.00,52.955
773.00,52.973
774.00,52.929
775.00,52.963
776.00,52.777
777.00,52.932
778.00,52.845
779.00,52.920
780.00,52.817
781.00,52.825
782.00,52.760
783.00,52.763
784.00,52.752
785.00,52.696
786.00,52.710
787.00,52.604
788.00,52.529
789.00,52.558
790.00,52.464
791.00,52.578
792.00,52.464
793.00,52.453
794.00,52.476
795.00,52.373
796.00,52.442
797.00,52.296
798.00,52.346
799.00,52.265
800.00,52.202
801.00,52.208
802.00,52.201
803.00,52.238
804.00,52.116
805.00,52.053
806.00,52.005
807.00,52.029
808.00,52.056
809.00,51.939
810.00,51.977
811.00,51.821
812.00,51.940
813.00,51.881
814.00,51.865
815.00,51.856
816.00,51.789
817.00,51.803
818.00,51.715
819.00,51.806
820.00,51.674
821.00,51.747
822.00,51.750
823.00,51.656
824.00,51.725
825.00,51.539
826.00,51.499
827.00,51.560
828.00,51.553
829.00,51.562
830.00,51.478
831.00,53.804
832.00,53.740
833.00,53.715
834.00,53.742
835.00,53.672
836.00,53.667
837.00,53.592
838.00,53.575
839.00,53.573
840.00,53.536
841.00,53.491
842.00,53.489
843.00,53.470
844.00,53.403
845.00,53.416
846.00,53.397
847.00,53.331
848.00,53.306
849.00,53.255
850.00,53.195
851.00,53.162
852.00,53.158
853.00,53.135
854.00,53.078
855.00,53.005
856.00,53.000
857.00,53.130
858.00,53.029
859.00,52.919
860.00,52.918
861.00,52.898
862.00,52.856
863.00,52.839
864.00,52.871
865.00,52.817
866.00,52.813
867.00,52.789
868.00,52.801
869.00,52.747
870.00,52.748
871.00,52.748
872.00,52.734
873.00,52.646
874.00,52.673
875.00,52.680
876.00,52.635
877.00,52.628
878.00,52.599
879.00,52.613
880.00,52.543
881.00,52.535
882.00,52.560
883.00,52.532
884.00,52.427
885.00,52.451
886.00,52.459
887.00,52.413
888.00,52.352
889.00,52.451
890.00,52.348
891.00,52.297
892.00,52.265
893.00,52.271
894.00,52.243
895.00,52.190
896.00,52.206
897.00,52.194
898.00,52.122
899.00,52.164
900.00,52.132
901.00,52.084
902.00,52.107
903.00,52.131
904.00,52.050
905.00,52.034
906.00,52.024
907.00,52.009
908.00,51.960
909.00,51.947
910.00,51.962
911.00,51.887
912.00,51.885
913.00,51.871
914.00,51.828
915.00,51.838
916.00,51.819
917.00,51.797
918.00,51.794
919.00,51.720
920.00,51.707
921.00,51.711
922.00,51.694
923.00,51.652
924.00,51.655
925.00,51.635
926.00,51.617
927.00,51.581
928.00,51.531
929.00,51.601
930.00,51.511
931.00,51.474
932.00,51.483
933.00,51.450
934.00,51.435
935.00,51.415
936.00,51.392
937.00,51.376
938.00,51.358
939.00,51.335
940.00,51.328
941.00,51.309
942.00,51.275
943.00,51.278
944.00,51.316
945.00,51.215
946.00,51.211
947.00,51.182
948.00,51.169
949.00,51.146
950.00,51.146
951.00,51.109
952.00,51.053
953.00,51.047
954.00,51.026
955.00,51.003
956.00,50.950
957.00,50.943
958.00,50.918
959.00,50.892
960.00,50.837
961.00,50.845
962.00,50.846
963.00,50.795
964.00,50.801
965.00,50.791
966.00,50.801
967.00,50.756
968.00,50.771
969.00,50.756
970.00,50.746
971.00,50.772
972.00,50.719
973.00,50.771
974.00,50.761
975.00,50.772
976.00,50.765
977.00,50.759
978.00,50.760
979.00,50.732
980.00,50.771
981.00,50.758
982.00,50.734
983.00,50.727
984.00,50.758
985.00,50.742
986.00,50.719
987.00,50.747
988.00,50.698
989.00,50.672
990.00,50.696
991.00,50.652
992.00,50.658
993.00,50.603
994.00,50.603
995.00,50.582
996.00,50.583
997.00,50.566
998.00,50.580
999.00,50.561
1000.00,50.518
1001.00,50.532
1002.00,50.504
1003.00,50.527
1004.00,50.461
1005.00,50.447
1006.00,50.515
1007.00,50.447
1008.00,50.453
1009.00,50.442
1010.00,50.433
1011.00,50.389
1012.00,50.400
1013.00,50.378
1014.00,50.358
1015.00,50.346
1016.00,50.313
1017.00,50.326
1018.00,50.353
1019.00,50.305
1020.00,50.283
1021.00,50.265
1022.00,50.237
1023.00,50.218
1024.00,50.192
1025.00,50.183
1026.00,50.189
1027.00,50.140
1028.00,50.157
1029.00,50.134
1030.00,50.132
1031.00,50.114
1032.00,50.098
1033.00,50.083
1034.00,50.061
1035.00,50.021
1036.00,49.982
1037.00,49.990
1038.00,49.957
1039.00,49.919
1040.00,49.922
1041.00,49.891
1042.00,49.907
1043.00,49.877
1044.00,49.906
1045.00,49.877
1046.00,49.880
1047.00,49.867
1048.00,49.898
1049.00,49.882
1050.00,49.917
1051.00,49.941
1052.00,49.924
1053.00,49.959
1054.00,49.953
1055.00,49.940
1056.00,49.964
1057.00,49.966
1058.00,49.963
1059.00,49.959
1060.00,49.946
1061.00,49.958
1062.00,49.940
1063.00,49.941
1064.00,49.923
1065.00,49.938
1066.00,49.911
1067.00,49.921
1068.00,49.921
1069.00,49.923
1070.00,49.896
1071.00,49.858
1072.00,49.871
1073.00,49.858
1074.00,49.840
1075.00,49.833
1076.00,49.834
1077.00,49.802
1078.00,49.815
1079.00,49.804
1080.00,49.817
1081.00,49.794
1082.00,49.779
1083.00,49.767
1084.00,49.778
1085.00,49.753
1086.00,49.756
1087.00,49.750
1088.00,49.739
1089.00,49.722
1090.00,49.714
1091.00,49.726
1092.00,49.716
1093.00,49.672
1094.00,49.681
1095.00,49.658
1096.00,49.648
1097.00,49.645
1098.00,49.664
1099.00,49.631
1100.00,49.647
1101.00,49.607
1102.00,49.620
1103.00,49.606
1104.00,49.584
1105.00,49.584
1106.00,49.581
1107.00,49.554
1108.00,49.580
1109.00,49.560
1110.00,49.550
1111.00,49.558
1112.00,49.547
1113.00,49.537
1114.00,49.545
1115.00,49.533
1116.00,49.542
1117.00,49.503
1118.00,49.481
1119.00,49.508
1120.00,49.511
1121.00,49.457
1122.00,49.461
1123.00,49.457
1124.00,49.473
1125.00,49.454
1126.00,49.447
1127.00,49.454
1128.00,49.443
1129.00,49.391
1130.00,49.417
1131.00,49.431
1132.00,49.414
1133.00,49.398
1134.00,49.390
1135.00,49.384
1136.00,49.383
1137.00,49.369
1138.00,49.393
1139.00,49.385
1140.00,49.360
1141.00,49.380
1142.00,49.373
1143.00,49.374
1144.00,49.376
1145.00,49.363
1146.00,49.367
1147.00,49.345
1148.00,49.330
1149.00,49.344
1150.00,49.348
1151.00,49.341
1152.00,49.345
1153.00,49.344
1154.00,49.319
1155.00,49.323
1156.00,49.309
1157.00,49.328
1158.00,49.304
1159.00,49.305
1160.00,49.309
1161.00,49.319
1162.00,49.297
1163.00,49.332
1164.00,49.322
1165.00,49.317
1166.00,49.314
1167.00,49.320
1168.00,49.330
1169.00,49.308
1170.00,49.305
1171.00,49.315
1172.00,49.282
1173.00,49.265
1174.00,49.314
1175.00,49.289
1176.00,49.277
1177.00,49.294
1178.00,49.304
1179.00,49.302
1180.00,49.271
1181.00,49.296
1182.00,49.314
1183.00,49.296
1184.00,49.264
1185.00,49.335
1186.00,49.306
1187.00,49.299
1188.00,49.289
1189.00,49.298
1190.00,49.275
1191.00,49.270
1192.00,49.283
1193.00,49.279
1194.00,49.283
1195.00,49.266
1196.00,49.313
1197.00,49.291
1198.00,49.273
1199.00,49.283
1200.00,49.277
1201.00,49.283
1202.00,49.268
1203.00,49.273
1204.00,49.275
1205.00,49.268
1206.00,49.259
1207.00,49.306
1208.00,49.266
1209.00,49.287
1210.00,49.291
1211.00,49.291
1212.00,49.298
1213.00,49.262
1214.00,49.290
1215.00,49.267
1216.00,49.282
1217.00,49.264
1218.00,49.310
1219.00,49.299
1220.00,49.258
1221.00,49.308
1222.00,49.269
1223.00,49.297
1224.00,49.294
1225.00,49.293
1226.00,49.300
1227.00,49.299
1228.00,49.305
1229.00,49.356
1230.00,49.330
1231.00,49.303
1232.00,49.354
1233.00,49.335
1234.00,49.349
1235.00,49.338
1236.00,49.349
1237.00,49.320
1238.00,49.316
1239.00,49.347
1240.00,49.365
1241.00,49.350
1242.00,49.341
1243.00,49.394
1244.00,49.355
1245.00,49.369
1246.00,49.374
1247.00,49.389
1248.00,49.378
1249.00,49.367
1250.00,49.372
1251.00,49.388
1252.00,49.379
1253.00,49.403
1254.00,49.440
1255.00,49.406
1256.00,49.410
1257.00,49.407
1258.00,49.429
1259.00,49.421
1260.00,49.436
1261.00,49.436
1262.00,49.463
1263.00,49.432
1264.00,49.446
1265.00,49.452
1266.00,49.436
1267.00,49.471
1268.00,49.484
1269.00,49.474
1270.00,49.510
1271.00,49.487
1272.00,49.499
1273.00,49.522
1274.00,49.516
1275.00,49.519
1276.00,49.529
1277.00,49.494
1278.00,49.526
1279.00,49.514
1280.00,49.507
1281.00,49.541
1282.00,49.561
1283.00,49.538
1284.00,49.568
1285.00,49.541
1286.00,49.561
1287.00,49.554
1288.00,49.562
1289.00,49.570
1290.00,49.579
1291.00,49.578
1292.00,49.568
1293.00,49.596
1294.00,49.610
1295.00,49.639
1296.00,49.637
1297.00,49.651
1298.00,49.662
1299.00,49.633
1300.00,49.679
1301.00,49.656
1302.00,49.671
1303.00,49.686
1304.00,49.645
1305.00,49.671
1306.00,49.697
1307.00,49.687
1308.00,49.682
1309.00,49.704
1310.00,49.728
1311.00,49.733
1312.00,49.737
1313.00,49.725
1314.00,49.743
1315.00,49.741
1316.00,49.765
1317.00,49.778
1318.00,49.781
1319.00,49.778
1320.00,49.802
1321.00,49.945
1322.00,49.953
1323.00,49.935
1324.00,49.962
1325.00,49.939
1326.00,49.954
1327.00,49.934
1328.00,49.944
1329.00,49.909
1330.00,49.909
1331.00,49.937
1332.00,49.959
1333.00,49.918
1334.00,49.974
1335.00,50.016
1336.00,50.066
1337.00,50.051
1338.00,50.136
1339.00,50.193
1340.00,50.235
1341.00,50.286
1342.00,50.373
1343.00,50.416
1344.00,50.428
1345.00,50.487
1346.00,50.506
1347.00,50.494
1348.00,50.540
1349.00,50.567
1350.00,50.629
1351.00,50.644
1352.00,50.647
1353.00,50.694
1354.00,50.666
1355.00,50.660
1356.00,50.736
1357.00,50.677
1358.00,50.649
1359.00,50.658
1360.00,50.776
1361.00,51.081
1362.00,50.610
1363.00,50.667
1364.00,50.778
1365.00,50.759
1366.00,50.851
1367.00,50.776
1368.00,50.633
1369.00,50.729
1370.00,50.651
1371.00,50.651
1372.00,50.703
1373.00,50.692
1374.00,50.738
1375.00,50.729
1376.00,50.722
1377.00,50.654
1378.00,50.786
1379.00,50.715
1380.00,50.774
1381.00,50.739
1382.00,50.757
1383.00,50.737
1384.00,50.598
1385.00,50.711
1386.00,50.715
1387.00,50.664
1388.00,50.685
1389.00,50.704
1390.00,50.618
1391.00,50.694
1392.00,50.698
1393.00,50.889
1394.00,50.743
1395.00,50.475
1396.00,50.651
1397.00,50.830
1398.00,50.677
1399.00,50.602
1400.00,50.692
1401.00,50.716
1402.00,50.741
1403.00,50.739
1404.00,50.669
1405.00,50.767
1406.00,50.723
1407.00,50.899
1408.00,50.704
1409.00,50.812
1410.00,50.786
1411.00,50.713
1412.00,50.954
1413.00,50.819
1414.00,50.636
1415.00,50.820
1416.00,50.886
1417.00,50.892
1418.00,50.834
1419.00,50.816
1420.00,50.890
1421.00,50.950
1422.00,50.912
1423.00,50.893
1424.00,50.951
1425.00,50.944
1426.00,50.987
1427.00,50.988
1428.00,50.989
1429.00,51.036
1430.00,51.081
1431.00,51.040
1432.00,51.056
1433.00,51.076
1434.00,51.068
1435.00,51.153
1436.00,51.077
1437.00,51.148
1438.00,51.155
1439.00,51.184
1440.00,51.182
1441.00,51.222
1442.00,51.212
1443.00,51.257
1444.00,51.295
1445.00,51.218
1446.00,51.226
1447.00,51.281
1448.00,51.368
1449.00,51.388
1450.00,51.293
1451.00,51.372
1452.00,51.401
1453.00,51.384
1454.00,51.383
1455.00,51.447
1456.00,51.483
1457.00,51.478
1458.00,51.477
1459.00,51.525
1460.00,51.540
1461.00,51.548
1462.00,51.570
1463.00,51.614
1464.00,51.613
1465.00,51.599
1466.00,51.608
1467.00,51.656
1468.00,51.681
1469.00,51.677
1470.00,51.729
1471.00,51.754
1472.00,51.715
1473.00,51.752
1474.00,51.804
1475.00,51.784
1476.00,51.782
1477.00,51.796
1478.00,51.827
1479.00,51.829
1480.00,51.811
1481.00,51.850
1482.00,51.892
1483.00,51.873
1484.00,51.885
1485.00,51.930
1486.00,51.909
1487.00,51.931
1488.00,51.948
1489.00,51.965
1490.00,51.977
1491.00,51.981
1492.00,52.000
1493.00,52.029
1494.00,52.027
1495.00,52.018
1496.00,52.071
1497.00,52.082
1498.00,52.068
1499.00,52.091
1500.00,52.105
1501.00, 
1502.00, 
1503.00, 
1504.00, 
1505.00, 
1506.00, 
1507.00, 
1508.00, 
1509.00, 
1510.00, 
1511.00, 
1512.00, 
1513.00, 
1514.00, 
1515.00, 
1516.00, 
1517.00, 
1518.00, 
1519.00, 
1520.00, 
1521.00, 
1522.00, 
1523.00, 
1524.00, 
1525.00, 
1526.00, 
1527.00, 
1528.00, 
1529.00, 
1530.00, 
1531.00, 
1532.00, 
1533.00, 
1534.00, 
1535.00, 
1536.00, 
1537.00, 
1538.00, 
1539.00, 
1540.00, 
1541.00, 
1542.00, 
1543.00, 
1544.00, 
1545.00, 
1546.00, 
1547.00, 
1548.00, 
1549.00, 
1550.00, 
1551.00, 
1552.00, 
1553.00, 
1554.00, 
1555.00, 
1556.00, 
1557.00, 
1558.00, 
1559.00, 
1560.00, 
1561.00, 
1562.00, 
1563.00, 
1564.00, 
1565.00, 
1566.00, 
1567.00, 
1568.00, 
1569.00, 
1570.00, 
1571.00, 
1572.00, 
1573.00, 
1574.00, 
1575.00, 
1576.00, 
1577.00, 
1578.00, 
1579.00, 
1580.00, 
1581.00, 
1582.00, 
1583.00, 
1584.00, 
1585.00, 
1586.00, 
1587.00, 
1588.00, 
1589.00, 
1590.00, 
1591.00, 
1592.00, 
1593.00, 
1594.00, 
1595.00, 
1596.00, 
1597.00, 
1598.00, 
1599.00, 
1600.00, 
1601.00, 
1602.00, 
1603.00, 
1604.00, 
1605.00, 
1606.00, 
1607.00, 
1608.00, 
1609.00, 
1610.00, 
1611.00, 
1612.00, 
1613.00, 
1614.00, 
1615.00, 
1616.00, 
1617.00, 
1618.00, 
1619.00, 
1620.00, 
1621.00, 
1622.00, 
1623.00, 
1624.00, 
1625.00, 
1626.00, 
1627.00, 
1628.00, 
1629.00, 
1630.00, 
1631.00, 
1632.00, 
1633.00, 
1634.00, 
1635.00, 
1636.00, 
1637.00, 
1638.00, 
1639.00, 
1640.00, 
1641.00, 
1642.00, 
1643.00, 
1644.00, 
1645.00, 
1646.00, 
1647.00, 
1648.00, 
1649.00, 
1650.00, 
1651.00, 
1652.00, 
1653.00, 
1654.00, 
1655.00, 
1656.00, 
1657.00, 
1658.00, 
1659.00, 
1660.00, 
1661.00, 
1662.00, 
1663.00, 
1664.00, 
1665.00, 
1666.00, 
1667.00, 
1668.00, 
1669.00, 
1670.00, 
1671.00, 
1672.00, 
1673.00, 
1674.00, 
1675.00, 
1676.00, 
1677.00, 
1678.00, 
1679.00, 
1680.00, 
1681.00, 
1682.00, 
1683.00, 
1684.00, 
1685.00, 
1686.00, 
1687.00, 
1688.00, 
1689.00, 
1690.00, 
1691.00, 
1692.00, 
1693.00, 
1694.00, 
1695.00, 
1696.00, 
1697.00, 
1698.00, 
1699.00, 
1700.00, 
1701.00, 
1702.00, 
1703.00, 
1704.00, 
1705.00, 
1706.00, 
1707.00, 
1708.00, 
1709.00, 
1710.00, 
1711.00, 
1712.00, 
1713.00, 
1714.00, 
1715.00, 
1716.00, 
1717.00, 
1718.00, 
1719.00, 
1720.00, 
1721.00, 
1722.00, 
1723.00, 
1724.00, 
1725.00, 
1726.00, 
1727.00, 
1728.00, 
1729.00, 
1730.00, 
1731.00, 
1732.00, 
1733.00, 
1734.00, 
1735.00, 
1736.00, 
1737.00, 
1738.00, 
1739.00, 
1740.00, 
1741.00, 
1742.00, 
1743.00, 
1744.00, 
1745.00, 
1746.00, 
1747.00, 
1748.00, 
1749.00, 
1750.00, 
1751.00, 
1752.00, 
1753.00, 
1754.00, 
1755.00, 
1756.00, 
1757.00, 
1758.00, 
1759.00, 
1760.00, 
1761.00, 
1762.00, 
1763.00, 
1764.00, 
1765.00, 
1766.00, 
1767.00, 
1768.00, 
1769.00, 
1770.00, 
1771.00, 
1772.00, 
1773.00, 
1774.00, 
1775.00, 
1776.00, 
1777.00, 
1778.00, 
1779.00, 
1780.00, 
1781.00, 
1782.00, 
1783.00, 
1784.00, 
1785.00, 
1786.00, 
1787.00, 
1788.00, 
1789.00, 
1790.00, 
1791.00, 
1792.00, 
1793.00, 
1794.00, 
1795.00, 
1796.00, 
1797.00, 
1798.00, 
1799.00, 
1800.00, 
1801.00, 
1802.00, 
1803.00, 
1804.00, 
1805.00, 
1806.00, 
1807.00, 
1808.00, 
1809.00, 
1810.00, 
1811.00, 
1812.00, 
1813.00, 
1814.00, 
1815.00, 
1816.00, 
1817.00, 
1818.00, 
1819.00, 
1820.00, 
1821.00, 
1822.00, 
1823.00, 
1824.00, 
1825.00, 
1826.00, 
1827.00, 
1828.00, 
1829.00, 
1830.00, 
1831.00, 
1832.00, 
1833.00, 
1834.00, 
1835.00, 
1836.00, 
1837.00, 
1838.00, 
1839.00, 
1840.00, 
1841.00, 
1842.00, 
1843.00, 
1844.00, 
1845.00, 
1846.00, 
1847.00, 
1848.00, 
1849.00, 
1850.00, 
1851.00, 
1852.00, 
1853.00, 
1854.00, 
1855.00, 
1856.00, 
1857.00, 
1858.00, 
1859.00, 
1860.00, 
1861.00, 
1862.00, 
1863.00, 
1864.00, 
1865.00, 
1866.00, 
1867.00, 
1868.00, 
1869.00, 
1870.00, 
1871.00, 
1872.00, 
1873.00, 
1874.00, 
1875.00, 
1876.00, 
1877.00, 
1878.00, 
1879.00, 
1880.00, 
1881.00, 
1882.00, 
1883.00, 
1884.00, 
1885.00, 
1886.00, 
1887.00, 
1888.00, 
1889.00, 
1890.00, 
1891.00, 
1892.00, 
1893.00, 
1894.00, 
1895.00, 
1896.00, 
1897.00, 
1898.00, 
1899.00, 
1900.00, 
1901.00, 
1902.00, 
1903.00, 
1904.00, 
1905.00, 
1906.00, 
1907.00, 
1908.00, 
1909.00, 
1910.00, 
1911.00, 
1912.00, 
1913.00, 
1914.00, 
1915.00, 
1916.00, 
1917.00, 
1918.00, 
1919.00, 
1920.00, 
1921.00, 
1922.00, 
1923.00, 
1924.00, 
1925.00, 
1926.00, 
1927.00, 
1928.00, 
1929.00, 
1930.00, 
1931.00, 
1932.00, 
1933.00, 
1934.00, 
1935.00, 
1936.00, 
1937.00, 
1938.00, 
1939.00, 
1940.00, 
1941.00, 
1942.00, 
1943.00, 
1944.00, 
1945.00, 
1946.00, 
1947.00, 
1948.00, 
1949.00, 
1950.00, 
1951.00, 
1952.00, 
1953.00, 
1954.00, 
1955.00, 
1956.00, 
1957.00, 
1958.00, 
1959.00, 
1960.00, 
1961.00, 
1962.00, 
1963.00, 
1964.00, 
1965.00, 
1966.00, 
1967.00, 
1968.00, 
1969.00, 
1970.00, 
1971.00, 
1972.00, 
1973.00, 
1974.00, 
1975.00, 
1976.00, 
1977.00, 
1978.00, 
1979.00, 
1980.00, 
1981.00, 
1982.00, 
1983.00, 
1984.00, 
1985.00, 
1986.00, 
1987.00, 
1988.00, 
1989.00, 
1990.00, 
1991.00, 
1992.00, 
1993.00, 
1994.00, 
1995.00, 
1996.00, 
1997.00, 
1998.00, 
1999.00, 
2000.00, 
2001.00, 
2002.00, 
2003.00, 
2004.00, 
2005.00, 
2006.00, 
2007.00, 
2008.00, 
2009.00, 
2010.00, 
2011.00, 
2012.00, 
2013.00, 
2014.00, 
2015.00, 
2016.00, 
2017.00, 
2018.00, 
2019.00, 
2020.00, 
2021.00, 
2022.00, 
2023.00, 
2024.00, 
2025.00, 
2026.00, 
2027.00, 
2028.00, 
2029.00, 
2030.00, 
2031.00, 
2032.00, 
2033.00, 
2034.00, 
2035.00, 
2036.00, 
2037.00, 
2038.00, 
2039.00, 
2040.00, 
2041.00, 
2042.00, 
2043.00, 
2044.00, 
2045.00, 
2046.00, 
2047.00, 
2048.00, 
2049.00, 
2050.00, 
2051.00, 
2052.00, 
2053.00, 
2054.00, 
2055.00, 
2056.00, 
2057.00, 
2058.00, 
2059.00, 
2060.00, 
2061.00, 
2062.00, 
2063.00, 
2064.00, 
2065.00, 
2066.00, 
2067.00, 
2068.00, 
2069.00, 
2070.00, 
2071.00, 
2072.00, 
2073.00, 
2074.00, 
2075.00, 
2076.00, 
2077.00, 
2078.00, 
2079.00, 
2080.00, 
2081.00, 
2082.00, 
2083.00, 
2084.00, 
2085.00, 
2086.00, 
2087.00, 
2088.00, 
2089.00, 
2090.00, 
2091.00, 
2092.00, 
2093.00, 
2094.00, 
2095.00, 
2096.00, 
2097.00, 
2098.00, 
2099.00, 
2100.00, 
2101.00, 
2102.00, 
2103.00, 
2104.00, 
2105.00, 
2106.00, 
2107.00, 
2108.00, 
2109.00, 
2110.00, 
2111.00, 
2112.00, 
2113.00, 
2114.00, 
2115.00, 
2116.00, 
2117.00, 
2118.00, 
2119.00, 
2120.00, 
2121.00, 
2122.00, 
2123.00, 
2124.00, 
2125.00, 
2126.00, 
2127.00, 
2128.00, 
2129.00, 
2130.00, 
2131.00, 
2132.00, 
2133.00, 
2134.00, 
2135.00, 
2136.00, 
2137.00, 
2138.00, 
2139.00, 
2140.00, 
2141.00, 
2142.00, 
2143.00, 
2144.00, 
2145.00, 
2146.00, 
2147.00, 
2148.00, 
2149.00, 
2150.00, 
2151.00, 
2152.00, 
2153.00, 
2154.00, 
2155.00, 
2156.00, 
2157.00, 
2158.00, 
2159.00, 
2160.00, 
2161.00, 
2162.00, 
2163.00, 
2164.00, 
2165.00, 
2166.00, 
2167.00, 
2168.00, 
2169.00, 
2170.00, 
2171.00, 
2172.00, 
2173.00, 
2174.00, 
2175.00, 
2176.00, 
2177.00, 
2178.00, 
2179.00, 
2180.00, 
2181.00, 
2182.00, 
2183.00, 
2184.00, 
2185.00, 
2186.00, 
2187.00, 
2188.00, 
2189.00, 
2190.00, 
2191.00, 
2192.00, 
2193.00, 
2194.00, 
2195.00, 
2196.00, 
2197.00, 
2198.00, 
2199.00, 
2200.00, 
2201.00, 
2202.00, 
2203.00, 
2204.00, 
2205.00, 
2206.00, 
2207.00, 
2208.00, 
2209.00, 
2210.00, 
2211.00, 
2212.00, 
2213.00, 
2214.00, 
2215.00, 
2216.00, 
2217.00, 
2218.00, 
2219.00, 
2220.00, 
2221.00, 
2222.00, 
2223.00, 
2224.00, 
2225.00, 
2226.00, 
2227.00, 
2228.00, 
2229.00, 
2230.00, 
2231.00, 
2232.00, 
2233.00, 
2234.00, 
2235.00, 
2236.00, 
2237.00, 
2238.00, 
2239.00, 
2240.00, 
2241.00, 
2242.00, 
2243.00, 
2244.00, 
2245.00, 
2246.00, 
2247.00, 
2248.00, 
2249.00, 
2250.00, 
2251.00, 
2252.00, 
2253.00, 
2254.00, 
2255.00, 
2256.00, 
2257.00, 
2258.00, 
2259.00, 
2260.00, 
2261.00, 
2262.00, 
2263.00, 
2264.00, 
2265.00, 
2266.00, 
2267.00, 
2268.00, 
2269.00, 
2270.00, 
2271.00, 
2272.00, 
2273.00, 
2274.00, 
2275.00, 
2276.00, 
2277.00, 
2278.00, 
2279.00, 
2280.00, 
2281.00, 
2282.00, 
2283.00, 
2284.00, 
2285.00, 
2286.00, 
2287.00, 
2288.00, 
2289.00, 
2290.00, 
2291.00, 
2292.00, 
2293.00, 
2294.00, 
2295.00, 
2296.00, 
2297.00, 
2298.00, 
2299.00, 
2300.00, 
2301.00, 
2302.00, 
2303.00, 
2304.00, 
2305.00, 
2306.00, 
2307.00, 
2308.00, 
2309.00, 
2310.00, 
2311.00, 
2312.00, 
2313.00, 
2314.00, 
2315.00, 
2316.00, 
2317.00, 
2318.00, 
2319.00, 
2320.00, 
2321.00, 
2322.00, 
2323.00, 
2324.00, 
2325.00, 
2326.00, 
2327.00, 
2328.00, 
2329.00, 
2330.00, 
2331.00, 
2332.00, 
2333.00, 
2334.00, 
2335.00, 
2336.00, 
2337.00, 
2338.00, 
2339.00, 
2340.00, 
2341.00, 
2342.00, 
2343.00, 
2344.00, 
2345.00, 
2346.00, 
2347.00, 
2348.00, 
2349.00, 
2350.00, 
2351.00, 
2352.00, 
2353.00, 
2354.00, 
2355.00, 
2356.00, 
2357.00, 
2358.00, 
2359.00, 
2360.00, 
2361.00, 
2362.00, 
2363.00, 
2364.00, 
2365.00, 
2366.00, 
2367.00, 
2368.00, 
2369.00, 
2370.00, 
2371.00, 
2372.00, 
2373.00, 
2374.00, 
2375.00, 
2376.00, 
2377.00, 
2378.00, 
2379.00, 
2380.00, 
2381.00, 
2382.00, 
2383.00, 
2384.00, 
2385.00, 
2386.00, 
2387.00, 
2388.00, 
2389.00, 
2390.00, 
2391.00, 
2392.00, 
2393.00, 
2394.00, 
2395.00, 
2396.00, 
2397.00, 
2398.00, 
2399.00, 
2400.00, 
2401.00, 
2402.00, 
2403.00, 
2404.00, 
2405.00, 
2406.00, 
2407.00, 
2408.00, 
2409.00, 
2410.00, 
2411.00, 
2412.00, 
2413.00, 
2414.00, 
2415.00, 
2416.00, 
2417.00, 
2418.00, 
2419.00, 
2420.00, 
2421.00, 
2422.00, 
2423.00, 
2424.00, 
2425.00, 
2426.00, 
2427.00, 
2428.00, 
2429.00, 
2430.00, 
2431.00, 
2432.00, 
2433.00, 
2434.00, 
2435.00, 
2436.00, 
2437.00, 
2438.00, 
2439.00, 
2440.00, 
2441.00, 
2442.00, 
2443.00, 
2444.00, 
2445.00, 
2446.00, 
2447.00, 
2448.00, 
2449.00, 
2450.00, 
2451.00, 
2452.00, 
2453.00, 
2454.00, 
2455.00, 
2456.00, 
2457.00, 
2458.00, 
2459.00, 
2460.00, 
2461.00, 
2462.00, 
2463.00, 
2464.00, 
2465.00, 
2466.00, 
2467.00, 
2468.00, 
2469.00, 
2470.00, 
2471.00, 
2472.00, 
2473.00, 
2474.00, 
2475.00, 
2476.00, 
2477.00, 
2478.00, 
2479.00, 
2480.00, 
2481.00, 
2482.00, 
2483.00, 
2484.00, 
2485.00, 
2486.00, 
2487.00, 
2488.00, 
2489.00, 
2490.00, 
2491.00, 
2492.00, 
2493.00, 
2494.00, 
2495.00, 
2496.00, 
2497.00, 
2498.00, 
2499.00, 
2500.00, 
2501.00, 
2502.00, 
2503.00, 
2504.00, 
2505.00, 
2506.00, 
2507.00, 
2508.00, 
2509.00, 
2510.00, 
2511.00, 
2512.00, 
2513.00, 
2514.00, 
2515.00, 
2516.00, 
2517.00, 
2518.00, 
2519.00, 
2520.00, 
2521.00, 
2522.00, 
2523.00, 
2524.00, 
2525.00, 
2526.00, 
2527.00, 
2528.00, 
2529.00, 
2530.00, 
2531.00, 
2532.00, 
2533.00, 
2534.00, 
2535.00, 
2536.00, 
2537.00, 
2538.00, 
2539.00, 
2540.00, 
2541.00, 
2542.00, 
2543.00, 
2544.00, 
2545.00, 
2546.00, 
2547.00, 
2548.00, 
2549.00, 
2550.00, 
2551.00, 
2552.00, 
2553.00, 
2554.00, 
2555.00, 
2556.00, 
2557.00, 
2558.00, 
2559.00, 
2560.00, 
2561.00, 
2562.00, 
2563.00, 
2564.00, 
2565.00, 
2566.00, 
2567.00, 
2568.00, 
2569.00, 
2570.00, 
2571.00, 
2572.00, 
2573.00, 
2574.00, 
2575.00, 
2576.00, 
2577.00, 
2578.00, 
2579.00, 
2580.00, 
2581.00, 
2582.00, 
2583.00, 
2584.00, 
2585.00, 
2586.00, 
2587.00, 
2588.00, 
2589.00, 
2590.00, 
2591.00, 
2592.00, 
2593.00, 
2594.00, 
2595.00, 
2596.00, 
2597.00, 
2598.00, 
2599.00, 
2600.00, 
