"2aP2 - RawData"
"Wavelength nm.","T%"
200.00,0.004
201.00,0.005
202.00,0.004
203.00,-0.002
204.00,0.002
205.00,0.002
206.00,0.004
207.00,0.001
208.00,0.002
209.00,-0.001
210.00,0.003
211.00,0.004
212.00,0.003
213.00,0.001
214.00,0.002
215.00,0.002
216.00,0.002
217.00,0.000
218.00,-0.001
219.00,0.003
220.00,0.001
221.00,0.002
222.00,0.003
223.00,0.001
224.00,0.002
225.00,-0.001
226.00,0.004
227.00,0.003
228.00,0.001
229.00,0.001
230.00,-0.000
231.00,0.003
232.00,0.001
233.00,0.004
234.00,0.004
235.00,0.003
236.00,0.001
237.00,0.002
238.00,0.001
239.00,0.001
240.00,0.001
241.00,0.001
242.00,0.002
243.00,0.001
244.00,0.002
245.00,0.002
246.00,0.004
247.00,0.002
248.00,0.002
249.00,0.001
250.00,0.002
251.00,0.002
252.00,0.001
253.00,0.002
254.00,0.001
255.00,0.000
256.00,0.000
257.00,0.000
258.00,-0.001
259.00,0.001
260.00,0.003
261.00,0.001
262.00,-0.000
263.00,-0.001
264.00,0.000
265.00,-0.001
266.00,0.001
267.00,-0.000
268.00,0.001
269.00,-0.001
270.00,0.002
271.00,-0.000
272.00,0.002
273.00,0.001
274.00,-0.000
275.00,0.001
276.00,0.001
277.00,0.001
278.00,0.001
279.00,0.002
280.00,0.001
281.00,0.001
282.00,0.001
283.00,0.001
284.00,-0.000
285.00,0.002
286.00,0.001
287.00,-0.000
288.00,0.002
289.00,0.001
290.00,0.002
291.00,0.001
292.00,0.000
293.00,0.001
294.00,-0.001
295.00,0.003
296.00,0.001
297.00,0.002
298.00,0.001
299.00,0.003
300.00,0.004
301.00,0.004
302.00,0.006
303.00,0.008
304.00,0.013
305.00,0.022
306.00,0.033
307.00,0.050
308.00,0.078
309.00,0.120
310.00,0.165
311.00,0.222
312.00,0.306
313.00,0.409
314.00,0.542
315.00,0.704
316.00,0.877
317.00,1.136
318.00,1.379
319.00,1.699
320.00,2.056
321.00,2.463
322.00,2.923
323.00,3.447
324.00,3.974
325.00,4.535
326.00,5.116
327.00,5.759
328.00,6.434
329.00,7.120
330.00,7.823
331.00,8.554
332.00,9.172
333.00,10.036
334.00,10.760
335.00,11.567
336.00,12.347
337.00,13.095
338.00,13.830
339.00,14.515
340.00,15.199
341.00,15.904
342.00,16.547
343.00,17.171
344.00,17.759
345.00,18.289
346.00,18.941
347.00,19.404
348.00,19.922
349.00,20.395
350.00,20.792
351.00,21.238
352.00,21.587
353.00,22.004
354.00,22.311
355.00,22.598
356.00,22.950
357.00,23.252
358.00,23.451
359.00,23.712
360.00,23.894
361.00,24.147
362.00,24.284
363.00,24.523
364.00,24.661
365.00,24.910
366.00,24.960
367.00,25.052
368.00,25.168
369.00,25.212
370.00,25.230
371.00,25.383
372.00,25.324
373.00,25.307
374.00,25.307
375.00,25.374
376.00,25.306
377.00,25.304
378.00,25.298
379.00,25.281
380.00,25.212
381.00,25.221
382.00,25.239
383.00,25.271
384.00,25.310
385.00,25.411
386.00,25.409
387.00,25.480
388.00,25.507
389.00,25.565
390.00,25.609
391.00,25.642
392.00,25.681
393.00,25.726
394.00,25.746
395.00,25.758
396.00,25.787
397.00,25.735
398.00,25.730
399.00,25.831
400.00,25.849
401.00,25.880
402.00,25.863
403.00,25.874
404.00,25.853
405.00,25.821
406.00,25.846
407.00,25.805
408.00,25.863
409.00,25.832
410.00,25.751
411.00,25.760
412.00,25.766
413.00,25.802
414.00,25.842
415.00,25.841
416.00,25.822
417.00,25.899
418.00,25.911
419.00,25.899
420.00,25.887
421.00,26.038
422.00,26.094
423.00,26.111
424.00,26.100
425.00,26.145
426.00,26.193
427.00,26.254
428.00,26.308
429.00,26.348
430.00,26.415
431.00,26.449
432.00,26.515
433.00,26.586
434.00,26.624
435.00,26.692
436.00,26.773
437.00,26.849
438.00,26.941
439.00,26.997
440.00,27.078
441.00,27.195
442.00,27.278
443.00,27.339
444.00,27.437
445.00,27.529
446.00,27.604
447.00,27.712
448.00,27.807
449.00,27.928
450.00,28.020
451.00,28.190
452.00,28.271
453.00,28.378
454.00,28.492
455.00,28.572
456.00,28.682
457.00,28.853
458.00,28.950
459.00,29.058
460.00,29.169
461.00,29.316
462.00,29.466
463.00,29.567
464.00,29.738
465.00,29.845
466.00,29.947
467.00,30.071
468.00,30.194
469.00,30.330
470.00,30.414
471.00,30.548
472.00,30.693
473.00,30.742
474.00,30.867
475.00,31.040
476.00,31.147
477.00,31.290
478.00,31.376
479.00,31.489
480.00,31.638
481.00,31.777
482.00,31.970
483.00,32.059
484.00,32.202
485.00,32.430
486.00,32.497
487.00,32.585
488.00,32.703
489.00,32.982
490.00,33.072
491.00,33.218
492.00,33.321
493.00,33.435
494.00,33.531
495.00,33.621
496.00,33.804
497.00,33.885
498.00,34.029
499.00,34.090
500.00,34.277
501.00,34.381
502.00,34.451
503.00,34.659
504.00,34.743
505.00,34.894
506.00,35.036
507.00,35.078
508.00,35.200
509.00,35.340
510.00,35.446
511.00,35.553
512.00,35.642
513.00,35.757
514.00,35.946
515.00,36.051
516.00,36.113
517.00,36.310
518.00,36.351
519.00,36.475
520.00,36.534
521.00,36.553
522.00,36.736
523.00,36.863
524.00,36.835
525.00,36.944
526.00,37.077
527.00,37.144
528.00,37.192
529.00,37.291
530.00,37.306
531.00,37.468
532.00,37.508
533.00,37.584
534.00,37.662
535.00,37.779
536.00,37.829
537.00,37.906
538.00,38.045
539.00,38.100
540.00,38.103
541.00,38.172
542.00,38.224
543.00,38.304
544.00,38.370
545.00,38.357
546.00,38.455
547.00,38.532
548.00,38.621
549.00,38.681
550.00,38.769
551.00,38.766
552.00,38.870
553.00,38.971
554.00,39.026
555.00,39.105
556.00,39.066
557.00,39.122
558.00,39.151
559.00,39.226
560.00,39.327
561.00,39.349
562.00,39.445
563.00,39.439
564.00,39.488
565.00,39.529
566.00,39.512
567.00,39.519
568.00,39.632
569.00,39.557
570.00,39.576
571.00,39.652
572.00,39.660
573.00,39.673
574.00,39.867
575.00,39.910
576.00,39.911
577.00,39.965
578.00,39.980
579.00,40.095
580.00,40.100
581.00,40.178
582.00,40.251
583.00,40.348
584.00,40.406
585.00,40.395
586.00,40.438
587.00,40.499
588.00,40.630
589.00,40.580
590.00,40.643
591.00,40.647
592.00,40.651
593.00,40.735
594.00,40.754
595.00,40.774
596.00,40.812
597.00,40.866
598.00,41.004
599.00,41.017
600.00,40.984
601.00,41.046
602.00,41.116
603.00,41.254
604.00,41.250
605.00,41.275
606.00,41.339
607.00,41.347
608.00,41.360
609.00,41.300
610.00,41.290
611.00,41.469
612.00,41.469
613.00,41.363
614.00,41.436
615.00,41.552
616.00,41.592
617.00,41.681
618.00,41.739
619.00,41.818
620.00,41.776
621.00,41.842
622.00,41.930
623.00,42.024
624.00,42.077
625.00,42.138
626.00,42.156
627.00,42.180
628.00,42.278
629.00,42.365
630.00,42.374
631.00,42.411
632.00,42.466
633.00,42.532
634.00,42.553
635.00,42.665
636.00,42.855
637.00,42.960
638.00,42.975
639.00,43.018
640.00,43.099
641.00,43.035
642.00,43.089
643.00,43.229
644.00,43.381
645.00,43.366
646.00,43.446
647.00,43.512
648.00,43.678
649.00,43.803
650.00,43.746
651.00,43.783
652.00,43.867
653.00,44.088
654.00,44.072
655.00,43.967
656.00,44.062
657.00,44.429
658.00,44.329
659.00,44.349
660.00,44.486
661.00,44.615
662.00,44.857
663.00,44.688
664.00,44.779
665.00,44.930
666.00,44.808
667.00,45.136
668.00,45.744
669.00,45.216
670.00,45.313
671.00,45.409
672.00,45.472
673.00,45.661
674.00,45.783
675.00,45.730
676.00,45.763
677.00,45.848
678.00,45.936
679.00,46.028
680.00,46.072
681.00,46.109
682.00,46.321
683.00,46.400
684.00,46.501
685.00,46.738
686.00,46.742
687.00,46.714
688.00,46.704
689.00,46.721
690.00,46.763
691.00,46.869
692.00,47.137
693.00,47.195
694.00,46.945
695.00,47.074
696.00,47.267
697.00,47.346
698.00,47.399
699.00,47.547
700.00,47.522
701.00,47.823
702.00,48.074
703.00,47.856
704.00,47.962
705.00,48.029
706.00,48.229
707.00,48.183
708.00,48.019
709.00,48.330
710.00,48.305
711.00,48.173
712.00,48.329
713.00,48.553
714.00,48.501
715.00,48.748
716.00,48.705
717.00,48.551
718.00,48.708
719.00,48.765
720.00,48.891
721.00,53.223
722.00,53.294
723.00,53.343
724.00,53.301
725.00,53.357
726.00,53.296
727.00,53.312
728.00,53.361
729.00,53.333
730.00,53.427
731.00,53.445
732.00,53.468
733.00,53.475
734.00,53.459
735.00,53.462
736.00,53.510
737.00,53.565
738.00,53.644
739.00,53.557
740.00,53.654
741.00,53.709
742.00,53.682
743.00,53.741
744.00,53.672
745.00,53.708
746.00,53.645
747.00,53.637
748.00,53.683
749.00,53.765
750.00,53.695
751.00,53.604
752.00,53.778
753.00,53.704
754.00,53.647
755.00,53.607
756.00,53.766
757.00,53.604
758.00,53.734
759.00,53.799
760.00,53.701
761.00,53.726
762.00,53.800
763.00,53.699
764.00,53.765
765.00,53.724
766.00,53.719
767.00,53.830
768.00,53.802
769.00,53.776
770.00,53.794
771.00,53.770
772.00,53.820
773.00,53.787
774.00,53.769
775.00,53.829
776.00,53.740
777.00,53.815
778.00,53.774
779.00,53.835
780.00,53.780
781.00,53.804
782.00,53.760
783.00,53.854
784.00,53.756
785.00,53.768
786.00,53.794
787.00,53.743
788.00,53.692
789.00,53.706
790.00,53.663
791.00,53.760
792.00,53.678
793.00,53.673
794.00,53.665
795.00,53.701
796.00,53.744
797.00,53.589
798.00,53.670
799.00,53.639
800.00,53.608
801.00,53.558
802.00,53.560
803.00,53.528
804.00,53.520
805.00,53.527
806.00,53.432
807.00,53.575
808.00,53.442
809.00,53.393
810.00,53.443
811.00,53.388
812.00,53.412
813.00,53.338
814.00,53.391
815.00,53.400
816.00,53.340
817.00,53.378
818.00,53.249
819.00,53.339
820.00,53.292
821.00,53.336
822.00,53.303
823.00,53.235
824.00,53.295
825.00,53.090
826.00,53.094
827.00,53.083
828.00,53.176
829.00,53.089
830.00,53.112
831.00,55.283
832.00,55.265
833.00,55.250
834.00,55.211
835.00,55.207
836.00,55.242
837.00,55.164
838.00,55.149
839.00,55.159
840.00,55.123
841.00,55.121
842.00,55.062
843.00,55.076
844.00,55.063
845.00,55.025
846.00,55.023
847.00,54.971
848.00,54.945
849.00,54.939
850.00,54.840
851.00,54.813
852.00,54.810
853.00,54.796
854.00,54.725
855.00,54.729
856.00,54.678
857.00,54.645
858.00,54.671
859.00,54.630
860.00,54.613
861.00,54.611
862.00,54.584
863.00,54.582
864.00,54.571
865.00,54.575
866.00,54.596
867.00,54.516
868.00,54.554
869.00,54.502
870.00,54.529
871.00,54.483
872.00,54.495
873.00,54.444
874.00,54.478
875.00,54.468
876.00,54.445
877.00,54.431
878.00,54.372
879.00,54.410
880.00,54.395
881.00,54.357
882.00,54.358
883.00,54.361
884.00,54.300
885.00,54.321
886.00,54.278
887.00,54.263
888.00,54.195
889.00,54.210
890.00,54.191
891.00,54.186
892.00,54.128
893.00,54.110
894.00,54.105
895.00,54.073
896.00,54.095
897.00,54.078
898.00,54.048
899.00,54.034
900.00,54.011
901.00,54.035
902.00,53.990
903.00,53.991
904.00,53.952
905.00,53.974
906.00,53.941
907.00,53.923
908.00,53.865
909.00,53.871
910.00,53.858
911.00,53.786
912.00,53.815
913.00,53.803
914.00,53.721
915.00,53.764
916.00,53.730
917.00,53.682
918.00,53.695
919.00,53.687
920.00,53.650
921.00,53.648
922.00,53.627
923.00,53.540
924.00,53.678
925.00,53.561
926.00,53.555
927.00,53.546
928.00,53.528
929.00,53.464
930.00,53.456
931.00,53.425
932.00,53.420
933.00,53.387
934.00,53.384
935.00,53.364
936.00,53.358
937.00,53.332
938.00,53.338
939.00,53.306
940.00,53.257
941.00,53.274
942.00,53.248
943.00,53.221
944.00,53.195
945.00,53.202
946.00,53.205
947.00,53.146
948.00,53.124
949.00,53.135
950.00,53.097
951.00,53.071
952.00,53.039
953.00,53.010
954.00,52.978
955.00,52.953
956.00,52.942
957.00,52.906
958.00,52.882
959.00,52.862
960.00,52.834
961.00,52.824
962.00,52.802
963.00,52.806
964.00,52.777
965.00,52.753
966.00,52.757
967.00,52.751
968.00,52.746
969.00,52.757
970.00,52.727
971.00,52.757
972.00,52.697
973.00,52.711
974.00,52.752
975.00,52.755
976.00,52.725
977.00,52.722
978.00,52.748
979.00,52.728
980.00,52.721
981.00,52.743
982.00,52.748
983.00,52.696
984.00,52.701
985.00,52.794
986.00,52.706
987.00,52.678
988.00,52.665
989.00,52.681
990.00,52.652
991.00,52.618
992.00,52.629
993.00,52.609
994.00,52.583
995.00,52.552
996.00,52.586
997.00,52.562
998.00,52.535
999.00,52.523
1000.00,52.524
1001.00,52.522
1002.00,52.483
1003.00,52.494
1004.00,52.491
1005.00,52.459
1006.00,52.453
1007.00,52.451
1008.00,52.449
1009.00,52.416
1010.00,52.412
1011.00,52.412
1012.00,52.389
1013.00,52.351
1014.00,52.348
1015.00,52.363
1016.00,52.309
1017.00,52.299
1018.00,52.309
1019.00,52.289
1020.00,52.245
1021.00,52.249
1022.00,52.241
1023.00,52.202
1024.00,52.171
1025.00,52.178
1026.00,52.179
1027.00,52.118
1028.00,52.130
1029.00,52.132
1030.00,52.138
1031.00,52.090
1032.00,52.063
1033.00,52.082
1034.00,52.049
1035.00,51.991
1036.00,51.976
1037.00,51.971
1038.00,51.941
1039.00,51.903
1040.00,51.898
1041.00,51.888
1042.00,51.879
1043.00,51.841
1044.00,51.875
1045.00,51.866
1046.00,51.859
1047.00,51.859
1048.00,51.881
1049.00,51.873
1050.00,51.868
1051.00,51.912
1052.00,51.934
1053.00,51.928
1054.00,51.921
1055.00,51.951
1056.00,51.945
1057.00,51.915
1058.00,51.928
1059.00,51.939
1060.00,51.912
1061.00,51.910
1062.00,51.899
1063.00,51.914
1064.00,51.900
1065.00,51.890
1066.00,51.901
1067.00,51.888
1068.00,51.878
1069.00,51.882
1070.00,51.856
1071.00,51.822
1072.00,51.829
1073.00,51.837
1074.00,51.836
1075.00,51.818
1076.00,51.794
1077.00,51.811
1078.00,51.790
1079.00,51.771
1080.00,51.789
1081.00,51.776
1082.00,51.765
1083.00,51.742
1084.00,51.736
1085.00,51.744
1086.00,51.726
1087.00,51.702
1088.00,51.720
1089.00,51.691
1090.00,51.682
1091.00,51.699
1092.00,51.683
1093.00,51.638
1094.00,51.628
1095.00,51.603
1096.00,51.620
1097.00,51.612
1098.00,51.594
1099.00,51.587
1100.00,51.573
1101.00,51.556
1102.00,51.549
1103.00,51.554
1104.00,51.557
1105.00,51.520
1106.00,51.536
1107.00,51.562
1108.00,51.528
1109.00,51.496
1110.00,51.509
1111.00,51.502
1112.00,51.474
1113.00,51.473
1114.00,51.474
1115.00,51.455
1116.00,51.440
1117.00,51.405
1118.00,51.411
1119.00,51.416
1120.00,51.414
1121.00,51.393
1122.00,51.407
1123.00,51.391
1124.00,51.401
1125.00,51.381
1126.00,51.373
1127.00,51.367
1128.00,51.339
1129.00,51.322
1130.00,51.333
1131.00,51.327
1132.00,51.325
1133.00,51.315
1134.00,51.306
1135.00,51.288
1136.00,51.298
1137.00,51.282
1138.00,51.285
1139.00,51.293
1140.00,51.285
1141.00,51.285
1142.00,51.262
1143.00,51.287
1144.00,51.267
1145.00,51.248
1146.00,51.279
1147.00,51.259
1148.00,51.231
1149.00,51.242
1150.00,51.253
1151.00,51.262
1152.00,51.270
1153.00,51.220
1154.00,51.212
1155.00,51.238
1156.00,51.218
1157.00,51.229
1158.00,51.200
1159.00,51.198
1160.00,51.204
1161.00,51.204
1162.00,51.221
1163.00,51.223
1164.00,51.196
1165.00,51.218
1166.00,51.197
1167.00,51.189
1168.00,51.237
1169.00,51.200
1170.00,51.200
1171.00,51.183
1172.00,51.157
1173.00,51.179
1174.00,51.193
1175.00,51.165
1176.00,51.197
1177.00,51.199
1178.00,51.171
1179.00,51.172
1180.00,51.185
1181.00,51.170
1182.00,51.153
1183.00,51.192
1184.00,51.163
1185.00,51.173
1186.00,51.142
1187.00,51.162
1188.00,51.168
1189.00,51.134
1190.00,51.146
1191.00,51.159
1192.00,51.141
1193.00,51.115
1194.00,51.129
1195.00,51.135
1196.00,51.131
1197.00,51.116
1198.00,51.149
1199.00,51.148
1200.00,51.119
1201.00,51.146
1202.00,51.142
1203.00,51.161
1204.00,51.146
1205.00,51.122
1206.00,51.154
1207.00,51.159
1208.00,51.086
1209.00,51.129
1210.00,51.139
1211.00,51.112
1212.00,51.127
1213.00,51.092
1214.00,51.099
1215.00,51.103
1216.00,51.089
1217.00,51.052
1218.00,51.123
1219.00,51.118
1220.00,51.031
1221.00,51.095
1222.00,51.108
1223.00,51.124
1224.00,51.015
1225.00,51.125
1226.00,51.099
1227.00,51.078
1228.00,51.120
1229.00,51.149
1230.00,51.127
1231.00,51.144
1232.00,51.180
1233.00,51.148
1234.00,51.160
1235.00,51.174
1236.00,51.168
1237.00,51.155
1238.00,51.135
1239.00,51.180
1240.00,51.167
1241.00,51.147
1242.00,51.159
1243.00,51.188
1244.00,51.137
1245.00,51.148
1246.00,51.167
1247.00,51.160
1248.00,51.137
1249.00,51.131
1250.00,51.153
1251.00,51.156
1252.00,51.138
1253.00,51.154
1254.00,51.191
1255.00,51.162
1256.00,51.167
1257.00,51.152
1258.00,51.197
1259.00,51.193
1260.00,51.183
1261.00,51.212
1262.00,51.209
1263.00,51.175
1264.00,51.210
1265.00,51.233
1266.00,51.197
1267.00,51.222
1268.00,51.247
1269.00,51.215
1270.00,51.228
1271.00,51.233
1272.00,51.242
1273.00,51.238
1274.00,51.250
1275.00,51.279
1276.00,51.285
1277.00,51.237
1278.00,51.298
1279.00,51.276
1280.00,51.233
1281.00,51.279
1282.00,51.300
1283.00,51.274
1284.00,51.267
1285.00,51.278
1286.00,51.340
1287.00,51.320
1288.00,51.323
1289.00,51.314
1290.00,51.304
1291.00,51.327
1292.00,51.324
1293.00,51.318
1294.00,51.327
1295.00,51.342
1296.00,51.326
1297.00,51.357
1298.00,51.390
1299.00,51.344
1300.00,51.375
1301.00,51.361
1302.00,51.382
1303.00,51.367
1304.00,51.374
1305.00,51.391
1306.00,51.390
1307.00,51.387
1308.00,51.411
1309.00,51.404
1310.00,51.399
1311.00,51.403
1312.00,51.433
1313.00,51.390
1314.00,51.417
1315.00,51.454
1316.00,51.444
1317.00,51.454
1318.00,51.466
1319.00,51.486
1320.00,51.498
1321.00,51.614
1322.00,51.645
1323.00,51.609
1324.00,51.628
1325.00,51.611
1326.00,51.633
1327.00,51.614
1328.00,51.612
1329.00,51.603
1330.00,51.605
1331.00,51.607
1332.00,51.618
1333.00,51.641
1334.00,51.631
1335.00,51.650
1336.00,51.703
1337.00,51.679
1338.00,51.744
1339.00,51.797
1340.00,51.851
1341.00,51.898
1342.00,51.962
1343.00,52.034
1344.00,52.077
1345.00,52.122
1346.00,52.135
1347.00,52.124
1348.00,52.197
1349.00,52.231
1350.00,52.265
1351.00,52.272
1352.00,52.290
1353.00,52.247
1354.00,52.227
1355.00,52.269
1356.00,52.311
1357.00,52.219
1358.00,52.270
1359.00,52.240
1360.00,52.355
1361.00,52.663
1362.00,52.271
1363.00,52.272
1364.00,52.256
1365.00,52.297
1366.00,52.429
1367.00,52.283
1368.00,52.246
1369.00,52.299
1370.00,52.238
1371.00,52.229
1372.00,52.276
1373.00,52.271
1374.00,52.302
1375.00,52.288
1376.00,52.292
1377.00,52.266
1378.00,52.476
1379.00,52.306
1380.00,52.363
1381.00,52.272
1382.00,52.314
1383.00,52.321
1384.00,52.262
1385.00,52.282
1386.00,52.264
1387.00,52.231
1388.00,52.243
1389.00,52.264
1390.00,52.156
1391.00,52.317
1392.00,52.295
1393.00,52.361
1394.00,52.270
1395.00,51.976
1396.00,52.246
1397.00,52.351
1398.00,52.212
1399.00,52.251
1400.00,52.239
1401.00,52.260
1402.00,52.281
1403.00,52.306
1404.00,52.309
1405.00,52.319
1406.00,52.339
1407.00,52.576
1408.00,52.300
1409.00,52.262
1410.00,52.390
1411.00,52.325
1412.00,52.492
1413.00,52.407
1414.00,52.190
1415.00,52.382
1416.00,52.407
1417.00,52.491
1418.00,52.405
1419.00,52.372
1420.00,52.443
1421.00,52.506
1422.00,52.474
1423.00,52.429
1424.00,52.463
1425.00,52.503
1426.00,52.535
1427.00,52.498
1428.00,52.509
1429.00,52.571
1430.00,52.571
1431.00,52.512
1432.00,52.577
1433.00,52.584
1434.00,52.576
1435.00,52.639
1436.00,52.598
1437.00,52.663
1438.00,52.633
1439.00,52.677
1440.00,52.712
1441.00,52.686
1442.00,52.669
1443.00,52.744
1444.00,52.807
1445.00,52.706
1446.00,52.735
1447.00,52.805
1448.00,52.866
1449.00,52.844
1450.00,52.796
1451.00,52.858
1452.00,52.866
1453.00,52.874
1454.00,52.936
1455.00,52.953
1456.00,52.916
1457.00,52.928
1458.00,52.964
1459.00,52.955
1460.00,52.965
1461.00,52.968
1462.00,53.022
1463.00,53.027
1464.00,53.020
1465.00,53.069
1466.00,53.061
1467.00,53.068
1468.00,53.131
1469.00,53.128
1470.00,53.126
1471.00,53.125
1472.00,53.149
1473.00,53.164
1474.00,53.197
1475.00,53.179
1476.00,53.233
1477.00,53.228
1478.00,53.216
1479.00,53.252
1480.00,53.252
1481.00,53.264
1482.00,53.271
1483.00,53.288
1484.00,53.309
1485.00,53.323
1486.00,53.321
1487.00,53.372
1488.00,53.378
1489.00,53.359
1490.00,53.378
1491.00,53.410
1492.00,53.409
1493.00,53.393
1494.00,53.429
1495.00,53.435
1496.00,53.450
1497.00,53.453
1498.00,53.492
1499.00,53.483
1500.00,53.492
1501.00, 
1502.00, 
1503.00, 
1504.00, 
1505.00, 
1506.00, 
1507.00, 
1508.00, 
1509.00, 
1510.00, 
1511.00, 
1512.00, 
1513.00, 
1514.00, 
1515.00, 
1516.00, 
1517.00, 
1518.00, 
1519.00, 
1520.00, 
1521.00, 
1522.00, 
1523.00, 
1524.00, 
1525.00, 
1526.00, 
1527.00, 
1528.00, 
1529.00, 
1530.00, 
1531.00, 
1532.00, 
1533.00, 
1534.00, 
1535.00, 
1536.00, 
1537.00, 
1538.00, 
1539.00, 
1540.00, 
1541.00, 
1542.00, 
1543.00, 
1544.00, 
1545.00, 
1546.00, 
1547.00, 
1548.00, 
1549.00, 
1550.00, 
1551.00, 
1552.00, 
1553.00, 
1554.00, 
1555.00, 
1556.00, 
1557.00, 
1558.00, 
1559.00, 
1560.00, 
1561.00, 
1562.00, 
1563.00, 
1564.00, 
1565.00, 
1566.00, 
1567.00, 
1568.00, 
1569.00, 
1570.00, 
1571.00, 
1572.00, 
1573.00, 
1574.00, 
1575.00, 
1576.00, 
1577.00, 
1578.00, 
1579.00, 
1580.00, 
1581.00, 
1582.00, 
1583.00, 
1584.00, 
1585.00, 
1586.00, 
1587.00, 
1588.00, 
1589.00, 
1590.00, 
1591.00, 
1592.00, 
1593.00, 
1594.00, 
1595.00, 
1596.00, 
1597.00, 
1598.00, 
1599.00, 
1600.00, 
1601.00, 
1602.00, 
1603.00, 
1604.00, 
1605.00, 
1606.00, 
1607.00, 
1608.00, 
1609.00, 
1610.00, 
1611.00, 
1612.00, 
1613.00, 
1614.00, 
1615.00, 
1616.00, 
1617.00, 
1618.00, 
1619.00, 
1620.00, 
1621.00, 
1622.00, 
1623.00, 
1624.00, 
1625.00, 
1626.00, 
1627.00, 
1628.00, 
1629.00, 
1630.00, 
1631.00, 
1632.00, 
1633.00, 
1634.00, 
1635.00, 
1636.00, 
1637.00, 
1638.00, 
1639.00, 
1640.00, 
1641.00, 
1642.00, 
1643.00, 
1644.00, 
1645.00, 
1646.00, 
1647.00, 
1648.00, 
1649.00, 
1650.00, 
1651.00, 
1652.00, 
1653.00, 
1654.00, 
1655.00, 
1656.00, 
1657.00, 
1658.00, 
1659.00, 
1660.00, 
1661.00, 
1662.00, 
1663.00, 
1664.00, 
1665.00, 
1666.00, 
1667.00, 
1668.00, 
1669.00, 
1670.00, 
1671.00, 
1672.00, 
1673.00, 
1674.00, 
1675.00, 
1676.00, 
1677.00, 
1678.00, 
1679.00, 
1680.00, 
1681.00, 
1682.00, 
1683.00, 
1684.00, 
1685.00, 
1686.00, 
1687.00, 
1688.00, 
1689.00, 
1690.00, 
1691.00, 
1692.00, 
1693.00, 
1694.00, 
1695.00, 
1696.00, 
1697.00, 
1698.00, 
1699.00, 
1700.00, 
1701.00, 
1702.00, 
1703.00, 
1704.00, 
1705.00, 
1706.00, 
1707.00, 
1708.00, 
1709.00, 
1710.00, 
1711.00, 
1712.00, 
1713.00, 
1714.00, 
1715.00, 
1716.00, 
1717.00, 
1718.00, 
1719.00, 
1720.00, 
1721.00, 
1722.00, 
1723.00, 
1724.00, 
1725.00, 
1726.00, 
1727.00, 
1728.00, 
1729.00, 
1730.00, 
1731.00, 
1732.00, 
1733.00, 
1734.00, 
1735.00, 
1736.00, 
1737.00, 
1738.00, 
1739.00, 
1740.00, 
1741.00, 
1742.00, 
1743.00, 
1744.00, 
1745.00, 
1746.00, 
1747.00, 
1748.00, 
1749.00, 
1750.00, 
1751.00, 
1752.00, 
1753.00, 
1754.00, 
1755.00, 
1756.00, 
1757.00, 
1758.00, 
1759.00, 
1760.00, 
1761.00, 
1762.00, 
1763.00, 
1764.00, 
1765.00, 
1766.00, 
1767.00, 
1768.00, 
1769.00, 
1770.00, 
1771.00, 
1772.00, 
1773.00, 
1774.00, 
1775.00, 
1776.00, 
1777.00, 
1778.00, 
1779.00, 
1780.00, 
1781.00, 
1782.00, 
1783.00, 
1784.00, 
1785.00, 
1786.00, 
1787.00, 
1788.00, 
1789.00, 
1790.00, 
1791.00, 
1792.00, 
1793.00, 
1794.00, 
1795.00, 
1796.00, 
1797.00, 
1798.00, 
1799.00, 
1800.00, 
1801.00, 
1802.00, 
1803.00, 
1804.00, 
1805.00, 
1806.00, 
1807.00, 
1808.00, 
1809.00, 
1810.00, 
1811.00, 
1812.00, 
1813.00, 
1814.00, 
1815.00, 
1816.00, 
1817.00, 
1818.00, 
1819.00, 
1820.00, 
1821.00, 
1822.00, 
1823.00, 
1824.00, 
1825.00, 
1826.00, 
1827.00, 
1828.00, 
1829.00, 
1830.00, 
1831.00, 
1832.00, 
1833.00, 
1834.00, 
1835.00, 
1836.00, 
1837.00, 
1838.00, 
1839.00, 
1840.00, 
1841.00, 
1842.00, 
1843.00, 
1844.00, 
1845.00, 
1846.00, 
1847.00, 
1848.00, 
1849.00, 
1850.00, 
1851.00, 
1852.00, 
1853.00, 
1854.00, 
1855.00, 
1856.00, 
1857.00, 
1858.00, 
1859.00, 
1860.00, 
1861.00, 
1862.00, 
1863.00, 
1864.00, 
1865.00, 
1866.00, 
1867.00, 
1868.00, 
1869.00, 
1870.00, 
1871.00, 
1872.00, 
1873.00, 
1874.00, 
1875.00, 
1876.00, 
1877.00, 
1878.00, 
1879.00, 
1880.00, 
1881.00, 
1882.00, 
1883.00, 
1884.00, 
1885.00, 
1886.00, 
1887.00, 
1888.00, 
1889.00, 
1890.00, 
1891.00, 
1892.00, 
1893.00, 
1894.00, 
1895.00, 
1896.00, 
1897.00, 
1898.00, 
1899.00, 
1900.00, 
1901.00, 
1902.00, 
1903.00, 
1904.00, 
1905.00, 
1906.00, 
1907.00, 
1908.00, 
1909.00, 
1910.00, 
1911.00, 
1912.00, 
1913.00, 
1914.00, 
1915.00, 
1916.00, 
1917.00, 
1918.00, 
1919.00, 
1920.00, 
1921.00, 
1922.00, 
1923.00, 
1924.00, 
1925.00, 
1926.00, 
1927.00, 
1928.00, 
1929.00, 
1930.00, 
1931.00, 
1932.00, 
1933.00, 
1934.00, 
1935.00, 
1936.00, 
1937.00, 
1938.00, 
1939.00, 
1940.00, 
1941.00, 
1942.00, 
1943.00, 
1944.00, 
1945.00, 
1946.00, 
1947.00, 
1948.00, 
1949.00, 
1950.00, 
1951.00, 
1952.00, 
1953.00, 
1954.00, 
1955.00, 
1956.00, 
1957.00, 
1958.00, 
1959.00, 
1960.00, 
1961.00, 
1962.00, 
1963.00, 
1964.00, 
1965.00, 
1966.00, 
1967.00, 
1968.00, 
1969.00, 
1970.00, 
1971.00, 
1972.00, 
1973.00, 
1974.00, 
1975.00, 
1976.00, 
1977.00, 
1978.00, 
1979.00, 
1980.00, 
1981.00, 
1982.00, 
1983.00, 
1984.00, 
1985.00, 
1986.00, 
1987.00, 
1988.00, 
1989.00, 
1990.00, 
1991.00, 
1992.00, 
1993.00, 
1994.00, 
1995.00, 
1996.00, 
1997.00, 
1998.00, 
1999.00, 
2000.00, 
2001.00, 
2002.00, 
2003.00, 
2004.00, 
2005.00, 
2006.00, 
2007.00, 
2008.00, 
2009.00, 
2010.00, 
2011.00, 
2012.00, 
2013.00, 
2014.00, 
2015.00, 
2016.00, 
2017.00, 
2018.00, 
2019.00, 
2020.00, 
2021.00, 
2022.00, 
2023.00, 
2024.00, 
2025.00, 
2026.00, 
2027.00, 
2028.00, 
2029.00, 
2030.00, 
2031.00, 
2032.00, 
2033.00, 
2034.00, 
2035.00, 
2036.00, 
2037.00, 
2038.00, 
2039.00, 
2040.00, 
2041.00, 
2042.00, 
2043.00, 
2044.00, 
2045.00, 
2046.00, 
2047.00, 
2048.00, 
2049.00, 
2050.00, 
2051.00, 
2052.00, 
2053.00, 
2054.00, 
2055.00, 
2056.00, 
2057.00, 
2058.00, 
2059.00, 
2060.00, 
2061.00, 
2062.00, 
2063.00, 
2064.00, 
2065.00, 
2066.00, 
2067.00, 
2068.00, 
2069.00, 
2070.00, 
2071.00, 
2072.00, 
2073.00, 
2074.00, 
2075.00, 
2076.00, 
2077.00, 
2078.00, 
2079.00, 
2080.00, 
2081.00, 
2082.00, 
2083.00, 
2084.00, 
2085.00, 
2086.00, 
2087.00, 
2088.00, 
2089.00, 
2090.00, 
2091.00, 
2092.00, 
2093.00, 
2094.00, 
2095.00, 
2096.00, 
2097.00, 
2098.00, 
2099.00, 
2100.00, 
2101.00, 
2102.00, 
2103.00, 
2104.00, 
2105.00, 
2106.00, 
2107.00, 
2108.00, 
2109.00, 
2110.00, 
2111.00, 
2112.00, 
2113.00, 
2114.00, 
2115.00, 
2116.00, 
2117.00, 
2118.00, 
2119.00, 
2120.00, 
2121.00, 
2122.00, 
2123.00, 
2124.00, 
2125.00, 
2126.00, 
2127.00, 
2128.00, 
2129.00, 
2130.00, 
2131.00, 
2132.00, 
2133.00, 
2134.00, 
2135.00, 
2136.00, 
2137.00, 
2138.00, 
2139.00, 
2140.00, 
2141.00, 
2142.00, 
2143.00, 
2144.00, 
2145.00, 
2146.00, 
2147.00, 
2148.00, 
2149.00, 
2150.00, 
2151.00, 
2152.00, 
2153.00, 
2154.00, 
2155.00, 
2156.00, 
2157.00, 
2158.00, 
2159.00, 
2160.00, 
2161.00, 
2162.00, 
2163.00, 
2164.00, 
2165.00, 
2166.00, 
2167.00, 
2168.00, 
2169.00, 
2170.00, 
2171.00, 
2172.00, 
2173.00, 
2174.00, 
2175.00, 
2176.00, 
2177.00, 
2178.00, 
2179.00, 
2180.00, 
2181.00, 
2182.00, 
2183.00, 
2184.00, 
2185.00, 
2186.00, 
2187.00, 
2188.00, 
2189.00, 
2190.00, 
2191.00, 
2192.00, 
2193.00, 
2194.00, 
2195.00, 
2196.00, 
2197.00, 
2198.00, 
2199.00, 
2200.00, 
2201.00, 
2202.00, 
2203.00, 
2204.00, 
2205.00, 
2206.00, 
2207.00, 
2208.00, 
2209.00, 
2210.00, 
2211.00, 
2212.00, 
2213.00, 
2214.00, 
2215.00, 
2216.00, 
2217.00, 
2218.00, 
2219.00, 
2220.00, 
2221.00, 
2222.00, 
2223.00, 
2224.00, 
2225.00, 
2226.00, 
2227.00, 
2228.00, 
2229.00, 
2230.00, 
2231.00, 
2232.00, 
2233.00, 
2234.00, 
2235.00, 
2236.00, 
2237.00, 
2238.00, 
2239.00, 
2240.00, 
2241.00, 
2242.00, 
2243.00, 
2244.00, 
2245.00, 
2246.00, 
2247.00, 
2248.00, 
2249.00, 
2250.00, 
2251.00, 
2252.00, 
2253.00, 
2254.00, 
2255.00, 
2256.00, 
2257.00, 
2258.00, 
2259.00, 
2260.00, 
2261.00, 
2262.00, 
2263.00, 
2264.00, 
2265.00, 
2266.00, 
2267.00, 
2268.00, 
2269.00, 
2270.00, 
2271.00, 
2272.00, 
2273.00, 
2274.00, 
2275.00, 
2276.00, 
2277.00, 
2278.00, 
2279.00, 
2280.00, 
2281.00, 
2282.00, 
2283.00, 
2284.00, 
2285.00, 
2286.00, 
2287.00, 
2288.00, 
2289.00, 
2290.00, 
2291.00, 
2292.00, 
2293.00, 
2294.00, 
2295.00, 
2296.00, 
2297.00, 
2298.00, 
2299.00, 
2300.00, 
2301.00, 
2302.00, 
2303.00, 
2304.00, 
2305.00, 
2306.00, 
2307.00, 
2308.00, 
2309.00, 
2310.00, 
2311.00, 
2312.00, 
2313.00, 
2314.00, 
2315.00, 
2316.00, 
2317.00, 
2318.00, 
2319.00, 
2320.00, 
2321.00, 
2322.00, 
2323.00, 
2324.00, 
2325.00, 
2326.00, 
2327.00, 
2328.00, 
2329.00, 
2330.00, 
2331.00, 
2332.00, 
2333.00, 
2334.00, 
2335.00, 
2336.00, 
2337.00, 
2338.00, 
2339.00, 
2340.00, 
2341.00, 
2342.00, 
2343.00, 
2344.00, 
2345.00, 
2346.00, 
2347.00, 
2348.00, 
2349.00, 
2350.00, 
2351.00, 
2352.00, 
2353.00, 
2354.00, 
2355.00, 
2356.00, 
2357.00, 
2358.00, 
2359.00, 
2360.00, 
2361.00, 
2362.00, 
2363.00, 
2364.00, 
2365.00, 
2366.00, 
2367.00, 
2368.00, 
2369.00, 
2370.00, 
2371.00, 
2372.00, 
2373.00, 
2374.00, 
2375.00, 
2376.00, 
2377.00, 
2378.00, 
2379.00, 
2380.00, 
2381.00, 
2382.00, 
2383.00, 
2384.00, 
2385.00, 
2386.00, 
2387.00, 
2388.00, 
2389.00, 
2390.00, 
2391.00, 
2392.00, 
2393.00, 
2394.00, 
2395.00, 
2396.00, 
2397.00, 
2398.00, 
2399.00, 
2400.00, 
2401.00, 
2402.00, 
2403.00, 
2404.00, 
2405.00, 
2406.00, 
2407.00, 
2408.00, 
2409.00, 
2410.00, 
2411.00, 
2412.00, 
2413.00, 
2414.00, 
2415.00, 
2416.00, 
2417.00, 
2418.00, 
2419.00, 
2420.00, 
2421.00, 
2422.00, 
2423.00, 
2424.00, 
2425.00, 
2426.00, 
2427.00, 
2428.00, 
2429.00, 
2430.00, 
2431.00, 
2432.00, 
2433.00, 
2434.00, 
2435.00, 
2436.00, 
2437.00, 
2438.00, 
2439.00, 
2440.00, 
2441.00, 
2442.00, 
2443.00, 
2444.00, 
2445.00, 
2446.00, 
2447.00, 
2448.00, 
2449.00, 
2450.00, 
2451.00, 
2452.00, 
2453.00, 
2454.00, 
2455.00, 
2456.00, 
2457.00, 
2458.00, 
2459.00, 
2460.00, 
2461.00, 
2462.00, 
2463.00, 
2464.00, 
2465.00, 
2466.00, 
2467.00, 
2468.00, 
2469.00, 
2470.00, 
2471.00, 
2472.00, 
2473.00, 
2474.00, 
2475.00, 
2476.00, 
2477.00, 
2478.00, 
2479.00, 
2480.00, 
2481.00, 
2482.00, 
2483.00, 
2484.00, 
2485.00, 
2486.00, 
2487.00, 
2488.00, 
2489.00, 
2490.00, 
2491.00, 
2492.00, 
2493.00, 
2494.00, 
2495.00, 
2496.00, 
2497.00, 
2498.00, 
2499.00, 
2500.00, 
2501.00, 
2502.00, 
2503.00, 
2504.00, 
2505.00, 
2506.00, 
2507.00, 
2508.00, 
2509.00, 
2510.00, 
2511.00, 
2512.00, 
2513.00, 
2514.00, 
2515.00, 
2516.00, 
2517.00, 
2518.00, 
2519.00, 
2520.00, 
2521.00, 
2522.00, 
2523.00, 
2524.00, 
2525.00, 
2526.00, 
2527.00, 
2528.00, 
2529.00, 
2530.00, 
2531.00, 
2532.00, 
2533.00, 
2534.00, 
2535.00, 
2536.00, 
2537.00, 
2538.00, 
2539.00, 
2540.00, 
2541.00, 
2542.00, 
2543.00, 
2544.00, 
2545.00, 
2546.00, 
2547.00, 
2548.00, 
2549.00, 
2550.00, 
2551.00, 
2552.00, 
2553.00, 
2554.00, 
2555.00, 
2556.00, 
2557.00, 
2558.00, 
2559.00, 
2560.00, 
2561.00, 
2562.00, 
2563.00, 
2564.00, 
2565.00, 
2566.00, 
2567.00, 
2568.00, 
2569.00, 
2570.00, 
2571.00, 
2572.00, 
2573.00, 
2574.00, 
2575.00, 
2576.00, 
2577.00, 
2578.00, 
2579.00, 
2580.00, 
2581.00, 
2582.00, 
2583.00, 
2584.00, 
2585.00, 
2586.00, 
2587.00, 
2588.00, 
2589.00, 
2590.00, 
2591.00, 
2592.00, 
2593.00, 
2594.00, 
2595.00, 
2596.00, 
2597.00, 
2598.00, 
2599.00, 
2600.00, 
