"2bP2 - RawData"
"Wavelength nm.","T%"
200.00,0.001
201.00,0.003
202.00,0.003
203.00,0.005
204.00,0.006
205.00,0.003
206.00,0.001
207.00,0.003
208.00,-0.000
209.00,-0.000
210.00,0.002
211.00,0.003
212.00,0.000
213.00,0.001
214.00,0.002
215.00,0.001
216.00,0.002
217.00,0.004
218.00,0.001
219.00,0.001
220.00,0.001
221.00,0.004
222.00,0.000
223.00,0.002
224.00,0.002
225.00,0.002
226.00,0.003
227.00,-0.002
228.00,0.001
229.00,0.001
230.00,0.000
231.00,-0.000
232.00,0.001
233.00,0.001
234.00,-0.001
235.00,0.002
236.00,0.001
237.00,-0.001
238.00,0.001
239.00,-0.000
240.00,0.002
241.00,-0.000
242.00,0.002
243.00,0.002
244.00,0.001
245.00,0.000
246.00,0.001
247.00,0.002
248.00,0.001
249.00,0.001
250.00,0.002
251.00,-0.000
252.00,0.000
253.00,0.001
254.00,0.000
255.00,0.001
256.00,-0.001
257.00,-0.001
258.00,-0.001
259.00,-0.001
260.00,0.001
261.00,0.001
262.00,0.000
263.00,0.002
264.00,0.000
265.00,-0.002
266.00,0.002
267.00,-0.001
268.00,0.000
269.00,0.001
270.00,-0.000
271.00,-0.000
272.00,0.001
273.00,0.001
274.00,-0.000
275.00,-0.000
276.00,0.001
277.00,0.001
278.00,0.000
279.00,-0.001
280.00,0.001
281.00,-0.000
282.00,0.000
283.00,0.001
284.00,-0.000
285.00,0.001
286.00,0.001
287.00,0.001
288.00,-0.001
289.00,0.002
290.00,0.001
291.00,0.001
292.00,0.000
293.00,-0.000
294.00,0.000
295.00,0.001
296.00,0.001
297.00,0.001
298.00,0.001
299.00,0.003
300.00,0.003
301.00,0.006
302.00,0.009
303.00,0.012
304.00,0.022
305.00,0.029
306.00,0.045
307.00,0.069
308.00,0.104
309.00,0.162
310.00,0.230
311.00,0.299
312.00,0.405
313.00,0.553
314.00,0.712
315.00,0.923
316.00,1.155
317.00,1.460
318.00,1.785
319.00,2.200
320.00,2.640
321.00,3.152
322.00,3.716
323.00,4.359
324.00,5.023
325.00,5.700
326.00,6.434
327.00,7.208
328.00,8.067
329.00,8.861
330.00,9.734
331.00,10.618
332.00,11.488
333.00,12.431
334.00,13.293
335.00,14.244
336.00,15.145
337.00,16.040
338.00,16.911
339.00,17.701
340.00,18.581
341.00,19.384
342.00,20.157
343.00,20.919
344.00,21.624
345.00,22.283
346.00,23.008
347.00,23.559
348.00,24.212
349.00,24.714
350.00,25.210
351.00,25.716
352.00,26.094
353.00,26.531
354.00,27.021
355.00,27.358
356.00,27.693
357.00,28.093
358.00,28.376
359.00,28.683
360.00,28.902
361.00,29.062
362.00,29.282
363.00,29.703
364.00,29.782
365.00,29.976
366.00,30.131
367.00,30.250
368.00,30.374
369.00,30.449
370.00,30.544
371.00,30.663
372.00,30.629
373.00,30.671
374.00,30.668
375.00,30.701
376.00,30.643
377.00,30.684
378.00,30.605
379.00,30.612
380.00,30.570
381.00,30.548
382.00,30.594
383.00,30.618
384.00,30.710
385.00,30.741
386.00,30.828
387.00,30.906
388.00,30.904
389.00,31.008
390.00,30.996
391.00,31.126
392.00,31.159
393.00,31.179
394.00,31.247
395.00,31.259
396.00,31.280
397.00,31.280
398.00,31.316
399.00,31.338
400.00,31.372
401.00,31.413
402.00,31.383
403.00,31.375
404.00,31.385
405.00,31.365
406.00,31.357
407.00,31.337
408.00,31.382
409.00,31.341
410.00,31.284
411.00,31.272
412.00,31.273
413.00,31.306
414.00,31.304
415.00,31.308
416.00,31.328
417.00,31.319
418.00,31.317
419.00,31.364
420.00,31.352
421.00,31.506
422.00,31.516
423.00,31.568
424.00,31.563
425.00,31.589
426.00,31.623
427.00,31.690
428.00,31.719
429.00,31.745
430.00,31.807
431.00,31.845
432.00,31.872
433.00,31.949
434.00,32.001
435.00,32.040
436.00,32.138
437.00,32.166
438.00,32.243
439.00,32.287
440.00,32.345
441.00,32.425
442.00,32.552
443.00,32.569
444.00,32.686
445.00,32.764
446.00,32.797
447.00,32.870
448.00,33.018
449.00,33.066
450.00,33.190
451.00,33.269
452.00,33.381
453.00,33.484
454.00,33.598
455.00,33.668
456.00,33.752
457.00,33.906
458.00,34.032
459.00,34.121
460.00,34.222
461.00,34.265
462.00,34.405
463.00,34.578
464.00,34.535
465.00,34.750
466.00,34.865
467.00,35.007
468.00,35.087
469.00,35.197
470.00,35.268
471.00,35.357
472.00,35.483
473.00,35.527
474.00,35.648
475.00,35.750
476.00,35.864
477.00,35.958
478.00,36.073
479.00,36.193
480.00,36.334
481.00,36.459
482.00,36.559
483.00,36.701
484.00,36.828
485.00,36.995
486.00,37.127
487.00,37.205
488.00,37.351
489.00,37.503
490.00,37.657
491.00,37.733
492.00,37.840
493.00,37.925
494.00,38.023
495.00,38.049
496.00,38.227
497.00,38.263
498.00,38.427
499.00,38.545
500.00,38.614
501.00,38.741
502.00,38.851
503.00,38.919
504.00,38.886
505.00,39.136
506.00,39.304
507.00,39.302
508.00,39.407
509.00,39.590
510.00,39.678
511.00,39.715
512.00,39.845
513.00,39.916
514.00,40.067
515.00,40.210
516.00,40.212
517.00,40.413
518.00,40.424
519.00,40.475
520.00,40.608
521.00,40.647
522.00,40.758
523.00,40.799
524.00,40.894
525.00,40.969
526.00,41.054
527.00,41.118
528.00,41.166
529.00,41.248
530.00,41.298
531.00,41.414
532.00,41.453
533.00,41.524
534.00,41.640
535.00,41.680
536.00,41.713
537.00,41.786
538.00,41.926
539.00,41.938
540.00,41.939
541.00,42.021
542.00,42.086
543.00,42.131
544.00,42.195
545.00,42.211
546.00,42.260
547.00,42.341
548.00,42.401
549.00,42.453
550.00,42.549
551.00,42.567
552.00,42.607
553.00,42.731
554.00,42.750
555.00,42.768
556.00,42.779
557.00,42.890
558.00,42.886
559.00,42.927
560.00,43.124
561.00,43.117
562.00,43.044
563.00,43.088
564.00,43.245
565.00,43.160
566.00,43.244
567.00,43.277
568.00,43.308
569.00,43.365
570.00,43.348
571.00,43.363
572.00,43.402
573.00,43.431
574.00,43.489
575.00,43.506
576.00,43.520
577.00,43.594
578.00,43.642
579.00,43.653
580.00,43.709
581.00,43.839
582.00,43.903
583.00,43.878
584.00,43.998
585.00,44.024
586.00,44.040
587.00,44.097
588.00,44.144
589.00,44.205
590.00,44.228
591.00,44.261
592.00,44.244
593.00,44.300
594.00,44.329
595.00,44.366
596.00,44.403
597.00,44.484
598.00,44.510
599.00,44.544
600.00,44.517
601.00,44.544
602.00,44.584
603.00,44.739
604.00,44.788
605.00,44.816
606.00,44.840
607.00,44.786
608.00,44.843
609.00,44.799
610.00,44.743
611.00,44.880
612.00,44.844
613.00,44.870
614.00,44.857
615.00,44.908
616.00,45.011
617.00,44.980
618.00,44.926
619.00,45.017
620.00,45.054
621.00,45.395
622.00,45.330
623.00,45.284
624.00,45.358
625.00,45.385
626.00,45.411
627.00,45.453
628.00,45.437
629.00,45.534
630.00,45.591
631.00,45.551
632.00,45.685
633.00,45.742
634.00,45.641
635.00,45.710
636.00,45.844
637.00,45.992
638.00,46.041
639.00,46.060
640.00,46.163
641.00,46.108
642.00,46.155
643.00,46.209
644.00,46.341
645.00,46.349
646.00,46.399
647.00,46.418
648.00,46.541
649.00,46.629
650.00,46.559
651.00,46.708
652.00,46.761
653.00,46.790
654.00,46.805
655.00,46.765
656.00,46.867
657.00,47.073
658.00,47.056
659.00,47.039
660.00,47.016
661.00,47.130
662.00,47.388
663.00,47.341
664.00,47.411
665.00,47.475
666.00,47.537
667.00,47.607
668.00,47.623
669.00,47.665
670.00,47.798
671.00,47.811
672.00,47.853
673.00,48.048
674.00,48.030
675.00,47.932
676.00,47.974
677.00,48.126
678.00,48.067
679.00,48.232
680.00,48.275
681.00,48.279
682.00,48.327
683.00,48.399
684.00,48.534
685.00,48.647
686.00,48.608
687.00,48.648
688.00,48.698
689.00,48.631
690.00,48.799
691.00,48.842
692.00,48.792
693.00,48.838
694.00,48.813
695.00,48.924
696.00,49.012
697.00,49.013
698.00,49.114
699.00,49.138
700.00,49.330
701.00,49.352
702.00,49.389
703.00,49.497
704.00,49.532
705.00,49.518
706.00,49.677
707.00,49.596
708.00,49.483
709.00,49.810
710.00,49.627
711.00,49.610
712.00,49.718
713.00,49.809
714.00,49.820
715.00,49.924
716.00,49.952
717.00,49.803
718.00,49.904
719.00,49.984
720.00,50.017
721.00,54.601
722.00,54.652
723.00,54.739
724.00,54.583
725.00,54.625
726.00,54.622
727.00,54.617
728.00,54.629
729.00,54.554
730.00,54.613
731.00,54.604
732.00,54.538
733.00,54.596
734.00,54.570
735.00,54.579
736.00,54.570
737.00,54.617
738.00,54.634
739.00,54.618
740.00,54.663
741.00,54.716
742.00,54.619
743.00,54.653
744.00,54.555
745.00,54.704
746.00,54.528
747.00,54.612
748.00,54.544
749.00,54.521
750.00,54.512
751.00,54.469
752.00,54.534
753.00,54.392
754.00,54.400
755.00,54.339
756.00,54.458
757.00,54.337
758.00,54.426
759.00,54.433
760.00,54.396
761.00,54.379
762.00,54.436
763.00,54.334
764.00,54.364
765.00,54.329
766.00,54.331
767.00,54.428
768.00,54.379
769.00,54.331
770.00,54.328
771.00,54.348
772.00,54.319
773.00,54.250
774.00,54.248
775.00,54.268
776.00,54.238
777.00,54.288
778.00,54.252
779.00,54.304
780.00,54.243
781.00,54.192
782.00,54.207
783.00,54.183
784.00,54.141
785.00,54.132
786.00,54.174
787.00,54.105
788.00,54.046
789.00,54.126
790.00,53.998
791.00,54.051
792.00,54.040
793.00,54.058
794.00,54.028
795.00,53.981
796.00,54.042
797.00,53.887
798.00,53.918
799.00,53.878
800.00,53.838
801.00,53.850
802.00,53.806
803.00,53.878
804.00,53.794
805.00,53.686
806.00,53.646
807.00,53.722
808.00,53.731
809.00,53.576
810.00,53.715
811.00,53.638
812.00,53.670
813.00,53.560
814.00,53.628
815.00,53.566
816.00,53.571
817.00,53.570
818.00,53.470
819.00,53.575
820.00,53.388
821.00,53.519
822.00,53.421
823.00,53.471
824.00,53.452
825.00,53.277
826.00,53.288
827.00,53.287
828.00,53.357
829.00,53.288
830.00,53.280
831.00,55.639
832.00,55.572
833.00,55.595
834.00,55.606
835.00,55.573
836.00,55.555
837.00,55.507
838.00,55.495
839.00,55.402
840.00,55.416
841.00,55.398
842.00,55.384
843.00,55.372
844.00,55.329
845.00,55.321
846.00,55.302
847.00,55.253
848.00,55.244
849.00,55.207
850.00,55.143
851.00,55.121
852.00,55.090
853.00,55.087
854.00,55.034
855.00,55.003
856.00,54.979
857.00,54.969
858.00,54.953
859.00,54.917
860.00,54.883
861.00,54.878
862.00,54.878
863.00,54.842
864.00,54.854
865.00,54.829
866.00,54.738
867.00,54.723
868.00,54.777
869.00,54.741
870.00,54.758
871.00,54.729
872.00,54.745
873.00,54.687
874.00,54.714
875.00,54.695
876.00,54.658
877.00,54.648
878.00,54.627
879.00,54.645
880.00,54.582
881.00,54.585
882.00,54.599
883.00,54.585
884.00,54.503
885.00,54.518
886.00,54.491
887.00,54.478
888.00,54.441
889.00,54.459
890.00,54.440
891.00,54.401
892.00,54.372
893.00,54.364
894.00,54.345
895.00,54.311
896.00,54.312
897.00,54.286
898.00,54.249
899.00,54.255
900.00,54.237
901.00,54.228
902.00,54.219
903.00,54.228
904.00,54.196
905.00,54.161
906.00,54.126
907.00,54.144
908.00,54.105
909.00,54.075
910.00,53.998
911.00,54.126
912.00,54.016
913.00,53.986
914.00,53.944
915.00,53.960
916.00,53.911
917.00,53.886
918.00,53.895
919.00,53.860
920.00,53.813
921.00,53.794
922.00,54.016
923.00,53.752
924.00,53.751
925.00,53.744
926.00,53.735
927.00,53.681
928.00,53.712
929.00,53.676
930.00,53.623
931.00,53.600
932.00,53.633
933.00,53.589
934.00,53.593
935.00,53.565
936.00,53.557
937.00,53.525
938.00,53.500
939.00,53.505
940.00,53.489
941.00,53.446
942.00,53.417
943.00,53.433
944.00,53.390
945.00,53.362
946.00,53.351
947.00,53.345
948.00,53.318
949.00,53.278
950.00,53.284
951.00,53.279
952.00,53.228
953.00,53.213
954.00,53.188
955.00,53.156
956.00,53.106
957.00,53.091
958.00,53.086
959.00,53.055
960.00,53.004
961.00,53.038
962.00,53.034
963.00,52.975
964.00,52.977
965.00,52.971
966.00,52.968
967.00,52.917
968.00,52.931
969.00,52.919
970.00,52.918
971.00,52.929
972.00,52.905
973.00,52.937
974.00,52.923
975.00,52.932
976.00,52.915
977.00,52.930
978.00,52.926
979.00,52.902
980.00,52.953
981.00,52.935
982.00,52.879
983.00,52.978
984.00,52.944
985.00,52.910
986.00,52.892
987.00,52.917
988.00,52.867
989.00,52.866
990.00,52.847
991.00,52.836
992.00,52.824
993.00,52.780
994.00,52.809
995.00,52.785
996.00,52.769
997.00,52.742
998.00,52.774
999.00,52.750
1000.00,52.696
1001.00,52.721
1002.00,52.708
1003.00,52.687
1004.00,52.641
1005.00,52.675
1006.00,52.676
1007.00,52.594
1008.00,52.634
1009.00,52.632
1010.00,52.614
1011.00,52.563
1012.00,52.572
1013.00,52.570
1014.00,52.536
1015.00,52.548
1016.00,52.538
1017.00,52.520
1018.00,52.489
1019.00,52.492
1020.00,52.479
1021.00,52.451
1022.00,52.412
1023.00,52.412
1024.00,52.386
1025.00,52.369
1026.00,52.388
1027.00,52.345
1028.00,52.361
1029.00,52.369
1030.00,52.313
1031.00,52.322
1032.00,52.273
1033.00,52.252
1034.00,52.251
1035.00,52.219
1036.00,52.169
1037.00,52.157
1038.00,52.161
1039.00,52.117
1040.00,52.080
1041.00,52.077
1042.00,52.092
1043.00,52.043
1044.00,52.079
1045.00,52.063
1046.00,52.063
1047.00,52.053
1048.00,52.076
1049.00,52.107
1050.00,52.098
1051.00,52.082
1052.00,52.107
1053.00,52.136
1054.00,52.130
1055.00,52.123
1056.00,52.194
1057.00,52.166
1058.00,52.110
1059.00,52.115
1060.00,52.136
1061.00,52.127
1062.00,52.095
1063.00,52.120
1064.00,52.111
1065.00,52.093
1066.00,52.079
1067.00,52.094
1068.00,52.087
1069.00,52.071
1070.00,52.051
1071.00,52.030
1072.00,52.035
1073.00,52.012
1074.00,52.017
1075.00,52.024
1076.00,52.017
1077.00,51.987
1078.00,51.987
1079.00,51.980
1080.00,51.979
1081.00,51.963
1082.00,51.970
1083.00,51.959
1084.00,51.940
1085.00,51.932
1086.00,51.933
1087.00,51.900
1088.00,51.898
1089.00,51.904
1090.00,51.913
1091.00,51.873
1092.00,51.869
1093.00,51.836
1094.00,51.829
1095.00,51.819
1096.00,51.813
1097.00,51.802
1098.00,51.802
1099.00,51.786
1100.00,51.795
1101.00,51.766
1102.00,51.774
1103.00,51.775
1104.00,51.770
1105.00,51.789
1106.00,51.736
1107.00,51.719
1108.00,51.734
1109.00,51.722
1110.00,51.701
1111.00,51.692
1112.00,51.663
1113.00,51.663
1114.00,51.670
1115.00,51.648
1116.00,51.649
1117.00,51.639
1118.00,51.634
1119.00,51.634
1120.00,51.644
1121.00,51.608
1122.00,51.609
1123.00,51.608
1124.00,51.610
1125.00,51.604
1126.00,51.595
1127.00,51.600
1128.00,51.592
1129.00,51.553
1130.00,51.553
1131.00,51.549
1132.00,51.552
1133.00,51.528
1134.00,51.512
1135.00,51.523
1136.00,51.509
1137.00,51.489
1138.00,51.503
1139.00,51.527
1140.00,51.506
1141.00,51.507
1142.00,51.490
1143.00,51.510
1144.00,51.496
1145.00,51.458
1146.00,51.458
1147.00,51.453
1148.00,51.454
1149.00,51.453
1150.00,51.465
1151.00,51.489
1152.00,51.457
1153.00,51.449
1154.00,51.444
1155.00,51.460
1156.00,51.427
1157.00,51.446
1158.00,51.426
1159.00,51.403
1160.00,51.410
1161.00,51.427
1162.00,51.396
1163.00,51.427
1164.00,51.432
1165.00,51.408
1166.00,51.409
1167.00,51.402
1168.00,51.413
1169.00,51.390
1170.00,51.389
1171.00,51.412
1172.00,51.390
1173.00,51.359
1174.00,51.409
1175.00,51.402
1176.00,51.370
1177.00,51.380
1178.00,51.375
1179.00,51.367
1180.00,51.348
1181.00,51.361
1182.00,51.380
1183.00,51.363
1184.00,51.327
1185.00,51.393
1186.00,51.370
1187.00,51.347
1188.00,51.367
1189.00,51.367
1190.00,51.354
1191.00,51.358
1192.00,51.338
1193.00,51.341
1194.00,51.350
1195.00,51.330
1196.00,51.388
1197.00,51.375
1198.00,51.338
1199.00,51.360
1200.00,51.345
1201.00,51.377
1202.00,51.366
1203.00,51.335
1204.00,51.353
1205.00,51.375
1206.00,51.355
1207.00,51.371
1208.00,51.352
1209.00,51.374
1210.00,51.352
1211.00,51.349
1212.00,51.387
1213.00,51.331
1214.00,51.330
1215.00,51.328
1216.00,51.335
1217.00,51.305
1218.00,51.335
1219.00,51.330
1220.00,51.296
1221.00,51.334
1222.00,51.308
1223.00,51.350
1224.00,51.342
1225.00,51.334
1226.00,51.343
1227.00,51.322
1228.00,51.317
1229.00,51.382
1230.00,51.378
1231.00,51.335
1232.00,51.393
1233.00,51.366
1234.00,51.375
1235.00,51.357
1236.00,51.343
1237.00,51.351
1238.00,51.360
1239.00,51.351
1240.00,51.353
1241.00,51.365
1242.00,51.359
1243.00,51.388
1244.00,51.341
1245.00,51.374
1246.00,51.378
1247.00,51.367
1248.00,51.379
1249.00,51.373
1250.00,51.355
1251.00,51.371
1252.00,51.389
1253.00,51.372
1254.00,51.402
1255.00,51.399
1256.00,51.406
1257.00,51.396
1258.00,51.428
1259.00,51.424
1260.00,51.445
1261.00,51.416
1262.00,51.445
1263.00,51.426
1264.00,51.419
1265.00,51.428
1266.00,51.424
1267.00,51.450
1268.00,51.441
1269.00,51.430
1270.00,51.472
1271.00,51.453
1272.00,51.459
1273.00,51.497
1274.00,51.488
1275.00,51.477
1276.00,51.499
1277.00,51.476
1278.00,51.497
1279.00,51.484
1280.00,51.464
1281.00,51.508
1282.00,51.531
1283.00,51.506
1284.00,51.545
1285.00,51.521
1286.00,51.521
1287.00,51.539
1288.00,51.528
1289.00,51.516
1290.00,51.524
1291.00,51.519
1292.00,51.534
1293.00,51.521
1294.00,51.517
1295.00,51.589
1296.00,51.570
1297.00,51.549
1298.00,51.579
1299.00,51.554
1300.00,51.580
1301.00,51.563
1302.00,51.582
1303.00,51.602
1304.00,51.567
1305.00,51.573
1306.00,51.632
1307.00,51.632
1308.00,51.592
1309.00,51.617
1310.00,51.630
1311.00,51.619
1312.00,51.615
1313.00,51.610
1314.00,51.652
1315.00,51.631
1316.00,51.643
1317.00,51.703
1318.00,51.690
1319.00,51.660
1320.00,51.707
1321.00,51.822
1322.00,51.835
1323.00,51.820
1324.00,51.815
1325.00,51.795
1326.00,51.824
1327.00,51.809
1328.00,51.799
1329.00,51.777
1330.00,51.802
1331.00,51.827
1332.00,51.821
1333.00,51.795
1334.00,51.849
1335.00,51.832
1336.00,51.900
1337.00,51.925
1338.00,51.972
1339.00,52.008
1340.00,52.061
1341.00,52.131
1342.00,52.201
1343.00,52.230
1344.00,52.277
1345.00,52.347
1346.00,52.331
1347.00,52.360
1348.00,52.400
1349.00,52.443
1350.00,52.457
1351.00,52.482
1352.00,52.508
1353.00,52.473
1354.00,52.453
1355.00,52.453
1356.00,52.543
1357.00,52.444
1358.00,52.510
1359.00,52.513
1360.00,52.558
1361.00,52.926
1362.00,52.508
1363.00,52.524
1364.00,52.520
1365.00,52.545
1366.00,52.633
1367.00,52.554
1368.00,52.385
1369.00,52.473
1370.00,52.463
1371.00,52.471
1372.00,52.501
1373.00,52.478
1374.00,52.508
1375.00,52.500
1376.00,52.504
1377.00,52.467
1378.00,52.645
1379.00,52.501
1380.00,52.571
1381.00,52.463
1382.00,52.403
1383.00,52.491
1384.00,52.438
1385.00,52.436
1386.00,52.482
1387.00,52.409
1388.00,52.459
1389.00,52.488
1390.00,52.371
1391.00,52.430
1392.00,52.461
1393.00,52.679
1394.00,52.470
1395.00,52.276
1396.00,52.439
1397.00,52.602
1398.00,52.489
1399.00,52.391
1400.00,52.471
1401.00,52.463
1402.00,52.696
1403.00,52.621
1404.00,52.437
1405.00,52.519
1406.00,52.521
1407.00,52.673
1408.00,52.456
1409.00,52.553
1410.00,52.549
1411.00,52.505
1412.00,52.732
1413.00,52.608
1414.00,52.404
1415.00,52.562
1416.00,52.631
1417.00,52.665
1418.00,52.593
1419.00,52.582
1420.00,52.634
1421.00,52.679
1422.00,52.670
1423.00,52.621
1424.00,52.712
1425.00,52.663
1426.00,52.706
1427.00,52.716
1428.00,52.690
1429.00,52.743
1430.00,52.749
1431.00,52.713
1432.00,52.743
1433.00,52.760
1434.00,52.764
1435.00,52.849
1436.00,52.810
1437.00,52.845
1438.00,52.844
1439.00,52.881
1440.00,52.884
1441.00,52.885
1442.00,52.879
1443.00,52.939
1444.00,52.982
1445.00,52.884
1446.00,52.919
1447.00,52.960
1448.00,53.025
1449.00,53.028
1450.00,52.950
1451.00,52.985
1452.00,53.032
1453.00,53.034
1454.00,53.044
1455.00,53.096
1456.00,53.129
1457.00,53.132
1458.00,53.146
1459.00,53.152
1460.00,53.179
1461.00,53.173
1462.00,53.200
1463.00,53.233
1464.00,53.223
1465.00,53.233
1466.00,53.222
1467.00,53.256
1468.00,53.324
1469.00,53.303
1470.00,53.323
1471.00,53.346
1472.00,53.332
1473.00,53.339
1474.00,53.396
1475.00,53.384
1476.00,53.375
1477.00,53.367
1478.00,53.419
1479.00,53.444
1480.00,53.395
1481.00,53.418
1482.00,53.461
1483.00,53.446
1484.00,53.462
1485.00,53.490
1486.00,53.479
1487.00,53.488
1488.00,53.520
1489.00,53.542
1490.00,53.543
1491.00,53.531
1492.00,53.576
1493.00,53.590
1494.00,53.579
1495.00,53.579
1496.00,53.628
1497.00,53.613
1498.00,53.610
1499.00,53.618
1500.00,53.654
1501.00, 
1502.00, 
1503.00, 
1504.00, 
1505.00, 
1506.00, 
1507.00, 
1508.00, 
1509.00, 
1510.00, 
1511.00, 
1512.00, 
1513.00, 
1514.00, 
1515.00, 
1516.00, 
1517.00, 
1518.00, 
1519.00, 
1520.00, 
1521.00, 
1522.00, 
1523.00, 
1524.00, 
1525.00, 
1526.00, 
1527.00, 
1528.00, 
1529.00, 
1530.00, 
1531.00, 
1532.00, 
1533.00, 
1534.00, 
1535.00, 
1536.00, 
1537.00, 
1538.00, 
1539.00, 
1540.00, 
1541.00, 
1542.00, 
1543.00, 
1544.00, 
1545.00, 
1546.00, 
1547.00, 
1548.00, 
1549.00, 
1550.00, 
1551.00, 
1552.00, 
1553.00, 
1554.00, 
1555.00, 
1556.00, 
1557.00, 
1558.00, 
1559.00, 
1560.00, 
1561.00, 
1562.00, 
1563.00, 
1564.00, 
1565.00, 
1566.00, 
1567.00, 
1568.00, 
1569.00, 
1570.00, 
1571.00, 
1572.00, 
1573.00, 
1574.00, 
1575.00, 
1576.00, 
1577.00, 
1578.00, 
1579.00, 
1580.00, 
1581.00, 
1582.00, 
1583.00, 
1584.00, 
1585.00, 
1586.00, 
1587.00, 
1588.00, 
1589.00, 
1590.00, 
1591.00, 
1592.00, 
1593.00, 
1594.00, 
1595.00, 
1596.00, 
1597.00, 
1598.00, 
1599.00, 
1600.00, 
1601.00, 
1602.00, 
1603.00, 
1604.00, 
1605.00, 
1606.00, 
1607.00, 
1608.00, 
1609.00, 
1610.00, 
1611.00, 
1612.00, 
1613.00, 
1614.00, 
1615.00, 
1616.00, 
1617.00, 
1618.00, 
1619.00, 
1620.00, 
1621.00, 
1622.00, 
1623.00, 
1624.00, 
1625.00, 
1626.00, 
1627.00, 
1628.00, 
1629.00, 
1630.00, 
1631.00, 
1632.00, 
1633.00, 
1634.00, 
1635.00, 
1636.00, 
1637.00, 
1638.00, 
1639.00, 
1640.00, 
1641.00, 
1642.00, 
1643.00, 
1644.00, 
1645.00, 
1646.00, 
1647.00, 
1648.00, 
1649.00, 
1650.00, 
1651.00, 
1652.00, 
1653.00, 
1654.00, 
1655.00, 
1656.00, 
1657.00, 
1658.00, 
1659.00, 
1660.00, 
1661.00, 
1662.00, 
1663.00, 
1664.00, 
1665.00, 
1666.00, 
1667.00, 
1668.00, 
1669.00, 
1670.00, 
1671.00, 
1672.00, 
1673.00, 
1674.00, 
1675.00, 
1676.00, 
1677.00, 
1678.00, 
1679.00, 
1680.00, 
1681.00, 
1682.00, 
1683.00, 
1684.00, 
1685.00, 
1686.00, 
1687.00, 
1688.00, 
1689.00, 
1690.00, 
1691.00, 
1692.00, 
1693.00, 
1694.00, 
1695.00, 
1696.00, 
1697.00, 
1698.00, 
1699.00, 
1700.00, 
1701.00, 
1702.00, 
1703.00, 
1704.00, 
1705.00, 
1706.00, 
1707.00, 
1708.00, 
1709.00, 
1710.00, 
1711.00, 
1712.00, 
1713.00, 
1714.00, 
1715.00, 
1716.00, 
1717.00, 
1718.00, 
1719.00, 
1720.00, 
1721.00, 
1722.00, 
1723.00, 
1724.00, 
1725.00, 
1726.00, 
1727.00, 
1728.00, 
1729.00, 
1730.00, 
1731.00, 
1732.00, 
1733.00, 
1734.00, 
1735.00, 
1736.00, 
1737.00, 
1738.00, 
1739.00, 
1740.00, 
1741.00, 
1742.00, 
1743.00, 
1744.00, 
1745.00, 
1746.00, 
1747.00, 
1748.00, 
1749.00, 
1750.00, 
1751.00, 
1752.00, 
1753.00, 
1754.00, 
1755.00, 
1756.00, 
1757.00, 
1758.00, 
1759.00, 
1760.00, 
1761.00, 
1762.00, 
1763.00, 
1764.00, 
1765.00, 
1766.00, 
1767.00, 
1768.00, 
1769.00, 
1770.00, 
1771.00, 
1772.00, 
1773.00, 
1774.00, 
1775.00, 
1776.00, 
1777.00, 
1778.00, 
1779.00, 
1780.00, 
1781.00, 
1782.00, 
1783.00, 
1784.00, 
1785.00, 
1786.00, 
1787.00, 
1788.00, 
1789.00, 
1790.00, 
1791.00, 
1792.00, 
1793.00, 
1794.00, 
1795.00, 
1796.00, 
1797.00, 
1798.00, 
1799.00, 
1800.00, 
1801.00, 
1802.00, 
1803.00, 
1804.00, 
1805.00, 
1806.00, 
1807.00, 
1808.00, 
1809.00, 
1810.00, 
1811.00, 
1812.00, 
1813.00, 
1814.00, 
1815.00, 
1816.00, 
1817.00, 
1818.00, 
1819.00, 
1820.00, 
1821.00, 
1822.00, 
1823.00, 
1824.00, 
1825.00, 
1826.00, 
1827.00, 
1828.00, 
1829.00, 
1830.00, 
1831.00, 
1832.00, 
1833.00, 
1834.00, 
1835.00, 
1836.00, 
1837.00, 
1838.00, 
1839.00, 
1840.00, 
1841.00, 
1842.00, 
1843.00, 
1844.00, 
1845.00, 
1846.00, 
1847.00, 
1848.00, 
1849.00, 
1850.00, 
1851.00, 
1852.00, 
1853.00, 
1854.00, 
1855.00, 
1856.00, 
1857.00, 
1858.00, 
1859.00, 
1860.00, 
1861.00, 
1862.00, 
1863.00, 
1864.00, 
1865.00, 
1866.00, 
1867.00, 
1868.00, 
1869.00, 
1870.00, 
1871.00, 
1872.00, 
1873.00, 
1874.00, 
1875.00, 
1876.00, 
1877.00, 
1878.00, 
1879.00, 
1880.00, 
1881.00, 
1882.00, 
1883.00, 
1884.00, 
1885.00, 
1886.00, 
1887.00, 
1888.00, 
1889.00, 
1890.00, 
1891.00, 
1892.00, 
1893.00, 
1894.00, 
1895.00, 
1896.00, 
1897.00, 
1898.00, 
1899.00, 
1900.00, 
1901.00, 
1902.00, 
1903.00, 
1904.00, 
1905.00, 
1906.00, 
1907.00, 
1908.00, 
1909.00, 
1910.00, 
1911.00, 
1912.00, 
1913.00, 
1914.00, 
1915.00, 
1916.00, 
1917.00, 
1918.00, 
1919.00, 
1920.00, 
1921.00, 
1922.00, 
1923.00, 
1924.00, 
1925.00, 
1926.00, 
1927.00, 
1928.00, 
1929.00, 
1930.00, 
1931.00, 
1932.00, 
1933.00, 
1934.00, 
1935.00, 
1936.00, 
1937.00, 
1938.00, 
1939.00, 
1940.00, 
1941.00, 
1942.00, 
1943.00, 
1944.00, 
1945.00, 
1946.00, 
1947.00, 
1948.00, 
1949.00, 
1950.00, 
1951.00, 
1952.00, 
1953.00, 
1954.00, 
1955.00, 
1956.00, 
1957.00, 
1958.00, 
1959.00, 
1960.00, 
1961.00, 
1962.00, 
1963.00, 
1964.00, 
1965.00, 
1966.00, 
1967.00, 
1968.00, 
1969.00, 
1970.00, 
1971.00, 
1972.00, 
1973.00, 
1974.00, 
1975.00, 
1976.00, 
1977.00, 
1978.00, 
1979.00, 
1980.00, 
1981.00, 
1982.00, 
1983.00, 
1984.00, 
1985.00, 
1986.00, 
1987.00, 
1988.00, 
1989.00, 
1990.00, 
1991.00, 
1992.00, 
1993.00, 
1994.00, 
1995.00, 
1996.00, 
1997.00, 
1998.00, 
1999.00, 
2000.00, 
2001.00, 
2002.00, 
2003.00, 
2004.00, 
2005.00, 
2006.00, 
2007.00, 
2008.00, 
2009.00, 
2010.00, 
2011.00, 
2012.00, 
2013.00, 
2014.00, 
2015.00, 
2016.00, 
2017.00, 
2018.00, 
2019.00, 
2020.00, 
2021.00, 
2022.00, 
2023.00, 
2024.00, 
2025.00, 
2026.00, 
2027.00, 
2028.00, 
2029.00, 
2030.00, 
2031.00, 
2032.00, 
2033.00, 
2034.00, 
2035.00, 
2036.00, 
2037.00, 
2038.00, 
2039.00, 
2040.00, 
2041.00, 
2042.00, 
2043.00, 
2044.00, 
2045.00, 
2046.00, 
2047.00, 
2048.00, 
2049.00, 
2050.00, 
2051.00, 
2052.00, 
2053.00, 
2054.00, 
2055.00, 
2056.00, 
2057.00, 
2058.00, 
2059.00, 
2060.00, 
2061.00, 
2062.00, 
2063.00, 
2064.00, 
2065.00, 
2066.00, 
2067.00, 
2068.00, 
2069.00, 
2070.00, 
2071.00, 
2072.00, 
2073.00, 
2074.00, 
2075.00, 
2076.00, 
2077.00, 
2078.00, 
2079.00, 
2080.00, 
2081.00, 
2082.00, 
2083.00, 
2084.00, 
2085.00, 
2086.00, 
2087.00, 
2088.00, 
2089.00, 
2090.00, 
2091.00, 
2092.00, 
2093.00, 
2094.00, 
2095.00, 
2096.00, 
2097.00, 
2098.00, 
2099.00, 
2100.00, 
2101.00, 
2102.00, 
2103.00, 
2104.00, 
2105.00, 
2106.00, 
2107.00, 
2108.00, 
2109.00, 
2110.00, 
2111.00, 
2112.00, 
2113.00, 
2114.00, 
2115.00, 
2116.00, 
2117.00, 
2118.00, 
2119.00, 
2120.00, 
2121.00, 
2122.00, 
2123.00, 
2124.00, 
2125.00, 
2126.00, 
2127.00, 
2128.00, 
2129.00, 
2130.00, 
2131.00, 
2132.00, 
2133.00, 
2134.00, 
2135.00, 
2136.00, 
2137.00, 
2138.00, 
2139.00, 
2140.00, 
2141.00, 
2142.00, 
2143.00, 
2144.00, 
2145.00, 
2146.00, 
2147.00, 
2148.00, 
2149.00, 
2150.00, 
2151.00, 
2152.00, 
2153.00, 
2154.00, 
2155.00, 
2156.00, 
2157.00, 
2158.00, 
2159.00, 
2160.00, 
2161.00, 
2162.00, 
2163.00, 
2164.00, 
2165.00, 
2166.00, 
2167.00, 
2168.00, 
2169.00, 
2170.00, 
2171.00, 
2172.00, 
2173.00, 
2174.00, 
2175.00, 
2176.00, 
2177.00, 
2178.00, 
2179.00, 
2180.00, 
2181.00, 
2182.00, 
2183.00, 
2184.00, 
2185.00, 
2186.00, 
2187.00, 
2188.00, 
2189.00, 
2190.00, 
2191.00, 
2192.00, 
2193.00, 
2194.00, 
2195.00, 
2196.00, 
2197.00, 
2198.00, 
2199.00, 
2200.00, 
2201.00, 
2202.00, 
2203.00, 
2204.00, 
2205.00, 
2206.00, 
2207.00, 
2208.00, 
2209.00, 
2210.00, 
2211.00, 
2212.00, 
2213.00, 
2214.00, 
2215.00, 
2216.00, 
2217.00, 
2218.00, 
2219.00, 
2220.00, 
2221.00, 
2222.00, 
2223.00, 
2224.00, 
2225.00, 
2226.00, 
2227.00, 
2228.00, 
2229.00, 
2230.00, 
2231.00, 
2232.00, 
2233.00, 
2234.00, 
2235.00, 
2236.00, 
2237.00, 
2238.00, 
2239.00, 
2240.00, 
2241.00, 
2242.00, 
2243.00, 
2244.00, 
2245.00, 
2246.00, 
2247.00, 
2248.00, 
2249.00, 
2250.00, 
2251.00, 
2252.00, 
2253.00, 
2254.00, 
2255.00, 
2256.00, 
2257.00, 
2258.00, 
2259.00, 
2260.00, 
2261.00, 
2262.00, 
2263.00, 
2264.00, 
2265.00, 
2266.00, 
2267.00, 
2268.00, 
2269.00, 
2270.00, 
2271.00, 
2272.00, 
2273.00, 
2274.00, 
2275.00, 
2276.00, 
2277.00, 
2278.00, 
2279.00, 
2280.00, 
2281.00, 
2282.00, 
2283.00, 
2284.00, 
2285.00, 
2286.00, 
2287.00, 
2288.00, 
2289.00, 
2290.00, 
2291.00, 
2292.00, 
2293.00, 
2294.00, 
2295.00, 
2296.00, 
2297.00, 
2298.00, 
2299.00, 
2300.00, 
2301.00, 
2302.00, 
2303.00, 
2304.00, 
2305.00, 
2306.00, 
2307.00, 
2308.00, 
2309.00, 
2310.00, 
2311.00, 
2312.00, 
2313.00, 
2314.00, 
2315.00, 
2316.00, 
2317.00, 
2318.00, 
2319.00, 
2320.00, 
2321.00, 
2322.00, 
2323.00, 
2324.00, 
2325.00, 
2326.00, 
2327.00, 
2328.00, 
2329.00, 
2330.00, 
2331.00, 
2332.00, 
2333.00, 
2334.00, 
2335.00, 
2336.00, 
2337.00, 
2338.00, 
2339.00, 
2340.00, 
2341.00, 
2342.00, 
2343.00, 
2344.00, 
2345.00, 
2346.00, 
2347.00, 
2348.00, 
2349.00, 
2350.00, 
2351.00, 
2352.00, 
2353.00, 
2354.00, 
2355.00, 
2356.00, 
2357.00, 
2358.00, 
2359.00, 
2360.00, 
2361.00, 
2362.00, 
2363.00, 
2364.00, 
2365.00, 
2366.00, 
2367.00, 
2368.00, 
2369.00, 
2370.00, 
2371.00, 
2372.00, 
2373.00, 
2374.00, 
2375.00, 
2376.00, 
2377.00, 
2378.00, 
2379.00, 
2380.00, 
2381.00, 
2382.00, 
2383.00, 
2384.00, 
2385.00, 
2386.00, 
2387.00, 
2388.00, 
2389.00, 
2390.00, 
2391.00, 
2392.00, 
2393.00, 
2394.00, 
2395.00, 
2396.00, 
2397.00, 
2398.00, 
2399.00, 
2400.00, 
2401.00, 
2402.00, 
2403.00, 
2404.00, 
2405.00, 
2406.00, 
2407.00, 
2408.00, 
2409.00, 
2410.00, 
2411.00, 
2412.00, 
2413.00, 
2414.00, 
2415.00, 
2416.00, 
2417.00, 
2418.00, 
2419.00, 
2420.00, 
2421.00, 
2422.00, 
2423.00, 
2424.00, 
2425.00, 
2426.00, 
2427.00, 
2428.00, 
2429.00, 
2430.00, 
2431.00, 
2432.00, 
2433.00, 
2434.00, 
2435.00, 
2436.00, 
2437.00, 
2438.00, 
2439.00, 
2440.00, 
2441.00, 
2442.00, 
2443.00, 
2444.00, 
2445.00, 
2446.00, 
2447.00, 
2448.00, 
2449.00, 
2450.00, 
2451.00, 
2452.00, 
2453.00, 
2454.00, 
2455.00, 
2456.00, 
2457.00, 
2458.00, 
2459.00, 
2460.00, 
2461.00, 
2462.00, 
2463.00, 
2464.00, 
2465.00, 
2466.00, 
2467.00, 
2468.00, 
2469.00, 
2470.00, 
2471.00, 
2472.00, 
2473.00, 
2474.00, 
2475.00, 
2476.00, 
2477.00, 
2478.00, 
2479.00, 
2480.00, 
2481.00, 
2482.00, 
2483.00, 
2484.00, 
2485.00, 
2486.00, 
2487.00, 
2488.00, 
2489.00, 
2490.00, 
2491.00, 
2492.00, 
2493.00, 
2494.00, 
2495.00, 
2496.00, 
2497.00, 
2498.00, 
2499.00, 
2500.00, 
2501.00, 
2502.00, 
2503.00, 
2504.00, 
2505.00, 
2506.00, 
2507.00, 
2508.00, 
2509.00, 
2510.00, 
2511.00, 
2512.00, 
2513.00, 
2514.00, 
2515.00, 
2516.00, 
2517.00, 
2518.00, 
2519.00, 
2520.00, 
2521.00, 
2522.00, 
2523.00, 
2524.00, 
2525.00, 
2526.00, 
2527.00, 
2528.00, 
2529.00, 
2530.00, 
2531.00, 
2532.00, 
2533.00, 
2534.00, 
2535.00, 
2536.00, 
2537.00, 
2538.00, 
2539.00, 
2540.00, 
2541.00, 
2542.00, 
2543.00, 
2544.00, 
2545.00, 
2546.00, 
2547.00, 
2548.00, 
2549.00, 
2550.00, 
2551.00, 
2552.00, 
2553.00, 
2554.00, 
2555.00, 
2556.00, 
2557.00, 
2558.00, 
2559.00, 
2560.00, 
2561.00, 
2562.00, 
2563.00, 
2564.00, 
2565.00, 
2566.00, 
2567.00, 
2568.00, 
2569.00, 
2570.00, 
2571.00, 
2572.00, 
2573.00, 
2574.00, 
2575.00, 
2576.00, 
2577.00, 
2578.00, 
2579.00, 
2580.00, 
2581.00, 
2582.00, 
2583.00, 
2584.00, 
2585.00, 
2586.00, 
2587.00, 
2588.00, 
2589.00, 
2590.00, 
2591.00, 
2592.00, 
2593.00, 
2594.00, 
2595.00, 
2596.00, 
2597.00, 
2598.00, 
2599.00, 
2600.00, 
