"2cP3 - RawData"
"Wavelength nm.","T%"
200.00,0.004
201.00,0.003
202.00,0.001
203.00,0.004
204.00,0.001
205.00,0.004
206.00,0.000
207.00,0.003
208.00,0.001
209.00,0.002
210.00,0.001
211.00,0.001
212.00,0.000
213.00,0.002
214.00,0.002
215.00,0.001
216.00,0.000
217.00,0.002
218.00,0.002
219.00,0.005
220.00,0.004
221.00,-0.002
222.00,0.002
223.00,0.001
224.00,-0.002
225.00,0.001
226.00,-0.001
227.00,0.001
228.00,0.002
229.00,0.002
230.00,-0.000
231.00,0.000
232.00,0.001
233.00,0.001
234.00,0.002
235.00,0.001
236.00,0.001
237.00,0.001
238.00,-0.000
239.00,0.003
240.00,0.001
241.00,-0.000
242.00,-0.001
243.00,0.000
244.00,0.001
245.00,0.001
246.00,0.001
247.00,0.000
248.00,0.003
249.00,0.001
250.00,0.002
251.00,-0.000
252.00,0.000
253.00,0.001
254.00,0.000
255.00,-0.002
256.00,-0.000
257.00,0.001
258.00,0.001
259.00,0.002
260.00,-0.001
261.00,-0.001
262.00,-0.000
263.00,0.000
264.00,-0.001
265.00,0.001
266.00,0.001
267.00,-0.000
268.00,-0.001
269.00,0.002
270.00,0.000
271.00,0.000
272.00,0.001
273.00,0.001
274.00,0.002
275.00,-0.001
276.00,0.001
277.00,0.000
278.00,0.000
279.00,0.002
280.00,0.000
281.00,0.001
282.00,-0.000
283.00,-0.001
284.00,0.000
285.00,0.000
286.00,0.001
287.00,-0.000
288.00,0.000
289.00,-0.000
290.00,0.000
291.00,0.000
292.00,0.001
293.00,0.000
294.00,-0.001
295.00,0.001
296.00,0.001
297.00,-0.000
298.00,0.001
299.00,0.002
300.00,0.003
301.00,0.004
302.00,0.007
303.00,0.013
304.00,0.017
305.00,0.030
306.00,0.045
307.00,0.066
308.00,0.102
309.00,0.148
310.00,0.220
311.00,0.300
312.00,0.407
313.00,0.555
314.00,0.728
315.00,0.952
316.00,1.219
317.00,1.527
318.00,1.883
319.00,2.320
320.00,2.826
321.00,3.397
322.00,4.039
323.00,4.758
324.00,5.521
325.00,6.273
326.00,7.103
327.00,8.002
328.00,8.956
329.00,9.913
330.00,10.965
331.00,11.991
332.00,13.059
333.00,14.200
334.00,15.173
335.00,16.280
336.00,17.387
337.00,18.483
338.00,19.519
339.00,20.520
340.00,21.553
341.00,22.621
342.00,23.497
343.00,24.434
344.00,25.330
345.00,26.171
346.00,27.032
347.00,27.786
348.00,28.553
349.00,29.273
350.00,29.942
351.00,30.495
352.00,31.096
353.00,31.665
354.00,32.254
355.00,32.740
356.00,33.216
357.00,33.640
358.00,34.133
359.00,34.438
360.00,34.797
361.00,35.254
362.00,35.542
363.00,35.866
364.00,36.236
365.00,36.510
366.00,36.699
367.00,36.868
368.00,37.028
369.00,37.263
370.00,37.413
371.00,37.533
372.00,37.639
373.00,37.638
374.00,37.668
375.00,37.825
376.00,37.793
377.00,37.825
378.00,37.808
379.00,37.878
380.00,37.851
381.00,37.893
382.00,37.944
383.00,38.044
384.00,38.087
385.00,38.320
386.00,38.430
387.00,38.522
388.00,38.683
389.00,38.789
390.00,38.890
391.00,39.006
392.00,39.090
393.00,39.170
394.00,39.328
395.00,39.327
396.00,39.400
397.00,39.374
398.00,39.516
399.00,39.541
400.00,39.602
401.00,39.669
402.00,39.643
403.00,39.727
404.00,39.775
405.00,39.763
406.00,39.772
407.00,39.739
408.00,39.787
409.00,39.729
410.00,39.683
411.00,39.667
412.00,39.733
413.00,39.733
414.00,39.683
415.00,39.747
416.00,39.750
417.00,39.742
418.00,39.767
419.00,39.763
420.00,39.790
421.00,39.972
422.00,39.983
423.00,39.987
424.00,39.986
425.00,40.008
426.00,40.096
427.00,40.110
428.00,40.166
429.00,40.208
430.00,40.206
431.00,40.264
432.00,40.284
433.00,40.291
434.00,40.315
435.00,40.354
436.00,40.449
437.00,40.474
438.00,40.517
439.00,40.572
440.00,40.659
441.00,40.703
442.00,40.774
443.00,40.793
444.00,40.840
445.00,40.888
446.00,40.949
447.00,41.061
448.00,41.115
449.00,41.173
450.00,41.274
451.00,41.337
452.00,41.422
453.00,41.505
454.00,41.547
455.00,41.580
456.00,41.662
457.00,41.760
458.00,41.825
459.00,41.873
460.00,42.013
461.00,42.095
462.00,42.170
463.00,42.240
464.00,42.372
465.00,42.358
466.00,42.415
467.00,42.524
468.00,42.579
469.00,42.688
470.00,42.693
471.00,42.784
472.00,42.860
473.00,42.859
474.00,42.961
475.00,43.022
476.00,43.091
477.00,43.147
478.00,43.209
479.00,43.294
480.00,43.401
481.00,43.473
482.00,43.572
483.00,43.661
484.00,43.790
485.00,43.895
486.00,43.992
487.00,44.059
488.00,44.130
489.00,44.245
490.00,44.334
491.00,44.360
492.00,44.429
493.00,44.520
494.00,44.657
495.00,44.673
496.00,44.771
497.00,44.692
498.00,44.764
499.00,44.974
500.00,44.961
501.00,45.089
502.00,45.146
503.00,45.212
504.00,45.310
505.00,45.454
506.00,45.478
507.00,45.486
508.00,45.572
509.00,45.690
510.00,45.759
511.00,45.884
512.00,45.891
513.00,45.870
514.00,46.119
515.00,46.135
516.00,46.262
517.00,46.356
518.00,46.301
519.00,46.364
520.00,46.460
521.00,46.461
522.00,46.542
523.00,46.625
524.00,46.619
525.00,46.670
526.00,46.756
527.00,46.782
528.00,46.826
529.00,46.940
530.00,46.930
531.00,47.090
532.00,47.091
533.00,47.137
534.00,47.153
535.00,47.241
536.00,47.363
537.00,47.370
538.00,47.444
539.00,47.508
540.00,47.513
541.00,47.504
542.00,47.564
543.00,47.606
544.00,47.627
545.00,47.652
546.00,47.690
547.00,47.777
548.00,47.842
549.00,47.851
550.00,47.958
551.00,48.039
552.00,48.019
553.00,48.101
554.00,48.138
555.00,48.160
556.00,48.162
557.00,48.269
558.00,48.282
559.00,48.343
560.00,48.411
561.00,48.426
562.00,48.447
563.00,48.441
564.00,48.500
565.00,48.515
566.00,48.527
567.00,48.503
568.00,48.598
569.00,48.560
570.00,48.636
571.00,48.624
572.00,48.660
573.00,48.655
574.00,48.708
575.00,48.677
576.00,48.690
577.00,48.754
578.00,48.772
579.00,48.830
580.00,48.882
581.00,49.020
582.00,49.066
583.00,49.032
584.00,49.245
585.00,49.271
586.00,49.144
587.00,49.277
588.00,49.316
589.00,49.195
590.00,49.440
591.00,49.394
592.00,49.407
593.00,49.453
594.00,49.490
595.00,49.530
596.00,49.503
597.00,49.584
598.00,49.644
599.00,49.625
600.00,49.610
601.00,49.682
602.00,49.615
603.00,49.746
604.00,49.722
605.00,49.696
606.00,49.775
607.00,49.732
608.00,49.757
609.00,49.735
610.00,49.767
611.00,49.849
612.00,49.843
613.00,49.900
614.00,49.857
615.00,49.862
616.00,49.904
617.00,49.918
618.00,49.923
619.00,49.966
620.00,49.881
621.00,49.976
622.00,49.989
623.00,50.107
624.00,50.112
625.00,50.106
626.00,50.096
627.00,50.095
628.00,50.085
629.00,50.095
630.00,50.184
631.00,50.178
632.00,50.224
633.00,50.301
634.00,50.257
635.00,50.314
636.00,50.356
637.00,50.423
638.00,50.401
639.00,50.442
640.00,50.458
641.00,50.451
642.00,50.450
643.00,50.531
644.00,50.591
645.00,50.560
646.00,50.624
647.00,50.653
648.00,50.678
649.00,50.630
650.00,50.646
651.00,50.667
652.00,50.703
653.00,50.797
654.00,50.792
655.00,50.687
656.00,50.831
657.00,50.975
658.00,50.853
659.00,50.898
660.00,50.924
661.00,50.849
662.00,50.965
663.00,50.999
664.00,50.898
665.00,51.027
666.00,50.898
667.00,50.763
668.00,51.232
669.00,51.668
670.00,51.201
671.00,51.154
672.00,51.119
673.00,51.218
674.00,51.238
675.00,51.103
676.00,51.166
677.00,51.303
678.00,51.222
679.00,51.292
680.00,51.376
681.00,51.358
682.00,51.352
683.00,51.433
684.00,51.452
685.00,51.532
686.00,51.474
687.00,51.438
688.00,51.443
689.00,51.404
690.00,51.504
691.00,51.469
692.00,51.500
693.00,51.488
694.00,51.408
695.00,51.511
696.00,51.604
697.00,51.611
698.00,51.657
699.00,51.661
700.00,51.709
701.00,51.718
702.00,51.636
703.00,51.775
704.00,51.668
705.00,51.699
706.00,51.772
707.00,51.733
708.00,51.537
709.00,51.782
710.00,51.748
711.00,51.513
712.00,51.696
713.00,51.910
714.00,51.717
715.00,51.685
716.00,51.855
717.00,51.765
718.00,51.777
719.00,51.795
720.00,51.785
721.00,56.327
722.00,56.326
723.00,56.300
724.00,56.245
725.00,56.189
726.00,56.153
727.00,56.051
728.00,56.019
729.00,56.028
730.00,56.035
731.00,56.012
732.00,55.918
733.00,55.915
734.00,55.827
735.00,55.853
736.00,55.772
737.00,55.792
738.00,55.784
739.00,55.768
740.00,55.788
741.00,55.778
742.00,55.643
743.00,55.639
744.00,55.587
745.00,55.594
746.00,55.458
747.00,55.467
748.00,55.371
749.00,55.389
750.00,55.392
751.00,55.242
752.00,55.311
753.00,55.222
754.00,55.164
755.00,55.076
756.00,55.102
757.00,54.965
758.00,55.101
759.00,54.990
760.00,54.950
761.00,54.969
762.00,55.043
763.00,55.014
764.00,54.904
765.00,54.906
766.00,54.842
767.00,54.870
768.00,54.887
769.00,54.658
770.00,54.775
771.00,54.717
772.00,54.732
773.00,54.726
774.00,54.619
775.00,54.639
776.00,54.562
777.00,54.605
778.00,54.470
779.00,54.571
780.00,54.459
781.00,54.470
782.00,54.408
783.00,54.454
784.00,54.389
785.00,54.392
786.00,54.409
787.00,54.274
788.00,54.305
789.00,54.237
790.00,54.152
791.00,54.187
792.00,54.143
793.00,54.052
794.00,54.090
795.00,54.106
796.00,54.078
797.00,53.968
798.00,53.977
799.00,53.931
800.00,53.913
801.00,53.818
802.00,53.786
803.00,53.828
804.00,53.742
805.00,53.662
806.00,53.598
807.00,53.717
808.00,53.613
809.00,53.553
810.00,53.602
811.00,53.560
812.00,53.544
813.00,53.469
814.00,53.490
815.00,53.513
816.00,53.452
817.00,53.404
818.00,53.286
819.00,53.343
820.00,53.290
821.00,53.373
822.00,53.312
823.00,53.235
824.00,53.183
825.00,53.033
826.00,53.056
827.00,53.130
828.00,53.154
829.00,53.082
830.00,53.094
831.00,55.582
832.00,55.546
833.00,55.540
834.00,55.510
835.00,55.425
836.00,55.476
837.00,55.402
838.00,55.381
839.00,55.338
840.00,55.322
841.00,55.269
842.00,55.232
843.00,55.279
844.00,55.198
845.00,55.195
846.00,55.189
847.00,55.100
848.00,55.087
849.00,55.029
850.00,54.956
851.00,54.940
852.00,54.919
853.00,54.903
854.00,54.803
855.00,54.788
856.00,54.771
857.00,54.686
858.00,54.716
859.00,54.672
860.00,54.657
861.00,54.595
862.00,54.612
863.00,54.592
864.00,54.577
865.00,54.555
866.00,54.533
867.00,54.519
868.00,54.455
869.00,54.449
870.00,54.486
871.00,54.447
872.00,54.428
873.00,54.411
874.00,54.427
875.00,54.399
876.00,54.360
877.00,54.374
878.00,54.312
879.00,54.289
880.00,54.245
881.00,54.281
882.00,54.290
883.00,54.163
884.00,54.087
885.00,54.393
886.00,54.182
887.00,54.112
888.00,54.101
889.00,54.082
890.00,54.036
891.00,54.004
892.00,54.017
893.00,53.917
894.00,53.978
895.00,53.907
896.00,53.923
897.00,53.880
898.00,53.844
899.00,53.857
900.00,53.848
901.00,53.795
902.00,53.819
903.00,53.800
904.00,53.728
905.00,53.706
906.00,53.724
907.00,53.669
908.00,53.601
909.00,53.609
910.00,53.633
911.00,53.552
912.00,53.541
913.00,53.585
914.00,53.495
915.00,53.493
916.00,53.487
917.00,53.452
918.00,53.428
919.00,53.395
920.00,53.407
921.00,53.384
922.00,53.345
923.00,53.309
924.00,53.314
925.00,53.273
926.00,53.259
927.00,53.248
928.00,53.234
929.00,53.183
930.00,53.152
931.00,53.175
932.00,53.145
933.00,53.114
934.00,53.133
935.00,53.108
936.00,53.031
937.00,53.027
938.00,53.041
939.00,53.011
940.00,52.973
941.00,52.980
942.00,52.946
943.00,52.916
944.00,52.877
945.00,52.891
946.00,52.869
947.00,52.829
948.00,52.804
949.00,52.790
950.00,52.770
951.00,52.745
952.00,52.719
953.00,52.694
954.00,52.643
955.00,52.613
956.00,52.603
957.00,52.585
958.00,52.563
959.00,52.532
960.00,52.520
961.00,52.494
962.00,52.498
963.00,52.455
964.00,52.460
965.00,52.426
966.00,52.407
967.00,52.391
968.00,52.413
969.00,52.399
970.00,52.429
971.00,52.403
972.00,52.359
973.00,52.381
974.00,52.375
975.00,52.407
976.00,52.388
977.00,52.350
978.00,52.389
979.00,52.376
980.00,52.379
981.00,52.355
982.00,52.369
983.00,52.344
984.00,52.334
985.00,52.335
986.00,52.328
987.00,52.323
988.00,52.272
989.00,52.281
990.00,52.281
991.00,52.249
992.00,52.233
993.00,52.211
994.00,52.205
995.00,52.173
996.00,52.169
997.00,52.168
998.00,52.166
999.00,52.136
1000.00,52.105
1001.00,52.143
1002.00,52.100
1003.00,52.082
1004.00,52.070
1005.00,52.056
1006.00,52.065
1007.00,52.039
1008.00,52.033
1009.00,52.023
1010.00,52.002
1011.00,51.985
1012.00,51.988
1013.00,51.974
1014.00,51.935
1015.00,51.949
1016.00,51.919
1017.00,51.902
1018.00,51.873
1019.00,51.884
1020.00,51.863
1021.00,51.829
1022.00,51.805
1023.00,51.812
1024.00,51.784
1025.00,51.756
1026.00,51.766
1027.00,51.725
1028.00,51.746
1029.00,51.705
1030.00,51.712
1031.00,51.709
1032.00,51.633
1033.00,51.644
1034.00,51.639
1035.00,51.587
1036.00,51.543
1037.00,51.552
1038.00,51.521
1039.00,51.487
1040.00,51.490
1041.00,51.479
1042.00,51.487
1043.00,51.429
1044.00,51.461
1045.00,51.462
1046.00,51.442
1047.00,51.433
1048.00,51.464
1049.00,51.462
1050.00,51.455
1051.00,51.490
1052.00,51.512
1053.00,51.513
1054.00,51.502
1055.00,51.536
1056.00,51.553
1057.00,51.522
1058.00,51.511
1059.00,51.519
1060.00,51.508
1061.00,51.495
1062.00,51.476
1063.00,51.504
1064.00,51.493
1065.00,51.469
1066.00,51.462
1067.00,51.475
1068.00,51.466
1069.00,51.435
1070.00,51.426
1071.00,51.387
1072.00,51.378
1073.00,51.380
1074.00,51.376
1075.00,51.380
1076.00,51.398
1077.00,51.377
1078.00,51.346
1079.00,51.331
1080.00,51.320
1081.00,51.322
1082.00,51.324
1083.00,51.289
1084.00,51.305
1085.00,51.310
1086.00,51.301
1087.00,51.267
1088.00,51.266
1089.00,51.269
1090.00,51.237
1091.00,51.243
1092.00,51.274
1093.00,51.203
1094.00,51.169
1095.00,51.175
1096.00,51.195
1097.00,51.150
1098.00,51.143
1099.00,51.159
1100.00,51.176
1101.00,51.122
1102.00,51.118
1103.00,51.127
1104.00,51.089
1105.00,51.060
1106.00,51.067
1107.00,51.074
1108.00,51.073
1109.00,51.039
1110.00,51.055
1111.00,51.065
1112.00,51.036
1113.00,51.024
1114.00,51.051
1115.00,51.028
1116.00,51.019
1117.00,51.024
1118.00,50.990
1119.00,50.973
1120.00,50.954
1121.00,50.950
1122.00,50.957
1123.00,50.934
1124.00,50.933
1125.00,50.941
1126.00,50.920
1127.00,50.903
1128.00,50.918
1129.00,50.887
1130.00,50.884
1131.00,50.881
1132.00,50.884
1133.00,50.904
1134.00,50.857
1135.00,50.843
1136.00,50.869
1137.00,50.847
1138.00,50.851
1139.00,50.855
1140.00,50.861
1141.00,50.839
1142.00,50.821
1143.00,50.848
1144.00,50.836
1145.00,50.811
1146.00,50.819
1147.00,50.817
1148.00,50.781
1149.00,50.775
1150.00,50.800
1151.00,50.800
1152.00,50.792
1153.00,50.805
1154.00,50.775
1155.00,50.789
1156.00,50.762
1157.00,50.781
1158.00,50.770
1159.00,50.748
1160.00,50.733
1161.00,50.771
1162.00,50.756
1163.00,50.756
1164.00,50.752
1165.00,50.754
1166.00,50.759
1167.00,50.737
1168.00,50.744
1169.00,50.731
1170.00,50.723
1171.00,50.714
1172.00,50.707
1173.00,50.713
1174.00,50.728
1175.00,50.703
1176.00,50.720
1177.00,50.723
1178.00,50.702
1179.00,50.707
1180.00,50.710
1181.00,50.707
1182.00,50.700
1183.00,50.703
1184.00,50.694
1185.00,50.703
1186.00,50.674
1187.00,50.698
1188.00,50.702
1189.00,50.682
1190.00,50.669
1191.00,50.693
1192.00,50.674
1193.00,50.650
1194.00,50.678
1195.00,50.661
1196.00,50.683
1197.00,50.674
1198.00,50.686
1199.00,50.701
1200.00,50.664
1201.00,50.687
1202.00,50.682
1203.00,50.654
1204.00,50.656
1205.00,50.670
1206.00,50.659
1207.00,50.664
1208.00,50.647
1209.00,50.671
1210.00,50.659
1211.00,50.655
1212.00,50.663
1213.00,50.647
1214.00,50.653
1215.00,50.624
1216.00,50.641
1217.00,50.639
1218.00,50.641
1219.00,50.648
1220.00,50.643
1221.00,50.656
1222.00,50.633
1223.00,50.647
1224.00,50.641
1225.00,50.651
1226.00,50.636
1227.00,50.653
1228.00,50.657
1229.00,50.679
1230.00,50.678
1231.00,50.665
1232.00,50.699
1233.00,50.668
1234.00,50.673
1235.00,50.669
1236.00,50.668
1237.00,50.662
1238.00,50.658
1239.00,50.680
1240.00,50.683
1241.00,50.675
1242.00,50.682
1243.00,50.724
1244.00,50.682
1245.00,50.688
1246.00,50.700
1247.00,50.687
1248.00,50.671
1249.00,50.684
1250.00,50.698
1251.00,50.705
1252.00,50.703
1253.00,50.705
1254.00,50.748
1255.00,50.719
1256.00,50.670
1257.00,50.688
1258.00,50.713
1259.00,50.692
1260.00,50.741
1261.00,50.736
1262.00,50.751
1263.00,50.718
1264.00,50.734
1265.00,50.766
1266.00,50.745
1267.00,50.752
1268.00,50.769
1269.00,50.759
1270.00,50.758
1271.00,50.749
1272.00,50.772
1273.00,50.784
1274.00,50.807
1275.00,50.817
1276.00,50.817
1277.00,50.797
1278.00,50.815
1279.00,50.811
1280.00,50.788
1281.00,50.810
1282.00,50.832
1283.00,50.817
1284.00,50.834
1285.00,50.795
1286.00,50.818
1287.00,50.845
1288.00,50.833
1289.00,50.800
1290.00,50.827
1291.00,50.823
1292.00,50.817
1293.00,50.825
1294.00,50.858
1295.00,50.899
1296.00,50.865
1297.00,50.888
1298.00,50.926
1299.00,50.884
1300.00,50.889
1301.00,50.887
1302.00,50.902
1303.00,50.883
1304.00,50.886
1305.00,50.942
1306.00,50.932
1307.00,50.936
1308.00,50.925
1309.00,50.966
1310.00,50.961
1311.00,50.933
1312.00,50.949
1313.00,50.943
1314.00,50.962
1315.00,50.958
1316.00,50.987
1317.00,51.024
1318.00,51.015
1319.00,51.012
1320.00,51.065
1321.00,51.171
1322.00,51.160
1323.00,51.148
1324.00,51.158
1325.00,51.127
1326.00,51.160
1327.00,51.141
1328.00,51.156
1329.00,51.142
1330.00,51.135
1331.00,51.171
1332.00,51.163
1333.00,51.149
1334.00,51.193
1335.00,51.218
1336.00,51.240
1337.00,51.250
1338.00,51.312
1339.00,51.374
1340.00,51.421
1341.00,51.471
1342.00,51.561
1343.00,51.599
1344.00,51.626
1345.00,51.717
1346.00,51.715
1347.00,51.669
1348.00,51.779
1349.00,51.783
1350.00,51.815
1351.00,51.804
1352.00,51.844
1353.00,51.827
1354.00,51.828
1355.00,51.798
1356.00,51.881
1357.00,51.861
1358.00,51.864
1359.00,51.884
1360.00,51.921
1361.00,52.177
1362.00,51.847
1363.00,51.876
1364.00,51.990
1365.00,51.915
1366.00,51.972
1367.00,51.931
1368.00,51.823
1369.00,51.885
1370.00,51.829
1371.00,51.800
1372.00,51.846
1373.00,51.857
1374.00,51.850
1375.00,51.876
1376.00,51.873
1377.00,51.842
1378.00,51.986
1379.00,51.920
1380.00,51.880
1381.00,51.891
1382.00,51.901
1383.00,51.844
1384.00,51.845
1385.00,51.800
1386.00,51.846
1387.00,51.816
1388.00,51.838
1389.00,51.869
1390.00,51.745
1391.00,51.881
1392.00,51.853
1393.00,52.100
1394.00,51.891
1395.00,51.733
1396.00,51.828
1397.00,51.843
1398.00,51.849
1399.00,51.853
1400.00,51.846
1401.00,51.873
1402.00,51.883
1403.00,51.910
1404.00,51.828
1405.00,51.872
1406.00,51.886
1407.00,52.099
1408.00,51.935
1409.00,51.894
1410.00,51.948
1411.00,51.954
1412.00,52.031
1413.00,51.972
1414.00,51.885
1415.00,51.967
1416.00,51.993
1417.00,52.041
1418.00,51.992
1419.00,51.969
1420.00,52.032
1421.00,52.102
1422.00,52.085
1423.00,52.032
1424.00,52.051
1425.00,52.112
1426.00,52.046
1427.00,52.091
1428.00,52.090
1429.00,52.128
1430.00,52.168
1431.00,52.120
1432.00,52.169
1433.00,52.200
1434.00,52.182
1435.00,52.241
1436.00,52.229
1437.00,52.256
1438.00,52.227
1439.00,52.272
1440.00,52.301
1441.00,52.296
1442.00,52.275
1443.00,52.353
1444.00,52.397
1445.00,52.305
1446.00,52.336
1447.00,52.407
1448.00,52.461
1449.00,52.452
1450.00,52.377
1451.00,52.426
1452.00,52.455
1453.00,52.465
1454.00,52.469
1455.00,52.533
1456.00,52.532
1457.00,52.523
1458.00,52.566
1459.00,52.554
1460.00,52.582
1461.00,52.570
1462.00,52.589
1463.00,52.623
1464.00,52.621
1465.00,52.641
1466.00,52.651
1467.00,52.684
1468.00,52.713
1469.00,52.721
1470.00,52.715
1471.00,52.749
1472.00,52.736
1473.00,52.758
1474.00,52.802
1475.00,52.787
1476.00,52.804
1477.00,52.834
1478.00,52.840
1479.00,52.842
1480.00,52.845
1481.00,52.840
1482.00,52.876
1483.00,52.870
1484.00,52.895
1485.00,52.918
1486.00,52.894
1487.00,52.920
1488.00,52.959
1489.00,52.958
1490.00,52.962
1491.00,53.004
1492.00,52.992
1493.00,52.999
1494.00,53.004
1495.00,53.022
1496.00,53.041
1497.00,53.045
1498.00,53.064
1499.00,53.080
1500.00,53.110
1501.00, 
1502.00, 
1503.00, 
1504.00, 
1505.00, 
1506.00, 
1507.00, 
1508.00, 
1509.00, 
1510.00, 
1511.00, 
1512.00, 
1513.00, 
1514.00, 
1515.00, 
1516.00, 
1517.00, 
1518.00, 
1519.00, 
1520.00, 
1521.00, 
1522.00, 
1523.00, 
1524.00, 
1525.00, 
1526.00, 
1527.00, 
1528.00, 
1529.00, 
1530.00, 
1531.00, 
1532.00, 
1533.00, 
1534.00, 
1535.00, 
1536.00, 
1537.00, 
1538.00, 
1539.00, 
1540.00, 
1541.00, 
1542.00, 
1543.00, 
1544.00, 
1545.00, 
1546.00, 
1547.00, 
1548.00, 
1549.00, 
1550.00, 
1551.00, 
1552.00, 
1553.00, 
1554.00, 
1555.00, 
1556.00, 
1557.00, 
1558.00, 
1559.00, 
1560.00, 
1561.00, 
1562.00, 
1563.00, 
1564.00, 
1565.00, 
1566.00, 
1567.00, 
1568.00, 
1569.00, 
1570.00, 
1571.00, 
1572.00, 
1573.00, 
1574.00, 
1575.00, 
1576.00, 
1577.00, 
1578.00, 
1579.00, 
1580.00, 
1581.00, 
1582.00, 
1583.00, 
1584.00, 
1585.00, 
1586.00, 
1587.00, 
1588.00, 
1589.00, 
1590.00, 
1591.00, 
1592.00, 
1593.00, 
1594.00, 
1595.00, 
1596.00, 
1597.00, 
1598.00, 
1599.00, 
1600.00, 
1601.00, 
1602.00, 
1603.00, 
1604.00, 
1605.00, 
1606.00, 
1607.00, 
1608.00, 
1609.00, 
1610.00, 
1611.00, 
1612.00, 
1613.00, 
1614.00, 
1615.00, 
1616.00, 
1617.00, 
1618.00, 
1619.00, 
1620.00, 
1621.00, 
1622.00, 
1623.00, 
1624.00, 
1625.00, 
1626.00, 
1627.00, 
1628.00, 
1629.00, 
1630.00, 
1631.00, 
1632.00, 
1633.00, 
1634.00, 
1635.00, 
1636.00, 
1637.00, 
1638.00, 
1639.00, 
1640.00, 
1641.00, 
1642.00, 
1643.00, 
1644.00, 
1645.00, 
1646.00, 
1647.00, 
1648.00, 
1649.00, 
1650.00, 
1651.00, 
1652.00, 
1653.00, 
1654.00, 
1655.00, 
1656.00, 
1657.00, 
1658.00, 
1659.00, 
1660.00, 
1661.00, 
1662.00, 
1663.00, 
1664.00, 
1665.00, 
1666.00, 
1667.00, 
1668.00, 
1669.00, 
1670.00, 
1671.00, 
1672.00, 
1673.00, 
1674.00, 
1675.00, 
1676.00, 
1677.00, 
1678.00, 
1679.00, 
1680.00, 
1681.00, 
1682.00, 
1683.00, 
1684.00, 
1685.00, 
1686.00, 
1687.00, 
1688.00, 
1689.00, 
1690.00, 
1691.00, 
1692.00, 
1693.00, 
1694.00, 
1695.00, 
1696.00, 
1697.00, 
1698.00, 
1699.00, 
1700.00, 
1701.00, 
1702.00, 
1703.00, 
1704.00, 
1705.00, 
1706.00, 
1707.00, 
1708.00, 
1709.00, 
1710.00, 
1711.00, 
1712.00, 
1713.00, 
1714.00, 
1715.00, 
1716.00, 
1717.00, 
1718.00, 
1719.00, 
1720.00, 
1721.00, 
1722.00, 
1723.00, 
1724.00, 
1725.00, 
1726.00, 
1727.00, 
1728.00, 
1729.00, 
1730.00, 
1731.00, 
1732.00, 
1733.00, 
1734.00, 
1735.00, 
1736.00, 
1737.00, 
1738.00, 
1739.00, 
1740.00, 
1741.00, 
1742.00, 
1743.00, 
1744.00, 
1745.00, 
1746.00, 
1747.00, 
1748.00, 
1749.00, 
1750.00, 
1751.00, 
1752.00, 
1753.00, 
1754.00, 
1755.00, 
1756.00, 
1757.00, 
1758.00, 
1759.00, 
1760.00, 
1761.00, 
1762.00, 
1763.00, 
1764.00, 
1765.00, 
1766.00, 
1767.00, 
1768.00, 
1769.00, 
1770.00, 
1771.00, 
1772.00, 
1773.00, 
1774.00, 
1775.00, 
1776.00, 
1777.00, 
1778.00, 
1779.00, 
1780.00, 
1781.00, 
1782.00, 
1783.00, 
1784.00, 
1785.00, 
1786.00, 
1787.00, 
1788.00, 
1789.00, 
1790.00, 
1791.00, 
1792.00, 
1793.00, 
1794.00, 
1795.00, 
1796.00, 
1797.00, 
1798.00, 
1799.00, 
1800.00, 
1801.00, 
1802.00, 
1803.00, 
1804.00, 
1805.00, 
1806.00, 
1807.00, 
1808.00, 
1809.00, 
1810.00, 
1811.00, 
1812.00, 
1813.00, 
1814.00, 
1815.00, 
1816.00, 
1817.00, 
1818.00, 
1819.00, 
1820.00, 
1821.00, 
1822.00, 
1823.00, 
1824.00, 
1825.00, 
1826.00, 
1827.00, 
1828.00, 
1829.00, 
1830.00, 
1831.00, 
1832.00, 
1833.00, 
1834.00, 
1835.00, 
1836.00, 
1837.00, 
1838.00, 
1839.00, 
1840.00, 
1841.00, 
1842.00, 
1843.00, 
1844.00, 
1845.00, 
1846.00, 
1847.00, 
1848.00, 
1849.00, 
1850.00, 
1851.00, 
1852.00, 
1853.00, 
1854.00, 
1855.00, 
1856.00, 
1857.00, 
1858.00, 
1859.00, 
1860.00, 
1861.00, 
1862.00, 
1863.00, 
1864.00, 
1865.00, 
1866.00, 
1867.00, 
1868.00, 
1869.00, 
1870.00, 
1871.00, 
1872.00, 
1873.00, 
1874.00, 
1875.00, 
1876.00, 
1877.00, 
1878.00, 
1879.00, 
1880.00, 
1881.00, 
1882.00, 
1883.00, 
1884.00, 
1885.00, 
1886.00, 
1887.00, 
1888.00, 
1889.00, 
1890.00, 
1891.00, 
1892.00, 
1893.00, 
1894.00, 
1895.00, 
1896.00, 
1897.00, 
1898.00, 
1899.00, 
1900.00, 
1901.00, 
1902.00, 
1903.00, 
1904.00, 
1905.00, 
1906.00, 
1907.00, 
1908.00, 
1909.00, 
1910.00, 
1911.00, 
1912.00, 
1913.00, 
1914.00, 
1915.00, 
1916.00, 
1917.00, 
1918.00, 
1919.00, 
1920.00, 
1921.00, 
1922.00, 
1923.00, 
1924.00, 
1925.00, 
1926.00, 
1927.00, 
1928.00, 
1929.00, 
1930.00, 
1931.00, 
1932.00, 
1933.00, 
1934.00, 
1935.00, 
1936.00, 
1937.00, 
1938.00, 
1939.00, 
1940.00, 
1941.00, 
1942.00, 
1943.00, 
1944.00, 
1945.00, 
1946.00, 
1947.00, 
1948.00, 
1949.00, 
1950.00, 
1951.00, 
1952.00, 
1953.00, 
1954.00, 
1955.00, 
1956.00, 
1957.00, 
1958.00, 
1959.00, 
1960.00, 
1961.00, 
1962.00, 
1963.00, 
1964.00, 
1965.00, 
1966.00, 
1967.00, 
1968.00, 
1969.00, 
1970.00, 
1971.00, 
1972.00, 
1973.00, 
1974.00, 
1975.00, 
1976.00, 
1977.00, 
1978.00, 
1979.00, 
1980.00, 
1981.00, 
1982.00, 
1983.00, 
1984.00, 
1985.00, 
1986.00, 
1987.00, 
1988.00, 
1989.00, 
1990.00, 
1991.00, 
1992.00, 
1993.00, 
1994.00, 
1995.00, 
1996.00, 
1997.00, 
1998.00, 
1999.00, 
2000.00, 
2001.00, 
2002.00, 
2003.00, 
2004.00, 
2005.00, 
2006.00, 
2007.00, 
2008.00, 
2009.00, 
2010.00, 
2011.00, 
2012.00, 
2013.00, 
2014.00, 
2015.00, 
2016.00, 
2017.00, 
2018.00, 
2019.00, 
2020.00, 
2021.00, 
2022.00, 
2023.00, 
2024.00, 
2025.00, 
2026.00, 
2027.00, 
2028.00, 
2029.00, 
2030.00, 
2031.00, 
2032.00, 
2033.00, 
2034.00, 
2035.00, 
2036.00, 
2037.00, 
2038.00, 
2039.00, 
2040.00, 
2041.00, 
2042.00, 
2043.00, 
2044.00, 
2045.00, 
2046.00, 
2047.00, 
2048.00, 
2049.00, 
2050.00, 
2051.00, 
2052.00, 
2053.00, 
2054.00, 
2055.00, 
2056.00, 
2057.00, 
2058.00, 
2059.00, 
2060.00, 
2061.00, 
2062.00, 
2063.00, 
2064.00, 
2065.00, 
2066.00, 
2067.00, 
2068.00, 
2069.00, 
2070.00, 
2071.00, 
2072.00, 
2073.00, 
2074.00, 
2075.00, 
2076.00, 
2077.00, 
2078.00, 
2079.00, 
2080.00, 
2081.00, 
2082.00, 
2083.00, 
2084.00, 
2085.00, 
2086.00, 
2087.00, 
2088.00, 
2089.00, 
2090.00, 
2091.00, 
2092.00, 
2093.00, 
2094.00, 
2095.00, 
2096.00, 
2097.00, 
2098.00, 
2099.00, 
2100.00, 
2101.00, 
2102.00, 
2103.00, 
2104.00, 
2105.00, 
2106.00, 
2107.00, 
2108.00, 
2109.00, 
2110.00, 
2111.00, 
2112.00, 
2113.00, 
2114.00, 
2115.00, 
2116.00, 
2117.00, 
2118.00, 
2119.00, 
2120.00, 
2121.00, 
2122.00, 
2123.00, 
2124.00, 
2125.00, 
2126.00, 
2127.00, 
2128.00, 
2129.00, 
2130.00, 
2131.00, 
2132.00, 
2133.00, 
2134.00, 
2135.00, 
2136.00, 
2137.00, 
2138.00, 
2139.00, 
2140.00, 
2141.00, 
2142.00, 
2143.00, 
2144.00, 
2145.00, 
2146.00, 
2147.00, 
2148.00, 
2149.00, 
2150.00, 
2151.00, 
2152.00, 
2153.00, 
2154.00, 
2155.00, 
2156.00, 
2157.00, 
2158.00, 
2159.00, 
2160.00, 
2161.00, 
2162.00, 
2163.00, 
2164.00, 
2165.00, 
2166.00, 
2167.00, 
2168.00, 
2169.00, 
2170.00, 
2171.00, 
2172.00, 
2173.00, 
2174.00, 
2175.00, 
2176.00, 
2177.00, 
2178.00, 
2179.00, 
2180.00, 
2181.00, 
2182.00, 
2183.00, 
2184.00, 
2185.00, 
2186.00, 
2187.00, 
2188.00, 
2189.00, 
2190.00, 
2191.00, 
2192.00, 
2193.00, 
2194.00, 
2195.00, 
2196.00, 
2197.00, 
2198.00, 
2199.00, 
2200.00, 
2201.00, 
2202.00, 
2203.00, 
2204.00, 
2205.00, 
2206.00, 
2207.00, 
2208.00, 
2209.00, 
2210.00, 
2211.00, 
2212.00, 
2213.00, 
2214.00, 
2215.00, 
2216.00, 
2217.00, 
2218.00, 
2219.00, 
2220.00, 
2221.00, 
2222.00, 
2223.00, 
2224.00, 
2225.00, 
2226.00, 
2227.00, 
2228.00, 
2229.00, 
2230.00, 
2231.00, 
2232.00, 
2233.00, 
2234.00, 
2235.00, 
2236.00, 
2237.00, 
2238.00, 
2239.00, 
2240.00, 
2241.00, 
2242.00, 
2243.00, 
2244.00, 
2245.00, 
2246.00, 
2247.00, 
2248.00, 
2249.00, 
2250.00, 
2251.00, 
2252.00, 
2253.00, 
2254.00, 
2255.00, 
2256.00, 
2257.00, 
2258.00, 
2259.00, 
2260.00, 
2261.00, 
2262.00, 
2263.00, 
2264.00, 
2265.00, 
2266.00, 
2267.00, 
2268.00, 
2269.00, 
2270.00, 
2271.00, 
2272.00, 
2273.00, 
2274.00, 
2275.00, 
2276.00, 
2277.00, 
2278.00, 
2279.00, 
2280.00, 
2281.00, 
2282.00, 
2283.00, 
2284.00, 
2285.00, 
2286.00, 
2287.00, 
2288.00, 
2289.00, 
2290.00, 
2291.00, 
2292.00, 
2293.00, 
2294.00, 
2295.00, 
2296.00, 
2297.00, 
2298.00, 
2299.00, 
2300.00, 
2301.00, 
2302.00, 
2303.00, 
2304.00, 
2305.00, 
2306.00, 
2307.00, 
2308.00, 
2309.00, 
2310.00, 
2311.00, 
2312.00, 
2313.00, 
2314.00, 
2315.00, 
2316.00, 
2317.00, 
2318.00, 
2319.00, 
2320.00, 
2321.00, 
2322.00, 
2323.00, 
2324.00, 
2325.00, 
2326.00, 
2327.00, 
2328.00, 
2329.00, 
2330.00, 
2331.00, 
2332.00, 
2333.00, 
2334.00, 
2335.00, 
2336.00, 
2337.00, 
2338.00, 
2339.00, 
2340.00, 
2341.00, 
2342.00, 
2343.00, 
2344.00, 
2345.00, 
2346.00, 
2347.00, 
2348.00, 
2349.00, 
2350.00, 
2351.00, 
2352.00, 
2353.00, 
2354.00, 
2355.00, 
2356.00, 
2357.00, 
2358.00, 
2359.00, 
2360.00, 
2361.00, 
2362.00, 
2363.00, 
2364.00, 
2365.00, 
2366.00, 
2367.00, 
2368.00, 
2369.00, 
2370.00, 
2371.00, 
2372.00, 
2373.00, 
2374.00, 
2375.00, 
2376.00, 
2377.00, 
2378.00, 
2379.00, 
2380.00, 
2381.00, 
2382.00, 
2383.00, 
2384.00, 
2385.00, 
2386.00, 
2387.00, 
2388.00, 
2389.00, 
2390.00, 
2391.00, 
2392.00, 
2393.00, 
2394.00, 
2395.00, 
2396.00, 
2397.00, 
2398.00, 
2399.00, 
2400.00, 
2401.00, 
2402.00, 
2403.00, 
2404.00, 
2405.00, 
2406.00, 
2407.00, 
2408.00, 
2409.00, 
2410.00, 
2411.00, 
2412.00, 
2413.00, 
2414.00, 
2415.00, 
2416.00, 
2417.00, 
2418.00, 
2419.00, 
2420.00, 
2421.00, 
2422.00, 
2423.00, 
2424.00, 
2425.00, 
2426.00, 
2427.00, 
2428.00, 
2429.00, 
2430.00, 
2431.00, 
2432.00, 
2433.00, 
2434.00, 
2435.00, 
2436.00, 
2437.00, 
2438.00, 
2439.00, 
2440.00, 
2441.00, 
2442.00, 
2443.00, 
2444.00, 
2445.00, 
2446.00, 
2447.00, 
2448.00, 
2449.00, 
2450.00, 
2451.00, 
2452.00, 
2453.00, 
2454.00, 
2455.00, 
2456.00, 
2457.00, 
2458.00, 
2459.00, 
2460.00, 
2461.00, 
2462.00, 
2463.00, 
2464.00, 
2465.00, 
2466.00, 
2467.00, 
2468.00, 
2469.00, 
2470.00, 
2471.00, 
2472.00, 
2473.00, 
2474.00, 
2475.00, 
2476.00, 
2477.00, 
2478.00, 
2479.00, 
2480.00, 
2481.00, 
2482.00, 
2483.00, 
2484.00, 
2485.00, 
2486.00, 
2487.00, 
2488.00, 
2489.00, 
2490.00, 
2491.00, 
2492.00, 
2493.00, 
2494.00, 
2495.00, 
2496.00, 
2497.00, 
2498.00, 
2499.00, 
2500.00, 
2501.00, 
2502.00, 
2503.00, 
2504.00, 
2505.00, 
2506.00, 
2507.00, 
2508.00, 
2509.00, 
2510.00, 
2511.00, 
2512.00, 
2513.00, 
2514.00, 
2515.00, 
2516.00, 
2517.00, 
2518.00, 
2519.00, 
2520.00, 
2521.00, 
2522.00, 
2523.00, 
2524.00, 
2525.00, 
2526.00, 
2527.00, 
2528.00, 
2529.00, 
2530.00, 
2531.00, 
2532.00, 
2533.00, 
2534.00, 
2535.00, 
2536.00, 
2537.00, 
2538.00, 
2539.00, 
2540.00, 
2541.00, 
2542.00, 
2543.00, 
2544.00, 
2545.00, 
2546.00, 
2547.00, 
2548.00, 
2549.00, 
2550.00, 
2551.00, 
2552.00, 
2553.00, 
2554.00, 
2555.00, 
2556.00, 
2557.00, 
2558.00, 
2559.00, 
2560.00, 
2561.00, 
2562.00, 
2563.00, 
2564.00, 
2565.00, 
2566.00, 
2567.00, 
2568.00, 
2569.00, 
2570.00, 
2571.00, 
2572.00, 
2573.00, 
2574.00, 
2575.00, 
2576.00, 
2577.00, 
2578.00, 
2579.00, 
2580.00, 
2581.00, 
2582.00, 
2583.00, 
2584.00, 
2585.00, 
2586.00, 
2587.00, 
2588.00, 
2589.00, 
2590.00, 
2591.00, 
2592.00, 
2593.00, 
2594.00, 
2595.00, 
2596.00, 
2597.00, 
2598.00, 
2599.00, 
2600.00, 
