"1cP1 - RawData"
"Wavelength nm.","T%"
200.00,-0.003
201.00,0.001
202.00,0.003
203.00,-0.003
204.00,0.000
205.00,0.000
206.00,-0.001
207.00,0.001
208.00,-0.000
209.00,0.005
210.00,0.002
211.00,0.002
212.00,-0.001
213.00,0.001
214.00,-0.000
215.00,0.002
216.00,0.001
217.00,0.003
218.00,-0.000
219.00,0.001
220.00,-0.001
221.00,0.001
222.00,0.000
223.00,0.000
224.00,0.001
225.00,0.000
226.00,-0.000
227.00,0.002
228.00,0.002
229.00,0.004
230.00,-0.002
231.00,0.000
232.00,-0.002
233.00,-0.000
234.00,0.001
235.00,0.001
236.00,0.000
237.00,0.001
238.00,-0.000
239.00,0.003
240.00,0.000
241.00,-0.001
242.00,0.001
243.00,0.001
244.00,-0.001
245.00,0.001
246.00,0.002
247.00,0.001
248.00,0.001
249.00,0.000
250.00,0.000
251.00,-0.001
252.00,-0.002
253.00,-0.001
254.00,-0.001
255.00,-0.000
256.00,0.000
257.00,-0.003
258.00,-0.001
259.00,-0.001
260.00,0.002
261.00,0.002
262.00,0.002
263.00,-0.001
264.00,-0.001
265.00,-0.000
266.00,-0.000
267.00,-0.000
268.00,0.001
269.00,-0.000
270.00,-0.001
271.00,-0.001
272.00,0.000
273.00,0.001
274.00,-0.002
275.00,-0.000
276.00,0.001
277.00,0.001
278.00,0.000
279.00,0.001
280.00,-0.001
281.00,0.001
282.00,0.001
283.00,0.001
284.00,-0.002
285.00,-0.002
286.00,0.001
287.00,0.001
288.00,0.000
289.00,-0.001
290.00,0.000
291.00,0.001
292.00,0.000
293.00,-0.001
294.00,0.001
295.00,0.000
296.00,0.001
297.00,-0.001
298.00,-0.001
299.00,-0.000
300.00,0.001
301.00,0.000
302.00,0.002
303.00,0.001
304.00,0.002
305.00,0.000
306.00,0.001
307.00,0.002
308.00,0.006
309.00,0.009
310.00,0.016
311.00,0.026
312.00,0.038
313.00,0.061
314.00,0.090
315.00,0.133
316.00,0.192
317.00,0.280
318.00,0.373
319.00,0.506
320.00,0.677
321.00,0.886
322.00,1.130
323.00,1.414
324.00,1.763
325.00,2.091
326.00,2.508
327.00,2.978
328.00,3.486
329.00,4.030
330.00,4.599
331.00,5.201
332.00,5.865
333.00,6.580
334.00,7.228
335.00,7.944
336.00,8.691
337.00,9.431
338.00,10.147
339.00,10.797
340.00,11.546
341.00,12.210
342.00,12.921
343.00,13.535
344.00,14.164
345.00,14.846
346.00,15.396
347.00,15.915
348.00,16.438
349.00,16.916
350.00,17.422
351.00,17.843
352.00,18.180
353.00,18.618
354.00,18.978
355.00,19.315
356.00,19.678
357.00,19.930
358.00,20.196
359.00,20.493
360.00,20.749
361.00,20.942
362.00,21.180
363.00,21.371
364.00,21.441
365.00,21.564
366.00,21.692
367.00,21.782
368.00,21.833
369.00,21.923
370.00,22.078
371.00,22.011
372.00,22.004
373.00,21.960
374.00,21.977
375.00,21.975
376.00,21.887
377.00,21.825
378.00,21.718
379.00,21.610
380.00,21.574
381.00,21.592
382.00,21.553
383.00,21.634
384.00,21.687
385.00,21.732
386.00,21.755
387.00,21.851
388.00,21.935
389.00,21.953
390.00,22.008
391.00,22.040
392.00,22.090
393.00,22.122
394.00,22.178
395.00,22.163
396.00,22.168
397.00,22.200
398.00,22.222
399.00,22.220
400.00,22.219
401.00,22.217
402.00,22.236
403.00,22.208
404.00,22.194
405.00,22.116
406.00,22.168
407.00,22.119
408.00,22.127
409.00,22.058
410.00,21.985
411.00,21.986
412.00,21.949
413.00,21.984
414.00,21.940
415.00,21.953
416.00,21.976
417.00,21.978
418.00,21.985
419.00,22.066
420.00,22.101
421.00,22.108
422.00,22.140
423.00,22.167
424.00,22.229
425.00,22.220
426.00,22.245
427.00,22.308
428.00,22.306
429.00,22.342
430.00,22.399
431.00,22.449
432.00,22.481
433.00,22.543
434.00,22.584
435.00,22.635
436.00,22.701
437.00,22.736
438.00,22.817
439.00,22.855
440.00,22.945
441.00,23.022
442.00,23.092
443.00,23.149
444.00,23.251
445.00,23.345
446.00,23.438
447.00,23.593
448.00,23.629
449.00,23.693
450.00,23.793
451.00,23.878
452.00,23.944
453.00,24.102
454.00,24.173
455.00,24.295
456.00,24.403
457.00,24.538
458.00,24.639
459.00,24.759
460.00,24.855
461.00,24.997
462.00,25.151
463.00,25.282
464.00,25.417
465.00,25.470
466.00,25.606
467.00,25.759
468.00,25.827
469.00,25.958
470.00,26.010
471.00,26.123
472.00,26.251
473.00,26.311
474.00,26.437
475.00,26.557
476.00,26.680
477.00,26.766
478.00,26.919
479.00,27.022
480.00,27.170
481.00,27.274
482.00,27.487
483.00,27.624
484.00,27.768
485.00,27.913
486.00,28.067
487.00,28.213
488.00,28.362
489.00,28.515
490.00,28.664
491.00,28.766
492.00,28.998
493.00,29.146
494.00,29.109
495.00,29.282
496.00,29.402
497.00,29.518
498.00,29.681
499.00,29.844
500.00,29.931
501.00,30.034
502.00,30.162
503.00,30.301
504.00,30.367
505.00,30.544
506.00,30.636
507.00,30.643
508.00,30.818
509.00,30.970
510.00,31.144
511.00,31.213
512.00,31.367
513.00,31.508
514.00,31.625
515.00,31.768
516.00,31.852
517.00,31.956
518.00,32.072
519.00,32.170
520.00,32.245
521.00,32.331
522.00,32.408
523.00,32.437
524.00,32.563
525.00,32.691
526.00,32.793
527.00,32.835
528.00,32.925
529.00,33.120
530.00,33.253
531.00,33.387
532.00,33.431
533.00,33.540
534.00,33.614
535.00,33.748
536.00,33.792
537.00,33.912
538.00,33.959
539.00,34.013
540.00,34.108
541.00,34.169
542.00,34.223
543.00,34.301
544.00,34.375
545.00,34.429
546.00,34.446
547.00,34.618
548.00,34.694
549.00,34.760
550.00,34.844
551.00,34.940
552.00,35.032
553.00,35.034
554.00,35.158
555.00,35.188
556.00,35.224
557.00,35.331
558.00,35.343
559.00,35.472
560.00,35.503
561.00,35.569
562.00,35.644
563.00,35.635
564.00,35.739
565.00,35.763
566.00,35.781
567.00,35.839
568.00,35.858
569.00,35.932
570.00,35.963
571.00,36.024
572.00,36.060
573.00,36.018
574.00,36.104
575.00,36.102
576.00,36.118
577.00,36.188
578.00,36.318
579.00,36.368
580.00,36.361
581.00,36.528
582.00,36.619
583.00,36.544
584.00,36.697
585.00,36.801
586.00,36.808
587.00,36.888
588.00,36.928
589.00,36.891
590.00,37.005
591.00,37.001
592.00,36.996
593.00,37.058
594.00,37.150
595.00,37.224
596.00,37.281
597.00,37.377
598.00,37.366
599.00,37.386
600.00,37.391
601.00,37.437
602.00,37.449
603.00,37.505
604.00,37.592
605.00,37.610
606.00,37.594
607.00,37.662
608.00,37.788
609.00,37.947
610.00,37.817
611.00,37.901
612.00,37.888
613.00,37.967
614.00,38.052
615.00,38.084
616.00,38.199
617.00,38.202
618.00,38.174
619.00,38.309
620.00,38.266
621.00,38.410
622.00,38.461
623.00,38.450
624.00,38.589
625.00,38.655
626.00,38.675
627.00,38.717
628.00,38.722
629.00,38.780
630.00,38.826
631.00,38.867
632.00,38.888
633.00,39.077
634.00,39.134
635.00,39.256
636.00,39.228
637.00,39.267
638.00,39.274
639.00,39.584
640.00,39.655
641.00,39.585
642.00,39.622
643.00,39.669
644.00,39.757
645.00,39.848
646.00,39.946
647.00,40.041
648.00,40.109
649.00,40.137
650.00,40.205
651.00,40.335
652.00,40.380
653.00,40.361
654.00,40.469
655.00,40.617
656.00,40.818
657.00,40.526
658.00,40.742
659.00,40.975
660.00,41.050
661.00,41.032
662.00,41.055
663.00,41.189
664.00,41.522
665.00,41.620
666.00,41.470
667.00,41.600
668.00,41.689
669.00,41.854
670.00,42.114
671.00,42.017
672.00,41.887
673.00,42.018
674.00,42.212
675.00,42.380
676.00,42.561
677.00,42.611
678.00,42.491
679.00,42.585
680.00,42.790
681.00,42.954
682.00,42.895
683.00,42.988
684.00,43.211
685.00,43.190
686.00,43.128
687.00,43.189
688.00,43.263
689.00,43.368
690.00,43.618
691.00,43.896
692.00,43.604
693.00,43.660
694.00,43.830
695.00,43.992
696.00,44.046
697.00,43.969
698.00,44.193
699.00,44.448
700.00,44.377
701.00,44.360
702.00,44.502
703.00,44.681
704.00,44.660
705.00,44.692
706.00,44.850
707.00,44.581
708.00,44.833
709.00,45.335
710.00,45.066
711.00,45.031
712.00,45.103
713.00,45.303
714.00,45.385
715.00,45.421
716.00,45.370
717.00,45.547
718.00,45.628
719.00,45.670
720.00,45.715
721.00,50.184
722.00,50.136
723.00,50.216
724.00,50.223
725.00,50.302
726.00,50.280
727.00,50.268
728.00,50.298
729.00,50.367
730.00,50.341
731.00,50.319
732.00,50.364
733.00,50.398
734.00,50.451
735.00,50.459
736.00,50.502
737.00,50.557
738.00,50.569
739.00,50.608
740.00,50.690
741.00,50.653
742.00,50.700
743.00,50.691
744.00,50.666
745.00,50.698
746.00,50.747
747.00,50.709
748.00,50.689
749.00,50.737
750.00,50.665
751.00,50.698
752.00,50.704
753.00,50.702
754.00,50.628
755.00,50.715
756.00,50.715
757.00,50.721
758.00,50.831
759.00,50.738
760.00,50.777
761.00,50.719
762.00,50.777
763.00,50.801
764.00,50.796
765.00,50.838
766.00,50.757
767.00,50.823
768.00,50.828
769.00,50.827
770.00,50.772
771.00,50.795
772.00,50.828
773.00,50.849
774.00,50.890
775.00,50.925
776.00,50.871
777.00,50.861
778.00,50.810
779.00,50.971
780.00,50.784
781.00,50.894
782.00,50.905
783.00,50.841
784.00,50.908
785.00,50.808
786.00,50.903
787.00,50.830
788.00,50.822
789.00,50.838
790.00,50.728
791.00,50.840
792.00,50.819
793.00,50.739
794.00,50.785
795.00,50.761
796.00,50.766
797.00,50.747
798.00,50.758
799.00,50.690
800.00,50.652
801.00,50.680
802.00,50.646
803.00,50.637
804.00,50.635
805.00,50.634
806.00,50.634
807.00,50.559
808.00,50.637
809.00,50.512
810.00,50.493
811.00,50.576
812.00,50.542
813.00,50.494
814.00,50.482
815.00,50.432
816.00,50.480
817.00,50.464
818.00,50.366
819.00,50.398
820.00,50.302
821.00,50.389
822.00,50.367
823.00,50.340
824.00,50.463
825.00,50.313
826.00,50.296
827.00,50.253
828.00,50.359
829.00,50.373
830.00,50.240
831.00,52.552
832.00,52.571
833.00,52.506
834.00,52.481
835.00,52.562
836.00,52.489
837.00,52.432
838.00,52.461
839.00,52.459
840.00,52.365
841.00,52.402
842.00,52.373
843.00,52.391
844.00,52.270
845.00,52.312
846.00,52.322
847.00,52.298
848.00,52.271
849.00,52.200
850.00,52.187
851.00,52.110
852.00,52.119
853.00,52.067
854.00,52.059
855.00,52.017
856.00,52.011
857.00,51.992
858.00,51.984
859.00,51.933
860.00,51.920
861.00,51.962
862.00,51.866
863.00,51.878
864.00,51.852
865.00,51.828
866.00,51.823
867.00,51.816
868.00,51.793
869.00,51.764
870.00,51.801
871.00,51.773
872.00,51.759
873.00,51.765
874.00,51.770
875.00,51.741
876.00,51.731
877.00,51.717
878.00,51.722
879.00,51.672
880.00,51.679
881.00,51.650
882.00,51.686
883.00,51.638
884.00,51.612
885.00,51.583
886.00,51.549
887.00,51.580
888.00,51.532
889.00,51.508
890.00,51.523
891.00,51.414
892.00,51.456
893.00,51.434
894.00,51.458
895.00,51.370
896.00,51.346
897.00,51.340
898.00,51.330
899.00,51.319
900.00,51.279
901.00,51.307
902.00,51.297
903.00,51.262
904.00,51.219
905.00,51.295
906.00,51.238
907.00,51.197
908.00,51.154
909.00,51.156
910.00,51.127
911.00,51.116
912.00,51.106
913.00,51.067
914.00,51.053
915.00,51.036
916.00,50.996
917.00,50.981
918.00,50.998
919.00,50.935
920.00,50.900
921.00,50.907
922.00,50.914
923.00,50.881
924.00,50.867
925.00,50.827
926.00,50.945
927.00,50.787
928.00,50.776
929.00,50.805
930.00,50.747
931.00,50.698
932.00,50.794
933.00,50.730
934.00,50.554
935.00,50.643
936.00,50.644
937.00,50.618
938.00,50.574
939.00,50.583
940.00,50.570
941.00,50.568
942.00,50.543
943.00,50.526
944.00,50.486
945.00,50.484
946.00,50.482
947.00,50.439
948.00,50.403
949.00,50.400
950.00,50.379
951.00,50.357
952.00,50.351
953.00,50.308
954.00,50.295
955.00,50.229
956.00,50.219
957.00,50.189
958.00,50.179
959.00,50.131
960.00,50.129
961.00,50.156
962.00,50.122
963.00,50.078
964.00,50.073
965.00,50.084
966.00,50.064
967.00,50.069
968.00,50.045
969.00,50.082
970.00,50.059
971.00,50.058
972.00,50.007
973.00,50.063
974.00,50.068
975.00,50.029
976.00,50.042
977.00,50.026
978.00,50.070
979.00,50.026
980.00,50.038
981.00,50.035
982.00,50.006
983.00,50.024
984.00,49.994
985.00,50.025
986.00,49.980
987.00,49.988
988.00,49.948
989.00,49.960
990.00,49.972
991.00,49.930
992.00,49.929
993.00,49.941
994.00,49.901
995.00,49.892
996.00,49.886
997.00,49.891
998.00,49.873
999.00,49.889
1000.00,49.837
1001.00,49.842
1002.00,49.827
1003.00,49.807
1004.00,49.788
1005.00,49.736
1006.00,49.793
1007.00,49.749
1008.00,49.749
1009.00,49.730
1010.00,49.720
1011.00,49.716
1012.00,49.697
1013.00,49.688
1014.00,49.663
1015.00,49.689
1016.00,49.639
1017.00,49.631
1018.00,49.611
1019.00,49.577
1020.00,49.585
1021.00,49.551
1022.00,49.568
1023.00,49.521
1024.00,49.526
1025.00,49.509
1026.00,49.492
1027.00,49.462
1028.00,49.457
1029.00,49.442
1030.00,49.400
1031.00,49.426
1032.00,49.390
1033.00,49.392
1034.00,49.370
1035.00,49.332
1036.00,49.314
1037.00,49.307
1038.00,49.285
1039.00,49.248
1040.00,49.243
1041.00,49.223
1042.00,49.218
1043.00,49.203
1044.00,49.222
1045.00,49.208
1046.00,49.182
1047.00,49.218
1048.00,49.222
1049.00,49.212
1050.00,49.221
1051.00,49.266
1052.00,49.263
1053.00,49.261
1054.00,49.292
1055.00,49.296
1056.00,49.304
1057.00,49.286
1058.00,49.270
1059.00,49.287
1060.00,49.285
1061.00,49.264
1062.00,49.263
1063.00,49.275
1064.00,49.272
1065.00,49.254
1066.00,49.251
1067.00,49.241
1068.00,49.258
1069.00,49.227
1070.00,49.213
1071.00,49.195
1072.00,49.219
1073.00,49.189
1074.00,49.198
1075.00,49.174
1076.00,49.186
1077.00,49.157
1078.00,49.130
1079.00,49.127
1080.00,49.131
1081.00,49.112
1082.00,49.097
1083.00,49.101
1084.00,49.103
1085.00,49.109
1086.00,49.089
1087.00,49.096
1088.00,49.080
1089.00,49.076
1090.00,49.056
1091.00,49.058
1092.00,49.057
1093.00,49.032
1094.00,49.031
1095.00,49.017
1096.00,49.015
1097.00,49.005
1098.00,48.998
1099.00,48.996
1100.00,48.968
1101.00,48.959
1102.00,48.947
1103.00,48.953
1104.00,48.930
1105.00,48.915
1106.00,48.908
1107.00,48.909
1108.00,48.890
1109.00,48.896
1110.00,48.885
1111.00,48.898
1112.00,48.881
1113.00,48.882
1114.00,48.877
1115.00,48.859
1116.00,48.856
1117.00,48.835
1118.00,48.822
1119.00,48.827
1120.00,48.823
1121.00,48.820
1122.00,48.813
1123.00,48.807
1124.00,48.789
1125.00,48.804
1126.00,48.777
1127.00,48.774
1128.00,48.751
1129.00,48.734
1130.00,48.738
1131.00,48.742
1132.00,48.729
1133.00,48.745
1134.00,48.719
1135.00,48.716
1136.00,48.724
1137.00,48.719
1138.00,48.707
1139.00,48.724
1140.00,48.712
1141.00,48.707
1142.00,48.692
1143.00,48.696
1144.00,48.685
1145.00,48.682
1146.00,48.685
1147.00,48.674
1148.00,48.653
1149.00,48.677
1150.00,48.673
1151.00,48.672
1152.00,48.655
1153.00,48.660
1154.00,48.644
1155.00,48.664
1156.00,48.648
1157.00,48.645
1158.00,48.643
1159.00,48.662
1160.00,48.653
1161.00,48.660
1162.00,48.642
1163.00,48.642
1164.00,48.654
1165.00,48.642
1166.00,48.648
1167.00,48.629
1168.00,48.660
1169.00,48.660
1170.00,48.656
1171.00,48.638
1172.00,48.631
1173.00,48.627
1174.00,48.631
1175.00,48.627
1176.00,48.624
1177.00,48.630
1178.00,48.624
1179.00,48.639
1180.00,48.627
1181.00,48.631
1182.00,48.620
1183.00,48.613
1184.00,48.637
1185.00,48.620
1186.00,48.615
1187.00,48.631
1188.00,48.623
1189.00,48.624
1190.00,48.610
1191.00,48.615
1192.00,48.634
1193.00,48.618
1194.00,48.618
1195.00,48.596
1196.00,48.637
1197.00,48.629
1198.00,48.620
1199.00,48.624
1200.00,48.629
1201.00,48.641
1202.00,48.620
1203.00,48.625
1204.00,48.608
1205.00,48.625
1206.00,48.612
1207.00,48.618
1208.00,48.598
1209.00,48.613
1210.00,48.616
1211.00,48.596
1212.00,48.632
1213.00,48.603
1214.00,48.624
1215.00,48.608
1216.00,48.625
1217.00,48.640
1218.00,48.616
1219.00,48.639
1220.00,48.621
1221.00,48.651
1222.00,48.616
1223.00,48.635
1224.00,48.635
1225.00,48.599
1226.00,48.619
1227.00,48.606
1228.00,48.632
1229.00,48.631
1230.00,48.655
1231.00,48.650
1232.00,48.682
1233.00,48.684
1234.00,48.683
1235.00,48.691
1236.00,48.679
1237.00,48.683
1238.00,48.680
1239.00,48.680
1240.00,48.678
1241.00,48.692
1242.00,48.695
1243.00,48.708
1244.00,48.684
1245.00,48.728
1246.00,48.735
1247.00,48.740
1248.00,48.729
1249.00,48.727
1250.00,48.745
1251.00,48.727
1252.00,48.741
1253.00,48.724
1254.00,48.770
1255.00,48.751
1256.00,48.725
1257.00,48.728
1258.00,48.774
1259.00,48.766
1260.00,48.782
1261.00,48.785
1262.00,48.771
1263.00,48.776
1264.00,48.783
1265.00,48.791
1266.00,48.774
1267.00,48.785
1268.00,48.805
1269.00,48.804
1270.00,48.817
1271.00,48.823
1272.00,48.822
1273.00,48.839
1274.00,48.842
1275.00,48.862
1276.00,48.858
1277.00,48.863
1278.00,48.888
1279.00,48.887
1280.00,48.863
1281.00,48.879
1282.00,48.892
1283.00,48.877
1284.00,48.887
1285.00,48.899
1286.00,48.928
1287.00,48.920
1288.00,48.918
1289.00,48.921
1290.00,48.954
1291.00,48.935
1292.00,48.956
1293.00,48.940
1294.00,48.965
1295.00,48.985
1296.00,48.991
1297.00,48.985
1298.00,49.018
1299.00,48.979
1300.00,49.000
1301.00,48.995
1302.00,49.001
1303.00,48.995
1304.00,48.987
1305.00,49.016
1306.00,49.043
1307.00,49.031
1308.00,49.058
1309.00,49.058
1310.00,49.041
1311.00,49.038
1312.00,49.053
1313.00,49.067
1314.00,49.087
1315.00,49.109
1316.00,49.098
1317.00,49.136
1318.00,49.133
1319.00,49.122
1320.00,49.143
1321.00,49.303
1322.00,49.289
1323.00,49.286
1324.00,49.278
1325.00,49.262
1326.00,49.281
1327.00,49.270
1328.00,49.266
1329.00,49.259
1330.00,49.284
1331.00,49.279
1332.00,49.283
1333.00,49.287
1334.00,49.312
1335.00,49.351
1336.00,49.400
1337.00,49.382
1338.00,49.477
1339.00,49.512
1340.00,49.562
1341.00,49.626
1342.00,49.689
1343.00,49.736
1344.00,49.778
1345.00,49.829
1346.00,49.877
1347.00,49.902
1348.00,49.921
1349.00,49.981
1350.00,49.977
1351.00,49.985
1352.00,50.007
1353.00,50.046
1354.00,50.033
1355.00,49.979
1356.00,50.051
1357.00,50.025
1358.00,50.044
1359.00,50.024
1360.00,50.100
1361.00,50.109
1362.00,49.989
1363.00,50.103
1364.00,50.087
1365.00,50.056
1366.00,50.114
1367.00,50.094
1368.00,50.044
1369.00,50.088
1370.00,50.073
1371.00,50.004
1372.00,50.036
1373.00,50.070
1374.00,50.091
1375.00,50.064
1376.00,50.049
1377.00,50.054
1378.00,50.153
1379.00,50.122
1380.00,50.091
1381.00,50.129
1382.00,50.024
1383.00,50.071
1384.00,49.987
1385.00,50.010
1386.00,50.105
1387.00,50.046
1388.00,50.028
1389.00,50.032
1390.00,50.238
1391.00,50.021
1392.00,50.006
1393.00,50.070
1394.00,50.038
1395.00,49.974
1396.00,49.984
1397.00,50.036
1398.00,50.078
1399.00,49.995
1400.00,49.991
1401.00,50.032
1402.00,50.097
1403.00,50.057
1404.00,50.066
1405.00,50.055
1406.00,50.105
1407.00,50.115
1408.00,50.161
1409.00,50.286
1410.00,50.155
1411.00,50.138
1412.00,50.201
1413.00,50.116
1414.00,50.121
1415.00,50.165
1416.00,50.194
1417.00,50.213
1418.00,50.192
1419.00,50.190
1420.00,50.210
1421.00,50.272
1422.00,50.265
1423.00,50.286
1424.00,50.305
1425.00,50.320
1426.00,50.330
1427.00,50.344
1428.00,50.336
1429.00,50.359
1430.00,50.367
1431.00,50.387
1432.00,50.403
1433.00,50.414
1434.00,50.427
1435.00,50.480
1436.00,50.481
1437.00,50.468
1438.00,50.502
1439.00,50.534
1440.00,50.553
1441.00,50.554
1442.00,50.567
1443.00,50.612
1444.00,50.641
1445.00,50.624
1446.00,50.640
1447.00,50.683
1448.00,50.731
1449.00,50.729
1450.00,50.713
1451.00,50.736
1452.00,50.766
1453.00,50.763
1454.00,50.780
1455.00,50.800
1456.00,50.829
1457.00,50.834
1458.00,50.858
1459.00,50.875
1460.00,50.910
1461.00,50.903
1462.00,50.930
1463.00,50.936
1464.00,50.939
1465.00,50.957
1466.00,50.975
1467.00,50.997
1468.00,51.052
1469.00,51.015
1470.00,51.051
1471.00,51.079
1472.00,51.075
1473.00,51.106
1474.00,51.112
1475.00,51.126
1476.00,51.149
1477.00,51.140
1478.00,51.178
1479.00,51.185
1480.00,51.191
1481.00,51.199
1482.00,51.242
1483.00,51.254
1484.00,51.261
1485.00,51.259
1486.00,51.275
1487.00,51.306
1488.00,51.323
1489.00,51.318
1490.00,51.342
1491.00,51.339
1492.00,51.376
1493.00,51.352
1494.00,51.376
1495.00,51.380
1496.00,51.408
1497.00,51.398
1498.00,51.417
1499.00,51.419
1500.00,51.449
1501.00, 
1502.00, 
1503.00, 
1504.00, 
1505.00, 
1506.00, 
1507.00, 
1508.00, 
1509.00, 
1510.00, 
1511.00, 
1512.00, 
1513.00, 
1514.00, 
1515.00, 
1516.00, 
1517.00, 
1518.00, 
1519.00, 
1520.00, 
1521.00, 
1522.00, 
1523.00, 
1524.00, 
1525.00, 
1526.00, 
1527.00, 
1528.00, 
1529.00, 
1530.00, 
1531.00, 
1532.00, 
1533.00, 
1534.00, 
1535.00, 
1536.00, 
1537.00, 
1538.00, 
1539.00, 
1540.00, 
1541.00, 
1542.00, 
1543.00, 
1544.00, 
1545.00, 
1546.00, 
1547.00, 
1548.00, 
1549.00, 
1550.00, 
1551.00, 
1552.00, 
1553.00, 
1554.00, 
1555.00, 
1556.00, 
1557.00, 
1558.00, 
1559.00, 
1560.00, 
1561.00, 
1562.00, 
1563.00, 
1564.00, 
1565.00, 
1566.00, 
1567.00, 
1568.00, 
1569.00, 
1570.00, 
1571.00, 
1572.00, 
1573.00, 
1574.00, 
1575.00, 
1576.00, 
1577.00, 
1578.00, 
1579.00, 
1580.00, 
1581.00, 
1582.00, 
1583.00, 
1584.00, 
1585.00, 
1586.00, 
1587.00, 
1588.00, 
1589.00, 
1590.00, 
1591.00, 
1592.00, 
1593.00, 
1594.00, 
1595.00, 
1596.00, 
1597.00, 
1598.00, 
1599.00, 
1600.00, 
1601.00, 
1602.00, 
1603.00, 
1604.00, 
1605.00, 
1606.00, 
1607.00, 
1608.00, 
1609.00, 
1610.00, 
1611.00, 
1612.00, 
1613.00, 
1614.00, 
1615.00, 
1616.00, 
1617.00, 
1618.00, 
1619.00, 
1620.00, 
1621.00, 
1622.00, 
1623.00, 
1624.00, 
1625.00, 
1626.00, 
1627.00, 
1628.00, 
1629.00, 
1630.00, 
1631.00, 
1632.00, 
1633.00, 
1634.00, 
1635.00, 
1636.00, 
1637.00, 
1638.00, 
1639.00, 
1640.00, 
1641.00, 
1642.00, 
1643.00, 
1644.00, 
1645.00, 
1646.00, 
1647.00, 
1648.00, 
1649.00, 
1650.00, 
1651.00, 
1652.00, 
1653.00, 
1654.00, 
1655.00, 
1656.00, 
1657.00, 
1658.00, 
1659.00, 
1660.00, 
1661.00, 
1662.00, 
1663.00, 
1664.00, 
1665.00, 
1666.00, 
1667.00, 
1668.00, 
1669.00, 
1670.00, 
1671.00, 
1672.00, 
1673.00, 
1674.00, 
1675.00, 
1676.00, 
1677.00, 
1678.00, 
1679.00, 
1680.00, 
1681.00, 
1682.00, 
1683.00, 
1684.00, 
1685.00, 
1686.00, 
1687.00, 
1688.00, 
1689.00, 
1690.00, 
1691.00, 
1692.00, 
1693.00, 
1694.00, 
1695.00, 
1696.00, 
1697.00, 
1698.00, 
1699.00, 
1700.00, 
1701.00, 
1702.00, 
1703.00, 
1704.00, 
1705.00, 
1706.00, 
1707.00, 
1708.00, 
1709.00, 
1710.00, 
1711.00, 
1712.00, 
1713.00, 
1714.00, 
1715.00, 
1716.00, 
1717.00, 
1718.00, 
1719.00, 
1720.00, 
1721.00, 
1722.00, 
1723.00, 
1724.00, 
1725.00, 
1726.00, 
1727.00, 
1728.00, 
1729.00, 
1730.00, 
1731.00, 
1732.00, 
1733.00, 
1734.00, 
1735.00, 
1736.00, 
1737.00, 
1738.00, 
1739.00, 
1740.00, 
1741.00, 
1742.00, 
1743.00, 
1744.00, 
1745.00, 
1746.00, 
1747.00, 
1748.00, 
1749.00, 
1750.00, 
1751.00, 
1752.00, 
1753.00, 
1754.00, 
1755.00, 
1756.00, 
1757.00, 
1758.00, 
1759.00, 
1760.00, 
1761.00, 
1762.00, 
1763.00, 
1764.00, 
1765.00, 
1766.00, 
1767.00, 
1768.00, 
1769.00, 
1770.00, 
1771.00, 
1772.00, 
1773.00, 
1774.00, 
1775.00, 
1776.00, 
1777.00, 
1778.00, 
1779.00, 
1780.00, 
1781.00, 
1782.00, 
1783.00, 
1784.00, 
1785.00, 
1786.00, 
1787.00, 
1788.00, 
1789.00, 
1790.00, 
1791.00, 
1792.00, 
1793.00, 
1794.00, 
1795.00, 
1796.00, 
1797.00, 
1798.00, 
1799.00, 
1800.00, 
1801.00, 
1802.00, 
1803.00, 
1804.00, 
1805.00, 
1806.00, 
1807.00, 
1808.00, 
1809.00, 
1810.00, 
1811.00, 
1812.00, 
1813.00, 
1814.00, 
1815.00, 
1816.00, 
1817.00, 
1818.00, 
1819.00, 
1820.00, 
1821.00, 
1822.00, 
1823.00, 
1824.00, 
1825.00, 
1826.00, 
1827.00, 
1828.00, 
1829.00, 
1830.00, 
1831.00, 
1832.00, 
1833.00, 
1834.00, 
1835.00, 
1836.00, 
1837.00, 
1838.00, 
1839.00, 
1840.00, 
1841.00, 
1842.00, 
1843.00, 
1844.00, 
1845.00, 
1846.00, 
1847.00, 
1848.00, 
1849.00, 
1850.00, 
1851.00, 
1852.00, 
1853.00, 
1854.00, 
1855.00, 
1856.00, 
1857.00, 
1858.00, 
1859.00, 
1860.00, 
1861.00, 
1862.00, 
1863.00, 
1864.00, 
1865.00, 
1866.00, 
1867.00, 
1868.00, 
1869.00, 
1870.00, 
1871.00, 
1872.00, 
1873.00, 
1874.00, 
1875.00, 
1876.00, 
1877.00, 
1878.00, 
1879.00, 
1880.00, 
1881.00, 
1882.00, 
1883.00, 
1884.00, 
1885.00, 
1886.00, 
1887.00, 
1888.00, 
1889.00, 
1890.00, 
1891.00, 
1892.00, 
1893.00, 
1894.00, 
1895.00, 
1896.00, 
1897.00, 
1898.00, 
1899.00, 
1900.00, 
1901.00, 
1902.00, 
1903.00, 
1904.00, 
1905.00, 
1906.00, 
1907.00, 
1908.00, 
1909.00, 
1910.00, 
1911.00, 
1912.00, 
1913.00, 
1914.00, 
1915.00, 
1916.00, 
1917.00, 
1918.00, 
1919.00, 
1920.00, 
1921.00, 
1922.00, 
1923.00, 
1924.00, 
1925.00, 
1926.00, 
1927.00, 
1928.00, 
1929.00, 
1930.00, 
1931.00, 
1932.00, 
1933.00, 
1934.00, 
1935.00, 
1936.00, 
1937.00, 
1938.00, 
1939.00, 
1940.00, 
1941.00, 
1942.00, 
1943.00, 
1944.00, 
1945.00, 
1946.00, 
1947.00, 
1948.00, 
1949.00, 
1950.00, 
1951.00, 
1952.00, 
1953.00, 
1954.00, 
1955.00, 
1956.00, 
1957.00, 
1958.00, 
1959.00, 
1960.00, 
1961.00, 
1962.00, 
1963.00, 
1964.00, 
1965.00, 
1966.00, 
1967.00, 
1968.00, 
1969.00, 
1970.00, 
1971.00, 
1972.00, 
1973.00, 
1974.00, 
1975.00, 
1976.00, 
1977.00, 
1978.00, 
1979.00, 
1980.00, 
1981.00, 
1982.00, 
1983.00, 
1984.00, 
1985.00, 
1986.00, 
1987.00, 
1988.00, 
1989.00, 
1990.00, 
1991.00, 
1992.00, 
1993.00, 
1994.00, 
1995.00, 
1996.00, 
1997.00, 
1998.00, 
1999.00, 
2000.00, 
2001.00, 
2002.00, 
2003.00, 
2004.00, 
2005.00, 
2006.00, 
2007.00, 
2008.00, 
2009.00, 
2010.00, 
2011.00, 
2012.00, 
2013.00, 
2014.00, 
2015.00, 
2016.00, 
2017.00, 
2018.00, 
2019.00, 
2020.00, 
2021.00, 
2022.00, 
2023.00, 
2024.00, 
2025.00, 
2026.00, 
2027.00, 
2028.00, 
2029.00, 
2030.00, 
2031.00, 
2032.00, 
2033.00, 
2034.00, 
2035.00, 
2036.00, 
2037.00, 
2038.00, 
2039.00, 
2040.00, 
2041.00, 
2042.00, 
2043.00, 
2044.00, 
2045.00, 
2046.00, 
2047.00, 
2048.00, 
2049.00, 
2050.00, 
2051.00, 
2052.00, 
2053.00, 
2054.00, 
2055.00, 
2056.00, 
2057.00, 
2058.00, 
2059.00, 
2060.00, 
2061.00, 
2062.00, 
2063.00, 
2064.00, 
2065.00, 
2066.00, 
2067.00, 
2068.00, 
2069.00, 
2070.00, 
2071.00, 
2072.00, 
2073.00, 
2074.00, 
2075.00, 
2076.00, 
2077.00, 
2078.00, 
2079.00, 
2080.00, 
2081.00, 
2082.00, 
2083.00, 
2084.00, 
2085.00, 
2086.00, 
2087.00, 
2088.00, 
2089.00, 
2090.00, 
2091.00, 
2092.00, 
2093.00, 
2094.00, 
2095.00, 
2096.00, 
2097.00, 
2098.00, 
2099.00, 
2100.00, 
2101.00, 
2102.00, 
2103.00, 
2104.00, 
2105.00, 
2106.00, 
2107.00, 
2108.00, 
2109.00, 
2110.00, 
2111.00, 
2112.00, 
2113.00, 
2114.00, 
2115.00, 
2116.00, 
2117.00, 
2118.00, 
2119.00, 
2120.00, 
2121.00, 
2122.00, 
2123.00, 
2124.00, 
2125.00, 
2126.00, 
2127.00, 
2128.00, 
2129.00, 
2130.00, 
2131.00, 
2132.00, 
2133.00, 
2134.00, 
2135.00, 
2136.00, 
2137.00, 
2138.00, 
2139.00, 
2140.00, 
2141.00, 
2142.00, 
2143.00, 
2144.00, 
2145.00, 
2146.00, 
2147.00, 
2148.00, 
2149.00, 
2150.00, 
2151.00, 
2152.00, 
2153.00, 
2154.00, 
2155.00, 
2156.00, 
2157.00, 
2158.00, 
2159.00, 
2160.00, 
2161.00, 
2162.00, 
2163.00, 
2164.00, 
2165.00, 
2166.00, 
2167.00, 
2168.00, 
2169.00, 
2170.00, 
2171.00, 
2172.00, 
2173.00, 
2174.00, 
2175.00, 
2176.00, 
2177.00, 
2178.00, 
2179.00, 
2180.00, 
2181.00, 
2182.00, 
2183.00, 
2184.00, 
2185.00, 
2186.00, 
2187.00, 
2188.00, 
2189.00, 
2190.00, 
2191.00, 
2192.00, 
2193.00, 
2194.00, 
2195.00, 
2196.00, 
2197.00, 
2198.00, 
2199.00, 
2200.00, 
2201.00, 
2202.00, 
2203.00, 
2204.00, 
2205.00, 
2206.00, 
2207.00, 
2208.00, 
2209.00, 
2210.00, 
2211.00, 
2212.00, 
2213.00, 
2214.00, 
2215.00, 
2216.00, 
2217.00, 
2218.00, 
2219.00, 
2220.00, 
2221.00, 
2222.00, 
2223.00, 
2224.00, 
2225.00, 
2226.00, 
2227.00, 
2228.00, 
2229.00, 
2230.00, 
2231.00, 
2232.00, 
2233.00, 
2234.00, 
2235.00, 
2236.00, 
2237.00, 
2238.00, 
2239.00, 
2240.00, 
2241.00, 
2242.00, 
2243.00, 
2244.00, 
2245.00, 
2246.00, 
2247.00, 
2248.00, 
2249.00, 
2250.00, 
2251.00, 
2252.00, 
2253.00, 
2254.00, 
2255.00, 
2256.00, 
2257.00, 
2258.00, 
2259.00, 
2260.00, 
2261.00, 
2262.00, 
2263.00, 
2264.00, 
2265.00, 
2266.00, 
2267.00, 
2268.00, 
2269.00, 
2270.00, 
2271.00, 
2272.00, 
2273.00, 
2274.00, 
2275.00, 
2276.00, 
2277.00, 
2278.00, 
2279.00, 
2280.00, 
2281.00, 
2282.00, 
2283.00, 
2284.00, 
2285.00, 
2286.00, 
2287.00, 
2288.00, 
2289.00, 
2290.00, 
2291.00, 
2292.00, 
2293.00, 
2294.00, 
2295.00, 
2296.00, 
2297.00, 
2298.00, 
2299.00, 
2300.00, 
2301.00, 
2302.00, 
2303.00, 
2304.00, 
2305.00, 
2306.00, 
2307.00, 
2308.00, 
2309.00, 
2310.00, 
2311.00, 
2312.00, 
2313.00, 
2314.00, 
2315.00, 
2316.00, 
2317.00, 
2318.00, 
2319.00, 
2320.00, 
2321.00, 
2322.00, 
2323.00, 
2324.00, 
2325.00, 
2326.00, 
2327.00, 
2328.00, 
2329.00, 
2330.00, 
2331.00, 
2332.00, 
2333.00, 
2334.00, 
2335.00, 
2336.00, 
2337.00, 
2338.00, 
2339.00, 
2340.00, 
2341.00, 
2342.00, 
2343.00, 
2344.00, 
2345.00, 
2346.00, 
2347.00, 
2348.00, 
2349.00, 
2350.00, 
2351.00, 
2352.00, 
2353.00, 
2354.00, 
2355.00, 
2356.00, 
2357.00, 
2358.00, 
2359.00, 
2360.00, 
2361.00, 
2362.00, 
2363.00, 
2364.00, 
2365.00, 
2366.00, 
2367.00, 
2368.00, 
2369.00, 
2370.00, 
2371.00, 
2372.00, 
2373.00, 
2374.00, 
2375.00, 
2376.00, 
2377.00, 
2378.00, 
2379.00, 
2380.00, 
2381.00, 
2382.00, 
2383.00, 
2384.00, 
2385.00, 
2386.00, 
2387.00, 
2388.00, 
2389.00, 
2390.00, 
2391.00, 
2392.00, 
2393.00, 
2394.00, 
2395.00, 
2396.00, 
2397.00, 
2398.00, 
2399.00, 
2400.00, 
2401.00, 
2402.00, 
2403.00, 
2404.00, 
2405.00, 
2406.00, 
2407.00, 
2408.00, 
2409.00, 
2410.00, 
2411.00, 
2412.00, 
2413.00, 
2414.00, 
2415.00, 
2416.00, 
2417.00, 
2418.00, 
2419.00, 
2420.00, 
2421.00, 
2422.00, 
2423.00, 
2424.00, 
2425.00, 
2426.00, 
2427.00, 
2428.00, 
2429.00, 
2430.00, 
2431.00, 
2432.00, 
2433.00, 
2434.00, 
2435.00, 
2436.00, 
2437.00, 
2438.00, 
2439.00, 
2440.00, 
2441.00, 
2442.00, 
2443.00, 
2444.00, 
2445.00, 
2446.00, 
2447.00, 
2448.00, 
2449.00, 
2450.00, 
2451.00, 
2452.00, 
2453.00, 
2454.00, 
2455.00, 
2456.00, 
2457.00, 
2458.00, 
2459.00, 
2460.00, 
2461.00, 
2462.00, 
2463.00, 
2464.00, 
2465.00, 
2466.00, 
2467.00, 
2468.00, 
2469.00, 
2470.00, 
2471.00, 
2472.00, 
2473.00, 
2474.00, 
2475.00, 
2476.00, 
2477.00, 
2478.00, 
2479.00, 
2480.00, 
2481.00, 
2482.00, 
2483.00, 
2484.00, 
2485.00, 
2486.00, 
2487.00, 
2488.00, 
2489.00, 
2490.00, 
2491.00, 
2492.00, 
2493.00, 
2494.00, 
2495.00, 
2496.00, 
2497.00, 
2498.00, 
2499.00, 
2500.00, 
2501.00, 
2502.00, 
2503.00, 
2504.00, 
2505.00, 
2506.00, 
2507.00, 
2508.00, 
2509.00, 
2510.00, 
2511.00, 
2512.00, 
2513.00, 
2514.00, 
2515.00, 
2516.00, 
2517.00, 
2518.00, 
2519.00, 
2520.00, 
2521.00, 
2522.00, 
2523.00, 
2524.00, 
2525.00, 
2526.00, 
2527.00, 
2528.00, 
2529.00, 
2530.00, 
2531.00, 
2532.00, 
2533.00, 
2534.00, 
2535.00, 
2536.00, 
2537.00, 
2538.00, 
2539.00, 
2540.00, 
2541.00, 
2542.00, 
2543.00, 
2544.00, 
2545.00, 
2546.00, 
2547.00, 
2548.00, 
2549.00, 
2550.00, 
2551.00, 
2552.00, 
2553.00, 
2554.00, 
2555.00, 
2556.00, 
2557.00, 
2558.00, 
2559.00, 
2560.00, 
2561.00, 
2562.00, 
2563.00, 
2564.00, 
2565.00, 
2566.00, 
2567.00, 
2568.00, 
2569.00, 
2570.00, 
2571.00, 
2572.00, 
2573.00, 
2574.00, 
2575.00, 
2576.00, 
2577.00, 
2578.00, 
2579.00, 
2580.00, 
2581.00, 
2582.00, 
2583.00, 
2584.00, 
2585.00, 
2586.00, 
2587.00, 
2588.00, 
2589.00, 
2590.00, 
2591.00, 
2592.00, 
2593.00, 
2594.00, 
2595.00, 
2596.00, 
2597.00, 
2598.00, 
2599.00, 
2600.00, 
