"1cP2 - RawData"
"Wavelength nm.","T%"
200.00,0.000
201.00,0.003
202.00,0.005
203.00,0.001
204.00,-0.000
205.00,0.003
206.00,-0.000
207.00,-0.002
208.00,-0.000
209.00,0.001
210.00,-0.000
211.00,0.004
212.00,0.001
213.00,0.001
214.00,-0.001
215.00,0.001
216.00,0.004
217.00,0.001
218.00,-0.003
219.00,0.003
220.00,0.001
221.00,0.004
222.00,-0.001
223.00,0.003
224.00,-0.001
225.00,0.001
226.00,-0.001
227.00,-0.002
228.00,0.003
229.00,-0.000
230.00,0.000
231.00,0.000
232.00,0.002
233.00,0.001
234.00,0.003
235.00,0.002
236.00,0.002
237.00,-0.000
238.00,0.001
239.00,0.002
240.00,-0.002
241.00,0.001
242.00,0.000
243.00,0.001
244.00,0.001
245.00,0.001
246.00,-0.001
247.00,0.000
248.00,-0.000
249.00,0.001
250.00,0.002
251.00,-0.000
252.00,0.001
253.00,-0.001
254.00,0.000
255.00,-0.001
256.00,-0.001
257.00,0.001
258.00,0.000
259.00,0.001
260.00,0.001
261.00,0.001
262.00,0.001
263.00,0.000
264.00,-0.000
265.00,0.001
266.00,0.000
267.00,-0.001
268.00,-0.000
269.00,0.001
270.00,0.001
271.00,-0.000
272.00,-0.000
273.00,0.002
274.00,0.000
275.00,-0.000
276.00,-0.000
277.00,-0.003
278.00,0.000
279.00,0.001
280.00,0.001
281.00,-0.001
282.00,-0.000
283.00,-0.002
284.00,-0.001
285.00,0.001
286.00,0.000
287.00,-0.001
288.00,0.001
289.00,-0.002
290.00,-0.003
291.00,-0.001
292.00,0.000
293.00,0.001
294.00,0.001
295.00,-0.002
296.00,0.000
297.00,0.000
298.00,-0.001
299.00,0.001
300.00,0.001
301.00,0.002
302.00,0.002
303.00,0.001
304.00,0.000
305.00,0.002
306.00,0.004
307.00,0.005
308.00,0.008
309.00,0.017
310.00,0.027
311.00,0.040
312.00,0.065
313.00,0.097
314.00,0.142
315.00,0.211
316.00,0.305
317.00,0.430
318.00,0.590
319.00,0.800
320.00,1.076
321.00,1.385
322.00,1.759
323.00,2.231
324.00,2.762
325.00,3.346
326.00,3.985
327.00,4.724
328.00,5.562
329.00,6.409
330.00,7.360
331.00,8.333
332.00,9.414
333.00,10.538
334.00,11.588
335.00,12.763
336.00,13.937
337.00,15.171
338.00,16.357
339.00,17.463
340.00,18.703
341.00,19.886
342.00,20.952
343.00,22.091
344.00,23.066
345.00,24.204
346.00,25.165
347.00,26.012
348.00,26.953
349.00,27.790
350.00,28.633
351.00,29.373
352.00,29.989
353.00,30.704
354.00,31.372
355.00,32.026
356.00,32.529
357.00,33.101
358.00,33.607
359.00,34.187
360.00,34.635
361.00,34.992
362.00,35.422
363.00,35.818
364.00,36.004
365.00,36.291
366.00,36.528
367.00,36.763
368.00,36.926
369.00,37.140
370.00,37.419
371.00,37.373
372.00,37.356
373.00,37.413
374.00,37.546
375.00,37.579
376.00,37.432
377.00,37.343
378.00,37.246
379.00,37.073
380.00,37.142
381.00,37.180
382.00,37.177
383.00,37.380
384.00,37.520
385.00,37.669
386.00,37.761
387.00,38.001
388.00,38.274
389.00,38.307
390.00,38.450
391.00,38.569
392.00,38.641
393.00,38.753
394.00,38.821
395.00,39.005
396.00,38.984
397.00,39.042
398.00,39.140
399.00,39.142
400.00,39.213
401.00,39.224
402.00,39.261
403.00,39.224
404.00,39.200
405.00,39.227
406.00,39.226
407.00,39.177
408.00,39.180
409.00,39.081
410.00,39.014
411.00,39.001
412.00,38.881
413.00,38.979
414.00,38.883
415.00,38.893
416.00,38.909
417.00,38.867
418.00,38.908
419.00,39.015
420.00,39.138
421.00,39.025
422.00,39.123
423.00,39.123
424.00,39.141
425.00,39.108
426.00,39.168
427.00,39.217
428.00,39.084
429.00,39.174
430.00,39.182
431.00,39.292
432.00,39.238
433.00,39.332
434.00,39.355
435.00,39.368
436.00,39.434
437.00,39.480
438.00,39.495
439.00,39.486
440.00,39.569
441.00,39.625
442.00,39.661
443.00,39.714
444.00,39.784
445.00,39.855
446.00,39.952
447.00,40.135
448.00,40.046
449.00,40.102
450.00,40.187
451.00,40.228
452.00,40.253
453.00,40.399
454.00,40.424
455.00,40.508
456.00,40.608
457.00,40.677
458.00,40.736
459.00,40.822
460.00,40.948
461.00,41.027
462.00,41.125
463.00,41.175
464.00,41.273
465.00,41.347
466.00,41.463
467.00,41.562
468.00,41.524
469.00,41.602
470.00,41.590
471.00,41.635
472.00,41.738
473.00,41.765
474.00,41.828
475.00,41.856
476.00,41.904
477.00,41.926
478.00,42.008
479.00,42.182
480.00,42.270
481.00,42.345
482.00,42.435
483.00,42.522
484.00,42.587
485.00,42.710
486.00,42.815
487.00,42.945
488.00,42.969
489.00,43.056
490.00,43.245
491.00,43.219
492.00,43.541
493.00,43.595
494.00,43.472
495.00,43.564
496.00,43.632
497.00,43.643
498.00,43.817
499.00,43.938
500.00,44.040
501.00,44.058
502.00,44.083
503.00,44.163
504.00,44.142
505.00,44.279
506.00,44.347
507.00,44.334
508.00,44.412
509.00,44.612
510.00,44.695
511.00,44.651
512.00,44.846
513.00,44.956
514.00,44.958
515.00,45.161
516.00,45.152
517.00,45.148
518.00,45.288
519.00,45.317
520.00,45.269
521.00,45.333
522.00,45.429
523.00,45.370
524.00,45.411
525.00,45.589
526.00,45.606
527.00,45.673
528.00,45.686
529.00,45.851
530.00,45.985
531.00,46.069
532.00,46.067
533.00,46.153
534.00,46.190
535.00,46.250
536.00,46.345
537.00,46.355
538.00,46.325
539.00,46.301
540.00,46.409
541.00,46.410
542.00,46.514
543.00,46.578
544.00,46.589
545.00,46.659
546.00,46.623
547.00,46.764
548.00,46.846
549.00,46.842
550.00,46.909
551.00,47.011
552.00,47.051
553.00,47.021
554.00,47.141
555.00,47.111
556.00,47.145
557.00,47.220
558.00,47.199
559.00,47.329
560.00,47.337
561.00,47.399
562.00,47.448
563.00,47.444
564.00,47.483
565.00,47.459
566.00,47.476
567.00,47.438
568.00,47.401
569.00,47.579
570.00,47.527
571.00,47.554
572.00,47.581
573.00,47.500
574.00,47.563
575.00,47.564
576.00,47.537
577.00,47.598
578.00,47.699
579.00,47.734
580.00,47.717
581.00,47.922
582.00,47.939
583.00,47.878
584.00,48.028
585.00,48.076
586.00,48.079
587.00,48.151
588.00,48.075
589.00,48.008
590.00,48.156
591.00,48.112
592.00,48.118
593.00,48.139
594.00,48.187
595.00,48.265
596.00,48.318
597.00,48.365
598.00,48.393
599.00,48.413
600.00,48.464
601.00,48.359
602.00,48.325
603.00,48.373
604.00,48.389
605.00,48.449
606.00,48.410
607.00,48.445
608.00,48.660
609.00,48.681
610.00,48.491
611.00,48.488
612.00,48.474
613.00,48.560
614.00,48.607
615.00,48.625
616.00,48.792
617.00,48.706
618.00,48.566
619.00,48.667
620.00,48.646
621.00,48.714
622.00,48.766
623.00,48.704
624.00,48.767
625.00,48.830
626.00,48.763
627.00,48.781
628.00,48.800
629.00,48.849
630.00,48.615
631.00,48.844
632.00,48.921
633.00,48.975
634.00,49.033
635.00,49.058
636.00,49.003
637.00,49.019
638.00,48.993
639.00,49.074
640.00,49.097
641.00,49.022
642.00,49.103
643.00,49.103
644.00,49.026
645.00,49.025
646.00,49.306
647.00,49.224
648.00,49.212
649.00,49.202
650.00,49.161
651.00,49.376
652.00,49.365
653.00,49.258
654.00,49.310
655.00,49.388
656.00,49.649
657.00,49.402
658.00,49.420
659.00,49.487
660.00,49.425
661.00,49.452
662.00,49.426
663.00,49.507
664.00,49.710
665.00,49.856
666.00,49.519
667.00,49.618
668.00,49.559
669.00,49.753
670.00,50.054
671.00,49.765
672.00,49.823
673.00,49.844
674.00,49.876
675.00,49.888
676.00,49.998
677.00,50.042
678.00,49.685
679.00,49.950
680.00,49.944
681.00,50.162
682.00,50.041
683.00,49.777
684.00,49.958
685.00,50.107
686.00,50.023
687.00,50.014
688.00,50.007
689.00,49.932
690.00,50.201
691.00,50.389
692.00,50.017
693.00,50.022
694.00,50.134
695.00,50.260
696.00,50.292
697.00,50.057
698.00,50.127
699.00,50.396
700.00,50.206
701.00,50.223
702.00,50.232
703.00,50.386
704.00,50.366
705.00,50.247
706.00,50.396
707.00,49.997
708.00,50.223
709.00,50.753
710.00,50.343
711.00,50.142
712.00,50.274
713.00,50.356
714.00,50.389
715.00,50.403
716.00,50.223
717.00,50.365
718.00,50.422
719.00,50.314
720.00,50.313
721.00,55.090
722.00,55.016
723.00,54.999
724.00,54.943
725.00,54.878
726.00,54.871
727.00,54.817
728.00,54.806
729.00,54.759
730.00,54.724
731.00,54.685
732.00,54.613
733.00,54.627
734.00,54.566
735.00,54.597
736.00,54.585
737.00,54.486
738.00,54.498
739.00,54.457
740.00,54.414
741.00,54.372
742.00,54.364
743.00,54.313
744.00,54.272
745.00,54.290
746.00,54.234
747.00,54.185
748.00,54.092
749.00,54.105
750.00,53.986
751.00,54.001
752.00,53.906
753.00,53.898
754.00,53.804
755.00,53.815
756.00,53.799
757.00,53.792
758.00,53.835
759.00,53.650
760.00,53.679
761.00,53.610
762.00,53.607
763.00,53.614
764.00,53.470
765.00,53.574
766.00,53.466
767.00,53.481
768.00,53.448
769.00,53.439
770.00,53.381
771.00,53.319
772.00,53.342
773.00,53.250
774.00,53.288
775.00,53.354
776.00,53.174
777.00,53.214
778.00,53.102
779.00,53.210
780.00,53.075
781.00,53.054
782.00,53.075
783.00,52.977
784.00,53.000
785.00,52.840
786.00,52.964
787.00,52.867
788.00,52.901
789.00,52.883
790.00,52.679
791.00,52.820
792.00,52.729
793.00,52.731
794.00,52.648
795.00,52.606
796.00,52.555
797.00,52.475
798.00,52.499
799.00,52.406
800.00,52.446
801.00,52.379
802.00,52.389
803.00,52.315
804.00,52.299
805.00,52.324
806.00,52.264
807.00,52.234
808.00,52.240
809.00,52.077
810.00,52.093
811.00,52.092
812.00,52.047
813.00,52.001
814.00,51.999
815.00,51.891
816.00,51.921
817.00,51.941
818.00,51.868
819.00,51.802
820.00,51.764
821.00,51.753
822.00,51.746
823.00,51.727
824.00,51.741
825.00,51.660
826.00,51.641
827.00,51.634
828.00,51.560
829.00,51.692
830.00,51.585
831.00,53.881
832.00,53.877
833.00,53.797
834.00,53.792
835.00,53.723
836.00,53.780
837.00,53.694
838.00,53.709
839.00,53.701
840.00,53.613
841.00,53.598
842.00,53.591
843.00,53.588
844.00,53.406
845.00,53.485
846.00,53.457
847.00,53.432
848.00,53.421
849.00,53.342
850.00,53.334
851.00,53.235
852.00,53.230
853.00,53.166
854.00,53.140
855.00,53.085
856.00,53.060
857.00,53.041
858.00,53.033
859.00,53.017
860.00,52.979
861.00,53.003
862.00,52.897
863.00,52.877
864.00,52.859
865.00,52.844
866.00,52.835
867.00,52.801
868.00,52.797
869.00,52.750
870.00,52.770
871.00,52.735
872.00,52.738
873.00,52.712
874.00,52.725
875.00,52.667
876.00,52.683
877.00,52.651
878.00,52.677
879.00,52.599
880.00,52.602
881.00,52.571
882.00,52.595
883.00,52.529
884.00,52.489
885.00,52.454
886.00,52.433
887.00,52.427
888.00,52.394
889.00,52.347
890.00,52.382
891.00,52.355
892.00,52.292
893.00,52.291
894.00,52.308
895.00,52.148
896.00,52.186
897.00,52.186
898.00,52.153
899.00,52.123
900.00,52.102
901.00,52.116
902.00,52.107
903.00,52.077
904.00,52.038
905.00,52.026
906.00,52.039
907.00,51.998
908.00,51.951
909.00,51.943
910.00,51.896
911.00,51.911
912.00,51.888
913.00,51.832
914.00,51.833
915.00,51.786
916.00,51.773
917.00,51.737
918.00,51.744
919.00,51.685
920.00,51.653
921.00,51.680
922.00,51.617
923.00,51.595
924.00,51.588
925.00,51.587
926.00,51.549
927.00,51.554
928.00,51.514
929.00,51.524
930.00,51.465
931.00,51.443
932.00,51.394
933.00,51.422
934.00,51.267
935.00,51.364
936.00,51.329
937.00,51.296
938.00,51.285
939.00,51.266
940.00,51.218
941.00,51.251
942.00,51.222
943.00,51.215
944.00,51.159
945.00,51.167
946.00,51.156
947.00,51.119
948.00,51.089
949.00,51.078
950.00,51.063
951.00,51.030
952.00,51.007
953.00,50.959
954.00,50.959
955.00,50.885
956.00,50.903
957.00,50.858
958.00,50.873
959.00,50.822
960.00,50.815
961.00,50.789
962.00,50.784
963.00,50.733
964.00,50.718
965.00,50.734
966.00,50.704
967.00,50.709
968.00,50.672
969.00,50.697
970.00,50.679
971.00,50.686
972.00,50.622
973.00,50.688
974.00,50.714
975.00,50.678
976.00,50.685
977.00,50.662
978.00,50.723
979.00,50.674
980.00,50.691
981.00,50.736
982.00,50.655
983.00,50.661
984.00,50.639
985.00,50.655
986.00,50.622
987.00,50.643
988.00,50.597
989.00,50.601
990.00,50.579
991.00,50.550
992.00,50.577
993.00,50.529
994.00,50.519
995.00,50.510
996.00,50.502
997.00,50.499
998.00,50.477
999.00,50.485
1000.00,50.438
1001.00,50.433
1002.00,50.458
1003.00,50.435
1004.00,50.405
1005.00,50.365
1006.00,50.420
1007.00,50.365
1008.00,50.344
1009.00,50.326
1010.00,50.314
1011.00,50.306
1012.00,50.271
1013.00,50.268
1014.00,50.250
1015.00,50.271
1016.00,50.223
1017.00,50.230
1018.00,50.207
1019.00,50.180
1020.00,50.180
1021.00,50.127
1022.00,50.145
1023.00,50.101
1024.00,50.092
1025.00,50.087
1026.00,50.072
1027.00,50.054
1028.00,50.057
1029.00,50.040
1030.00,50.017
1031.00,50.019
1032.00,49.951
1033.00,49.986
1034.00,49.944
1035.00,49.906
1036.00,49.901
1037.00,49.871
1038.00,49.846
1039.00,49.827
1040.00,49.818
1041.00,49.778
1042.00,49.787
1043.00,49.773
1044.00,49.798
1045.00,49.782
1046.00,49.760
1047.00,49.802
1048.00,49.799
1049.00,49.801
1050.00,49.812
1051.00,49.832
1052.00,49.833
1053.00,49.838
1054.00,49.819
1055.00,49.855
1056.00,49.865
1057.00,49.853
1058.00,49.842
1059.00,49.850
1060.00,49.857
1061.00,49.843
1062.00,49.830
1063.00,49.853
1064.00,49.842
1065.00,49.818
1066.00,49.825
1067.00,49.828
1068.00,49.836
1069.00,49.796
1070.00,49.775
1071.00,49.736
1072.00,49.770
1073.00,49.746
1074.00,49.736
1075.00,49.718
1076.00,49.725
1077.00,49.714
1078.00,49.703
1079.00,49.701
1080.00,49.717
1081.00,49.686
1082.00,49.676
1083.00,49.678
1084.00,49.654
1085.00,49.664
1086.00,49.662
1087.00,49.650
1088.00,49.629
1089.00,49.625
1090.00,49.618
1091.00,49.631
1092.00,49.630
1093.00,49.601
1094.00,49.605
1095.00,49.565
1096.00,49.565
1097.00,49.568
1098.00,49.536
1099.00,49.543
1100.00,49.523
1101.00,49.505
1102.00,49.492
1103.00,49.506
1104.00,49.474
1105.00,49.478
1106.00,49.467
1107.00,49.470
1108.00,49.470
1109.00,49.468
1110.00,49.451
1111.00,49.463
1112.00,49.441
1113.00,49.440
1114.00,49.426
1115.00,49.426
1116.00,49.429
1117.00,49.403
1118.00,49.389
1119.00,49.379
1120.00,49.372
1121.00,49.386
1122.00,49.369
1123.00,49.358
1124.00,49.363
1125.00,49.364
1126.00,49.339
1127.00,49.349
1128.00,49.327
1129.00,49.314
1130.00,49.306
1131.00,49.300
1132.00,49.298
1133.00,49.305
1134.00,49.265
1135.00,49.261
1136.00,49.278
1137.00,49.271
1138.00,49.274
1139.00,49.301
1140.00,49.299
1141.00,49.284
1142.00,49.246
1143.00,49.265
1144.00,49.243
1145.00,49.227
1146.00,49.239
1147.00,49.227
1148.00,49.217
1149.00,49.247
1150.00,49.240
1151.00,49.236
1152.00,49.237
1153.00,49.226
1154.00,49.212
1155.00,49.241
1156.00,49.215
1157.00,49.227
1158.00,49.221
1159.00,49.226
1160.00,49.216
1161.00,49.209
1162.00,49.198
1163.00,49.208
1164.00,49.193
1165.00,49.212
1166.00,49.212
1167.00,49.199
1168.00,49.213
1169.00,49.212
1170.00,49.219
1171.00,49.193
1172.00,49.194
1173.00,49.199
1174.00,49.214
1175.00,49.191
1176.00,49.201
1177.00,49.191
1178.00,49.174
1179.00,49.205
1180.00,49.187
1181.00,49.203
1182.00,49.200
1183.00,49.199
1184.00,49.190
1185.00,49.198
1186.00,49.182
1187.00,49.187
1188.00,49.185
1189.00,49.172
1190.00,49.178
1191.00,49.175
1192.00,49.189
1193.00,49.193
1194.00,49.181
1195.00,49.169
1196.00,49.205
1197.00,49.195
1198.00,49.213
1199.00,49.196
1200.00,49.203
1201.00,49.224
1202.00,49.178
1203.00,49.179
1204.00,49.180
1205.00,49.202
1206.00,49.184
1207.00,49.203
1208.00,49.168
1209.00,49.186
1210.00,49.195
1211.00,49.164
1212.00,49.199
1213.00,49.160
1214.00,49.191
1215.00,49.185
1216.00,49.182
1217.00,49.181
1218.00,49.167
1219.00,49.184
1220.00,49.160
1221.00,49.192
1222.00,49.162
1223.00,49.210
1224.00,49.212
1225.00,49.199
1226.00,49.225
1227.00,49.206
1228.00,49.230
1229.00,49.223
1230.00,49.244
1231.00,49.242
1232.00,49.254
1233.00,49.243
1234.00,49.259
1235.00,49.261
1236.00,49.237
1237.00,49.251
1238.00,49.247
1239.00,49.249
1240.00,49.250
1241.00,49.268
1242.00,49.286
1243.00,49.294
1244.00,49.256
1245.00,49.320
1246.00,49.324
1247.00,49.285
1248.00,49.301
1249.00,49.324
1250.00,49.312
1251.00,49.307
1252.00,49.317
1253.00,49.301
1254.00,49.342
1255.00,49.310
1256.00,49.305
1257.00,49.289
1258.00,49.332
1259.00,49.346
1260.00,49.358
1261.00,49.353
1262.00,49.359
1263.00,49.355
1264.00,49.362
1265.00,49.364
1266.00,49.351
1267.00,49.369
1268.00,49.379
1269.00,49.373
1270.00,49.404
1271.00,49.406
1272.00,49.404
1273.00,49.434
1274.00,49.415
1275.00,49.446
1276.00,49.447
1277.00,49.432
1278.00,49.457
1279.00,49.465
1280.00,49.453
1281.00,49.471
1282.00,49.480
1283.00,49.476
1284.00,49.485
1285.00,49.482
1286.00,49.506
1287.00,49.498
1288.00,49.483
1289.00,49.497
1290.00,49.529
1291.00,49.515
1292.00,49.515
1293.00,49.501
1294.00,49.531
1295.00,49.532
1296.00,49.521
1297.00,49.548
1298.00,49.576
1299.00,49.553
1300.00,49.600
1301.00,49.576
1302.00,49.595
1303.00,49.613
1304.00,49.584
1305.00,49.622
1306.00,49.641
1307.00,49.627
1308.00,49.638
1309.00,49.650
1310.00,49.637
1311.00,49.627
1312.00,49.648
1313.00,49.643
1314.00,49.674
1315.00,49.682
1316.00,49.678
1317.00,49.718
1318.00,49.698
1319.00,49.711
1320.00,49.730
1321.00,49.872
1322.00,49.878
1323.00,49.863
1324.00,49.841
1325.00,49.845
1326.00,49.867
1327.00,49.855
1328.00,49.867
1329.00,49.858
1330.00,49.875
1331.00,49.859
1332.00,49.836
1333.00,49.875
1334.00,49.956
1335.00,49.896
1336.00,49.965
1337.00,49.992
1338.00,50.043
1339.00,50.074
1340.00,50.130
1341.00,50.210
1342.00,50.284
1343.00,50.316
1344.00,50.395
1345.00,50.450
1346.00,50.469
1347.00,50.499
1348.00,50.532
1349.00,50.545
1350.00,50.572
1351.00,50.563
1352.00,50.586
1353.00,50.609
1354.00,50.595
1355.00,50.578
1356.00,50.622
1357.00,50.604
1358.00,50.641
1359.00,50.626
1360.00,50.705
1361.00,50.725
1362.00,50.639
1363.00,50.691
1364.00,50.718
1365.00,50.677
1366.00,50.727
1367.00,50.658
1368.00,50.582
1369.00,50.661
1370.00,50.671
1371.00,50.616
1372.00,50.647
1373.00,50.654
1374.00,50.672
1375.00,50.647
1376.00,50.634
1377.00,50.638
1378.00,50.720
1379.00,50.681
1380.00,50.682
1381.00,50.728
1382.00,50.624
1383.00,50.676
1384.00,50.596
1385.00,50.599
1386.00,50.681
1387.00,50.624
1388.00,50.613
1389.00,50.636
1390.00,50.613
1391.00,50.665
1392.00,50.601
1393.00,50.669
1394.00,50.648
1395.00,50.641
1396.00,50.597
1397.00,50.662
1398.00,50.669
1399.00,50.612
1400.00,50.602
1401.00,50.618
1402.00,50.695
1403.00,50.664
1404.00,50.656
1405.00,50.691
1406.00,50.698
1407.00,50.717
1408.00,50.778
1409.00,50.897
1410.00,50.747
1411.00,50.715
1412.00,50.774
1413.00,50.723
1414.00,50.705
1415.00,50.760
1416.00,50.794
1417.00,50.800
1418.00,50.770
1419.00,50.783
1420.00,50.779
1421.00,50.840
1422.00,50.848
1423.00,50.874
1424.00,50.900
1425.00,50.919
1426.00,50.913
1427.00,50.936
1428.00,50.931
1429.00,50.965
1430.00,50.973
1431.00,50.995
1432.00,51.005
1433.00,51.015
1434.00,51.013
1435.00,51.078
1436.00,51.081
1437.00,51.077
1438.00,51.102
1439.00,51.126
1440.00,51.152
1441.00,51.151
1442.00,51.140
1443.00,51.201
1444.00,51.241
1445.00,51.197
1446.00,51.229
1447.00,51.273
1448.00,51.309
1449.00,51.326
1450.00,51.317
1451.00,51.335
1452.00,51.369
1453.00,51.351
1454.00,51.384
1455.00,51.399
1456.00,51.413
1457.00,51.425
1458.00,51.459
1459.00,51.447
1460.00,51.502
1461.00,51.474
1462.00,51.515
1463.00,51.537
1464.00,51.548
1465.00,51.573
1466.00,51.578
1467.00,51.580
1468.00,51.660
1469.00,51.602
1470.00,51.631
1471.00,51.672
1472.00,51.663
1473.00,51.694
1474.00,51.733
1475.00,51.748
1476.00,51.781
1477.00,51.755
1478.00,51.784
1479.00,51.803
1480.00,51.803
1481.00,51.808
1482.00,51.853
1483.00,51.831
1484.00,51.861
1485.00,51.881
1486.00,51.869
1487.00,51.917
1488.00,51.930
1489.00,51.919
1490.00,51.946
1491.00,51.955
1492.00,51.986
1493.00,51.968
1494.00,51.987
1495.00,51.996
1496.00,52.030
1497.00,51.984
1498.00,52.029
1499.00,52.054
1500.00,52.057
1501.00, 
1502.00, 
1503.00, 
1504.00, 
1505.00, 
1506.00, 
1507.00, 
1508.00, 
1509.00, 
1510.00, 
1511.00, 
1512.00, 
1513.00, 
1514.00, 
1515.00, 
1516.00, 
1517.00, 
1518.00, 
1519.00, 
1520.00, 
1521.00, 
1522.00, 
1523.00, 
1524.00, 
1525.00, 
1526.00, 
1527.00, 
1528.00, 
1529.00, 
1530.00, 
1531.00, 
1532.00, 
1533.00, 
1534.00, 
1535.00, 
1536.00, 
1537.00, 
1538.00, 
1539.00, 
1540.00, 
1541.00, 
1542.00, 
1543.00, 
1544.00, 
1545.00, 
1546.00, 
1547.00, 
1548.00, 
1549.00, 
1550.00, 
1551.00, 
1552.00, 
1553.00, 
1554.00, 
1555.00, 
1556.00, 
1557.00, 
1558.00, 
1559.00, 
1560.00, 
1561.00, 
1562.00, 
1563.00, 
1564.00, 
1565.00, 
1566.00, 
1567.00, 
1568.00, 
1569.00, 
1570.00, 
1571.00, 
1572.00, 
1573.00, 
1574.00, 
1575.00, 
1576.00, 
1577.00, 
1578.00, 
1579.00, 
1580.00, 
1581.00, 
1582.00, 
1583.00, 
1584.00, 
1585.00, 
1586.00, 
1587.00, 
1588.00, 
1589.00, 
1590.00, 
1591.00, 
1592.00, 
1593.00, 
1594.00, 
1595.00, 
1596.00, 
1597.00, 
1598.00, 
1599.00, 
1600.00, 
1601.00, 
1602.00, 
1603.00, 
1604.00, 
1605.00, 
1606.00, 
1607.00, 
1608.00, 
1609.00, 
1610.00, 
1611.00, 
1612.00, 
1613.00, 
1614.00, 
1615.00, 
1616.00, 
1617.00, 
1618.00, 
1619.00, 
1620.00, 
1621.00, 
1622.00, 
1623.00, 
1624.00, 
1625.00, 
1626.00, 
1627.00, 
1628.00, 
1629.00, 
1630.00, 
1631.00, 
1632.00, 
1633.00, 
1634.00, 
1635.00, 
1636.00, 
1637.00, 
1638.00, 
1639.00, 
1640.00, 
1641.00, 
1642.00, 
1643.00, 
1644.00, 
1645.00, 
1646.00, 
1647.00, 
1648.00, 
1649.00, 
1650.00, 
1651.00, 
1652.00, 
1653.00, 
1654.00, 
1655.00, 
1656.00, 
1657.00, 
1658.00, 
1659.00, 
1660.00, 
1661.00, 
1662.00, 
1663.00, 
1664.00, 
1665.00, 
1666.00, 
1667.00, 
1668.00, 
1669.00, 
1670.00, 
1671.00, 
1672.00, 
1673.00, 
1674.00, 
1675.00, 
1676.00, 
1677.00, 
1678.00, 
1679.00, 
1680.00, 
1681.00, 
1682.00, 
1683.00, 
1684.00, 
1685.00, 
1686.00, 
1687.00, 
1688.00, 
1689.00, 
1690.00, 
1691.00, 
1692.00, 
1693.00, 
1694.00, 
1695.00, 
1696.00, 
1697.00, 
1698.00, 
1699.00, 
1700.00, 
1701.00, 
1702.00, 
1703.00, 
1704.00, 
1705.00, 
1706.00, 
1707.00, 
1708.00, 
1709.00, 
1710.00, 
1711.00, 
1712.00, 
1713.00, 
1714.00, 
1715.00, 
1716.00, 
1717.00, 
1718.00, 
1719.00, 
1720.00, 
1721.00, 
1722.00, 
1723.00, 
1724.00, 
1725.00, 
1726.00, 
1727.00, 
1728.00, 
1729.00, 
1730.00, 
1731.00, 
1732.00, 
1733.00, 
1734.00, 
1735.00, 
1736.00, 
1737.00, 
1738.00, 
1739.00, 
1740.00, 
1741.00, 
1742.00, 
1743.00, 
1744.00, 
1745.00, 
1746.00, 
1747.00, 
1748.00, 
1749.00, 
1750.00, 
1751.00, 
1752.00, 
1753.00, 
1754.00, 
1755.00, 
1756.00, 
1757.00, 
1758.00, 
1759.00, 
1760.00, 
1761.00, 
1762.00, 
1763.00, 
1764.00, 
1765.00, 
1766.00, 
1767.00, 
1768.00, 
1769.00, 
1770.00, 
1771.00, 
1772.00, 
1773.00, 
1774.00, 
1775.00, 
1776.00, 
1777.00, 
1778.00, 
1779.00, 
1780.00, 
1781.00, 
1782.00, 
1783.00, 
1784.00, 
1785.00, 
1786.00, 
1787.00, 
1788.00, 
1789.00, 
1790.00, 
1791.00, 
1792.00, 
1793.00, 
1794.00, 
1795.00, 
1796.00, 
1797.00, 
1798.00, 
1799.00, 
1800.00, 
1801.00, 
1802.00, 
1803.00, 
1804.00, 
1805.00, 
1806.00, 
1807.00, 
1808.00, 
1809.00, 
1810.00, 
1811.00, 
1812.00, 
1813.00, 
1814.00, 
1815.00, 
1816.00, 
1817.00, 
1818.00, 
1819.00, 
1820.00, 
1821.00, 
1822.00, 
1823.00, 
1824.00, 
1825.00, 
1826.00, 
1827.00, 
1828.00, 
1829.00, 
1830.00, 
1831.00, 
1832.00, 
1833.00, 
1834.00, 
1835.00, 
1836.00, 
1837.00, 
1838.00, 
1839.00, 
1840.00, 
1841.00, 
1842.00, 
1843.00, 
1844.00, 
1845.00, 
1846.00, 
1847.00, 
1848.00, 
1849.00, 
1850.00, 
1851.00, 
1852.00, 
1853.00, 
1854.00, 
1855.00, 
1856.00, 
1857.00, 
1858.00, 
1859.00, 
1860.00, 
1861.00, 
1862.00, 
1863.00, 
1864.00, 
1865.00, 
1866.00, 
1867.00, 
1868.00, 
1869.00, 
1870.00, 
1871.00, 
1872.00, 
1873.00, 
1874.00, 
1875.00, 
1876.00, 
1877.00, 
1878.00, 
1879.00, 
1880.00, 
1881.00, 
1882.00, 
1883.00, 
1884.00, 
1885.00, 
1886.00, 
1887.00, 
1888.00, 
1889.00, 
1890.00, 
1891.00, 
1892.00, 
1893.00, 
1894.00, 
1895.00, 
1896.00, 
1897.00, 
1898.00, 
1899.00, 
1900.00, 
1901.00, 
1902.00, 
1903.00, 
1904.00, 
1905.00, 
1906.00, 
1907.00, 
1908.00, 
1909.00, 
1910.00, 
1911.00, 
1912.00, 
1913.00, 
1914.00, 
1915.00, 
1916.00, 
1917.00, 
1918.00, 
1919.00, 
1920.00, 
1921.00, 
1922.00, 
1923.00, 
1924.00, 
1925.00, 
1926.00, 
1927.00, 
1928.00, 
1929.00, 
1930.00, 
1931.00, 
1932.00, 
1933.00, 
1934.00, 
1935.00, 
1936.00, 
1937.00, 
1938.00, 
1939.00, 
1940.00, 
1941.00, 
1942.00, 
1943.00, 
1944.00, 
1945.00, 
1946.00, 
1947.00, 
1948.00, 
1949.00, 
1950.00, 
1951.00, 
1952.00, 
1953.00, 
1954.00, 
1955.00, 
1956.00, 
1957.00, 
1958.00, 
1959.00, 
1960.00, 
1961.00, 
1962.00, 
1963.00, 
1964.00, 
1965.00, 
1966.00, 
1967.00, 
1968.00, 
1969.00, 
1970.00, 
1971.00, 
1972.00, 
1973.00, 
1974.00, 
1975.00, 
1976.00, 
1977.00, 
1978.00, 
1979.00, 
1980.00, 
1981.00, 
1982.00, 
1983.00, 
1984.00, 
1985.00, 
1986.00, 
1987.00, 
1988.00, 
1989.00, 
1990.00, 
1991.00, 
1992.00, 
1993.00, 
1994.00, 
1995.00, 
1996.00, 
1997.00, 
1998.00, 
1999.00, 
2000.00, 
2001.00, 
2002.00, 
2003.00, 
2004.00, 
2005.00, 
2006.00, 
2007.00, 
2008.00, 
2009.00, 
2010.00, 
2011.00, 
2012.00, 
2013.00, 
2014.00, 
2015.00, 
2016.00, 
2017.00, 
2018.00, 
2019.00, 
2020.00, 
2021.00, 
2022.00, 
2023.00, 
2024.00, 
2025.00, 
2026.00, 
2027.00, 
2028.00, 
2029.00, 
2030.00, 
2031.00, 
2032.00, 
2033.00, 
2034.00, 
2035.00, 
2036.00, 
2037.00, 
2038.00, 
2039.00, 
2040.00, 
2041.00, 
2042.00, 
2043.00, 
2044.00, 
2045.00, 
2046.00, 
2047.00, 
2048.00, 
2049.00, 
2050.00, 
2051.00, 
2052.00, 
2053.00, 
2054.00, 
2055.00, 
2056.00, 
2057.00, 
2058.00, 
2059.00, 
2060.00, 
2061.00, 
2062.00, 
2063.00, 
2064.00, 
2065.00, 
2066.00, 
2067.00, 
2068.00, 
2069.00, 
2070.00, 
2071.00, 
2072.00, 
2073.00, 
2074.00, 
2075.00, 
2076.00, 
2077.00, 
2078.00, 
2079.00, 
2080.00, 
2081.00, 
2082.00, 
2083.00, 
2084.00, 
2085.00, 
2086.00, 
2087.00, 
2088.00, 
2089.00, 
2090.00, 
2091.00, 
2092.00, 
2093.00, 
2094.00, 
2095.00, 
2096.00, 
2097.00, 
2098.00, 
2099.00, 
2100.00, 
2101.00, 
2102.00, 
2103.00, 
2104.00, 
2105.00, 
2106.00, 
2107.00, 
2108.00, 
2109.00, 
2110.00, 
2111.00, 
2112.00, 
2113.00, 
2114.00, 
2115.00, 
2116.00, 
2117.00, 
2118.00, 
2119.00, 
2120.00, 
2121.00, 
2122.00, 
2123.00, 
2124.00, 
2125.00, 
2126.00, 
2127.00, 
2128.00, 
2129.00, 
2130.00, 
2131.00, 
2132.00, 
2133.00, 
2134.00, 
2135.00, 
2136.00, 
2137.00, 
2138.00, 
2139.00, 
2140.00, 
2141.00, 
2142.00, 
2143.00, 
2144.00, 
2145.00, 
2146.00, 
2147.00, 
2148.00, 
2149.00, 
2150.00, 
2151.00, 
2152.00, 
2153.00, 
2154.00, 
2155.00, 
2156.00, 
2157.00, 
2158.00, 
2159.00, 
2160.00, 
2161.00, 
2162.00, 
2163.00, 
2164.00, 
2165.00, 
2166.00, 
2167.00, 
2168.00, 
2169.00, 
2170.00, 
2171.00, 
2172.00, 
2173.00, 
2174.00, 
2175.00, 
2176.00, 
2177.00, 
2178.00, 
2179.00, 
2180.00, 
2181.00, 
2182.00, 
2183.00, 
2184.00, 
2185.00, 
2186.00, 
2187.00, 
2188.00, 
2189.00, 
2190.00, 
2191.00, 
2192.00, 
2193.00, 
2194.00, 
2195.00, 
2196.00, 
2197.00, 
2198.00, 
2199.00, 
2200.00, 
2201.00, 
2202.00, 
2203.00, 
2204.00, 
2205.00, 
2206.00, 
2207.00, 
2208.00, 
2209.00, 
2210.00, 
2211.00, 
2212.00, 
2213.00, 
2214.00, 
2215.00, 
2216.00, 
2217.00, 
2218.00, 
2219.00, 
2220.00, 
2221.00, 
2222.00, 
2223.00, 
2224.00, 
2225.00, 
2226.00, 
2227.00, 
2228.00, 
2229.00, 
2230.00, 
2231.00, 
2232.00, 
2233.00, 
2234.00, 
2235.00, 
2236.00, 
2237.00, 
2238.00, 
2239.00, 
2240.00, 
2241.00, 
2242.00, 
2243.00, 
2244.00, 
2245.00, 
2246.00, 
2247.00, 
2248.00, 
2249.00, 
2250.00, 
2251.00, 
2252.00, 
2253.00, 
2254.00, 
2255.00, 
2256.00, 
2257.00, 
2258.00, 
2259.00, 
2260.00, 
2261.00, 
2262.00, 
2263.00, 
2264.00, 
2265.00, 
2266.00, 
2267.00, 
2268.00, 
2269.00, 
2270.00, 
2271.00, 
2272.00, 
2273.00, 
2274.00, 
2275.00, 
2276.00, 
2277.00, 
2278.00, 
2279.00, 
2280.00, 
2281.00, 
2282.00, 
2283.00, 
2284.00, 
2285.00, 
2286.00, 
2287.00, 
2288.00, 
2289.00, 
2290.00, 
2291.00, 
2292.00, 
2293.00, 
2294.00, 
2295.00, 
2296.00, 
2297.00, 
2298.00, 
2299.00, 
2300.00, 
2301.00, 
2302.00, 
2303.00, 
2304.00, 
2305.00, 
2306.00, 
2307.00, 
2308.00, 
2309.00, 
2310.00, 
2311.00, 
2312.00, 
2313.00, 
2314.00, 
2315.00, 
2316.00, 
2317.00, 
2318.00, 
2319.00, 
2320.00, 
2321.00, 
2322.00, 
2323.00, 
2324.00, 
2325.00, 
2326.00, 
2327.00, 
2328.00, 
2329.00, 
2330.00, 
2331.00, 
2332.00, 
2333.00, 
2334.00, 
2335.00, 
2336.00, 
2337.00, 
2338.00, 
2339.00, 
2340.00, 
2341.00, 
2342.00, 
2343.00, 
2344.00, 
2345.00, 
2346.00, 
2347.00, 
2348.00, 
2349.00, 
2350.00, 
2351.00, 
2352.00, 
2353.00, 
2354.00, 
2355.00, 
2356.00, 
2357.00, 
2358.00, 
2359.00, 
2360.00, 
2361.00, 
2362.00, 
2363.00, 
2364.00, 
2365.00, 
2366.00, 
2367.00, 
2368.00, 
2369.00, 
2370.00, 
2371.00, 
2372.00, 
2373.00, 
2374.00, 
2375.00, 
2376.00, 
2377.00, 
2378.00, 
2379.00, 
2380.00, 
2381.00, 
2382.00, 
2383.00, 
2384.00, 
2385.00, 
2386.00, 
2387.00, 
2388.00, 
2389.00, 
2390.00, 
2391.00, 
2392.00, 
2393.00, 
2394.00, 
2395.00, 
2396.00, 
2397.00, 
2398.00, 
2399.00, 
2400.00, 
2401.00, 
2402.00, 
2403.00, 
2404.00, 
2405.00, 
2406.00, 
2407.00, 
2408.00, 
2409.00, 
2410.00, 
2411.00, 
2412.00, 
2413.00, 
2414.00, 
2415.00, 
2416.00, 
2417.00, 
2418.00, 
2419.00, 
2420.00, 
2421.00, 
2422.00, 
2423.00, 
2424.00, 
2425.00, 
2426.00, 
2427.00, 
2428.00, 
2429.00, 
2430.00, 
2431.00, 
2432.00, 
2433.00, 
2434.00, 
2435.00, 
2436.00, 
2437.00, 
2438.00, 
2439.00, 
2440.00, 
2441.00, 
2442.00, 
2443.00, 
2444.00, 
2445.00, 
2446.00, 
2447.00, 
2448.00, 
2449.00, 
2450.00, 
2451.00, 
2452.00, 
2453.00, 
2454.00, 
2455.00, 
2456.00, 
2457.00, 
2458.00, 
2459.00, 
2460.00, 
2461.00, 
2462.00, 
2463.00, 
2464.00, 
2465.00, 
2466.00, 
2467.00, 
2468.00, 
2469.00, 
2470.00, 
2471.00, 
2472.00, 
2473.00, 
2474.00, 
2475.00, 
2476.00, 
2477.00, 
2478.00, 
2479.00, 
2480.00, 
2481.00, 
2482.00, 
2483.00, 
2484.00, 
2485.00, 
2486.00, 
2487.00, 
2488.00, 
2489.00, 
2490.00, 
2491.00, 
2492.00, 
2493.00, 
2494.00, 
2495.00, 
2496.00, 
2497.00, 
2498.00, 
2499.00, 
2500.00, 
2501.00, 
2502.00, 
2503.00, 
2504.00, 
2505.00, 
2506.00, 
2507.00, 
2508.00, 
2509.00, 
2510.00, 
2511.00, 
2512.00, 
2513.00, 
2514.00, 
2515.00, 
2516.00, 
2517.00, 
2518.00, 
2519.00, 
2520.00, 
2521.00, 
2522.00, 
2523.00, 
2524.00, 
2525.00, 
2526.00, 
2527.00, 
2528.00, 
2529.00, 
2530.00, 
2531.00, 
2532.00, 
2533.00, 
2534.00, 
2535.00, 
2536.00, 
2537.00, 
2538.00, 
2539.00, 
2540.00, 
2541.00, 
2542.00, 
2543.00, 
2544.00, 
2545.00, 
2546.00, 
2547.00, 
2548.00, 
2549.00, 
2550.00, 
2551.00, 
2552.00, 
2553.00, 
2554.00, 
2555.00, 
2556.00, 
2557.00, 
2558.00, 
2559.00, 
2560.00, 
2561.00, 
2562.00, 
2563.00, 
2564.00, 
2565.00, 
2566.00, 
2567.00, 
2568.00, 
2569.00, 
2570.00, 
2571.00, 
2572.00, 
2573.00, 
2574.00, 
2575.00, 
2576.00, 
2577.00, 
2578.00, 
2579.00, 
2580.00, 
2581.00, 
2582.00, 
2583.00, 
2584.00, 
2585.00, 
2586.00, 
2587.00, 
2588.00, 
2589.00, 
2590.00, 
2591.00, 
2592.00, 
2593.00, 
2594.00, 
2595.00, 
2596.00, 
2597.00, 
2598.00, 
2599.00, 
2600.00, 
