"1cP5 - RawData"
"Wavelength nm.","T%"
200.00,-0.000
201.00,0.001
202.00,0.003
203.00,0.002
204.00,-0.001
205.00,0.001
206.00,0.002
207.00,0.003
208.00,0.001
209.00,-0.001
210.00,-0.001
211.00,0.001
212.00,0.002
213.00,-0.001
214.00,0.002
215.00,0.000
216.00,0.001
217.00,-0.001
218.00,0.003
219.00,0.001
220.00,-0.000
221.00,0.001
222.00,0.001
223.00,0.002
224.00,0.003
225.00,0.001
226.00,-0.001
227.00,-0.001
228.00,-0.001
229.00,0.000
230.00,0.001
231.00,-0.000
232.00,0.002
233.00,-0.000
234.00,0.000
235.00,-0.000
236.00,0.000
237.00,0.000
238.00,-0.000
239.00,0.001
240.00,-0.001
241.00,-0.001
242.00,0.001
243.00,-0.000
244.00,0.000
245.00,0.000
246.00,-0.001
247.00,-0.000
248.00,0.001
249.00,0.002
250.00,-0.001
251.00,0.001
252.00,0.001
253.00,-0.001
254.00,-0.000
255.00,-0.000
256.00,0.001
257.00,0.000
258.00,0.001
259.00,-0.000
260.00,-0.001
261.00,-0.000
262.00,0.002
263.00,0.000
264.00,0.001
265.00,0.001
266.00,-0.001
267.00,-0.001
268.00,-0.001
269.00,0.000
270.00,-0.001
271.00,-0.000
272.00,0.000
273.00,0.001
274.00,0.000
275.00,-0.001
276.00,-0.001
277.00,0.000
278.00,0.001
279.00,0.002
280.00,-0.003
281.00,-0.001
282.00,-0.000
283.00,-0.002
284.00,-0.001
285.00,0.000
286.00,0.001
287.00,0.001
288.00,-0.001
289.00,0.001
290.00,0.003
291.00,0.000
292.00,0.000
293.00,-0.001
294.00,0.000
295.00,0.000
296.00,0.000
297.00,-0.001
298.00,0.001
299.00,0.001
300.00,0.001
301.00,0.001
302.00,-0.002
303.00,0.001
304.00,0.001
305.00,0.003
306.00,0.003
307.00,0.002
308.00,0.005
309.00,0.008
310.00,0.017
311.00,0.024
312.00,0.039
313.00,0.055
314.00,0.086
315.00,0.124
316.00,0.187
317.00,0.263
318.00,0.351
319.00,0.477
320.00,0.628
321.00,0.813
322.00,1.033
323.00,1.322
324.00,1.609
325.00,1.940
326.00,2.319
327.00,2.751
328.00,3.213
329.00,3.699
330.00,4.247
331.00,4.778
332.00,5.392
333.00,5.990
334.00,6.601
335.00,7.225
336.00,7.940
337.00,8.614
338.00,9.264
339.00,9.877
340.00,10.525
341.00,11.138
342.00,11.749
343.00,12.342
344.00,12.881
345.00,13.519
346.00,13.999
347.00,14.484
348.00,14.928
349.00,15.396
350.00,15.804
351.00,16.180
352.00,16.520
353.00,16.823
354.00,17.156
355.00,17.476
356.00,17.741
357.00,17.983
358.00,18.250
359.00,18.517
360.00,18.727
361.00,18.858
362.00,19.047
363.00,19.224
364.00,19.286
365.00,19.403
366.00,19.512
367.00,19.566
368.00,19.583
369.00,19.676
370.00,19.757
371.00,19.722
372.00,19.631
373.00,19.641
374.00,19.685
375.00,19.645
376.00,19.565
377.00,19.468
378.00,19.373
379.00,19.275
380.00,19.236
381.00,19.233
382.00,19.186
383.00,19.251
384.00,19.266
385.00,19.296
386.00,19.316
387.00,19.400
388.00,19.493
389.00,19.487
390.00,19.513
391.00,19.550
392.00,19.581
393.00,19.585
394.00,19.605
395.00,19.635
396.00,19.595
397.00,19.634
398.00,19.643
399.00,19.631
400.00,19.599
401.00,19.622
402.00,19.584
403.00,19.585
404.00,19.563
405.00,19.547
406.00,19.554
407.00,19.530
408.00,19.504
409.00,19.461
410.00,19.389
411.00,19.407
412.00,19.363
413.00,19.396
414.00,19.338
415.00,19.369
416.00,19.396
417.00,19.357
418.00,19.399
419.00,19.487
420.00,19.535
421.00,19.502
422.00,19.513
423.00,19.562
424.00,19.634
425.00,19.643
426.00,19.682
427.00,19.706
428.00,19.702
429.00,19.796
430.00,19.804
431.00,19.896
432.00,19.927
433.00,20.006
434.00,20.053
435.00,20.093
436.00,20.153
437.00,20.206
438.00,20.270
439.00,20.350
440.00,20.440
441.00,20.520
442.00,20.585
443.00,20.620
444.00,20.752
445.00,20.790
446.00,20.972
447.00,21.092
448.00,21.117
449.00,21.247
450.00,21.342
451.00,21.421
452.00,21.553
453.00,21.679
454.00,21.743
455.00,21.855
456.00,22.012
457.00,22.112
458.00,22.207
459.00,22.348
460.00,22.458
461.00,22.610
462.00,22.746
463.00,22.865
464.00,23.008
465.00,23.117
466.00,23.257
467.00,23.389
468.00,23.494
469.00,23.615
470.00,23.700
471.00,23.794
472.00,23.974
473.00,24.068
474.00,24.180
475.00,24.313
476.00,24.427
477.00,24.532
478.00,24.684
479.00,24.862
480.00,24.989
481.00,25.125
482.00,25.295
483.00,25.437
484.00,25.609
485.00,25.755
486.00,25.889
487.00,26.070
488.00,26.176
489.00,26.382
490.00,26.546
491.00,26.656
492.00,26.913
493.00,27.035
494.00,27.017
495.00,27.187
496.00,27.364
497.00,27.466
498.00,27.604
499.00,27.792
500.00,27.913
501.00,28.036
502.00,28.145
503.00,28.312
504.00,28.350
505.00,28.509
506.00,28.623
507.00,28.752
508.00,28.851
509.00,29.027
510.00,29.128
511.00,29.207
512.00,29.446
513.00,29.585
514.00,29.613
515.00,29.746
516.00,29.875
517.00,29.929
518.00,30.198
519.00,30.242
520.00,30.329
521.00,30.447
522.00,30.532
523.00,30.541
524.00,30.738
525.00,30.835
526.00,30.914
527.00,31.008
528.00,31.068
529.00,31.301
530.00,31.410
531.00,31.472
532.00,31.579
533.00,31.701
534.00,31.776
535.00,31.927
536.00,31.955
537.00,31.999
538.00,32.111
539.00,32.142
540.00,32.229
541.00,32.318
542.00,32.385
543.00,32.464
544.00,32.462
545.00,32.593
546.00,32.590
547.00,32.780
548.00,32.860
549.00,32.900
550.00,33.018
551.00,33.100
552.00,33.176
553.00,33.190
554.00,33.329
555.00,33.316
556.00,33.397
557.00,33.477
558.00,33.452
559.00,33.523
560.00,33.666
561.00,33.716
562.00,33.809
563.00,33.800
564.00,33.901
565.00,33.933
566.00,33.930
567.00,34.000
568.00,34.042
569.00,34.098
570.00,34.168
571.00,34.200
572.00,34.238
573.00,34.188
574.00,34.279
575.00,34.279
576.00,34.288
577.00,34.355
578.00,34.434
579.00,34.482
580.00,34.483
581.00,34.681
582.00,34.734
583.00,34.730
584.00,34.802
585.00,34.876
586.00,34.959
587.00,35.003
588.00,35.011
589.00,34.948
590.00,35.056
591.00,35.119
592.00,35.105
593.00,35.142
594.00,35.240
595.00,35.337
596.00,35.422
597.00,35.482
598.00,35.548
599.00,35.494
600.00,35.523
601.00,35.594
602.00,35.598
603.00,35.638
604.00,35.680
605.00,35.771
606.00,35.749
607.00,35.792
608.00,36.007
609.00,36.048
610.00,35.958
611.00,36.029
612.00,36.055
613.00,36.110
614.00,36.160
615.00,36.205
616.00,36.352
617.00,36.352
618.00,36.329
619.00,36.451
620.00,36.462
621.00,36.534
622.00,36.598
623.00,36.644
624.00,36.741
625.00,36.841
626.00,36.848
627.00,36.935
628.00,36.966
629.00,36.994
630.00,37.033
631.00,37.111
632.00,37.225
633.00,37.301
634.00,37.424
635.00,37.517
636.00,37.516
637.00,37.577
638.00,37.673
639.00,37.803
640.00,37.841
641.00,37.875
642.00,37.973
643.00,38.036
644.00,38.141
645.00,38.174
646.00,38.336
647.00,38.376
648.00,38.418
649.00,38.531
650.00,38.564
651.00,38.750
652.00,38.803
653.00,38.809
654.00,38.902
655.00,39.053
656.00,39.310
657.00,39.134
658.00,39.267
659.00,39.467
660.00,39.498
661.00,39.521
662.00,39.558
663.00,39.755
664.00,40.008
665.00,40.216
666.00,40.328
667.00,40.234
668.00,40.329
669.00,40.554
670.00,40.813
671.00,40.727
672.00,40.750
673.00,40.778
674.00,40.935
675.00,41.077
676.00,41.270
677.00,41.401
678.00,41.257
679.00,41.480
680.00,41.597
681.00,41.751
682.00,41.794
683.00,41.832
684.00,42.062
685.00,42.138
686.00,42.061
687.00,42.182
688.00,42.252
689.00,42.254
690.00,42.607
691.00,42.887
692.00,42.628
693.00,42.730
694.00,42.881
695.00,43.100
696.00,43.194
697.00,43.146
698.00,43.403
699.00,43.647
700.00,43.591
701.00,43.625
702.00,43.727
703.00,43.977
704.00,43.996
705.00,44.002
706.00,44.157
707.00,43.889
708.00,44.171
709.00,44.593
710.00,44.365
711.00,44.189
712.00,44.261
713.00,44.953
714.00,44.988
715.00,44.803
716.00,44.856
717.00,44.988
718.00,45.058
719.00,45.064
720.00,45.132
721.00,49.534
722.00,49.586
723.00,49.598
724.00,49.599
725.00,49.695
726.00,49.647
727.00,49.655
728.00,49.690
729.00,49.825
730.00,49.830
731.00,49.895
732.00,49.870
733.00,49.946
734.00,50.074
735.00,50.036
736.00,50.132
737.00,50.104
738.00,50.254
739.00,50.313
740.00,50.299
741.00,50.356
742.00,50.385
743.00,50.428
744.00,50.391
745.00,50.497
746.00,50.522
747.00,50.491
748.00,50.496
749.00,50.483
750.00,50.506
751.00,50.560
752.00,50.479
753.00,50.604
754.00,50.537
755.00,50.623
756.00,50.610
757.00,50.622
758.00,50.698
759.00,50.682
760.00,50.680
761.00,50.646
762.00,50.710
763.00,50.812
764.00,50.781
765.00,50.838
766.00,50.757
767.00,50.850
768.00,50.774
769.00,50.863
770.00,50.855
771.00,50.900
772.00,50.988
773.00,50.893
774.00,51.005
775.00,51.032
776.00,50.921
777.00,51.066
778.00,50.965
779.00,51.099
780.00,50.962
781.00,50.984
782.00,51.057
783.00,50.959
784.00,51.029
785.00,50.930
786.00,51.067
787.00,51.004
788.00,51.027
789.00,50.979
790.00,50.974
791.00,51.105
792.00,51.000
793.00,51.050
794.00,50.966
795.00,50.994
796.00,50.993
797.00,50.919
798.00,50.981
799.00,50.903
800.00,50.930
801.00,50.893
802.00,50.872
803.00,50.853
804.00,50.809
805.00,50.955
806.00,50.895
807.00,50.886
808.00,50.914
809.00,50.849
810.00,50.844
811.00,50.857
812.00,50.906
813.00,50.855
814.00,50.873
815.00,50.792
816.00,50.812
817.00,50.898
818.00,50.721
819.00,50.750
820.00,50.712
821.00,50.700
822.00,50.731
823.00,50.711
824.00,50.795
825.00,50.746
826.00,50.703
827.00,50.665
828.00,50.705
829.00,50.775
830.00,50.638
831.00,52.972
832.00,52.970
833.00,52.904
834.00,52.944
835.00,52.888
836.00,52.928
837.00,52.862
838.00,52.897
839.00,52.864
840.00,52.808
841.00,52.853
842.00,52.806
843.00,52.836
844.00,52.725
845.00,52.765
846.00,52.716
847.00,52.722
848.00,52.726
849.00,52.631
850.00,52.660
851.00,52.592
852.00,52.615
853.00,52.586
854.00,52.557
855.00,52.496
856.00,52.524
857.00,52.447
858.00,52.443
859.00,52.409
860.00,52.397
861.00,52.453
862.00,52.344
863.00,52.395
864.00,52.364
865.00,52.354
866.00,52.366
867.00,52.367
868.00,52.338
869.00,52.314
870.00,52.333
871.00,52.308
872.00,52.326
873.00,52.302
874.00,52.318
875.00,52.265
876.00,52.300
877.00,52.260
878.00,52.275
879.00,52.213
880.00,52.238
881.00,52.207
882.00,52.205
883.00,52.188
884.00,52.146
885.00,52.138
886.00,52.080
887.00,52.204
888.00,52.091
889.00,52.049
890.00,52.083
891.00,52.037
892.00,51.995
893.00,51.990
894.00,52.014
895.00,51.941
896.00,51.928
897.00,51.917
898.00,51.919
899.00,51.901
900.00,51.872
901.00,51.875
902.00,51.860
903.00,51.843
904.00,51.818
905.00,51.794
906.00,51.822
907.00,51.772
908.00,51.725
909.00,51.734
910.00,51.690
911.00,51.706
912.00,51.674
913.00,51.668
914.00,51.646
915.00,51.622
916.00,51.608
917.00,51.581
918.00,51.594
919.00,51.541
920.00,51.496
921.00,51.533
922.00,51.513
923.00,51.467
924.00,51.449
925.00,51.463
926.00,51.400
927.00,51.407
928.00,51.371
929.00,51.367
930.00,51.310
931.00,51.306
932.00,51.271
933.00,51.316
934.00,51.130
935.00,51.243
936.00,51.233
937.00,51.212
938.00,51.183
939.00,51.169
940.00,51.162
941.00,51.127
942.00,51.089
943.00,51.103
944.00,51.059
945.00,51.061
946.00,51.069
947.00,51.033
948.00,50.997
949.00,50.981
950.00,50.980
951.00,50.965
952.00,50.932
953.00,50.904
954.00,50.889
955.00,50.843
956.00,50.846
957.00,50.804
958.00,50.803
959.00,50.742
960.00,50.741
961.00,50.735
962.00,50.733
963.00,50.682
964.00,50.682
965.00,50.712
966.00,50.699
967.00,50.682
968.00,50.656
969.00,50.681
970.00,50.663
971.00,50.676
972.00,50.625
973.00,50.681
974.00,50.687
975.00,50.649
976.00,50.666
977.00,50.649
978.00,50.683
979.00,50.641
980.00,50.650
981.00,50.655
982.00,50.622
983.00,50.647
984.00,50.610
985.00,50.631
986.00,50.605
987.00,50.606
988.00,50.559
989.00,50.568
990.00,50.584
991.00,50.568
992.00,50.579
993.00,50.552
994.00,50.539
995.00,50.521
996.00,50.509
997.00,50.501
998.00,50.488
999.00,50.503
1000.00,50.452
1001.00,50.445
1002.00,50.525
1003.00,50.431
1004.00,50.382
1005.00,50.364
1006.00,50.462
1007.00,50.370
1008.00,50.373
1009.00,50.365
1010.00,50.362
1011.00,50.334
1012.00,50.304
1013.00,50.299
1014.00,50.260
1015.00,50.278
1016.00,50.238
1017.00,50.245
1018.00,50.232
1019.00,50.196
1020.00,50.202
1021.00,50.204
1022.00,50.170
1023.00,50.122
1024.00,50.126
1025.00,50.112
1026.00,50.110
1027.00,50.088
1028.00,50.085
1029.00,50.072
1030.00,50.036
1031.00,50.056
1032.00,50.018
1033.00,50.013
1034.00,49.996
1035.00,49.958
1036.00,49.942
1037.00,49.923
1038.00,49.908
1039.00,49.880
1040.00,49.871
1041.00,49.835
1042.00,49.834
1043.00,49.819
1044.00,49.843
1045.00,49.832
1046.00,49.821
1047.00,49.851
1048.00,49.854
1049.00,49.858
1050.00,49.870
1051.00,49.895
1052.00,49.900
1053.00,49.901
1054.00,49.899
1055.00,49.908
1056.00,49.930
1057.00,49.922
1058.00,49.893
1059.00,49.907
1060.00,49.923
1061.00,49.900
1062.00,49.880
1063.00,49.898
1064.00,49.903
1065.00,49.874
1066.00,49.870
1067.00,49.877
1068.00,49.900
1069.00,49.850
1070.00,49.835
1071.00,49.823
1072.00,49.852
1073.00,49.823
1074.00,49.828
1075.00,49.814
1076.00,49.818
1077.00,49.783
1078.00,49.775
1079.00,49.767
1080.00,49.767
1081.00,49.764
1082.00,49.757
1083.00,49.751
1084.00,49.743
1085.00,49.757
1086.00,49.732
1087.00,49.732
1088.00,49.707
1089.00,49.707
1090.00,49.699
1091.00,49.692
1092.00,49.699
1093.00,49.653
1094.00,49.645
1095.00,49.646
1096.00,49.623
1097.00,49.627
1098.00,49.621
1099.00,49.607
1100.00,49.596
1101.00,49.584
1102.00,49.557
1103.00,49.567
1104.00,49.547
1105.00,49.531
1106.00,49.528
1107.00,49.544
1108.00,49.542
1109.00,49.546
1110.00,49.523
1111.00,49.526
1112.00,49.508
1113.00,49.510
1114.00,49.492
1115.00,49.498
1116.00,49.494
1117.00,49.464
1118.00,49.459
1119.00,49.467
1120.00,49.476
1121.00,49.472
1122.00,49.458
1123.00,49.450
1124.00,49.447
1125.00,49.457
1126.00,49.442
1127.00,49.449
1128.00,49.425
1129.00,49.403
1130.00,49.393
1131.00,49.392
1132.00,49.370
1133.00,49.385
1134.00,49.355
1135.00,49.345
1136.00,49.349
1137.00,49.357
1138.00,49.350
1139.00,49.353
1140.00,49.363
1141.00,49.383
1142.00,49.333
1143.00,49.333
1144.00,49.322
1145.00,49.314
1146.00,49.326
1147.00,49.317
1148.00,49.311
1149.00,49.331
1150.00,49.320
1151.00,49.328
1152.00,49.315
1153.00,49.315
1154.00,49.297
1155.00,49.327
1156.00,49.313
1157.00,49.305
1158.00,49.289
1159.00,49.308
1160.00,49.296
1161.00,49.311
1162.00,49.304
1163.00,49.297
1164.00,49.313
1165.00,49.306
1166.00,49.315
1167.00,49.290
1168.00,49.313
1169.00,49.313
1170.00,49.317
1171.00,49.313
1172.00,49.306
1173.00,49.295
1174.00,49.311
1175.00,49.302
1176.00,49.293
1177.00,49.285
1178.00,49.287
1179.00,49.297
1180.00,49.274
1181.00,49.289
1182.00,49.280
1183.00,49.270
1184.00,49.275
1185.00,49.289
1186.00,49.293
1187.00,49.278
1188.00,49.294
1189.00,49.293
1190.00,49.269
1191.00,49.260
1192.00,49.286
1193.00,49.275
1194.00,49.266
1195.00,49.257
1196.00,49.288
1197.00,49.283
1198.00,49.268
1199.00,49.261
1200.00,49.265
1201.00,49.296
1202.00,49.289
1203.00,49.283
1204.00,49.274
1205.00,49.300
1206.00,49.281
1207.00,49.293
1208.00,49.285
1209.00,49.292
1210.00,49.285
1211.00,49.261
1212.00,49.292
1213.00,49.242
1214.00,49.282
1215.00,49.274
1216.00,49.288
1217.00,49.295
1218.00,49.279
1219.00,49.305
1220.00,49.265
1221.00,49.301
1222.00,49.277
1223.00,49.295
1224.00,49.287
1225.00,49.274
1226.00,49.299
1227.00,49.295
1228.00,49.317
1229.00,49.328
1230.00,49.352
1231.00,49.321
1232.00,49.363
1233.00,49.356
1234.00,49.348
1235.00,49.349
1236.00,49.345
1237.00,49.360
1238.00,49.352
1239.00,49.352
1240.00,49.346
1241.00,49.359
1242.00,49.364
1243.00,49.387
1244.00,49.360
1245.00,49.400
1246.00,49.409
1247.00,49.381
1248.00,49.370
1249.00,49.390
1250.00,49.403
1251.00,49.394
1252.00,49.401
1253.00,49.391
1254.00,49.429
1255.00,49.403
1256.00,49.397
1257.00,49.393
1258.00,49.441
1259.00,49.440
1260.00,49.453
1261.00,49.464
1262.00,49.459
1263.00,49.471
1264.00,49.457
1265.00,49.468
1266.00,49.458
1267.00,49.470
1268.00,49.476
1269.00,49.469
1270.00,49.497
1271.00,49.493
1272.00,49.489
1273.00,49.517
1274.00,49.517
1275.00,49.532
1276.00,49.537
1277.00,49.544
1278.00,49.555
1279.00,49.552
1280.00,49.541
1281.00,49.551
1282.00,49.552
1283.00,49.558
1284.00,49.559
1285.00,49.560
1286.00,49.576
1287.00,49.565
1288.00,49.563
1289.00,49.559
1290.00,49.624
1291.00,49.630
1292.00,49.663
1293.00,49.634
1294.00,49.641
1295.00,49.642
1296.00,49.647
1297.00,49.650
1298.00,49.687
1299.00,49.649
1300.00,49.665
1301.00,49.661
1302.00,49.687
1303.00,49.692
1304.00,49.680
1305.00,49.718
1306.00,49.723
1307.00,49.728
1308.00,49.730
1309.00,49.741
1310.00,49.738
1311.00,49.720
1312.00,49.733
1313.00,49.743
1314.00,49.761
1315.00,49.765
1316.00,49.772
1317.00,49.812
1318.00,49.805
1319.00,49.801
1320.00,49.812
1321.00,49.967
1322.00,49.949
1323.00,49.944
1324.00,49.935
1325.00,49.938
1326.00,49.970
1327.00,49.967
1328.00,49.944
1329.00,49.939
1330.00,49.961
1331.00,49.966
1332.00,49.968
1333.00,49.972
1334.00,50.005
1335.00,50.026
1336.00,50.064
1337.00,50.088
1338.00,50.156
1339.00,50.189
1340.00,50.240
1341.00,50.294
1342.00,50.353
1343.00,50.410
1344.00,50.456
1345.00,50.511
1346.00,50.545
1347.00,50.565
1348.00,50.596
1349.00,50.632
1350.00,50.659
1351.00,50.655
1352.00,50.670
1353.00,50.685
1354.00,50.684
1355.00,50.621
1356.00,50.700
1357.00,50.683
1358.00,50.706
1359.00,50.680
1360.00,50.742
1361.00,50.777
1362.00,50.681
1363.00,50.779
1364.00,50.769
1365.00,50.749
1366.00,50.789
1367.00,50.744
1368.00,50.723
1369.00,50.761
1370.00,50.726
1371.00,50.688
1372.00,50.709
1373.00,50.733
1374.00,50.759
1375.00,50.726
1376.00,50.717
1377.00,50.704
1378.00,50.849
1379.00,50.773
1380.00,50.763
1381.00,50.795
1382.00,50.698
1383.00,50.769
1384.00,50.684
1385.00,50.711
1386.00,50.785
1387.00,50.766
1388.00,50.705
1389.00,50.747
1390.00,50.781
1391.00,50.744
1392.00,50.699
1393.00,50.769
1394.00,50.741
1395.00,50.665
1396.00,50.690
1397.00,50.754
1398.00,50.779
1399.00,50.671
1400.00,50.765
1401.00,50.738
1402.00,50.772
1403.00,50.754
1404.00,50.779
1405.00,50.783
1406.00,50.824
1407.00,50.791
1408.00,50.807
1409.00,50.806
1410.00,50.842
1411.00,50.803
1412.00,50.891
1413.00,50.796
1414.00,50.812
1415.00,50.860
1416.00,50.877
1417.00,50.881
1418.00,50.863
1419.00,50.888
1420.00,50.896
1421.00,50.944
1422.00,50.940
1423.00,50.975
1424.00,50.969
1425.00,50.996
1426.00,51.016
1427.00,51.037
1428.00,51.033
1429.00,51.067
1430.00,51.070
1431.00,51.094
1432.00,51.109
1433.00,51.114
1434.00,51.122
1435.00,51.181
1436.00,51.183
1437.00,51.174
1438.00,51.197
1439.00,51.234
1440.00,51.250
1441.00,51.252
1442.00,51.262
1443.00,51.305
1444.00,51.354
1445.00,51.318
1446.00,51.329
1447.00,51.373
1448.00,51.430
1449.00,51.407
1450.00,51.423
1451.00,51.433
1452.00,51.458
1453.00,51.457
1454.00,51.474
1455.00,51.516
1456.00,51.538
1457.00,51.549
1458.00,51.566
1459.00,51.576
1460.00,51.605
1461.00,51.598
1462.00,51.632
1463.00,51.639
1464.00,51.650
1465.00,51.660
1466.00,51.665
1467.00,51.680
1468.00,51.745
1469.00,51.701
1470.00,51.731
1471.00,51.746
1472.00,51.743
1473.00,51.779
1474.00,51.800
1475.00,51.825
1476.00,51.834
1477.00,51.814
1478.00,51.851
1479.00,51.864
1480.00,51.873
1481.00,51.889
1482.00,51.928
1483.00,51.945
1484.00,51.962
1485.00,51.960
1486.00,51.977
1487.00,52.007
1488.00,52.035
1489.00,52.011
1490.00,52.037
1491.00,52.050
1492.00,52.085
1493.00,52.067
1494.00,52.097
1495.00,52.094
1496.00,52.125
1497.00,52.099
1498.00,52.138
1499.00,52.151
1500.00,52.167
1501.00, 
1502.00, 
1503.00, 
1504.00, 
1505.00, 
1506.00, 
1507.00, 
1508.00, 
1509.00, 
1510.00, 
1511.00, 
1512.00, 
1513.00, 
1514.00, 
1515.00, 
1516.00, 
1517.00, 
1518.00, 
1519.00, 
1520.00, 
1521.00, 
1522.00, 
1523.00, 
1524.00, 
1525.00, 
1526.00, 
1527.00, 
1528.00, 
1529.00, 
1530.00, 
1531.00, 
1532.00, 
1533.00, 
1534.00, 
1535.00, 
1536.00, 
1537.00, 
1538.00, 
1539.00, 
1540.00, 
1541.00, 
1542.00, 
1543.00, 
1544.00, 
1545.00, 
1546.00, 
1547.00, 
1548.00, 
1549.00, 
1550.00, 
1551.00, 
1552.00, 
1553.00, 
1554.00, 
1555.00, 
1556.00, 
1557.00, 
1558.00, 
1559.00, 
1560.00, 
1561.00, 
1562.00, 
1563.00, 
1564.00, 
1565.00, 
1566.00, 
1567.00, 
1568.00, 
1569.00, 
1570.00, 
1571.00, 
1572.00, 
1573.00, 
1574.00, 
1575.00, 
1576.00, 
1577.00, 
1578.00, 
1579.00, 
1580.00, 
1581.00, 
1582.00, 
1583.00, 
1584.00, 
1585.00, 
1586.00, 
1587.00, 
1588.00, 
1589.00, 
1590.00, 
1591.00, 
1592.00, 
1593.00, 
1594.00, 
1595.00, 
1596.00, 
1597.00, 
1598.00, 
1599.00, 
1600.00, 
1601.00, 
1602.00, 
1603.00, 
1604.00, 
1605.00, 
1606.00, 
1607.00, 
1608.00, 
1609.00, 
1610.00, 
1611.00, 
1612.00, 
1613.00, 
1614.00, 
1615.00, 
1616.00, 
1617.00, 
1618.00, 
1619.00, 
1620.00, 
1621.00, 
1622.00, 
1623.00, 
1624.00, 
1625.00, 
1626.00, 
1627.00, 
1628.00, 
1629.00, 
1630.00, 
1631.00, 
1632.00, 
1633.00, 
1634.00, 
1635.00, 
1636.00, 
1637.00, 
1638.00, 
1639.00, 
1640.00, 
1641.00, 
1642.00, 
1643.00, 
1644.00, 
1645.00, 
1646.00, 
1647.00, 
1648.00, 
1649.00, 
1650.00, 
1651.00, 
1652.00, 
1653.00, 
1654.00, 
1655.00, 
1656.00, 
1657.00, 
1658.00, 
1659.00, 
1660.00, 
1661.00, 
1662.00, 
1663.00, 
1664.00, 
1665.00, 
1666.00, 
1667.00, 
1668.00, 
1669.00, 
1670.00, 
1671.00, 
1672.00, 
1673.00, 
1674.00, 
1675.00, 
1676.00, 
1677.00, 
1678.00, 
1679.00, 
1680.00, 
1681.00, 
1682.00, 
1683.00, 
1684.00, 
1685.00, 
1686.00, 
1687.00, 
1688.00, 
1689.00, 
1690.00, 
1691.00, 
1692.00, 
1693.00, 
1694.00, 
1695.00, 
1696.00, 
1697.00, 
1698.00, 
1699.00, 
1700.00, 
1701.00, 
1702.00, 
1703.00, 
1704.00, 
1705.00, 
1706.00, 
1707.00, 
1708.00, 
1709.00, 
1710.00, 
1711.00, 
1712.00, 
1713.00, 
1714.00, 
1715.00, 
1716.00, 
1717.00, 
1718.00, 
1719.00, 
1720.00, 
1721.00, 
1722.00, 
1723.00, 
1724.00, 
1725.00, 
1726.00, 
1727.00, 
1728.00, 
1729.00, 
1730.00, 
1731.00, 
1732.00, 
1733.00, 
1734.00, 
1735.00, 
1736.00, 
1737.00, 
1738.00, 
1739.00, 
1740.00, 
1741.00, 
1742.00, 
1743.00, 
1744.00, 
1745.00, 
1746.00, 
1747.00, 
1748.00, 
1749.00, 
1750.00, 
1751.00, 
1752.00, 
1753.00, 
1754.00, 
1755.00, 
1756.00, 
1757.00, 
1758.00, 
1759.00, 
1760.00, 
1761.00, 
1762.00, 
1763.00, 
1764.00, 
1765.00, 
1766.00, 
1767.00, 
1768.00, 
1769.00, 
1770.00, 
1771.00, 
1772.00, 
1773.00, 
1774.00, 
1775.00, 
1776.00, 
1777.00, 
1778.00, 
1779.00, 
1780.00, 
1781.00, 
1782.00, 
1783.00, 
1784.00, 
1785.00, 
1786.00, 
1787.00, 
1788.00, 
1789.00, 
1790.00, 
1791.00, 
1792.00, 
1793.00, 
1794.00, 
1795.00, 
1796.00, 
1797.00, 
1798.00, 
1799.00, 
1800.00, 
1801.00, 
1802.00, 
1803.00, 
1804.00, 
1805.00, 
1806.00, 
1807.00, 
1808.00, 
1809.00, 
1810.00, 
1811.00, 
1812.00, 
1813.00, 
1814.00, 
1815.00, 
1816.00, 
1817.00, 
1818.00, 
1819.00, 
1820.00, 
1821.00, 
1822.00, 
1823.00, 
1824.00, 
1825.00, 
1826.00, 
1827.00, 
1828.00, 
1829.00, 
1830.00, 
1831.00, 
1832.00, 
1833.00, 
1834.00, 
1835.00, 
1836.00, 
1837.00, 
1838.00, 
1839.00, 
1840.00, 
1841.00, 
1842.00, 
1843.00, 
1844.00, 
1845.00, 
1846.00, 
1847.00, 
1848.00, 
1849.00, 
1850.00, 
1851.00, 
1852.00, 
1853.00, 
1854.00, 
1855.00, 
1856.00, 
1857.00, 
1858.00, 
1859.00, 
1860.00, 
1861.00, 
1862.00, 
1863.00, 
1864.00, 
1865.00, 
1866.00, 
1867.00, 
1868.00, 
1869.00, 
1870.00, 
1871.00, 
1872.00, 
1873.00, 
1874.00, 
1875.00, 
1876.00, 
1877.00, 
1878.00, 
1879.00, 
1880.00, 
1881.00, 
1882.00, 
1883.00, 
1884.00, 
1885.00, 
1886.00, 
1887.00, 
1888.00, 
1889.00, 
1890.00, 
1891.00, 
1892.00, 
1893.00, 
1894.00, 
1895.00, 
1896.00, 
1897.00, 
1898.00, 
1899.00, 
1900.00, 
1901.00, 
1902.00, 
1903.00, 
1904.00, 
1905.00, 
1906.00, 
1907.00, 
1908.00, 
1909.00, 
1910.00, 
1911.00, 
1912.00, 
1913.00, 
1914.00, 
1915.00, 
1916.00, 
1917.00, 
1918.00, 
1919.00, 
1920.00, 
1921.00, 
1922.00, 
1923.00, 
1924.00, 
1925.00, 
1926.00, 
1927.00, 
1928.00, 
1929.00, 
1930.00, 
1931.00, 
1932.00, 
1933.00, 
1934.00, 
1935.00, 
1936.00, 
1937.00, 
1938.00, 
1939.00, 
1940.00, 
1941.00, 
1942.00, 
1943.00, 
1944.00, 
1945.00, 
1946.00, 
1947.00, 
1948.00, 
1949.00, 
1950.00, 
1951.00, 
1952.00, 
1953.00, 
1954.00, 
1955.00, 
1956.00, 
1957.00, 
1958.00, 
1959.00, 
1960.00, 
1961.00, 
1962.00, 
1963.00, 
1964.00, 
1965.00, 
1966.00, 
1967.00, 
1968.00, 
1969.00, 
1970.00, 
1971.00, 
1972.00, 
1973.00, 
1974.00, 
1975.00, 
1976.00, 
1977.00, 
1978.00, 
1979.00, 
1980.00, 
1981.00, 
1982.00, 
1983.00, 
1984.00, 
1985.00, 
1986.00, 
1987.00, 
1988.00, 
1989.00, 
1990.00, 
1991.00, 
1992.00, 
1993.00, 
1994.00, 
1995.00, 
1996.00, 
1997.00, 
1998.00, 
1999.00, 
2000.00, 
2001.00, 
2002.00, 
2003.00, 
2004.00, 
2005.00, 
2006.00, 
2007.00, 
2008.00, 
2009.00, 
2010.00, 
2011.00, 
2012.00, 
2013.00, 
2014.00, 
2015.00, 
2016.00, 
2017.00, 
2018.00, 
2019.00, 
2020.00, 
2021.00, 
2022.00, 
2023.00, 
2024.00, 
2025.00, 
2026.00, 
2027.00, 
2028.00, 
2029.00, 
2030.00, 
2031.00, 
2032.00, 
2033.00, 
2034.00, 
2035.00, 
2036.00, 
2037.00, 
2038.00, 
2039.00, 
2040.00, 
2041.00, 
2042.00, 
2043.00, 
2044.00, 
2045.00, 
2046.00, 
2047.00, 
2048.00, 
2049.00, 
2050.00, 
2051.00, 
2052.00, 
2053.00, 
2054.00, 
2055.00, 
2056.00, 
2057.00, 
2058.00, 
2059.00, 
2060.00, 
2061.00, 
2062.00, 
2063.00, 
2064.00, 
2065.00, 
2066.00, 
2067.00, 
2068.00, 
2069.00, 
2070.00, 
2071.00, 
2072.00, 
2073.00, 
2074.00, 
2075.00, 
2076.00, 
2077.00, 
2078.00, 
2079.00, 
2080.00, 
2081.00, 
2082.00, 
2083.00, 
2084.00, 
2085.00, 
2086.00, 
2087.00, 
2088.00, 
2089.00, 
2090.00, 
2091.00, 
2092.00, 
2093.00, 
2094.00, 
2095.00, 
2096.00, 
2097.00, 
2098.00, 
2099.00, 
2100.00, 
2101.00, 
2102.00, 
2103.00, 
2104.00, 
2105.00, 
2106.00, 
2107.00, 
2108.00, 
2109.00, 
2110.00, 
2111.00, 
2112.00, 
2113.00, 
2114.00, 
2115.00, 
2116.00, 
2117.00, 
2118.00, 
2119.00, 
2120.00, 
2121.00, 
2122.00, 
2123.00, 
2124.00, 
2125.00, 
2126.00, 
2127.00, 
2128.00, 
2129.00, 
2130.00, 
2131.00, 
2132.00, 
2133.00, 
2134.00, 
2135.00, 
2136.00, 
2137.00, 
2138.00, 
2139.00, 
2140.00, 
2141.00, 
2142.00, 
2143.00, 
2144.00, 
2145.00, 
2146.00, 
2147.00, 
2148.00, 
2149.00, 
2150.00, 
2151.00, 
2152.00, 
2153.00, 
2154.00, 
2155.00, 
2156.00, 
2157.00, 
2158.00, 
2159.00, 
2160.00, 
2161.00, 
2162.00, 
2163.00, 
2164.00, 
2165.00, 
2166.00, 
2167.00, 
2168.00, 
2169.00, 
2170.00, 
2171.00, 
2172.00, 
2173.00, 
2174.00, 
2175.00, 
2176.00, 
2177.00, 
2178.00, 
2179.00, 
2180.00, 
2181.00, 
2182.00, 
2183.00, 
2184.00, 
2185.00, 
2186.00, 
2187.00, 
2188.00, 
2189.00, 
2190.00, 
2191.00, 
2192.00, 
2193.00, 
2194.00, 
2195.00, 
2196.00, 
2197.00, 
2198.00, 
2199.00, 
2200.00, 
2201.00, 
2202.00, 
2203.00, 
2204.00, 
2205.00, 
2206.00, 
2207.00, 
2208.00, 
2209.00, 
2210.00, 
2211.00, 
2212.00, 
2213.00, 
2214.00, 
2215.00, 
2216.00, 
2217.00, 
2218.00, 
2219.00, 
2220.00, 
2221.00, 
2222.00, 
2223.00, 
2224.00, 
2225.00, 
2226.00, 
2227.00, 
2228.00, 
2229.00, 
2230.00, 
2231.00, 
2232.00, 
2233.00, 
2234.00, 
2235.00, 
2236.00, 
2237.00, 
2238.00, 
2239.00, 
2240.00, 
2241.00, 
2242.00, 
2243.00, 
2244.00, 
2245.00, 
2246.00, 
2247.00, 
2248.00, 
2249.00, 
2250.00, 
2251.00, 
2252.00, 
2253.00, 
2254.00, 
2255.00, 
2256.00, 
2257.00, 
2258.00, 
2259.00, 
2260.00, 
2261.00, 
2262.00, 
2263.00, 
2264.00, 
2265.00, 
2266.00, 
2267.00, 
2268.00, 
2269.00, 
2270.00, 
2271.00, 
2272.00, 
2273.00, 
2274.00, 
2275.00, 
2276.00, 
2277.00, 
2278.00, 
2279.00, 
2280.00, 
2281.00, 
2282.00, 
2283.00, 
2284.00, 
2285.00, 
2286.00, 
2287.00, 
2288.00, 
2289.00, 
2290.00, 
2291.00, 
2292.00, 
2293.00, 
2294.00, 
2295.00, 
2296.00, 
2297.00, 
2298.00, 
2299.00, 
2300.00, 
2301.00, 
2302.00, 
2303.00, 
2304.00, 
2305.00, 
2306.00, 
2307.00, 
2308.00, 
2309.00, 
2310.00, 
2311.00, 
2312.00, 
2313.00, 
2314.00, 
2315.00, 
2316.00, 
2317.00, 
2318.00, 
2319.00, 
2320.00, 
2321.00, 
2322.00, 
2323.00, 
2324.00, 
2325.00, 
2326.00, 
2327.00, 
2328.00, 
2329.00, 
2330.00, 
2331.00, 
2332.00, 
2333.00, 
2334.00, 
2335.00, 
2336.00, 
2337.00, 
2338.00, 
2339.00, 
2340.00, 
2341.00, 
2342.00, 
2343.00, 
2344.00, 
2345.00, 
2346.00, 
2347.00, 
2348.00, 
2349.00, 
2350.00, 
2351.00, 
2352.00, 
2353.00, 
2354.00, 
2355.00, 
2356.00, 
2357.00, 
2358.00, 
2359.00, 
2360.00, 
2361.00, 
2362.00, 
2363.00, 
2364.00, 
2365.00, 
2366.00, 
2367.00, 
2368.00, 
2369.00, 
2370.00, 
2371.00, 
2372.00, 
2373.00, 
2374.00, 
2375.00, 
2376.00, 
2377.00, 
2378.00, 
2379.00, 
2380.00, 
2381.00, 
2382.00, 
2383.00, 
2384.00, 
2385.00, 
2386.00, 
2387.00, 
2388.00, 
2389.00, 
2390.00, 
2391.00, 
2392.00, 
2393.00, 
2394.00, 
2395.00, 
2396.00, 
2397.00, 
2398.00, 
2399.00, 
2400.00, 
2401.00, 
2402.00, 
2403.00, 
2404.00, 
2405.00, 
2406.00, 
2407.00, 
2408.00, 
2409.00, 
2410.00, 
2411.00, 
2412.00, 
2413.00, 
2414.00, 
2415.00, 
2416.00, 
2417.00, 
2418.00, 
2419.00, 
2420.00, 
2421.00, 
2422.00, 
2423.00, 
2424.00, 
2425.00, 
2426.00, 
2427.00, 
2428.00, 
2429.00, 
2430.00, 
2431.00, 
2432.00, 
2433.00, 
2434.00, 
2435.00, 
2436.00, 
2437.00, 
2438.00, 
2439.00, 
2440.00, 
2441.00, 
2442.00, 
2443.00, 
2444.00, 
2445.00, 
2446.00, 
2447.00, 
2448.00, 
2449.00, 
2450.00, 
2451.00, 
2452.00, 
2453.00, 
2454.00, 
2455.00, 
2456.00, 
2457.00, 
2458.00, 
2459.00, 
2460.00, 
2461.00, 
2462.00, 
2463.00, 
2464.00, 
2465.00, 
2466.00, 
2467.00, 
2468.00, 
2469.00, 
2470.00, 
2471.00, 
2472.00, 
2473.00, 
2474.00, 
2475.00, 
2476.00, 
2477.00, 
2478.00, 
2479.00, 
2480.00, 
2481.00, 
2482.00, 
2483.00, 
2484.00, 
2485.00, 
2486.00, 
2487.00, 
2488.00, 
2489.00, 
2490.00, 
2491.00, 
2492.00, 
2493.00, 
2494.00, 
2495.00, 
2496.00, 
2497.00, 
2498.00, 
2499.00, 
2500.00, 
2501.00, 
2502.00, 
2503.00, 
2504.00, 
2505.00, 
2506.00, 
2507.00, 
2508.00, 
2509.00, 
2510.00, 
2511.00, 
2512.00, 
2513.00, 
2514.00, 
2515.00, 
2516.00, 
2517.00, 
2518.00, 
2519.00, 
2520.00, 
2521.00, 
2522.00, 
2523.00, 
2524.00, 
2525.00, 
2526.00, 
2527.00, 
2528.00, 
2529.00, 
2530.00, 
2531.00, 
2532.00, 
2533.00, 
2534.00, 
2535.00, 
2536.00, 
2537.00, 
2538.00, 
2539.00, 
2540.00, 
2541.00, 
2542.00, 
2543.00, 
2544.00, 
2545.00, 
2546.00, 
2547.00, 
2548.00, 
2549.00, 
2550.00, 
2551.00, 
2552.00, 
2553.00, 
2554.00, 
2555.00, 
2556.00, 
2557.00, 
2558.00, 
2559.00, 
2560.00, 
2561.00, 
2562.00, 
2563.00, 
2564.00, 
2565.00, 
2566.00, 
2567.00, 
2568.00, 
2569.00, 
2570.00, 
2571.00, 
2572.00, 
2573.00, 
2574.00, 
2575.00, 
2576.00, 
2577.00, 
2578.00, 
2579.00, 
2580.00, 
2581.00, 
2582.00, 
2583.00, 
2584.00, 
2585.00, 
2586.00, 
2587.00, 
2588.00, 
2589.00, 
2590.00, 
2591.00, 
2592.00, 
2593.00, 
2594.00, 
2595.00, 
2596.00, 
2597.00, 
2598.00, 
2599.00, 
2600.00, 
