"2bP2 - RawData"
"Wavelength nm.","T%"
200.00,0.001
201.00,0.000
202.00,0.004
203.00,0.001
204.00,0.001
205.00,0.002
206.00,0.001
207.00,0.000
208.00,0.000
209.00,0.003
210.00,0.002
211.00,-0.000
212.00,0.002
213.00,0.002
214.00,-0.000
215.00,0.001
216.00,0.001
217.00,0.001
218.00,0.002
219.00,0.000
220.00,0.003
221.00,0.000
222.00,0.003
223.00,0.001
224.00,0.002
225.00,-0.001
226.00,-0.002
227.00,-0.001
228.00,-0.000
229.00,0.002
230.00,0.001
231.00,-0.001
232.00,0.002
233.00,0.000
234.00,0.003
235.00,-0.001
236.00,0.001
237.00,-0.002
238.00,0.001
239.00,0.001
240.00,-0.000
241.00,0.002
242.00,0.000
243.00,-0.001
244.00,0.000
245.00,0.000
246.00,0.000
247.00,-0.000
248.00,0.001
249.00,0.000
250.00,-0.000
251.00,-0.002
252.00,-0.000
253.00,-0.001
254.00,-0.001
255.00,0.002
256.00,-0.001
257.00,0.000
258.00,0.000
259.00,0.000
260.00,-0.001
261.00,-0.001
262.00,0.001
263.00,0.001
264.00,-0.000
265.00,0.002
266.00,0.001
267.00,0.001
268.00,-0.001
269.00,0.000
270.00,0.000
271.00,0.001
272.00,-0.000
273.00,-0.001
274.00,0.000
275.00,0.000
276.00,0.001
277.00,0.000
278.00,-0.001
279.00,0.000
280.00,0.001
281.00,0.001
282.00,0.001
283.00,-0.000
284.00,0.001
285.00,0.001
286.00,-0.001
287.00,0.001
288.00,-0.002
289.00,0.001
290.00,-0.002
291.00,0.000
292.00,0.000
293.00,-0.000
294.00,0.000
295.00,0.001
296.00,0.001
297.00,0.001
298.00,0.001
299.00,0.001
300.00,0.000
301.00,0.003
302.00,0.006
303.00,0.010
304.00,0.014
305.00,0.021
306.00,0.032
307.00,0.047
308.00,0.075
309.00,0.112
310.00,0.152
311.00,0.205
312.00,0.278
313.00,0.374
314.00,0.481
315.00,0.627
316.00,0.782
317.00,0.999
318.00,1.229
319.00,1.490
320.00,1.744
321.00,2.141
322.00,2.517
323.00,2.941
324.00,3.402
325.00,3.861
326.00,4.347
327.00,4.859
328.00,5.449
329.00,6.009
330.00,6.562
331.00,7.159
332.00,7.765
333.00,8.381
334.00,8.971
335.00,9.539
336.00,10.194
337.00,10.797
338.00,11.396
339.00,11.934
340.00,12.512
341.00,13.007
342.00,13.531
343.00,13.999
344.00,14.468
345.00,14.914
346.00,15.375
347.00,15.757
348.00,16.142
349.00,16.450
350.00,16.832
351.00,17.096
352.00,17.332
353.00,17.638
354.00,17.895
355.00,18.152
356.00,18.322
357.00,18.538
358.00,18.729
359.00,18.923
360.00,19.117
361.00,19.214
362.00,19.377
363.00,19.489
364.00,19.561
365.00,19.619
366.00,19.694
367.00,19.751
368.00,19.750
369.00,19.823
370.00,19.916
371.00,19.883
372.00,19.848
373.00,19.821
374.00,19.829
375.00,19.849
376.00,19.805
377.00,19.738
378.00,19.657
379.00,19.607
380.00,19.549
381.00,19.578
382.00,19.511
383.00,19.530
384.00,19.526
385.00,19.536
386.00,19.521
387.00,19.570
388.00,19.627
389.00,19.595
390.00,19.607
391.00,19.626
392.00,19.643
393.00,19.608
394.00,19.630
395.00,19.609
396.00,19.613
397.00,19.621
398.00,19.610
399.00,19.603
400.00,19.581
401.00,19.566
402.00,19.556
403.00,19.546
404.00,19.528
405.00,19.516
406.00,19.509
407.00,19.496
408.00,19.485
409.00,19.423
410.00,19.383
411.00,19.387
412.00,19.340
413.00,19.382
414.00,19.358
415.00,19.386
416.00,19.397
417.00,19.389
418.00,19.431
419.00,19.489
420.00,19.534
421.00,19.562
422.00,19.578
423.00,19.614
424.00,19.638
425.00,19.655
426.00,19.704
427.00,19.749
428.00,19.779
429.00,19.818
430.00,19.869
431.00,19.927
432.00,19.957
433.00,20.051
434.00,20.077
435.00,20.153
436.00,20.224
437.00,20.283
438.00,20.330
439.00,20.401
440.00,20.502
441.00,20.561
442.00,20.645
443.00,20.719
444.00,20.817
445.00,20.933
446.00,21.021
447.00,21.160
448.00,21.198
449.00,21.272
450.00,21.379
451.00,21.443
452.00,21.556
453.00,21.665
454.00,21.769
455.00,21.923
456.00,22.002
457.00,22.098
458.00,22.227
459.00,22.332
460.00,22.503
461.00,22.620
462.00,22.770
463.00,22.859
464.00,23.023
465.00,23.125
466.00,23.273
467.00,23.396
468.00,23.450
469.00,23.629
470.00,23.717
471.00,23.834
472.00,23.962
473.00,24.078
474.00,24.190
475.00,24.321
476.00,24.455
477.00,24.535
478.00,24.696
479.00,24.859
480.00,25.009
481.00,25.150
482.00,25.293
483.00,25.445
484.00,25.617
485.00,25.739
486.00,25.907
487.00,26.062
488.00,26.190
489.00,26.379
490.00,26.557
491.00,26.635
492.00,26.899
493.00,27.032
494.00,27.051
495.00,27.210
496.00,27.348
497.00,27.465
498.00,27.624
499.00,27.794
500.00,27.898
501.00,28.017
502.00,28.207
503.00,28.320
504.00,28.392
505.00,28.569
506.00,28.685
507.00,28.757
508.00,28.881
509.00,29.055
510.00,29.204
511.00,29.281
512.00,29.440
513.00,29.602
514.00,29.732
515.00,29.898
516.00,29.968
517.00,30.044
518.00,30.194
519.00,30.300
520.00,30.354
521.00,30.477
522.00,30.546
523.00,30.595
524.00,30.709
525.00,30.824
526.00,30.928
527.00,31.036
528.00,31.108
529.00,31.271
530.00,31.409
531.00,31.527
532.00,31.585
533.00,31.697
534.00,31.759
535.00,31.889
536.00,31.954
537.00,32.056
538.00,32.141
539.00,32.129
540.00,32.181
541.00,32.234
542.00,32.386
543.00,32.484
544.00,32.555
545.00,32.641
546.00,32.662
547.00,32.843
548.00,32.902
549.00,32.946
550.00,33.076
551.00,33.155
552.00,33.233
553.00,33.267
554.00,33.369
555.00,33.415
556.00,33.439
557.00,33.553
558.00,33.574
559.00,33.650
560.00,33.731
561.00,33.783
562.00,33.842
563.00,33.871
564.00,33.927
565.00,33.975
566.00,33.984
567.00,34.034
568.00,34.078
569.00,34.132
570.00,34.211
571.00,34.301
572.00,34.225
573.00,34.220
574.00,34.371
575.00,34.302
576.00,34.397
577.00,34.459
578.00,34.550
579.00,34.613
580.00,34.663
581.00,34.814
582.00,34.897
583.00,34.888
584.00,34.957
585.00,35.110
586.00,35.161
587.00,35.169
588.00,35.185
589.00,35.137
590.00,35.273
591.00,35.315
592.00,35.275
593.00,35.377
594.00,35.483
595.00,35.553
596.00,35.626
597.00,35.683
598.00,35.684
599.00,35.701
600.00,35.768
601.00,35.799
602.00,35.852
603.00,35.918
604.00,35.978
605.00,36.015
606.00,36.032
607.00,36.051
608.00,36.258
609.00,36.320
610.00,36.170
611.00,36.310
612.00,36.326
613.00,36.384
614.00,36.412
615.00,36.500
616.00,36.644
617.00,36.654
618.00,36.628
619.00,36.777
620.00,36.792
621.00,36.862
622.00,36.939
623.00,36.977
624.00,37.113
625.00,37.180
626.00,37.231
627.00,37.282
628.00,37.345
629.00,37.367
630.00,37.417
631.00,37.484
632.00,37.607
633.00,37.728
634.00,37.837
635.00,37.938
636.00,37.945
637.00,38.041
638.00,38.095
639.00,38.204
640.00,38.260
641.00,38.270
642.00,38.397
643.00,38.461
644.00,38.579
645.00,38.622
646.00,38.762
647.00,38.857
648.00,38.910
649.00,39.022
650.00,39.021
651.00,39.232
652.00,39.302
653.00,39.319
654.00,39.436
655.00,39.561
656.00,39.830
657.00,39.748
658.00,39.854
659.00,40.031
660.00,40.046
661.00,40.135
662.00,40.140
663.00,40.302
664.00,40.646
665.00,40.764
666.00,40.620
667.00,40.773
668.00,40.863
669.00,41.009
670.00,41.307
671.00,41.373
672.00,41.307
673.00,41.333
674.00,41.532
675.00,41.655
676.00,41.852
677.00,41.983
678.00,41.869
679.00,41.947
680.00,42.154
681.00,42.388
682.00,42.404
683.00,42.413
684.00,42.682
685.00,42.686
686.00,42.565
687.00,42.842
688.00,42.898
689.00,43.020
690.00,43.280
691.00,43.542
692.00,43.347
693.00,43.371
694.00,43.551
695.00,43.808
696.00,43.867
697.00,43.862
698.00,44.053
699.00,44.357
700.00,44.285
701.00,44.293
702.00,44.423
703.00,44.641
704.00,44.684
705.00,44.782
706.00,44.880
707.00,44.673
708.00,44.925
709.00,45.439
710.00,45.230
711.00,45.186
712.00,45.348
713.00,45.450
714.00,45.592
715.00,45.570
716.00,45.659
717.00,45.781
718.00,45.870
719.00,45.986
720.00,46.031
721.00,50.413
722.00,50.441
723.00,50.473
724.00,50.512
725.00,50.637
726.00,50.606
727.00,50.626
728.00,50.682
729.00,50.826
730.00,50.767
731.00,50.836
732.00,50.842
733.00,50.871
734.00,51.050
735.00,51.030
736.00,51.087
737.00,51.075
738.00,51.201
739.00,51.267
740.00,51.248
741.00,51.341
742.00,51.342
743.00,51.376
744.00,51.429
745.00,51.489
746.00,51.476
747.00,51.448
748.00,51.507
749.00,51.497
750.00,51.533
751.00,51.575
752.00,51.540
753.00,51.589
754.00,51.636
755.00,51.658
756.00,51.697
757.00,51.704
758.00,51.806
759.00,51.705
760.00,51.752
761.00,51.741
762.00,51.830
763.00,51.874
764.00,51.919
765.00,51.929
766.00,51.871
767.00,51.978
768.00,51.909
769.00,51.987
770.00,52.008
771.00,52.001
772.00,52.112
773.00,52.023
774.00,52.221
775.00,52.154
776.00,52.071
777.00,52.165
778.00,52.091
779.00,52.221
780.00,52.116
781.00,52.194
782.00,52.222
783.00,52.181
784.00,52.193
785.00,52.201
786.00,52.240
787.00,52.199
788.00,52.244
789.00,52.267
790.00,52.166
791.00,52.344
792.00,52.190
793.00,52.231
794.00,52.224
795.00,52.231
796.00,52.235
797.00,52.173
798.00,52.253
799.00,52.141
800.00,52.185
801.00,52.120
802.00,52.172
803.00,52.266
804.00,52.227
805.00,52.194
806.00,52.173
807.00,52.138
808.00,52.205
809.00,52.119
810.00,52.098
811.00,52.179
812.00,52.156
813.00,52.100
814.00,52.219
815.00,52.087
816.00,52.195
817.00,52.188
818.00,52.100
819.00,52.062
820.00,52.044
821.00,52.024
822.00,52.004
823.00,51.973
824.00,52.125
825.00,52.034
826.00,51.977
827.00,51.995
828.00,52.066
829.00,52.098
830.00,51.967
831.00,54.373
832.00,54.401
833.00,54.339
834.00,54.359
835.00,54.346
836.00,54.340
837.00,54.315
838.00,54.324
839.00,54.311
840.00,54.245
841.00,54.255
842.00,54.259
843.00,54.287
844.00,54.111
845.00,54.215
846.00,54.214
847.00,54.219
848.00,54.189
849.00,54.136
850.00,54.182
851.00,54.078
852.00,54.072
853.00,54.045
854.00,54.021
855.00,53.919
856.00,53.961
857.00,53.937
858.00,53.893
859.00,53.897
860.00,53.901
861.00,53.923
862.00,53.835
863.00,53.876
864.00,53.842
865.00,53.848
866.00,53.818
867.00,53.853
868.00,53.826
869.00,53.702
870.00,53.843
871.00,53.869
872.00,53.771
873.00,53.796
874.00,53.799
875.00,53.777
876.00,53.775
877.00,53.748
878.00,53.757
879.00,53.691
880.00,53.715
881.00,53.678
882.00,53.695
883.00,53.658
884.00,53.655
885.00,53.623
886.00,53.589
887.00,53.627
888.00,53.616
889.00,53.569
890.00,53.603
891.00,53.559
892.00,53.510
893.00,53.513
894.00,53.540
895.00,53.458
896.00,53.439
897.00,53.425
898.00,53.423
899.00,53.387
900.00,53.376
901.00,53.407
902.00,53.383
903.00,53.362
904.00,53.338
905.00,53.331
906.00,53.354
907.00,53.316
908.00,53.264
909.00,53.271
910.00,53.212
911.00,53.233
912.00,53.234
913.00,53.195
914.00,53.166
915.00,53.141
916.00,53.113
917.00,53.074
918.00,53.104
919.00,53.061
920.00,53.047
921.00,53.048
922.00,53.018
923.00,52.981
924.00,52.979
925.00,52.996
926.00,52.948
927.00,52.953
928.00,52.905
929.00,52.941
930.00,52.880
931.00,52.861
932.00,52.838
933.00,52.853
934.00,52.680
935.00,52.805
936.00,52.784
937.00,52.734
938.00,52.740
939.00,52.738
940.00,52.716
941.00,52.699
942.00,52.814
943.00,52.685
944.00,52.624
945.00,52.634
946.00,52.635
947.00,52.588
948.00,52.573
949.00,52.545
950.00,52.545
951.00,52.516
952.00,52.495
953.00,52.455
954.00,52.461
955.00,52.402
956.00,52.412
957.00,52.442
958.00,52.381
959.00,52.328
960.00,52.332
961.00,52.308
962.00,52.312
963.00,52.262
964.00,52.249
965.00,52.277
966.00,52.242
967.00,52.246
968.00,52.213
969.00,52.259
970.00,52.241
971.00,52.237
972.00,52.190
973.00,52.246
974.00,52.257
975.00,52.205
976.00,52.241
977.00,52.217
978.00,52.261
979.00,52.214
980.00,52.230
981.00,52.243
982.00,52.212
983.00,52.225
984.00,52.200
985.00,52.230
986.00,52.175
987.00,52.195
988.00,52.167
989.00,52.173
990.00,52.161
991.00,52.127
992.00,52.153
993.00,52.118
994.00,52.089
995.00,52.083
996.00,52.075
997.00,52.080
998.00,52.062
999.00,52.065
1000.00,52.033
1001.00,52.006
1002.00,52.002
1003.00,52.001
1004.00,51.981
1005.00,51.933
1006.00,51.982
1007.00,51.935
1008.00,51.913
1009.00,51.913
1010.00,51.896
1011.00,51.891
1012.00,51.871
1013.00,51.868
1014.00,51.849
1015.00,51.869
1016.00,51.828
1017.00,51.829
1018.00,51.849
1019.00,51.756
1020.00,51.761
1021.00,51.727
1022.00,51.748
1023.00,51.708
1024.00,51.698
1025.00,51.690
1026.00,51.671
1027.00,51.635
1028.00,51.645
1029.00,51.629
1030.00,51.591
1031.00,51.630
1032.00,51.597
1033.00,51.589
1034.00,51.554
1035.00,51.506
1036.00,51.500
1037.00,51.483
1038.00,51.459
1039.00,51.438
1040.00,51.440
1041.00,51.397
1042.00,51.396
1043.00,51.377
1044.00,51.407
1045.00,51.395
1046.00,51.358
1047.00,51.391
1048.00,51.395
1049.00,51.404
1050.00,51.408
1051.00,51.448
1052.00,51.437
1053.00,51.438
1054.00,51.432
1055.00,51.459
1056.00,51.480
1057.00,51.456
1058.00,51.441
1059.00,51.444
1060.00,51.455
1061.00,51.446
1062.00,51.420
1063.00,51.438
1064.00,51.482
1065.00,51.415
1066.00,51.409
1067.00,51.407
1068.00,51.430
1069.00,51.393
1070.00,51.374
1071.00,51.356
1072.00,51.385
1073.00,51.369
1074.00,51.361
1075.00,51.351
1076.00,51.357
1077.00,51.326
1078.00,51.322
1079.00,51.334
1080.00,51.321
1081.00,51.305
1082.00,51.291
1083.00,51.275
1084.00,51.272
1085.00,51.270
1086.00,51.254
1087.00,51.248
1088.00,51.235
1089.00,51.241
1090.00,51.214
1091.00,51.229
1092.00,51.249
1093.00,51.176
1094.00,51.175
1095.00,51.156
1096.00,51.155
1097.00,51.166
1098.00,51.144
1099.00,51.142
1100.00,51.132
1101.00,51.116
1102.00,51.115
1103.00,51.118
1104.00,51.088
1105.00,51.076
1106.00,51.064
1107.00,51.063
1108.00,51.054
1109.00,51.045
1110.00,51.029
1111.00,51.035
1112.00,51.005
1113.00,50.987
1114.00,50.989
1115.00,50.989
1116.00,50.988
1117.00,50.975
1118.00,50.955
1119.00,50.964
1120.00,50.959
1121.00,50.962
1122.00,50.957
1123.00,50.942
1124.00,50.952
1125.00,50.970
1126.00,50.907
1127.00,50.915
1128.00,50.896
1129.00,50.874
1130.00,50.870
1131.00,50.869
1132.00,50.859
1133.00,50.880
1134.00,50.860
1135.00,50.854
1136.00,50.852
1137.00,50.842
1138.00,50.837
1139.00,50.860
1140.00,50.850
1141.00,50.827
1142.00,50.803
1143.00,50.812
1144.00,50.809
1145.00,50.809
1146.00,50.809
1147.00,50.795
1148.00,50.767
1149.00,50.790
1150.00,50.788
1151.00,50.781
1152.00,50.783
1153.00,50.772
1154.00,50.765
1155.00,50.780
1156.00,50.755
1157.00,50.770
1158.00,50.759
1159.00,50.763
1160.00,50.756
1161.00,50.768
1162.00,50.745
1163.00,50.743
1164.00,50.747
1165.00,50.742
1166.00,50.737
1167.00,50.719
1168.00,50.746
1169.00,50.728
1170.00,50.732
1171.00,50.738
1172.00,50.713
1173.00,50.695
1174.00,50.716
1175.00,50.701
1176.00,50.701
1177.00,50.688
1178.00,50.683
1179.00,50.703
1180.00,50.695
1181.00,50.701
1182.00,50.695
1183.00,50.688
1184.00,50.686
1185.00,50.700
1186.00,50.685
1187.00,50.678
1188.00,50.687
1189.00,50.678
1190.00,50.677
1191.00,50.670
1192.00,50.690
1193.00,50.688
1194.00,50.682
1195.00,50.657
1196.00,50.698
1197.00,50.693
1198.00,50.687
1199.00,50.680
1200.00,50.694
1201.00,50.722
1202.00,50.665
1203.00,50.655
1204.00,50.656
1205.00,50.673
1206.00,50.651
1207.00,50.660
1208.00,50.637
1209.00,50.651
1210.00,50.652
1211.00,50.651
1212.00,50.678
1213.00,50.640
1214.00,50.664
1215.00,50.656
1216.00,50.673
1217.00,50.679
1218.00,50.649
1219.00,50.660
1220.00,50.627
1221.00,50.665
1222.00,50.636
1223.00,50.666
1224.00,50.658
1225.00,50.649
1226.00,50.676
1227.00,50.633
1228.00,50.663
1229.00,50.673
1230.00,50.693
1231.00,50.673
1232.00,50.694
1233.00,50.692
1234.00,50.692
1235.00,50.691
1236.00,50.683
1237.00,50.686
1238.00,50.676
1239.00,50.692
1240.00,50.681
1241.00,50.684
1242.00,50.689
1243.00,50.706
1244.00,50.689
1245.00,50.731
1246.00,50.744
1247.00,50.724
1248.00,50.700
1249.00,50.710
1250.00,50.716
1251.00,50.711
1252.00,50.721
1253.00,50.694
1254.00,50.739
1255.00,50.730
1256.00,50.701
1257.00,50.703
1258.00,50.744
1259.00,50.752
1260.00,50.777
1261.00,50.762
1262.00,50.774
1263.00,50.745
1264.00,50.747
1265.00,50.764
1266.00,50.742
1267.00,50.763
1268.00,50.777
1269.00,50.767
1270.00,50.781
1271.00,50.776
1272.00,50.781
1273.00,50.806
1274.00,50.798
1275.00,50.811
1276.00,50.811
1277.00,50.798
1278.00,50.808
1279.00,50.815
1280.00,50.794
1281.00,50.811
1282.00,50.819
1283.00,50.811
1284.00,50.812
1285.00,50.806
1286.00,50.839
1287.00,50.843
1288.00,50.853
1289.00,50.839
1290.00,50.861
1291.00,50.845
1292.00,50.854
1293.00,50.842
1294.00,50.850
1295.00,50.877
1296.00,50.880
1297.00,50.901
1298.00,50.954
1299.00,50.897
1300.00,50.911
1301.00,50.908
1302.00,50.912
1303.00,50.917
1304.00,50.894
1305.00,50.914
1306.00,50.927
1307.00,50.922
1308.00,50.925
1309.00,50.933
1310.00,50.922
1311.00,50.913
1312.00,50.919
1313.00,50.916
1314.00,50.943
1315.00,50.954
1316.00,50.946
1317.00,50.993
1318.00,50.969
1319.00,50.982
1320.00,50.993
1321.00,51.156
1322.00,51.142
1323.00,51.129
1324.00,51.123
1325.00,51.110
1326.00,51.128
1327.00,51.126
1328.00,51.108
1329.00,51.110
1330.00,51.111
1331.00,51.119
1332.00,51.102
1333.00,51.116
1334.00,51.157
1335.00,51.169
1336.00,51.204
1337.00,51.233
1338.00,51.287
1339.00,51.333
1340.00,51.372
1341.00,51.441
1342.00,51.492
1343.00,51.524
1344.00,51.583
1345.00,51.664
1346.00,51.697
1347.00,51.719
1348.00,51.746
1349.00,51.765
1350.00,51.783
1351.00,51.775
1352.00,51.794
1353.00,51.849
1354.00,51.815
1355.00,51.754
1356.00,51.829
1357.00,51.835
1358.00,51.848
1359.00,51.844
1360.00,51.875
1361.00,51.796
1362.00,51.755
1363.00,51.874
1364.00,51.897
1365.00,51.813
1366.00,51.854
1367.00,51.816
1368.00,51.751
1369.00,51.836
1370.00,51.819
1371.00,51.752
1372.00,51.792
1373.00,51.813
1374.00,51.829
1375.00,51.801
1376.00,51.772
1377.00,51.788
1378.00,51.850
1379.00,51.847
1380.00,51.812
1381.00,51.870
1382.00,51.747
1383.00,51.789
1384.00,51.719
1385.00,51.737
1386.00,51.840
1387.00,51.776
1388.00,51.742
1389.00,51.768
1390.00,51.820
1391.00,51.797
1392.00,51.763
1393.00,51.791
1394.00,51.783
1395.00,51.754
1396.00,51.713
1397.00,51.773
1398.00,51.823
1399.00,51.736
1400.00,51.727
1401.00,51.767
1402.00,51.859
1403.00,51.802
1404.00,51.801
1405.00,51.831
1406.00,51.854
1407.00,51.785
1408.00,51.884
1409.00,51.834
1410.00,51.853
1411.00,51.870
1412.00,51.890
1413.00,51.779
1414.00,51.807
1415.00,51.872
1416.00,51.890
1417.00,51.900
1418.00,51.882
1419.00,51.898
1420.00,51.908
1421.00,51.957
1422.00,51.949
1423.00,51.967
1424.00,51.966
1425.00,51.984
1426.00,52.015
1427.00,52.016
1428.00,52.009
1429.00,52.054
1430.00,52.042
1431.00,52.049
1432.00,52.068
1433.00,52.086
1434.00,52.082
1435.00,52.128
1436.00,52.128
1437.00,52.124
1438.00,52.146
1439.00,52.174
1440.00,52.196
1441.00,52.199
1442.00,52.185
1443.00,52.233
1444.00,52.287
1445.00,52.228
1446.00,52.258
1447.00,52.301
1448.00,52.331
1449.00,52.328
1450.00,52.332
1451.00,52.349
1452.00,52.371
1453.00,52.363
1454.00,52.381
1455.00,52.401
1456.00,52.420
1457.00,52.456
1458.00,52.467
1459.00,52.485
1460.00,52.524
1461.00,52.504
1462.00,52.521
1463.00,52.528
1464.00,52.520
1465.00,52.539
1466.00,52.544
1467.00,52.559
1468.00,52.613
1469.00,52.591
1470.00,52.607
1471.00,52.627
1472.00,52.629
1473.00,52.639
1474.00,52.674
1475.00,52.675
1476.00,52.690
1477.00,52.691
1478.00,52.716
1479.00,52.725
1480.00,52.718
1481.00,52.714
1482.00,52.762
1483.00,52.781
1484.00,52.801
1485.00,52.790
1486.00,52.792
1487.00,52.822
1488.00,52.845
1489.00,52.826
1490.00,52.846
1491.00,52.853
1492.00,52.870
1493.00,52.848
1494.00,52.874
1495.00,52.876
1496.00,52.898
1497.00,52.866
1498.00,52.895
1499.00,52.906
1500.00,52.928
1501.00, 
1502.00, 
1503.00, 
1504.00, 
1505.00, 
1506.00, 
1507.00, 
1508.00, 
1509.00, 
1510.00, 
1511.00, 
1512.00, 
1513.00, 
1514.00, 
1515.00, 
1516.00, 
1517.00, 
1518.00, 
1519.00, 
1520.00, 
1521.00, 
1522.00, 
1523.00, 
1524.00, 
1525.00, 
1526.00, 
1527.00, 
1528.00, 
1529.00, 
1530.00, 
1531.00, 
1532.00, 
1533.00, 
1534.00, 
1535.00, 
1536.00, 
1537.00, 
1538.00, 
1539.00, 
1540.00, 
1541.00, 
1542.00, 
1543.00, 
1544.00, 
1545.00, 
1546.00, 
1547.00, 
1548.00, 
1549.00, 
1550.00, 
1551.00, 
1552.00, 
1553.00, 
1554.00, 
1555.00, 
1556.00, 
1557.00, 
1558.00, 
1559.00, 
1560.00, 
1561.00, 
1562.00, 
1563.00, 
1564.00, 
1565.00, 
1566.00, 
1567.00, 
1568.00, 
1569.00, 
1570.00, 
1571.00, 
1572.00, 
1573.00, 
1574.00, 
1575.00, 
1576.00, 
1577.00, 
1578.00, 
1579.00, 
1580.00, 
1581.00, 
1582.00, 
1583.00, 
1584.00, 
1585.00, 
1586.00, 
1587.00, 
1588.00, 
1589.00, 
1590.00, 
1591.00, 
1592.00, 
1593.00, 
1594.00, 
1595.00, 
1596.00, 
1597.00, 
1598.00, 
1599.00, 
1600.00, 
1601.00, 
1602.00, 
1603.00, 
1604.00, 
1605.00, 
1606.00, 
1607.00, 
1608.00, 
1609.00, 
1610.00, 
1611.00, 
1612.00, 
1613.00, 
1614.00, 
1615.00, 
1616.00, 
1617.00, 
1618.00, 
1619.00, 
1620.00, 
1621.00, 
1622.00, 
1623.00, 
1624.00, 
1625.00, 
1626.00, 
1627.00, 
1628.00, 
1629.00, 
1630.00, 
1631.00, 
1632.00, 
1633.00, 
1634.00, 
1635.00, 
1636.00, 
1637.00, 
1638.00, 
1639.00, 
1640.00, 
1641.00, 
1642.00, 
1643.00, 
1644.00, 
1645.00, 
1646.00, 
1647.00, 
1648.00, 
1649.00, 
1650.00, 
1651.00, 
1652.00, 
1653.00, 
1654.00, 
1655.00, 
1656.00, 
1657.00, 
1658.00, 
1659.00, 
1660.00, 
1661.00, 
1662.00, 
1663.00, 
1664.00, 
1665.00, 
1666.00, 
1667.00, 
1668.00, 
1669.00, 
1670.00, 
1671.00, 
1672.00, 
1673.00, 
1674.00, 
1675.00, 
1676.00, 
1677.00, 
1678.00, 
1679.00, 
1680.00, 
1681.00, 
1682.00, 
1683.00, 
1684.00, 
1685.00, 
1686.00, 
1687.00, 
1688.00, 
1689.00, 
1690.00, 
1691.00, 
1692.00, 
1693.00, 
1694.00, 
1695.00, 
1696.00, 
1697.00, 
1698.00, 
1699.00, 
1700.00, 
1701.00, 
1702.00, 
1703.00, 
1704.00, 
1705.00, 
1706.00, 
1707.00, 
1708.00, 
1709.00, 
1710.00, 
1711.00, 
1712.00, 
1713.00, 
1714.00, 
1715.00, 
1716.00, 
1717.00, 
1718.00, 
1719.00, 
1720.00, 
1721.00, 
1722.00, 
1723.00, 
1724.00, 
1725.00, 
1726.00, 
1727.00, 
1728.00, 
1729.00, 
1730.00, 
1731.00, 
1732.00, 
1733.00, 
1734.00, 
1735.00, 
1736.00, 
1737.00, 
1738.00, 
1739.00, 
1740.00, 
1741.00, 
1742.00, 
1743.00, 
1744.00, 
1745.00, 
1746.00, 
1747.00, 
1748.00, 
1749.00, 
1750.00, 
1751.00, 
1752.00, 
1753.00, 
1754.00, 
1755.00, 
1756.00, 
1757.00, 
1758.00, 
1759.00, 
1760.00, 
1761.00, 
1762.00, 
1763.00, 
1764.00, 
1765.00, 
1766.00, 
1767.00, 
1768.00, 
1769.00, 
1770.00, 
1771.00, 
1772.00, 
1773.00, 
1774.00, 
1775.00, 
1776.00, 
1777.00, 
1778.00, 
1779.00, 
1780.00, 
1781.00, 
1782.00, 
1783.00, 
1784.00, 
1785.00, 
1786.00, 
1787.00, 
1788.00, 
1789.00, 
1790.00, 
1791.00, 
1792.00, 
1793.00, 
1794.00, 
1795.00, 
1796.00, 
1797.00, 
1798.00, 
1799.00, 
1800.00, 
1801.00, 
1802.00, 
1803.00, 
1804.00, 
1805.00, 
1806.00, 
1807.00, 
1808.00, 
1809.00, 
1810.00, 
1811.00, 
1812.00, 
1813.00, 
1814.00, 
1815.00, 
1816.00, 
1817.00, 
1818.00, 
1819.00, 
1820.00, 
1821.00, 
1822.00, 
1823.00, 
1824.00, 
1825.00, 
1826.00, 
1827.00, 
1828.00, 
1829.00, 
1830.00, 
1831.00, 
1832.00, 
1833.00, 
1834.00, 
1835.00, 
1836.00, 
1837.00, 
1838.00, 
1839.00, 
1840.00, 
1841.00, 
1842.00, 
1843.00, 
1844.00, 
1845.00, 
1846.00, 
1847.00, 
1848.00, 
1849.00, 
1850.00, 
1851.00, 
1852.00, 
1853.00, 
1854.00, 
1855.00, 
1856.00, 
1857.00, 
1858.00, 
1859.00, 
1860.00, 
1861.00, 
1862.00, 
1863.00, 
1864.00, 
1865.00, 
1866.00, 
1867.00, 
1868.00, 
1869.00, 
1870.00, 
1871.00, 
1872.00, 
1873.00, 
1874.00, 
1875.00, 
1876.00, 
1877.00, 
1878.00, 
1879.00, 
1880.00, 
1881.00, 
1882.00, 
1883.00, 
1884.00, 
1885.00, 
1886.00, 
1887.00, 
1888.00, 
1889.00, 
1890.00, 
1891.00, 
1892.00, 
1893.00, 
1894.00, 
1895.00, 
1896.00, 
1897.00, 
1898.00, 
1899.00, 
1900.00, 
1901.00, 
1902.00, 
1903.00, 
1904.00, 
1905.00, 
1906.00, 
1907.00, 
1908.00, 
1909.00, 
1910.00, 
1911.00, 
1912.00, 
1913.00, 
1914.00, 
1915.00, 
1916.00, 
1917.00, 
1918.00, 
1919.00, 
1920.00, 
1921.00, 
1922.00, 
1923.00, 
1924.00, 
1925.00, 
1926.00, 
1927.00, 
1928.00, 
1929.00, 
1930.00, 
1931.00, 
1932.00, 
1933.00, 
1934.00, 
1935.00, 
1936.00, 
1937.00, 
1938.00, 
1939.00, 
1940.00, 
1941.00, 
1942.00, 
1943.00, 
1944.00, 
1945.00, 
1946.00, 
1947.00, 
1948.00, 
1949.00, 
1950.00, 
1951.00, 
1952.00, 
1953.00, 
1954.00, 
1955.00, 
1956.00, 
1957.00, 
1958.00, 
1959.00, 
1960.00, 
1961.00, 
1962.00, 
1963.00, 
1964.00, 
1965.00, 
1966.00, 
1967.00, 
1968.00, 
1969.00, 
1970.00, 
1971.00, 
1972.00, 
1973.00, 
1974.00, 
1975.00, 
1976.00, 
1977.00, 
1978.00, 
1979.00, 
1980.00, 
1981.00, 
1982.00, 
1983.00, 
1984.00, 
1985.00, 
1986.00, 
1987.00, 
1988.00, 
1989.00, 
1990.00, 
1991.00, 
1992.00, 
1993.00, 
1994.00, 
1995.00, 
1996.00, 
1997.00, 
1998.00, 
1999.00, 
2000.00, 
2001.00, 
2002.00, 
2003.00, 
2004.00, 
2005.00, 
2006.00, 
2007.00, 
2008.00, 
2009.00, 
2010.00, 
2011.00, 
2012.00, 
2013.00, 
2014.00, 
2015.00, 
2016.00, 
2017.00, 
2018.00, 
2019.00, 
2020.00, 
2021.00, 
2022.00, 
2023.00, 
2024.00, 
2025.00, 
2026.00, 
2027.00, 
2028.00, 
2029.00, 
2030.00, 
2031.00, 
2032.00, 
2033.00, 
2034.00, 
2035.00, 
2036.00, 
2037.00, 
2038.00, 
2039.00, 
2040.00, 
2041.00, 
2042.00, 
2043.00, 
2044.00, 
2045.00, 
2046.00, 
2047.00, 
2048.00, 
2049.00, 
2050.00, 
2051.00, 
2052.00, 
2053.00, 
2054.00, 
2055.00, 
2056.00, 
2057.00, 
2058.00, 
2059.00, 
2060.00, 
2061.00, 
2062.00, 
2063.00, 
2064.00, 
2065.00, 
2066.00, 
2067.00, 
2068.00, 
2069.00, 
2070.00, 
2071.00, 
2072.00, 
2073.00, 
2074.00, 
2075.00, 
2076.00, 
2077.00, 
2078.00, 
2079.00, 
2080.00, 
2081.00, 
2082.00, 
2083.00, 
2084.00, 
2085.00, 
2086.00, 
2087.00, 
2088.00, 
2089.00, 
2090.00, 
2091.00, 
2092.00, 
2093.00, 
2094.00, 
2095.00, 
2096.00, 
2097.00, 
2098.00, 
2099.00, 
2100.00, 
2101.00, 
2102.00, 
2103.00, 
2104.00, 
2105.00, 
2106.00, 
2107.00, 
2108.00, 
2109.00, 
2110.00, 
2111.00, 
2112.00, 
2113.00, 
2114.00, 
2115.00, 
2116.00, 
2117.00, 
2118.00, 
2119.00, 
2120.00, 
2121.00, 
2122.00, 
2123.00, 
2124.00, 
2125.00, 
2126.00, 
2127.00, 
2128.00, 
2129.00, 
2130.00, 
2131.00, 
2132.00, 
2133.00, 
2134.00, 
2135.00, 
2136.00, 
2137.00, 
2138.00, 
2139.00, 
2140.00, 
2141.00, 
2142.00, 
2143.00, 
2144.00, 
2145.00, 
2146.00, 
2147.00, 
2148.00, 
2149.00, 
2150.00, 
2151.00, 
2152.00, 
2153.00, 
2154.00, 
2155.00, 
2156.00, 
2157.00, 
2158.00, 
2159.00, 
2160.00, 
2161.00, 
2162.00, 
2163.00, 
2164.00, 
2165.00, 
2166.00, 
2167.00, 
2168.00, 
2169.00, 
2170.00, 
2171.00, 
2172.00, 
2173.00, 
2174.00, 
2175.00, 
2176.00, 
2177.00, 
2178.00, 
2179.00, 
2180.00, 
2181.00, 
2182.00, 
2183.00, 
2184.00, 
2185.00, 
2186.00, 
2187.00, 
2188.00, 
2189.00, 
2190.00, 
2191.00, 
2192.00, 
2193.00, 
2194.00, 
2195.00, 
2196.00, 
2197.00, 
2198.00, 
2199.00, 
2200.00, 
2201.00, 
2202.00, 
2203.00, 
2204.00, 
2205.00, 
2206.00, 
2207.00, 
2208.00, 
2209.00, 
2210.00, 
2211.00, 
2212.00, 
2213.00, 
2214.00, 
2215.00, 
2216.00, 
2217.00, 
2218.00, 
2219.00, 
2220.00, 
2221.00, 
2222.00, 
2223.00, 
2224.00, 
2225.00, 
2226.00, 
2227.00, 
2228.00, 
2229.00, 
2230.00, 
2231.00, 
2232.00, 
2233.00, 
2234.00, 
2235.00, 
2236.00, 
2237.00, 
2238.00, 
2239.00, 
2240.00, 
2241.00, 
2242.00, 
2243.00, 
2244.00, 
2245.00, 
2246.00, 
2247.00, 
2248.00, 
2249.00, 
2250.00, 
2251.00, 
2252.00, 
2253.00, 
2254.00, 
2255.00, 
2256.00, 
2257.00, 
2258.00, 
2259.00, 
2260.00, 
2261.00, 
2262.00, 
2263.00, 
2264.00, 
2265.00, 
2266.00, 
2267.00, 
2268.00, 
2269.00, 
2270.00, 
2271.00, 
2272.00, 
2273.00, 
2274.00, 
2275.00, 
2276.00, 
2277.00, 
2278.00, 
2279.00, 
2280.00, 
2281.00, 
2282.00, 
2283.00, 
2284.00, 
2285.00, 
2286.00, 
2287.00, 
2288.00, 
2289.00, 
2290.00, 
2291.00, 
2292.00, 
2293.00, 
2294.00, 
2295.00, 
2296.00, 
2297.00, 
2298.00, 
2299.00, 
2300.00, 
2301.00, 
2302.00, 
2303.00, 
2304.00, 
2305.00, 
2306.00, 
2307.00, 
2308.00, 
2309.00, 
2310.00, 
2311.00, 
2312.00, 
2313.00, 
2314.00, 
2315.00, 
2316.00, 
2317.00, 
2318.00, 
2319.00, 
2320.00, 
2321.00, 
2322.00, 
2323.00, 
2324.00, 
2325.00, 
2326.00, 
2327.00, 
2328.00, 
2329.00, 
2330.00, 
2331.00, 
2332.00, 
2333.00, 
2334.00, 
2335.00, 
2336.00, 
2337.00, 
2338.00, 
2339.00, 
2340.00, 
2341.00, 
2342.00, 
2343.00, 
2344.00, 
2345.00, 
2346.00, 
2347.00, 
2348.00, 
2349.00, 
2350.00, 
2351.00, 
2352.00, 
2353.00, 
2354.00, 
2355.00, 
2356.00, 
2357.00, 
2358.00, 
2359.00, 
2360.00, 
2361.00, 
2362.00, 
2363.00, 
2364.00, 
2365.00, 
2366.00, 
2367.00, 
2368.00, 
2369.00, 
2370.00, 
2371.00, 
2372.00, 
2373.00, 
2374.00, 
2375.00, 
2376.00, 
2377.00, 
2378.00, 
2379.00, 
2380.00, 
2381.00, 
2382.00, 
2383.00, 
2384.00, 
2385.00, 
2386.00, 
2387.00, 
2388.00, 
2389.00, 
2390.00, 
2391.00, 
2392.00, 
2393.00, 
2394.00, 
2395.00, 
2396.00, 
2397.00, 
2398.00, 
2399.00, 
2400.00, 
2401.00, 
2402.00, 
2403.00, 
2404.00, 
2405.00, 
2406.00, 
2407.00, 
2408.00, 
2409.00, 
2410.00, 
2411.00, 
2412.00, 
2413.00, 
2414.00, 
2415.00, 
2416.00, 
2417.00, 
2418.00, 
2419.00, 
2420.00, 
2421.00, 
2422.00, 
2423.00, 
2424.00, 
2425.00, 
2426.00, 
2427.00, 
2428.00, 
2429.00, 
2430.00, 
2431.00, 
2432.00, 
2433.00, 
2434.00, 
2435.00, 
2436.00, 
2437.00, 
2438.00, 
2439.00, 
2440.00, 
2441.00, 
2442.00, 
2443.00, 
2444.00, 
2445.00, 
2446.00, 
2447.00, 
2448.00, 
2449.00, 
2450.00, 
2451.00, 
2452.00, 
2453.00, 
2454.00, 
2455.00, 
2456.00, 
2457.00, 
2458.00, 
2459.00, 
2460.00, 
2461.00, 
2462.00, 
2463.00, 
2464.00, 
2465.00, 
2466.00, 
2467.00, 
2468.00, 
2469.00, 
2470.00, 
2471.00, 
2472.00, 
2473.00, 
2474.00, 
2475.00, 
2476.00, 
2477.00, 
2478.00, 
2479.00, 
2480.00, 
2481.00, 
2482.00, 
2483.00, 
2484.00, 
2485.00, 
2486.00, 
2487.00, 
2488.00, 
2489.00, 
2490.00, 
2491.00, 
2492.00, 
2493.00, 
2494.00, 
2495.00, 
2496.00, 
2497.00, 
2498.00, 
2499.00, 
2500.00, 
2501.00, 
2502.00, 
2503.00, 
2504.00, 
2505.00, 
2506.00, 
2507.00, 
2508.00, 
2509.00, 
2510.00, 
2511.00, 
2512.00, 
2513.00, 
2514.00, 
2515.00, 
2516.00, 
2517.00, 
2518.00, 
2519.00, 
2520.00, 
2521.00, 
2522.00, 
2523.00, 
2524.00, 
2525.00, 
2526.00, 
2527.00, 
2528.00, 
2529.00, 
2530.00, 
2531.00, 
2532.00, 
2533.00, 
2534.00, 
2535.00, 
2536.00, 
2537.00, 
2538.00, 
2539.00, 
2540.00, 
2541.00, 
2542.00, 
2543.00, 
2544.00, 
2545.00, 
2546.00, 
2547.00, 
2548.00, 
2549.00, 
2550.00, 
2551.00, 
2552.00, 
2553.00, 
2554.00, 
2555.00, 
2556.00, 
2557.00, 
2558.00, 
2559.00, 
2560.00, 
2561.00, 
2562.00, 
2563.00, 
2564.00, 
2565.00, 
2566.00, 
2567.00, 
2568.00, 
2569.00, 
2570.00, 
2571.00, 
2572.00, 
2573.00, 
2574.00, 
2575.00, 
2576.00, 
2577.00, 
2578.00, 
2579.00, 
2580.00, 
2581.00, 
2582.00, 
2583.00, 
2584.00, 
2585.00, 
2586.00, 
2587.00, 
2588.00, 
2589.00, 
2590.00, 
2591.00, 
2592.00, 
2593.00, 
2594.00, 
2595.00, 
2596.00, 
2597.00, 
2598.00, 
2599.00, 
2600.00, 
