"2cP1 - RawData"
"Wavelength nm.","T%"
200.00,0.001
201.00,0.002
202.00,-0.001
203.00,-0.001
204.00,0.001
205.00,0.005
206.00,0.001
207.00,0.001
208.00,-0.001
209.00,0.002
210.00,0.002
211.00,0.001
212.00,-0.001
213.00,0.001
214.00,0.002
215.00,-0.001
216.00,0.004
217.00,-0.002
218.00,-0.000
219.00,0.001
220.00,0.001
221.00,0.002
222.00,-0.001
223.00,-0.001
224.00,-0.002
225.00,0.003
226.00,0.003
227.00,0.000
228.00,0.001
229.00,0.002
230.00,-0.001
231.00,-0.001
232.00,0.003
233.00,-0.001
234.00,0.001
235.00,0.001
236.00,-0.001
237.00,-0.001
238.00,0.001
239.00,-0.000
240.00,0.001
241.00,0.000
242.00,0.000
243.00,0.002
244.00,0.001
245.00,0.003
246.00,0.001
247.00,0.000
248.00,-0.002
249.00,0.000
250.00,0.001
251.00,-0.000
252.00,0.001
253.00,0.003
254.00,0.001
255.00,-0.001
256.00,0.001
257.00,-0.000
258.00,0.000
259.00,-0.001
260.00,0.002
261.00,0.001
262.00,-0.000
263.00,-0.001
264.00,0.001
265.00,0.000
266.00,0.002
267.00,0.000
268.00,-0.001
269.00,-0.000
270.00,-0.000
271.00,-0.002
272.00,0.001
273.00,0.001
274.00,-0.001
275.00,0.000
276.00,-0.001
277.00,0.001
278.00,0.000
279.00,0.001
280.00,0.000
281.00,-0.001
282.00,0.000
283.00,0.001
284.00,-0.002
285.00,-0.001
286.00,0.001
287.00,0.001
288.00,-0.002
289.00,-0.001
290.00,0.001
291.00,-0.000
292.00,-0.001
293.00,0.001
294.00,-0.002
295.00,0.001
296.00,0.000
297.00,0.001
298.00,0.001
299.00,0.003
300.00,0.002
301.00,0.003
302.00,0.006
303.00,0.008
304.00,0.012
305.00,0.017
306.00,0.023
307.00,0.041
308.00,0.060
309.00,0.096
310.00,0.133
311.00,0.178
312.00,0.244
313.00,0.339
314.00,0.440
315.00,0.576
316.00,0.730
317.00,0.927
318.00,1.135
319.00,1.402
320.00,1.703
321.00,2.042
322.00,2.422
323.00,2.852
324.00,3.305
325.00,3.766
326.00,4.268
327.00,4.791
328.00,5.363
329.00,5.933
330.00,6.550
331.00,7.182
332.00,7.795
333.00,8.468
334.00,8.975
335.00,9.701
336.00,10.355
337.00,10.973
338.00,11.553
339.00,12.161
340.00,12.793
341.00,13.327
342.00,13.890
343.00,14.424
344.00,14.930
345.00,15.430
346.00,15.836
347.00,16.275
348.00,16.701
349.00,17.079
350.00,17.446
351.00,17.773
352.00,18.079
353.00,18.385
354.00,18.703
355.00,18.941
356.00,19.179
357.00,19.435
358.00,19.641
359.00,19.861
360.00,19.996
361.00,20.164
362.00,20.349
363.00,20.472
364.00,20.602
365.00,20.699
366.00,20.835
367.00,20.860
368.00,20.919
369.00,21.022
370.00,21.121
371.00,21.063
372.00,21.083
373.00,21.054
374.00,21.035
375.00,21.066
376.00,21.063
377.00,20.979
378.00,20.953
379.00,20.897
380.00,20.891
381.00,20.877
382.00,20.843
383.00,20.887
384.00,20.881
385.00,20.945
386.00,20.965
387.00,20.973
388.00,21.021
389.00,21.031
390.00,21.066
391.00,21.112
392.00,21.093
393.00,21.105
394.00,21.153
395.00,21.137
396.00,21.153
397.00,21.176
398.00,21.161
399.00,21.169
400.00,21.164
401.00,21.156
402.00,21.155
403.00,21.148
404.00,21.113
405.00,21.129
406.00,21.130
407.00,21.122
408.00,21.083
409.00,21.035
410.00,21.015
411.00,20.995
412.00,20.980
413.00,21.005
414.00,20.997
415.00,20.997
416.00,21.007
417.00,21.025
418.00,21.043
419.00,21.074
420.00,21.080
421.00,21.159
422.00,21.198
423.00,21.207
424.00,21.239
425.00,21.241
426.00,21.272
427.00,21.317
428.00,21.333
429.00,21.313
430.00,21.467
431.00,21.484
432.00,21.531
433.00,21.619
434.00,21.658
435.00,21.718
436.00,21.767
437.00,21.836
438.00,21.896
439.00,21.960
440.00,22.027
441.00,22.088
442.00,22.186
443.00,22.252
444.00,22.361
445.00,22.409
446.00,22.547
447.00,22.705
448.00,22.709
449.00,22.813
450.00,22.875
451.00,22.985
452.00,23.099
453.00,23.202
454.00,23.299
455.00,23.428
456.00,23.503
457.00,23.636
458.00,23.709
459.00,23.827
460.00,23.957
461.00,24.062
462.00,24.248
463.00,24.316
464.00,24.455
465.00,24.523
466.00,24.661
467.00,24.810
468.00,24.875
469.00,25.041
470.00,25.122
471.00,25.236
472.00,25.344
473.00,25.424
474.00,25.516
475.00,25.670
476.00,25.769
477.00,25.902
478.00,26.023
479.00,26.186
480.00,26.322
481.00,26.472
482.00,26.588
483.00,26.726
484.00,26.899
485.00,27.037
486.00,27.153
487.00,27.333
488.00,27.398
489.00,27.607
490.00,27.657
491.00,27.907
492.00,28.081
493.00,28.174
494.00,28.219
495.00,28.380
496.00,28.487
497.00,28.606
498.00,28.770
499.00,28.956
500.00,28.988
501.00,29.063
502.00,29.307
503.00,29.416
504.00,29.554
505.00,29.699
506.00,29.792
507.00,29.897
508.00,30.013
509.00,30.181
510.00,30.276
511.00,30.375
512.00,30.577
513.00,30.596
514.00,30.753
515.00,30.930
516.00,30.935
517.00,31.057
518.00,31.180
519.00,31.283
520.00,31.432
521.00,31.502
522.00,31.614
523.00,31.664
524.00,31.782
525.00,31.866
526.00,31.998
527.00,32.083
528.00,32.107
529.00,32.253
530.00,32.337
531.00,32.503
532.00,32.551
533.00,32.688
534.00,32.773
535.00,32.875
536.00,32.994
537.00,33.051
538.00,33.162
539.00,33.177
540.00,33.328
541.00,33.358
542.00,33.457
543.00,33.551
544.00,33.599
545.00,33.705
546.00,33.738
547.00,33.866
548.00,33.918
549.00,33.984
550.00,34.122
551.00,34.176
552.00,34.270
553.00,34.326
554.00,34.386
555.00,34.452
556.00,34.475
557.00,34.579
558.00,34.620
559.00,34.732
560.00,34.761
561.00,34.863
562.00,34.886
563.00,34.874
564.00,34.999
565.00,35.014
566.00,35.051
567.00,35.084
568.00,35.123
569.00,35.206
570.00,35.203
571.00,35.272
572.00,35.274
573.00,35.350
574.00,35.440
575.00,35.451
576.00,35.428
577.00,35.509
578.00,35.548
579.00,35.703
580.00,35.777
581.00,35.888
582.00,35.962
583.00,36.019
584.00,36.119
585.00,36.153
586.00,36.223
587.00,36.281
588.00,36.357
589.00,36.374
590.00,36.439
591.00,36.478
592.00,36.501
593.00,36.551
594.00,36.609
595.00,36.677
596.00,36.692
597.00,36.800
598.00,36.842
599.00,36.877
600.00,36.957
601.00,37.029
602.00,37.036
603.00,37.086
604.00,37.120
605.00,37.181
606.00,37.224
607.00,37.260
608.00,37.404
609.00,37.376
610.00,37.404
611.00,37.519
612.00,37.501
613.00,37.519
614.00,37.594
615.00,37.689
616.00,37.794
617.00,37.805
618.00,37.855
619.00,37.922
620.00,37.926
621.00,37.998
622.00,38.062
623.00,38.117
624.00,38.219
625.00,38.280
626.00,38.319
627.00,38.425
628.00,38.463
629.00,38.480
630.00,38.516
631.00,38.607
632.00,38.681
633.00,38.735
634.00,38.789
635.00,38.849
636.00,38.996
637.00,39.124
638.00,39.217
639.00,39.241
640.00,39.254
641.00,39.372
642.00,39.438
643.00,39.454
644.00,39.593
645.00,39.620
646.00,39.768
647.00,39.846
648.00,39.885
649.00,40.062
650.00,40.048
651.00,40.129
652.00,40.209
653.00,40.323
654.00,40.409
655.00,40.429
656.00,40.552
657.00,40.684
658.00,40.778
659.00,40.894
660.00,40.933
661.00,40.873
662.00,41.052
663.00,41.182
664.00,41.356
665.00,41.363
666.00,41.434
667.00,41.625
668.00,41.751
669.00,41.638
670.00,41.866
671.00,41.942
672.00,41.958
673.00,42.098
674.00,42.230
675.00,42.323
676.00,42.459
677.00,42.456
678.00,42.523
679.00,42.596
680.00,42.781
681.00,42.875
682.00,42.910
683.00,43.042
684.00,43.140
685.00,43.229
686.00,43.150
687.00,43.393
688.00,43.477
689.00,43.460
690.00,43.700
691.00,43.777
692.00,43.815
693.00,43.877
694.00,43.960
695.00,44.158
696.00,44.176
697.00,44.274
698.00,44.480
699.00,44.573
700.00,44.559
701.00,44.683
702.00,44.826
703.00,44.866
704.00,44.893
705.00,45.148
706.00,45.233
707.00,44.956
708.00,45.026
709.00,45.371
710.00,45.354
711.00,45.411
712.00,45.418
713.00,45.570
714.00,45.587
715.00,45.685
716.00,45.561
717.00,45.747
718.00,46.024
719.00,45.986
720.00,46.056
721.00,50.129
722.00,50.140
723.00,50.147
724.00,50.106
725.00,50.169
726.00,50.198
727.00,50.148
728.00,50.219
729.00,50.277
730.00,50.314
731.00,50.334
732.00,50.330
733.00,50.381
734.00,50.476
735.00,50.435
736.00,50.583
737.00,50.536
738.00,50.558
739.00,50.673
740.00,50.617
741.00,50.597
742.00,50.667
743.00,50.757
744.00,50.735
745.00,50.774
746.00,50.766
747.00,50.753
748.00,50.784
749.00,50.798
750.00,50.744
751.00,50.756
752.00,50.724
753.00,50.747
754.00,50.787
755.00,50.811
756.00,50.851
757.00,50.783
758.00,50.950
759.00,50.907
760.00,50.873
761.00,50.877
762.00,50.938
763.00,50.970
764.00,50.993
765.00,51.012
766.00,50.963
767.00,51.031
768.00,51.057
769.00,51.029
770.00,51.060
771.00,51.061
772.00,51.097
773.00,51.083
774.00,51.157
775.00,51.202
776.00,51.119
777.00,51.138
778.00,51.044
779.00,51.173
780.00,51.162
781.00,51.136
782.00,51.185
783.00,51.166
784.00,51.112
785.00,51.156
786.00,51.142
787.00,51.201
788.00,51.135
789.00,51.232
790.00,51.089
791.00,51.166
792.00,51.107
793.00,51.110
794.00,51.056
795.00,51.134
796.00,51.075
797.00,51.087
798.00,51.120
799.00,51.031
800.00,50.999
801.00,51.026
802.00,51.039
803.00,51.002
804.00,51.000
805.00,51.009
806.00,51.021
807.00,50.963
808.00,50.996
809.00,50.951
810.00,50.931
811.00,50.958
812.00,50.923
813.00,50.856
814.00,50.953
815.00,50.894
816.00,50.968
817.00,50.805
818.00,50.785
819.00,50.843
820.00,50.805
821.00,50.774
822.00,50.802
823.00,50.757
824.00,50.860
825.00,50.806
826.00,50.813
827.00,50.813
828.00,50.758
829.00,50.749
830.00,50.695
831.00,53.211
832.00,53.191
833.00,53.136
834.00,53.172
835.00,53.161
836.00,53.170
837.00,53.129
838.00,53.080
839.00,53.142
840.00,53.065
841.00,53.066
842.00,53.073
843.00,53.066
844.00,52.942
845.00,52.979
846.00,52.963
847.00,52.975
848.00,52.964
849.00,52.824
850.00,52.927
851.00,52.824
852.00,52.832
853.00,52.795
854.00,52.755
855.00,52.685
856.00,52.677
857.00,52.655
858.00,52.655
859.00,52.629
860.00,52.616
861.00,52.632
862.00,52.540
863.00,52.572
864.00,52.554
865.00,52.531
866.00,52.532
867.00,52.531
868.00,52.499
869.00,52.482
870.00,52.477
871.00,52.454
872.00,52.447
873.00,52.446
874.00,52.448
875.00,52.447
876.00,52.400
877.00,52.415
878.00,52.461
879.00,52.332
880.00,52.392
881.00,52.471
882.00,52.344
883.00,52.341
884.00,52.305
885.00,52.280
886.00,52.259
887.00,52.278
888.00,52.236
889.00,52.202
890.00,52.241
891.00,52.185
892.00,52.131
893.00,52.153
894.00,52.180
895.00,52.005
896.00,52.093
897.00,52.063
898.00,52.060
899.00,52.027
900.00,52.010
901.00,52.028
902.00,52.002
903.00,51.987
904.00,51.980
905.00,51.935
906.00,51.937
907.00,51.918
908.00,51.898
909.00,51.873
910.00,51.841
911.00,51.834
912.00,51.845
913.00,51.775
914.00,51.767
915.00,51.749
916.00,51.736
917.00,51.744
918.00,51.710
919.00,51.631
920.00,51.678
921.00,51.656
922.00,51.632
923.00,51.601
924.00,51.594
925.00,51.581
926.00,51.549
927.00,51.529
928.00,51.515
929.00,51.509
930.00,51.478
931.00,51.458
932.00,51.418
933.00,51.450
934.00,51.296
935.00,51.394
936.00,51.393
937.00,51.359
938.00,51.321
939.00,51.326
940.00,51.300
941.00,51.287
942.00,51.255
943.00,51.265
944.00,51.231
945.00,51.217
946.00,51.215
947.00,51.193
948.00,51.165
949.00,51.126
950.00,51.089
951.00,51.162
952.00,51.062
953.00,51.020
954.00,51.017
955.00,50.970
956.00,50.961
957.00,50.938
958.00,50.940
959.00,50.875
960.00,50.862
961.00,50.863
962.00,50.866
963.00,50.837
964.00,50.813
965.00,50.809
966.00,50.852
967.00,50.802
968.00,50.773
969.00,50.797
970.00,50.782
971.00,50.784
972.00,50.759
973.00,50.777
974.00,50.801
975.00,50.764
976.00,50.783
977.00,50.783
978.00,50.824
979.00,50.775
980.00,50.792
981.00,50.887
982.00,50.773
983.00,50.780
984.00,50.753
985.00,50.776
986.00,50.733
987.00,50.743
988.00,50.738
989.00,50.729
990.00,50.724
991.00,50.686
992.00,50.708
993.00,50.674
994.00,50.665
995.00,50.648
996.00,50.634
997.00,50.633
998.00,50.600
999.00,50.610
1000.00,50.568
1001.00,50.571
1002.00,50.570
1003.00,50.562
1004.00,50.553
1005.00,50.505
1006.00,50.536
1007.00,50.501
1008.00,50.494
1009.00,50.477
1010.00,50.465
1011.00,50.460
1012.00,50.429
1013.00,50.428
1014.00,50.392
1015.00,50.415
1016.00,50.372
1017.00,50.371
1018.00,50.347
1019.00,50.315
1020.00,50.320
1021.00,50.291
1022.00,50.298
1023.00,50.242
1024.00,50.248
1025.00,50.223
1026.00,50.201
1027.00,50.220
1028.00,50.181
1029.00,50.181
1030.00,50.148
1031.00,50.161
1032.00,50.119
1033.00,50.122
1034.00,50.092
1035.00,50.052
1036.00,50.047
1037.00,50.025
1038.00,49.987
1039.00,49.974
1040.00,49.968
1041.00,49.938
1042.00,49.923
1043.00,49.909
1044.00,49.937
1045.00,49.922
1046.00,49.912
1047.00,49.935
1048.00,49.938
1049.00,49.947
1050.00,49.959
1051.00,49.965
1052.00,49.984
1053.00,49.988
1054.00,49.982
1055.00,50.000
1056.00,50.005
1057.00,50.001
1058.00,49.991
1059.00,49.996
1060.00,50.001
1061.00,49.998
1062.00,49.981
1063.00,49.980
1064.00,49.972
1065.00,49.961
1066.00,49.946
1067.00,49.935
1068.00,49.941
1069.00,49.931
1070.00,49.895
1071.00,49.877
1072.00,49.918
1073.00,49.916
1074.00,49.880
1075.00,49.855
1076.00,49.856
1077.00,49.839
1078.00,49.826
1079.00,49.807
1080.00,49.819
1081.00,49.795
1082.00,49.794
1083.00,49.778
1084.00,49.774
1085.00,49.769
1086.00,49.750
1087.00,49.757
1088.00,49.767
1089.00,49.735
1090.00,49.728
1091.00,49.720
1092.00,49.716
1093.00,49.684
1094.00,49.687
1095.00,49.658
1096.00,49.650
1097.00,49.642
1098.00,49.643
1099.00,49.632
1100.00,49.634
1101.00,49.634
1102.00,49.624
1103.00,49.589
1104.00,49.576
1105.00,49.563
1106.00,49.571
1107.00,49.565
1108.00,49.547
1109.00,49.543
1110.00,49.543
1111.00,49.545
1112.00,49.523
1113.00,49.511
1114.00,49.504
1115.00,49.487
1116.00,49.492
1117.00,49.468
1118.00,49.477
1119.00,49.456
1120.00,49.470
1121.00,49.454
1122.00,49.442
1123.00,49.437
1124.00,49.427
1125.00,49.422
1126.00,49.410
1127.00,49.412
1128.00,49.390
1129.00,49.366
1130.00,49.368
1131.00,49.350
1132.00,49.363
1133.00,49.377
1134.00,49.381
1135.00,49.332
1136.00,49.336
1137.00,49.329
1138.00,49.326
1139.00,49.339
1140.00,49.328
1141.00,49.314
1142.00,49.305
1143.00,49.296
1144.00,49.289
1145.00,49.277
1146.00,49.300
1147.00,49.281
1148.00,49.272
1149.00,49.299
1150.00,49.279
1151.00,49.278
1152.00,49.261
1153.00,49.262
1154.00,49.255
1155.00,49.269
1156.00,49.246
1157.00,49.247
1158.00,49.238
1159.00,49.246
1160.00,49.238
1161.00,49.236
1162.00,49.214
1163.00,49.217
1164.00,49.210
1165.00,49.206
1166.00,49.211
1167.00,49.200
1168.00,49.209
1169.00,49.214
1170.00,49.220
1171.00,49.200
1172.00,49.201
1173.00,49.194
1174.00,49.193
1175.00,49.191
1176.00,49.192
1177.00,49.180
1178.00,49.169
1179.00,49.194
1180.00,49.177
1181.00,49.192
1182.00,49.189
1183.00,49.170
1184.00,49.166
1185.00,49.176
1186.00,49.177
1187.00,49.176
1188.00,49.162
1189.00,49.164
1190.00,49.155
1191.00,49.154
1192.00,49.167
1193.00,49.164
1194.00,49.162
1195.00,49.134
1196.00,49.159
1197.00,49.155
1198.00,49.151
1199.00,49.141
1200.00,49.139
1201.00,49.146
1202.00,49.134
1203.00,49.139
1204.00,49.119
1205.00,49.136
1206.00,49.120
1207.00,49.128
1208.00,49.105
1209.00,49.110
1210.00,49.110
1211.00,49.109
1212.00,49.143
1213.00,49.094
1214.00,49.118
1215.00,49.114
1216.00,49.105
1217.00,49.121
1218.00,49.103
1219.00,49.120
1220.00,49.099
1221.00,49.124
1222.00,49.099
1223.00,49.121
1224.00,49.118
1225.00,49.102
1226.00,49.119
1227.00,49.102
1228.00,49.117
1229.00,49.120
1230.00,49.154
1231.00,49.154
1232.00,49.156
1233.00,49.153
1234.00,49.157
1235.00,49.148
1236.00,49.147
1237.00,49.134
1238.00,49.142
1239.00,49.143
1240.00,49.153
1241.00,49.156
1242.00,49.158
1243.00,49.175
1244.00,49.137
1245.00,49.175
1246.00,49.183
1247.00,49.169
1248.00,49.159
1249.00,49.166
1250.00,49.189
1251.00,49.168
1252.00,49.185
1253.00,49.174
1254.00,49.190
1255.00,49.186
1256.00,49.170
1257.00,49.154
1258.00,49.213
1259.00,49.191
1260.00,49.206
1261.00,49.204
1262.00,49.192
1263.00,49.200
1264.00,49.210
1265.00,49.220
1266.00,49.205
1267.00,49.211
1268.00,49.243
1269.00,49.219
1270.00,49.243
1271.00,49.239
1272.00,49.250
1273.00,49.261
1274.00,49.241
1275.00,49.256
1276.00,49.263
1277.00,49.246
1278.00,49.280
1279.00,49.270
1280.00,49.273
1281.00,49.279
1282.00,49.291
1283.00,49.280
1284.00,49.263
1285.00,49.258
1286.00,49.284
1287.00,49.273
1288.00,49.283
1289.00,49.280
1290.00,49.303
1291.00,49.295
1292.00,49.317
1293.00,49.293
1294.00,49.318
1295.00,49.312
1296.00,49.325
1297.00,49.334
1298.00,49.345
1299.00,49.323
1300.00,49.338
1301.00,49.348
1302.00,49.351
1303.00,49.380
1304.00,49.347
1305.00,49.368
1306.00,49.371
1307.00,49.380
1308.00,49.386
1309.00,49.379
1310.00,49.371
1311.00,49.382
1312.00,49.381
1313.00,49.372
1314.00,49.399
1315.00,49.401
1316.00,49.408
1317.00,49.417
1318.00,49.418
1319.00,49.435
1320.00,49.442
1321.00,49.598
1322.00,49.621
1323.00,49.605
1324.00,49.597
1325.00,49.590
1326.00,49.616
1327.00,49.604
1328.00,49.598
1329.00,49.597
1330.00,49.613
1331.00,49.603
1332.00,49.595
1333.00,49.615
1334.00,49.650
1335.00,49.661
1336.00,49.681
1337.00,49.710
1338.00,49.777
1339.00,49.828
1340.00,49.880
1341.00,49.931
1342.00,49.997
1343.00,50.045
1344.00,50.097
1345.00,50.139
1346.00,50.194
1347.00,50.207
1348.00,50.230
1349.00,50.272
1350.00,50.279
1351.00,50.281
1352.00,50.288
1353.00,50.317
1354.00,50.304
1355.00,50.252
1356.00,50.302
1357.00,50.296
1358.00,50.313
1359.00,50.333
1360.00,50.407
1361.00,50.284
1362.00,50.295
1363.00,50.364
1364.00,50.315
1365.00,50.319
1366.00,50.368
1367.00,50.305
1368.00,50.269
1369.00,50.327
1370.00,50.294
1371.00,50.254
1372.00,50.276
1373.00,50.274
1374.00,50.304
1375.00,50.287
1376.00,50.272
1377.00,50.279
1378.00,50.349
1379.00,50.316
1380.00,50.297
1381.00,50.306
1382.00,50.223
1383.00,50.270
1384.00,50.217
1385.00,50.233
1386.00,50.278
1387.00,50.257
1388.00,50.209
1389.00,50.231
1390.00,50.307
1391.00,50.261
1392.00,50.242
1393.00,50.280
1394.00,50.245
1395.00,50.220
1396.00,50.193
1397.00,50.228
1398.00,50.297
1399.00,50.220
1400.00,50.225
1401.00,50.243
1402.00,50.295
1403.00,50.272
1404.00,50.272
1405.00,50.296
1406.00,50.286
1407.00,50.313
1408.00,50.309
1409.00,50.260
1410.00,50.321
1411.00,50.298
1412.00,50.349
1413.00,50.308
1414.00,50.283
1415.00,50.351
1416.00,50.372
1417.00,50.377
1418.00,50.365
1419.00,50.358
1420.00,50.384
1421.00,50.425
1422.00,50.414
1423.00,50.421
1424.00,50.452
1425.00,50.445
1426.00,50.481
1427.00,50.488
1428.00,50.488
1429.00,50.516
1430.00,50.523
1431.00,50.525
1432.00,50.539
1433.00,50.559
1434.00,50.565
1435.00,50.591
1436.00,50.594
1437.00,50.594
1438.00,50.617
1439.00,50.644
1440.00,50.679
1441.00,50.670
1442.00,50.664
1443.00,50.721
1444.00,50.721
1445.00,50.717
1446.00,50.726
1447.00,50.761
1448.00,50.787
1449.00,50.796
1450.00,50.787
1451.00,50.802
1452.00,50.807
1453.00,50.827
1454.00,50.849
1455.00,50.856
1456.00,50.890
1457.00,50.889
1458.00,50.900
1459.00,50.939
1460.00,50.934
1461.00,50.964
1462.00,50.955
1463.00,50.988
1464.00,50.990
1465.00,50.997
1466.00,51.003
1467.00,51.005
1468.00,51.053
1469.00,51.046
1470.00,51.053
1471.00,51.083
1472.00,51.080
1473.00,51.105
1474.00,51.130
1475.00,51.133
1476.00,51.162
1477.00,51.149
1478.00,51.172
1479.00,51.179
1480.00,51.179
1481.00,51.189
1482.00,51.227
1483.00,51.218
1484.00,51.238
1485.00,51.257
1486.00,51.245
1487.00,51.272
1488.00,51.280
1489.00,51.278
1490.00,51.299
1491.00,51.304
1492.00,51.332
1493.00,51.323
1494.00,51.330
1495.00,51.354
1496.00,51.341
1497.00,51.340
1498.00,51.364
1499.00,51.378
1500.00,51.398
1501.00, 
1502.00, 
1503.00, 
1504.00, 
1505.00, 
1506.00, 
1507.00, 
1508.00, 
1509.00, 
1510.00, 
1511.00, 
1512.00, 
1513.00, 
1514.00, 
1515.00, 
1516.00, 
1517.00, 
1518.00, 
1519.00, 
1520.00, 
1521.00, 
1522.00, 
1523.00, 
1524.00, 
1525.00, 
1526.00, 
1527.00, 
1528.00, 
1529.00, 
1530.00, 
1531.00, 
1532.00, 
1533.00, 
1534.00, 
1535.00, 
1536.00, 
1537.00, 
1538.00, 
1539.00, 
1540.00, 
1541.00, 
1542.00, 
1543.00, 
1544.00, 
1545.00, 
1546.00, 
1547.00, 
1548.00, 
1549.00, 
1550.00, 
1551.00, 
1552.00, 
1553.00, 
1554.00, 
1555.00, 
1556.00, 
1557.00, 
1558.00, 
1559.00, 
1560.00, 
1561.00, 
1562.00, 
1563.00, 
1564.00, 
1565.00, 
1566.00, 
1567.00, 
1568.00, 
1569.00, 
1570.00, 
1571.00, 
1572.00, 
1573.00, 
1574.00, 
1575.00, 
1576.00, 
1577.00, 
1578.00, 
1579.00, 
1580.00, 
1581.00, 
1582.00, 
1583.00, 
1584.00, 
1585.00, 
1586.00, 
1587.00, 
1588.00, 
1589.00, 
1590.00, 
1591.00, 
1592.00, 
1593.00, 
1594.00, 
1595.00, 
1596.00, 
1597.00, 
1598.00, 
1599.00, 
1600.00, 
1601.00, 
1602.00, 
1603.00, 
1604.00, 
1605.00, 
1606.00, 
1607.00, 
1608.00, 
1609.00, 
1610.00, 
1611.00, 
1612.00, 
1613.00, 
1614.00, 
1615.00, 
1616.00, 
1617.00, 
1618.00, 
1619.00, 
1620.00, 
1621.00, 
1622.00, 
1623.00, 
1624.00, 
1625.00, 
1626.00, 
1627.00, 
1628.00, 
1629.00, 
1630.00, 
1631.00, 
1632.00, 
1633.00, 
1634.00, 
1635.00, 
1636.00, 
1637.00, 
1638.00, 
1639.00, 
1640.00, 
1641.00, 
1642.00, 
1643.00, 
1644.00, 
1645.00, 
1646.00, 
1647.00, 
1648.00, 
1649.00, 
1650.00, 
1651.00, 
1652.00, 
1653.00, 
1654.00, 
1655.00, 
1656.00, 
1657.00, 
1658.00, 
1659.00, 
1660.00, 
1661.00, 
1662.00, 
1663.00, 
1664.00, 
1665.00, 
1666.00, 
1667.00, 
1668.00, 
1669.00, 
1670.00, 
1671.00, 
1672.00, 
1673.00, 
1674.00, 
1675.00, 
1676.00, 
1677.00, 
1678.00, 
1679.00, 
1680.00, 
1681.00, 
1682.00, 
1683.00, 
1684.00, 
1685.00, 
1686.00, 
1687.00, 
1688.00, 
1689.00, 
1690.00, 
1691.00, 
1692.00, 
1693.00, 
1694.00, 
1695.00, 
1696.00, 
1697.00, 
1698.00, 
1699.00, 
1700.00, 
1701.00, 
1702.00, 
1703.00, 
1704.00, 
1705.00, 
1706.00, 
1707.00, 
1708.00, 
1709.00, 
1710.00, 
1711.00, 
1712.00, 
1713.00, 
1714.00, 
1715.00, 
1716.00, 
1717.00, 
1718.00, 
1719.00, 
1720.00, 
1721.00, 
1722.00, 
1723.00, 
1724.00, 
1725.00, 
1726.00, 
1727.00, 
1728.00, 
1729.00, 
1730.00, 
1731.00, 
1732.00, 
1733.00, 
1734.00, 
1735.00, 
1736.00, 
1737.00, 
1738.00, 
1739.00, 
1740.00, 
1741.00, 
1742.00, 
1743.00, 
1744.00, 
1745.00, 
1746.00, 
1747.00, 
1748.00, 
1749.00, 
1750.00, 
1751.00, 
1752.00, 
1753.00, 
1754.00, 
1755.00, 
1756.00, 
1757.00, 
1758.00, 
1759.00, 
1760.00, 
1761.00, 
1762.00, 
1763.00, 
1764.00, 
1765.00, 
1766.00, 
1767.00, 
1768.00, 
1769.00, 
1770.00, 
1771.00, 
1772.00, 
1773.00, 
1774.00, 
1775.00, 
1776.00, 
1777.00, 
1778.00, 
1779.00, 
1780.00, 
1781.00, 
1782.00, 
1783.00, 
1784.00, 
1785.00, 
1786.00, 
1787.00, 
1788.00, 
1789.00, 
1790.00, 
1791.00, 
1792.00, 
1793.00, 
1794.00, 
1795.00, 
1796.00, 
1797.00, 
1798.00, 
1799.00, 
1800.00, 
1801.00, 
1802.00, 
1803.00, 
1804.00, 
1805.00, 
1806.00, 
1807.00, 
1808.00, 
1809.00, 
1810.00, 
1811.00, 
1812.00, 
1813.00, 
1814.00, 
1815.00, 
1816.00, 
1817.00, 
1818.00, 
1819.00, 
1820.00, 
1821.00, 
1822.00, 
1823.00, 
1824.00, 
1825.00, 
1826.00, 
1827.00, 
1828.00, 
1829.00, 
1830.00, 
1831.00, 
1832.00, 
1833.00, 
1834.00, 
1835.00, 
1836.00, 
1837.00, 
1838.00, 
1839.00, 
1840.00, 
1841.00, 
1842.00, 
1843.00, 
1844.00, 
1845.00, 
1846.00, 
1847.00, 
1848.00, 
1849.00, 
1850.00, 
1851.00, 
1852.00, 
1853.00, 
1854.00, 
1855.00, 
1856.00, 
1857.00, 
1858.00, 
1859.00, 
1860.00, 
1861.00, 
1862.00, 
1863.00, 
1864.00, 
1865.00, 
1866.00, 
1867.00, 
1868.00, 
1869.00, 
1870.00, 
1871.00, 
1872.00, 
1873.00, 
1874.00, 
1875.00, 
1876.00, 
1877.00, 
1878.00, 
1879.00, 
1880.00, 
1881.00, 
1882.00, 
1883.00, 
1884.00, 
1885.00, 
1886.00, 
1887.00, 
1888.00, 
1889.00, 
1890.00, 
1891.00, 
1892.00, 
1893.00, 
1894.00, 
1895.00, 
1896.00, 
1897.00, 
1898.00, 
1899.00, 
1900.00, 
1901.00, 
1902.00, 
1903.00, 
1904.00, 
1905.00, 
1906.00, 
1907.00, 
1908.00, 
1909.00, 
1910.00, 
1911.00, 
1912.00, 
1913.00, 
1914.00, 
1915.00, 
1916.00, 
1917.00, 
1918.00, 
1919.00, 
1920.00, 
1921.00, 
1922.00, 
1923.00, 
1924.00, 
1925.00, 
1926.00, 
1927.00, 
1928.00, 
1929.00, 
1930.00, 
1931.00, 
1932.00, 
1933.00, 
1934.00, 
1935.00, 
1936.00, 
1937.00, 
1938.00, 
1939.00, 
1940.00, 
1941.00, 
1942.00, 
1943.00, 
1944.00, 
1945.00, 
1946.00, 
1947.00, 
1948.00, 
1949.00, 
1950.00, 
1951.00, 
1952.00, 
1953.00, 
1954.00, 
1955.00, 
1956.00, 
1957.00, 
1958.00, 
1959.00, 
1960.00, 
1961.00, 
1962.00, 
1963.00, 
1964.00, 
1965.00, 
1966.00, 
1967.00, 
1968.00, 
1969.00, 
1970.00, 
1971.00, 
1972.00, 
1973.00, 
1974.00, 
1975.00, 
1976.00, 
1977.00, 
1978.00, 
1979.00, 
1980.00, 
1981.00, 
1982.00, 
1983.00, 
1984.00, 
1985.00, 
1986.00, 
1987.00, 
1988.00, 
1989.00, 
1990.00, 
1991.00, 
1992.00, 
1993.00, 
1994.00, 
1995.00, 
1996.00, 
1997.00, 
1998.00, 
1999.00, 
2000.00, 
2001.00, 
2002.00, 
2003.00, 
2004.00, 
2005.00, 
2006.00, 
2007.00, 
2008.00, 
2009.00, 
2010.00, 
2011.00, 
2012.00, 
2013.00, 
2014.00, 
2015.00, 
2016.00, 
2017.00, 
2018.00, 
2019.00, 
2020.00, 
2021.00, 
2022.00, 
2023.00, 
2024.00, 
2025.00, 
2026.00, 
2027.00, 
2028.00, 
2029.00, 
2030.00, 
2031.00, 
2032.00, 
2033.00, 
2034.00, 
2035.00, 
2036.00, 
2037.00, 
2038.00, 
2039.00, 
2040.00, 
2041.00, 
2042.00, 
2043.00, 
2044.00, 
2045.00, 
2046.00, 
2047.00, 
2048.00, 
2049.00, 
2050.00, 
2051.00, 
2052.00, 
2053.00, 
2054.00, 
2055.00, 
2056.00, 
2057.00, 
2058.00, 
2059.00, 
2060.00, 
2061.00, 
2062.00, 
2063.00, 
2064.00, 
2065.00, 
2066.00, 
2067.00, 
2068.00, 
2069.00, 
2070.00, 
2071.00, 
2072.00, 
2073.00, 
2074.00, 
2075.00, 
2076.00, 
2077.00, 
2078.00, 
2079.00, 
2080.00, 
2081.00, 
2082.00, 
2083.00, 
2084.00, 
2085.00, 
2086.00, 
2087.00, 
2088.00, 
2089.00, 
2090.00, 
2091.00, 
2092.00, 
2093.00, 
2094.00, 
2095.00, 
2096.00, 
2097.00, 
2098.00, 
2099.00, 
2100.00, 
2101.00, 
2102.00, 
2103.00, 
2104.00, 
2105.00, 
2106.00, 
2107.00, 
2108.00, 
2109.00, 
2110.00, 
2111.00, 
2112.00, 
2113.00, 
2114.00, 
2115.00, 
2116.00, 
2117.00, 
2118.00, 
2119.00, 
2120.00, 
2121.00, 
2122.00, 
2123.00, 
2124.00, 
2125.00, 
2126.00, 
2127.00, 
2128.00, 
2129.00, 
2130.00, 
2131.00, 
2132.00, 
2133.00, 
2134.00, 
2135.00, 
2136.00, 
2137.00, 
2138.00, 
2139.00, 
2140.00, 
2141.00, 
2142.00, 
2143.00, 
2144.00, 
2145.00, 
2146.00, 
2147.00, 
2148.00, 
2149.00, 
2150.00, 
2151.00, 
2152.00, 
2153.00, 
2154.00, 
2155.00, 
2156.00, 
2157.00, 
2158.00, 
2159.00, 
2160.00, 
2161.00, 
2162.00, 
2163.00, 
2164.00, 
2165.00, 
2166.00, 
2167.00, 
2168.00, 
2169.00, 
2170.00, 
2171.00, 
2172.00, 
2173.00, 
2174.00, 
2175.00, 
2176.00, 
2177.00, 
2178.00, 
2179.00, 
2180.00, 
2181.00, 
2182.00, 
2183.00, 
2184.00, 
2185.00, 
2186.00, 
2187.00, 
2188.00, 
2189.00, 
2190.00, 
2191.00, 
2192.00, 
2193.00, 
2194.00, 
2195.00, 
2196.00, 
2197.00, 
2198.00, 
2199.00, 
2200.00, 
2201.00, 
2202.00, 
2203.00, 
2204.00, 
2205.00, 
2206.00, 
2207.00, 
2208.00, 
2209.00, 
2210.00, 
2211.00, 
2212.00, 
2213.00, 
2214.00, 
2215.00, 
2216.00, 
2217.00, 
2218.00, 
2219.00, 
2220.00, 
2221.00, 
2222.00, 
2223.00, 
2224.00, 
2225.00, 
2226.00, 
2227.00, 
2228.00, 
2229.00, 
2230.00, 
2231.00, 
2232.00, 
2233.00, 
2234.00, 
2235.00, 
2236.00, 
2237.00, 
2238.00, 
2239.00, 
2240.00, 
2241.00, 
2242.00, 
2243.00, 
2244.00, 
2245.00, 
2246.00, 
2247.00, 
2248.00, 
2249.00, 
2250.00, 
2251.00, 
2252.00, 
2253.00, 
2254.00, 
2255.00, 
2256.00, 
2257.00, 
2258.00, 
2259.00, 
2260.00, 
2261.00, 
2262.00, 
2263.00, 
2264.00, 
2265.00, 
2266.00, 
2267.00, 
2268.00, 
2269.00, 
2270.00, 
2271.00, 
2272.00, 
2273.00, 
2274.00, 
2275.00, 
2276.00, 
2277.00, 
2278.00, 
2279.00, 
2280.00, 
2281.00, 
2282.00, 
2283.00, 
2284.00, 
2285.00, 
2286.00, 
2287.00, 
2288.00, 
2289.00, 
2290.00, 
2291.00, 
2292.00, 
2293.00, 
2294.00, 
2295.00, 
2296.00, 
2297.00, 
2298.00, 
2299.00, 
2300.00, 
2301.00, 
2302.00, 
2303.00, 
2304.00, 
2305.00, 
2306.00, 
2307.00, 
2308.00, 
2309.00, 
2310.00, 
2311.00, 
2312.00, 
2313.00, 
2314.00, 
2315.00, 
2316.00, 
2317.00, 
2318.00, 
2319.00, 
2320.00, 
2321.00, 
2322.00, 
2323.00, 
2324.00, 
2325.00, 
2326.00, 
2327.00, 
2328.00, 
2329.00, 
2330.00, 
2331.00, 
2332.00, 
2333.00, 
2334.00, 
2335.00, 
2336.00, 
2337.00, 
2338.00, 
2339.00, 
2340.00, 
2341.00, 
2342.00, 
2343.00, 
2344.00, 
2345.00, 
2346.00, 
2347.00, 
2348.00, 
2349.00, 
2350.00, 
2351.00, 
2352.00, 
2353.00, 
2354.00, 
2355.00, 
2356.00, 
2357.00, 
2358.00, 
2359.00, 
2360.00, 
2361.00, 
2362.00, 
2363.00, 
2364.00, 
2365.00, 
2366.00, 
2367.00, 
2368.00, 
2369.00, 
2370.00, 
2371.00, 
2372.00, 
2373.00, 
2374.00, 
2375.00, 
2376.00, 
2377.00, 
2378.00, 
2379.00, 
2380.00, 
2381.00, 
2382.00, 
2383.00, 
2384.00, 
2385.00, 
2386.00, 
2387.00, 
2388.00, 
2389.00, 
2390.00, 
2391.00, 
2392.00, 
2393.00, 
2394.00, 
2395.00, 
2396.00, 
2397.00, 
2398.00, 
2399.00, 
2400.00, 
2401.00, 
2402.00, 
2403.00, 
2404.00, 
2405.00, 
2406.00, 
2407.00, 
2408.00, 
2409.00, 
2410.00, 
2411.00, 
2412.00, 
2413.00, 
2414.00, 
2415.00, 
2416.00, 
2417.00, 
2418.00, 
2419.00, 
2420.00, 
2421.00, 
2422.00, 
2423.00, 
2424.00, 
2425.00, 
2426.00, 
2427.00, 
2428.00, 
2429.00, 
2430.00, 
2431.00, 
2432.00, 
2433.00, 
2434.00, 
2435.00, 
2436.00, 
2437.00, 
2438.00, 
2439.00, 
2440.00, 
2441.00, 
2442.00, 
2443.00, 
2444.00, 
2445.00, 
2446.00, 
2447.00, 
2448.00, 
2449.00, 
2450.00, 
2451.00, 
2452.00, 
2453.00, 
2454.00, 
2455.00, 
2456.00, 
2457.00, 
2458.00, 
2459.00, 
2460.00, 
2461.00, 
2462.00, 
2463.00, 
2464.00, 
2465.00, 
2466.00, 
2467.00, 
2468.00, 
2469.00, 
2470.00, 
2471.00, 
2472.00, 
2473.00, 
2474.00, 
2475.00, 
2476.00, 
2477.00, 
2478.00, 
2479.00, 
2480.00, 
2481.00, 
2482.00, 
2483.00, 
2484.00, 
2485.00, 
2486.00, 
2487.00, 
2488.00, 
2489.00, 
2490.00, 
2491.00, 
2492.00, 
2493.00, 
2494.00, 
2495.00, 
2496.00, 
2497.00, 
2498.00, 
2499.00, 
2500.00, 
2501.00, 
2502.00, 
2503.00, 
2504.00, 
2505.00, 
2506.00, 
2507.00, 
2508.00, 
2509.00, 
2510.00, 
2511.00, 
2512.00, 
2513.00, 
2514.00, 
2515.00, 
2516.00, 
2517.00, 
2518.00, 
2519.00, 
2520.00, 
2521.00, 
2522.00, 
2523.00, 
2524.00, 
2525.00, 
2526.00, 
2527.00, 
2528.00, 
2529.00, 
2530.00, 
2531.00, 
2532.00, 
2533.00, 
2534.00, 
2535.00, 
2536.00, 
2537.00, 
2538.00, 
2539.00, 
2540.00, 
2541.00, 
2542.00, 
2543.00, 
2544.00, 
2545.00, 
2546.00, 
2547.00, 
2548.00, 
2549.00, 
2550.00, 
2551.00, 
2552.00, 
2553.00, 
2554.00, 
2555.00, 
2556.00, 
2557.00, 
2558.00, 
2559.00, 
2560.00, 
2561.00, 
2562.00, 
2563.00, 
2564.00, 
2565.00, 
2566.00, 
2567.00, 
2568.00, 
2569.00, 
2570.00, 
2571.00, 
2572.00, 
2573.00, 
2574.00, 
2575.00, 
2576.00, 
2577.00, 
2578.00, 
2579.00, 
2580.00, 
2581.00, 
2582.00, 
2583.00, 
2584.00, 
2585.00, 
2586.00, 
2587.00, 
2588.00, 
2589.00, 
2590.00, 
2591.00, 
2592.00, 
2593.00, 
2594.00, 
2595.00, 
2596.00, 
2597.00, 
2598.00, 
2599.00, 
2600.00, 
