"2cP4 - RawData"
"Wavelength nm.","T%"
200.00,0.000
201.00,-0.000
202.00,0.002
203.00,0.001
204.00,-0.000
205.00,0.001
206.00,-0.001
207.00,0.001
208.00,0.001
209.00,0.001
210.00,0.002
211.00,0.003
212.00,-0.001
213.00,0.000
214.00,0.001
215.00,-0.001
216.00,-0.002
217.00,0.001
218.00,0.000
219.00,0.001
220.00,0.003
221.00,0.001
222.00,-0.001
223.00,0.004
224.00,0.002
225.00,-0.000
226.00,0.002
227.00,-0.001
228.00,-0.001
229.00,-0.002
230.00,0.000
231.00,0.001
232.00,-0.001
233.00,0.001
234.00,0.000
235.00,0.001
236.00,0.000
237.00,0.002
238.00,0.002
239.00,0.001
240.00,0.001
241.00,-0.000
242.00,0.001
243.00,0.001
244.00,0.002
245.00,0.001
246.00,0.000
247.00,-0.000
248.00,-0.002
249.00,0.001
250.00,0.002
251.00,0.001
252.00,0.001
253.00,0.001
254.00,0.000
255.00,-0.001
256.00,0.000
257.00,-0.000
258.00,0.000
259.00,-0.001
260.00,0.001
261.00,-0.001
262.00,-0.001
263.00,0.000
264.00,-0.001
265.00,0.000
266.00,0.002
267.00,-0.002
268.00,0.000
269.00,0.001
270.00,-0.001
271.00,0.000
272.00,0.000
273.00,-0.000
274.00,-0.001
275.00,-0.001
276.00,-0.002
277.00,-0.001
278.00,-0.000
279.00,0.000
280.00,0.002
281.00,-0.000
282.00,0.001
283.00,0.002
284.00,-0.001
285.00,0.000
286.00,0.002
287.00,-0.000
288.00,0.002
289.00,-0.000
290.00,-0.001
291.00,0.000
292.00,0.001
293.00,-0.001
294.00,0.001
295.00,-0.000
296.00,0.002
297.00,-0.000
298.00,-0.000
299.00,0.002
300.00,-0.000
301.00,0.001
302.00,0.004
303.00,0.004
304.00,0.010
305.00,0.015
306.00,0.024
307.00,0.037
308.00,0.056
309.00,0.083
310.00,0.125
311.00,0.164
312.00,0.224
313.00,0.312
314.00,0.408
315.00,0.528
316.00,0.669
317.00,0.853
318.00,1.048
319.00,1.297
320.00,1.566
321.00,1.880
322.00,2.223
323.00,2.616
324.00,3.042
325.00,3.441
326.00,3.878
327.00,4.380
328.00,4.887
329.00,5.401
330.00,5.956
331.00,6.518
332.00,7.084
333.00,7.692
334.00,8.202
335.00,8.790
336.00,9.372
337.00,9.939
338.00,10.505
339.00,10.998
340.00,11.557
341.00,12.070
342.00,12.570
343.00,13.051
344.00,13.494
345.00,13.928
346.00,14.285
347.00,14.696
348.00,15.065
349.00,15.402
350.00,15.717
351.00,16.031
352.00,16.265
353.00,16.546
354.00,16.782
355.00,17.016
356.00,17.234
357.00,17.450
358.00,17.605
359.00,17.790
360.00,17.956
361.00,18.051
362.00,18.208
363.00,18.374
364.00,18.462
365.00,18.540
366.00,18.596
367.00,18.636
368.00,18.703
369.00,18.724
370.00,18.827
371.00,18.755
372.00,18.791
373.00,18.763
374.00,18.779
375.00,18.736
376.00,18.716
377.00,18.690
378.00,18.622
379.00,18.577
380.00,18.531
381.00,18.543
382.00,18.491
383.00,18.517
384.00,18.524
385.00,18.553
386.00,18.552
387.00,18.575
388.00,18.607
389.00,18.628
390.00,18.618
391.00,18.682
392.00,18.655
393.00,18.665
394.00,18.686
395.00,18.665
396.00,18.666
397.00,18.689
398.00,18.706
399.00,18.701
400.00,18.671
401.00,18.674
402.00,18.661
403.00,18.677
404.00,18.652
405.00,18.654
406.00,18.641
407.00,18.648
408.00,18.623
409.00,18.583
410.00,18.553
411.00,18.534
412.00,18.525
413.00,18.560
414.00,18.537
415.00,18.545
416.00,18.577
417.00,18.585
418.00,18.638
419.00,18.654
420.00,18.716
421.00,18.761
422.00,18.783
423.00,18.829
424.00,18.858
425.00,18.891
426.00,18.924
427.00,18.979
428.00,18.987
429.00,19.056
430.00,19.093
431.00,19.154
432.00,19.189
433.00,19.270
434.00,19.318
435.00,19.375
436.00,19.459
437.00,19.526
438.00,19.591
439.00,19.660
440.00,19.726
441.00,19.826
442.00,19.887
443.00,19.978
444.00,20.102
445.00,20.145
446.00,20.222
447.00,20.451
448.00,20.447
449.00,20.573
450.00,20.640
451.00,20.758
452.00,20.855
453.00,20.985
454.00,21.084
455.00,21.202
456.00,21.294
457.00,21.423
458.00,21.499
459.00,21.615
460.00,21.809
461.00,21.905
462.00,22.127
463.00,22.226
464.00,22.339
465.00,22.434
466.00,22.572
467.00,22.733
468.00,22.831
469.00,22.979
470.00,23.076
471.00,23.190
472.00,23.319
473.00,23.422
474.00,23.540
475.00,23.656
476.00,23.774
477.00,23.895
478.00,24.037
479.00,24.214
480.00,24.354
481.00,24.511
482.00,24.647
483.00,24.806
484.00,24.937
485.00,25.111
486.00,25.246
487.00,25.416
488.00,25.587
489.00,25.732
490.00,25.907
491.00,25.987
492.00,26.247
493.00,26.374
494.00,26.401
495.00,26.552
496.00,26.690
497.00,26.824
498.00,27.007
499.00,27.170
500.00,27.265
501.00,27.382
502.00,27.521
503.00,27.656
504.00,27.787
505.00,27.931
506.00,28.036
507.00,28.129
508.00,28.267
509.00,28.418
510.00,28.532
511.00,28.639
512.00,28.837
513.00,28.922
514.00,29.064
515.00,29.213
516.00,29.323
517.00,29.427
518.00,29.544
519.00,29.640
520.00,29.735
521.00,29.813
522.00,29.935
523.00,29.968
524.00,30.093
525.00,30.187
526.00,30.309
527.00,30.392
528.00,30.477
529.00,30.592
530.00,30.729
531.00,30.877
532.00,30.947
533.00,31.071
534.00,31.170
535.00,31.247
536.00,31.327
537.00,31.426
538.00,31.499
539.00,31.562
540.00,31.607
541.00,31.694
542.00,31.767
543.00,31.855
544.00,31.905
545.00,31.957
546.00,31.974
547.00,32.092
548.00,32.234
549.00,32.308
550.00,32.427
551.00,32.476
552.00,32.584
553.00,32.624
554.00,32.748
555.00,32.796
556.00,32.725
557.00,32.882
558.00,32.949
559.00,32.967
560.00,33.036
561.00,33.094
562.00,33.121
563.00,33.216
564.00,33.311
565.00,33.353
566.00,33.366
567.00,33.439
568.00,33.424
569.00,33.532
570.00,33.515
571.00,33.600
572.00,33.676
573.00,33.650
574.00,33.743
575.00,33.766
576.00,33.812
577.00,33.857
578.00,33.901
579.00,33.994
580.00,34.069
581.00,34.161
582.00,34.250
583.00,34.304
584.00,34.406
585.00,34.481
586.00,34.492
587.00,34.557
588.00,34.609
589.00,34.590
590.00,34.651
591.00,34.705
592.00,34.723
593.00,34.769
594.00,34.840
595.00,34.873
596.00,34.946
597.00,35.057
598.00,35.084
599.00,35.111
600.00,35.210
601.00,35.251
602.00,35.280
603.00,35.276
604.00,35.347
605.00,35.400
606.00,35.372
607.00,35.444
608.00,35.617
609.00,35.691
610.00,35.643
611.00,35.694
612.00,35.674
613.00,35.747
614.00,35.794
615.00,35.772
616.00,35.911
617.00,35.950
618.00,36.127
619.00,36.235
620.00,36.249
621.00,36.309
622.00,36.367
623.00,36.438
624.00,36.549
625.00,36.606
626.00,36.655
627.00,36.729
628.00,36.779
629.00,36.864
630.00,36.908
631.00,36.972
632.00,37.096
633.00,37.185
634.00,37.261
635.00,37.373
636.00,37.486
637.00,37.559
638.00,37.625
639.00,37.701
640.00,37.731
641.00,37.816
642.00,37.908
643.00,37.975
644.00,38.121
645.00,38.218
646.00,38.293
647.00,38.366
648.00,38.445
649.00,38.595
650.00,38.636
651.00,38.706
652.00,38.838
653.00,38.940
654.00,39.026
655.00,39.150
656.00,39.290
657.00,39.372
658.00,39.492
659.00,39.735
660.00,39.800
661.00,39.174
662.00,39.847
663.00,39.983
664.00,40.151
665.00,40.209
666.00,40.191
667.00,40.467
668.00,40.587
669.00,40.684
670.00,40.807
671.00,40.843
672.00,40.907
673.00,41.007
674.00,41.221
675.00,41.342
676.00,41.502
677.00,41.527
678.00,41.607
679.00,41.614
680.00,41.828
681.00,41.898
682.00,42.091
683.00,42.242
684.00,42.350
685.00,42.427
686.00,42.437
687.00,42.585
688.00,42.714
689.00,42.757
690.00,42.984
691.00,43.098
692.00,43.044
693.00,43.154
694.00,43.251
695.00,43.446
696.00,43.521
697.00,43.571
698.00,43.835
699.00,43.932
700.00,43.946
701.00,44.168
702.00,44.224
703.00,44.356
704.00,44.408
705.00,44.625
706.00,44.771
707.00,44.523
708.00,44.691
709.00,45.084
710.00,45.020
711.00,45.081
712.00,45.150
713.00,45.283
714.00,45.277
715.00,45.358
716.00,45.506
717.00,45.598
718.00,45.575
719.00,45.759
720.00,45.798
721.00,50.010
722.00,50.060
723.00,50.134
724.00,50.131
725.00,50.217
726.00,50.167
727.00,50.228
728.00,50.352
729.00,50.416
730.00,50.441
731.00,50.458
732.00,50.470
733.00,50.555
734.00,50.605
735.00,50.639
736.00,50.681
737.00,50.698
738.00,50.837
739.00,50.894
740.00,50.921
741.00,50.956
742.00,50.955
743.00,51.016
744.00,51.035
745.00,51.086
746.00,51.085
747.00,51.162
748.00,51.107
749.00,51.130
750.00,51.140
751.00,51.190
752.00,51.148
753.00,51.225
754.00,51.252
755.00,51.282
756.00,51.254
757.00,51.294
758.00,51.440
759.00,51.395
760.00,51.412
761.00,51.402
762.00,51.474
763.00,51.512
764.00,51.481
765.00,51.531
766.00,51.514
767.00,51.591
768.00,51.597
769.00,51.681
770.00,51.662
771.00,51.662
772.00,51.638
773.00,51.742
774.00,51.829
775.00,51.792
776.00,51.740
777.00,51.777
778.00,51.783
779.00,51.844
780.00,51.778
781.00,51.828
782.00,51.857
783.00,51.827
784.00,51.821
785.00,51.784
786.00,51.878
787.00,51.873
788.00,51.842
789.00,51.871
790.00,51.826
791.00,51.899
792.00,51.866
793.00,51.935
794.00,51.825
795.00,51.878
796.00,51.802
797.00,51.891
798.00,51.846
799.00,51.828
800.00,51.860
801.00,51.750
802.00,51.800
803.00,51.794
804.00,51.827
805.00,51.853
806.00,51.833
807.00,51.835
808.00,51.797
809.00,51.723
810.00,51.779
811.00,51.720
812.00,51.780
813.00,51.733
814.00,51.882
815.00,51.695
816.00,51.755
817.00,51.759
818.00,51.652
819.00,51.717
820.00,51.646
821.00,51.680
822.00,51.662
823.00,51.631
824.00,51.668
825.00,51.610
826.00,51.647
827.00,51.729
828.00,51.630
829.00,51.722
830.00,51.575
831.00,53.768
832.00,53.741
833.00,53.725
834.00,53.746
835.00,53.720
836.00,53.769
837.00,53.746
838.00,53.672
839.00,53.831
840.00,53.624
841.00,53.647
842.00,53.627
843.00,53.647
844.00,53.541
845.00,53.543
846.00,53.578
847.00,53.558
848.00,53.575
849.00,53.476
850.00,53.502
851.00,53.437
852.00,53.460
853.00,53.392
854.00,53.374
855.00,53.315
856.00,53.332
857.00,53.272
858.00,53.297
859.00,53.261
860.00,53.249
861.00,53.279
862.00,53.205
863.00,53.214
864.00,53.174
865.00,53.165
866.00,53.174
867.00,53.203
868.00,53.187
869.00,53.144
870.00,53.131
871.00,53.142
872.00,53.119
873.00,53.130
874.00,53.133
875.00,53.119
876.00,53.117
877.00,53.101
878.00,53.115
879.00,53.038
880.00,53.042
881.00,53.162
882.00,53.063
883.00,53.022
884.00,52.977
885.00,52.953
886.00,52.938
887.00,52.973
888.00,52.931
889.00,52.882
890.00,52.908
891.00,52.885
892.00,52.831
893.00,52.826
894.00,52.872
895.00,52.777
896.00,52.759
897.00,52.756
898.00,52.747
899.00,52.722
900.00,52.699
901.00,52.719
902.00,52.694
903.00,52.703
904.00,52.694
905.00,52.671
906.00,52.675
907.00,52.646
908.00,52.593
909.00,52.594
910.00,52.556
911.00,52.572
912.00,52.549
913.00,52.503
914.00,52.485
915.00,52.469
916.00,52.446
917.00,52.429
918.00,52.442
919.00,52.366
920.00,52.373
921.00,52.370
922.00,52.358
923.00,52.328
924.00,52.323
925.00,52.301
926.00,52.253
927.00,52.243
928.00,52.225
929.00,52.240
930.00,52.202
931.00,52.167
932.00,52.161
933.00,52.224
934.00,52.053
935.00,52.097
936.00,52.236
937.00,52.088
938.00,52.063
939.00,52.044
940.00,52.016
941.00,52.030
942.00,51.982
943.00,51.995
944.00,51.946
945.00,51.941
946.00,51.938
947.00,51.929
948.00,51.882
949.00,51.866
950.00,51.860
951.00,51.833
952.00,51.805
953.00,51.763
954.00,51.765
955.00,51.717
956.00,51.722
957.00,51.675
958.00,51.687
959.00,51.633
960.00,51.638
961.00,51.607
962.00,51.608
963.00,51.560
964.00,51.548
965.00,51.551
966.00,51.543
967.00,51.547
968.00,51.515
969.00,51.542
970.00,51.526
971.00,51.526
972.00,51.496
973.00,51.528
974.00,51.546
975.00,51.505
976.00,51.523
977.00,51.511
978.00,51.549
979.00,51.505
980.00,51.528
981.00,51.572
982.00,51.484
983.00,51.507
984.00,51.486
985.00,51.512
986.00,51.462
987.00,51.476
988.00,51.457
989.00,51.450
990.00,51.446
991.00,51.425
992.00,51.441
993.00,51.413
994.00,51.390
995.00,51.379
996.00,51.343
997.00,51.404
998.00,51.347
999.00,51.366
1000.00,51.306
1001.00,51.310
1002.00,51.324
1003.00,51.318
1004.00,51.311
1005.00,51.257
1006.00,51.286
1007.00,51.251
1008.00,51.228
1009.00,51.208
1010.00,51.199
1011.00,51.190
1012.00,51.201
1013.00,51.173
1014.00,51.143
1015.00,51.152
1016.00,51.105
1017.00,51.118
1018.00,51.097
1019.00,51.068
1020.00,51.065
1021.00,51.039
1022.00,51.054
1023.00,50.997
1024.00,51.004
1025.00,50.989
1026.00,50.970
1027.00,50.971
1028.00,50.939
1029.00,50.935
1030.00,50.889
1031.00,50.905
1032.00,50.869
1033.00,50.877
1034.00,50.840
1035.00,50.806
1036.00,50.804
1037.00,50.776
1038.00,50.747
1039.00,50.720
1040.00,50.719
1041.00,50.676
1042.00,50.671
1043.00,50.659
1044.00,50.691
1045.00,50.674
1046.00,50.661
1047.00,50.686
1048.00,50.689
1049.00,50.690
1050.00,50.693
1051.00,50.716
1052.00,50.731
1053.00,50.730
1054.00,50.724
1055.00,50.752
1056.00,50.756
1057.00,50.749
1058.00,50.735
1059.00,50.740
1060.00,50.748
1061.00,50.738
1062.00,50.718
1063.00,50.726
1064.00,50.720
1065.00,50.702
1066.00,50.705
1067.00,50.686
1068.00,50.695
1069.00,50.666
1070.00,50.647
1071.00,50.624
1072.00,50.628
1073.00,50.604
1074.00,50.618
1075.00,50.603
1076.00,50.608
1077.00,50.591
1078.00,50.579
1079.00,50.577
1080.00,50.575
1081.00,50.548
1082.00,50.534
1083.00,50.524
1084.00,50.520
1085.00,50.520
1086.00,50.500
1087.00,50.507
1088.00,50.512
1089.00,50.488
1090.00,50.488
1091.00,50.481
1092.00,50.472
1093.00,50.432
1094.00,50.436
1095.00,50.413
1096.00,50.410
1097.00,50.399
1098.00,50.394
1099.00,50.395
1100.00,50.376
1101.00,50.358
1102.00,50.357
1103.00,50.370
1104.00,50.338
1105.00,50.316
1106.00,50.327
1107.00,50.315
1108.00,50.300
1109.00,50.300
1110.00,50.298
1111.00,50.301
1112.00,50.289
1113.00,50.275
1114.00,50.268
1115.00,50.250
1116.00,50.245
1117.00,50.223
1118.00,50.214
1119.00,50.208
1120.00,50.219
1121.00,50.222
1122.00,50.203
1123.00,50.195
1124.00,50.192
1125.00,50.181
1126.00,50.162
1127.00,50.171
1128.00,50.166
1129.00,50.129
1130.00,50.129
1131.00,50.121
1132.00,50.129
1133.00,50.153
1134.00,50.153
1135.00,50.110
1136.00,50.114
1137.00,50.097
1138.00,50.089
1139.00,50.103
1140.00,50.080
1141.00,50.075
1142.00,50.067
1143.00,50.059
1144.00,50.050
1145.00,50.043
1146.00,50.051
1147.00,50.022
1148.00,50.021
1149.00,50.054
1150.00,50.041
1151.00,50.038
1152.00,50.027
1153.00,50.024
1154.00,50.013
1155.00,50.021
1156.00,50.003
1157.00,50.004
1158.00,49.985
1159.00,49.991
1160.00,49.985
1161.00,50.003
1162.00,49.987
1163.00,49.997
1164.00,49.996
1165.00,49.995
1166.00,49.985
1167.00,49.974
1168.00,49.985
1169.00,49.985
1170.00,49.986
1171.00,49.969
1172.00,49.970
1173.00,49.959
1174.00,49.963
1175.00,49.960
1176.00,49.957
1177.00,49.943
1178.00,49.939
1179.00,49.966
1180.00,49.953
1181.00,49.963
1182.00,49.948
1183.00,49.943
1184.00,49.939
1185.00,49.946
1186.00,49.941
1187.00,49.936
1188.00,49.921
1189.00,49.915
1190.00,49.906
1191.00,49.907
1192.00,49.911
1193.00,49.911
1194.00,49.907
1195.00,49.890
1196.00,49.921
1197.00,49.919
1198.00,49.924
1199.00,49.908
1200.00,49.905
1201.00,49.923
1202.00,49.903
1203.00,49.888
1204.00,49.875
1205.00,49.898
1206.00,49.880
1207.00,49.896
1208.00,49.885
1209.00,49.901
1210.00,49.866
1211.00,49.879
1212.00,49.919
1213.00,49.858
1214.00,49.878
1215.00,49.873
1216.00,49.872
1217.00,49.879
1218.00,49.867
1219.00,49.881
1220.00,49.864
1221.00,49.889
1222.00,49.873
1223.00,49.892
1224.00,49.882
1225.00,49.876
1226.00,49.882
1227.00,49.867
1228.00,49.887
1229.00,49.885
1230.00,49.920
1231.00,49.918
1232.00,49.927
1233.00,49.921
1234.00,49.920
1235.00,49.918
1236.00,49.919
1237.00,49.914
1238.00,49.909
1239.00,49.910
1240.00,49.915
1241.00,49.921
1242.00,49.924
1243.00,49.941
1244.00,49.918
1245.00,49.951
1246.00,49.968
1247.00,49.953
1248.00,49.944
1249.00,49.946
1250.00,49.950
1251.00,49.943
1252.00,49.956
1253.00,49.944
1254.00,49.965
1255.00,49.943
1256.00,49.939
1257.00,49.944
1258.00,49.968
1259.00,49.960
1260.00,49.972
1261.00,49.976
1262.00,49.959
1263.00,49.959
1264.00,49.979
1265.00,49.987
1266.00,49.969
1267.00,49.975
1268.00,49.992
1269.00,49.979
1270.00,49.992
1271.00,50.001
1272.00,50.021
1273.00,50.024
1274.00,50.022
1275.00,50.047
1276.00,50.037
1277.00,50.027
1278.00,50.048
1279.00,50.053
1280.00,50.040
1281.00,50.044
1282.00,50.058
1283.00,50.040
1284.00,50.034
1285.00,50.036
1286.00,50.053
1287.00,50.042
1288.00,50.049
1289.00,50.059
1290.00,50.077
1291.00,50.067
1292.00,50.075
1293.00,50.067
1294.00,50.079
1295.00,50.077
1296.00,50.097
1297.00,50.101
1298.00,50.127
1299.00,50.099
1300.00,50.116
1301.00,50.115
1302.00,50.115
1303.00,50.137
1304.00,50.107
1305.00,50.142
1306.00,50.149
1307.00,50.151
1308.00,50.168
1309.00,50.157
1310.00,50.170
1311.00,50.151
1312.00,50.182
1313.00,50.183
1314.00,50.168
1315.00,50.175
1316.00,50.180
1317.00,50.203
1318.00,50.190
1319.00,50.212
1320.00,50.242
1321.00,50.368
1322.00,50.392
1323.00,50.383
1324.00,50.376
1325.00,50.372
1326.00,50.395
1327.00,50.378
1328.00,50.367
1329.00,50.362
1330.00,50.382
1331.00,50.365
1332.00,50.365
1333.00,50.372
1334.00,50.397
1335.00,50.413
1336.00,50.437
1337.00,50.458
1338.00,50.530
1339.00,50.572
1340.00,50.620
1341.00,50.682
1342.00,50.751
1343.00,50.798
1344.00,50.852
1345.00,50.899
1346.00,50.952
1347.00,50.957
1348.00,50.978
1349.00,51.012
1350.00,51.028
1351.00,51.027
1352.00,51.044
1353.00,51.072
1354.00,51.062
1355.00,50.998
1356.00,51.063
1357.00,51.065
1358.00,51.073
1359.00,51.088
1360.00,51.192
1361.00,51.121
1362.00,51.003
1363.00,51.148
1364.00,51.170
1365.00,51.066
1366.00,51.138
1367.00,51.084
1368.00,51.007
1369.00,51.078
1370.00,51.077
1371.00,51.023
1372.00,51.032
1373.00,51.059
1374.00,51.088
1375.00,51.057
1376.00,51.045
1377.00,51.044
1378.00,51.113
1379.00,51.107
1380.00,51.067
1381.00,51.114
1382.00,50.988
1383.00,51.055
1384.00,50.983
1385.00,50.976
1386.00,51.046
1387.00,50.986
1388.00,50.981
1389.00,51.035
1390.00,51.054
1391.00,51.028
1392.00,51.010
1393.00,51.073
1394.00,51.024
1395.00,50.984
1396.00,50.974
1397.00,51.018
1398.00,51.084
1399.00,50.994
1400.00,50.945
1401.00,51.008
1402.00,51.044
1403.00,51.064
1404.00,51.029
1405.00,51.087
1406.00,51.063
1407.00,51.101
1408.00,51.093
1409.00,51.054
1410.00,51.121
1411.00,51.082
1412.00,51.150
1413.00,51.093
1414.00,51.078
1415.00,51.124
1416.00,51.153
1417.00,51.167
1418.00,51.144
1419.00,51.147
1420.00,51.174
1421.00,51.233
1422.00,51.212
1423.00,51.227
1424.00,51.234
1425.00,51.236
1426.00,51.254
1427.00,51.264
1428.00,51.263
1429.00,51.289
1430.00,51.303
1431.00,51.319
1432.00,51.325
1433.00,51.341
1434.00,51.342
1435.00,51.394
1436.00,51.377
1437.00,51.379
1438.00,51.388
1439.00,51.422
1440.00,51.449
1441.00,51.443
1442.00,51.435
1443.00,51.490
1444.00,51.542
1445.00,51.547
1446.00,51.523
1447.00,51.558
1448.00,51.586
1449.00,51.584
1450.00,51.571
1451.00,51.604
1452.00,51.611
1453.00,51.618
1454.00,51.630
1455.00,51.642
1456.00,51.654
1457.00,51.651
1458.00,51.667
1459.00,51.693
1460.00,51.710
1461.00,51.713
1462.00,51.740
1463.00,51.762
1464.00,51.765
1465.00,51.795
1466.00,51.808
1467.00,51.824
1468.00,51.868
1469.00,51.854
1470.00,51.868
1471.00,51.886
1472.00,51.899
1473.00,51.917
1474.00,51.937
1475.00,51.935
1476.00,51.953
1477.00,51.948
1478.00,51.976
1479.00,51.974
1480.00,51.976
1481.00,51.985
1482.00,52.015
1483.00,52.016
1484.00,52.041
1485.00,52.046
1486.00,52.045
1487.00,52.087
1488.00,52.085
1489.00,52.088
1490.00,52.125
1491.00,52.122
1492.00,52.137
1493.00,52.127
1494.00,52.131
1495.00,52.145
1496.00,52.155
1497.00,52.157
1498.00,52.181
1499.00,52.191
1500.00,52.211
1501.00, 
1502.00, 
1503.00, 
1504.00, 
1505.00, 
1506.00, 
1507.00, 
1508.00, 
1509.00, 
1510.00, 
1511.00, 
1512.00, 
1513.00, 
1514.00, 
1515.00, 
1516.00, 
1517.00, 
1518.00, 
1519.00, 
1520.00, 
1521.00, 
1522.00, 
1523.00, 
1524.00, 
1525.00, 
1526.00, 
1527.00, 
1528.00, 
1529.00, 
1530.00, 
1531.00, 
1532.00, 
1533.00, 
1534.00, 
1535.00, 
1536.00, 
1537.00, 
1538.00, 
1539.00, 
1540.00, 
1541.00, 
1542.00, 
1543.00, 
1544.00, 
1545.00, 
1546.00, 
1547.00, 
1548.00, 
1549.00, 
1550.00, 
1551.00, 
1552.00, 
1553.00, 
1554.00, 
1555.00, 
1556.00, 
1557.00, 
1558.00, 
1559.00, 
1560.00, 
1561.00, 
1562.00, 
1563.00, 
1564.00, 
1565.00, 
1566.00, 
1567.00, 
1568.00, 
1569.00, 
1570.00, 
1571.00, 
1572.00, 
1573.00, 
1574.00, 
1575.00, 
1576.00, 
1577.00, 
1578.00, 
1579.00, 
1580.00, 
1581.00, 
1582.00, 
1583.00, 
1584.00, 
1585.00, 
1586.00, 
1587.00, 
1588.00, 
1589.00, 
1590.00, 
1591.00, 
1592.00, 
1593.00, 
1594.00, 
1595.00, 
1596.00, 
1597.00, 
1598.00, 
1599.00, 
1600.00, 
1601.00, 
1602.00, 
1603.00, 
1604.00, 
1605.00, 
1606.00, 
1607.00, 
1608.00, 
1609.00, 
1610.00, 
1611.00, 
1612.00, 
1613.00, 
1614.00, 
1615.00, 
1616.00, 
1617.00, 
1618.00, 
1619.00, 
1620.00, 
1621.00, 
1622.00, 
1623.00, 
1624.00, 
1625.00, 
1626.00, 
1627.00, 
1628.00, 
1629.00, 
1630.00, 
1631.00, 
1632.00, 
1633.00, 
1634.00, 
1635.00, 
1636.00, 
1637.00, 
1638.00, 
1639.00, 
1640.00, 
1641.00, 
1642.00, 
1643.00, 
1644.00, 
1645.00, 
1646.00, 
1647.00, 
1648.00, 
1649.00, 
1650.00, 
1651.00, 
1652.00, 
1653.00, 
1654.00, 
1655.00, 
1656.00, 
1657.00, 
1658.00, 
1659.00, 
1660.00, 
1661.00, 
1662.00, 
1663.00, 
1664.00, 
1665.00, 
1666.00, 
1667.00, 
1668.00, 
1669.00, 
1670.00, 
1671.00, 
1672.00, 
1673.00, 
1674.00, 
1675.00, 
1676.00, 
1677.00, 
1678.00, 
1679.00, 
1680.00, 
1681.00, 
1682.00, 
1683.00, 
1684.00, 
1685.00, 
1686.00, 
1687.00, 
1688.00, 
1689.00, 
1690.00, 
1691.00, 
1692.00, 
1693.00, 
1694.00, 
1695.00, 
1696.00, 
1697.00, 
1698.00, 
1699.00, 
1700.00, 
1701.00, 
1702.00, 
1703.00, 
1704.00, 
1705.00, 
1706.00, 
1707.00, 
1708.00, 
1709.00, 
1710.00, 
1711.00, 
1712.00, 
1713.00, 
1714.00, 
1715.00, 
1716.00, 
1717.00, 
1718.00, 
1719.00, 
1720.00, 
1721.00, 
1722.00, 
1723.00, 
1724.00, 
1725.00, 
1726.00, 
1727.00, 
1728.00, 
1729.00, 
1730.00, 
1731.00, 
1732.00, 
1733.00, 
1734.00, 
1735.00, 
1736.00, 
1737.00, 
1738.00, 
1739.00, 
1740.00, 
1741.00, 
1742.00, 
1743.00, 
1744.00, 
1745.00, 
1746.00, 
1747.00, 
1748.00, 
1749.00, 
1750.00, 
1751.00, 
1752.00, 
1753.00, 
1754.00, 
1755.00, 
1756.00, 
1757.00, 
1758.00, 
1759.00, 
1760.00, 
1761.00, 
1762.00, 
1763.00, 
1764.00, 
1765.00, 
1766.00, 
1767.00, 
1768.00, 
1769.00, 
1770.00, 
1771.00, 
1772.00, 
1773.00, 
1774.00, 
1775.00, 
1776.00, 
1777.00, 
1778.00, 
1779.00, 
1780.00, 
1781.00, 
1782.00, 
1783.00, 
1784.00, 
1785.00, 
1786.00, 
1787.00, 
1788.00, 
1789.00, 
1790.00, 
1791.00, 
1792.00, 
1793.00, 
1794.00, 
1795.00, 
1796.00, 
1797.00, 
1798.00, 
1799.00, 
1800.00, 
1801.00, 
1802.00, 
1803.00, 
1804.00, 
1805.00, 
1806.00, 
1807.00, 
1808.00, 
1809.00, 
1810.00, 
1811.00, 
1812.00, 
1813.00, 
1814.00, 
1815.00, 
1816.00, 
1817.00, 
1818.00, 
1819.00, 
1820.00, 
1821.00, 
1822.00, 
1823.00, 
1824.00, 
1825.00, 
1826.00, 
1827.00, 
1828.00, 
1829.00, 
1830.00, 
1831.00, 
1832.00, 
1833.00, 
1834.00, 
1835.00, 
1836.00, 
1837.00, 
1838.00, 
1839.00, 
1840.00, 
1841.00, 
1842.00, 
1843.00, 
1844.00, 
1845.00, 
1846.00, 
1847.00, 
1848.00, 
1849.00, 
1850.00, 
1851.00, 
1852.00, 
1853.00, 
1854.00, 
1855.00, 
1856.00, 
1857.00, 
1858.00, 
1859.00, 
1860.00, 
1861.00, 
1862.00, 
1863.00, 
1864.00, 
1865.00, 
1866.00, 
1867.00, 
1868.00, 
1869.00, 
1870.00, 
1871.00, 
1872.00, 
1873.00, 
1874.00, 
1875.00, 
1876.00, 
1877.00, 
1878.00, 
1879.00, 
1880.00, 
1881.00, 
1882.00, 
1883.00, 
1884.00, 
1885.00, 
1886.00, 
1887.00, 
1888.00, 
1889.00, 
1890.00, 
1891.00, 
1892.00, 
1893.00, 
1894.00, 
1895.00, 
1896.00, 
1897.00, 
1898.00, 
1899.00, 
1900.00, 
1901.00, 
1902.00, 
1903.00, 
1904.00, 
1905.00, 
1906.00, 
1907.00, 
1908.00, 
1909.00, 
1910.00, 
1911.00, 
1912.00, 
1913.00, 
1914.00, 
1915.00, 
1916.00, 
1917.00, 
1918.00, 
1919.00, 
1920.00, 
1921.00, 
1922.00, 
1923.00, 
1924.00, 
1925.00, 
1926.00, 
1927.00, 
1928.00, 
1929.00, 
1930.00, 
1931.00, 
1932.00, 
1933.00, 
1934.00, 
1935.00, 
1936.00, 
1937.00, 
1938.00, 
1939.00, 
1940.00, 
1941.00, 
1942.00, 
1943.00, 
1944.00, 
1945.00, 
1946.00, 
1947.00, 
1948.00, 
1949.00, 
1950.00, 
1951.00, 
1952.00, 
1953.00, 
1954.00, 
1955.00, 
1956.00, 
1957.00, 
1958.00, 
1959.00, 
1960.00, 
1961.00, 
1962.00, 
1963.00, 
1964.00, 
1965.00, 
1966.00, 
1967.00, 
1968.00, 
1969.00, 
1970.00, 
1971.00, 
1972.00, 
1973.00, 
1974.00, 
1975.00, 
1976.00, 
1977.00, 
1978.00, 
1979.00, 
1980.00, 
1981.00, 
1982.00, 
1983.00, 
1984.00, 
1985.00, 
1986.00, 
1987.00, 
1988.00, 
1989.00, 
1990.00, 
1991.00, 
1992.00, 
1993.00, 
1994.00, 
1995.00, 
1996.00, 
1997.00, 
1998.00, 
1999.00, 
2000.00, 
2001.00, 
2002.00, 
2003.00, 
2004.00, 
2005.00, 
2006.00, 
2007.00, 
2008.00, 
2009.00, 
2010.00, 
2011.00, 
2012.00, 
2013.00, 
2014.00, 
2015.00, 
2016.00, 
2017.00, 
2018.00, 
2019.00, 
2020.00, 
2021.00, 
2022.00, 
2023.00, 
2024.00, 
2025.00, 
2026.00, 
2027.00, 
2028.00, 
2029.00, 
2030.00, 
2031.00, 
2032.00, 
2033.00, 
2034.00, 
2035.00, 
2036.00, 
2037.00, 
2038.00, 
2039.00, 
2040.00, 
2041.00, 
2042.00, 
2043.00, 
2044.00, 
2045.00, 
2046.00, 
2047.00, 
2048.00, 
2049.00, 
2050.00, 
2051.00, 
2052.00, 
2053.00, 
2054.00, 
2055.00, 
2056.00, 
2057.00, 
2058.00, 
2059.00, 
2060.00, 
2061.00, 
2062.00, 
2063.00, 
2064.00, 
2065.00, 
2066.00, 
2067.00, 
2068.00, 
2069.00, 
2070.00, 
2071.00, 
2072.00, 
2073.00, 
2074.00, 
2075.00, 
2076.00, 
2077.00, 
2078.00, 
2079.00, 
2080.00, 
2081.00, 
2082.00, 
2083.00, 
2084.00, 
2085.00, 
2086.00, 
2087.00, 
2088.00, 
2089.00, 
2090.00, 
2091.00, 
2092.00, 
2093.00, 
2094.00, 
2095.00, 
2096.00, 
2097.00, 
2098.00, 
2099.00, 
2100.00, 
2101.00, 
2102.00, 
2103.00, 
2104.00, 
2105.00, 
2106.00, 
2107.00, 
2108.00, 
2109.00, 
2110.00, 
2111.00, 
2112.00, 
2113.00, 
2114.00, 
2115.00, 
2116.00, 
2117.00, 
2118.00, 
2119.00, 
2120.00, 
2121.00, 
2122.00, 
2123.00, 
2124.00, 
2125.00, 
2126.00, 
2127.00, 
2128.00, 
2129.00, 
2130.00, 
2131.00, 
2132.00, 
2133.00, 
2134.00, 
2135.00, 
2136.00, 
2137.00, 
2138.00, 
2139.00, 
2140.00, 
2141.00, 
2142.00, 
2143.00, 
2144.00, 
2145.00, 
2146.00, 
2147.00, 
2148.00, 
2149.00, 
2150.00, 
2151.00, 
2152.00, 
2153.00, 
2154.00, 
2155.00, 
2156.00, 
2157.00, 
2158.00, 
2159.00, 
2160.00, 
2161.00, 
2162.00, 
2163.00, 
2164.00, 
2165.00, 
2166.00, 
2167.00, 
2168.00, 
2169.00, 
2170.00, 
2171.00, 
2172.00, 
2173.00, 
2174.00, 
2175.00, 
2176.00, 
2177.00, 
2178.00, 
2179.00, 
2180.00, 
2181.00, 
2182.00, 
2183.00, 
2184.00, 
2185.00, 
2186.00, 
2187.00, 
2188.00, 
2189.00, 
2190.00, 
2191.00, 
2192.00, 
2193.00, 
2194.00, 
2195.00, 
2196.00, 
2197.00, 
2198.00, 
2199.00, 
2200.00, 
2201.00, 
2202.00, 
2203.00, 
2204.00, 
2205.00, 
2206.00, 
2207.00, 
2208.00, 
2209.00, 
2210.00, 
2211.00, 
2212.00, 
2213.00, 
2214.00, 
2215.00, 
2216.00, 
2217.00, 
2218.00, 
2219.00, 
2220.00, 
2221.00, 
2222.00, 
2223.00, 
2224.00, 
2225.00, 
2226.00, 
2227.00, 
2228.00, 
2229.00, 
2230.00, 
2231.00, 
2232.00, 
2233.00, 
2234.00, 
2235.00, 
2236.00, 
2237.00, 
2238.00, 
2239.00, 
2240.00, 
2241.00, 
2242.00, 
2243.00, 
2244.00, 
2245.00, 
2246.00, 
2247.00, 
2248.00, 
2249.00, 
2250.00, 
2251.00, 
2252.00, 
2253.00, 
2254.00, 
2255.00, 
2256.00, 
2257.00, 
2258.00, 
2259.00, 
2260.00, 
2261.00, 
2262.00, 
2263.00, 
2264.00, 
2265.00, 
2266.00, 
2267.00, 
2268.00, 
2269.00, 
2270.00, 
2271.00, 
2272.00, 
2273.00, 
2274.00, 
2275.00, 
2276.00, 
2277.00, 
2278.00, 
2279.00, 
2280.00, 
2281.00, 
2282.00, 
2283.00, 
2284.00, 
2285.00, 
2286.00, 
2287.00, 
2288.00, 
2289.00, 
2290.00, 
2291.00, 
2292.00, 
2293.00, 
2294.00, 
2295.00, 
2296.00, 
2297.00, 
2298.00, 
2299.00, 
2300.00, 
2301.00, 
2302.00, 
2303.00, 
2304.00, 
2305.00, 
2306.00, 
2307.00, 
2308.00, 
2309.00, 
2310.00, 
2311.00, 
2312.00, 
2313.00, 
2314.00, 
2315.00, 
2316.00, 
2317.00, 
2318.00, 
2319.00, 
2320.00, 
2321.00, 
2322.00, 
2323.00, 
2324.00, 
2325.00, 
2326.00, 
2327.00, 
2328.00, 
2329.00, 
2330.00, 
2331.00, 
2332.00, 
2333.00, 
2334.00, 
2335.00, 
2336.00, 
2337.00, 
2338.00, 
2339.00, 
2340.00, 
2341.00, 
2342.00, 
2343.00, 
2344.00, 
2345.00, 
2346.00, 
2347.00, 
2348.00, 
2349.00, 
2350.00, 
2351.00, 
2352.00, 
2353.00, 
2354.00, 
2355.00, 
2356.00, 
2357.00, 
2358.00, 
2359.00, 
2360.00, 
2361.00, 
2362.00, 
2363.00, 
2364.00, 
2365.00, 
2366.00, 
2367.00, 
2368.00, 
2369.00, 
2370.00, 
2371.00, 
2372.00, 
2373.00, 
2374.00, 
2375.00, 
2376.00, 
2377.00, 
2378.00, 
2379.00, 
2380.00, 
2381.00, 
2382.00, 
2383.00, 
2384.00, 
2385.00, 
2386.00, 
2387.00, 
2388.00, 
2389.00, 
2390.00, 
2391.00, 
2392.00, 
2393.00, 
2394.00, 
2395.00, 
2396.00, 
2397.00, 
2398.00, 
2399.00, 
2400.00, 
2401.00, 
2402.00, 
2403.00, 
2404.00, 
2405.00, 
2406.00, 
2407.00, 
2408.00, 
2409.00, 
2410.00, 
2411.00, 
2412.00, 
2413.00, 
2414.00, 
2415.00, 
2416.00, 
2417.00, 
2418.00, 
2419.00, 
2420.00, 
2421.00, 
2422.00, 
2423.00, 
2424.00, 
2425.00, 
2426.00, 
2427.00, 
2428.00, 
2429.00, 
2430.00, 
2431.00, 
2432.00, 
2433.00, 
2434.00, 
2435.00, 
2436.00, 
2437.00, 
2438.00, 
2439.00, 
2440.00, 
2441.00, 
2442.00, 
2443.00, 
2444.00, 
2445.00, 
2446.00, 
2447.00, 
2448.00, 
2449.00, 
2450.00, 
2451.00, 
2452.00, 
2453.00, 
2454.00, 
2455.00, 
2456.00, 
2457.00, 
2458.00, 
2459.00, 
2460.00, 
2461.00, 
2462.00, 
2463.00, 
2464.00, 
2465.00, 
2466.00, 
2467.00, 
2468.00, 
2469.00, 
2470.00, 
2471.00, 
2472.00, 
2473.00, 
2474.00, 
2475.00, 
2476.00, 
2477.00, 
2478.00, 
2479.00, 
2480.00, 
2481.00, 
2482.00, 
2483.00, 
2484.00, 
2485.00, 
2486.00, 
2487.00, 
2488.00, 
2489.00, 
2490.00, 
2491.00, 
2492.00, 
2493.00, 
2494.00, 
2495.00, 
2496.00, 
2497.00, 
2498.00, 
2499.00, 
2500.00, 
2501.00, 
2502.00, 
2503.00, 
2504.00, 
2505.00, 
2506.00, 
2507.00, 
2508.00, 
2509.00, 
2510.00, 
2511.00, 
2512.00, 
2513.00, 
2514.00, 
2515.00, 
2516.00, 
2517.00, 
2518.00, 
2519.00, 
2520.00, 
2521.00, 
2522.00, 
2523.00, 
2524.00, 
2525.00, 
2526.00, 
2527.00, 
2528.00, 
2529.00, 
2530.00, 
2531.00, 
2532.00, 
2533.00, 
2534.00, 
2535.00, 
2536.00, 
2537.00, 
2538.00, 
2539.00, 
2540.00, 
2541.00, 
2542.00, 
2543.00, 
2544.00, 
2545.00, 
2546.00, 
2547.00, 
2548.00, 
2549.00, 
2550.00, 
2551.00, 
2552.00, 
2553.00, 
2554.00, 
2555.00, 
2556.00, 
2557.00, 
2558.00, 
2559.00, 
2560.00, 
2561.00, 
2562.00, 
2563.00, 
2564.00, 
2565.00, 
2566.00, 
2567.00, 
2568.00, 
2569.00, 
2570.00, 
2571.00, 
2572.00, 
2573.00, 
2574.00, 
2575.00, 
2576.00, 
2577.00, 
2578.00, 
2579.00, 
2580.00, 
2581.00, 
2582.00, 
2583.00, 
2584.00, 
2585.00, 
2586.00, 
2587.00, 
2588.00, 
2589.00, 
2590.00, 
2591.00, 
2592.00, 
2593.00, 
2594.00, 
2595.00, 
2596.00, 
2597.00, 
2598.00, 
2599.00, 
2600.00, 
