"1aP2 - RawData"
"Wavelength nm.","T%"
200.00,0.002
201.00,-0.000
202.00,0.000
203.00,0.002
204.00,-0.001
205.00,0.003
206.00,0.003
207.00,0.002
208.00,0.004
209.00,0.002
210.00,-0.001
211.00,0.000
212.00,0.002
213.00,0.004
214.00,0.002
215.00,-0.000
216.00,0.004
217.00,0.000
218.00,0.001
219.00,-0.002
220.00,0.001
221.00,0.002
222.00,-0.003
223.00,0.002
224.00,-0.000
225.00,-0.001
226.00,0.002
227.00,0.001
228.00,0.001
229.00,-0.000
230.00,0.001
231.00,-0.001
232.00,0.000
233.00,-0.000
234.00,0.001
235.00,0.001
236.00,0.002
237.00,-0.001
238.00,0.001
239.00,-0.001
240.00,0.002
241.00,0.003
242.00,0.001
243.00,0.001
244.00,-0.000
245.00,-0.000
246.00,-0.000
247.00,0.001
248.00,0.003
249.00,-0.001
250.00,0.000
251.00,0.000
252.00,0.002
253.00,0.000
254.00,-0.000
255.00,0.000
256.00,0.001
257.00,-0.001
258.00,0.001
259.00,0.001
260.00,0.001
261.00,0.002
262.00,-0.001
263.00,-0.000
264.00,-0.000
265.00,-0.001
266.00,-0.001
267.00,0.000
268.00,0.000
269.00,0.001
270.00,0.000
271.00,0.000
272.00,-0.000
273.00,-0.000
274.00,0.000
275.00,-0.000
276.00,-0.001
277.00,0.001
278.00,-0.001
279.00,0.002
280.00,0.000
281.00,-0.001
282.00,0.000
283.00,0.001
284.00,0.001
285.00,-0.001
286.00,-0.000
287.00,0.001
288.00,0.002
289.00,0.001
290.00,0.001
291.00,0.001
292.00,0.002
293.00,0.001
294.00,0.000
295.00,0.001
296.00,0.001
297.00,0.001
298.00,0.000
299.00,0.002
300.00,0.002
301.00,0.005
302.00,0.007
303.00,0.013
304.00,0.019
305.00,0.032
306.00,0.047
307.00,0.071
308.00,0.106
309.00,0.173
310.00,0.239
311.00,0.325
312.00,0.441
313.00,0.583
314.00,0.738
315.00,0.985
316.00,1.249
317.00,1.580
318.00,1.929
319.00,2.377
320.00,2.850
321.00,3.381
322.00,3.977
323.00,4.650
324.00,5.332
325.00,6.043
326.00,6.794
327.00,7.629
328.00,8.438
329.00,9.263
330.00,10.130
331.00,11.013
332.00,11.917
333.00,12.789
334.00,13.646
335.00,14.557
336.00,15.434
337.00,16.339
338.00,17.179
339.00,17.931
340.00,18.704
341.00,19.533
342.00,20.263
343.00,20.937
344.00,21.572
345.00,22.253
346.00,22.791
347.00,23.392
348.00,23.877
349.00,24.423
350.00,24.835
351.00,25.208
352.00,25.568
353.00,25.996
354.00,26.340
355.00,26.688
356.00,26.935
357.00,27.303
358.00,27.448
359.00,27.783
360.00,27.986
361.00,28.175
362.00,28.332
363.00,28.509
364.00,28.514
365.00,28.802
366.00,28.911
367.00,28.963
368.00,29.104
369.00,29.103
370.00,29.194
371.00,29.197
372.00,29.194
373.00,29.209
374.00,29.180
375.00,29.186
376.00,29.117
377.00,29.030
378.00,28.990
379.00,28.928
380.00,28.921
381.00,28.941
382.00,28.917
383.00,28.902
384.00,28.973
385.00,29.034
386.00,29.004
387.00,29.112
388.00,29.195
389.00,29.218
390.00,29.230
391.00,29.290
392.00,29.321
393.00,29.298
394.00,29.341
395.00,29.426
396.00,29.380
397.00,29.388
398.00,29.436
399.00,29.445
400.00,29.462
401.00,29.428
402.00,29.443
403.00,29.468
404.00,29.408
405.00,29.393
406.00,29.321
407.00,29.331
408.00,29.368
409.00,29.321
410.00,29.246
411.00,29.276
412.00,29.209
413.00,29.252
414.00,29.254
415.00,29.220
416.00,29.308
417.00,29.335
418.00,29.300
419.00,29.380
420.00,29.373
421.00,29.443
422.00,29.523
423.00,29.519
424.00,29.522
425.00,29.579
426.00,29.622
427.00,29.682
428.00,29.682
429.00,29.750
430.00,29.797
431.00,29.860
432.00,29.900
433.00,29.904
434.00,29.938
435.00,30.078
436.00,30.147
437.00,30.221
438.00,30.287
439.00,30.346
440.00,30.454
441.00,30.479
442.00,30.586
443.00,30.633
444.00,30.774
445.00,30.799
446.00,30.916
447.00,31.007
448.00,31.123
449.00,31.237
450.00,31.322
451.00,31.442
452.00,31.523
453.00,31.621
454.00,31.724
455.00,31.806
456.00,31.954
457.00,32.037
458.00,32.167
459.00,32.274
460.00,32.377
461.00,32.519
462.00,32.652
463.00,32.752
464.00,32.921
465.00,33.013
466.00,33.175
467.00,33.279
468.00,33.356
469.00,33.518
470.00,33.532
471.00,33.616
472.00,33.775
473.00,33.805
474.00,33.842
475.00,34.068
476.00,34.158
477.00,34.251
478.00,34.338
479.00,34.501
480.00,34.648
481.00,34.740
482.00,34.869
483.00,35.065
484.00,35.185
485.00,35.355
486.00,35.480
487.00,35.612
488.00,35.782
489.00,35.907
490.00,36.019
491.00,36.134
492.00,36.299
493.00,36.475
494.00,36.504
495.00,36.628
496.00,36.747
497.00,36.810
498.00,36.991
499.00,37.083
500.00,37.210
501.00,37.327
502.00,37.404
503.00,37.518
504.00,37.628
505.00,37.682
506.00,37.844
507.00,37.890
508.00,37.996
509.00,38.183
510.00,38.236
511.00,38.391
512.00,38.492
513.00,38.655
514.00,38.781
515.00,38.851
516.00,38.937
517.00,39.029
518.00,39.134
519.00,39.195
520.00,39.273
521.00,39.276
522.00,39.399
523.00,39.473
524.00,39.507
525.00,39.605
526.00,39.740
527.00,39.771
528.00,39.834
529.00,39.911
530.00,40.036
531.00,40.215
532.00,40.274
533.00,40.366
534.00,40.403
535.00,40.429
536.00,40.578
537.00,40.594
538.00,40.718
539.00,40.739
540.00,40.773
541.00,40.810
542.00,40.845
543.00,40.925
544.00,40.998
545.00,41.015
546.00,41.049
547.00,41.174
548.00,41.228
549.00,41.300
550.00,41.370
551.00,41.446
552.00,41.474
553.00,41.541
554.00,41.604
555.00,41.638
556.00,41.712
557.00,41.726
558.00,41.770
559.00,41.839
560.00,41.908
561.00,41.976
562.00,42.035
563.00,42.042
564.00,42.063
565.00,42.143
566.00,42.103
567.00,42.152
568.00,42.202
569.00,42.174
570.00,42.196
571.00,42.289
572.00,42.280
573.00,42.283
574.00,42.325
575.00,42.315
576.00,42.275
577.00,42.347
578.00,42.472
579.00,42.474
580.00,42.510
581.00,42.654
582.00,42.673
583.00,42.742
584.00,42.783
585.00,42.836
586.00,42.881
587.00,42.931
588.00,42.954
589.00,42.930
590.00,42.939
591.00,42.975
592.00,42.947
593.00,43.000
594.00,43.017
595.00,43.043
596.00,43.100
597.00,43.235
598.00,43.375
599.00,43.325
600.00,43.347
601.00,43.393
602.00,43.395
603.00,43.415
604.00,43.449
605.00,43.501
606.00,43.512
607.00,43.558
608.00,43.610
609.00,43.644
610.00,43.633
611.00,43.750
612.00,43.685
613.00,43.733
614.00,43.742
615.00,43.844
616.00,43.924
617.00,43.914
618.00,43.903
619.00,44.025
620.00,43.966
621.00,43.931
622.00,44.135
623.00,44.238
624.00,44.269
625.00,44.279
626.00,44.357
627.00,44.362
628.00,44.362
629.00,44.421
630.00,44.461
631.00,44.423
632.00,44.530
633.00,44.640
634.00,44.652
635.00,44.774
636.00,44.799
637.00,44.895
638.00,44.982
639.00,45.007
640.00,45.018
641.00,45.061
642.00,45.127
643.00,45.207
644.00,45.222
645.00,45.297
646.00,45.423
647.00,45.363
648.00,45.433
649.00,45.517
650.00,45.476
651.00,45.607
652.00,45.511
653.00,45.736
654.00,45.806
655.00,45.852
656.00,46.040
657.00,46.222
658.00,46.088
659.00,46.104
660.00,46.089
661.00,46.199
662.00,46.334
663.00,46.262
664.00,46.732
665.00,46.637
666.00,46.785
667.00,46.914
668.00,46.994
669.00,46.790
670.00,47.073
671.00,46.999
672.00,47.061
673.00,47.175
674.00,47.274
675.00,47.273
676.00,47.331
677.00,47.495
678.00,47.377
679.00,47.546
680.00,47.527
681.00,47.689
682.00,47.681
683.00,47.863
684.00,47.955
685.00,48.010
686.00,47.933
687.00,47.991
688.00,48.156
689.00,48.013
690.00,48.121
691.00,48.379
692.00,48.374
693.00,48.331
694.00,48.399
695.00,48.484
696.00,48.524
697.00,48.625
698.00,48.699
699.00,48.731
700.00,48.918
701.00,48.947
702.00,49.036
703.00,49.162
704.00,49.152
705.00,48.924
706.00,49.090
707.00,49.332
708.00,49.106
709.00,49.275
710.00,49.561
711.00,49.399
712.00,49.293
713.00,49.420
714.00,49.500
715.00,49.642
716.00,49.636
717.00,49.666
718.00,49.778
719.00,49.752
720.00,49.918
721.00,54.223
722.00,54.194
723.00,54.174
724.00,54.235
725.00,54.174
726.00,54.260
727.00,54.137
728.00,54.233
729.00,54.296
730.00,54.255
731.00,54.281
732.00,54.254
733.00,54.352
734.00,54.243
735.00,54.334
736.00,54.339
737.00,54.281
738.00,54.325
739.00,54.358
740.00,54.344
741.00,54.386
742.00,54.425
743.00,54.360
744.00,54.313
745.00,54.367
746.00,54.417
747.00,54.360
748.00,54.358
749.00,54.359
750.00,54.317
751.00,54.260
752.00,54.284
753.00,54.299
754.00,54.258
755.00,54.196
756.00,54.254
757.00,54.259
758.00,54.247
759.00,54.218
760.00,54.180
761.00,54.236
762.00,54.216
763.00,54.330
764.00,54.209
765.00,54.223
766.00,54.144
767.00,54.213
768.00,54.253
769.00,54.268
770.00,54.296
771.00,54.275
772.00,54.209
773.00,54.205
774.00,54.255
775.00,54.331
776.00,54.190
777.00,54.206
778.00,54.156
779.00,54.258
780.00,54.246
781.00,54.262
782.00,54.200
783.00,54.141
784.00,54.246
785.00,54.187
786.00,54.189
787.00,54.209
788.00,54.186
789.00,54.154
790.00,54.130
791.00,54.092
792.00,54.046
793.00,54.035
794.00,54.059
795.00,54.060
796.00,54.038
797.00,53.982
798.00,53.978
799.00,53.966
800.00,53.864
801.00,53.937
802.00,53.944
803.00,53.908
804.00,53.848
805.00,53.877
806.00,53.822
807.00,53.757
808.00,53.858
809.00,53.817
810.00,53.749
811.00,53.819
812.00,53.768
813.00,53.783
814.00,53.750
815.00,53.733
816.00,53.714
817.00,53.675
818.00,53.605
819.00,53.647
820.00,53.568
821.00,53.567
822.00,53.595
823.00,53.539
824.00,53.556
825.00,53.489
826.00,53.466
827.00,53.634
828.00,53.618
829.00,53.482
830.00,53.473
831.00,56.021
832.00,56.006
833.00,55.941
834.00,55.900
835.00,55.886
836.00,55.904
837.00,55.885
838.00,55.812
839.00,55.823
840.00,55.792
841.00,55.815
842.00,55.782
843.00,55.787
844.00,55.745
845.00,55.731
846.00,55.730
847.00,55.686
848.00,55.664
849.00,55.650
850.00,55.590
851.00,55.500
852.00,55.566
853.00,55.609
854.00,55.506
855.00,55.442
856.00,55.436
857.00,55.417
858.00,55.403
859.00,55.390
860.00,55.383
861.00,55.329
862.00,55.329
863.00,55.370
864.00,55.281
865.00,55.307
866.00,55.507
867.00,55.238
868.00,55.255
869.00,55.240
870.00,55.241
871.00,55.220
872.00,55.180
873.00,55.217
874.00,55.189
875.00,55.157
876.00,55.155
877.00,55.157
878.00,55.177
879.00,55.145
880.00,55.143
881.00,55.101
882.00,55.155
883.00,55.094
884.00,55.083
885.00,55.041
886.00,55.052
887.00,55.020
888.00,55.007
889.00,54.958
890.00,54.955
891.00,54.929
892.00,54.901
893.00,54.913
894.00,54.889
895.00,54.864
896.00,54.850
897.00,54.820
898.00,54.803
899.00,54.804
900.00,54.770
901.00,54.767
902.00,54.771
903.00,54.725
904.00,54.737
905.00,54.718
906.00,54.693
907.00,54.687
908.00,54.652
909.00,54.633
910.00,54.587
911.00,54.592
912.00,54.576
913.00,54.538
914.00,54.553
915.00,54.516
916.00,54.517
917.00,54.488
918.00,54.483
919.00,54.427
920.00,54.425
921.00,54.425
922.00,54.410
923.00,54.404
924.00,54.349
925.00,54.372
926.00,54.348
927.00,54.342
928.00,54.293
929.00,54.312
930.00,54.276
931.00,54.245
932.00,54.221
933.00,54.221
934.00,54.240
935.00,54.185
936.00,54.164
937.00,54.099
938.00,54.208
939.00,54.116
940.00,54.085
941.00,54.097
942.00,54.064
943.00,54.046
944.00,54.027
945.00,54.030
946.00,54.013
947.00,53.959
948.00,53.954
949.00,53.956
950.00,53.935
951.00,53.881
952.00,53.871
953.00,53.905
954.00,53.820
955.00,53.792
956.00,53.782
957.00,53.740
958.00,53.771
959.00,53.705
960.00,53.691
961.00,53.696
962.00,53.695
963.00,53.657
964.00,53.653
965.00,53.636
966.00,53.631
967.00,53.615
968.00,53.600
969.00,53.632
970.00,53.589
971.00,53.602
972.00,53.572
973.00,53.619
974.00,53.634
975.00,53.612
976.00,53.611
977.00,53.615
978.00,53.646
979.00,53.597
980.00,53.625
981.00,53.605
982.00,53.589
983.00,53.598
984.00,53.580
985.00,53.600
986.00,53.566
987.00,53.576
988.00,53.552
989.00,53.558
990.00,53.538
991.00,53.530
992.00,53.526
993.00,53.511
994.00,53.502
995.00,53.488
996.00,53.507
997.00,53.447
998.00,53.417
999.00,53.493
1000.00,53.409
1001.00,53.404
1002.00,53.417
1003.00,53.405
1004.00,53.380
1005.00,53.351
1006.00,53.386
1007.00,53.355
1008.00,53.341
1009.00,53.311
1010.00,53.330
1011.00,53.299
1012.00,53.273
1013.00,53.292
1014.00,53.277
1015.00,53.262
1016.00,53.229
1017.00,53.225
1018.00,53.214
1019.00,53.200
1020.00,53.182
1021.00,53.186
1022.00,53.171
1023.00,53.126
1024.00,53.127
1025.00,53.113
1026.00,53.095
1027.00,53.065
1028.00,53.057
1029.00,53.048
1030.00,53.023
1031.00,53.036
1032.00,52.988
1033.00,52.997
1034.00,52.968
1035.00,52.944
1036.00,52.914
1037.00,52.900
1038.00,52.873
1039.00,52.840
1040.00,52.849
1041.00,52.813
1042.00,52.814
1043.00,52.798
1044.00,52.820
1045.00,52.802
1046.00,52.800
1047.00,52.812
1048.00,52.830
1049.00,52.846
1050.00,52.848
1051.00,52.885
1052.00,52.893
1053.00,52.892
1054.00,52.903
1055.00,52.900
1056.00,52.910
1057.00,52.926
1058.00,52.904
1059.00,52.902
1060.00,52.947
1061.00,52.907
1062.00,52.914
1063.00,52.915
1064.00,52.913
1065.00,52.916
1066.00,52.892
1067.00,52.884
1068.00,52.910
1069.00,52.860
1070.00,52.842
1071.00,52.835
1072.00,52.844
1073.00,52.828
1074.00,52.829
1075.00,52.824
1076.00,52.823
1077.00,52.803
1078.00,52.787
1079.00,52.793
1080.00,52.788
1081.00,52.770
1082.00,52.767
1083.00,52.754
1084.00,52.753
1085.00,52.750
1086.00,52.737
1087.00,52.757
1088.00,52.774
1089.00,52.748
1090.00,52.724
1091.00,52.712
1092.00,52.716
1093.00,52.695
1094.00,52.695
1095.00,52.684
1096.00,52.669
1097.00,52.666
1098.00,52.672
1099.00,52.646
1100.00,52.633
1101.00,52.627
1102.00,52.610
1103.00,52.605
1104.00,52.606
1105.00,52.585
1106.00,52.589
1107.00,52.573
1108.00,52.570
1109.00,52.559
1110.00,52.560
1111.00,52.552
1112.00,52.541
1113.00,52.527
1114.00,52.521
1115.00,52.528
1116.00,52.525
1117.00,52.505
1118.00,52.501
1119.00,52.477
1120.00,52.495
1121.00,52.488
1122.00,52.466
1123.00,52.460
1124.00,52.454
1125.00,52.459
1126.00,52.462
1127.00,52.456
1128.00,52.452
1129.00,52.439
1130.00,52.414
1131.00,52.404
1132.00,52.392
1133.00,52.372
1134.00,52.381
1135.00,52.376
1136.00,52.389
1137.00,52.386
1138.00,52.401
1139.00,52.410
1140.00,52.388
1141.00,52.380
1142.00,52.372
1143.00,52.382
1144.00,52.358
1145.00,52.359
1146.00,52.349
1147.00,52.344
1148.00,52.344
1149.00,52.354
1150.00,52.366
1151.00,52.363
1152.00,52.345
1153.00,52.359
1154.00,52.344
1155.00,52.344
1156.00,52.341
1157.00,52.344
1158.00,52.341
1159.00,52.348
1160.00,52.329
1161.00,52.338
1162.00,52.318
1163.00,52.309
1164.00,52.333
1165.00,52.331
1166.00,52.313
1167.00,52.312
1168.00,52.322
1169.00,52.318
1170.00,52.328
1171.00,52.302
1172.00,52.327
1173.00,52.320
1174.00,52.310
1175.00,52.314
1176.00,52.315
1177.00,52.297
1178.00,52.310
1179.00,52.321
1180.00,52.309
1181.00,52.328
1182.00,52.320
1183.00,52.309
1184.00,52.299
1185.00,52.306
1186.00,52.316
1187.00,52.300
1188.00,52.282
1189.00,52.315
1190.00,52.276
1191.00,52.308
1192.00,52.359
1193.00,52.305
1194.00,52.312
1195.00,52.289
1196.00,52.322
1197.00,52.327
1198.00,52.308
1199.00,52.304
1200.00,52.332
1201.00,52.340
1202.00,52.318
1203.00,52.326
1204.00,52.307
1205.00,52.341
1206.00,52.322
1207.00,52.330
1208.00,52.315
1209.00,52.312
1210.00,52.297
1211.00,52.310
1212.00,52.335
1213.00,52.311
1214.00,52.315
1215.00,52.297
1216.00,52.316
1217.00,52.312
1218.00,52.304
1219.00,52.322
1220.00,52.311
1221.00,52.337
1222.00,52.333
1223.00,52.349
1224.00,52.345
1225.00,52.341
1226.00,52.309
1227.00,52.321
1228.00,52.355
1229.00,52.332
1230.00,52.381
1231.00,52.364
1232.00,52.372
1233.00,52.391
1234.00,52.383
1235.00,52.387
1236.00,52.388
1237.00,52.370
1238.00,52.377
1239.00,52.373
1240.00,52.365
1241.00,52.363
1242.00,52.357
1243.00,52.369
1244.00,52.363
1245.00,52.400
1246.00,52.402
1247.00,52.394
1248.00,52.393
1249.00,52.408
1250.00,52.415
1251.00,52.405
1252.00,52.426
1253.00,52.410
1254.00,52.431
1255.00,52.422
1256.00,52.396
1257.00,52.404
1258.00,52.445
1259.00,52.425
1260.00,52.450
1261.00,52.445
1262.00,52.427
1263.00,52.428
1264.00,52.442
1265.00,52.451
1266.00,52.461
1267.00,52.473
1268.00,52.487
1269.00,52.500
1270.00,52.498
1271.00,52.499
1272.00,52.505
1273.00,52.518
1274.00,52.520
1275.00,52.527
1276.00,52.530
1277.00,52.544
1278.00,52.549
1279.00,52.555
1280.00,52.546
1281.00,52.561
1282.00,52.574
1283.00,52.545
1284.00,52.569
1285.00,52.560
1286.00,52.551
1287.00,52.561
1288.00,52.594
1289.00,52.580
1290.00,52.596
1291.00,52.596
1292.00,52.580
1293.00,52.591
1294.00,52.597
1295.00,52.609
1296.00,52.619
1297.00,52.619
1298.00,52.650
1299.00,52.637
1300.00,52.655
1301.00,52.660
1302.00,52.692
1303.00,52.671
1304.00,52.665
1305.00,52.676
1306.00,52.662
1307.00,52.673
1308.00,52.661
1309.00,52.655
1310.00,52.668
1311.00,52.652
1312.00,52.683
1313.00,52.695
1314.00,52.704
1315.00,52.727
1316.00,52.729
1317.00,52.750
1318.00,52.760
1319.00,52.760
1320.00,52.758
1321.00,52.927
1322.00,52.901
1323.00,52.869
1324.00,52.873
1325.00,52.858
1326.00,52.890
1327.00,52.904
1328.00,52.908
1329.00,52.896
1330.00,52.898
1331.00,52.920
1332.00,52.904
1333.00,52.915
1334.00,52.907
1335.00,52.955
1336.00,52.973
1337.00,52.992
1338.00,53.057
1339.00,53.104
1340.00,53.133
1341.00,53.207
1342.00,53.257
1343.00,53.314
1344.00,53.356
1345.00,53.408
1346.00,53.435
1347.00,53.483
1348.00,53.488
1349.00,53.518
1350.00,53.549
1351.00,53.576
1352.00,53.565
1353.00,53.538
1354.00,53.573
1355.00,53.529
1356.00,53.621
1357.00,53.574
1358.00,53.582
1359.00,53.584
1360.00,53.593
1361.00,53.680
1362.00,53.553
1363.00,53.192
1364.00,53.641
1365.00,53.635
1366.00,53.627
1367.00,53.576
1368.00,53.653
1369.00,53.659
1370.00,53.615
1371.00,53.601
1372.00,53.635
1373.00,53.600
1374.00,53.616
1375.00,53.613
1376.00,53.579
1377.00,53.572
1378.00,53.641
1379.00,53.604
1380.00,53.595
1381.00,53.584
1382.00,53.621
1383.00,53.640
1384.00,53.601
1385.00,53.630
1386.00,53.606
1387.00,53.576
1388.00,53.607
1389.00,53.583
1390.00,53.559
1391.00,53.627
1392.00,53.559
1393.00,53.672
1394.00,53.681
1395.00,53.601
1396.00,53.594
1397.00,53.573
1398.00,53.547
1399.00,53.622
1400.00,53.617
1401.00,53.571
1402.00,53.574
1403.00,53.510
1404.00,53.627
1405.00,53.590
1406.00,53.659
1407.00,53.619
1408.00,53.714
1409.00,53.842
1410.00,53.676
1411.00,53.608
1412.00,53.658
1413.00,53.633
1414.00,53.666
1415.00,53.695
1416.00,53.713
1417.00,53.717
1418.00,53.731
1419.00,53.713
1420.00,53.724
1421.00,53.755
1422.00,53.746
1423.00,53.782
1424.00,53.811
1425.00,53.798
1426.00,53.809
1427.00,53.846
1428.00,53.821
1429.00,53.844
1430.00,53.852
1431.00,53.867
1432.00,53.902
1433.00,53.895
1434.00,53.906
1435.00,53.951
1436.00,53.945
1437.00,53.940
1438.00,53.958
1439.00,53.987
1440.00,54.011
1441.00,54.016
1442.00,54.024
1443.00,54.113
1444.00,54.116
1445.00,54.088
1446.00,54.069
1447.00,54.095
1448.00,54.146
1449.00,54.156
1450.00,54.145
1451.00,54.170
1452.00,54.184
1453.00,54.185
1454.00,54.230
1455.00,54.241
1456.00,54.247
1457.00,54.255
1458.00,54.257
1459.00,54.279
1460.00,54.310
1461.00,54.278
1462.00,54.341
1463.00,54.332
1464.00,54.341
1465.00,54.373
1466.00,54.351
1467.00,54.390
1468.00,54.439
1469.00,54.421
1470.00,54.445
1471.00,54.457
1472.00,54.440
1473.00,54.451
1474.00,54.468
1475.00,54.476
1476.00,54.503
1477.00,54.472
1478.00,54.506
1479.00,54.555
1480.00,54.537
1481.00,54.566
1482.00,54.585
1483.00,54.587
1484.00,54.612
1485.00,54.608
1486.00,54.624
1487.00,54.634
1488.00,54.638
1489.00,54.642
1490.00,54.667
1491.00,54.677
1492.00,54.696
1493.00,54.685
1494.00,54.708
1495.00,54.705
1496.00,54.714
1497.00,54.691
1498.00,54.704
1499.00,54.716
1500.00,54.743
1501.00, 
1502.00, 
1503.00, 
1504.00, 
1505.00, 
1506.00, 
1507.00, 
1508.00, 
1509.00, 
1510.00, 
1511.00, 
1512.00, 
1513.00, 
1514.00, 
1515.00, 
1516.00, 
1517.00, 
1518.00, 
1519.00, 
1520.00, 
1521.00, 
1522.00, 
1523.00, 
1524.00, 
1525.00, 
1526.00, 
1527.00, 
1528.00, 
1529.00, 
1530.00, 
1531.00, 
1532.00, 
1533.00, 
1534.00, 
1535.00, 
1536.00, 
1537.00, 
1538.00, 
1539.00, 
1540.00, 
1541.00, 
1542.00, 
1543.00, 
1544.00, 
1545.00, 
1546.00, 
1547.00, 
1548.00, 
1549.00, 
1550.00, 
1551.00, 
1552.00, 
1553.00, 
1554.00, 
1555.00, 
1556.00, 
1557.00, 
1558.00, 
1559.00, 
1560.00, 
1561.00, 
1562.00, 
1563.00, 
1564.00, 
1565.00, 
1566.00, 
1567.00, 
1568.00, 
1569.00, 
1570.00, 
1571.00, 
1572.00, 
1573.00, 
1574.00, 
1575.00, 
1576.00, 
1577.00, 
1578.00, 
1579.00, 
1580.00, 
1581.00, 
1582.00, 
1583.00, 
1584.00, 
1585.00, 
1586.00, 
1587.00, 
1588.00, 
1589.00, 
1590.00, 
1591.00, 
1592.00, 
1593.00, 
1594.00, 
1595.00, 
1596.00, 
1597.00, 
1598.00, 
1599.00, 
1600.00, 
1601.00, 
1602.00, 
1603.00, 
1604.00, 
1605.00, 
1606.00, 
1607.00, 
1608.00, 
1609.00, 
1610.00, 
1611.00, 
1612.00, 
1613.00, 
1614.00, 
1615.00, 
1616.00, 
1617.00, 
1618.00, 
1619.00, 
1620.00, 
1621.00, 
1622.00, 
1623.00, 
1624.00, 
1625.00, 
1626.00, 
1627.00, 
1628.00, 
1629.00, 
1630.00, 
1631.00, 
1632.00, 
1633.00, 
1634.00, 
1635.00, 
1636.00, 
1637.00, 
1638.00, 
1639.00, 
1640.00, 
1641.00, 
1642.00, 
1643.00, 
1644.00, 
1645.00, 
1646.00, 
1647.00, 
1648.00, 
1649.00, 
1650.00, 
1651.00, 
1652.00, 
1653.00, 
1654.00, 
1655.00, 
1656.00, 
1657.00, 
1658.00, 
1659.00, 
1660.00, 
1661.00, 
1662.00, 
1663.00, 
1664.00, 
1665.00, 
1666.00, 
1667.00, 
1668.00, 
1669.00, 
1670.00, 
1671.00, 
1672.00, 
1673.00, 
1674.00, 
1675.00, 
1676.00, 
1677.00, 
1678.00, 
1679.00, 
1680.00, 
1681.00, 
1682.00, 
1683.00, 
1684.00, 
1685.00, 
1686.00, 
1687.00, 
1688.00, 
1689.00, 
1690.00, 
1691.00, 
1692.00, 
1693.00, 
1694.00, 
1695.00, 
1696.00, 
1697.00, 
1698.00, 
1699.00, 
1700.00, 
1701.00, 
1702.00, 
1703.00, 
1704.00, 
1705.00, 
1706.00, 
1707.00, 
1708.00, 
1709.00, 
1710.00, 
1711.00, 
1712.00, 
1713.00, 
1714.00, 
1715.00, 
1716.00, 
1717.00, 
1718.00, 
1719.00, 
1720.00, 
1721.00, 
1722.00, 
1723.00, 
1724.00, 
1725.00, 
1726.00, 
1727.00, 
1728.00, 
1729.00, 
1730.00, 
1731.00, 
1732.00, 
1733.00, 
1734.00, 
1735.00, 
1736.00, 
1737.00, 
1738.00, 
1739.00, 
1740.00, 
1741.00, 
1742.00, 
1743.00, 
1744.00, 
1745.00, 
1746.00, 
1747.00, 
1748.00, 
1749.00, 
1750.00, 
1751.00, 
1752.00, 
1753.00, 
1754.00, 
1755.00, 
1756.00, 
1757.00, 
1758.00, 
1759.00, 
1760.00, 
1761.00, 
1762.00, 
1763.00, 
1764.00, 
1765.00, 
1766.00, 
1767.00, 
1768.00, 
1769.00, 
1770.00, 
1771.00, 
1772.00, 
1773.00, 
1774.00, 
1775.00, 
1776.00, 
1777.00, 
1778.00, 
1779.00, 
1780.00, 
1781.00, 
1782.00, 
1783.00, 
1784.00, 
1785.00, 
1786.00, 
1787.00, 
1788.00, 
1789.00, 
1790.00, 
1791.00, 
1792.00, 
1793.00, 
1794.00, 
1795.00, 
1796.00, 
1797.00, 
1798.00, 
1799.00, 
1800.00, 
1801.00, 
1802.00, 
1803.00, 
1804.00, 
1805.00, 
1806.00, 
1807.00, 
1808.00, 
1809.00, 
1810.00, 
1811.00, 
1812.00, 
1813.00, 
1814.00, 
1815.00, 
1816.00, 
1817.00, 
1818.00, 
1819.00, 
1820.00, 
1821.00, 
1822.00, 
1823.00, 
1824.00, 
1825.00, 
1826.00, 
1827.00, 
1828.00, 
1829.00, 
1830.00, 
1831.00, 
1832.00, 
1833.00, 
1834.00, 
1835.00, 
1836.00, 
1837.00, 
1838.00, 
1839.00, 
1840.00, 
1841.00, 
1842.00, 
1843.00, 
1844.00, 
1845.00, 
1846.00, 
1847.00, 
1848.00, 
1849.00, 
1850.00, 
1851.00, 
1852.00, 
1853.00, 
1854.00, 
1855.00, 
1856.00, 
1857.00, 
1858.00, 
1859.00, 
1860.00, 
1861.00, 
1862.00, 
1863.00, 
1864.00, 
1865.00, 
1866.00, 
1867.00, 
1868.00, 
1869.00, 
1870.00, 
1871.00, 
1872.00, 
1873.00, 
1874.00, 
1875.00, 
1876.00, 
1877.00, 
1878.00, 
1879.00, 
1880.00, 
1881.00, 
1882.00, 
1883.00, 
1884.00, 
1885.00, 
1886.00, 
1887.00, 
1888.00, 
1889.00, 
1890.00, 
1891.00, 
1892.00, 
1893.00, 
1894.00, 
1895.00, 
1896.00, 
1897.00, 
1898.00, 
1899.00, 
1900.00, 
1901.00, 
1902.00, 
1903.00, 
1904.00, 
1905.00, 
1906.00, 
1907.00, 
1908.00, 
1909.00, 
1910.00, 
1911.00, 
1912.00, 
1913.00, 
1914.00, 
1915.00, 
1916.00, 
1917.00, 
1918.00, 
1919.00, 
1920.00, 
1921.00, 
1922.00, 
1923.00, 
1924.00, 
1925.00, 
1926.00, 
1927.00, 
1928.00, 
1929.00, 
1930.00, 
1931.00, 
1932.00, 
1933.00, 
1934.00, 
1935.00, 
1936.00, 
1937.00, 
1938.00, 
1939.00, 
1940.00, 
1941.00, 
1942.00, 
1943.00, 
1944.00, 
1945.00, 
1946.00, 
1947.00, 
1948.00, 
1949.00, 
1950.00, 
1951.00, 
1952.00, 
1953.00, 
1954.00, 
1955.00, 
1956.00, 
1957.00, 
1958.00, 
1959.00, 
1960.00, 
1961.00, 
1962.00, 
1963.00, 
1964.00, 
1965.00, 
1966.00, 
1967.00, 
1968.00, 
1969.00, 
1970.00, 
1971.00, 
1972.00, 
1973.00, 
1974.00, 
1975.00, 
1976.00, 
1977.00, 
1978.00, 
1979.00, 
1980.00, 
1981.00, 
1982.00, 
1983.00, 
1984.00, 
1985.00, 
1986.00, 
1987.00, 
1988.00, 
1989.00, 
1990.00, 
1991.00, 
1992.00, 
1993.00, 
1994.00, 
1995.00, 
1996.00, 
1997.00, 
1998.00, 
1999.00, 
2000.00, 
2001.00, 
2002.00, 
2003.00, 
2004.00, 
2005.00, 
2006.00, 
2007.00, 
2008.00, 
2009.00, 
2010.00, 
2011.00, 
2012.00, 
2013.00, 
2014.00, 
2015.00, 
2016.00, 
2017.00, 
2018.00, 
2019.00, 
2020.00, 
2021.00, 
2022.00, 
2023.00, 
2024.00, 
2025.00, 
2026.00, 
2027.00, 
2028.00, 
2029.00, 
2030.00, 
2031.00, 
2032.00, 
2033.00, 
2034.00, 
2035.00, 
2036.00, 
2037.00, 
2038.00, 
2039.00, 
2040.00, 
2041.00, 
2042.00, 
2043.00, 
2044.00, 
2045.00, 
2046.00, 
2047.00, 
2048.00, 
2049.00, 
2050.00, 
2051.00, 
2052.00, 
2053.00, 
2054.00, 
2055.00, 
2056.00, 
2057.00, 
2058.00, 
2059.00, 
2060.00, 
2061.00, 
2062.00, 
2063.00, 
2064.00, 
2065.00, 
2066.00, 
2067.00, 
2068.00, 
2069.00, 
2070.00, 
2071.00, 
2072.00, 
2073.00, 
2074.00, 
2075.00, 
2076.00, 
2077.00, 
2078.00, 
2079.00, 
2080.00, 
2081.00, 
2082.00, 
2083.00, 
2084.00, 
2085.00, 
2086.00, 
2087.00, 
2088.00, 
2089.00, 
2090.00, 
2091.00, 
2092.00, 
2093.00, 
2094.00, 
2095.00, 
2096.00, 
2097.00, 
2098.00, 
2099.00, 
2100.00, 
2101.00, 
2102.00, 
2103.00, 
2104.00, 
2105.00, 
2106.00, 
2107.00, 
2108.00, 
2109.00, 
2110.00, 
2111.00, 
2112.00, 
2113.00, 
2114.00, 
2115.00, 
2116.00, 
2117.00, 
2118.00, 
2119.00, 
2120.00, 
2121.00, 
2122.00, 
2123.00, 
2124.00, 
2125.00, 
2126.00, 
2127.00, 
2128.00, 
2129.00, 
2130.00, 
2131.00, 
2132.00, 
2133.00, 
2134.00, 
2135.00, 
2136.00, 
2137.00, 
2138.00, 
2139.00, 
2140.00, 
2141.00, 
2142.00, 
2143.00, 
2144.00, 
2145.00, 
2146.00, 
2147.00, 
2148.00, 
2149.00, 
2150.00, 
2151.00, 
2152.00, 
2153.00, 
2154.00, 
2155.00, 
2156.00, 
2157.00, 
2158.00, 
2159.00, 
2160.00, 
2161.00, 
2162.00, 
2163.00, 
2164.00, 
2165.00, 
2166.00, 
2167.00, 
2168.00, 
2169.00, 
2170.00, 
2171.00, 
2172.00, 
2173.00, 
2174.00, 
2175.00, 
2176.00, 
2177.00, 
2178.00, 
2179.00, 
2180.00, 
2181.00, 
2182.00, 
2183.00, 
2184.00, 
2185.00, 
2186.00, 
2187.00, 
2188.00, 
2189.00, 
2190.00, 
2191.00, 
2192.00, 
2193.00, 
2194.00, 
2195.00, 
2196.00, 
2197.00, 
2198.00, 
2199.00, 
2200.00, 
2201.00, 
2202.00, 
2203.00, 
2204.00, 
2205.00, 
2206.00, 
2207.00, 
2208.00, 
2209.00, 
2210.00, 
2211.00, 
2212.00, 
2213.00, 
2214.00, 
2215.00, 
2216.00, 
2217.00, 
2218.00, 
2219.00, 
2220.00, 
2221.00, 
2222.00, 
2223.00, 
2224.00, 
2225.00, 
2226.00, 
2227.00, 
2228.00, 
2229.00, 
2230.00, 
2231.00, 
2232.00, 
2233.00, 
2234.00, 
2235.00, 
2236.00, 
2237.00, 
2238.00, 
2239.00, 
2240.00, 
2241.00, 
2242.00, 
2243.00, 
2244.00, 
2245.00, 
2246.00, 
2247.00, 
2248.00, 
2249.00, 
2250.00, 
2251.00, 
2252.00, 
2253.00, 
2254.00, 
2255.00, 
2256.00, 
2257.00, 
2258.00, 
2259.00, 
2260.00, 
2261.00, 
2262.00, 
2263.00, 
2264.00, 
2265.00, 
2266.00, 
2267.00, 
2268.00, 
2269.00, 
2270.00, 
2271.00, 
2272.00, 
2273.00, 
2274.00, 
2275.00, 
2276.00, 
2277.00, 
2278.00, 
2279.00, 
2280.00, 
2281.00, 
2282.00, 
2283.00, 
2284.00, 
2285.00, 
2286.00, 
2287.00, 
2288.00, 
2289.00, 
2290.00, 
2291.00, 
2292.00, 
2293.00, 
2294.00, 
2295.00, 
2296.00, 
2297.00, 
2298.00, 
2299.00, 
2300.00, 
2301.00, 
2302.00, 
2303.00, 
2304.00, 
2305.00, 
2306.00, 
2307.00, 
2308.00, 
2309.00, 
2310.00, 
2311.00, 
2312.00, 
2313.00, 
2314.00, 
2315.00, 
2316.00, 
2317.00, 
2318.00, 
2319.00, 
2320.00, 
2321.00, 
2322.00, 
2323.00, 
2324.00, 
2325.00, 
2326.00, 
2327.00, 
2328.00, 
2329.00, 
2330.00, 
2331.00, 
2332.00, 
2333.00, 
2334.00, 
2335.00, 
2336.00, 
2337.00, 
2338.00, 
2339.00, 
2340.00, 
2341.00, 
2342.00, 
2343.00, 
2344.00, 
2345.00, 
2346.00, 
2347.00, 
2348.00, 
2349.00, 
2350.00, 
2351.00, 
2352.00, 
2353.00, 
2354.00, 
2355.00, 
2356.00, 
2357.00, 
2358.00, 
2359.00, 
2360.00, 
2361.00, 
2362.00, 
2363.00, 
2364.00, 
2365.00, 
2366.00, 
2367.00, 
2368.00, 
2369.00, 
2370.00, 
2371.00, 
2372.00, 
2373.00, 
2374.00, 
2375.00, 
2376.00, 
2377.00, 
2378.00, 
2379.00, 
2380.00, 
2381.00, 
2382.00, 
2383.00, 
2384.00, 
2385.00, 
2386.00, 
2387.00, 
2388.00, 
2389.00, 
2390.00, 
2391.00, 
2392.00, 
2393.00, 
2394.00, 
2395.00, 
2396.00, 
2397.00, 
2398.00, 
2399.00, 
2400.00, 
2401.00, 
2402.00, 
2403.00, 
2404.00, 
2405.00, 
2406.00, 
2407.00, 
2408.00, 
2409.00, 
2410.00, 
2411.00, 
2412.00, 
2413.00, 
2414.00, 
2415.00, 
2416.00, 
2417.00, 
2418.00, 
2419.00, 
2420.00, 
2421.00, 
2422.00, 
2423.00, 
2424.00, 
2425.00, 
2426.00, 
2427.00, 
2428.00, 
2429.00, 
2430.00, 
2431.00, 
2432.00, 
2433.00, 
2434.00, 
2435.00, 
2436.00, 
2437.00, 
2438.00, 
2439.00, 
2440.00, 
2441.00, 
2442.00, 
2443.00, 
2444.00, 
2445.00, 
2446.00, 
2447.00, 
2448.00, 
2449.00, 
2450.00, 
2451.00, 
2452.00, 
2453.00, 
2454.00, 
2455.00, 
2456.00, 
2457.00, 
2458.00, 
2459.00, 
2460.00, 
2461.00, 
2462.00, 
2463.00, 
2464.00, 
2465.00, 
2466.00, 
2467.00, 
2468.00, 
2469.00, 
2470.00, 
2471.00, 
2472.00, 
2473.00, 
2474.00, 
2475.00, 
2476.00, 
2477.00, 
2478.00, 
2479.00, 
2480.00, 
2481.00, 
2482.00, 
2483.00, 
2484.00, 
2485.00, 
2486.00, 
2487.00, 
2488.00, 
2489.00, 
2490.00, 
2491.00, 
2492.00, 
2493.00, 
2494.00, 
2495.00, 
2496.00, 
2497.00, 
2498.00, 
2499.00, 
2500.00, 
2501.00, 
2502.00, 
2503.00, 
2504.00, 
2505.00, 
2506.00, 
2507.00, 
2508.00, 
2509.00, 
2510.00, 
2511.00, 
2512.00, 
2513.00, 
2514.00, 
2515.00, 
2516.00, 
2517.00, 
2518.00, 
2519.00, 
2520.00, 
2521.00, 
2522.00, 
2523.00, 
2524.00, 
2525.00, 
2526.00, 
2527.00, 
2528.00, 
2529.00, 
2530.00, 
2531.00, 
2532.00, 
2533.00, 
2534.00, 
2535.00, 
2536.00, 
2537.00, 
2538.00, 
2539.00, 
2540.00, 
2541.00, 
2542.00, 
2543.00, 
2544.00, 
2545.00, 
2546.00, 
2547.00, 
2548.00, 
2549.00, 
2550.00, 
2551.00, 
2552.00, 
2553.00, 
2554.00, 
2555.00, 
2556.00, 
2557.00, 
2558.00, 
2559.00, 
2560.00, 
2561.00, 
2562.00, 
2563.00, 
2564.00, 
2565.00, 
2566.00, 
2567.00, 
2568.00, 
2569.00, 
2570.00, 
2571.00, 
2572.00, 
2573.00, 
2574.00, 
2575.00, 
2576.00, 
2577.00, 
2578.00, 
2579.00, 
2580.00, 
2581.00, 
2582.00, 
2583.00, 
2584.00, 
2585.00, 
2586.00, 
2587.00, 
2588.00, 
2589.00, 
2590.00, 
2591.00, 
2592.00, 
2593.00, 
2594.00, 
2595.00, 
2596.00, 
2597.00, 
2598.00, 
2599.00, 
2600.00, 
