"1bP2 - RawData"
"Wavelength nm.","T%"
200.00,0.004
201.00,0.005
202.00,-0.003
203.00,-0.000
204.00,0.003
205.00,0.002
206.00,0.002
207.00,-0.001
208.00,-0.001
209.00,0.002
210.00,0.000
211.00,0.006
212.00,0.001
213.00,0.001
214.00,0.003
215.00,0.001
216.00,0.004
217.00,0.001
218.00,0.002
219.00,0.001
220.00,0.003
221.00,0.004
222.00,0.002
223.00,0.002
224.00,0.000
225.00,-0.002
226.00,0.001
227.00,0.001
228.00,-0.001
229.00,-0.001
230.00,0.001
231.00,0.001
232.00,-0.000
233.00,0.003
234.00,0.003
235.00,0.001
236.00,0.003
237.00,0.002
238.00,0.000
239.00,-0.000
240.00,0.000
241.00,0.000
242.00,-0.001
243.00,0.000
244.00,-0.001
245.00,-0.000
246.00,0.001
247.00,-0.000
248.00,-0.000
249.00,0.001
250.00,-0.001
251.00,0.003
252.00,0.001
253.00,0.001
254.00,0.003
255.00,0.001
256.00,-0.001
257.00,0.000
258.00,0.000
259.00,0.000
260.00,0.002
261.00,-0.000
262.00,0.001
263.00,0.002
264.00,-0.000
265.00,0.000
266.00,0.002
267.00,0.001
268.00,-0.001
269.00,-0.001
270.00,-0.001
271.00,-0.000
272.00,-0.001
273.00,-0.000
274.00,0.000
275.00,0.003
276.00,-0.001
277.00,0.000
278.00,0.000
279.00,0.000
280.00,0.002
281.00,0.001
282.00,-0.001
283.00,-0.002
284.00,-0.000
285.00,0.001
286.00,0.001
287.00,-0.000
288.00,-0.002
289.00,0.000
290.00,0.003
291.00,0.001
292.00,0.001
293.00,-0.000
294.00,0.001
295.00,-0.001
296.00,-0.001
297.00,0.001
298.00,0.000
299.00,0.001
300.00,0.005
301.00,0.006
302.00,0.011
303.00,0.016
304.00,0.021
305.00,0.037
306.00,0.054
307.00,0.076
308.00,0.120
309.00,0.187
310.00,0.260
311.00,0.355
312.00,0.477
313.00,0.646
314.00,0.835
315.00,1.057
316.00,1.354
317.00,1.655
318.00,2.081
319.00,2.565
320.00,3.091
321.00,3.655
322.00,4.277
323.00,5.003
324.00,5.715
325.00,6.474
326.00,7.246
327.00,8.138
328.00,9.031
329.00,9.872
330.00,10.870
331.00,11.777
332.00,12.688
333.00,13.663
334.00,14.604
335.00,15.526
336.00,16.439
337.00,17.371
338.00,18.236
339.00,19.080
340.00,19.935
341.00,20.742
342.00,21.472
343.00,22.234
344.00,22.800
345.00,23.618
346.00,24.192
347.00,24.775
348.00,25.317
349.00,25.845
350.00,26.311
351.00,26.785
352.00,27.147
353.00,27.535
354.00,27.914
355.00,28.266
356.00,28.579
357.00,28.845
358.00,29.065
359.00,29.465
360.00,29.694
361.00,29.844
362.00,30.074
363.00,30.256
364.00,30.352
365.00,30.489
366.00,30.591
367.00,30.688
368.00,30.831
369.00,30.739
370.00,30.976
371.00,30.956
372.00,30.923
373.00,30.967
374.00,30.985
375.00,30.962
376.00,30.882
377.00,30.882
378.00,30.719
379.00,30.713
380.00,30.564
381.00,30.637
382.00,30.649
383.00,30.679
384.00,30.731
385.00,30.758
386.00,30.754
387.00,30.884
388.00,30.989
389.00,30.970
390.00,31.017
391.00,31.037
392.00,31.009
393.00,31.076
394.00,31.049
395.00,31.241
396.00,31.198
397.00,31.209
398.00,31.237
399.00,31.239
400.00,31.259
401.00,31.240
402.00,31.219
403.00,31.243
404.00,31.177
405.00,31.214
406.00,31.239
407.00,31.150
408.00,31.187
409.00,31.079
410.00,31.033
411.00,31.004
412.00,30.970
413.00,30.994
414.00,30.951
415.00,30.941
416.00,31.037
417.00,31.033
418.00,31.004
419.00,31.101
420.00,31.121
421.00,31.107
422.00,31.139
423.00,31.173
424.00,31.155
425.00,31.297
426.00,31.325
427.00,31.392
428.00,31.382
429.00,31.416
430.00,31.457
431.00,31.529
432.00,31.573
433.00,31.614
434.00,31.636
435.00,31.681
436.00,31.775
437.00,31.818
438.00,31.856
439.00,31.949
440.00,32.031
441.00,32.080
442.00,32.128
443.00,32.200
444.00,32.323
445.00,32.408
446.00,32.457
447.00,32.496
448.00,32.630
449.00,32.650
450.00,32.814
451.00,32.898
452.00,32.974
453.00,33.093
454.00,33.179
455.00,33.277
456.00,33.374
457.00,33.496
458.00,33.603
459.00,33.710
460.00,33.808
461.00,33.920
462.00,34.020
463.00,34.119
464.00,34.253
465.00,34.368
466.00,34.531
467.00,34.625
468.00,34.679
469.00,34.835
470.00,34.878
471.00,34.951
472.00,35.071
473.00,35.096
474.00,35.190
475.00,35.250
476.00,35.371
477.00,35.472
478.00,35.532
479.00,35.712
480.00,35.824
481.00,35.887
482.00,36.035
483.00,36.212
484.00,36.355
485.00,36.455
486.00,36.597
487.00,36.778
488.00,36.845
489.00,36.987
490.00,37.131
491.00,37.222
492.00,37.473
493.00,37.558
494.00,37.550
495.00,37.694
496.00,37.790
497.00,37.820
498.00,37.972
499.00,38.080
500.00,38.266
501.00,38.308
502.00,38.393
503.00,38.486
504.00,38.548
505.00,38.613
506.00,38.764
507.00,38.795
508.00,38.890
509.00,39.048
510.00,39.155
511.00,39.164
512.00,39.304
513.00,39.464
514.00,39.587
515.00,39.680
516.00,39.773
517.00,39.796
518.00,39.963
519.00,39.935
520.00,39.969
521.00,40.085
522.00,40.197
523.00,40.240
524.00,40.247
525.00,40.352
526.00,40.458
527.00,40.513
528.00,40.547
529.00,40.689
530.00,40.859
531.00,40.945
532.00,41.046
533.00,41.105
534.00,41.137
535.00,41.217
536.00,41.309
537.00,41.260
538.00,41.289
539.00,41.389
540.00,41.486
541.00,41.504
542.00,41.531
543.00,41.623
544.00,41.657
545.00,41.772
546.00,41.722
547.00,41.849
548.00,41.951
549.00,41.946
550.00,41.998
551.00,42.093
552.00,42.149
553.00,42.186
554.00,42.222
555.00,42.228
556.00,42.310
557.00,42.386
558.00,42.419
559.00,42.470
560.00,42.506
561.00,42.548
562.00,42.626
563.00,42.619
564.00,42.642
565.00,42.653
566.00,42.674
567.00,42.716
568.00,42.771
569.00,42.769
570.00,42.759
571.00,42.866
572.00,42.848
573.00,42.810
574.00,42.815
575.00,42.822
576.00,42.828
577.00,42.839
578.00,42.995
579.00,43.020
580.00,43.037
581.00,43.216
582.00,43.288
583.00,43.256
584.00,43.334
585.00,43.397
586.00,43.435
587.00,43.529
588.00,43.518
589.00,43.453
590.00,43.522
591.00,43.595
592.00,43.478
593.00,43.520
594.00,43.594
595.00,43.669
596.00,43.692
597.00,43.798
598.00,43.913
599.00,43.857
600.00,43.884
601.00,43.898
602.00,43.848
603.00,43.883
604.00,43.951
605.00,43.974
606.00,43.975
607.00,43.989
608.00,44.169
609.00,44.191
610.00,44.093
611.00,44.212
612.00,44.174
613.00,44.250
614.00,44.240
615.00,44.295
616.00,44.413
617.00,44.372
618.00,44.340
619.00,44.410
620.00,44.385
621.00,44.406
622.00,44.511
623.00,44.572
624.00,44.644
625.00,44.640
626.00,44.704
627.00,44.738
628.00,44.739
629.00,44.762
630.00,44.747
631.00,44.826
632.00,44.931
633.00,45.002
634.00,45.071
635.00,45.143
636.00,45.113
637.00,45.150
638.00,45.257
639.00,45.272
640.00,45.280
641.00,45.329
642.00,45.367
643.00,45.410
644.00,45.521
645.00,45.490
646.00,45.623
647.00,45.633
648.00,45.692
649.00,45.699
650.00,45.651
651.00,45.852
652.00,45.821
653.00,45.813
654.00,45.890
655.00,46.036
656.00,46.306
657.00,46.347
658.00,46.260
659.00,46.105
660.00,46.264
661.00,46.328
662.00,46.380
663.00,46.397
664.00,46.537
665.00,46.751
666.00,46.831
667.00,46.820
668.00,46.725
669.00,46.756
670.00,47.187
671.00,47.019
672.00,47.044
673.00,47.035
674.00,47.020
675.00,47.114
676.00,47.447
677.00,47.454
678.00,47.210
679.00,47.418
680.00,47.417
681.00,47.580
682.00,47.543
683.00,47.495
684.00,47.655
685.00,47.716
686.00,47.220
687.00,47.839
688.00,48.144
689.00,47.728
690.00,47.906
691.00,48.109
692.00,47.903
693.00,47.781
694.00,47.990
695.00,48.111
696.00,47.905
697.00,47.814
698.00,48.394
699.00,48.827
700.00,48.523
701.00,48.427
702.00,48.570
703.00,48.748
704.00,48.644
705.00,48.515
706.00,48.646
707.00,48.788
708.00,48.527
709.00,48.851
710.00,49.180
711.00,48.804
712.00,48.713
713.00,48.863
714.00,49.010
715.00,49.088
716.00,48.837
717.00,49.121
718.00,49.208
719.00,49.144
720.00,49.241
721.00,53.872
722.00,53.846
723.00,53.824
724.00,53.880
725.00,53.809
726.00,53.718
727.00,53.809
728.00,53.729
729.00,53.799
730.00,53.836
731.00,53.806
732.00,53.732
733.00,53.840
734.00,53.786
735.00,53.792
736.00,53.848
737.00,53.822
738.00,53.832
739.00,53.794
740.00,53.797
741.00,53.828
742.00,53.852
743.00,53.830
744.00,53.793
745.00,53.772
746.00,53.763
747.00,53.766
748.00,53.702
749.00,53.737
750.00,53.639
751.00,53.606
752.00,53.701
753.00,53.616
754.00,53.550
755.00,53.628
756.00,53.617
757.00,53.573
758.00,53.565
759.00,53.553
760.00,53.579
761.00,53.532
762.00,53.516
763.00,53.673
764.00,53.498
765.00,53.500
766.00,53.397
767.00,53.564
768.00,53.514
769.00,53.470
770.00,53.491
771.00,53.483
772.00,53.464
773.00,53.464
774.00,53.456
775.00,53.506
776.00,53.353
777.00,53.444
778.00,53.431
779.00,53.491
780.00,53.423
781.00,53.421
782.00,53.402
783.00,53.361
784.00,53.415
785.00,53.350
786.00,53.381
787.00,53.302
788.00,53.330
789.00,53.265
790.00,53.246
791.00,53.315
792.00,53.213
793.00,53.207
794.00,53.152
795.00,53.155
796.00,53.184
797.00,53.090
798.00,53.085
799.00,53.070
800.00,53.063
801.00,53.047
802.00,53.042
803.00,53.014
804.00,52.919
805.00,53.013
806.00,52.958
807.00,52.906
808.00,52.887
809.00,52.860
810.00,52.879
811.00,52.894
812.00,52.929
813.00,52.799
814.00,52.824
815.00,52.849
816.00,52.805
817.00,52.736
818.00,52.674
819.00,52.694
820.00,52.589
821.00,52.585
822.00,52.665
823.00,52.551
824.00,52.586
825.00,52.471
826.00,52.576
827.00,52.644
828.00,52.622
829.00,52.545
830.00,52.526
831.00,55.174
832.00,55.149
833.00,55.071
834.00,55.067
835.00,55.000
836.00,55.027
837.00,55.017
838.00,54.956
839.00,54.931
840.00,54.939
841.00,54.906
842.00,54.904
843.00,54.917
844.00,54.849
845.00,54.864
846.00,54.831
847.00,54.790
848.00,54.760
849.00,54.761
850.00,54.677
851.00,54.667
852.00,54.691
853.00,54.596
854.00,54.576
855.00,54.527
856.00,54.510
857.00,54.443
858.00,54.495
859.00,54.435
860.00,54.489
861.00,54.437
862.00,54.404
863.00,54.423
864.00,54.375
865.00,54.419
866.00,54.374
867.00,54.324
868.00,54.330
869.00,54.332
870.00,54.319
871.00,54.296
872.00,54.218
873.00,54.408
874.00,54.282
875.00,54.228
876.00,54.235
877.00,54.252
878.00,54.266
879.00,54.217
880.00,54.212
881.00,54.167
882.00,54.243
883.00,54.139
884.00,54.132
885.00,54.138
886.00,54.109
887.00,54.019
888.00,54.040
889.00,54.017
890.00,54.024
891.00,53.996
892.00,53.962
893.00,53.991
894.00,53.958
895.00,53.937
896.00,53.923
897.00,53.880
898.00,53.868
899.00,53.881
900.00,53.858
901.00,53.880
902.00,53.832
903.00,53.772
904.00,53.786
905.00,53.765
906.00,53.767
907.00,53.736
908.00,53.717
909.00,53.704
910.00,53.657
911.00,53.649
912.00,53.636
913.00,53.701
914.00,53.589
915.00,53.567
916.00,53.557
917.00,53.534
918.00,53.538
919.00,53.482
920.00,53.460
921.00,53.470
922.00,53.457
923.00,53.436
924.00,53.384
925.00,53.401
926.00,53.374
927.00,53.392
928.00,53.344
929.00,53.352
930.00,53.317
931.00,53.303
932.00,53.252
933.00,53.257
934.00,53.241
935.00,53.213
936.00,53.195
937.00,53.189
938.00,53.182
939.00,53.168
940.00,53.138
941.00,53.136
942.00,53.125
943.00,53.113
944.00,53.078
945.00,53.070
946.00,53.063
947.00,53.020
948.00,52.982
949.00,52.988
950.00,52.973
951.00,52.946
952.00,52.916
953.00,52.897
954.00,52.866
955.00,52.845
956.00,52.824
957.00,52.765
958.00,52.789
959.00,52.718
960.00,52.730
961.00,52.722
962.00,52.725
963.00,52.687
964.00,52.693
965.00,52.679
966.00,52.666
967.00,52.667
968.00,52.626
969.00,52.668
970.00,52.636
971.00,52.647
972.00,52.598
973.00,52.654
974.00,52.761
975.00,52.647
976.00,52.646
977.00,52.622
978.00,52.662
979.00,52.610
980.00,52.635
981.00,52.615
982.00,52.621
983.00,52.651
984.00,52.633
985.00,52.647
986.00,52.611
987.00,52.629
988.00,52.597
989.00,52.590
990.00,52.588
991.00,52.557
992.00,52.569
993.00,52.549
994.00,52.547
995.00,52.533
996.00,52.520
997.00,52.500
998.00,52.473
999.00,52.493
1000.00,52.451
1001.00,52.441
1002.00,52.447
1003.00,52.438
1004.00,52.427
1005.00,52.395
1006.00,52.418
1007.00,52.384
1008.00,52.379
1009.00,52.339
1010.00,52.346
1011.00,52.333
1012.00,52.310
1013.00,52.302
1014.00,52.283
1015.00,52.301
1016.00,52.260
1017.00,52.249
1018.00,52.230
1019.00,52.212
1020.00,52.190
1021.00,52.192
1022.00,52.185
1023.00,52.136
1024.00,52.143
1025.00,52.126
1026.00,52.122
1027.00,52.095
1028.00,52.097
1029.00,52.096
1030.00,52.066
1031.00,52.070
1032.00,52.025
1033.00,52.036
1034.00,52.002
1035.00,51.977
1036.00,51.946
1037.00,51.930
1038.00,51.922
1039.00,51.880
1040.00,51.882
1041.00,51.848
1042.00,51.847
1043.00,51.830
1044.00,51.854
1045.00,51.847
1046.00,51.838
1047.00,51.838
1048.00,51.855
1049.00,51.883
1050.00,51.866
1051.00,51.917
1052.00,51.915
1053.00,51.907
1054.00,51.926
1055.00,51.926
1056.00,51.947
1057.00,51.953
1058.00,51.938
1059.00,51.944
1060.00,51.959
1061.00,51.931
1062.00,51.929
1063.00,51.930
1064.00,51.933
1065.00,51.953
1066.00,51.913
1067.00,51.883
1068.00,51.925
1069.00,51.876
1070.00,51.868
1071.00,51.844
1072.00,51.870
1073.00,51.840
1074.00,51.824
1075.00,51.815
1076.00,51.829
1077.00,51.814
1078.00,51.781
1079.00,51.805
1080.00,51.807
1081.00,51.783
1082.00,51.798
1083.00,51.787
1084.00,51.784
1085.00,51.799
1086.00,51.778
1087.00,51.781
1088.00,51.758
1089.00,51.757
1090.00,51.750
1091.00,51.739
1092.00,51.749
1093.00,51.734
1094.00,51.712
1095.00,51.713
1096.00,51.690
1097.00,51.674
1098.00,51.677
1099.00,51.657
1100.00,51.632
1101.00,51.645
1102.00,51.629
1103.00,51.641
1104.00,51.629
1105.00,51.619
1106.00,51.617
1107.00,51.604
1108.00,51.587
1109.00,51.580
1110.00,51.563
1111.00,51.558
1112.00,51.554
1113.00,51.545
1114.00,51.536
1115.00,51.542
1116.00,51.535
1117.00,51.526
1118.00,51.512
1119.00,51.504
1120.00,51.510
1121.00,51.498
1122.00,51.493
1123.00,51.487
1124.00,51.471
1125.00,51.481
1126.00,51.477
1127.00,51.474
1128.00,51.461
1129.00,51.451
1130.00,51.430
1131.00,51.444
1132.00,51.427
1133.00,51.424
1134.00,51.411
1135.00,51.406
1136.00,51.421
1137.00,51.415
1138.00,51.409
1139.00,51.422
1140.00,51.408
1141.00,51.427
1142.00,51.398
1143.00,51.415
1144.00,51.382
1145.00,51.395
1146.00,51.390
1147.00,51.383
1148.00,51.378
1149.00,51.393
1150.00,51.409
1151.00,51.407
1152.00,51.383
1153.00,51.380
1154.00,51.356
1155.00,51.375
1156.00,51.360
1157.00,51.364
1158.00,51.355
1159.00,51.362
1160.00,51.363
1161.00,51.370
1162.00,51.375
1163.00,51.357
1164.00,51.377
1165.00,51.364
1166.00,51.369
1167.00,51.350
1168.00,51.370
1169.00,51.364
1170.00,51.375
1171.00,51.343
1172.00,51.347
1173.00,51.350
1174.00,51.349
1175.00,51.353
1176.00,51.363
1177.00,51.357
1178.00,51.369
1179.00,51.358
1180.00,51.350
1181.00,51.368
1182.00,51.345
1183.00,51.353
1184.00,51.331
1185.00,51.350
1186.00,51.342
1187.00,51.340
1188.00,51.345
1189.00,51.346
1190.00,51.324
1191.00,51.324
1192.00,51.362
1193.00,51.334
1194.00,51.346
1195.00,51.340
1196.00,51.355
1197.00,51.359
1198.00,51.339
1199.00,51.332
1200.00,51.349
1201.00,51.341
1202.00,51.337
1203.00,51.375
1204.00,51.330
1205.00,51.364
1206.00,51.355
1207.00,51.352
1208.00,51.341
1209.00,51.344
1210.00,51.319
1211.00,51.330
1212.00,51.346
1213.00,51.316
1214.00,51.346
1215.00,51.323
1216.00,51.345
1217.00,51.345
1218.00,51.330
1219.00,51.357
1220.00,51.327
1221.00,51.344
1222.00,51.329
1223.00,51.345
1224.00,51.348
1225.00,51.329
1226.00,51.334
1227.00,51.333
1228.00,51.359
1229.00,51.345
1230.00,51.385
1231.00,51.387
1232.00,51.396
1233.00,51.394
1234.00,51.403
1235.00,51.393
1236.00,51.379
1237.00,51.381
1238.00,51.378
1239.00,51.395
1240.00,51.372
1241.00,51.390
1242.00,51.383
1243.00,51.390
1244.00,51.374
1245.00,51.402
1246.00,51.433
1247.00,51.410
1248.00,51.424
1249.00,51.445
1250.00,51.418
1251.00,51.408
1252.00,51.423
1253.00,51.412
1254.00,51.449
1255.00,51.440
1256.00,51.405
1257.00,51.407
1258.00,51.451
1259.00,51.447
1260.00,51.477
1261.00,51.477
1262.00,51.454
1263.00,51.465
1264.00,51.482
1265.00,51.471
1266.00,51.462
1267.00,51.482
1268.00,51.510
1269.00,51.511
1270.00,51.525
1271.00,51.520
1272.00,51.524
1273.00,51.525
1274.00,51.525
1275.00,51.535
1276.00,51.521
1277.00,51.544
1278.00,51.544
1279.00,51.550
1280.00,51.531
1281.00,51.567
1282.00,51.587
1283.00,51.583
1284.00,51.604
1285.00,51.580
1286.00,51.567
1287.00,51.574
1288.00,51.603
1289.00,51.589
1290.00,51.605
1291.00,51.605
1292.00,51.590
1293.00,51.605
1294.00,51.629
1295.00,51.625
1296.00,51.638
1297.00,51.632
1298.00,51.664
1299.00,51.637
1300.00,51.660
1301.00,51.639
1302.00,51.681
1303.00,51.669
1304.00,51.644
1305.00,51.681
1306.00,51.654
1307.00,51.678
1308.00,51.672
1309.00,51.676
1310.00,51.678
1311.00,51.661
1312.00,51.680
1313.00,51.701
1314.00,51.718
1315.00,51.743
1316.00,51.729
1317.00,51.755
1318.00,51.762
1319.00,51.746
1320.00,51.741
1321.00,51.930
1322.00,51.905
1323.00,51.876
1324.00,51.891
1325.00,51.872
1326.00,51.890
1327.00,51.868
1328.00,51.872
1329.00,51.859
1330.00,51.875
1331.00,51.891
1332.00,51.883
1333.00,51.893
1334.00,51.903
1335.00,51.939
1336.00,51.962
1337.00,51.980
1338.00,52.060
1339.00,52.108
1340.00,52.149
1341.00,52.224
1342.00,52.279
1343.00,52.333
1344.00,52.388
1345.00,52.441
1346.00,52.478
1347.00,52.504
1348.00,52.513
1349.00,52.535
1350.00,52.576
1351.00,52.574
1352.00,52.594
1353.00,52.435
1354.00,52.575
1355.00,52.524
1356.00,52.629
1357.00,52.568
1358.00,52.595
1359.00,52.606
1360.00,52.581
1361.00,52.641
1362.00,52.616
1363.00,52.663
1364.00,52.706
1365.00,52.634
1366.00,52.645
1367.00,52.624
1368.00,52.597
1369.00,52.638
1370.00,52.610
1371.00,52.565
1372.00,52.599
1373.00,52.582
1374.00,52.605
1375.00,52.589
1376.00,52.560
1377.00,52.562
1378.00,52.638
1379.00,52.599
1380.00,52.605
1381.00,52.577
1382.00,52.599
1383.00,52.641
1384.00,52.564
1385.00,52.604
1386.00,52.533
1387.00,52.590
1388.00,52.580
1389.00,52.591
1390.00,52.510
1391.00,52.629
1392.00,52.543
1393.00,52.500
1394.00,52.539
1395.00,52.555
1396.00,52.563
1397.00,52.630
1398.00,52.629
1399.00,52.562
1400.00,52.862
1401.00,52.557
1402.00,52.591
1403.00,52.597
1404.00,52.623
1405.00,52.599
1406.00,52.650
1407.00,52.589
1408.00,52.656
1409.00,52.600
1410.00,52.659
1411.00,52.603
1412.00,52.625
1413.00,52.625
1414.00,52.615
1415.00,52.664
1416.00,52.760
1417.00,52.698
1418.00,52.695
1419.00,52.688
1420.00,52.701
1421.00,52.749
1422.00,52.714
1423.00,52.742
1424.00,52.741
1425.00,52.775
1426.00,52.767
1427.00,52.799
1428.00,52.796
1429.00,52.823
1430.00,52.823
1431.00,52.836
1432.00,52.855
1433.00,52.843
1434.00,52.856
1435.00,52.918
1436.00,52.906
1437.00,52.906
1438.00,52.924
1439.00,52.950
1440.00,52.975
1441.00,52.969
1442.00,52.979
1443.00,53.071
1444.00,53.084
1445.00,53.013
1446.00,53.025
1447.00,53.039
1448.00,53.081
1449.00,53.108
1450.00,53.083
1451.00,53.102
1452.00,53.139
1453.00,53.124
1454.00,53.153
1455.00,53.165
1456.00,53.192
1457.00,53.192
1458.00,53.191
1459.00,53.235
1460.00,53.253
1461.00,53.256
1462.00,53.314
1463.00,53.277
1464.00,53.287
1465.00,53.305
1466.00,53.283
1467.00,53.307
1468.00,53.386
1469.00,53.356
1470.00,53.384
1471.00,53.395
1472.00,53.400
1473.00,53.421
1474.00,53.450
1475.00,53.445
1476.00,53.476
1477.00,53.429
1478.00,53.467
1479.00,53.496
1480.00,53.467
1481.00,53.498
1482.00,53.533
1483.00,53.512
1484.00,53.543
1485.00,53.529
1486.00,53.551
1487.00,53.572
1488.00,53.577
1489.00,53.560
1490.00,53.567
1491.00,53.571
1492.00,53.625
1493.00,53.591
1494.00,53.629
1495.00,53.618
1496.00,53.657
1497.00,53.634
1498.00,53.656
1499.00,53.650
1500.00,53.665
1501.00, 
1502.00, 
1503.00, 
1504.00, 
1505.00, 
1506.00, 
1507.00, 
1508.00, 
1509.00, 
1510.00, 
1511.00, 
1512.00, 
1513.00, 
1514.00, 
1515.00, 
1516.00, 
1517.00, 
1518.00, 
1519.00, 
1520.00, 
1521.00, 
1522.00, 
1523.00, 
1524.00, 
1525.00, 
1526.00, 
1527.00, 
1528.00, 
1529.00, 
1530.00, 
1531.00, 
1532.00, 
1533.00, 
1534.00, 
1535.00, 
1536.00, 
1537.00, 
1538.00, 
1539.00, 
1540.00, 
1541.00, 
1542.00, 
1543.00, 
1544.00, 
1545.00, 
1546.00, 
1547.00, 
1548.00, 
1549.00, 
1550.00, 
1551.00, 
1552.00, 
1553.00, 
1554.00, 
1555.00, 
1556.00, 
1557.00, 
1558.00, 
1559.00, 
1560.00, 
1561.00, 
1562.00, 
1563.00, 
1564.00, 
1565.00, 
1566.00, 
1567.00, 
1568.00, 
1569.00, 
1570.00, 
1571.00, 
1572.00, 
1573.00, 
1574.00, 
1575.00, 
1576.00, 
1577.00, 
1578.00, 
1579.00, 
1580.00, 
1581.00, 
1582.00, 
1583.00, 
1584.00, 
1585.00, 
1586.00, 
1587.00, 
1588.00, 
1589.00, 
1590.00, 
1591.00, 
1592.00, 
1593.00, 
1594.00, 
1595.00, 
1596.00, 
1597.00, 
1598.00, 
1599.00, 
1600.00, 
1601.00, 
1602.00, 
1603.00, 
1604.00, 
1605.00, 
1606.00, 
1607.00, 
1608.00, 
1609.00, 
1610.00, 
1611.00, 
1612.00, 
1613.00, 
1614.00, 
1615.00, 
1616.00, 
1617.00, 
1618.00, 
1619.00, 
1620.00, 
1621.00, 
1622.00, 
1623.00, 
1624.00, 
1625.00, 
1626.00, 
1627.00, 
1628.00, 
1629.00, 
1630.00, 
1631.00, 
1632.00, 
1633.00, 
1634.00, 
1635.00, 
1636.00, 
1637.00, 
1638.00, 
1639.00, 
1640.00, 
1641.00, 
1642.00, 
1643.00, 
1644.00, 
1645.00, 
1646.00, 
1647.00, 
1648.00, 
1649.00, 
1650.00, 
1651.00, 
1652.00, 
1653.00, 
1654.00, 
1655.00, 
1656.00, 
1657.00, 
1658.00, 
1659.00, 
1660.00, 
1661.00, 
1662.00, 
1663.00, 
1664.00, 
1665.00, 
1666.00, 
1667.00, 
1668.00, 
1669.00, 
1670.00, 
1671.00, 
1672.00, 
1673.00, 
1674.00, 
1675.00, 
1676.00, 
1677.00, 
1678.00, 
1679.00, 
1680.00, 
1681.00, 
1682.00, 
1683.00, 
1684.00, 
1685.00, 
1686.00, 
1687.00, 
1688.00, 
1689.00, 
1690.00, 
1691.00, 
1692.00, 
1693.00, 
1694.00, 
1695.00, 
1696.00, 
1697.00, 
1698.00, 
1699.00, 
1700.00, 
1701.00, 
1702.00, 
1703.00, 
1704.00, 
1705.00, 
1706.00, 
1707.00, 
1708.00, 
1709.00, 
1710.00, 
1711.00, 
1712.00, 
1713.00, 
1714.00, 
1715.00, 
1716.00, 
1717.00, 
1718.00, 
1719.00, 
1720.00, 
1721.00, 
1722.00, 
1723.00, 
1724.00, 
1725.00, 
1726.00, 
1727.00, 
1728.00, 
1729.00, 
1730.00, 
1731.00, 
1732.00, 
1733.00, 
1734.00, 
1735.00, 
1736.00, 
1737.00, 
1738.00, 
1739.00, 
1740.00, 
1741.00, 
1742.00, 
1743.00, 
1744.00, 
1745.00, 
1746.00, 
1747.00, 
1748.00, 
1749.00, 
1750.00, 
1751.00, 
1752.00, 
1753.00, 
1754.00, 
1755.00, 
1756.00, 
1757.00, 
1758.00, 
1759.00, 
1760.00, 
1761.00, 
1762.00, 
1763.00, 
1764.00, 
1765.00, 
1766.00, 
1767.00, 
1768.00, 
1769.00, 
1770.00, 
1771.00, 
1772.00, 
1773.00, 
1774.00, 
1775.00, 
1776.00, 
1777.00, 
1778.00, 
1779.00, 
1780.00, 
1781.00, 
1782.00, 
1783.00, 
1784.00, 
1785.00, 
1786.00, 
1787.00, 
1788.00, 
1789.00, 
1790.00, 
1791.00, 
1792.00, 
1793.00, 
1794.00, 
1795.00, 
1796.00, 
1797.00, 
1798.00, 
1799.00, 
1800.00, 
1801.00, 
1802.00, 
1803.00, 
1804.00, 
1805.00, 
1806.00, 
1807.00, 
1808.00, 
1809.00, 
1810.00, 
1811.00, 
1812.00, 
1813.00, 
1814.00, 
1815.00, 
1816.00, 
1817.00, 
1818.00, 
1819.00, 
1820.00, 
1821.00, 
1822.00, 
1823.00, 
1824.00, 
1825.00, 
1826.00, 
1827.00, 
1828.00, 
1829.00, 
1830.00, 
1831.00, 
1832.00, 
1833.00, 
1834.00, 
1835.00, 
1836.00, 
1837.00, 
1838.00, 
1839.00, 
1840.00, 
1841.00, 
1842.00, 
1843.00, 
1844.00, 
1845.00, 
1846.00, 
1847.00, 
1848.00, 
1849.00, 
1850.00, 
1851.00, 
1852.00, 
1853.00, 
1854.00, 
1855.00, 
1856.00, 
1857.00, 
1858.00, 
1859.00, 
1860.00, 
1861.00, 
1862.00, 
1863.00, 
1864.00, 
1865.00, 
1866.00, 
1867.00, 
1868.00, 
1869.00, 
1870.00, 
1871.00, 
1872.00, 
1873.00, 
1874.00, 
1875.00, 
1876.00, 
1877.00, 
1878.00, 
1879.00, 
1880.00, 
1881.00, 
1882.00, 
1883.00, 
1884.00, 
1885.00, 
1886.00, 
1887.00, 
1888.00, 
1889.00, 
1890.00, 
1891.00, 
1892.00, 
1893.00, 
1894.00, 
1895.00, 
1896.00, 
1897.00, 
1898.00, 
1899.00, 
1900.00, 
1901.00, 
1902.00, 
1903.00, 
1904.00, 
1905.00, 
1906.00, 
1907.00, 
1908.00, 
1909.00, 
1910.00, 
1911.00, 
1912.00, 
1913.00, 
1914.00, 
1915.00, 
1916.00, 
1917.00, 
1918.00, 
1919.00, 
1920.00, 
1921.00, 
1922.00, 
1923.00, 
1924.00, 
1925.00, 
1926.00, 
1927.00, 
1928.00, 
1929.00, 
1930.00, 
1931.00, 
1932.00, 
1933.00, 
1934.00, 
1935.00, 
1936.00, 
1937.00, 
1938.00, 
1939.00, 
1940.00, 
1941.00, 
1942.00, 
1943.00, 
1944.00, 
1945.00, 
1946.00, 
1947.00, 
1948.00, 
1949.00, 
1950.00, 
1951.00, 
1952.00, 
1953.00, 
1954.00, 
1955.00, 
1956.00, 
1957.00, 
1958.00, 
1959.00, 
1960.00, 
1961.00, 
1962.00, 
1963.00, 
1964.00, 
1965.00, 
1966.00, 
1967.00, 
1968.00, 
1969.00, 
1970.00, 
1971.00, 
1972.00, 
1973.00, 
1974.00, 
1975.00, 
1976.00, 
1977.00, 
1978.00, 
1979.00, 
1980.00, 
1981.00, 
1982.00, 
1983.00, 
1984.00, 
1985.00, 
1986.00, 
1987.00, 
1988.00, 
1989.00, 
1990.00, 
1991.00, 
1992.00, 
1993.00, 
1994.00, 
1995.00, 
1996.00, 
1997.00, 
1998.00, 
1999.00, 
2000.00, 
2001.00, 
2002.00, 
2003.00, 
2004.00, 
2005.00, 
2006.00, 
2007.00, 
2008.00, 
2009.00, 
2010.00, 
2011.00, 
2012.00, 
2013.00, 
2014.00, 
2015.00, 
2016.00, 
2017.00, 
2018.00, 
2019.00, 
2020.00, 
2021.00, 
2022.00, 
2023.00, 
2024.00, 
2025.00, 
2026.00, 
2027.00, 
2028.00, 
2029.00, 
2030.00, 
2031.00, 
2032.00, 
2033.00, 
2034.00, 
2035.00, 
2036.00, 
2037.00, 
2038.00, 
2039.00, 
2040.00, 
2041.00, 
2042.00, 
2043.00, 
2044.00, 
2045.00, 
2046.00, 
2047.00, 
2048.00, 
2049.00, 
2050.00, 
2051.00, 
2052.00, 
2053.00, 
2054.00, 
2055.00, 
2056.00, 
2057.00, 
2058.00, 
2059.00, 
2060.00, 
2061.00, 
2062.00, 
2063.00, 
2064.00, 
2065.00, 
2066.00, 
2067.00, 
2068.00, 
2069.00, 
2070.00, 
2071.00, 
2072.00, 
2073.00, 
2074.00, 
2075.00, 
2076.00, 
2077.00, 
2078.00, 
2079.00, 
2080.00, 
2081.00, 
2082.00, 
2083.00, 
2084.00, 
2085.00, 
2086.00, 
2087.00, 
2088.00, 
2089.00, 
2090.00, 
2091.00, 
2092.00, 
2093.00, 
2094.00, 
2095.00, 
2096.00, 
2097.00, 
2098.00, 
2099.00, 
2100.00, 
2101.00, 
2102.00, 
2103.00, 
2104.00, 
2105.00, 
2106.00, 
2107.00, 
2108.00, 
2109.00, 
2110.00, 
2111.00, 
2112.00, 
2113.00, 
2114.00, 
2115.00, 
2116.00, 
2117.00, 
2118.00, 
2119.00, 
2120.00, 
2121.00, 
2122.00, 
2123.00, 
2124.00, 
2125.00, 
2126.00, 
2127.00, 
2128.00, 
2129.00, 
2130.00, 
2131.00, 
2132.00, 
2133.00, 
2134.00, 
2135.00, 
2136.00, 
2137.00, 
2138.00, 
2139.00, 
2140.00, 
2141.00, 
2142.00, 
2143.00, 
2144.00, 
2145.00, 
2146.00, 
2147.00, 
2148.00, 
2149.00, 
2150.00, 
2151.00, 
2152.00, 
2153.00, 
2154.00, 
2155.00, 
2156.00, 
2157.00, 
2158.00, 
2159.00, 
2160.00, 
2161.00, 
2162.00, 
2163.00, 
2164.00, 
2165.00, 
2166.00, 
2167.00, 
2168.00, 
2169.00, 
2170.00, 
2171.00, 
2172.00, 
2173.00, 
2174.00, 
2175.00, 
2176.00, 
2177.00, 
2178.00, 
2179.00, 
2180.00, 
2181.00, 
2182.00, 
2183.00, 
2184.00, 
2185.00, 
2186.00, 
2187.00, 
2188.00, 
2189.00, 
2190.00, 
2191.00, 
2192.00, 
2193.00, 
2194.00, 
2195.00, 
2196.00, 
2197.00, 
2198.00, 
2199.00, 
2200.00, 
2201.00, 
2202.00, 
2203.00, 
2204.00, 
2205.00, 
2206.00, 
2207.00, 
2208.00, 
2209.00, 
2210.00, 
2211.00, 
2212.00, 
2213.00, 
2214.00, 
2215.00, 
2216.00, 
2217.00, 
2218.00, 
2219.00, 
2220.00, 
2221.00, 
2222.00, 
2223.00, 
2224.00, 
2225.00, 
2226.00, 
2227.00, 
2228.00, 
2229.00, 
2230.00, 
2231.00, 
2232.00, 
2233.00, 
2234.00, 
2235.00, 
2236.00, 
2237.00, 
2238.00, 
2239.00, 
2240.00, 
2241.00, 
2242.00, 
2243.00, 
2244.00, 
2245.00, 
2246.00, 
2247.00, 
2248.00, 
2249.00, 
2250.00, 
2251.00, 
2252.00, 
2253.00, 
2254.00, 
2255.00, 
2256.00, 
2257.00, 
2258.00, 
2259.00, 
2260.00, 
2261.00, 
2262.00, 
2263.00, 
2264.00, 
2265.00, 
2266.00, 
2267.00, 
2268.00, 
2269.00, 
2270.00, 
2271.00, 
2272.00, 
2273.00, 
2274.00, 
2275.00, 
2276.00, 
2277.00, 
2278.00, 
2279.00, 
2280.00, 
2281.00, 
2282.00, 
2283.00, 
2284.00, 
2285.00, 
2286.00, 
2287.00, 
2288.00, 
2289.00, 
2290.00, 
2291.00, 
2292.00, 
2293.00, 
2294.00, 
2295.00, 
2296.00, 
2297.00, 
2298.00, 
2299.00, 
2300.00, 
2301.00, 
2302.00, 
2303.00, 
2304.00, 
2305.00, 
2306.00, 
2307.00, 
2308.00, 
2309.00, 
2310.00, 
2311.00, 
2312.00, 
2313.00, 
2314.00, 
2315.00, 
2316.00, 
2317.00, 
2318.00, 
2319.00, 
2320.00, 
2321.00, 
2322.00, 
2323.00, 
2324.00, 
2325.00, 
2326.00, 
2327.00, 
2328.00, 
2329.00, 
2330.00, 
2331.00, 
2332.00, 
2333.00, 
2334.00, 
2335.00, 
2336.00, 
2337.00, 
2338.00, 
2339.00, 
2340.00, 
2341.00, 
2342.00, 
2343.00, 
2344.00, 
2345.00, 
2346.00, 
2347.00, 
2348.00, 
2349.00, 
2350.00, 
2351.00, 
2352.00, 
2353.00, 
2354.00, 
2355.00, 
2356.00, 
2357.00, 
2358.00, 
2359.00, 
2360.00, 
2361.00, 
2362.00, 
2363.00, 
2364.00, 
2365.00, 
2366.00, 
2367.00, 
2368.00, 
2369.00, 
2370.00, 
2371.00, 
2372.00, 
2373.00, 
2374.00, 
2375.00, 
2376.00, 
2377.00, 
2378.00, 
2379.00, 
2380.00, 
2381.00, 
2382.00, 
2383.00, 
2384.00, 
2385.00, 
2386.00, 
2387.00, 
2388.00, 
2389.00, 
2390.00, 
2391.00, 
2392.00, 
2393.00, 
2394.00, 
2395.00, 
2396.00, 
2397.00, 
2398.00, 
2399.00, 
2400.00, 
2401.00, 
2402.00, 
2403.00, 
2404.00, 
2405.00, 
2406.00, 
2407.00, 
2408.00, 
2409.00, 
2410.00, 
2411.00, 
2412.00, 
2413.00, 
2414.00, 
2415.00, 
2416.00, 
2417.00, 
2418.00, 
2419.00, 
2420.00, 
2421.00, 
2422.00, 
2423.00, 
2424.00, 
2425.00, 
2426.00, 
2427.00, 
2428.00, 
2429.00, 
2430.00, 
2431.00, 
2432.00, 
2433.00, 
2434.00, 
2435.00, 
2436.00, 
2437.00, 
2438.00, 
2439.00, 
2440.00, 
2441.00, 
2442.00, 
2443.00, 
2444.00, 
2445.00, 
2446.00, 
2447.00, 
2448.00, 
2449.00, 
2450.00, 
2451.00, 
2452.00, 
2453.00, 
2454.00, 
2455.00, 
2456.00, 
2457.00, 
2458.00, 
2459.00, 
2460.00, 
2461.00, 
2462.00, 
2463.00, 
2464.00, 
2465.00, 
2466.00, 
2467.00, 
2468.00, 
2469.00, 
2470.00, 
2471.00, 
2472.00, 
2473.00, 
2474.00, 
2475.00, 
2476.00, 
2477.00, 
2478.00, 
2479.00, 
2480.00, 
2481.00, 
2482.00, 
2483.00, 
2484.00, 
2485.00, 
2486.00, 
2487.00, 
2488.00, 
2489.00, 
2490.00, 
2491.00, 
2492.00, 
2493.00, 
2494.00, 
2495.00, 
2496.00, 
2497.00, 
2498.00, 
2499.00, 
2500.00, 
2501.00, 
2502.00, 
2503.00, 
2504.00, 
2505.00, 
2506.00, 
2507.00, 
2508.00, 
2509.00, 
2510.00, 
2511.00, 
2512.00, 
2513.00, 
2514.00, 
2515.00, 
2516.00, 
2517.00, 
2518.00, 
2519.00, 
2520.00, 
2521.00, 
2522.00, 
2523.00, 
2524.00, 
2525.00, 
2526.00, 
2527.00, 
2528.00, 
2529.00, 
2530.00, 
2531.00, 
2532.00, 
2533.00, 
2534.00, 
2535.00, 
2536.00, 
2537.00, 
2538.00, 
2539.00, 
2540.00, 
2541.00, 
2542.00, 
2543.00, 
2544.00, 
2545.00, 
2546.00, 
2547.00, 
2548.00, 
2549.00, 
2550.00, 
2551.00, 
2552.00, 
2553.00, 
2554.00, 
2555.00, 
2556.00, 
2557.00, 
2558.00, 
2559.00, 
2560.00, 
2561.00, 
2562.00, 
2563.00, 
2564.00, 
2565.00, 
2566.00, 
2567.00, 
2568.00, 
2569.00, 
2570.00, 
2571.00, 
2572.00, 
2573.00, 
2574.00, 
2575.00, 
2576.00, 
2577.00, 
2578.00, 
2579.00, 
2580.00, 
2581.00, 
2582.00, 
2583.00, 
2584.00, 
2585.00, 
2586.00, 
2587.00, 
2588.00, 
2589.00, 
2590.00, 
2591.00, 
2592.00, 
2593.00, 
2594.00, 
2595.00, 
2596.00, 
2597.00, 
2598.00, 
2599.00, 
2600.00, 
