"1cP1 - RawData"
"Wavelength nm.","T%"
200.00,0.003
201.00,0.004
202.00,0.000
203.00,0.002
204.00,0.002
205.00,0.000
206.00,0.001
207.00,0.000
208.00,0.002
209.00,0.001
210.00,0.001
211.00,-0.000
212.00,0.003
213.00,0.001
214.00,0.002
215.00,0.002
216.00,-0.000
217.00,-0.001
218.00,0.000
219.00,-0.001
220.00,0.002
221.00,0.002
222.00,0.001
223.00,0.001
224.00,-0.000
225.00,-0.000
226.00,0.001
227.00,-0.000
228.00,-0.000
229.00,0.002
230.00,0.001
231.00,0.005
232.00,-0.000
233.00,0.001
234.00,-0.001
235.00,-0.000
236.00,0.002
237.00,0.002
238.00,0.001
239.00,0.002
240.00,-0.002
241.00,0.001
242.00,-0.002
243.00,0.001
244.00,-0.000
245.00,-0.000
246.00,0.002
247.00,0.001
248.00,0.002
249.00,-0.001
250.00,0.002
251.00,0.001
252.00,-0.000
253.00,-0.000
254.00,0.000
255.00,0.001
256.00,-0.002
257.00,-0.000
258.00,-0.000
259.00,-0.003
260.00,-0.001
261.00,0.001
262.00,0.001
263.00,-0.000
264.00,-0.000
265.00,0.001
266.00,0.000
267.00,0.001
268.00,-0.000
269.00,-0.001
270.00,-0.001
271.00,0.001
272.00,-0.001
273.00,-0.000
274.00,0.002
275.00,-0.001
276.00,-0.001
277.00,-0.000
278.00,-0.001
279.00,0.002
280.00,0.001
281.00,-0.001
282.00,0.001
283.00,0.000
284.00,-0.001
285.00,0.003
286.00,0.001
287.00,0.002
288.00,0.001
289.00,-0.000
290.00,0.000
291.00,0.000
292.00,0.001
293.00,0.001
294.00,-0.001
295.00,-0.001
296.00,-0.001
297.00,0.001
298.00,0.001
299.00,0.000
300.00,0.000
301.00,0.001
302.00,-0.001
303.00,-0.002
304.00,0.002
305.00,0.001
306.00,0.002
307.00,0.003
308.00,0.007
309.00,0.011
310.00,0.019
311.00,0.030
312.00,0.046
313.00,0.067
314.00,0.103
315.00,0.154
316.00,0.220
317.00,0.310
318.00,0.425
319.00,0.573
320.00,0.771
321.00,0.990
322.00,1.266
323.00,1.614
324.00,1.995
325.00,2.403
326.00,2.857
327.00,3.385
328.00,3.977
329.00,4.604
330.00,5.261
331.00,5.957
332.00,6.680
333.00,7.502
334.00,8.270
335.00,9.100
336.00,9.923
337.00,10.778
338.00,11.629
339.00,12.397
340.00,13.224
341.00,14.046
342.00,14.813
343.00,15.599
344.00,16.288
345.00,17.072
346.00,17.720
347.00,18.307
348.00,18.932
349.00,19.537
350.00,20.076
351.00,20.550
352.00,21.004
353.00,21.498
354.00,21.946
355.00,22.321
356.00,22.730
357.00,23.049
358.00,23.372
359.00,23.781
360.00,24.043
361.00,24.300
362.00,24.552
363.00,24.802
364.00,24.902
365.00,25.055
366.00,25.202
367.00,25.370
368.00,25.438
369.00,25.531
370.00,25.678
371.00,25.683
372.00,25.684
373.00,25.684
374.00,25.690
375.00,25.668
376.00,25.575
377.00,25.521
378.00,25.422
379.00,25.320
380.00,25.300
381.00,25.321
382.00,25.350
383.00,25.386
384.00,25.459
385.00,25.568
386.00,25.617
387.00,25.766
388.00,25.883
389.00,25.919
390.00,25.971
391.00,26.077
392.00,26.105
393.00,26.125
394.00,26.206
395.00,26.284
396.00,26.293
397.00,26.328
398.00,26.328
399.00,26.352
400.00,26.370
401.00,26.376
402.00,26.328
403.00,26.368
404.00,26.336
405.00,26.343
406.00,26.334
407.00,26.310
408.00,26.310
409.00,26.216
410.00,26.155
411.00,26.187
412.00,26.114
413.00,26.136
414.00,26.143
415.00,26.114
416.00,26.181
417.00,26.183
418.00,26.133
419.00,26.190
420.00,26.272
421.00,26.281
422.00,26.314
423.00,26.349
424.00,26.364
425.00,26.414
426.00,26.442
427.00,26.497
428.00,26.519
429.00,26.533
430.00,26.604
431.00,26.658
432.00,26.699
433.00,26.723
434.00,26.780
435.00,26.808
436.00,26.853
437.00,26.939
438.00,27.001
439.00,27.068
440.00,27.102
441.00,27.165
442.00,27.241
443.00,27.343
444.00,27.412
445.00,27.477
446.00,27.572
447.00,27.650
448.00,27.771
449.00,27.869
450.00,27.979
451.00,28.036
452.00,28.137
453.00,28.266
454.00,28.334
455.00,28.435
456.00,28.570
457.00,28.668
458.00,28.759
459.00,28.882
460.00,29.005
461.00,29.111
462.00,29.253
463.00,29.345
464.00,29.487
465.00,29.593
466.00,29.740
467.00,29.848
468.00,29.926
469.00,30.046
470.00,30.130
471.00,30.173
472.00,30.298
473.00,30.320
474.00,30.429
475.00,30.560
476.00,30.662
477.00,30.750
478.00,30.841
479.00,30.985
480.00,31.114
481.00,31.207
482.00,31.364
483.00,31.571
484.00,31.679
485.00,31.787
486.00,31.984
487.00,32.138
488.00,32.232
489.00,32.356
490.00,32.491
491.00,32.604
492.00,32.820
493.00,32.966
494.00,32.961
495.00,33.114
496.00,33.219
497.00,33.266
498.00,33.442
499.00,33.557
500.00,33.706
501.00,33.803
502.00,33.918
503.00,34.038
504.00,34.094
505.00,34.210
506.00,34.315
507.00,34.388
508.00,34.477
509.00,34.673
510.00,34.760
511.00,34.838
512.00,35.016
513.00,35.156
514.00,35.242
515.00,35.362
516.00,35.450
517.00,35.497
518.00,35.683
519.00,35.691
520.00,35.737
521.00,35.805
522.00,35.922
523.00,35.958
524.00,36.044
525.00,36.145
526.00,36.239
527.00,36.298
528.00,36.371
529.00,36.542
530.00,36.706
531.00,36.789
532.00,36.870
533.00,36.953
534.00,37.034
535.00,37.075
536.00,37.225
537.00,37.208
538.00,37.339
539.00,37.393
540.00,37.439
541.00,37.511
542.00,37.534
543.00,37.622
544.00,37.726
545.00,37.810
546.00,37.814
547.00,37.964
548.00,38.043
549.00,38.048
550.00,38.156
551.00,38.225
552.00,38.293
553.00,38.371
554.00,38.391
555.00,38.420
556.00,38.522
557.00,38.580
558.00,38.662
559.00,38.714
560.00,38.776
561.00,38.862
562.00,38.922
563.00,38.946
564.00,38.972
565.00,38.965
566.00,38.993
567.00,39.056
568.00,39.120
569.00,39.097
570.00,39.110
571.00,39.217
572.00,39.184
573.00,39.179
574.00,39.231
575.00,39.218
576.00,39.236
577.00,39.266
578.00,39.457
579.00,39.506
580.00,39.464
581.00,39.586
582.00,39.724
583.00,39.688
584.00,39.792
585.00,39.901
586.00,39.948
587.00,40.010
588.00,40.009
589.00,40.015
590.00,40.100
591.00,40.098
592.00,40.047
593.00,40.096
594.00,40.207
595.00,40.305
596.00,40.307
597.00,40.394
598.00,40.461
599.00,40.402
600.00,40.466
601.00,40.529
602.00,40.558
603.00,40.572
604.00,40.615
605.00,40.605
606.00,40.578
607.00,40.672
608.00,40.828
609.00,40.934
610.00,40.774
611.00,40.916
612.00,40.893
613.00,40.940
614.00,40.944
615.00,41.026
616.00,41.170
617.00,41.064
618.00,41.129
619.00,41.266
620.00,41.236
621.00,41.303
622.00,41.322
623.00,41.343
624.00,41.472
625.00,41.504
626.00,41.544
627.00,41.620
628.00,41.605
629.00,41.676
630.00,41.645
631.00,41.686
632.00,41.782
633.00,41.870
634.00,41.928
635.00,42.067
636.00,42.009
637.00,42.073
638.00,42.126
639.00,42.158
640.00,42.172
641.00,42.212
642.00,42.260
643.00,42.278
644.00,42.406
645.00,42.462
646.00,42.503
647.00,42.601
648.00,42.610
649.00,42.588
650.00,42.656
651.00,42.868
652.00,42.781
653.00,42.706
654.00,43.028
655.00,42.871
656.00,43.392
657.00,43.254
658.00,43.324
659.00,43.331
660.00,43.390
661.00,43.382
662.00,43.463
663.00,43.531
664.00,43.712
665.00,43.945
666.00,43.981
667.00,43.935
668.00,44.062
669.00,44.030
670.00,44.353
671.00,44.263
672.00,44.247
673.00,44.311
674.00,44.389
675.00,44.409
676.00,44.618
677.00,44.779
678.00,44.457
679.00,44.709
680.00,44.784
681.00,44.938
682.00,44.918
683.00,44.915
684.00,44.990
685.00,45.135
686.00,44.960
687.00,45.118
688.00,45.107
689.00,45.108
690.00,45.466
691.00,45.557
692.00,45.440
693.00,45.340
694.00,45.350
695.00,45.671
696.00,45.862
697.00,45.756
698.00,45.811
699.00,45.903
700.00,46.059
701.00,45.985
702.00,46.044
703.00,46.272
704.00,46.228
705.00,46.131
706.00,46.270
707.00,46.328
708.00,46.214
709.00,46.583
710.00,46.857
711.00,46.432
712.00,46.430
713.00,46.692
714.00,46.663
715.00,46.641
716.00,46.661
717.00,46.812
718.00,46.952
719.00,46.802
720.00,46.943
721.00,51.604
722.00,51.565
723.00,51.623
724.00,51.530
725.00,51.553
726.00,51.534
727.00,51.536
728.00,51.561
729.00,51.577
730.00,51.610
731.00,51.645
732.00,51.600
733.00,51.611
734.00,51.548
735.00,51.597
736.00,51.632
737.00,51.597
738.00,51.636
739.00,51.593
740.00,51.678
741.00,51.734
742.00,51.646
743.00,51.687
744.00,51.635
745.00,51.636
746.00,51.605
747.00,51.641
748.00,51.589
749.00,51.536
750.00,51.542
751.00,51.502
752.00,51.533
753.00,51.529
754.00,51.433
755.00,51.530
756.00,51.547
757.00,51.493
758.00,51.519
759.00,51.547
760.00,51.407
761.00,51.516
762.00,51.457
763.00,51.573
764.00,51.423
765.00,51.502
766.00,51.409
767.00,51.490
768.00,51.477
769.00,51.422
770.00,51.521
771.00,51.472
772.00,51.396
773.00,51.396
774.00,51.440
775.00,51.469
776.00,51.387
777.00,51.409
778.00,51.409
779.00,51.449
780.00,51.406
781.00,51.422
782.00,51.396
783.00,51.324
784.00,51.414
785.00,51.345
786.00,51.345
787.00,51.274
788.00,51.342
789.00,51.322
790.00,51.257
791.00,51.209
792.00,51.190
793.00,51.169
794.00,51.150
795.00,51.173
796.00,51.157
797.00,51.066
798.00,51.081
799.00,51.104
800.00,51.041
801.00,51.030
802.00,51.069
803.00,51.033
804.00,50.914
805.00,51.068
806.00,50.967
807.00,50.853
808.00,50.952
809.00,50.925
810.00,50.802
811.00,50.835
812.00,50.828
813.00,50.789
814.00,50.758
815.00,50.783
816.00,50.692
817.00,50.757
818.00,50.698
819.00,50.686
820.00,50.646
821.00,50.620
822.00,50.664
823.00,50.560
824.00,50.524
825.00,50.511
826.00,50.534
827.00,50.641
828.00,50.584
829.00,50.497
830.00,50.535
831.00,52.828
832.00,52.799
833.00,52.757
834.00,52.748
835.00,52.719
836.00,52.713
837.00,52.644
838.00,52.665
839.00,52.667
840.00,52.609
841.00,52.609
842.00,52.567
843.00,52.610
844.00,52.563
845.00,52.519
846.00,52.501
847.00,52.444
848.00,52.439
849.00,52.380
850.00,52.363
851.00,52.306
852.00,52.328
853.00,52.277
854.00,52.259
855.00,52.150
856.00,52.161
857.00,52.129
858.00,52.102
859.00,52.096
860.00,52.099
861.00,52.062
862.00,52.005
863.00,52.063
864.00,51.996
865.00,52.035
866.00,51.999
867.00,51.986
868.00,51.973
869.00,51.936
870.00,52.059
871.00,51.912
872.00,51.895
873.00,51.904
874.00,51.879
875.00,51.841
876.00,51.831
877.00,51.830
878.00,51.835
879.00,51.792
880.00,51.805
881.00,51.752
882.00,51.798
883.00,51.739
884.00,51.706
885.00,51.688
886.00,51.672
887.00,51.635
888.00,51.615
889.00,51.597
890.00,51.604
891.00,51.554
892.00,51.531
893.00,51.511
894.00,51.496
895.00,51.466
896.00,51.440
897.00,51.413
898.00,51.380
899.00,51.378
900.00,51.362
901.00,51.364
902.00,51.348
903.00,51.310
904.00,51.336
905.00,51.291
906.00,51.289
907.00,51.266
908.00,51.221
909.00,51.226
910.00,51.180
911.00,51.183
912.00,51.172
913.00,51.106
914.00,51.098
915.00,51.086
916.00,51.070
917.00,51.012
918.00,51.011
919.00,50.978
920.00,50.933
921.00,50.943
922.00,50.941
923.00,50.950
924.00,50.859
925.00,50.906
926.00,51.057
927.00,50.872
928.00,50.804
929.00,50.828
930.00,50.788
931.00,50.783
932.00,50.736
933.00,50.730
934.00,50.723
935.00,50.728
936.00,50.689
937.00,50.645
938.00,50.792
939.00,50.662
940.00,50.623
941.00,50.612
942.00,50.579
943.00,50.570
944.00,50.520
945.00,50.523
946.00,50.515
947.00,50.469
948.00,50.460
949.00,50.454
950.00,50.415
951.00,50.394
952.00,50.374
953.00,50.332
954.00,50.328
955.00,50.286
956.00,50.275
957.00,50.223
958.00,50.235
959.00,50.154
960.00,50.156
961.00,50.131
962.00,50.125
963.00,50.089
964.00,50.080
965.00,50.078
966.00,50.067
967.00,50.068
968.00,50.046
969.00,50.072
970.00,50.022
971.00,50.067
972.00,50.025
973.00,50.066
974.00,50.095
975.00,50.045
976.00,50.061
977.00,50.042
978.00,50.078
979.00,50.034
980.00,50.061
981.00,50.046
982.00,50.040
983.00,50.052
984.00,50.038
985.00,50.043
986.00,50.025
987.00,50.028
988.00,49.999
989.00,49.985
990.00,49.985
991.00,49.969
992.00,49.972
993.00,49.927
994.00,49.919
995.00,49.916
996.00,49.916
997.00,49.890
998.00,49.876
999.00,49.893
1000.00,49.844
1001.00,49.856
1002.00,49.846
1003.00,49.830
1004.00,49.799
1005.00,49.768
1006.00,49.808
1007.00,49.774
1008.00,49.759
1009.00,49.733
1010.00,49.723
1011.00,49.698
1012.00,49.679
1013.00,49.684
1014.00,49.661
1015.00,49.689
1016.00,49.639
1017.00,49.626
1018.00,49.602
1019.00,49.571
1020.00,49.558
1021.00,49.530
1022.00,49.526
1023.00,49.488
1024.00,49.495
1025.00,49.477
1026.00,49.483
1027.00,49.442
1028.00,49.444
1029.00,49.444
1030.00,49.394
1031.00,49.416
1032.00,49.364
1033.00,49.370
1034.00,49.341
1035.00,49.303
1036.00,49.276
1037.00,49.261
1038.00,49.240
1039.00,49.206
1040.00,49.208
1041.00,49.166
1042.00,49.173
1043.00,49.148
1044.00,49.177
1045.00,49.180
1046.00,49.173
1047.00,49.191
1048.00,49.193
1049.00,49.208
1050.00,49.195
1051.00,49.239
1052.00,49.240
1053.00,49.254
1054.00,49.263
1055.00,49.268
1056.00,49.299
1057.00,49.281
1058.00,49.249
1059.00,49.249
1060.00,49.256
1061.00,49.245
1062.00,49.249
1063.00,49.252
1064.00,49.260
1065.00,49.243
1066.00,49.225
1067.00,49.218
1068.00,49.238
1069.00,49.175
1070.00,49.164
1071.00,49.138
1072.00,49.148
1073.00,49.128
1074.00,49.126
1075.00,49.130
1076.00,49.138
1077.00,49.116
1078.00,49.107
1079.00,49.101
1080.00,49.101
1081.00,49.104
1082.00,49.101
1083.00,49.093
1084.00,49.096
1085.00,49.095
1086.00,49.087
1087.00,49.092
1088.00,49.064
1089.00,49.063
1090.00,49.051
1091.00,49.039
1092.00,49.047
1093.00,49.020
1094.00,49.009
1095.00,49.006
1096.00,48.982
1097.00,48.991
1098.00,48.989
1099.00,48.974
1100.00,48.961
1101.00,48.941
1102.00,48.910
1103.00,48.921
1104.00,48.906
1105.00,48.898
1106.00,48.889
1107.00,48.885
1108.00,48.889
1109.00,48.873
1110.00,48.860
1111.00,48.882
1112.00,48.870
1113.00,48.857
1114.00,48.856
1115.00,48.846
1116.00,48.837
1117.00,48.823
1118.00,48.813
1119.00,48.818
1120.00,48.811
1121.00,48.797
1122.00,48.799
1123.00,48.802
1124.00,48.773
1125.00,48.786
1126.00,48.782
1127.00,48.782
1128.00,48.773
1129.00,48.763
1130.00,48.748
1131.00,48.748
1132.00,48.720
1133.00,48.730
1134.00,48.702
1135.00,48.700
1136.00,48.714
1137.00,48.696
1138.00,48.697
1139.00,48.736
1140.00,48.694
1141.00,48.701
1142.00,48.682
1143.00,48.705
1144.00,48.680
1145.00,48.676
1146.00,48.669
1147.00,48.669
1148.00,48.656
1149.00,48.664
1150.00,48.669
1151.00,48.655
1152.00,48.659
1153.00,48.679
1154.00,48.660
1155.00,48.657
1156.00,48.637
1157.00,48.642
1158.00,48.633
1159.00,48.633
1160.00,48.641
1161.00,48.647
1162.00,48.648
1163.00,48.656
1164.00,48.670
1165.00,48.645
1166.00,48.648
1167.00,48.624
1168.00,48.632
1169.00,48.626
1170.00,48.632
1171.00,48.602
1172.00,48.616
1173.00,48.608
1174.00,48.618
1175.00,48.623
1176.00,48.621
1177.00,48.620
1178.00,48.614
1179.00,48.609
1180.00,48.607
1181.00,48.631
1182.00,48.610
1183.00,48.614
1184.00,48.588
1185.00,48.608
1186.00,48.601
1187.00,48.596
1188.00,48.607
1189.00,48.592
1190.00,48.581
1191.00,48.592
1192.00,48.613
1193.00,48.591
1194.00,48.603
1195.00,48.579
1196.00,48.619
1197.00,48.624
1198.00,48.591
1199.00,48.594
1200.00,48.599
1201.00,48.597
1202.00,48.574
1203.00,48.583
1204.00,48.575
1205.00,48.604
1206.00,48.579
1207.00,48.601
1208.00,48.585
1209.00,48.590
1210.00,48.596
1211.00,48.601
1212.00,48.613
1213.00,48.591
1214.00,48.620
1215.00,48.605
1216.00,48.606
1217.00,48.602
1218.00,48.602
1219.00,48.630
1220.00,48.608
1221.00,48.637
1222.00,48.609
1223.00,48.625
1224.00,48.630
1225.00,48.612
1226.00,48.609
1227.00,48.606
1228.00,48.626
1229.00,48.626
1230.00,48.673
1231.00,48.654
1232.00,48.683
1233.00,48.666
1234.00,48.669
1235.00,48.678
1236.00,48.654
1237.00,48.674
1238.00,48.675
1239.00,48.678
1240.00,48.678
1241.00,48.698
1242.00,48.691
1243.00,48.703
1244.00,48.676
1245.00,48.699
1246.00,48.703
1247.00,48.686
1248.00,48.691
1249.00,48.706
1250.00,48.694
1251.00,48.684
1252.00,48.698
1253.00,48.682
1254.00,48.729
1255.00,48.711
1256.00,48.682
1257.00,48.681
1258.00,48.724
1259.00,48.689
1260.00,48.732
1261.00,48.726
1262.00,48.703
1263.00,48.724
1264.00,48.748
1265.00,48.733
1266.00,48.711
1267.00,48.740
1268.00,48.752
1269.00,48.742
1270.00,48.754
1271.00,48.758
1272.00,48.768
1273.00,48.804
1274.00,48.797
1275.00,48.808
1276.00,48.808
1277.00,48.810
1278.00,48.819
1279.00,48.843
1280.00,48.833
1281.00,48.843
1282.00,48.854
1283.00,48.849
1284.00,48.866
1285.00,48.839
1286.00,48.847
1287.00,48.860
1288.00,48.845
1289.00,48.834
1290.00,48.887
1291.00,48.902
1292.00,48.906
1293.00,48.916
1294.00,48.927
1295.00,48.942
1296.00,48.967
1297.00,48.967
1298.00,48.998
1299.00,48.970
1300.00,48.991
1301.00,48.983
1302.00,49.014
1303.00,49.006
1304.00,49.009
1305.00,49.025
1306.00,49.037
1307.00,49.054
1308.00,49.038
1309.00,49.050
1310.00,49.054
1311.00,49.054
1312.00,49.071
1313.00,49.077
1314.00,49.078
1315.00,49.115
1316.00,49.106
1317.00,49.152
1318.00,49.135
1319.00,49.128
1320.00,49.155
1321.00,49.293
1322.00,49.291
1323.00,49.283
1324.00,49.273
1325.00,49.274
1326.00,49.303
1327.00,49.290
1328.00,49.296
1329.00,49.297
1330.00,49.304
1331.00,49.319
1332.00,49.301
1333.00,49.334
1334.00,49.345
1335.00,49.366
1336.00,49.385
1337.00,49.421
1338.00,49.470
1339.00,49.518
1340.00,49.572
1341.00,49.645
1342.00,49.717
1343.00,49.766
1344.00,49.810
1345.00,49.871
1346.00,49.896
1347.00,49.924
1348.00,49.925
1349.00,49.945
1350.00,50.005
1351.00,50.007
1352.00,49.995
1353.00,50.048
1354.00,50.022
1355.00,49.949
1356.00,50.078
1357.00,50.044
1358.00,50.012
1359.00,50.060
1360.00,50.049
1361.00,50.098
1362.00,50.028
1363.00,50.106
1364.00,50.119
1365.00,50.081
1366.00,50.047
1367.00,50.043
1368.00,50.050
1369.00,50.068
1370.00,50.056
1371.00,50.055
1372.00,50.073
1373.00,50.055
1374.00,50.074
1375.00,50.062
1376.00,50.044
1377.00,50.083
1378.00,50.160
1379.00,50.053
1380.00,50.062
1381.00,50.005
1382.00,50.015
1383.00,50.066
1384.00,50.027
1385.00,50.065
1386.00,50.045
1387.00,50.035
1388.00,50.021
1389.00,50.051
1390.00,50.028
1391.00,50.085
1392.00,50.052
1393.00,50.010
1394.00,50.044
1395.00,50.018
1396.00,50.041
1397.00,50.117
1398.00,50.128
1399.00,50.092
1400.00,50.090
1401.00,50.049
1402.00,50.098
1403.00,50.079
1404.00,50.102
1405.00,50.103
1406.00,50.130
1407.00,50.083
1408.00,50.134
1409.00,50.084
1410.00,50.155
1411.00,50.110
1412.00,50.098
1413.00,50.113
1414.00,50.211
1415.00,50.207
1416.00,50.221
1417.00,50.216
1418.00,50.229
1419.00,50.252
1420.00,50.252
1421.00,50.303
1422.00,50.281
1423.00,50.303
1424.00,50.314
1425.00,50.319
1426.00,50.350
1427.00,50.393
1428.00,50.343
1429.00,50.373
1430.00,50.403
1431.00,50.410
1432.00,50.439
1433.00,50.459
1434.00,50.452
1435.00,50.497
1436.00,50.488
1437.00,50.484
1438.00,50.504
1439.00,50.527
1440.00,50.545
1441.00,50.557
1442.00,50.581
1443.00,50.663
1444.00,50.653
1445.00,50.631
1446.00,50.659
1447.00,50.693
1448.00,50.735
1449.00,50.737
1450.00,50.733
1451.00,50.765
1452.00,50.802
1453.00,50.793
1454.00,50.817
1455.00,50.845
1456.00,50.861
1457.00,50.869
1458.00,50.884
1459.00,50.898
1460.00,50.937
1461.00,50.926
1462.00,50.970
1463.00,50.982
1464.00,50.989
1465.00,51.013
1466.00,51.027
1467.00,51.054
1468.00,51.090
1469.00,51.080
1470.00,51.095
1471.00,51.105
1472.00,51.110
1473.00,51.117
1474.00,51.159
1475.00,51.156
1476.00,51.184
1477.00,51.166
1478.00,51.196
1479.00,51.235
1480.00,51.228
1481.00,51.233
1482.00,51.274
1483.00,51.280
1484.00,51.317
1485.00,51.314
1486.00,51.325
1487.00,51.355
1488.00,51.384
1489.00,51.356
1490.00,51.374
1491.00,51.376
1492.00,51.392
1493.00,51.384
1494.00,51.419
1495.00,51.415
1496.00,51.452
1497.00,51.427
1498.00,51.445
1499.00,51.487
1500.00,51.507
1501.00, 
1502.00, 
1503.00, 
1504.00, 
1505.00, 
1506.00, 
1507.00, 
1508.00, 
1509.00, 
1510.00, 
1511.00, 
1512.00, 
1513.00, 
1514.00, 
1515.00, 
1516.00, 
1517.00, 
1518.00, 
1519.00, 
1520.00, 
1521.00, 
1522.00, 
1523.00, 
1524.00, 
1525.00, 
1526.00, 
1527.00, 
1528.00, 
1529.00, 
1530.00, 
1531.00, 
1532.00, 
1533.00, 
1534.00, 
1535.00, 
1536.00, 
1537.00, 
1538.00, 
1539.00, 
1540.00, 
1541.00, 
1542.00, 
1543.00, 
1544.00, 
1545.00, 
1546.00, 
1547.00, 
1548.00, 
1549.00, 
1550.00, 
1551.00, 
1552.00, 
1553.00, 
1554.00, 
1555.00, 
1556.00, 
1557.00, 
1558.00, 
1559.00, 
1560.00, 
1561.00, 
1562.00, 
1563.00, 
1564.00, 
1565.00, 
1566.00, 
1567.00, 
1568.00, 
1569.00, 
1570.00, 
1571.00, 
1572.00, 
1573.00, 
1574.00, 
1575.00, 
1576.00, 
1577.00, 
1578.00, 
1579.00, 
1580.00, 
1581.00, 
1582.00, 
1583.00, 
1584.00, 
1585.00, 
1586.00, 
1587.00, 
1588.00, 
1589.00, 
1590.00, 
1591.00, 
1592.00, 
1593.00, 
1594.00, 
1595.00, 
1596.00, 
1597.00, 
1598.00, 
1599.00, 
1600.00, 
1601.00, 
1602.00, 
1603.00, 
1604.00, 
1605.00, 
1606.00, 
1607.00, 
1608.00, 
1609.00, 
1610.00, 
1611.00, 
1612.00, 
1613.00, 
1614.00, 
1615.00, 
1616.00, 
1617.00, 
1618.00, 
1619.00, 
1620.00, 
1621.00, 
1622.00, 
1623.00, 
1624.00, 
1625.00, 
1626.00, 
1627.00, 
1628.00, 
1629.00, 
1630.00, 
1631.00, 
1632.00, 
1633.00, 
1634.00, 
1635.00, 
1636.00, 
1637.00, 
1638.00, 
1639.00, 
1640.00, 
1641.00, 
1642.00, 
1643.00, 
1644.00, 
1645.00, 
1646.00, 
1647.00, 
1648.00, 
1649.00, 
1650.00, 
1651.00, 
1652.00, 
1653.00, 
1654.00, 
1655.00, 
1656.00, 
1657.00, 
1658.00, 
1659.00, 
1660.00, 
1661.00, 
1662.00, 
1663.00, 
1664.00, 
1665.00, 
1666.00, 
1667.00, 
1668.00, 
1669.00, 
1670.00, 
1671.00, 
1672.00, 
1673.00, 
1674.00, 
1675.00, 
1676.00, 
1677.00, 
1678.00, 
1679.00, 
1680.00, 
1681.00, 
1682.00, 
1683.00, 
1684.00, 
1685.00, 
1686.00, 
1687.00, 
1688.00, 
1689.00, 
1690.00, 
1691.00, 
1692.00, 
1693.00, 
1694.00, 
1695.00, 
1696.00, 
1697.00, 
1698.00, 
1699.00, 
1700.00, 
1701.00, 
1702.00, 
1703.00, 
1704.00, 
1705.00, 
1706.00, 
1707.00, 
1708.00, 
1709.00, 
1710.00, 
1711.00, 
1712.00, 
1713.00, 
1714.00, 
1715.00, 
1716.00, 
1717.00, 
1718.00, 
1719.00, 
1720.00, 
1721.00, 
1722.00, 
1723.00, 
1724.00, 
1725.00, 
1726.00, 
1727.00, 
1728.00, 
1729.00, 
1730.00, 
1731.00, 
1732.00, 
1733.00, 
1734.00, 
1735.00, 
1736.00, 
1737.00, 
1738.00, 
1739.00, 
1740.00, 
1741.00, 
1742.00, 
1743.00, 
1744.00, 
1745.00, 
1746.00, 
1747.00, 
1748.00, 
1749.00, 
1750.00, 
1751.00, 
1752.00, 
1753.00, 
1754.00, 
1755.00, 
1756.00, 
1757.00, 
1758.00, 
1759.00, 
1760.00, 
1761.00, 
1762.00, 
1763.00, 
1764.00, 
1765.00, 
1766.00, 
1767.00, 
1768.00, 
1769.00, 
1770.00, 
1771.00, 
1772.00, 
1773.00, 
1774.00, 
1775.00, 
1776.00, 
1777.00, 
1778.00, 
1779.00, 
1780.00, 
1781.00, 
1782.00, 
1783.00, 
1784.00, 
1785.00, 
1786.00, 
1787.00, 
1788.00, 
1789.00, 
1790.00, 
1791.00, 
1792.00, 
1793.00, 
1794.00, 
1795.00, 
1796.00, 
1797.00, 
1798.00, 
1799.00, 
1800.00, 
1801.00, 
1802.00, 
1803.00, 
1804.00, 
1805.00, 
1806.00, 
1807.00, 
1808.00, 
1809.00, 
1810.00, 
1811.00, 
1812.00, 
1813.00, 
1814.00, 
1815.00, 
1816.00, 
1817.00, 
1818.00, 
1819.00, 
1820.00, 
1821.00, 
1822.00, 
1823.00, 
1824.00, 
1825.00, 
1826.00, 
1827.00, 
1828.00, 
1829.00, 
1830.00, 
1831.00, 
1832.00, 
1833.00, 
1834.00, 
1835.00, 
1836.00, 
1837.00, 
1838.00, 
1839.00, 
1840.00, 
1841.00, 
1842.00, 
1843.00, 
1844.00, 
1845.00, 
1846.00, 
1847.00, 
1848.00, 
1849.00, 
1850.00, 
1851.00, 
1852.00, 
1853.00, 
1854.00, 
1855.00, 
1856.00, 
1857.00, 
1858.00, 
1859.00, 
1860.00, 
1861.00, 
1862.00, 
1863.00, 
1864.00, 
1865.00, 
1866.00, 
1867.00, 
1868.00, 
1869.00, 
1870.00, 
1871.00, 
1872.00, 
1873.00, 
1874.00, 
1875.00, 
1876.00, 
1877.00, 
1878.00, 
1879.00, 
1880.00, 
1881.00, 
1882.00, 
1883.00, 
1884.00, 
1885.00, 
1886.00, 
1887.00, 
1888.00, 
1889.00, 
1890.00, 
1891.00, 
1892.00, 
1893.00, 
1894.00, 
1895.00, 
1896.00, 
1897.00, 
1898.00, 
1899.00, 
1900.00, 
1901.00, 
1902.00, 
1903.00, 
1904.00, 
1905.00, 
1906.00, 
1907.00, 
1908.00, 
1909.00, 
1910.00, 
1911.00, 
1912.00, 
1913.00, 
1914.00, 
1915.00, 
1916.00, 
1917.00, 
1918.00, 
1919.00, 
1920.00, 
1921.00, 
1922.00, 
1923.00, 
1924.00, 
1925.00, 
1926.00, 
1927.00, 
1928.00, 
1929.00, 
1930.00, 
1931.00, 
1932.00, 
1933.00, 
1934.00, 
1935.00, 
1936.00, 
1937.00, 
1938.00, 
1939.00, 
1940.00, 
1941.00, 
1942.00, 
1943.00, 
1944.00, 
1945.00, 
1946.00, 
1947.00, 
1948.00, 
1949.00, 
1950.00, 
1951.00, 
1952.00, 
1953.00, 
1954.00, 
1955.00, 
1956.00, 
1957.00, 
1958.00, 
1959.00, 
1960.00, 
1961.00, 
1962.00, 
1963.00, 
1964.00, 
1965.00, 
1966.00, 
1967.00, 
1968.00, 
1969.00, 
1970.00, 
1971.00, 
1972.00, 
1973.00, 
1974.00, 
1975.00, 
1976.00, 
1977.00, 
1978.00, 
1979.00, 
1980.00, 
1981.00, 
1982.00, 
1983.00, 
1984.00, 
1985.00, 
1986.00, 
1987.00, 
1988.00, 
1989.00, 
1990.00, 
1991.00, 
1992.00, 
1993.00, 
1994.00, 
1995.00, 
1996.00, 
1997.00, 
1998.00, 
1999.00, 
2000.00, 
2001.00, 
2002.00, 
2003.00, 
2004.00, 
2005.00, 
2006.00, 
2007.00, 
2008.00, 
2009.00, 
2010.00, 
2011.00, 
2012.00, 
2013.00, 
2014.00, 
2015.00, 
2016.00, 
2017.00, 
2018.00, 
2019.00, 
2020.00, 
2021.00, 
2022.00, 
2023.00, 
2024.00, 
2025.00, 
2026.00, 
2027.00, 
2028.00, 
2029.00, 
2030.00, 
2031.00, 
2032.00, 
2033.00, 
2034.00, 
2035.00, 
2036.00, 
2037.00, 
2038.00, 
2039.00, 
2040.00, 
2041.00, 
2042.00, 
2043.00, 
2044.00, 
2045.00, 
2046.00, 
2047.00, 
2048.00, 
2049.00, 
2050.00, 
2051.00, 
2052.00, 
2053.00, 
2054.00, 
2055.00, 
2056.00, 
2057.00, 
2058.00, 
2059.00, 
2060.00, 
2061.00, 
2062.00, 
2063.00, 
2064.00, 
2065.00, 
2066.00, 
2067.00, 
2068.00, 
2069.00, 
2070.00, 
2071.00, 
2072.00, 
2073.00, 
2074.00, 
2075.00, 
2076.00, 
2077.00, 
2078.00, 
2079.00, 
2080.00, 
2081.00, 
2082.00, 
2083.00, 
2084.00, 
2085.00, 
2086.00, 
2087.00, 
2088.00, 
2089.00, 
2090.00, 
2091.00, 
2092.00, 
2093.00, 
2094.00, 
2095.00, 
2096.00, 
2097.00, 
2098.00, 
2099.00, 
2100.00, 
2101.00, 
2102.00, 
2103.00, 
2104.00, 
2105.00, 
2106.00, 
2107.00, 
2108.00, 
2109.00, 
2110.00, 
2111.00, 
2112.00, 
2113.00, 
2114.00, 
2115.00, 
2116.00, 
2117.00, 
2118.00, 
2119.00, 
2120.00, 
2121.00, 
2122.00, 
2123.00, 
2124.00, 
2125.00, 
2126.00, 
2127.00, 
2128.00, 
2129.00, 
2130.00, 
2131.00, 
2132.00, 
2133.00, 
2134.00, 
2135.00, 
2136.00, 
2137.00, 
2138.00, 
2139.00, 
2140.00, 
2141.00, 
2142.00, 
2143.00, 
2144.00, 
2145.00, 
2146.00, 
2147.00, 
2148.00, 
2149.00, 
2150.00, 
2151.00, 
2152.00, 
2153.00, 
2154.00, 
2155.00, 
2156.00, 
2157.00, 
2158.00, 
2159.00, 
2160.00, 
2161.00, 
2162.00, 
2163.00, 
2164.00, 
2165.00, 
2166.00, 
2167.00, 
2168.00, 
2169.00, 
2170.00, 
2171.00, 
2172.00, 
2173.00, 
2174.00, 
2175.00, 
2176.00, 
2177.00, 
2178.00, 
2179.00, 
2180.00, 
2181.00, 
2182.00, 
2183.00, 
2184.00, 
2185.00, 
2186.00, 
2187.00, 
2188.00, 
2189.00, 
2190.00, 
2191.00, 
2192.00, 
2193.00, 
2194.00, 
2195.00, 
2196.00, 
2197.00, 
2198.00, 
2199.00, 
2200.00, 
2201.00, 
2202.00, 
2203.00, 
2204.00, 
2205.00, 
2206.00, 
2207.00, 
2208.00, 
2209.00, 
2210.00, 
2211.00, 
2212.00, 
2213.00, 
2214.00, 
2215.00, 
2216.00, 
2217.00, 
2218.00, 
2219.00, 
2220.00, 
2221.00, 
2222.00, 
2223.00, 
2224.00, 
2225.00, 
2226.00, 
2227.00, 
2228.00, 
2229.00, 
2230.00, 
2231.00, 
2232.00, 
2233.00, 
2234.00, 
2235.00, 
2236.00, 
2237.00, 
2238.00, 
2239.00, 
2240.00, 
2241.00, 
2242.00, 
2243.00, 
2244.00, 
2245.00, 
2246.00, 
2247.00, 
2248.00, 
2249.00, 
2250.00, 
2251.00, 
2252.00, 
2253.00, 
2254.00, 
2255.00, 
2256.00, 
2257.00, 
2258.00, 
2259.00, 
2260.00, 
2261.00, 
2262.00, 
2263.00, 
2264.00, 
2265.00, 
2266.00, 
2267.00, 
2268.00, 
2269.00, 
2270.00, 
2271.00, 
2272.00, 
2273.00, 
2274.00, 
2275.00, 
2276.00, 
2277.00, 
2278.00, 
2279.00, 
2280.00, 
2281.00, 
2282.00, 
2283.00, 
2284.00, 
2285.00, 
2286.00, 
2287.00, 
2288.00, 
2289.00, 
2290.00, 
2291.00, 
2292.00, 
2293.00, 
2294.00, 
2295.00, 
2296.00, 
2297.00, 
2298.00, 
2299.00, 
2300.00, 
2301.00, 
2302.00, 
2303.00, 
2304.00, 
2305.00, 
2306.00, 
2307.00, 
2308.00, 
2309.00, 
2310.00, 
2311.00, 
2312.00, 
2313.00, 
2314.00, 
2315.00, 
2316.00, 
2317.00, 
2318.00, 
2319.00, 
2320.00, 
2321.00, 
2322.00, 
2323.00, 
2324.00, 
2325.00, 
2326.00, 
2327.00, 
2328.00, 
2329.00, 
2330.00, 
2331.00, 
2332.00, 
2333.00, 
2334.00, 
2335.00, 
2336.00, 
2337.00, 
2338.00, 
2339.00, 
2340.00, 
2341.00, 
2342.00, 
2343.00, 
2344.00, 
2345.00, 
2346.00, 
2347.00, 
2348.00, 
2349.00, 
2350.00, 
2351.00, 
2352.00, 
2353.00, 
2354.00, 
2355.00, 
2356.00, 
2357.00, 
2358.00, 
2359.00, 
2360.00, 
2361.00, 
2362.00, 
2363.00, 
2364.00, 
2365.00, 
2366.00, 
2367.00, 
2368.00, 
2369.00, 
2370.00, 
2371.00, 
2372.00, 
2373.00, 
2374.00, 
2375.00, 
2376.00, 
2377.00, 
2378.00, 
2379.00, 
2380.00, 
2381.00, 
2382.00, 
2383.00, 
2384.00, 
2385.00, 
2386.00, 
2387.00, 
2388.00, 
2389.00, 
2390.00, 
2391.00, 
2392.00, 
2393.00, 
2394.00, 
2395.00, 
2396.00, 
2397.00, 
2398.00, 
2399.00, 
2400.00, 
2401.00, 
2402.00, 
2403.00, 
2404.00, 
2405.00, 
2406.00, 
2407.00, 
2408.00, 
2409.00, 
2410.00, 
2411.00, 
2412.00, 
2413.00, 
2414.00, 
2415.00, 
2416.00, 
2417.00, 
2418.00, 
2419.00, 
2420.00, 
2421.00, 
2422.00, 
2423.00, 
2424.00, 
2425.00, 
2426.00, 
2427.00, 
2428.00, 
2429.00, 
2430.00, 
2431.00, 
2432.00, 
2433.00, 
2434.00, 
2435.00, 
2436.00, 
2437.00, 
2438.00, 
2439.00, 
2440.00, 
2441.00, 
2442.00, 
2443.00, 
2444.00, 
2445.00, 
2446.00, 
2447.00, 
2448.00, 
2449.00, 
2450.00, 
2451.00, 
2452.00, 
2453.00, 
2454.00, 
2455.00, 
2456.00, 
2457.00, 
2458.00, 
2459.00, 
2460.00, 
2461.00, 
2462.00, 
2463.00, 
2464.00, 
2465.00, 
2466.00, 
2467.00, 
2468.00, 
2469.00, 
2470.00, 
2471.00, 
2472.00, 
2473.00, 
2474.00, 
2475.00, 
2476.00, 
2477.00, 
2478.00, 
2479.00, 
2480.00, 
2481.00, 
2482.00, 
2483.00, 
2484.00, 
2485.00, 
2486.00, 
2487.00, 
2488.00, 
2489.00, 
2490.00, 
2491.00, 
2492.00, 
2493.00, 
2494.00, 
2495.00, 
2496.00, 
2497.00, 
2498.00, 
2499.00, 
2500.00, 
2501.00, 
2502.00, 
2503.00, 
2504.00, 
2505.00, 
2506.00, 
2507.00, 
2508.00, 
2509.00, 
2510.00, 
2511.00, 
2512.00, 
2513.00, 
2514.00, 
2515.00, 
2516.00, 
2517.00, 
2518.00, 
2519.00, 
2520.00, 
2521.00, 
2522.00, 
2523.00, 
2524.00, 
2525.00, 
2526.00, 
2527.00, 
2528.00, 
2529.00, 
2530.00, 
2531.00, 
2532.00, 
2533.00, 
2534.00, 
2535.00, 
2536.00, 
2537.00, 
2538.00, 
2539.00, 
2540.00, 
2541.00, 
2542.00, 
2543.00, 
2544.00, 
2545.00, 
2546.00, 
2547.00, 
2548.00, 
2549.00, 
2550.00, 
2551.00, 
2552.00, 
2553.00, 
2554.00, 
2555.00, 
2556.00, 
2557.00, 
2558.00, 
2559.00, 
2560.00, 
2561.00, 
2562.00, 
2563.00, 
2564.00, 
2565.00, 
2566.00, 
2567.00, 
2568.00, 
2569.00, 
2570.00, 
2571.00, 
2572.00, 
2573.00, 
2574.00, 
2575.00, 
2576.00, 
2577.00, 
2578.00, 
2579.00, 
2580.00, 
2581.00, 
2582.00, 
2583.00, 
2584.00, 
2585.00, 
2586.00, 
2587.00, 
2588.00, 
2589.00, 
2590.00, 
2591.00, 
2592.00, 
2593.00, 
2594.00, 
2595.00, 
2596.00, 
2597.00, 
2598.00, 
2599.00, 
2600.00, 
