"1cP3 - RawData"
"Wavelength nm.","T%"
200.00,0.004
201.00,-0.002
202.00,0.004
203.00,0.005
204.00,0.000
205.00,0.001
206.00,0.003
207.00,-0.001
208.00,0.001
209.00,0.004
210.00,-0.000
211.00,0.001
212.00,0.001
213.00,0.001
214.00,0.002
215.00,0.002
216.00,-0.001
217.00,0.001
218.00,-0.000
219.00,0.001
220.00,0.001
221.00,0.001
222.00,-0.001
223.00,-0.001
224.00,-0.002
225.00,-0.001
226.00,-0.000
227.00,-0.001
228.00,0.004
229.00,0.001
230.00,-0.001
231.00,-0.002
232.00,0.001
233.00,-0.001
234.00,0.003
235.00,0.002
236.00,0.002
237.00,-0.000
238.00,-0.000
239.00,0.001
240.00,0.000
241.00,0.002
242.00,-0.000
243.00,-0.001
244.00,-0.000
245.00,0.000
246.00,0.000
247.00,0.001
248.00,0.001
249.00,0.001
250.00,0.003
251.00,0.000
252.00,0.001
253.00,0.000
254.00,0.003
255.00,-0.001
256.00,0.000
257.00,0.004
258.00,-0.001
259.00,0.001
260.00,0.001
261.00,-0.000
262.00,-0.000
263.00,0.002
264.00,-0.001
265.00,0.000
266.00,0.000
267.00,0.001
268.00,0.001
269.00,-0.000
270.00,0.000
271.00,0.002
272.00,-0.001
273.00,-0.000
274.00,0.000
275.00,-0.001
276.00,0.002
277.00,0.001
278.00,0.000
279.00,-0.001
280.00,0.001
281.00,-0.000
282.00,-0.000
283.00,0.001
284.00,0.001
285.00,-0.000
286.00,0.000
287.00,0.001
288.00,-0.000
289.00,0.002
290.00,-0.001
291.00,-0.000
292.00,-0.002
293.00,0.001
294.00,0.000
295.00,-0.000
296.00,0.001
297.00,-0.001
298.00,0.001
299.00,-0.000
300.00,-0.001
301.00,-0.002
302.00,0.001
303.00,-0.000
304.00,0.001
305.00,0.002
306.00,0.001
307.00,0.002
308.00,0.006
309.00,0.014
310.00,0.019
311.00,0.031
312.00,0.050
313.00,0.084
314.00,0.123
315.00,0.175
316.00,0.257
317.00,0.361
318.00,0.491
319.00,0.662
320.00,0.884
321.00,1.152
322.00,1.480
323.00,1.883
324.00,2.321
325.00,2.793
326.00,3.308
327.00,3.956
328.00,4.616
329.00,5.315
330.00,6.120
331.00,6.921
332.00,7.802
333.00,8.745
334.00,9.673
335.00,10.591
336.00,11.610
337.00,12.597
338.00,13.576
339.00,14.503
340.00,15.493
341.00,16.443
342.00,17.414
343.00,18.257
344.00,19.110
345.00,20.023
346.00,20.778
347.00,21.578
348.00,22.298
349.00,22.946
350.00,23.634
351.00,24.247
352.00,24.789
353.00,25.395
354.00,25.895
355.00,26.376
356.00,26.804
357.00,27.239
358.00,27.656
359.00,28.144
360.00,28.527
361.00,28.819
362.00,29.150
363.00,29.450
364.00,29.541
365.00,29.812
366.00,29.966
367.00,30.166
368.00,30.333
369.00,30.440
370.00,30.550
371.00,30.620
372.00,30.650
373.00,30.674
374.00,30.724
375.00,30.711
376.00,30.593
377.00,30.564
378.00,30.477
379.00,30.344
380.00,30.352
381.00,30.400
382.00,30.418
383.00,30.499
384.00,30.658
385.00,30.704
386.00,30.813
387.00,30.880
388.00,31.207
389.00,31.213
390.00,31.300
391.00,31.449
392.00,31.514
393.00,31.580
394.00,31.633
395.00,31.757
396.00,31.766
397.00,31.809
398.00,31.834
399.00,31.860
400.00,31.907
401.00,31.902
402.00,31.883
403.00,31.912
404.00,31.916
405.00,31.932
406.00,31.933
407.00,31.870
408.00,31.896
409.00,31.794
410.00,31.747
411.00,31.750
412.00,31.690
413.00,31.722
414.00,31.657
415.00,31.672
416.00,31.772
417.00,31.766
418.00,31.716
419.00,31.826
420.00,31.839
421.00,31.855
422.00,31.911
423.00,31.909
424.00,31.942
425.00,32.034
426.00,32.030
427.00,32.048
428.00,32.052
429.00,32.112
430.00,32.148
431.00,32.188
432.00,32.217
433.00,32.281
434.00,32.313
435.00,32.378
436.00,32.438
437.00,32.480
438.00,32.515
439.00,32.581
440.00,32.629
441.00,32.693
442.00,32.758
443.00,32.859
444.00,32.951
445.00,32.975
446.00,33.067
447.00,33.140
448.00,33.240
449.00,33.321
450.00,33.433
451.00,33.502
452.00,33.610
453.00,33.730
454.00,33.808
455.00,33.875
456.00,33.995
457.00,34.098
458.00,34.211
459.00,34.324
460.00,34.405
461.00,34.516
462.00,34.613
463.00,34.741
464.00,34.841
465.00,34.932
466.00,35.087
467.00,35.207
468.00,35.242
469.00,35.402
470.00,35.377
471.00,35.449
472.00,35.570
473.00,35.592
474.00,35.661
475.00,35.780
476.00,35.847
477.00,35.972
478.00,36.050
479.00,36.209
480.00,36.328
481.00,36.410
482.00,36.551
483.00,36.692
484.00,36.838
485.00,36.953
486.00,37.111
487.00,37.268
488.00,37.394
489.00,37.421
490.00,37.548
491.00,37.671
492.00,37.931
493.00,38.049
494.00,38.004
495.00,38.133
496.00,38.242
497.00,38.270
498.00,38.467
499.00,38.549
500.00,38.739
501.00,38.790
502.00,38.895
503.00,38.970
504.00,39.008
505.00,39.067
506.00,39.199
507.00,39.249
508.00,39.382
509.00,39.526
510.00,39.600
511.00,39.691
512.00,39.788
513.00,40.012
514.00,40.170
515.00,40.109
516.00,40.186
517.00,40.329
518.00,40.485
519.00,40.520
520.00,40.595
521.00,40.646
522.00,40.684
523.00,40.728
524.00,40.843
525.00,40.928
526.00,41.107
527.00,41.103
528.00,41.134
529.00,41.324
530.00,41.516
531.00,41.586
532.00,41.624
533.00,41.741
534.00,41.871
535.00,41.881
536.00,41.963
537.00,42.024
538.00,42.127
539.00,42.115
540.00,42.189
541.00,42.231
542.00,42.295
543.00,42.340
544.00,42.369
545.00,42.410
546.00,42.482
547.00,42.633
548.00,42.738
549.00,42.753
550.00,42.871
551.00,42.967
552.00,43.036
553.00,43.094
554.00,43.099
555.00,43.141
556.00,43.260
557.00,43.350
558.00,43.353
559.00,43.455
560.00,43.488
561.00,43.559
562.00,43.591
563.00,43.606
564.00,43.671
565.00,43.672
566.00,43.687
567.00,43.767
568.00,43.822
569.00,43.826
570.00,43.851
571.00,43.916
572.00,43.981
573.00,43.877
574.00,43.879
575.00,43.868
576.00,43.959
577.00,43.943
578.00,44.178
579.00,44.197
580.00,44.213
581.00,44.373
582.00,44.431
583.00,44.395
584.00,44.510
585.00,44.610
586.00,44.616
587.00,44.732
588.00,44.720
589.00,44.584
590.00,44.669
591.00,44.743
592.00,44.667
593.00,44.777
594.00,44.869
595.00,44.954
596.00,44.979
597.00,45.071
598.00,45.139
599.00,45.205
600.00,45.246
601.00,45.221
602.00,45.122
603.00,45.171
604.00,45.256
605.00,45.305
606.00,45.289
607.00,45.307
608.00,45.519
609.00,45.590
610.00,45.339
611.00,45.461
612.00,45.452
613.00,45.488
614.00,45.589
615.00,45.675
616.00,45.612
617.00,45.569
618.00,45.655
619.00,45.815
620.00,45.765
621.00,45.807
622.00,45.865
623.00,45.927
624.00,46.059
625.00,46.058
626.00,46.116
627.00,46.074
628.00,46.105
629.00,46.143
630.00,46.125
631.00,46.210
632.00,46.232
633.00,46.349
634.00,46.426
635.00,46.519
636.00,46.455
637.00,46.471
638.00,46.589
639.00,46.618
640.00,46.638
641.00,46.670
642.00,46.705
643.00,46.722
644.00,46.798
645.00,46.857
646.00,46.956
647.00,46.976
648.00,47.029
649.00,47.007
650.00,46.964
651.00,47.216
652.00,47.197
653.00,47.132
654.00,47.181
655.00,47.370
656.00,47.698
657.00,47.604
658.00,47.520
659.00,47.550
660.00,47.463
661.00,47.525
662.00,47.592
663.00,47.681
664.00,47.813
665.00,48.013
666.00,48.058
667.00,48.092
668.00,48.223
669.00,48.001
670.00,48.397
671.00,48.172
672.00,48.259
673.00,48.328
674.00,48.375
675.00,48.370
676.00,48.556
677.00,48.712
678.00,48.368
679.00,48.619
680.00,48.721
681.00,48.809
682.00,48.764
683.00,48.667
684.00,48.790
685.00,48.933
686.00,48.705
687.00,48.922
688.00,48.956
689.00,48.821
690.00,49.117
691.00,49.321
692.00,48.884
693.00,49.058
694.00,49.206
695.00,49.241
696.00,49.164
697.00,49.040
698.00,49.027
699.00,49.658
700.00,50.077
701.00,49.411
702.00,49.601
703.00,49.802
704.00,49.705
705.00,49.439
706.00,49.585
707.00,49.641
708.00,49.516
709.00,49.892
710.00,50.199
711.00,49.759
712.00,49.695
713.00,49.856
714.00,49.927
715.00,49.912
716.00,49.893
717.00,49.986
718.00,50.152
719.00,50.020
720.00,50.101
721.00,54.693
722.00,54.709
723.00,54.706
724.00,54.661
725.00,54.682
726.00,54.642
727.00,54.645
728.00,54.558
729.00,54.620
730.00,54.623
731.00,54.623
732.00,54.565
733.00,54.633
734.00,54.471
735.00,54.589
736.00,54.573
737.00,54.538
738.00,54.652
739.00,54.532
740.00,54.496
741.00,54.555
742.00,54.552
743.00,54.528
744.00,54.405
745.00,54.433
746.00,54.443
747.00,54.421
748.00,54.375
749.00,54.363
750.00,54.373
751.00,54.256
752.00,54.347
753.00,54.264
754.00,54.211
755.00,54.193
756.00,54.224
757.00,54.198
758.00,54.165
759.00,54.135
760.00,54.133
761.00,54.137
762.00,54.090
763.00,54.177
764.00,54.066
765.00,54.066
766.00,53.979
767.00,54.026
768.00,54.098
769.00,54.020
770.00,53.976
771.00,54.027
772.00,54.022
773.00,53.987
774.00,54.018
775.00,53.988
776.00,53.896
777.00,53.884
778.00,53.889
779.00,53.957
780.00,53.893
781.00,53.891
782.00,53.901
783.00,53.794
784.00,53.889
785.00,53.782
786.00,53.785
787.00,53.793
788.00,53.802
789.00,53.752
790.00,53.639
791.00,53.716
792.00,53.640
793.00,53.522
794.00,53.596
795.00,53.662
796.00,53.548
797.00,53.458
798.00,53.427
799.00,53.438
800.00,53.332
801.00,53.381
802.00,53.334
803.00,53.311
804.00,53.255
805.00,53.269
806.00,53.301
807.00,53.181
808.00,53.292
809.00,53.141
810.00,53.173
811.00,53.137
812.00,53.204
813.00,53.052
814.00,53.049
815.00,53.035
816.00,53.005
817.00,53.063
818.00,52.903
819.00,53.025
820.00,52.879
821.00,52.859
822.00,52.860
823.00,52.803
824.00,52.772
825.00,52.808
826.00,52.775
827.00,52.798
828.00,52.836
829.00,52.731
830.00,52.752
831.00,55.095
832.00,55.062
833.00,55.018
834.00,54.959
835.00,54.967
836.00,54.941
837.00,54.921
838.00,54.896
839.00,54.861
840.00,54.809
841.00,54.827
842.00,54.777
843.00,54.782
844.00,54.729
845.00,54.726
846.00,54.688
847.00,54.668
848.00,54.611
849.00,54.602
850.00,54.559
851.00,54.496
852.00,54.530
853.00,54.427
854.00,54.429
855.00,54.343
856.00,54.349
857.00,54.325
858.00,54.284
859.00,54.243
860.00,54.298
861.00,54.247
862.00,54.186
863.00,54.233
864.00,54.224
865.00,54.204
866.00,54.155
867.00,54.124
868.00,54.123
869.00,54.088
870.00,54.098
871.00,54.053
872.00,54.038
873.00,54.028
874.00,54.027
875.00,53.950
876.00,53.996
877.00,53.990
878.00,53.973
879.00,53.943
880.00,53.962
881.00,53.921
882.00,53.950
883.00,53.863
884.00,53.826
885.00,53.817
886.00,53.798
887.00,53.771
888.00,53.740
889.00,53.722
890.00,53.701
891.00,53.668
892.00,53.635
893.00,53.648
894.00,53.628
895.00,53.589
896.00,53.575
897.00,53.518
898.00,53.498
899.00,53.496
900.00,53.479
901.00,53.461
902.00,53.458
903.00,53.406
904.00,53.418
905.00,53.389
906.00,53.374
907.00,53.303
908.00,53.323
909.00,53.302
910.00,53.265
911.00,53.249
912.00,53.247
913.00,53.208
914.00,53.179
915.00,53.159
916.00,53.139
917.00,53.110
918.00,53.128
919.00,53.056
920.00,53.028
921.00,53.051
922.00,53.035
923.00,53.003
924.00,52.951
925.00,52.964
926.00,52.945
927.00,52.942
928.00,52.898
929.00,52.893
930.00,52.868
931.00,52.856
932.00,52.840
933.00,52.826
934.00,52.813
935.00,52.775
936.00,52.759
937.00,52.735
938.00,52.712
939.00,52.706
940.00,52.663
941.00,52.670
942.00,52.638
943.00,52.622
944.00,52.578
945.00,52.570
946.00,52.585
947.00,52.529
948.00,52.520
949.00,52.487
950.00,52.500
951.00,52.457
952.00,52.440
953.00,52.402
954.00,52.377
955.00,52.332
956.00,52.322
957.00,52.280
958.00,52.294
959.00,52.230
960.00,52.221
961.00,52.197
962.00,52.170
963.00,52.151
964.00,52.159
965.00,52.182
966.00,52.163
967.00,52.134
968.00,52.106
969.00,52.142
970.00,52.083
971.00,52.084
972.00,52.083
973.00,52.098
974.00,52.103
975.00,52.092
976.00,52.103
977.00,52.072
978.00,52.171
979.00,52.187
980.00,52.075
981.00,52.052
982.00,52.043
983.00,52.056
984.00,52.030
985.00,52.053
986.00,52.034
987.00,52.042
988.00,52.007
989.00,52.000
990.00,52.001
991.00,51.975
992.00,51.972
993.00,51.960
994.00,51.937
995.00,51.887
996.00,51.901
997.00,51.899
998.00,51.878
999.00,51.898
1000.00,51.847
1001.00,51.852
1002.00,51.841
1003.00,51.826
1004.00,51.809
1005.00,51.789
1006.00,51.803
1007.00,51.765
1008.00,51.770
1009.00,51.738
1010.00,51.726
1011.00,51.728
1012.00,51.691
1013.00,51.681
1014.00,51.645
1015.00,51.657
1016.00,51.636
1017.00,51.623
1018.00,51.600
1019.00,51.586
1020.00,51.570
1021.00,51.548
1022.00,51.549
1023.00,51.514
1024.00,51.508
1025.00,51.468
1026.00,51.477
1027.00,51.499
1028.00,51.459
1029.00,51.439
1030.00,51.397
1031.00,51.412
1032.00,51.356
1033.00,51.377
1034.00,51.348
1035.00,51.315
1036.00,51.285
1037.00,51.270
1038.00,51.265
1039.00,51.217
1040.00,51.224
1041.00,51.184
1042.00,51.193
1043.00,51.167
1044.00,51.205
1045.00,51.191
1046.00,51.177
1047.00,51.183
1048.00,51.193
1049.00,51.228
1050.00,51.213
1051.00,51.240
1052.00,51.245
1053.00,51.241
1054.00,51.254
1055.00,51.265
1056.00,51.283
1057.00,51.266
1058.00,51.244
1059.00,51.257
1060.00,51.266
1061.00,51.235
1062.00,51.232
1063.00,51.235
1064.00,51.233
1065.00,51.233
1066.00,51.221
1067.00,51.204
1068.00,51.232
1069.00,51.182
1070.00,51.163
1071.00,51.147
1072.00,51.170
1073.00,51.154
1074.00,51.149
1075.00,51.138
1076.00,51.151
1077.00,51.137
1078.00,51.121
1079.00,51.120
1080.00,51.118
1081.00,51.099
1082.00,51.113
1083.00,51.101
1084.00,51.102
1085.00,51.097
1086.00,51.069
1087.00,51.082
1088.00,51.077
1089.00,51.040
1090.00,51.026
1091.00,51.024
1092.00,51.038
1093.00,51.023
1094.00,51.007
1095.00,50.996
1096.00,50.980
1097.00,50.977
1098.00,50.975
1099.00,50.967
1100.00,50.938
1101.00,50.931
1102.00,50.916
1103.00,50.920
1104.00,50.915
1105.00,50.896
1106.00,50.896
1107.00,50.881
1108.00,50.883
1109.00,50.864
1110.00,50.853
1111.00,50.855
1112.00,50.842
1113.00,50.831
1114.00,50.815
1115.00,50.828
1116.00,50.820
1117.00,50.801
1118.00,50.790
1119.00,50.785
1120.00,50.787
1121.00,50.778
1122.00,50.767
1123.00,50.759
1124.00,50.745
1125.00,50.753
1126.00,50.761
1127.00,50.759
1128.00,50.728
1129.00,50.722
1130.00,50.706
1131.00,50.704
1132.00,50.715
1133.00,50.689
1134.00,50.681
1135.00,50.682
1136.00,50.687
1137.00,50.700
1138.00,50.682
1139.00,50.696
1140.00,50.684
1141.00,50.688
1142.00,50.666
1143.00,50.686
1144.00,50.663
1145.00,50.660
1146.00,50.652
1147.00,50.635
1148.00,50.652
1149.00,50.665
1150.00,50.642
1151.00,50.642
1152.00,50.631
1153.00,50.640
1154.00,50.618
1155.00,50.638
1156.00,50.631
1157.00,50.627
1158.00,50.610
1159.00,50.611
1160.00,50.611
1161.00,50.622
1162.00,50.620
1163.00,50.618
1164.00,50.642
1165.00,50.633
1166.00,50.634
1167.00,50.626
1168.00,50.628
1169.00,50.611
1170.00,50.619
1171.00,50.583
1172.00,50.595
1173.00,50.597
1174.00,50.606
1175.00,50.598
1176.00,50.604
1177.00,50.591
1178.00,50.606
1179.00,50.603
1180.00,50.580
1181.00,50.616
1182.00,50.596
1183.00,50.596
1184.00,50.592
1185.00,50.608
1186.00,50.587
1187.00,50.593
1188.00,50.600
1189.00,50.590
1190.00,50.561
1191.00,50.565
1192.00,50.617
1193.00,50.590
1194.00,50.597
1195.00,50.584
1196.00,50.601
1197.00,50.608
1198.00,50.592
1199.00,50.584
1200.00,50.581
1201.00,50.601
1202.00,50.600
1203.00,50.597
1204.00,50.569
1205.00,50.604
1206.00,50.594
1207.00,50.607
1208.00,50.629
1209.00,50.631
1210.00,50.604
1211.00,50.606
1212.00,50.614
1213.00,50.579
1214.00,50.612
1215.00,50.579
1216.00,50.598
1217.00,50.601
1218.00,50.594
1219.00,50.614
1220.00,50.596
1221.00,50.629
1222.00,50.618
1223.00,50.629
1224.00,50.619
1225.00,50.625
1226.00,50.621
1227.00,50.616
1228.00,50.650
1229.00,50.634
1230.00,50.667
1231.00,50.656
1232.00,50.689
1233.00,50.673
1234.00,50.664
1235.00,50.675
1236.00,50.675
1237.00,50.677
1238.00,50.664
1239.00,50.679
1240.00,50.664
1241.00,50.678
1242.00,50.681
1243.00,50.689
1244.00,50.663
1245.00,50.695
1246.00,50.713
1247.00,50.702
1248.00,50.699
1249.00,50.729
1250.00,50.739
1251.00,50.731
1252.00,50.734
1253.00,50.726
1254.00,50.763
1255.00,50.736
1256.00,50.700
1257.00,50.696
1258.00,50.749
1259.00,50.739
1260.00,50.773
1261.00,50.768
1262.00,50.755
1263.00,50.766
1264.00,50.783
1265.00,50.792
1266.00,50.789
1267.00,50.792
1268.00,50.806
1269.00,50.823
1270.00,50.831
1271.00,50.822
1272.00,50.826
1273.00,50.843
1274.00,50.836
1275.00,50.856
1276.00,50.847
1277.00,50.859
1278.00,50.871
1279.00,50.881
1280.00,50.887
1281.00,50.898
1282.00,50.908
1283.00,50.902
1284.00,50.914
1285.00,50.906
1286.00,50.906
1287.00,50.916
1288.00,50.916
1289.00,50.920
1290.00,50.950
1291.00,50.962
1292.00,50.944
1293.00,50.949
1294.00,50.963
1295.00,50.967
1296.00,50.986
1297.00,50.992
1298.00,51.030
1299.00,50.995
1300.00,51.020
1301.00,51.015
1302.00,51.052
1303.00,51.038
1304.00,51.024
1305.00,51.055
1306.00,51.049
1307.00,51.065
1308.00,51.059
1309.00,51.071
1310.00,51.064
1311.00,51.064
1312.00,51.086
1313.00,51.100
1314.00,51.122
1315.00,51.138
1316.00,51.139
1317.00,51.184
1318.00,51.165
1319.00,51.162
1320.00,51.161
1321.00,51.327
1322.00,51.317
1323.00,51.289
1324.00,51.296
1325.00,51.286
1326.00,51.320
1327.00,51.323
1328.00,51.326
1329.00,51.307
1330.00,51.328
1331.00,51.340
1332.00,51.330
1333.00,51.371
1334.00,51.383
1335.00,51.404
1336.00,51.423
1337.00,51.441
1338.00,51.526
1339.00,51.559
1340.00,51.602
1341.00,51.686
1342.00,51.742
1343.00,51.792
1344.00,51.850
1345.00,51.900
1346.00,51.919
1347.00,51.962
1348.00,51.975
1349.00,51.982
1350.00,52.046
1351.00,52.024
1352.00,52.047
1353.00,52.033
1354.00,52.050
1355.00,52.011
1356.00,52.087
1357.00,52.075
1358.00,52.090
1359.00,52.137
1360.00,52.362
1361.00,52.235
1362.00,52.163
1363.00,52.067
1364.00,52.282
1365.00,52.138
1366.00,52.130
1367.00,52.169
1368.00,52.115
1369.00,52.121
1370.00,52.172
1371.00,52.167
1372.00,52.139
1373.00,52.196
1374.00,52.175
1375.00,52.131
1376.00,52.169
1377.00,52.143
1378.00,52.246
1379.00,52.156
1380.00,52.166
1381.00,52.119
1382.00,52.113
1383.00,52.166
1384.00,52.138
1385.00,52.167
1386.00,52.143
1387.00,52.143
1388.00,52.146
1389.00,52.184
1390.00,52.116
1391.00,52.163
1392.00,52.136
1393.00,52.088
1394.00,52.132
1395.00,52.132
1396.00,52.149
1397.00,52.243
1398.00,52.127
1399.00,52.170
1400.00,52.162
1401.00,52.156
1402.00,52.237
1403.00,52.161
1404.00,52.225
1405.00,52.217
1406.00,52.255
1407.00,52.222
1408.00,52.227
1409.00,52.217
1410.00,52.278
1411.00,52.224
1412.00,52.255
1413.00,52.200
1414.00,52.258
1415.00,52.319
1416.00,52.342
1417.00,52.331
1418.00,52.348
1419.00,52.369
1420.00,52.365
1421.00,52.483
1422.00,52.425
1423.00,52.431
1424.00,52.439
1425.00,52.463
1426.00,52.462
1427.00,52.476
1428.00,52.471
1429.00,52.531
1430.00,52.517
1431.00,52.531
1432.00,52.566
1433.00,52.572
1434.00,52.579
1435.00,52.631
1436.00,52.618
1437.00,52.641
1438.00,52.666
1439.00,52.691
1440.00,52.724
1441.00,52.714
1442.00,52.727
1443.00,52.831
1444.00,52.835
1445.00,52.760
1446.00,52.797
1447.00,52.832
1448.00,52.890
1449.00,52.896
1450.00,52.880
1451.00,52.913
1452.00,52.951
1453.00,52.933
1454.00,52.964
1455.00,52.973
1456.00,52.982
1457.00,53.002
1458.00,53.007
1459.00,53.031
1460.00,53.070
1461.00,53.050
1462.00,53.121
1463.00,53.116
1464.00,53.127
1465.00,53.146
1466.00,53.140
1467.00,53.173
1468.00,53.236
1469.00,53.211
1470.00,53.259
1471.00,53.269
1472.00,53.261
1473.00,53.289
1474.00,53.333
1475.00,53.334
1476.00,53.358
1477.00,53.328
1478.00,53.360
1479.00,53.386
1480.00,53.369
1481.00,53.400
1482.00,53.431
1483.00,53.428
1484.00,53.471
1485.00,53.476
1486.00,53.482
1487.00,53.514
1488.00,53.539
1489.00,53.525
1490.00,53.549
1491.00,53.551
1492.00,53.596
1493.00,53.576
1494.00,53.606
1495.00,53.615
1496.00,53.651
1497.00,53.629
1498.00,53.658
1499.00,53.671
1500.00,53.695
1501.00, 
1502.00, 
1503.00, 
1504.00, 
1505.00, 
1506.00, 
1507.00, 
1508.00, 
1509.00, 
1510.00, 
1511.00, 
1512.00, 
1513.00, 
1514.00, 
1515.00, 
1516.00, 
1517.00, 
1518.00, 
1519.00, 
1520.00, 
1521.00, 
1522.00, 
1523.00, 
1524.00, 
1525.00, 
1526.00, 
1527.00, 
1528.00, 
1529.00, 
1530.00, 
1531.00, 
1532.00, 
1533.00, 
1534.00, 
1535.00, 
1536.00, 
1537.00, 
1538.00, 
1539.00, 
1540.00, 
1541.00, 
1542.00, 
1543.00, 
1544.00, 
1545.00, 
1546.00, 
1547.00, 
1548.00, 
1549.00, 
1550.00, 
1551.00, 
1552.00, 
1553.00, 
1554.00, 
1555.00, 
1556.00, 
1557.00, 
1558.00, 
1559.00, 
1560.00, 
1561.00, 
1562.00, 
1563.00, 
1564.00, 
1565.00, 
1566.00, 
1567.00, 
1568.00, 
1569.00, 
1570.00, 
1571.00, 
1572.00, 
1573.00, 
1574.00, 
1575.00, 
1576.00, 
1577.00, 
1578.00, 
1579.00, 
1580.00, 
1581.00, 
1582.00, 
1583.00, 
1584.00, 
1585.00, 
1586.00, 
1587.00, 
1588.00, 
1589.00, 
1590.00, 
1591.00, 
1592.00, 
1593.00, 
1594.00, 
1595.00, 
1596.00, 
1597.00, 
1598.00, 
1599.00, 
1600.00, 
1601.00, 
1602.00, 
1603.00, 
1604.00, 
1605.00, 
1606.00, 
1607.00, 
1608.00, 
1609.00, 
1610.00, 
1611.00, 
1612.00, 
1613.00, 
1614.00, 
1615.00, 
1616.00, 
1617.00, 
1618.00, 
1619.00, 
1620.00, 
1621.00, 
1622.00, 
1623.00, 
1624.00, 
1625.00, 
1626.00, 
1627.00, 
1628.00, 
1629.00, 
1630.00, 
1631.00, 
1632.00, 
1633.00, 
1634.00, 
1635.00, 
1636.00, 
1637.00, 
1638.00, 
1639.00, 
1640.00, 
1641.00, 
1642.00, 
1643.00, 
1644.00, 
1645.00, 
1646.00, 
1647.00, 
1648.00, 
1649.00, 
1650.00, 
1651.00, 
1652.00, 
1653.00, 
1654.00, 
1655.00, 
1656.00, 
1657.00, 
1658.00, 
1659.00, 
1660.00, 
1661.00, 
1662.00, 
1663.00, 
1664.00, 
1665.00, 
1666.00, 
1667.00, 
1668.00, 
1669.00, 
1670.00, 
1671.00, 
1672.00, 
1673.00, 
1674.00, 
1675.00, 
1676.00, 
1677.00, 
1678.00, 
1679.00, 
1680.00, 
1681.00, 
1682.00, 
1683.00, 
1684.00, 
1685.00, 
1686.00, 
1687.00, 
1688.00, 
1689.00, 
1690.00, 
1691.00, 
1692.00, 
1693.00, 
1694.00, 
1695.00, 
1696.00, 
1697.00, 
1698.00, 
1699.00, 
1700.00, 
1701.00, 
1702.00, 
1703.00, 
1704.00, 
1705.00, 
1706.00, 
1707.00, 
1708.00, 
1709.00, 
1710.00, 
1711.00, 
1712.00, 
1713.00, 
1714.00, 
1715.00, 
1716.00, 
1717.00, 
1718.00, 
1719.00, 
1720.00, 
1721.00, 
1722.00, 
1723.00, 
1724.00, 
1725.00, 
1726.00, 
1727.00, 
1728.00, 
1729.00, 
1730.00, 
1731.00, 
1732.00, 
1733.00, 
1734.00, 
1735.00, 
1736.00, 
1737.00, 
1738.00, 
1739.00, 
1740.00, 
1741.00, 
1742.00, 
1743.00, 
1744.00, 
1745.00, 
1746.00, 
1747.00, 
1748.00, 
1749.00, 
1750.00, 
1751.00, 
1752.00, 
1753.00, 
1754.00, 
1755.00, 
1756.00, 
1757.00, 
1758.00, 
1759.00, 
1760.00, 
1761.00, 
1762.00, 
1763.00, 
1764.00, 
1765.00, 
1766.00, 
1767.00, 
1768.00, 
1769.00, 
1770.00, 
1771.00, 
1772.00, 
1773.00, 
1774.00, 
1775.00, 
1776.00, 
1777.00, 
1778.00, 
1779.00, 
1780.00, 
1781.00, 
1782.00, 
1783.00, 
1784.00, 
1785.00, 
1786.00, 
1787.00, 
1788.00, 
1789.00, 
1790.00, 
1791.00, 
1792.00, 
1793.00, 
1794.00, 
1795.00, 
1796.00, 
1797.00, 
1798.00, 
1799.00, 
1800.00, 
1801.00, 
1802.00, 
1803.00, 
1804.00, 
1805.00, 
1806.00, 
1807.00, 
1808.00, 
1809.00, 
1810.00, 
1811.00, 
1812.00, 
1813.00, 
1814.00, 
1815.00, 
1816.00, 
1817.00, 
1818.00, 
1819.00, 
1820.00, 
1821.00, 
1822.00, 
1823.00, 
1824.00, 
1825.00, 
1826.00, 
1827.00, 
1828.00, 
1829.00, 
1830.00, 
1831.00, 
1832.00, 
1833.00, 
1834.00, 
1835.00, 
1836.00, 
1837.00, 
1838.00, 
1839.00, 
1840.00, 
1841.00, 
1842.00, 
1843.00, 
1844.00, 
1845.00, 
1846.00, 
1847.00, 
1848.00, 
1849.00, 
1850.00, 
1851.00, 
1852.00, 
1853.00, 
1854.00, 
1855.00, 
1856.00, 
1857.00, 
1858.00, 
1859.00, 
1860.00, 
1861.00, 
1862.00, 
1863.00, 
1864.00, 
1865.00, 
1866.00, 
1867.00, 
1868.00, 
1869.00, 
1870.00, 
1871.00, 
1872.00, 
1873.00, 
1874.00, 
1875.00, 
1876.00, 
1877.00, 
1878.00, 
1879.00, 
1880.00, 
1881.00, 
1882.00, 
1883.00, 
1884.00, 
1885.00, 
1886.00, 
1887.00, 
1888.00, 
1889.00, 
1890.00, 
1891.00, 
1892.00, 
1893.00, 
1894.00, 
1895.00, 
1896.00, 
1897.00, 
1898.00, 
1899.00, 
1900.00, 
1901.00, 
1902.00, 
1903.00, 
1904.00, 
1905.00, 
1906.00, 
1907.00, 
1908.00, 
1909.00, 
1910.00, 
1911.00, 
1912.00, 
1913.00, 
1914.00, 
1915.00, 
1916.00, 
1917.00, 
1918.00, 
1919.00, 
1920.00, 
1921.00, 
1922.00, 
1923.00, 
1924.00, 
1925.00, 
1926.00, 
1927.00, 
1928.00, 
1929.00, 
1930.00, 
1931.00, 
1932.00, 
1933.00, 
1934.00, 
1935.00, 
1936.00, 
1937.00, 
1938.00, 
1939.00, 
1940.00, 
1941.00, 
1942.00, 
1943.00, 
1944.00, 
1945.00, 
1946.00, 
1947.00, 
1948.00, 
1949.00, 
1950.00, 
1951.00, 
1952.00, 
1953.00, 
1954.00, 
1955.00, 
1956.00, 
1957.00, 
1958.00, 
1959.00, 
1960.00, 
1961.00, 
1962.00, 
1963.00, 
1964.00, 
1965.00, 
1966.00, 
1967.00, 
1968.00, 
1969.00, 
1970.00, 
1971.00, 
1972.00, 
1973.00, 
1974.00, 
1975.00, 
1976.00, 
1977.00, 
1978.00, 
1979.00, 
1980.00, 
1981.00, 
1982.00, 
1983.00, 
1984.00, 
1985.00, 
1986.00, 
1987.00, 
1988.00, 
1989.00, 
1990.00, 
1991.00, 
1992.00, 
1993.00, 
1994.00, 
1995.00, 
1996.00, 
1997.00, 
1998.00, 
1999.00, 
2000.00, 
2001.00, 
2002.00, 
2003.00, 
2004.00, 
2005.00, 
2006.00, 
2007.00, 
2008.00, 
2009.00, 
2010.00, 
2011.00, 
2012.00, 
2013.00, 
2014.00, 
2015.00, 
2016.00, 
2017.00, 
2018.00, 
2019.00, 
2020.00, 
2021.00, 
2022.00, 
2023.00, 
2024.00, 
2025.00, 
2026.00, 
2027.00, 
2028.00, 
2029.00, 
2030.00, 
2031.00, 
2032.00, 
2033.00, 
2034.00, 
2035.00, 
2036.00, 
2037.00, 
2038.00, 
2039.00, 
2040.00, 
2041.00, 
2042.00, 
2043.00, 
2044.00, 
2045.00, 
2046.00, 
2047.00, 
2048.00, 
2049.00, 
2050.00, 
2051.00, 
2052.00, 
2053.00, 
2054.00, 
2055.00, 
2056.00, 
2057.00, 
2058.00, 
2059.00, 
2060.00, 
2061.00, 
2062.00, 
2063.00, 
2064.00, 
2065.00, 
2066.00, 
2067.00, 
2068.00, 
2069.00, 
2070.00, 
2071.00, 
2072.00, 
2073.00, 
2074.00, 
2075.00, 
2076.00, 
2077.00, 
2078.00, 
2079.00, 
2080.00, 
2081.00, 
2082.00, 
2083.00, 
2084.00, 
2085.00, 
2086.00, 
2087.00, 
2088.00, 
2089.00, 
2090.00, 
2091.00, 
2092.00, 
2093.00, 
2094.00, 
2095.00, 
2096.00, 
2097.00, 
2098.00, 
2099.00, 
2100.00, 
2101.00, 
2102.00, 
2103.00, 
2104.00, 
2105.00, 
2106.00, 
2107.00, 
2108.00, 
2109.00, 
2110.00, 
2111.00, 
2112.00, 
2113.00, 
2114.00, 
2115.00, 
2116.00, 
2117.00, 
2118.00, 
2119.00, 
2120.00, 
2121.00, 
2122.00, 
2123.00, 
2124.00, 
2125.00, 
2126.00, 
2127.00, 
2128.00, 
2129.00, 
2130.00, 
2131.00, 
2132.00, 
2133.00, 
2134.00, 
2135.00, 
2136.00, 
2137.00, 
2138.00, 
2139.00, 
2140.00, 
2141.00, 
2142.00, 
2143.00, 
2144.00, 
2145.00, 
2146.00, 
2147.00, 
2148.00, 
2149.00, 
2150.00, 
2151.00, 
2152.00, 
2153.00, 
2154.00, 
2155.00, 
2156.00, 
2157.00, 
2158.00, 
2159.00, 
2160.00, 
2161.00, 
2162.00, 
2163.00, 
2164.00, 
2165.00, 
2166.00, 
2167.00, 
2168.00, 
2169.00, 
2170.00, 
2171.00, 
2172.00, 
2173.00, 
2174.00, 
2175.00, 
2176.00, 
2177.00, 
2178.00, 
2179.00, 
2180.00, 
2181.00, 
2182.00, 
2183.00, 
2184.00, 
2185.00, 
2186.00, 
2187.00, 
2188.00, 
2189.00, 
2190.00, 
2191.00, 
2192.00, 
2193.00, 
2194.00, 
2195.00, 
2196.00, 
2197.00, 
2198.00, 
2199.00, 
2200.00, 
2201.00, 
2202.00, 
2203.00, 
2204.00, 
2205.00, 
2206.00, 
2207.00, 
2208.00, 
2209.00, 
2210.00, 
2211.00, 
2212.00, 
2213.00, 
2214.00, 
2215.00, 
2216.00, 
2217.00, 
2218.00, 
2219.00, 
2220.00, 
2221.00, 
2222.00, 
2223.00, 
2224.00, 
2225.00, 
2226.00, 
2227.00, 
2228.00, 
2229.00, 
2230.00, 
2231.00, 
2232.00, 
2233.00, 
2234.00, 
2235.00, 
2236.00, 
2237.00, 
2238.00, 
2239.00, 
2240.00, 
2241.00, 
2242.00, 
2243.00, 
2244.00, 
2245.00, 
2246.00, 
2247.00, 
2248.00, 
2249.00, 
2250.00, 
2251.00, 
2252.00, 
2253.00, 
2254.00, 
2255.00, 
2256.00, 
2257.00, 
2258.00, 
2259.00, 
2260.00, 
2261.00, 
2262.00, 
2263.00, 
2264.00, 
2265.00, 
2266.00, 
2267.00, 
2268.00, 
2269.00, 
2270.00, 
2271.00, 
2272.00, 
2273.00, 
2274.00, 
2275.00, 
2276.00, 
2277.00, 
2278.00, 
2279.00, 
2280.00, 
2281.00, 
2282.00, 
2283.00, 
2284.00, 
2285.00, 
2286.00, 
2287.00, 
2288.00, 
2289.00, 
2290.00, 
2291.00, 
2292.00, 
2293.00, 
2294.00, 
2295.00, 
2296.00, 
2297.00, 
2298.00, 
2299.00, 
2300.00, 
2301.00, 
2302.00, 
2303.00, 
2304.00, 
2305.00, 
2306.00, 
2307.00, 
2308.00, 
2309.00, 
2310.00, 
2311.00, 
2312.00, 
2313.00, 
2314.00, 
2315.00, 
2316.00, 
2317.00, 
2318.00, 
2319.00, 
2320.00, 
2321.00, 
2322.00, 
2323.00, 
2324.00, 
2325.00, 
2326.00, 
2327.00, 
2328.00, 
2329.00, 
2330.00, 
2331.00, 
2332.00, 
2333.00, 
2334.00, 
2335.00, 
2336.00, 
2337.00, 
2338.00, 
2339.00, 
2340.00, 
2341.00, 
2342.00, 
2343.00, 
2344.00, 
2345.00, 
2346.00, 
2347.00, 
2348.00, 
2349.00, 
2350.00, 
2351.00, 
2352.00, 
2353.00, 
2354.00, 
2355.00, 
2356.00, 
2357.00, 
2358.00, 
2359.00, 
2360.00, 
2361.00, 
2362.00, 
2363.00, 
2364.00, 
2365.00, 
2366.00, 
2367.00, 
2368.00, 
2369.00, 
2370.00, 
2371.00, 
2372.00, 
2373.00, 
2374.00, 
2375.00, 
2376.00, 
2377.00, 
2378.00, 
2379.00, 
2380.00, 
2381.00, 
2382.00, 
2383.00, 
2384.00, 
2385.00, 
2386.00, 
2387.00, 
2388.00, 
2389.00, 
2390.00, 
2391.00, 
2392.00, 
2393.00, 
2394.00, 
2395.00, 
2396.00, 
2397.00, 
2398.00, 
2399.00, 
2400.00, 
2401.00, 
2402.00, 
2403.00, 
2404.00, 
2405.00, 
2406.00, 
2407.00, 
2408.00, 
2409.00, 
2410.00, 
2411.00, 
2412.00, 
2413.00, 
2414.00, 
2415.00, 
2416.00, 
2417.00, 
2418.00, 
2419.00, 
2420.00, 
2421.00, 
2422.00, 
2423.00, 
2424.00, 
2425.00, 
2426.00, 
2427.00, 
2428.00, 
2429.00, 
2430.00, 
2431.00, 
2432.00, 
2433.00, 
2434.00, 
2435.00, 
2436.00, 
2437.00, 
2438.00, 
2439.00, 
2440.00, 
2441.00, 
2442.00, 
2443.00, 
2444.00, 
2445.00, 
2446.00, 
2447.00, 
2448.00, 
2449.00, 
2450.00, 
2451.00, 
2452.00, 
2453.00, 
2454.00, 
2455.00, 
2456.00, 
2457.00, 
2458.00, 
2459.00, 
2460.00, 
2461.00, 
2462.00, 
2463.00, 
2464.00, 
2465.00, 
2466.00, 
2467.00, 
2468.00, 
2469.00, 
2470.00, 
2471.00, 
2472.00, 
2473.00, 
2474.00, 
2475.00, 
2476.00, 
2477.00, 
2478.00, 
2479.00, 
2480.00, 
2481.00, 
2482.00, 
2483.00, 
2484.00, 
2485.00, 
2486.00, 
2487.00, 
2488.00, 
2489.00, 
2490.00, 
2491.00, 
2492.00, 
2493.00, 
2494.00, 
2495.00, 
2496.00, 
2497.00, 
2498.00, 
2499.00, 
2500.00, 
2501.00, 
2502.00, 
2503.00, 
2504.00, 
2505.00, 
2506.00, 
2507.00, 
2508.00, 
2509.00, 
2510.00, 
2511.00, 
2512.00, 
2513.00, 
2514.00, 
2515.00, 
2516.00, 
2517.00, 
2518.00, 
2519.00, 
2520.00, 
2521.00, 
2522.00, 
2523.00, 
2524.00, 
2525.00, 
2526.00, 
2527.00, 
2528.00, 
2529.00, 
2530.00, 
2531.00, 
2532.00, 
2533.00, 
2534.00, 
2535.00, 
2536.00, 
2537.00, 
2538.00, 
2539.00, 
2540.00, 
2541.00, 
2542.00, 
2543.00, 
2544.00, 
2545.00, 
2546.00, 
2547.00, 
2548.00, 
2549.00, 
2550.00, 
2551.00, 
2552.00, 
2553.00, 
2554.00, 
2555.00, 
2556.00, 
2557.00, 
2558.00, 
2559.00, 
2560.00, 
2561.00, 
2562.00, 
2563.00, 
2564.00, 
2565.00, 
2566.00, 
2567.00, 
2568.00, 
2569.00, 
2570.00, 
2571.00, 
2572.00, 
2573.00, 
2574.00, 
2575.00, 
2576.00, 
2577.00, 
2578.00, 
2579.00, 
2580.00, 
2581.00, 
2582.00, 
2583.00, 
2584.00, 
2585.00, 
2586.00, 
2587.00, 
2588.00, 
2589.00, 
2590.00, 
2591.00, 
2592.00, 
2593.00, 
2594.00, 
2595.00, 
2596.00, 
2597.00, 
2598.00, 
2599.00, 
2600.00, 
