"1cP5 - RawData"
"Wavelength nm.","T%"
200.00,0.004
201.00,0.001
202.00,0.004
203.00,0.004
204.00,0.001
205.00,0.002
206.00,0.005
207.00,0.002
208.00,-0.001
209.00,-0.001
210.00,-0.001
211.00,-0.001
212.00,0.001
213.00,0.001
214.00,0.001
215.00,0.000
216.00,0.002
217.00,-0.000
218.00,0.002
219.00,0.002
220.00,0.001
221.00,-0.002
222.00,0.002
223.00,-0.000
224.00,-0.000
225.00,0.001
226.00,0.002
227.00,0.001
228.00,0.001
229.00,-0.001
230.00,0.001
231.00,0.000
232.00,0.001
233.00,-0.001
234.00,0.000
235.00,0.000
236.00,0.000
237.00,0.001
238.00,0.000
239.00,-0.000
240.00,-0.001
241.00,-0.000
242.00,-0.001
243.00,0.001
244.00,0.002
245.00,0.000
246.00,0.002
247.00,0.001
248.00,-0.001
249.00,0.001
250.00,0.002
251.00,0.002
252.00,0.000
253.00,0.000
254.00,0.000
255.00,0.000
256.00,0.001
257.00,0.001
258.00,0.001
259.00,-0.000
260.00,-0.000
261.00,0.002
262.00,-0.001
263.00,-0.001
264.00,-0.000
265.00,0.000
266.00,-0.000
267.00,0.002
268.00,0.002
269.00,-0.001
270.00,0.001
271.00,0.001
272.00,0.001
273.00,0.000
274.00,0.001
275.00,0.000
276.00,0.002
277.00,0.000
278.00,-0.000
279.00,0.001
280.00,0.001
281.00,0.001
282.00,-0.001
283.00,-0.001
284.00,-0.000
285.00,0.001
286.00,0.002
287.00,-0.001
288.00,-0.001
289.00,0.002
290.00,-0.000
291.00,-0.003
292.00,-0.002
293.00,0.002
294.00,0.000
295.00,0.000
296.00,0.002
297.00,0.000
298.00,0.001
299.00,0.000
300.00,-0.001
301.00,-0.001
302.00,-0.000
303.00,0.001
304.00,-0.001
305.00,0.000
306.00,0.002
307.00,0.003
308.00,0.007
309.00,0.012
310.00,0.017
311.00,0.023
312.00,0.044
313.00,0.066
314.00,0.095
315.00,0.145
316.00,0.205
317.00,0.292
318.00,0.388
319.00,0.507
320.00,0.700
321.00,0.911
322.00,1.161
323.00,1.467
324.00,1.815
325.00,2.186
326.00,2.589
327.00,3.075
328.00,3.579
329.00,4.149
330.00,4.748
331.00,5.366
332.00,6.059
333.00,6.756
334.00,7.475
335.00,8.186
336.00,8.911
337.00,9.682
338.00,10.426
339.00,11.097
340.00,11.836
341.00,12.577
342.00,13.281
343.00,13.884
344.00,14.530
345.00,15.219
346.00,15.785
347.00,16.319
348.00,16.836
349.00,17.362
350.00,17.802
351.00,18.270
352.00,18.667
353.00,19.056
354.00,19.430
355.00,19.780
356.00,20.091
357.00,20.378
358.00,20.614
359.00,20.976
360.00,21.191
361.00,21.427
362.00,21.631
363.00,21.793
364.00,21.879
365.00,22.038
366.00,22.182
367.00,22.264
368.00,22.314
369.00,22.360
370.00,22.430
371.00,22.459
372.00,22.410
373.00,22.433
374.00,22.402
375.00,22.413
376.00,22.257
377.00,22.224
378.00,22.121
379.00,22.017
380.00,21.981
381.00,22.036
382.00,22.015
383.00,21.999
384.00,22.070
385.00,22.168
386.00,22.187
387.00,22.285
388.00,22.398
389.00,22.402
390.00,22.468
391.00,22.506
392.00,22.551
393.00,22.556
394.00,22.607
395.00,22.680
396.00,22.650
397.00,22.670
398.00,22.682
399.00,22.635
400.00,22.690
401.00,22.666
402.00,22.662
403.00,22.651
404.00,22.639
405.00,22.661
406.00,22.611
407.00,22.568
408.00,22.563
409.00,22.476
410.00,22.457
411.00,22.451
412.00,22.407
413.00,22.464
414.00,22.413
415.00,22.399
416.00,22.494
417.00,22.487
418.00,22.479
419.00,22.580
420.00,22.582
421.00,22.568
422.00,22.604
423.00,22.655
424.00,22.688
425.00,22.730
426.00,22.750
427.00,22.799
428.00,22.849
429.00,22.878
430.00,22.941
431.00,22.995
432.00,23.018
433.00,23.084
434.00,23.134
435.00,23.217
436.00,23.264
437.00,23.344
438.00,23.394
439.00,23.447
440.00,23.555
441.00,23.619
442.00,23.693
443.00,23.726
444.00,23.854
445.00,23.894
446.00,24.042
447.00,24.133
448.00,24.258
449.00,24.365
450.00,24.482
451.00,24.550
452.00,24.661
453.00,24.820
454.00,24.870
455.00,24.998
456.00,25.131
457.00,25.229
458.00,25.334
459.00,25.494
460.00,25.595
461.00,25.746
462.00,25.868
463.00,26.004
464.00,26.135
465.00,26.245
466.00,26.423
467.00,26.552
468.00,26.618
469.00,26.759
470.00,26.830
471.00,26.931
472.00,27.083
473.00,27.140
474.00,27.290
475.00,27.376
476.00,27.506
477.00,27.633
478.00,27.763
479.00,27.944
480.00,28.054
481.00,28.181
482.00,28.344
483.00,28.511
484.00,28.675
485.00,28.802
486.00,28.953
487.00,29.153
488.00,29.246
489.00,29.398
490.00,29.520
491.00,29.664
492.00,29.928
493.00,30.065
494.00,30.085
495.00,30.238
496.00,30.374
497.00,30.466
498.00,30.585
499.00,30.765
500.00,30.941
501.00,30.984
502.00,31.132
503.00,31.301
504.00,31.351
505.00,31.441
506.00,31.582
507.00,31.665
508.00,31.789
509.00,32.016
510.00,32.096
511.00,32.095
512.00,32.338
513.00,32.545
514.00,32.554
515.00,32.670
516.00,32.828
517.00,32.811
518.00,33.091
519.00,33.096
520.00,33.164
521.00,33.271
522.00,33.351
523.00,33.422
524.00,33.497
525.00,33.603
526.00,33.725
527.00,33.799
528.00,33.894
529.00,34.026
530.00,34.221
531.00,34.348
532.00,34.411
533.00,34.502
534.00,34.623
535.00,34.705
536.00,34.750
537.00,34.808
538.00,34.894
539.00,34.893
540.00,35.029
541.00,35.080
542.00,35.068
543.00,35.095
544.00,35.240
545.00,35.366
546.00,35.378
547.00,35.514
548.00,35.604
549.00,35.644
550.00,35.699
551.00,35.826
552.00,35.873
553.00,35.950
554.00,35.938
555.00,35.989
556.00,36.090
557.00,36.171
558.00,36.216
559.00,36.303
560.00,36.344
561.00,36.452
562.00,36.462
563.00,36.511
564.00,36.510
565.00,36.563
566.00,36.592
567.00,36.611
568.00,36.677
569.00,36.708
570.00,36.697
571.00,36.822
572.00,36.822
573.00,36.732
574.00,36.753
575.00,36.866
576.00,36.800
577.00,36.902
578.00,37.054
579.00,37.062
580.00,37.109
581.00,37.299
582.00,37.309
583.00,37.303
584.00,37.389
585.00,37.428
586.00,37.537
587.00,37.629
588.00,37.551
589.00,37.420
590.00,37.575
591.00,37.690
592.00,37.623
593.00,37.686
594.00,37.793
595.00,37.885
596.00,37.881
597.00,37.967
598.00,38.074
599.00,38.031
600.00,38.102
601.00,38.171
602.00,38.129
603.00,38.108
604.00,38.170
605.00,38.223
606.00,38.236
607.00,38.265
608.00,38.432
609.00,38.515
610.00,38.302
611.00,38.493
612.00,38.557
613.00,38.581
614.00,38.623
615.00,38.682
616.00,38.795
617.00,38.777
618.00,38.747
619.00,38.836
620.00,38.841
621.00,38.956
622.00,39.004
623.00,39.084
624.00,39.162
625.00,39.215
626.00,39.278
627.00,39.292
628.00,39.292
629.00,39.345
630.00,39.336
631.00,39.294
632.00,39.534
633.00,39.705
634.00,39.749
635.00,39.862
636.00,39.920
637.00,39.888
638.00,39.944
639.00,40.064
640.00,40.084
641.00,40.131
642.00,40.197
643.00,40.271
644.00,40.326
645.00,40.373
646.00,40.609
647.00,40.609
648.00,40.594
649.00,40.656
650.00,40.655
651.00,40.842
652.00,40.842
653.00,40.898
654.00,40.944
655.00,41.086
656.00,41.508
657.00,41.303
658.00,41.462
659.00,41.493
660.00,41.568
661.00,41.603
662.00,41.617
663.00,41.818
664.00,41.920
665.00,42.203
666.00,42.223
667.00,42.230
668.00,42.402
669.00,42.423
670.00,42.699
671.00,42.668
672.00,42.622
673.00,42.783
674.00,42.851
675.00,42.896
676.00,43.117
677.00,43.301
678.00,43.037
679.00,43.279
680.00,43.338
681.00,43.577
682.00,43.603
683.00,43.608
684.00,43.713
685.00,43.774
686.00,43.631
687.00,43.876
688.00,44.029
689.00,43.952
690.00,44.257
691.00,44.510
692.00,44.312
693.00,44.252
694.00,44.465
695.00,44.668
696.00,44.744
697.00,44.754
698.00,44.793
699.00,44.920
700.00,45.009
701.00,45.032
702.00,45.191
703.00,45.414
704.00,45.348
705.00,45.225
706.00,45.370
707.00,45.478
708.00,45.345
709.00,45.771
710.00,46.081
711.00,45.739
712.00,45.791
713.00,45.916
714.00,45.981
715.00,45.993
716.00,45.984
717.00,46.216
718.00,46.413
719.00,46.314
720.00,46.442
721.00,50.783
722.00,50.778
723.00,50.825
724.00,50.819
725.00,50.864
726.00,50.862
727.00,50.891
728.00,50.948
729.00,50.944
730.00,51.011
731.00,51.060
732.00,51.080
733.00,51.177
734.00,51.140
735.00,51.238
736.00,51.190
737.00,51.135
738.00,51.226
739.00,51.221
740.00,51.324
741.00,51.361
742.00,51.392
743.00,51.373
744.00,51.337
745.00,51.424
746.00,51.407
747.00,51.333
748.00,51.343
749.00,51.396
750.00,51.329
751.00,51.301
752.00,51.453
753.00,51.410
754.00,51.379
755.00,51.383
756.00,51.421
757.00,51.454
758.00,51.466
759.00,51.439
760.00,51.456
761.00,51.452
762.00,51.409
763.00,51.598
764.00,51.525
765.00,51.499
766.00,51.412
767.00,51.559
768.00,51.528
769.00,51.481
770.00,51.586
771.00,51.592
772.00,51.562
773.00,51.523
774.00,51.589
775.00,51.641
776.00,51.536
777.00,51.567
778.00,51.568
779.00,51.600
780.00,51.613
781.00,51.614
782.00,51.621
783.00,51.495
784.00,51.609
785.00,51.579
786.00,51.660
787.00,51.572
788.00,51.591
789.00,51.544
790.00,51.511
791.00,51.571
792.00,51.491
793.00,51.454
794.00,51.436
795.00,51.538
796.00,51.535
797.00,51.394
798.00,51.467
799.00,51.398
800.00,51.413
801.00,51.394
802.00,51.376
803.00,51.368
804.00,51.312
805.00,51.401
806.00,51.318
807.00,51.235
808.00,51.282
809.00,51.282
810.00,51.260
811.00,51.292
812.00,51.358
813.00,51.242
814.00,51.260
815.00,51.246
816.00,51.251
817.00,51.220
818.00,51.113
819.00,51.167
820.00,51.086
821.00,51.102
822.00,51.139
823.00,50.987
824.00,51.006
825.00,51.014
826.00,50.982
827.00,51.063
828.00,51.213
829.00,50.990
830.00,51.105
831.00,53.379
832.00,53.302
833.00,53.260
834.00,53.263
835.00,53.241
836.00,53.263
837.00,53.199
838.00,53.198
839.00,53.193
840.00,53.128
841.00,53.152
842.00,53.122
843.00,53.155
844.00,53.115
845.00,53.085
846.00,53.057
847.00,53.047
848.00,52.993
849.00,52.949
850.00,52.913
851.00,52.893
852.00,52.919
853.00,52.865
854.00,52.838
855.00,52.777
856.00,52.795
857.00,52.778
858.00,52.724
859.00,52.717
860.00,52.737
861.00,52.696
862.00,52.648
863.00,52.682
864.00,52.701
865.00,52.666
866.00,52.608
867.00,52.582
868.00,52.554
869.00,52.567
870.00,52.572
871.00,52.532
872.00,52.510
873.00,52.536
874.00,52.538
875.00,52.483
876.00,52.510
877.00,52.549
878.00,52.565
879.00,52.641
880.00,52.476
881.00,52.450
882.00,52.488
883.00,52.407
884.00,52.381
885.00,52.362
886.00,52.352
887.00,52.318
888.00,52.305
889.00,52.288
890.00,52.265
891.00,52.243
892.00,52.226
893.00,52.236
894.00,52.208
895.00,52.173
896.00,52.153
897.00,52.129
898.00,52.100
899.00,52.084
900.00,52.088
901.00,52.059
902.00,52.054
903.00,52.015
904.00,52.028
905.00,52.028
906.00,52.010
907.00,51.898
908.00,51.935
909.00,51.930
910.00,51.915
911.00,51.904
912.00,51.887
913.00,51.833
914.00,51.815
915.00,51.810
916.00,51.798
917.00,51.761
918.00,51.759
919.00,51.707
920.00,51.686
921.00,51.717
922.00,51.685
923.00,51.655
924.00,51.616
925.00,51.633
926.00,51.609
927.00,51.595
928.00,51.557
929.00,51.578
930.00,51.535
931.00,51.505
932.00,51.489
933.00,51.495
934.00,51.486
935.00,51.452
936.00,51.431
937.00,51.401
938.00,51.378
939.00,51.393
940.00,51.351
941.00,51.354
942.00,51.311
943.00,51.317
944.00,51.277
945.00,51.274
946.00,51.259
947.00,51.212
948.00,51.201
949.00,51.203
950.00,51.175
951.00,51.143
952.00,51.123
953.00,51.101
954.00,51.079
955.00,51.032
956.00,51.029
957.00,50.985
958.00,51.005
959.00,50.946
960.00,50.953
961.00,50.934
962.00,50.933
963.00,50.887
964.00,50.894
965.00,50.941
966.00,50.853
967.00,50.867
968.00,50.846
969.00,50.870
970.00,50.828
971.00,50.846
972.00,50.825
973.00,50.859
974.00,50.862
975.00,50.822
976.00,50.843
977.00,50.832
978.00,50.873
979.00,50.828
980.00,50.844
981.00,50.831
982.00,50.829
983.00,50.847
984.00,50.820
985.00,50.838
986.00,50.797
987.00,50.814
988.00,50.773
989.00,50.770
990.00,50.766
991.00,50.732
992.00,50.743
993.00,50.725
994.00,50.720
995.00,50.699
996.00,50.698
997.00,50.671
998.00,50.650
999.00,50.662
1000.00,50.622
1001.00,50.627
1002.00,50.621
1003.00,50.604
1004.00,50.583
1005.00,50.561
1006.00,50.592
1007.00,50.553
1008.00,50.548
1009.00,50.526
1010.00,50.526
1011.00,50.517
1012.00,50.509
1013.00,50.491
1014.00,50.454
1015.00,50.472
1016.00,50.443
1017.00,50.422
1018.00,50.393
1019.00,50.378
1020.00,50.378
1021.00,50.349
1022.00,50.337
1023.00,50.315
1024.00,50.293
1025.00,50.250
1026.00,50.278
1027.00,50.251
1028.00,50.260
1029.00,50.244
1030.00,50.195
1031.00,50.222
1032.00,50.161
1033.00,50.166
1034.00,50.143
1035.00,50.113
1036.00,50.088
1037.00,50.081
1038.00,50.077
1039.00,50.039
1040.00,50.051
1041.00,49.992
1042.00,49.993
1043.00,49.962
1044.00,49.995
1045.00,49.989
1046.00,49.968
1047.00,49.988
1048.00,50.011
1049.00,50.036
1050.00,50.025
1051.00,50.055
1052.00,50.055
1053.00,50.063
1054.00,50.057
1055.00,50.067
1056.00,50.087
1057.00,50.083
1058.00,50.062
1059.00,50.078
1060.00,50.083
1061.00,50.064
1062.00,50.057
1063.00,50.057
1064.00,50.069
1065.00,50.063
1066.00,50.063
1067.00,50.039
1068.00,50.062
1069.00,50.032
1070.00,50.006
1071.00,49.986
1072.00,50.030
1073.00,49.988
1074.00,49.974
1075.00,49.964
1076.00,49.971
1077.00,49.958
1078.00,49.938
1079.00,49.946
1080.00,49.945
1081.00,49.927
1082.00,49.926
1083.00,49.914
1084.00,49.903
1085.00,49.897
1086.00,49.880
1087.00,49.894
1088.00,49.855
1089.00,49.858
1090.00,49.856
1091.00,49.836
1092.00,49.847
1093.00,49.830
1094.00,49.822
1095.00,49.792
1096.00,49.783
1097.00,49.788
1098.00,49.774
1099.00,49.771
1100.00,49.773
1101.00,49.760
1102.00,49.741
1103.00,49.759
1104.00,49.750
1105.00,49.731
1106.00,49.716
1107.00,49.699
1108.00,49.699
1109.00,49.672
1110.00,49.673
1111.00,49.684
1112.00,49.661
1113.00,49.656
1114.00,49.656
1115.00,49.661
1116.00,49.653
1117.00,49.633
1118.00,49.625
1119.00,49.614
1120.00,49.603
1121.00,49.596
1122.00,49.597
1123.00,49.588
1124.00,49.577
1125.00,49.595
1126.00,49.592
1127.00,49.594
1128.00,49.559
1129.00,49.561
1130.00,49.544
1131.00,49.531
1132.00,49.536
1133.00,49.500
1134.00,49.505
1135.00,49.516
1136.00,49.523
1137.00,49.526
1138.00,49.529
1139.00,49.533
1140.00,49.517
1141.00,49.516
1142.00,49.486
1143.00,49.507
1144.00,49.470
1145.00,49.472
1146.00,49.468
1147.00,49.464
1148.00,49.467
1149.00,49.468
1150.00,49.468
1151.00,49.462
1152.00,49.456
1153.00,49.460
1154.00,49.456
1155.00,49.478
1156.00,49.469
1157.00,49.482
1158.00,49.481
1159.00,49.483
1160.00,49.477
1161.00,49.474
1162.00,49.450
1163.00,49.435
1164.00,49.455
1165.00,49.450
1166.00,49.466
1167.00,49.456
1168.00,49.466
1169.00,49.460
1170.00,49.461
1171.00,49.434
1172.00,49.439
1173.00,49.436
1174.00,49.451
1175.00,49.453
1176.00,49.463
1177.00,49.457
1178.00,49.463
1179.00,49.455
1180.00,49.439
1181.00,49.467
1182.00,49.453
1183.00,49.443
1184.00,49.427
1185.00,49.462
1186.00,49.448
1187.00,49.453
1188.00,49.474
1189.00,49.457
1190.00,49.428
1191.00,49.444
1192.00,49.474
1193.00,49.458
1194.00,49.469
1195.00,49.433
1196.00,49.466
1197.00,49.454
1198.00,49.436
1199.00,49.442
1200.00,49.433
1201.00,49.443
1202.00,49.429
1203.00,49.435
1204.00,49.412
1205.00,49.426
1206.00,49.433
1207.00,49.452
1208.00,49.438
1209.00,49.461
1210.00,49.449
1211.00,49.440
1212.00,49.449
1213.00,49.419
1214.00,49.448
1215.00,49.421
1216.00,49.431
1217.00,49.419
1218.00,49.412
1219.00,49.436
1220.00,49.431
1221.00,49.466
1222.00,49.452
1223.00,49.477
1224.00,49.475
1225.00,49.468
1226.00,49.463
1227.00,49.454
1228.00,49.472
1229.00,49.474
1230.00,49.506
1231.00,49.477
1232.00,49.507
1233.00,49.504
1234.00,49.503
1235.00,49.513
1236.00,49.503
1237.00,49.524
1238.00,49.512
1239.00,49.522
1240.00,49.516
1241.00,49.528
1242.00,49.532
1243.00,49.554
1244.00,49.531
1245.00,49.551
1246.00,49.567
1247.00,49.550
1248.00,49.547
1249.00,49.566
1250.00,49.573
1251.00,49.562
1252.00,49.563
1253.00,49.548
1254.00,49.597
1255.00,49.580
1256.00,49.561
1257.00,49.555
1258.00,49.606
1259.00,49.599
1260.00,49.619
1261.00,49.611
1262.00,49.611
1263.00,49.606
1264.00,49.604
1265.00,49.619
1266.00,49.613
1267.00,49.624
1268.00,49.645
1269.00,49.667
1270.00,49.680
1271.00,49.665
1272.00,49.674
1273.00,49.690
1274.00,49.670
1275.00,49.689
1276.00,49.686
1277.00,49.694
1278.00,49.699
1279.00,49.711
1280.00,49.701
1281.00,49.722
1282.00,49.723
1283.00,49.699
1284.00,49.737
1285.00,49.708
1286.00,49.717
1287.00,49.733
1288.00,49.735
1289.00,49.725
1290.00,49.754
1291.00,49.742
1292.00,49.727
1293.00,49.732
1294.00,49.760
1295.00,49.782
1296.00,49.794
1297.00,49.786
1298.00,49.819
1299.00,49.803
1300.00,49.843
1301.00,49.832
1302.00,49.860
1303.00,49.850
1304.00,49.823
1305.00,49.841
1306.00,49.861
1307.00,49.864
1308.00,49.879
1309.00,49.898
1310.00,49.867
1311.00,49.857
1312.00,49.887
1313.00,49.900
1314.00,49.911
1315.00,49.936
1316.00,49.927
1317.00,49.982
1318.00,49.978
1319.00,49.974
1320.00,49.981
1321.00,50.129
1322.00,50.135
1323.00,50.118
1324.00,50.117
1325.00,50.102
1326.00,50.130
1327.00,50.123
1328.00,50.144
1329.00,50.079
1330.00,50.125
1331.00,50.134
1332.00,50.112
1333.00,50.133
1334.00,50.155
1335.00,50.174
1336.00,50.200
1337.00,50.236
1338.00,50.314
1339.00,50.368
1340.00,50.405
1341.00,50.486
1342.00,50.547
1343.00,50.583
1344.00,50.632
1345.00,50.697
1346.00,50.726
1347.00,50.757
1348.00,50.750
1349.00,50.768
1350.00,50.819
1351.00,50.810
1352.00,50.819
1353.00,50.911
1354.00,50.851
1355.00,50.787
1356.00,50.902
1357.00,50.892
1358.00,50.846
1359.00,50.925
1360.00,51.284
1361.00,50.971
1362.00,50.874
1363.00,50.917
1364.00,51.013
1365.00,50.919
1366.00,50.899
1367.00,50.901
1368.00,50.892
1369.00,50.904
1370.00,50.888
1371.00,50.862
1372.00,50.896
1373.00,50.871
1374.00,50.925
1375.00,50.865
1376.00,50.863
1377.00,50.878
1378.00,50.963
1379.00,50.902
1380.00,50.904
1381.00,50.884
1382.00,50.919
1383.00,50.939
1384.00,50.877
1385.00,50.921
1386.00,50.908
1387.00,50.872
1388.00,50.888
1389.00,50.898
1390.00,50.897
1391.00,50.927
1392.00,50.892
1393.00,50.878
1394.00,50.885
1395.00,50.872
1396.00,50.867
1397.00,50.930
1398.00,50.892
1399.00,50.933
1400.00,50.917
1401.00,50.885
1402.00,50.952
1403.00,50.884
1404.00,50.954
1405.00,50.937
1406.00,50.974
1407.00,50.922
1408.00,50.952
1409.00,50.930
1410.00,50.994
1411.00,50.969
1412.00,50.967
1413.00,50.950
1414.00,51.016
1415.00,51.035
1416.00,51.061
1417.00,51.038
1418.00,51.066
1419.00,51.069
1420.00,51.061
1421.00,51.123
1422.00,51.118
1423.00,51.141
1424.00,51.161
1425.00,51.185
1426.00,51.166
1427.00,51.200
1428.00,51.180
1429.00,51.232
1430.00,51.235
1431.00,51.236
1432.00,51.271
1433.00,51.272
1434.00,51.270
1435.00,51.347
1436.00,51.332
1437.00,51.331
1438.00,51.358
1439.00,51.373
1440.00,51.387
1441.00,51.401
1442.00,51.408
1443.00,51.490
1444.00,51.517
1445.00,51.449
1446.00,51.471
1447.00,51.511
1448.00,51.572
1449.00,51.578
1450.00,51.561
1451.00,51.594
1452.00,51.623
1453.00,51.617
1454.00,51.661
1455.00,51.678
1456.00,51.700
1457.00,51.706
1458.00,51.722
1459.00,51.737
1460.00,51.767
1461.00,51.732
1462.00,51.791
1463.00,51.797
1464.00,51.793
1465.00,51.813
1466.00,51.821
1467.00,51.839
1468.00,51.916
1469.00,51.895
1470.00,51.923
1471.00,51.949
1472.00,51.943
1473.00,51.962
1474.00,52.013
1475.00,52.006
1476.00,52.046
1477.00,52.010
1478.00,52.025
1479.00,52.058
1480.00,52.051
1481.00,52.068
1482.00,52.110
1483.00,52.103
1484.00,52.135
1485.00,52.142
1486.00,52.149
1487.00,52.179
1488.00,52.204
1489.00,52.192
1490.00,52.221
1491.00,52.217
1492.00,52.235
1493.00,52.241
1494.00,52.289
1495.00,52.249
1496.00,52.291
1497.00,52.266
1498.00,52.296
1499.00,52.310
1500.00,52.334
1501.00, 
1502.00, 
1503.00, 
1504.00, 
1505.00, 
1506.00, 
1507.00, 
1508.00, 
1509.00, 
1510.00, 
1511.00, 
1512.00, 
1513.00, 
1514.00, 
1515.00, 
1516.00, 
1517.00, 
1518.00, 
1519.00, 
1520.00, 
1521.00, 
1522.00, 
1523.00, 
1524.00, 
1525.00, 
1526.00, 
1527.00, 
1528.00, 
1529.00, 
1530.00, 
1531.00, 
1532.00, 
1533.00, 
1534.00, 
1535.00, 
1536.00, 
1537.00, 
1538.00, 
1539.00, 
1540.00, 
1541.00, 
1542.00, 
1543.00, 
1544.00, 
1545.00, 
1546.00, 
1547.00, 
1548.00, 
1549.00, 
1550.00, 
1551.00, 
1552.00, 
1553.00, 
1554.00, 
1555.00, 
1556.00, 
1557.00, 
1558.00, 
1559.00, 
1560.00, 
1561.00, 
1562.00, 
1563.00, 
1564.00, 
1565.00, 
1566.00, 
1567.00, 
1568.00, 
1569.00, 
1570.00, 
1571.00, 
1572.00, 
1573.00, 
1574.00, 
1575.00, 
1576.00, 
1577.00, 
1578.00, 
1579.00, 
1580.00, 
1581.00, 
1582.00, 
1583.00, 
1584.00, 
1585.00, 
1586.00, 
1587.00, 
1588.00, 
1589.00, 
1590.00, 
1591.00, 
1592.00, 
1593.00, 
1594.00, 
1595.00, 
1596.00, 
1597.00, 
1598.00, 
1599.00, 
1600.00, 
1601.00, 
1602.00, 
1603.00, 
1604.00, 
1605.00, 
1606.00, 
1607.00, 
1608.00, 
1609.00, 
1610.00, 
1611.00, 
1612.00, 
1613.00, 
1614.00, 
1615.00, 
1616.00, 
1617.00, 
1618.00, 
1619.00, 
1620.00, 
1621.00, 
1622.00, 
1623.00, 
1624.00, 
1625.00, 
1626.00, 
1627.00, 
1628.00, 
1629.00, 
1630.00, 
1631.00, 
1632.00, 
1633.00, 
1634.00, 
1635.00, 
1636.00, 
1637.00, 
1638.00, 
1639.00, 
1640.00, 
1641.00, 
1642.00, 
1643.00, 
1644.00, 
1645.00, 
1646.00, 
1647.00, 
1648.00, 
1649.00, 
1650.00, 
1651.00, 
1652.00, 
1653.00, 
1654.00, 
1655.00, 
1656.00, 
1657.00, 
1658.00, 
1659.00, 
1660.00, 
1661.00, 
1662.00, 
1663.00, 
1664.00, 
1665.00, 
1666.00, 
1667.00, 
1668.00, 
1669.00, 
1670.00, 
1671.00, 
1672.00, 
1673.00, 
1674.00, 
1675.00, 
1676.00, 
1677.00, 
1678.00, 
1679.00, 
1680.00, 
1681.00, 
1682.00, 
1683.00, 
1684.00, 
1685.00, 
1686.00, 
1687.00, 
1688.00, 
1689.00, 
1690.00, 
1691.00, 
1692.00, 
1693.00, 
1694.00, 
1695.00, 
1696.00, 
1697.00, 
1698.00, 
1699.00, 
1700.00, 
1701.00, 
1702.00, 
1703.00, 
1704.00, 
1705.00, 
1706.00, 
1707.00, 
1708.00, 
1709.00, 
1710.00, 
1711.00, 
1712.00, 
1713.00, 
1714.00, 
1715.00, 
1716.00, 
1717.00, 
1718.00, 
1719.00, 
1720.00, 
1721.00, 
1722.00, 
1723.00, 
1724.00, 
1725.00, 
1726.00, 
1727.00, 
1728.00, 
1729.00, 
1730.00, 
1731.00, 
1732.00, 
1733.00, 
1734.00, 
1735.00, 
1736.00, 
1737.00, 
1738.00, 
1739.00, 
1740.00, 
1741.00, 
1742.00, 
1743.00, 
1744.00, 
1745.00, 
1746.00, 
1747.00, 
1748.00, 
1749.00, 
1750.00, 
1751.00, 
1752.00, 
1753.00, 
1754.00, 
1755.00, 
1756.00, 
1757.00, 
1758.00, 
1759.00, 
1760.00, 
1761.00, 
1762.00, 
1763.00, 
1764.00, 
1765.00, 
1766.00, 
1767.00, 
1768.00, 
1769.00, 
1770.00, 
1771.00, 
1772.00, 
1773.00, 
1774.00, 
1775.00, 
1776.00, 
1777.00, 
1778.00, 
1779.00, 
1780.00, 
1781.00, 
1782.00, 
1783.00, 
1784.00, 
1785.00, 
1786.00, 
1787.00, 
1788.00, 
1789.00, 
1790.00, 
1791.00, 
1792.00, 
1793.00, 
1794.00, 
1795.00, 
1796.00, 
1797.00, 
1798.00, 
1799.00, 
1800.00, 
1801.00, 
1802.00, 
1803.00, 
1804.00, 
1805.00, 
1806.00, 
1807.00, 
1808.00, 
1809.00, 
1810.00, 
1811.00, 
1812.00, 
1813.00, 
1814.00, 
1815.00, 
1816.00, 
1817.00, 
1818.00, 
1819.00, 
1820.00, 
1821.00, 
1822.00, 
1823.00, 
1824.00, 
1825.00, 
1826.00, 
1827.00, 
1828.00, 
1829.00, 
1830.00, 
1831.00, 
1832.00, 
1833.00, 
1834.00, 
1835.00, 
1836.00, 
1837.00, 
1838.00, 
1839.00, 
1840.00, 
1841.00, 
1842.00, 
1843.00, 
1844.00, 
1845.00, 
1846.00, 
1847.00, 
1848.00, 
1849.00, 
1850.00, 
1851.00, 
1852.00, 
1853.00, 
1854.00, 
1855.00, 
1856.00, 
1857.00, 
1858.00, 
1859.00, 
1860.00, 
1861.00, 
1862.00, 
1863.00, 
1864.00, 
1865.00, 
1866.00, 
1867.00, 
1868.00, 
1869.00, 
1870.00, 
1871.00, 
1872.00, 
1873.00, 
1874.00, 
1875.00, 
1876.00, 
1877.00, 
1878.00, 
1879.00, 
1880.00, 
1881.00, 
1882.00, 
1883.00, 
1884.00, 
1885.00, 
1886.00, 
1887.00, 
1888.00, 
1889.00, 
1890.00, 
1891.00, 
1892.00, 
1893.00, 
1894.00, 
1895.00, 
1896.00, 
1897.00, 
1898.00, 
1899.00, 
1900.00, 
1901.00, 
1902.00, 
1903.00, 
1904.00, 
1905.00, 
1906.00, 
1907.00, 
1908.00, 
1909.00, 
1910.00, 
1911.00, 
1912.00, 
1913.00, 
1914.00, 
1915.00, 
1916.00, 
1917.00, 
1918.00, 
1919.00, 
1920.00, 
1921.00, 
1922.00, 
1923.00, 
1924.00, 
1925.00, 
1926.00, 
1927.00, 
1928.00, 
1929.00, 
1930.00, 
1931.00, 
1932.00, 
1933.00, 
1934.00, 
1935.00, 
1936.00, 
1937.00, 
1938.00, 
1939.00, 
1940.00, 
1941.00, 
1942.00, 
1943.00, 
1944.00, 
1945.00, 
1946.00, 
1947.00, 
1948.00, 
1949.00, 
1950.00, 
1951.00, 
1952.00, 
1953.00, 
1954.00, 
1955.00, 
1956.00, 
1957.00, 
1958.00, 
1959.00, 
1960.00, 
1961.00, 
1962.00, 
1963.00, 
1964.00, 
1965.00, 
1966.00, 
1967.00, 
1968.00, 
1969.00, 
1970.00, 
1971.00, 
1972.00, 
1973.00, 
1974.00, 
1975.00, 
1976.00, 
1977.00, 
1978.00, 
1979.00, 
1980.00, 
1981.00, 
1982.00, 
1983.00, 
1984.00, 
1985.00, 
1986.00, 
1987.00, 
1988.00, 
1989.00, 
1990.00, 
1991.00, 
1992.00, 
1993.00, 
1994.00, 
1995.00, 
1996.00, 
1997.00, 
1998.00, 
1999.00, 
2000.00, 
2001.00, 
2002.00, 
2003.00, 
2004.00, 
2005.00, 
2006.00, 
2007.00, 
2008.00, 
2009.00, 
2010.00, 
2011.00, 
2012.00, 
2013.00, 
2014.00, 
2015.00, 
2016.00, 
2017.00, 
2018.00, 
2019.00, 
2020.00, 
2021.00, 
2022.00, 
2023.00, 
2024.00, 
2025.00, 
2026.00, 
2027.00, 
2028.00, 
2029.00, 
2030.00, 
2031.00, 
2032.00, 
2033.00, 
2034.00, 
2035.00, 
2036.00, 
2037.00, 
2038.00, 
2039.00, 
2040.00, 
2041.00, 
2042.00, 
2043.00, 
2044.00, 
2045.00, 
2046.00, 
2047.00, 
2048.00, 
2049.00, 
2050.00, 
2051.00, 
2052.00, 
2053.00, 
2054.00, 
2055.00, 
2056.00, 
2057.00, 
2058.00, 
2059.00, 
2060.00, 
2061.00, 
2062.00, 
2063.00, 
2064.00, 
2065.00, 
2066.00, 
2067.00, 
2068.00, 
2069.00, 
2070.00, 
2071.00, 
2072.00, 
2073.00, 
2074.00, 
2075.00, 
2076.00, 
2077.00, 
2078.00, 
2079.00, 
2080.00, 
2081.00, 
2082.00, 
2083.00, 
2084.00, 
2085.00, 
2086.00, 
2087.00, 
2088.00, 
2089.00, 
2090.00, 
2091.00, 
2092.00, 
2093.00, 
2094.00, 
2095.00, 
2096.00, 
2097.00, 
2098.00, 
2099.00, 
2100.00, 
2101.00, 
2102.00, 
2103.00, 
2104.00, 
2105.00, 
2106.00, 
2107.00, 
2108.00, 
2109.00, 
2110.00, 
2111.00, 
2112.00, 
2113.00, 
2114.00, 
2115.00, 
2116.00, 
2117.00, 
2118.00, 
2119.00, 
2120.00, 
2121.00, 
2122.00, 
2123.00, 
2124.00, 
2125.00, 
2126.00, 
2127.00, 
2128.00, 
2129.00, 
2130.00, 
2131.00, 
2132.00, 
2133.00, 
2134.00, 
2135.00, 
2136.00, 
2137.00, 
2138.00, 
2139.00, 
2140.00, 
2141.00, 
2142.00, 
2143.00, 
2144.00, 
2145.00, 
2146.00, 
2147.00, 
2148.00, 
2149.00, 
2150.00, 
2151.00, 
2152.00, 
2153.00, 
2154.00, 
2155.00, 
2156.00, 
2157.00, 
2158.00, 
2159.00, 
2160.00, 
2161.00, 
2162.00, 
2163.00, 
2164.00, 
2165.00, 
2166.00, 
2167.00, 
2168.00, 
2169.00, 
2170.00, 
2171.00, 
2172.00, 
2173.00, 
2174.00, 
2175.00, 
2176.00, 
2177.00, 
2178.00, 
2179.00, 
2180.00, 
2181.00, 
2182.00, 
2183.00, 
2184.00, 
2185.00, 
2186.00, 
2187.00, 
2188.00, 
2189.00, 
2190.00, 
2191.00, 
2192.00, 
2193.00, 
2194.00, 
2195.00, 
2196.00, 
2197.00, 
2198.00, 
2199.00, 
2200.00, 
2201.00, 
2202.00, 
2203.00, 
2204.00, 
2205.00, 
2206.00, 
2207.00, 
2208.00, 
2209.00, 
2210.00, 
2211.00, 
2212.00, 
2213.00, 
2214.00, 
2215.00, 
2216.00, 
2217.00, 
2218.00, 
2219.00, 
2220.00, 
2221.00, 
2222.00, 
2223.00, 
2224.00, 
2225.00, 
2226.00, 
2227.00, 
2228.00, 
2229.00, 
2230.00, 
2231.00, 
2232.00, 
2233.00, 
2234.00, 
2235.00, 
2236.00, 
2237.00, 
2238.00, 
2239.00, 
2240.00, 
2241.00, 
2242.00, 
2243.00, 
2244.00, 
2245.00, 
2246.00, 
2247.00, 
2248.00, 
2249.00, 
2250.00, 
2251.00, 
2252.00, 
2253.00, 
2254.00, 
2255.00, 
2256.00, 
2257.00, 
2258.00, 
2259.00, 
2260.00, 
2261.00, 
2262.00, 
2263.00, 
2264.00, 
2265.00, 
2266.00, 
2267.00, 
2268.00, 
2269.00, 
2270.00, 
2271.00, 
2272.00, 
2273.00, 
2274.00, 
2275.00, 
2276.00, 
2277.00, 
2278.00, 
2279.00, 
2280.00, 
2281.00, 
2282.00, 
2283.00, 
2284.00, 
2285.00, 
2286.00, 
2287.00, 
2288.00, 
2289.00, 
2290.00, 
2291.00, 
2292.00, 
2293.00, 
2294.00, 
2295.00, 
2296.00, 
2297.00, 
2298.00, 
2299.00, 
2300.00, 
2301.00, 
2302.00, 
2303.00, 
2304.00, 
2305.00, 
2306.00, 
2307.00, 
2308.00, 
2309.00, 
2310.00, 
2311.00, 
2312.00, 
2313.00, 
2314.00, 
2315.00, 
2316.00, 
2317.00, 
2318.00, 
2319.00, 
2320.00, 
2321.00, 
2322.00, 
2323.00, 
2324.00, 
2325.00, 
2326.00, 
2327.00, 
2328.00, 
2329.00, 
2330.00, 
2331.00, 
2332.00, 
2333.00, 
2334.00, 
2335.00, 
2336.00, 
2337.00, 
2338.00, 
2339.00, 
2340.00, 
2341.00, 
2342.00, 
2343.00, 
2344.00, 
2345.00, 
2346.00, 
2347.00, 
2348.00, 
2349.00, 
2350.00, 
2351.00, 
2352.00, 
2353.00, 
2354.00, 
2355.00, 
2356.00, 
2357.00, 
2358.00, 
2359.00, 
2360.00, 
2361.00, 
2362.00, 
2363.00, 
2364.00, 
2365.00, 
2366.00, 
2367.00, 
2368.00, 
2369.00, 
2370.00, 
2371.00, 
2372.00, 
2373.00, 
2374.00, 
2375.00, 
2376.00, 
2377.00, 
2378.00, 
2379.00, 
2380.00, 
2381.00, 
2382.00, 
2383.00, 
2384.00, 
2385.00, 
2386.00, 
2387.00, 
2388.00, 
2389.00, 
2390.00, 
2391.00, 
2392.00, 
2393.00, 
2394.00, 
2395.00, 
2396.00, 
2397.00, 
2398.00, 
2399.00, 
2400.00, 
2401.00, 
2402.00, 
2403.00, 
2404.00, 
2405.00, 
2406.00, 
2407.00, 
2408.00, 
2409.00, 
2410.00, 
2411.00, 
2412.00, 
2413.00, 
2414.00, 
2415.00, 
2416.00, 
2417.00, 
2418.00, 
2419.00, 
2420.00, 
2421.00, 
2422.00, 
2423.00, 
2424.00, 
2425.00, 
2426.00, 
2427.00, 
2428.00, 
2429.00, 
2430.00, 
2431.00, 
2432.00, 
2433.00, 
2434.00, 
2435.00, 
2436.00, 
2437.00, 
2438.00, 
2439.00, 
2440.00, 
2441.00, 
2442.00, 
2443.00, 
2444.00, 
2445.00, 
2446.00, 
2447.00, 
2448.00, 
2449.00, 
2450.00, 
2451.00, 
2452.00, 
2453.00, 
2454.00, 
2455.00, 
2456.00, 
2457.00, 
2458.00, 
2459.00, 
2460.00, 
2461.00, 
2462.00, 
2463.00, 
2464.00, 
2465.00, 
2466.00, 
2467.00, 
2468.00, 
2469.00, 
2470.00, 
2471.00, 
2472.00, 
2473.00, 
2474.00, 
2475.00, 
2476.00, 
2477.00, 
2478.00, 
2479.00, 
2480.00, 
2481.00, 
2482.00, 
2483.00, 
2484.00, 
2485.00, 
2486.00, 
2487.00, 
2488.00, 
2489.00, 
2490.00, 
2491.00, 
2492.00, 
2493.00, 
2494.00, 
2495.00, 
2496.00, 
2497.00, 
2498.00, 
2499.00, 
2500.00, 
2501.00, 
2502.00, 
2503.00, 
2504.00, 
2505.00, 
2506.00, 
2507.00, 
2508.00, 
2509.00, 
2510.00, 
2511.00, 
2512.00, 
2513.00, 
2514.00, 
2515.00, 
2516.00, 
2517.00, 
2518.00, 
2519.00, 
2520.00, 
2521.00, 
2522.00, 
2523.00, 
2524.00, 
2525.00, 
2526.00, 
2527.00, 
2528.00, 
2529.00, 
2530.00, 
2531.00, 
2532.00, 
2533.00, 
2534.00, 
2535.00, 
2536.00, 
2537.00, 
2538.00, 
2539.00, 
2540.00, 
2541.00, 
2542.00, 
2543.00, 
2544.00, 
2545.00, 
2546.00, 
2547.00, 
2548.00, 
2549.00, 
2550.00, 
2551.00, 
2552.00, 
2553.00, 
2554.00, 
2555.00, 
2556.00, 
2557.00, 
2558.00, 
2559.00, 
2560.00, 
2561.00, 
2562.00, 
2563.00, 
2564.00, 
2565.00, 
2566.00, 
2567.00, 
2568.00, 
2569.00, 
2570.00, 
2571.00, 
2572.00, 
2573.00, 
2574.00, 
2575.00, 
2576.00, 
2577.00, 
2578.00, 
2579.00, 
2580.00, 
2581.00, 
2582.00, 
2583.00, 
2584.00, 
2585.00, 
2586.00, 
2587.00, 
2588.00, 
2589.00, 
2590.00, 
2591.00, 
2592.00, 
2593.00, 
2594.00, 
2595.00, 
2596.00, 
2597.00, 
2598.00, 
2599.00, 
2600.00, 
