"2cP2 - RawData"
"Wavelength nm.","T%"
200.00,-0.001
201.00,0.000
202.00,0.004
203.00,0.004
204.00,0.001
205.00,0.002
206.00,0.004
207.00,0.002
208.00,0.002
209.00,-0.001
210.00,-0.001
211.00,0.002
212.00,0.003
213.00,0.002
214.00,0.002
215.00,0.001
216.00,0.000
217.00,0.000
218.00,0.001
219.00,0.002
220.00,-0.001
221.00,0.001
222.00,0.001
223.00,0.002
224.00,0.000
225.00,0.001
226.00,0.004
227.00,0.000
228.00,0.003
229.00,0.004
230.00,0.000
231.00,0.000
232.00,0.000
233.00,-0.000
234.00,0.001
235.00,-0.000
236.00,-0.001
237.00,0.000
238.00,0.000
239.00,0.001
240.00,-0.000
241.00,0.002
242.00,0.000
243.00,-0.000
244.00,0.001
245.00,-0.001
246.00,-0.001
247.00,0.001
248.00,0.002
249.00,-0.000
250.00,0.000
251.00,0.000
252.00,0.000
253.00,-0.000
254.00,0.001
255.00,0.001
256.00,-0.001
257.00,-0.000
258.00,0.002
259.00,-0.000
260.00,0.002
261.00,0.001
262.00,-0.000
263.00,-0.001
264.00,0.001
265.00,-0.001
266.00,0.000
267.00,0.001
268.00,-0.000
269.00,0.001
270.00,0.001
271.00,0.001
272.00,-0.001
273.00,-0.001
274.00,0.000
275.00,0.001
276.00,-0.000
277.00,-0.000
278.00,0.001
279.00,0.000
280.00,0.000
281.00,-0.000
282.00,0.001
283.00,-0.000
284.00,-0.000
285.00,0.002
286.00,-0.000
287.00,0.001
288.00,0.001
289.00,0.000
290.00,-0.001
291.00,0.002
292.00,0.001
293.00,0.002
294.00,0.000
295.00,-0.001
296.00,0.001
297.00,0.000
298.00,0.001
299.00,0.003
300.00,0.005
301.00,0.008
302.00,0.009
303.00,0.012
304.00,0.019
305.00,0.033
306.00,0.051
307.00,0.081
308.00,0.120
309.00,0.187
310.00,0.261
311.00,0.349
312.00,0.490
313.00,0.666
314.00,0.878
315.00,1.145
316.00,1.456
317.00,1.852
318.00,2.261
319.00,2.791
320.00,3.382
321.00,4.073
322.00,4.850
323.00,5.723
324.00,6.604
325.00,7.520
326.00,8.498
327.00,9.586
328.00,10.698
329.00,11.852
330.00,13.071
331.00,14.317
332.00,15.572
333.00,16.849
334.00,18.108
335.00,19.384
336.00,20.653
337.00,21.972
338.00,23.186
339.00,24.398
340.00,25.601
341.00,26.766
342.00,27.875
343.00,28.964
344.00,29.982
345.00,30.970
346.00,31.850
347.00,32.765
348.00,33.653
349.00,34.472
350.00,35.173
351.00,35.912
352.00,36.526
353.00,37.241
354.00,37.851
355.00,38.386
356.00,38.983
357.00,39.505
358.00,39.981
359.00,40.508
360.00,40.877
361.00,41.293
362.00,41.642
363.00,42.004
364.00,42.320
365.00,42.648
366.00,42.883
367.00,43.175
368.00,43.333
369.00,43.520
370.00,43.733
371.00,43.794
372.00,43.930
373.00,44.077
374.00,44.018
375.00,44.141
376.00,44.140
377.00,44.191
378.00,44.137
379.00,44.149
380.00,44.146
381.00,44.219
382.00,44.347
383.00,44.365
384.00,44.598
385.00,44.654
386.00,44.835
387.00,45.027
388.00,45.222
389.00,45.304
390.00,45.388
391.00,45.520
392.00,45.637
393.00,45.654
394.00,45.832
395.00,45.908
396.00,45.990
397.00,46.045
398.00,46.153
399.00,46.146
400.00,46.285
401.00,46.271
402.00,46.333
403.00,46.348
404.00,46.392
405.00,46.415
406.00,46.415
407.00,46.468
408.00,46.393
409.00,46.315
410.00,46.201
411.00,46.316
412.00,46.278
413.00,46.309
414.00,46.308
415.00,46.325
416.00,46.400
417.00,46.463
418.00,46.349
419.00,46.367
420.00,46.355
421.00,46.524
422.00,46.569
423.00,46.540
424.00,46.539
425.00,46.591
426.00,46.637
427.00,46.657
428.00,46.674
429.00,46.704
430.00,46.689
431.00,46.725
432.00,46.763
433.00,46.784
434.00,46.804
435.00,46.807
436.00,46.845
437.00,46.881
438.00,46.907
439.00,46.978
440.00,47.014
441.00,46.982
442.00,47.060
443.00,47.100
444.00,47.134
445.00,47.118
446.00,47.190
447.00,47.284
448.00,47.332
449.00,47.433
450.00,47.453
451.00,47.492
452.00,47.533
453.00,47.618
454.00,47.655
455.00,47.649
456.00,47.720
457.00,47.743
458.00,47.838
459.00,47.872
460.00,47.944
461.00,47.972
462.00,48.090
463.00,48.075
464.00,48.124
465.00,48.169
466.00,48.227
467.00,48.310
468.00,48.276
469.00,48.404
470.00,48.344
471.00,48.347
472.00,48.364
473.00,48.340
474.00,48.324
475.00,48.421
476.00,48.432
477.00,48.439
478.00,48.440
479.00,48.565
480.00,48.612
481.00,48.672
482.00,48.722
483.00,48.818
484.00,48.858
485.00,48.912
486.00,48.973
487.00,49.165
488.00,49.020
489.00,49.160
490.00,49.126
491.00,49.368
492.00,49.424
493.00,49.451
494.00,49.424
495.00,49.507
496.00,49.546
497.00,49.552
498.00,49.591
499.00,49.638
500.00,49.706
501.00,49.614
502.00,49.776
503.00,49.895
504.00,49.898
505.00,49.873
506.00,50.012
507.00,49.957
508.00,49.973
509.00,50.028
510.00,50.048
511.00,50.015
512.00,50.207
513.00,50.279
514.00,50.346
515.00,50.337
516.00,50.435
517.00,50.413
518.00,50.514
519.00,50.461
520.00,50.530
521.00,50.427
522.00,50.489
523.00,50.527
524.00,50.512
525.00,50.555
526.00,50.658
527.00,50.670
528.00,50.670
529.00,50.723
530.00,50.767
531.00,50.888
532.00,50.914
533.00,50.925
534.00,51.012
535.00,51.018
536.00,51.052
537.00,51.048
538.00,51.131
539.00,51.162
540.00,51.147
541.00,51.173
542.00,51.150
543.00,51.254
544.00,51.245
545.00,51.253
546.00,51.325
547.00,51.357
548.00,51.397
549.00,51.361
550.00,51.446
551.00,51.480
552.00,51.502
553.00,51.581
554.00,51.542
555.00,51.560
556.00,51.600
557.00,51.651
558.00,51.595
559.00,51.668
560.00,51.686
561.00,51.730
562.00,51.747
563.00,51.720
564.00,51.703
565.00,51.676
566.00,51.726
567.00,51.766
568.00,51.758
569.00,51.722
570.00,51.653
571.00,51.777
572.00,51.753
573.00,51.730
574.00,51.780
575.00,51.748
576.00,51.745
577.00,51.777
578.00,51.844
579.00,51.812
580.00,51.926
581.00,52.015
582.00,51.964
583.00,52.053
584.00,52.019
585.00,51.990
586.00,52.215
587.00,52.191
588.00,52.244
589.00,52.108
590.00,52.102
591.00,52.240
592.00,52.235
593.00,52.281
594.00,52.320
595.00,52.254
596.00,52.291
597.00,52.326
598.00,52.414
599.00,52.381
600.00,52.477
601.00,52.485
602.00,52.440
603.00,52.372
604.00,52.404
605.00,52.417
606.00,52.421
607.00,52.422
608.00,52.508
609.00,52.407
610.00,52.414
611.00,52.515
612.00,52.455
613.00,52.368
614.00,52.400
615.00,52.424
616.00,52.504
617.00,52.441
618.00,52.461
619.00,52.554
620.00,52.423
621.00,52.408
622.00,52.516
623.00,52.511
624.00,52.501
625.00,52.541
626.00,52.515
627.00,52.442
628.00,52.451
629.00,52.425
630.00,52.290
631.00,52.290
632.00,52.352
633.00,52.456
634.00,52.530
635.00,52.612
636.00,52.597
637.00,52.596
638.00,52.655
639.00,52.609
640.00,52.468
641.00,52.516
642.00,52.597
643.00,52.541
644.00,52.571
645.00,52.547
646.00,52.638
647.00,52.599
648.00,52.574
649.00,52.594
650.00,52.535
651.00,52.557
652.00,52.519
653.00,52.554
654.00,52.545
655.00,52.500
656.00,52.593
657.00,52.772
658.00,52.693
659.00,52.572
660.00,52.563
661.00,52.514
662.00,52.652
663.00,52.636
664.00,52.614
665.00,52.622
666.00,52.837
667.00,52.759
668.00,52.884
669.00,52.585
670.00,52.703
671.00,52.657
672.00,52.531
673.00,52.708
674.00,52.754
675.00,52.592
676.00,52.684
677.00,52.664
678.00,52.540
679.00,52.569
680.00,52.623
681.00,52.606
682.00,52.550
683.00,52.673
684.00,52.574
685.00,52.559
686.00,52.464
687.00,52.567
688.00,52.612
689.00,52.440
690.00,52.550
691.00,52.505
692.00,52.461
693.00,52.431
694.00,52.447
695.00,52.404
696.00,52.405
697.00,52.411
698.00,52.427
699.00,52.434
700.00,52.389
701.00,52.261
702.00,52.330
703.00,52.349
704.00,52.393
705.00,52.282
706.00,52.367
707.00,52.463
708.00,52.191
709.00,52.407
710.00,52.442
711.00,52.340
712.00,52.229
713.00,52.235
714.00,52.131
715.00,52.173
716.00,52.116
717.00,52.181
718.00,52.217
719.00,52.100
720.00,52.205
721.00,56.488
722.00,56.392
723.00,56.301
724.00,56.239
725.00,56.229
726.00,56.195
727.00,56.089
728.00,56.035
729.00,55.968
730.00,55.931
731.00,55.903
732.00,55.786
733.00,55.823
734.00,55.685
735.00,55.702
736.00,55.658
737.00,55.548
738.00,55.502
739.00,55.504
740.00,55.476
741.00,55.434
742.00,55.419
743.00,55.416
744.00,55.228
745.00,55.197
746.00,55.165
747.00,55.123
748.00,55.055
749.00,55.012
750.00,54.910
751.00,54.826
752.00,54.753
753.00,54.829
754.00,54.713
755.00,54.631
756.00,54.613
757.00,54.570
758.00,54.497
759.00,54.578
760.00,54.395
761.00,54.389
762.00,54.362
763.00,54.357
764.00,54.308
765.00,54.228
766.00,54.113
767.00,54.204
768.00,54.153
769.00,54.056
770.00,54.086
771.00,54.128
772.00,54.002
773.00,54.026
774.00,53.945
775.00,53.992
776.00,53.797
777.00,53.778
778.00,53.795
779.00,53.846
780.00,53.758
781.00,53.766
782.00,53.716
783.00,53.592
784.00,53.630
785.00,53.575
786.00,53.563
787.00,53.516
788.00,53.504
789.00,53.462
790.00,53.375
791.00,53.402
792.00,53.346
793.00,53.247
794.00,53.242
795.00,53.217
796.00,53.170
797.00,53.077
798.00,53.045
799.00,53.048
800.00,52.891
801.00,52.936
802.00,52.907
803.00,52.932
804.00,52.841
805.00,52.848
806.00,52.778
807.00,52.720
808.00,52.700
809.00,52.685
810.00,52.655
811.00,52.610
812.00,52.611
813.00,52.509
814.00,52.557
815.00,52.538
816.00,52.510
817.00,52.398
818.00,52.307
819.00,52.356
820.00,52.232
821.00,52.231
822.00,52.269
823.00,52.258
824.00,52.155
825.00,52.156
826.00,52.091
827.00,52.211
828.00,52.111
829.00,52.019
830.00,52.024
831.00,54.637
832.00,54.580
833.00,54.534
834.00,54.491
835.00,54.466
836.00,54.475
837.00,54.405
838.00,54.384
839.00,54.361
840.00,54.311
841.00,54.317
842.00,54.260
843.00,54.268
844.00,54.193
845.00,54.189
846.00,54.156
847.00,54.147
848.00,54.042
849.00,53.993
850.00,53.956
851.00,53.907
852.00,53.920
853.00,53.876
854.00,53.829
855.00,53.763
856.00,53.750
857.00,53.712
858.00,53.694
859.00,53.662
860.00,53.636
861.00,53.567
862.00,53.558
863.00,53.562
864.00,53.528
865.00,53.549
866.00,53.486
867.00,53.485
868.00,53.461
869.00,53.442
870.00,53.436
871.00,53.407
872.00,53.355
873.00,53.361
874.00,53.337
875.00,53.294
876.00,53.282
877.00,53.306
878.00,53.272
879.00,53.239
880.00,53.237
881.00,53.188
882.00,53.210
883.00,53.156
884.00,53.122
885.00,53.078
886.00,53.086
887.00,53.057
888.00,53.013
889.00,52.980
890.00,52.978
891.00,52.925
892.00,52.909
893.00,52.888
894.00,52.884
895.00,52.824
896.00,52.823
897.00,52.798
898.00,52.768
899.00,52.745
900.00,52.749
901.00,52.722
902.00,52.698
903.00,52.685
904.00,52.688
905.00,52.594
906.00,52.706
907.00,52.603
908.00,52.586
909.00,52.552
910.00,52.520
911.00,52.536
912.00,52.516
913.00,52.465
914.00,52.430
915.00,52.401
916.00,52.391
917.00,52.340
918.00,52.306
919.00,52.283
920.00,52.266
921.00,52.263
922.00,52.229
923.00,52.220
924.00,52.197
925.00,52.165
926.00,52.167
927.00,52.162
928.00,52.112
929.00,52.116
930.00,52.083
931.00,52.058
932.00,52.020
933.00,52.019
934.00,52.009
935.00,51.992
936.00,51.955
937.00,51.922
938.00,51.916
939.00,51.914
940.00,51.869
941.00,51.882
942.00,51.831
943.00,51.835
944.00,51.794
945.00,51.777
946.00,51.784
947.00,51.728
948.00,51.708
949.00,51.680
950.00,51.671
951.00,51.637
952.00,51.601
953.00,51.580
954.00,51.571
955.00,51.523
956.00,51.521
957.00,51.470
958.00,51.489
959.00,51.424
960.00,51.431
961.00,51.387
962.00,51.383
963.00,51.387
964.00,51.342
965.00,51.335
966.00,51.330
967.00,51.326
968.00,51.291
969.00,51.332
970.00,51.287
971.00,51.301
972.00,51.282
973.00,51.292
974.00,51.304
975.00,51.272
976.00,51.301
977.00,51.252
978.00,51.316
979.00,51.265
980.00,51.289
981.00,51.269
982.00,51.270
983.00,51.273
984.00,51.251
985.00,51.263
986.00,51.217
987.00,51.244
988.00,51.213
989.00,51.191
990.00,51.195
991.00,51.162
992.00,51.181
993.00,51.159
994.00,51.130
995.00,51.116
996.00,51.107
997.00,51.100
998.00,51.080
999.00,51.089
1000.00,51.033
1001.00,51.051
1002.00,51.043
1003.00,51.027
1004.00,51.016
1005.00,50.979
1006.00,51.007
1007.00,50.977
1008.00,50.952
1009.00,50.945
1010.00,50.930
1011.00,50.910
1012.00,50.890
1013.00,50.889
1014.00,50.844
1015.00,50.861
1016.00,50.821
1017.00,50.829
1018.00,50.834
1019.00,50.775
1020.00,50.757
1021.00,50.759
1022.00,50.737
1023.00,50.695
1024.00,50.720
1025.00,50.675
1026.00,50.674
1027.00,50.648
1028.00,50.643
1029.00,50.637
1030.00,50.593
1031.00,50.611
1032.00,50.566
1033.00,50.566
1034.00,50.541
1035.00,50.508
1036.00,50.478
1037.00,50.462
1038.00,50.458
1039.00,50.415
1040.00,50.425
1041.00,50.372
1042.00,50.380
1043.00,50.348
1044.00,50.379
1045.00,50.380
1046.00,50.366
1047.00,50.355
1048.00,50.379
1049.00,50.397
1050.00,50.389
1051.00,50.419
1052.00,50.427
1053.00,50.436
1054.00,50.437
1055.00,50.435
1056.00,50.459
1057.00,50.457
1058.00,50.448
1059.00,50.453
1060.00,50.452
1061.00,50.431
1062.00,50.427
1063.00,50.434
1064.00,50.422
1065.00,50.431
1066.00,50.399
1067.00,50.387
1068.00,50.398
1069.00,50.344
1070.00,50.358
1071.00,50.317
1072.00,50.348
1073.00,50.316
1074.00,50.318
1075.00,50.313
1076.00,50.304
1077.00,50.292
1078.00,50.284
1079.00,50.277
1080.00,50.281
1081.00,50.241
1082.00,50.242
1083.00,50.238
1084.00,50.234
1085.00,50.243
1086.00,50.221
1087.00,50.213
1088.00,50.184
1089.00,50.195
1090.00,50.178
1091.00,50.158
1092.00,50.169
1093.00,50.150
1094.00,50.146
1095.00,50.126
1096.00,50.121
1097.00,50.111
1098.00,50.117
1099.00,50.096
1100.00,50.099
1101.00,50.059
1102.00,50.047
1103.00,50.054
1104.00,50.034
1105.00,50.025
1106.00,50.037
1107.00,50.009
1108.00,50.015
1109.00,49.992
1110.00,49.997
1111.00,50.008
1112.00,49.991
1113.00,49.962
1114.00,49.965
1115.00,49.951
1116.00,49.956
1117.00,49.940
1118.00,49.927
1119.00,49.921
1120.00,49.924
1121.00,49.920
1122.00,49.922
1123.00,49.909
1124.00,49.895
1125.00,49.888
1126.00,49.891
1127.00,49.874
1128.00,49.870
1129.00,49.843
1130.00,49.837
1131.00,49.840
1132.00,49.820
1133.00,49.816
1134.00,49.800
1135.00,49.809
1136.00,49.805
1137.00,49.801
1138.00,49.807
1139.00,49.808
1140.00,49.786
1141.00,49.789
1142.00,49.776
1143.00,49.774
1144.00,49.763
1145.00,49.772
1146.00,49.772
1147.00,49.739
1148.00,49.729
1149.00,49.736
1150.00,49.740
1151.00,49.745
1152.00,49.728
1153.00,49.724
1154.00,49.723
1155.00,49.736
1156.00,49.729
1157.00,49.720
1158.00,49.719
1159.00,49.728
1160.00,49.713
1161.00,49.715
1162.00,49.696
1163.00,49.692
1164.00,49.699
1165.00,49.683
1166.00,49.697
1167.00,49.687
1168.00,49.688
1169.00,49.696
1170.00,49.703
1171.00,49.674
1172.00,49.690
1173.00,49.689
1174.00,49.692
1175.00,49.682
1176.00,49.680
1177.00,49.680
1178.00,49.672
1179.00,49.673
1180.00,49.675
1181.00,49.689
1182.00,49.678
1183.00,49.675
1184.00,49.653
1185.00,49.673
1186.00,49.661
1187.00,49.669
1188.00,49.669
1189.00,49.658
1190.00,49.640
1191.00,49.655
1192.00,49.667
1193.00,49.643
1194.00,49.660
1195.00,49.623
1196.00,49.652
1197.00,49.646
1198.00,49.641
1199.00,49.646
1200.00,49.630
1201.00,49.635
1202.00,49.636
1203.00,49.638
1204.00,49.618
1205.00,49.650
1206.00,49.634
1207.00,49.652
1208.00,49.636
1209.00,49.627
1210.00,49.631
1211.00,49.628
1212.00,49.643
1213.00,49.609
1214.00,49.626
1215.00,49.616
1216.00,49.631
1217.00,49.624
1218.00,49.627
1219.00,49.644
1220.00,49.620
1221.00,49.645
1222.00,49.623
1223.00,49.630
1224.00,49.643
1225.00,49.628
1226.00,49.629
1227.00,49.622
1228.00,49.633
1229.00,49.631
1230.00,49.665
1231.00,49.649
1232.00,49.680
1233.00,49.656
1234.00,49.678
1235.00,49.678
1236.00,49.661
1237.00,49.666
1238.00,49.675
1239.00,49.665
1240.00,49.664
1241.00,49.674
1242.00,49.659
1243.00,49.697
1244.00,49.673
1245.00,49.688
1246.00,49.700
1247.00,49.700
1248.00,49.703
1249.00,49.708
1250.00,49.702
1251.00,49.704
1252.00,49.716
1253.00,49.705
1254.00,49.747
1255.00,49.735
1256.00,49.691
1257.00,49.690
1258.00,49.743
1259.00,49.733
1260.00,49.760
1261.00,49.743
1262.00,49.748
1263.00,49.736
1264.00,49.748
1265.00,49.757
1266.00,49.747
1267.00,49.749
1268.00,49.773
1269.00,49.761
1270.00,49.769
1271.00,49.781
1272.00,49.789
1273.00,49.788
1274.00,49.789
1275.00,49.788
1276.00,49.794
1277.00,49.793
1278.00,49.803
1279.00,49.820
1280.00,49.820
1281.00,49.820
1282.00,49.843
1283.00,49.822
1284.00,49.821
1285.00,49.814
1286.00,49.831
1287.00,49.844
1288.00,49.832
1289.00,49.824
1290.00,49.849
1291.00,49.845
1292.00,49.853
1293.00,49.850
1294.00,49.858
1295.00,49.878
1296.00,49.874
1297.00,49.873
1298.00,49.906
1299.00,49.875
1300.00,49.888
1301.00,49.888
1302.00,49.896
1303.00,49.911
1304.00,49.888
1305.00,49.915
1306.00,49.912
1307.00,49.928
1308.00,49.919
1309.00,49.940
1310.00,49.939
1311.00,49.931
1312.00,49.944
1313.00,49.940
1314.00,49.955
1315.00,49.957
1316.00,49.953
1317.00,50.012
1318.00,50.008
1319.00,49.988
1320.00,50.024
1321.00,50.153
1322.00,50.179
1323.00,50.154
1324.00,50.152
1325.00,50.130
1326.00,50.166
1327.00,50.149
1328.00,50.163
1329.00,50.150
1330.00,50.146
1331.00,50.173
1332.00,50.152
1333.00,50.168
1334.00,50.191
1335.00,50.195
1336.00,50.219
1337.00,50.246
1338.00,50.317
1339.00,50.364
1340.00,50.416
1341.00,50.467
1342.00,50.561
1343.00,50.600
1344.00,50.640
1345.00,50.715
1346.00,50.754
1347.00,50.771
1348.00,50.787
1349.00,50.805
1350.00,50.867
1351.00,50.859
1352.00,50.856
1353.00,50.895
1354.00,50.872
1355.00,50.820
1356.00,50.888
1357.00,50.874
1358.00,50.876
1359.00,50.918
1360.00,50.895
1361.00,51.141
1362.00,50.884
1363.00,50.928
1364.00,50.891
1365.00,50.883
1366.00,50.924
1367.00,50.884
1368.00,50.846
1369.00,50.875
1370.00,50.889
1371.00,50.834
1372.00,50.868
1373.00,50.860
1374.00,50.860
1375.00,50.858
1376.00,50.832
1377.00,50.838
1378.00,50.970
1379.00,50.911
1380.00,50.865
1381.00,50.906
1382.00,50.834
1383.00,50.851
1384.00,50.810
1385.00,50.786
1386.00,50.844
1387.00,50.865
1388.00,50.815
1389.00,50.822
1390.00,50.855
1391.00,50.834
1392.00,50.843
1393.00,50.861
1394.00,50.791
1395.00,50.821
1396.00,50.799
1397.00,50.895
1398.00,50.881
1399.00,50.865
1400.00,50.833
1401.00,50.811
1402.00,50.856
1403.00,50.849
1404.00,50.846
1405.00,50.871
1406.00,50.864
1407.00,50.782
1408.00,50.878
1409.00,50.841
1410.00,50.894
1411.00,50.884
1412.00,50.905
1413.00,50.879
1414.00,50.884
1415.00,50.947
1416.00,50.982
1417.00,50.970
1418.00,50.971
1419.00,50.973
1420.00,50.983
1421.00,51.027
1422.00,51.036
1423.00,51.021
1424.00,51.053
1425.00,51.062
1426.00,51.068
1427.00,51.080
1428.00,51.075
1429.00,51.112
1430.00,51.117
1431.00,51.124
1432.00,51.145
1433.00,51.165
1434.00,51.162
1435.00,51.193
1436.00,51.192
1437.00,51.191
1438.00,51.223
1439.00,51.241
1440.00,51.252
1441.00,51.257
1442.00,51.266
1443.00,51.361
1444.00,51.348
1445.00,51.303
1446.00,51.322
1447.00,51.349
1448.00,51.366
1449.00,51.398
1450.00,51.374
1451.00,51.408
1452.00,51.431
1453.00,51.439
1454.00,51.441
1455.00,51.471
1456.00,51.482
1457.00,51.496
1458.00,51.506
1459.00,51.522
1460.00,51.547
1461.00,51.547
1462.00,51.566
1463.00,51.586
1464.00,51.591
1465.00,51.596
1466.00,51.619
1467.00,51.630
1468.00,51.685
1469.00,51.667
1470.00,51.671
1471.00,51.695
1472.00,51.701
1473.00,51.697
1474.00,51.737
1475.00,51.723
1476.00,51.753
1477.00,51.759
1478.00,51.761
1479.00,51.786
1480.00,51.787
1481.00,51.788
1482.00,51.832
1483.00,51.825
1484.00,51.827
1485.00,51.855
1486.00,51.853
1487.00,51.882
1488.00,51.900
1489.00,51.887
1490.00,51.909
1491.00,51.920
1492.00,51.931
1493.00,51.936
1494.00,51.949
1495.00,51.954
1496.00,51.971
1497.00,51.969
1498.00,51.964
1499.00,51.992
1500.00,52.013
1501.00, 
1502.00, 
1503.00, 
1504.00, 
1505.00, 
1506.00, 
1507.00, 
1508.00, 
1509.00, 
1510.00, 
1511.00, 
1512.00, 
1513.00, 
1514.00, 
1515.00, 
1516.00, 
1517.00, 
1518.00, 
1519.00, 
1520.00, 
1521.00, 
1522.00, 
1523.00, 
1524.00, 
1525.00, 
1526.00, 
1527.00, 
1528.00, 
1529.00, 
1530.00, 
1531.00, 
1532.00, 
1533.00, 
1534.00, 
1535.00, 
1536.00, 
1537.00, 
1538.00, 
1539.00, 
1540.00, 
1541.00, 
1542.00, 
1543.00, 
1544.00, 
1545.00, 
1546.00, 
1547.00, 
1548.00, 
1549.00, 
1550.00, 
1551.00, 
1552.00, 
1553.00, 
1554.00, 
1555.00, 
1556.00, 
1557.00, 
1558.00, 
1559.00, 
1560.00, 
1561.00, 
1562.00, 
1563.00, 
1564.00, 
1565.00, 
1566.00, 
1567.00, 
1568.00, 
1569.00, 
1570.00, 
1571.00, 
1572.00, 
1573.00, 
1574.00, 
1575.00, 
1576.00, 
1577.00, 
1578.00, 
1579.00, 
1580.00, 
1581.00, 
1582.00, 
1583.00, 
1584.00, 
1585.00, 
1586.00, 
1587.00, 
1588.00, 
1589.00, 
1590.00, 
1591.00, 
1592.00, 
1593.00, 
1594.00, 
1595.00, 
1596.00, 
1597.00, 
1598.00, 
1599.00, 
1600.00, 
1601.00, 
1602.00, 
1603.00, 
1604.00, 
1605.00, 
1606.00, 
1607.00, 
1608.00, 
1609.00, 
1610.00, 
1611.00, 
1612.00, 
1613.00, 
1614.00, 
1615.00, 
1616.00, 
1617.00, 
1618.00, 
1619.00, 
1620.00, 
1621.00, 
1622.00, 
1623.00, 
1624.00, 
1625.00, 
1626.00, 
1627.00, 
1628.00, 
1629.00, 
1630.00, 
1631.00, 
1632.00, 
1633.00, 
1634.00, 
1635.00, 
1636.00, 
1637.00, 
1638.00, 
1639.00, 
1640.00, 
1641.00, 
1642.00, 
1643.00, 
1644.00, 
1645.00, 
1646.00, 
1647.00, 
1648.00, 
1649.00, 
1650.00, 
1651.00, 
1652.00, 
1653.00, 
1654.00, 
1655.00, 
1656.00, 
1657.00, 
1658.00, 
1659.00, 
1660.00, 
1661.00, 
1662.00, 
1663.00, 
1664.00, 
1665.00, 
1666.00, 
1667.00, 
1668.00, 
1669.00, 
1670.00, 
1671.00, 
1672.00, 
1673.00, 
1674.00, 
1675.00, 
1676.00, 
1677.00, 
1678.00, 
1679.00, 
1680.00, 
1681.00, 
1682.00, 
1683.00, 
1684.00, 
1685.00, 
1686.00, 
1687.00, 
1688.00, 
1689.00, 
1690.00, 
1691.00, 
1692.00, 
1693.00, 
1694.00, 
1695.00, 
1696.00, 
1697.00, 
1698.00, 
1699.00, 
1700.00, 
1701.00, 
1702.00, 
1703.00, 
1704.00, 
1705.00, 
1706.00, 
1707.00, 
1708.00, 
1709.00, 
1710.00, 
1711.00, 
1712.00, 
1713.00, 
1714.00, 
1715.00, 
1716.00, 
1717.00, 
1718.00, 
1719.00, 
1720.00, 
1721.00, 
1722.00, 
1723.00, 
1724.00, 
1725.00, 
1726.00, 
1727.00, 
1728.00, 
1729.00, 
1730.00, 
1731.00, 
1732.00, 
1733.00, 
1734.00, 
1735.00, 
1736.00, 
1737.00, 
1738.00, 
1739.00, 
1740.00, 
1741.00, 
1742.00, 
1743.00, 
1744.00, 
1745.00, 
1746.00, 
1747.00, 
1748.00, 
1749.00, 
1750.00, 
1751.00, 
1752.00, 
1753.00, 
1754.00, 
1755.00, 
1756.00, 
1757.00, 
1758.00, 
1759.00, 
1760.00, 
1761.00, 
1762.00, 
1763.00, 
1764.00, 
1765.00, 
1766.00, 
1767.00, 
1768.00, 
1769.00, 
1770.00, 
1771.00, 
1772.00, 
1773.00, 
1774.00, 
1775.00, 
1776.00, 
1777.00, 
1778.00, 
1779.00, 
1780.00, 
1781.00, 
1782.00, 
1783.00, 
1784.00, 
1785.00, 
1786.00, 
1787.00, 
1788.00, 
1789.00, 
1790.00, 
1791.00, 
1792.00, 
1793.00, 
1794.00, 
1795.00, 
1796.00, 
1797.00, 
1798.00, 
1799.00, 
1800.00, 
1801.00, 
1802.00, 
1803.00, 
1804.00, 
1805.00, 
1806.00, 
1807.00, 
1808.00, 
1809.00, 
1810.00, 
1811.00, 
1812.00, 
1813.00, 
1814.00, 
1815.00, 
1816.00, 
1817.00, 
1818.00, 
1819.00, 
1820.00, 
1821.00, 
1822.00, 
1823.00, 
1824.00, 
1825.00, 
1826.00, 
1827.00, 
1828.00, 
1829.00, 
1830.00, 
1831.00, 
1832.00, 
1833.00, 
1834.00, 
1835.00, 
1836.00, 
1837.00, 
1838.00, 
1839.00, 
1840.00, 
1841.00, 
1842.00, 
1843.00, 
1844.00, 
1845.00, 
1846.00, 
1847.00, 
1848.00, 
1849.00, 
1850.00, 
1851.00, 
1852.00, 
1853.00, 
1854.00, 
1855.00, 
1856.00, 
1857.00, 
1858.00, 
1859.00, 
1860.00, 
1861.00, 
1862.00, 
1863.00, 
1864.00, 
1865.00, 
1866.00, 
1867.00, 
1868.00, 
1869.00, 
1870.00, 
1871.00, 
1872.00, 
1873.00, 
1874.00, 
1875.00, 
1876.00, 
1877.00, 
1878.00, 
1879.00, 
1880.00, 
1881.00, 
1882.00, 
1883.00, 
1884.00, 
1885.00, 
1886.00, 
1887.00, 
1888.00, 
1889.00, 
1890.00, 
1891.00, 
1892.00, 
1893.00, 
1894.00, 
1895.00, 
1896.00, 
1897.00, 
1898.00, 
1899.00, 
1900.00, 
1901.00, 
1902.00, 
1903.00, 
1904.00, 
1905.00, 
1906.00, 
1907.00, 
1908.00, 
1909.00, 
1910.00, 
1911.00, 
1912.00, 
1913.00, 
1914.00, 
1915.00, 
1916.00, 
1917.00, 
1918.00, 
1919.00, 
1920.00, 
1921.00, 
1922.00, 
1923.00, 
1924.00, 
1925.00, 
1926.00, 
1927.00, 
1928.00, 
1929.00, 
1930.00, 
1931.00, 
1932.00, 
1933.00, 
1934.00, 
1935.00, 
1936.00, 
1937.00, 
1938.00, 
1939.00, 
1940.00, 
1941.00, 
1942.00, 
1943.00, 
1944.00, 
1945.00, 
1946.00, 
1947.00, 
1948.00, 
1949.00, 
1950.00, 
1951.00, 
1952.00, 
1953.00, 
1954.00, 
1955.00, 
1956.00, 
1957.00, 
1958.00, 
1959.00, 
1960.00, 
1961.00, 
1962.00, 
1963.00, 
1964.00, 
1965.00, 
1966.00, 
1967.00, 
1968.00, 
1969.00, 
1970.00, 
1971.00, 
1972.00, 
1973.00, 
1974.00, 
1975.00, 
1976.00, 
1977.00, 
1978.00, 
1979.00, 
1980.00, 
1981.00, 
1982.00, 
1983.00, 
1984.00, 
1985.00, 
1986.00, 
1987.00, 
1988.00, 
1989.00, 
1990.00, 
1991.00, 
1992.00, 
1993.00, 
1994.00, 
1995.00, 
1996.00, 
1997.00, 
1998.00, 
1999.00, 
2000.00, 
2001.00, 
2002.00, 
2003.00, 
2004.00, 
2005.00, 
2006.00, 
2007.00, 
2008.00, 
2009.00, 
2010.00, 
2011.00, 
2012.00, 
2013.00, 
2014.00, 
2015.00, 
2016.00, 
2017.00, 
2018.00, 
2019.00, 
2020.00, 
2021.00, 
2022.00, 
2023.00, 
2024.00, 
2025.00, 
2026.00, 
2027.00, 
2028.00, 
2029.00, 
2030.00, 
2031.00, 
2032.00, 
2033.00, 
2034.00, 
2035.00, 
2036.00, 
2037.00, 
2038.00, 
2039.00, 
2040.00, 
2041.00, 
2042.00, 
2043.00, 
2044.00, 
2045.00, 
2046.00, 
2047.00, 
2048.00, 
2049.00, 
2050.00, 
2051.00, 
2052.00, 
2053.00, 
2054.00, 
2055.00, 
2056.00, 
2057.00, 
2058.00, 
2059.00, 
2060.00, 
2061.00, 
2062.00, 
2063.00, 
2064.00, 
2065.00, 
2066.00, 
2067.00, 
2068.00, 
2069.00, 
2070.00, 
2071.00, 
2072.00, 
2073.00, 
2074.00, 
2075.00, 
2076.00, 
2077.00, 
2078.00, 
2079.00, 
2080.00, 
2081.00, 
2082.00, 
2083.00, 
2084.00, 
2085.00, 
2086.00, 
2087.00, 
2088.00, 
2089.00, 
2090.00, 
2091.00, 
2092.00, 
2093.00, 
2094.00, 
2095.00, 
2096.00, 
2097.00, 
2098.00, 
2099.00, 
2100.00, 
2101.00, 
2102.00, 
2103.00, 
2104.00, 
2105.00, 
2106.00, 
2107.00, 
2108.00, 
2109.00, 
2110.00, 
2111.00, 
2112.00, 
2113.00, 
2114.00, 
2115.00, 
2116.00, 
2117.00, 
2118.00, 
2119.00, 
2120.00, 
2121.00, 
2122.00, 
2123.00, 
2124.00, 
2125.00, 
2126.00, 
2127.00, 
2128.00, 
2129.00, 
2130.00, 
2131.00, 
2132.00, 
2133.00, 
2134.00, 
2135.00, 
2136.00, 
2137.00, 
2138.00, 
2139.00, 
2140.00, 
2141.00, 
2142.00, 
2143.00, 
2144.00, 
2145.00, 
2146.00, 
2147.00, 
2148.00, 
2149.00, 
2150.00, 
2151.00, 
2152.00, 
2153.00, 
2154.00, 
2155.00, 
2156.00, 
2157.00, 
2158.00, 
2159.00, 
2160.00, 
2161.00, 
2162.00, 
2163.00, 
2164.00, 
2165.00, 
2166.00, 
2167.00, 
2168.00, 
2169.00, 
2170.00, 
2171.00, 
2172.00, 
2173.00, 
2174.00, 
2175.00, 
2176.00, 
2177.00, 
2178.00, 
2179.00, 
2180.00, 
2181.00, 
2182.00, 
2183.00, 
2184.00, 
2185.00, 
2186.00, 
2187.00, 
2188.00, 
2189.00, 
2190.00, 
2191.00, 
2192.00, 
2193.00, 
2194.00, 
2195.00, 
2196.00, 
2197.00, 
2198.00, 
2199.00, 
2200.00, 
2201.00, 
2202.00, 
2203.00, 
2204.00, 
2205.00, 
2206.00, 
2207.00, 
2208.00, 
2209.00, 
2210.00, 
2211.00, 
2212.00, 
2213.00, 
2214.00, 
2215.00, 
2216.00, 
2217.00, 
2218.00, 
2219.00, 
2220.00, 
2221.00, 
2222.00, 
2223.00, 
2224.00, 
2225.00, 
2226.00, 
2227.00, 
2228.00, 
2229.00, 
2230.00, 
2231.00, 
2232.00, 
2233.00, 
2234.00, 
2235.00, 
2236.00, 
2237.00, 
2238.00, 
2239.00, 
2240.00, 
2241.00, 
2242.00, 
2243.00, 
2244.00, 
2245.00, 
2246.00, 
2247.00, 
2248.00, 
2249.00, 
2250.00, 
2251.00, 
2252.00, 
2253.00, 
2254.00, 
2255.00, 
2256.00, 
2257.00, 
2258.00, 
2259.00, 
2260.00, 
2261.00, 
2262.00, 
2263.00, 
2264.00, 
2265.00, 
2266.00, 
2267.00, 
2268.00, 
2269.00, 
2270.00, 
2271.00, 
2272.00, 
2273.00, 
2274.00, 
2275.00, 
2276.00, 
2277.00, 
2278.00, 
2279.00, 
2280.00, 
2281.00, 
2282.00, 
2283.00, 
2284.00, 
2285.00, 
2286.00, 
2287.00, 
2288.00, 
2289.00, 
2290.00, 
2291.00, 
2292.00, 
2293.00, 
2294.00, 
2295.00, 
2296.00, 
2297.00, 
2298.00, 
2299.00, 
2300.00, 
2301.00, 
2302.00, 
2303.00, 
2304.00, 
2305.00, 
2306.00, 
2307.00, 
2308.00, 
2309.00, 
2310.00, 
2311.00, 
2312.00, 
2313.00, 
2314.00, 
2315.00, 
2316.00, 
2317.00, 
2318.00, 
2319.00, 
2320.00, 
2321.00, 
2322.00, 
2323.00, 
2324.00, 
2325.00, 
2326.00, 
2327.00, 
2328.00, 
2329.00, 
2330.00, 
2331.00, 
2332.00, 
2333.00, 
2334.00, 
2335.00, 
2336.00, 
2337.00, 
2338.00, 
2339.00, 
2340.00, 
2341.00, 
2342.00, 
2343.00, 
2344.00, 
2345.00, 
2346.00, 
2347.00, 
2348.00, 
2349.00, 
2350.00, 
2351.00, 
2352.00, 
2353.00, 
2354.00, 
2355.00, 
2356.00, 
2357.00, 
2358.00, 
2359.00, 
2360.00, 
2361.00, 
2362.00, 
2363.00, 
2364.00, 
2365.00, 
2366.00, 
2367.00, 
2368.00, 
2369.00, 
2370.00, 
2371.00, 
2372.00, 
2373.00, 
2374.00, 
2375.00, 
2376.00, 
2377.00, 
2378.00, 
2379.00, 
2380.00, 
2381.00, 
2382.00, 
2383.00, 
2384.00, 
2385.00, 
2386.00, 
2387.00, 
2388.00, 
2389.00, 
2390.00, 
2391.00, 
2392.00, 
2393.00, 
2394.00, 
2395.00, 
2396.00, 
2397.00, 
2398.00, 
2399.00, 
2400.00, 
2401.00, 
2402.00, 
2403.00, 
2404.00, 
2405.00, 
2406.00, 
2407.00, 
2408.00, 
2409.00, 
2410.00, 
2411.00, 
2412.00, 
2413.00, 
2414.00, 
2415.00, 
2416.00, 
2417.00, 
2418.00, 
2419.00, 
2420.00, 
2421.00, 
2422.00, 
2423.00, 
2424.00, 
2425.00, 
2426.00, 
2427.00, 
2428.00, 
2429.00, 
2430.00, 
2431.00, 
2432.00, 
2433.00, 
2434.00, 
2435.00, 
2436.00, 
2437.00, 
2438.00, 
2439.00, 
2440.00, 
2441.00, 
2442.00, 
2443.00, 
2444.00, 
2445.00, 
2446.00, 
2447.00, 
2448.00, 
2449.00, 
2450.00, 
2451.00, 
2452.00, 
2453.00, 
2454.00, 
2455.00, 
2456.00, 
2457.00, 
2458.00, 
2459.00, 
2460.00, 
2461.00, 
2462.00, 
2463.00, 
2464.00, 
2465.00, 
2466.00, 
2467.00, 
2468.00, 
2469.00, 
2470.00, 
2471.00, 
2472.00, 
2473.00, 
2474.00, 
2475.00, 
2476.00, 
2477.00, 
2478.00, 
2479.00, 
2480.00, 
2481.00, 
2482.00, 
2483.00, 
2484.00, 
2485.00, 
2486.00, 
2487.00, 
2488.00, 
2489.00, 
2490.00, 
2491.00, 
2492.00, 
2493.00, 
2494.00, 
2495.00, 
2496.00, 
2497.00, 
2498.00, 
2499.00, 
2500.00, 
2501.00, 
2502.00, 
2503.00, 
2504.00, 
2505.00, 
2506.00, 
2507.00, 
2508.00, 
2509.00, 
2510.00, 
2511.00, 
2512.00, 
2513.00, 
2514.00, 
2515.00, 
2516.00, 
2517.00, 
2518.00, 
2519.00, 
2520.00, 
2521.00, 
2522.00, 
2523.00, 
2524.00, 
2525.00, 
2526.00, 
2527.00, 
2528.00, 
2529.00, 
2530.00, 
2531.00, 
2532.00, 
2533.00, 
2534.00, 
2535.00, 
2536.00, 
2537.00, 
2538.00, 
2539.00, 
2540.00, 
2541.00, 
2542.00, 
2543.00, 
2544.00, 
2545.00, 
2546.00, 
2547.00, 
2548.00, 
2549.00, 
2550.00, 
2551.00, 
2552.00, 
2553.00, 
2554.00, 
2555.00, 
2556.00, 
2557.00, 
2558.00, 
2559.00, 
2560.00, 
2561.00, 
2562.00, 
2563.00, 
2564.00, 
2565.00, 
2566.00, 
2567.00, 
2568.00, 
2569.00, 
2570.00, 
2571.00, 
2572.00, 
2573.00, 
2574.00, 
2575.00, 
2576.00, 
2577.00, 
2578.00, 
2579.00, 
2580.00, 
2581.00, 
2582.00, 
2583.00, 
2584.00, 
2585.00, 
2586.00, 
2587.00, 
2588.00, 
2589.00, 
2590.00, 
2591.00, 
2592.00, 
2593.00, 
2594.00, 
2595.00, 
2596.00, 
2597.00, 
2598.00, 
2599.00, 
2600.00, 
