"2cP3 - RawData"
"Wavelength nm.","T%"
200.00,-0.001
201.00,-0.001
202.00,-0.002
203.00,-0.003
204.00,0.003
205.00,0.003
206.00,0.002
207.00,-0.001
208.00,0.004
209.00,0.002
210.00,-0.002
211.00,0.001
212.00,0.003
213.00,0.002
214.00,0.000
215.00,-0.000
216.00,-0.001
217.00,0.002
218.00,0.004
219.00,0.001
220.00,0.001
221.00,0.000
222.00,0.004
223.00,-0.000
224.00,0.001
225.00,0.000
226.00,-0.001
227.00,0.000
228.00,0.004
229.00,0.002
230.00,0.000
231.00,-0.001
232.00,0.002
233.00,0.001
234.00,0.001
235.00,0.001
236.00,0.002
237.00,0.001
238.00,0.001
239.00,-0.000
240.00,0.002
241.00,-0.000
242.00,0.001
243.00,0.001
244.00,0.002
245.00,0.001
246.00,-0.000
247.00,0.001
248.00,0.000
249.00,0.001
250.00,-0.002
251.00,-0.001
252.00,-0.001
253.00,0.002
254.00,0.001
255.00,-0.000
256.00,0.001
257.00,0.001
258.00,-0.001
259.00,0.001
260.00,-0.000
261.00,0.002
262.00,0.000
263.00,0.001
264.00,-0.000
265.00,0.001
266.00,0.001
267.00,0.000
268.00,-0.001
269.00,-0.001
270.00,0.002
271.00,0.001
272.00,-0.001
273.00,0.001
274.00,0.001
275.00,0.000
276.00,-0.000
277.00,0.001
278.00,-0.000
279.00,0.001
280.00,0.000
281.00,-0.000
282.00,0.001
283.00,0.000
284.00,-0.001
285.00,0.000
286.00,-0.001
287.00,0.001
288.00,-0.000
289.00,-0.001
290.00,-0.000
291.00,-0.000
292.00,0.000
293.00,0.002
294.00,-0.000
295.00,0.000
296.00,-0.001
297.00,0.001
298.00,-0.000
299.00,0.001
300.00,0.002
301.00,0.003
302.00,0.006
303.00,0.010
304.00,0.015
305.00,0.023
306.00,0.034
307.00,0.053
308.00,0.080
309.00,0.125
310.00,0.172
311.00,0.236
312.00,0.328
313.00,0.433
314.00,0.583
315.00,0.758
316.00,0.966
317.00,1.223
318.00,1.500
319.00,1.847
320.00,2.263
321.00,2.706
322.00,3.216
323.00,3.697
324.00,4.392
325.00,5.027
326.00,5.678
327.00,6.421
328.00,7.176
329.00,7.937
330.00,8.745
331.00,9.564
332.00,10.434
333.00,11.278
334.00,12.156
335.00,12.990
336.00,13.889
337.00,14.769
338.00,15.619
339.00,16.372
340.00,17.254
341.00,17.997
342.00,18.787
343.00,19.537
344.00,20.218
345.00,20.925
346.00,21.493
347.00,22.118
348.00,22.686
349.00,23.283
350.00,23.762
351.00,24.195
352.00,24.666
353.00,25.119
354.00,25.610
355.00,25.944
356.00,26.315
357.00,26.664
358.00,27.003
359.00,27.338
360.00,27.585
361.00,27.812
362.00,28.032
363.00,28.289
364.00,28.501
365.00,28.707
366.00,28.848
367.00,28.975
368.00,29.124
369.00,29.235
370.00,29.357
371.00,29.401
372.00,29.534
373.00,29.516
374.00,29.522
375.00,29.543
376.00,29.542
377.00,29.508
378.00,29.500
379.00,29.475
380.00,29.444
381.00,29.470
382.00,29.511
383.00,29.564
384.00,29.649
385.00,29.709
386.00,29.770
387.00,29.858
388.00,29.960
389.00,29.990
390.00,30.077
391.00,30.154
392.00,30.177
393.00,30.219
394.00,30.271
395.00,30.304
396.00,30.348
397.00,30.377
398.00,30.422
399.00,30.432
400.00,30.456
401.00,30.487
402.00,30.404
403.00,30.498
404.00,30.427
405.00,30.515
406.00,30.507
407.00,30.491
408.00,30.470
409.00,30.427
410.00,30.407
411.00,30.363
412.00,30.332
413.00,30.384
414.00,30.386
415.00,30.345
416.00,30.427
417.00,30.464
418.00,30.470
419.00,30.513
420.00,30.474
421.00,30.581
422.00,30.610
423.00,30.625
424.00,30.622
425.00,30.659
426.00,30.716
427.00,30.757
428.00,30.817
429.00,30.845
430.00,30.864
431.00,30.910
432.00,30.935
433.00,31.028
434.00,31.047
435.00,31.091
436.00,31.123
437.00,31.205
438.00,31.245
439.00,31.315
440.00,31.408
441.00,31.425
442.00,31.494
443.00,31.593
444.00,31.668
445.00,31.694
446.00,31.779
447.00,31.862
448.00,31.897
449.00,32.074
450.00,32.158
451.00,32.231
452.00,32.314
453.00,32.429
454.00,32.522
455.00,32.585
456.00,32.685
457.00,32.742
458.00,32.873
459.00,32.929
460.00,33.020
461.00,33.144
462.00,33.247
463.00,33.322
464.00,33.445
465.00,33.510
466.00,33.658
467.00,33.763
468.00,33.815
469.00,33.987
470.00,34.019
471.00,34.086
472.00,34.194
473.00,34.225
474.00,34.293
475.00,34.394
476.00,34.431
477.00,34.564
478.00,34.679
479.00,34.773
480.00,34.909
481.00,35.022
482.00,35.127
483.00,35.253
484.00,35.384
485.00,35.552
486.00,35.624
487.00,35.814
488.00,35.877
489.00,36.050
490.00,36.157
491.00,36.253
492.00,36.415
493.00,36.485
494.00,36.521
495.00,36.584
496.00,36.697
497.00,36.820
498.00,36.911
499.00,36.927
500.00,37.182
501.00,37.247
502.00,37.299
503.00,37.397
504.00,37.469
505.00,37.516
506.00,37.728
507.00,37.817
508.00,37.885
509.00,38.053
510.00,38.132
511.00,38.226
512.00,38.295
513.00,38.409
514.00,38.547
515.00,38.604
516.00,38.683
517.00,38.766
518.00,38.899
519.00,38.907
520.00,39.024
521.00,39.032
522.00,39.110
523.00,39.232
524.00,39.226
525.00,39.350
526.00,39.451
527.00,39.510
528.00,39.633
529.00,39.709
530.00,39.763
531.00,39.944
532.00,40.028
533.00,40.068
534.00,40.196
535.00,40.245
536.00,40.316
537.00,40.371
538.00,40.469
539.00,40.499
540.00,40.541
541.00,40.605
542.00,40.623
543.00,40.695
544.00,40.819
545.00,40.863
546.00,40.898
547.00,40.973
548.00,41.038
549.00,40.962
550.00,41.195
551.00,41.261
552.00,41.322
553.00,41.393
554.00,41.422
555.00,41.465
556.00,41.546
557.00,41.614
558.00,41.589
559.00,41.734
560.00,41.785
561.00,41.801
562.00,41.914
563.00,41.873
564.00,41.845
565.00,41.993
566.00,42.010
567.00,42.075
568.00,42.119
569.00,42.066
570.00,42.080
571.00,42.215
572.00,42.191
573.00,42.229
574.00,42.305
575.00,42.332
576.00,42.329
577.00,42.380
578.00,42.482
579.00,42.471
580.00,42.605
581.00,42.758
582.00,42.773
583.00,42.857
584.00,42.970
585.00,42.985
586.00,42.996
587.00,43.120
588.00,43.133
589.00,43.119
590.00,43.210
591.00,43.204
592.00,43.175
593.00,43.228
594.00,43.269
595.00,43.296
596.00,43.372
597.00,43.394
598.00,43.517
599.00,43.530
600.00,43.606
601.00,43.647
602.00,43.639
603.00,43.649
604.00,43.724
605.00,43.739
606.00,43.798
607.00,43.856
608.00,43.939
609.00,43.935
610.00,43.852
611.00,43.993
612.00,43.930
613.00,44.008
614.00,43.957
615.00,44.047
616.00,44.198
617.00,44.151
618.00,44.207
619.00,44.276
620.00,44.285
621.00,44.290
622.00,44.348
623.00,44.389
624.00,44.490
625.00,44.548
626.00,44.556
627.00,44.668
628.00,44.641
629.00,44.635
630.00,44.717
631.00,44.710
632.00,44.736
633.00,44.833
634.00,44.825
635.00,44.877
636.00,45.039
637.00,45.125
638.00,45.193
639.00,45.166
640.00,45.170
641.00,45.229
642.00,45.294
643.00,45.332
644.00,45.429
645.00,45.432
646.00,45.530
647.00,45.559
648.00,45.620
649.00,45.641
650.00,45.591
651.00,45.727
652.00,45.762
653.00,45.798
654.00,45.828
655.00,45.778
656.00,45.965
657.00,46.276
658.00,46.224
659.00,46.258
660.00,46.259
661.00,46.268
662.00,46.208
663.00,46.372
664.00,46.404
665.00,46.464
666.00,46.634
667.00,46.757
668.00,46.691
669.00,46.649
670.00,46.804
671.00,46.842
672.00,46.739
673.00,46.862
674.00,47.013
675.00,46.971
676.00,47.095
677.00,47.135
678.00,46.995
679.00,47.062
680.00,47.154
681.00,47.205
682.00,47.284
683.00,47.320
684.00,47.476
685.00,47.509
686.00,47.349
687.00,47.558
688.00,47.665
689.00,47.655
690.00,47.680
691.00,47.725
692.00,47.687
693.00,47.636
694.00,47.673
695.00,47.863
696.00,47.800
697.00,47.870
698.00,48.005
699.00,47.944
700.00,48.088
701.00,48.109
702.00,48.093
703.00,48.225
704.00,48.308
705.00,48.211
706.00,48.145
707.00,48.336
708.00,48.415
709.00,48.531
710.00,48.555
711.00,48.455
712.00,48.442
713.00,48.538
714.00,48.454
715.00,48.590
716.00,48.566
717.00,48.564
718.00,48.665
719.00,48.673
720.00,48.787
721.00,53.031
722.00,53.009
723.00,52.964
724.00,53.002
725.00,53.048
726.00,52.878
727.00,52.951
728.00,52.916
729.00,52.947
730.00,52.886
731.00,52.966
732.00,52.854
733.00,52.897
734.00,52.932
735.00,52.884
736.00,52.942
737.00,52.839
738.00,52.877
739.00,52.912
740.00,52.845
741.00,52.906
742.00,52.847
743.00,52.862
744.00,52.767
745.00,52.834
746.00,52.796
747.00,52.761
748.00,52.743
749.00,52.654
750.00,52.652
751.00,52.590
752.00,52.651
753.00,52.635
754.00,52.564
755.00,52.594
756.00,52.533
757.00,52.527
758.00,52.552
759.00,52.559
760.00,52.503
761.00,52.498
762.00,52.403
763.00,52.540
764.00,52.488
765.00,52.496
766.00,52.367
767.00,52.448
768.00,52.447
769.00,52.402
770.00,52.385
771.00,52.459
772.00,52.323
773.00,52.397
774.00,52.377
775.00,52.395
776.00,52.313
777.00,52.303
778.00,52.318
779.00,52.304
780.00,52.320
781.00,52.308
782.00,52.327
783.00,52.179
784.00,52.232
785.00,52.265
786.00,52.206
787.00,52.180
788.00,52.180
789.00,52.146
790.00,52.124
791.00,52.075
792.00,52.034
793.00,52.045
794.00,51.979
795.00,52.024
796.00,51.983
797.00,51.932
798.00,51.887
799.00,51.938
800.00,51.816
801.00,51.919
802.00,51.756
803.00,51.865
804.00,51.764
805.00,51.799
806.00,51.847
807.00,51.691
808.00,51.665
809.00,51.676
810.00,51.688
811.00,51.614
812.00,51.692
813.00,51.676
814.00,51.597
815.00,51.635
816.00,51.591
817.00,51.493
818.00,51.470
819.00,51.485
820.00,51.406
821.00,51.461
822.00,51.400
823.00,51.377
824.00,51.274
825.00,51.361
826.00,51.312
827.00,51.392
828.00,51.293
829.00,51.222
830.00,51.179
831.00,53.915
832.00,53.887
833.00,53.857
834.00,53.829
835.00,53.771
836.00,53.802
837.00,53.698
838.00,53.657
839.00,53.686
840.00,53.656
841.00,53.631
842.00,53.601
843.00,53.606
844.00,53.542
845.00,53.543
846.00,53.511
847.00,53.514
848.00,53.481
849.00,53.369
850.00,53.397
851.00,53.425
852.00,53.332
853.00,53.260
854.00,53.256
855.00,53.185
856.00,53.179
857.00,53.176
858.00,53.111
859.00,53.116
860.00,53.110
861.00,53.079
862.00,53.028
863.00,53.064
864.00,53.018
865.00,53.033
866.00,52.988
867.00,52.973
868.00,52.925
869.00,52.929
870.00,52.918
871.00,52.879
872.00,52.868
873.00,52.875
874.00,52.838
875.00,52.829
876.00,52.811
877.00,52.820
878.00,52.809
879.00,52.772
880.00,52.767
881.00,52.686
882.00,52.906
883.00,52.709
884.00,52.696
885.00,52.664
886.00,52.641
887.00,52.640
888.00,52.601
889.00,52.585
890.00,52.565
891.00,52.530
892.00,52.495
893.00,52.495
894.00,52.485
895.00,52.460
896.00,52.406
897.00,52.489
898.00,52.391
899.00,52.374
900.00,52.365
901.00,52.353
902.00,52.318
903.00,52.283
904.00,52.299
905.00,52.258
906.00,52.256
907.00,52.226
908.00,52.220
909.00,52.195
910.00,52.159
911.00,52.151
912.00,52.182
913.00,52.106
914.00,52.075
915.00,52.046
916.00,52.052
917.00,52.020
918.00,52.002
919.00,51.967
920.00,51.942
921.00,51.934
922.00,51.927
923.00,51.892
924.00,51.865
925.00,51.849
926.00,51.833
927.00,51.832
928.00,51.791
929.00,51.777
930.00,51.756
931.00,51.749
932.00,51.734
933.00,51.705
934.00,51.711
935.00,51.699
936.00,51.620
937.00,51.652
938.00,51.609
939.00,51.611
940.00,51.580
941.00,51.574
942.00,51.512
943.00,51.521
944.00,51.496
945.00,51.476
946.00,51.486
947.00,51.448
948.00,51.406
949.00,51.407
950.00,51.395
951.00,51.338
952.00,51.345
953.00,51.312
954.00,51.286
955.00,51.242
956.00,51.225
957.00,51.195
958.00,51.209
959.00,51.135
960.00,51.138
961.00,51.109
962.00,51.115
963.00,51.075
964.00,51.065
965.00,51.044
966.00,51.042
967.00,51.034
968.00,51.016
969.00,51.034
970.00,50.990
971.00,51.009
972.00,50.989
973.00,51.008
974.00,51.034
975.00,50.997
976.00,51.003
977.00,50.995
978.00,51.023
979.00,50.993
980.00,51.020
981.00,50.977
982.00,50.959
983.00,51.073
984.00,50.983
985.00,50.988
986.00,50.933
987.00,50.946
988.00,50.925
989.00,50.913
990.00,50.928
991.00,50.896
992.00,50.895
993.00,50.880
994.00,50.866
995.00,50.852
996.00,50.835
997.00,50.810
998.00,50.828
999.00,50.822
1000.00,50.764
1001.00,50.785
1002.00,50.768
1003.00,50.760
1004.00,50.748
1005.00,50.722
1006.00,50.735
1007.00,50.703
1008.00,50.703
1009.00,50.670
1010.00,50.668
1011.00,50.647
1012.00,50.646
1013.00,50.639
1014.00,50.571
1015.00,50.608
1016.00,50.570
1017.00,50.563
1018.00,50.551
1019.00,50.523
1020.00,50.496
1021.00,50.483
1022.00,50.476
1023.00,50.435
1024.00,50.437
1025.00,50.414
1026.00,50.423
1027.00,50.392
1028.00,50.375
1029.00,50.376
1030.00,50.333
1031.00,50.347
1032.00,50.300
1033.00,50.306
1034.00,50.277
1035.00,50.245
1036.00,50.222
1037.00,50.206
1038.00,50.191
1039.00,50.149
1040.00,50.158
1041.00,50.114
1042.00,50.103
1043.00,50.081
1044.00,50.109
1045.00,50.109
1046.00,50.096
1047.00,50.082
1048.00,50.103
1049.00,50.120
1050.00,50.121
1051.00,50.159
1052.00,50.163
1053.00,50.163
1054.00,50.183
1055.00,50.177
1056.00,50.202
1057.00,50.196
1058.00,50.171
1059.00,50.194
1060.00,50.172
1061.00,50.166
1062.00,50.163
1063.00,50.158
1064.00,50.139
1065.00,50.150
1066.00,50.117
1067.00,50.100
1068.00,50.119
1069.00,50.065
1070.00,50.071
1071.00,50.050
1072.00,50.064
1073.00,50.038
1074.00,50.032
1075.00,50.019
1076.00,50.030
1077.00,50.010
1078.00,50.016
1079.00,50.005
1080.00,49.999
1081.00,49.987
1082.00,49.988
1083.00,49.977
1084.00,49.968
1085.00,49.954
1086.00,49.952
1087.00,49.937
1088.00,49.905
1089.00,49.913
1090.00,49.902
1091.00,49.875
1092.00,49.886
1093.00,49.866
1094.00,49.856
1095.00,49.846
1096.00,49.834
1097.00,49.826
1098.00,49.833
1099.00,49.807
1100.00,49.803
1101.00,49.776
1102.00,49.764
1103.00,49.771
1104.00,49.784
1105.00,49.786
1106.00,49.757
1107.00,49.733
1108.00,49.737
1109.00,49.721
1110.00,49.716
1111.00,49.719
1112.00,49.702
1113.00,49.681
1114.00,49.687
1115.00,49.668
1116.00,49.666
1117.00,49.655
1118.00,49.647
1119.00,49.646
1120.00,49.638
1121.00,49.614
1122.00,49.621
1123.00,49.617
1124.00,49.591
1125.00,49.589
1126.00,49.590
1127.00,49.581
1128.00,49.582
1129.00,49.552
1130.00,49.548
1131.00,49.542
1132.00,49.526
1133.00,49.529
1134.00,49.526
1135.00,49.520
1136.00,49.532
1137.00,49.516
1138.00,49.501
1139.00,49.515
1140.00,49.494
1141.00,49.489
1142.00,49.484
1143.00,49.500
1144.00,49.488
1145.00,49.501
1146.00,49.472
1147.00,49.464
1148.00,49.465
1149.00,49.453
1150.00,49.458
1151.00,49.458
1152.00,49.433
1153.00,49.433
1154.00,49.420
1155.00,49.439
1156.00,49.425
1157.00,49.407
1158.00,49.420
1159.00,49.420
1160.00,49.414
1161.00,49.424
1162.00,49.398
1163.00,49.413
1164.00,49.411
1165.00,49.398
1166.00,49.421
1167.00,49.392
1168.00,49.386
1169.00,49.399
1170.00,49.410
1171.00,49.375
1172.00,49.387
1173.00,49.385
1174.00,49.389
1175.00,49.387
1176.00,49.378
1177.00,49.374
1178.00,49.378
1179.00,49.363
1180.00,49.367
1181.00,49.387
1182.00,49.360
1183.00,49.358
1184.00,49.339
1185.00,49.357
1186.00,49.340
1187.00,49.348
1188.00,49.343
1189.00,49.343
1190.00,49.322
1191.00,49.336
1192.00,49.354
1193.00,49.326
1194.00,49.350
1195.00,49.321
1196.00,49.350
1197.00,49.345
1198.00,49.327
1199.00,49.332
1200.00,49.324
1201.00,49.318
1202.00,49.317
1203.00,49.323
1204.00,49.294
1205.00,49.333
1206.00,49.314
1207.00,49.327
1208.00,49.307
1209.00,49.297
1210.00,49.307
1211.00,49.302
1212.00,49.302
1213.00,49.287
1214.00,49.308
1215.00,49.284
1216.00,49.296
1217.00,49.293
1218.00,49.284
1219.00,49.295
1220.00,49.277
1221.00,49.310
1222.00,49.293
1223.00,49.283
1224.00,49.307
1225.00,49.287
1226.00,49.297
1227.00,49.316
1228.00,49.299
1229.00,49.310
1230.00,49.347
1231.00,49.328
1232.00,49.343
1233.00,49.330
1234.00,49.328
1235.00,49.329
1236.00,49.330
1237.00,49.316
1238.00,49.344
1239.00,49.331
1240.00,49.334
1241.00,49.367
1242.00,49.344
1243.00,49.349
1244.00,49.327
1245.00,49.344
1246.00,49.360
1247.00,49.354
1248.00,49.346
1249.00,49.364
1250.00,49.354
1251.00,49.358
1252.00,49.374
1253.00,49.356
1254.00,49.402
1255.00,49.383
1256.00,49.350
1257.00,49.331
1258.00,49.383
1259.00,49.370
1260.00,49.410
1261.00,49.394
1262.00,49.388
1263.00,49.393
1264.00,49.391
1265.00,49.394
1266.00,49.392
1267.00,49.381
1268.00,49.416
1269.00,49.417
1270.00,49.414
1271.00,49.408
1272.00,49.418
1273.00,49.425
1274.00,49.429
1275.00,49.435
1276.00,49.446
1277.00,49.437
1278.00,49.444
1279.00,49.473
1280.00,49.473
1281.00,49.460
1282.00,49.483
1283.00,49.480
1284.00,49.486
1285.00,49.462
1286.00,49.451
1287.00,49.474
1288.00,49.480
1289.00,49.471
1290.00,49.502
1291.00,49.495
1292.00,49.492
1293.00,49.497
1294.00,49.505
1295.00,49.517
1296.00,49.525
1297.00,49.518
1298.00,49.532
1299.00,49.514
1300.00,49.525
1301.00,49.538
1302.00,49.542
1303.00,49.556
1304.00,49.534
1305.00,49.552
1306.00,49.555
1307.00,49.574
1308.00,49.555
1309.00,49.554
1310.00,49.559
1311.00,49.558
1312.00,49.586
1313.00,49.587
1314.00,49.592
1315.00,49.621
1316.00,49.618
1317.00,49.641
1318.00,49.637
1319.00,49.626
1320.00,49.662
1321.00,49.798
1322.00,49.801
1323.00,49.769
1324.00,49.786
1325.00,49.756
1326.00,49.794
1327.00,49.766
1328.00,49.772
1329.00,49.783
1330.00,49.784
1331.00,49.790
1332.00,49.781
1333.00,49.788
1334.00,49.815
1335.00,49.831
1336.00,49.850
1337.00,49.879
1338.00,49.943
1339.00,49.987
1340.00,50.044
1341.00,50.100
1342.00,50.180
1343.00,50.221
1344.00,50.256
1345.00,50.321
1346.00,50.364
1347.00,50.374
1348.00,50.381
1349.00,50.431
1350.00,50.469
1351.00,50.476
1352.00,50.468
1353.00,50.466
1354.00,50.476
1355.00,50.391
1356.00,50.499
1357.00,50.478
1358.00,50.471
1359.00,50.511
1360.00,50.575
1361.00,50.482
1362.00,50.470
1363.00,50.549
1364.00,50.469
1365.00,50.503
1366.00,50.543
1367.00,50.492
1368.00,50.447
1369.00,50.466
1370.00,50.470
1371.00,50.420
1372.00,50.464
1373.00,50.455
1374.00,50.458
1375.00,50.468
1376.00,50.469
1377.00,50.365
1378.00,50.581
1379.00,50.509
1380.00,50.459
1381.00,50.474
1382.00,50.444
1383.00,50.463
1384.00,50.443
1385.00,50.412
1386.00,50.462
1387.00,50.442
1388.00,50.405
1389.00,50.344
1390.00,50.461
1391.00,50.433
1392.00,50.436
1393.00,50.469
1394.00,50.417
1395.00,50.398
1396.00,50.402
1397.00,50.460
1398.00,50.546
1399.00,50.474
1400.00,50.446
1401.00,50.442
1402.00,50.484
1403.00,50.447
1404.00,50.479
1405.00,50.500
1406.00,50.495
1407.00,50.497
1408.00,50.476
1409.00,50.459
1410.00,50.522
1411.00,50.475
1412.00,50.510
1413.00,50.468
1414.00,50.488
1415.00,50.538
1416.00,50.566
1417.00,50.573
1418.00,50.573
1419.00,50.562
1420.00,50.582
1421.00,50.617
1422.00,50.627
1423.00,50.627
1424.00,50.639
1425.00,50.646
1426.00,50.667
1427.00,50.678
1428.00,50.679
1429.00,50.722
1430.00,50.717
1431.00,50.721
1432.00,50.743
1433.00,50.755
1434.00,50.756
1435.00,50.789
1436.00,50.790
1437.00,50.797
1438.00,50.828
1439.00,50.850
1440.00,50.860
1441.00,50.856
1442.00,50.869
1443.00,50.954
1444.00,50.926
1445.00,50.912
1446.00,50.917
1447.00,50.954
1448.00,50.972
1449.00,50.986
1450.00,50.977
1451.00,51.000
1452.00,51.013
1453.00,51.040
1454.00,51.036
1455.00,51.061
1456.00,51.075
1457.00,51.091
1458.00,51.106
1459.00,51.118
1460.00,51.130
1461.00,51.144
1462.00,51.172
1463.00,51.185
1464.00,51.193
1465.00,51.196
1466.00,51.202
1467.00,51.224
1468.00,51.257
1469.00,51.262
1470.00,51.265
1471.00,51.285
1472.00,51.299
1473.00,51.299
1474.00,51.332
1475.00,51.326
1476.00,51.351
1477.00,51.340
1478.00,51.371
1479.00,51.403
1480.00,51.387
1481.00,51.396
1482.00,51.426
1483.00,51.429
1484.00,51.441
1485.00,51.456
1486.00,51.463
1487.00,51.469
1488.00,51.484
1489.00,51.484
1490.00,51.490
1491.00,51.507
1492.00,51.516
1493.00,51.535
1494.00,51.549
1495.00,51.557
1496.00,51.569
1497.00,51.556
1498.00,51.555
1499.00,51.582
1500.00,51.600
1501.00, 
1502.00, 
1503.00, 
1504.00, 
1505.00, 
1506.00, 
1507.00, 
1508.00, 
1509.00, 
1510.00, 
1511.00, 
1512.00, 
1513.00, 
1514.00, 
1515.00, 
1516.00, 
1517.00, 
1518.00, 
1519.00, 
1520.00, 
1521.00, 
1522.00, 
1523.00, 
1524.00, 
1525.00, 
1526.00, 
1527.00, 
1528.00, 
1529.00, 
1530.00, 
1531.00, 
1532.00, 
1533.00, 
1534.00, 
1535.00, 
1536.00, 
1537.00, 
1538.00, 
1539.00, 
1540.00, 
1541.00, 
1542.00, 
1543.00, 
1544.00, 
1545.00, 
1546.00, 
1547.00, 
1548.00, 
1549.00, 
1550.00, 
1551.00, 
1552.00, 
1553.00, 
1554.00, 
1555.00, 
1556.00, 
1557.00, 
1558.00, 
1559.00, 
1560.00, 
1561.00, 
1562.00, 
1563.00, 
1564.00, 
1565.00, 
1566.00, 
1567.00, 
1568.00, 
1569.00, 
1570.00, 
1571.00, 
1572.00, 
1573.00, 
1574.00, 
1575.00, 
1576.00, 
1577.00, 
1578.00, 
1579.00, 
1580.00, 
1581.00, 
1582.00, 
1583.00, 
1584.00, 
1585.00, 
1586.00, 
1587.00, 
1588.00, 
1589.00, 
1590.00, 
1591.00, 
1592.00, 
1593.00, 
1594.00, 
1595.00, 
1596.00, 
1597.00, 
1598.00, 
1599.00, 
1600.00, 
1601.00, 
1602.00, 
1603.00, 
1604.00, 
1605.00, 
1606.00, 
1607.00, 
1608.00, 
1609.00, 
1610.00, 
1611.00, 
1612.00, 
1613.00, 
1614.00, 
1615.00, 
1616.00, 
1617.00, 
1618.00, 
1619.00, 
1620.00, 
1621.00, 
1622.00, 
1623.00, 
1624.00, 
1625.00, 
1626.00, 
1627.00, 
1628.00, 
1629.00, 
1630.00, 
1631.00, 
1632.00, 
1633.00, 
1634.00, 
1635.00, 
1636.00, 
1637.00, 
1638.00, 
1639.00, 
1640.00, 
1641.00, 
1642.00, 
1643.00, 
1644.00, 
1645.00, 
1646.00, 
1647.00, 
1648.00, 
1649.00, 
1650.00, 
1651.00, 
1652.00, 
1653.00, 
1654.00, 
1655.00, 
1656.00, 
1657.00, 
1658.00, 
1659.00, 
1660.00, 
1661.00, 
1662.00, 
1663.00, 
1664.00, 
1665.00, 
1666.00, 
1667.00, 
1668.00, 
1669.00, 
1670.00, 
1671.00, 
1672.00, 
1673.00, 
1674.00, 
1675.00, 
1676.00, 
1677.00, 
1678.00, 
1679.00, 
1680.00, 
1681.00, 
1682.00, 
1683.00, 
1684.00, 
1685.00, 
1686.00, 
1687.00, 
1688.00, 
1689.00, 
1690.00, 
1691.00, 
1692.00, 
1693.00, 
1694.00, 
1695.00, 
1696.00, 
1697.00, 
1698.00, 
1699.00, 
1700.00, 
1701.00, 
1702.00, 
1703.00, 
1704.00, 
1705.00, 
1706.00, 
1707.00, 
1708.00, 
1709.00, 
1710.00, 
1711.00, 
1712.00, 
1713.00, 
1714.00, 
1715.00, 
1716.00, 
1717.00, 
1718.00, 
1719.00, 
1720.00, 
1721.00, 
1722.00, 
1723.00, 
1724.00, 
1725.00, 
1726.00, 
1727.00, 
1728.00, 
1729.00, 
1730.00, 
1731.00, 
1732.00, 
1733.00, 
1734.00, 
1735.00, 
1736.00, 
1737.00, 
1738.00, 
1739.00, 
1740.00, 
1741.00, 
1742.00, 
1743.00, 
1744.00, 
1745.00, 
1746.00, 
1747.00, 
1748.00, 
1749.00, 
1750.00, 
1751.00, 
1752.00, 
1753.00, 
1754.00, 
1755.00, 
1756.00, 
1757.00, 
1758.00, 
1759.00, 
1760.00, 
1761.00, 
1762.00, 
1763.00, 
1764.00, 
1765.00, 
1766.00, 
1767.00, 
1768.00, 
1769.00, 
1770.00, 
1771.00, 
1772.00, 
1773.00, 
1774.00, 
1775.00, 
1776.00, 
1777.00, 
1778.00, 
1779.00, 
1780.00, 
1781.00, 
1782.00, 
1783.00, 
1784.00, 
1785.00, 
1786.00, 
1787.00, 
1788.00, 
1789.00, 
1790.00, 
1791.00, 
1792.00, 
1793.00, 
1794.00, 
1795.00, 
1796.00, 
1797.00, 
1798.00, 
1799.00, 
1800.00, 
1801.00, 
1802.00, 
1803.00, 
1804.00, 
1805.00, 
1806.00, 
1807.00, 
1808.00, 
1809.00, 
1810.00, 
1811.00, 
1812.00, 
1813.00, 
1814.00, 
1815.00, 
1816.00, 
1817.00, 
1818.00, 
1819.00, 
1820.00, 
1821.00, 
1822.00, 
1823.00, 
1824.00, 
1825.00, 
1826.00, 
1827.00, 
1828.00, 
1829.00, 
1830.00, 
1831.00, 
1832.00, 
1833.00, 
1834.00, 
1835.00, 
1836.00, 
1837.00, 
1838.00, 
1839.00, 
1840.00, 
1841.00, 
1842.00, 
1843.00, 
1844.00, 
1845.00, 
1846.00, 
1847.00, 
1848.00, 
1849.00, 
1850.00, 
1851.00, 
1852.00, 
1853.00, 
1854.00, 
1855.00, 
1856.00, 
1857.00, 
1858.00, 
1859.00, 
1860.00, 
1861.00, 
1862.00, 
1863.00, 
1864.00, 
1865.00, 
1866.00, 
1867.00, 
1868.00, 
1869.00, 
1870.00, 
1871.00, 
1872.00, 
1873.00, 
1874.00, 
1875.00, 
1876.00, 
1877.00, 
1878.00, 
1879.00, 
1880.00, 
1881.00, 
1882.00, 
1883.00, 
1884.00, 
1885.00, 
1886.00, 
1887.00, 
1888.00, 
1889.00, 
1890.00, 
1891.00, 
1892.00, 
1893.00, 
1894.00, 
1895.00, 
1896.00, 
1897.00, 
1898.00, 
1899.00, 
1900.00, 
1901.00, 
1902.00, 
1903.00, 
1904.00, 
1905.00, 
1906.00, 
1907.00, 
1908.00, 
1909.00, 
1910.00, 
1911.00, 
1912.00, 
1913.00, 
1914.00, 
1915.00, 
1916.00, 
1917.00, 
1918.00, 
1919.00, 
1920.00, 
1921.00, 
1922.00, 
1923.00, 
1924.00, 
1925.00, 
1926.00, 
1927.00, 
1928.00, 
1929.00, 
1930.00, 
1931.00, 
1932.00, 
1933.00, 
1934.00, 
1935.00, 
1936.00, 
1937.00, 
1938.00, 
1939.00, 
1940.00, 
1941.00, 
1942.00, 
1943.00, 
1944.00, 
1945.00, 
1946.00, 
1947.00, 
1948.00, 
1949.00, 
1950.00, 
1951.00, 
1952.00, 
1953.00, 
1954.00, 
1955.00, 
1956.00, 
1957.00, 
1958.00, 
1959.00, 
1960.00, 
1961.00, 
1962.00, 
1963.00, 
1964.00, 
1965.00, 
1966.00, 
1967.00, 
1968.00, 
1969.00, 
1970.00, 
1971.00, 
1972.00, 
1973.00, 
1974.00, 
1975.00, 
1976.00, 
1977.00, 
1978.00, 
1979.00, 
1980.00, 
1981.00, 
1982.00, 
1983.00, 
1984.00, 
1985.00, 
1986.00, 
1987.00, 
1988.00, 
1989.00, 
1990.00, 
1991.00, 
1992.00, 
1993.00, 
1994.00, 
1995.00, 
1996.00, 
1997.00, 
1998.00, 
1999.00, 
2000.00, 
2001.00, 
2002.00, 
2003.00, 
2004.00, 
2005.00, 
2006.00, 
2007.00, 
2008.00, 
2009.00, 
2010.00, 
2011.00, 
2012.00, 
2013.00, 
2014.00, 
2015.00, 
2016.00, 
2017.00, 
2018.00, 
2019.00, 
2020.00, 
2021.00, 
2022.00, 
2023.00, 
2024.00, 
2025.00, 
2026.00, 
2027.00, 
2028.00, 
2029.00, 
2030.00, 
2031.00, 
2032.00, 
2033.00, 
2034.00, 
2035.00, 
2036.00, 
2037.00, 
2038.00, 
2039.00, 
2040.00, 
2041.00, 
2042.00, 
2043.00, 
2044.00, 
2045.00, 
2046.00, 
2047.00, 
2048.00, 
2049.00, 
2050.00, 
2051.00, 
2052.00, 
2053.00, 
2054.00, 
2055.00, 
2056.00, 
2057.00, 
2058.00, 
2059.00, 
2060.00, 
2061.00, 
2062.00, 
2063.00, 
2064.00, 
2065.00, 
2066.00, 
2067.00, 
2068.00, 
2069.00, 
2070.00, 
2071.00, 
2072.00, 
2073.00, 
2074.00, 
2075.00, 
2076.00, 
2077.00, 
2078.00, 
2079.00, 
2080.00, 
2081.00, 
2082.00, 
2083.00, 
2084.00, 
2085.00, 
2086.00, 
2087.00, 
2088.00, 
2089.00, 
2090.00, 
2091.00, 
2092.00, 
2093.00, 
2094.00, 
2095.00, 
2096.00, 
2097.00, 
2098.00, 
2099.00, 
2100.00, 
2101.00, 
2102.00, 
2103.00, 
2104.00, 
2105.00, 
2106.00, 
2107.00, 
2108.00, 
2109.00, 
2110.00, 
2111.00, 
2112.00, 
2113.00, 
2114.00, 
2115.00, 
2116.00, 
2117.00, 
2118.00, 
2119.00, 
2120.00, 
2121.00, 
2122.00, 
2123.00, 
2124.00, 
2125.00, 
2126.00, 
2127.00, 
2128.00, 
2129.00, 
2130.00, 
2131.00, 
2132.00, 
2133.00, 
2134.00, 
2135.00, 
2136.00, 
2137.00, 
2138.00, 
2139.00, 
2140.00, 
2141.00, 
2142.00, 
2143.00, 
2144.00, 
2145.00, 
2146.00, 
2147.00, 
2148.00, 
2149.00, 
2150.00, 
2151.00, 
2152.00, 
2153.00, 
2154.00, 
2155.00, 
2156.00, 
2157.00, 
2158.00, 
2159.00, 
2160.00, 
2161.00, 
2162.00, 
2163.00, 
2164.00, 
2165.00, 
2166.00, 
2167.00, 
2168.00, 
2169.00, 
2170.00, 
2171.00, 
2172.00, 
2173.00, 
2174.00, 
2175.00, 
2176.00, 
2177.00, 
2178.00, 
2179.00, 
2180.00, 
2181.00, 
2182.00, 
2183.00, 
2184.00, 
2185.00, 
2186.00, 
2187.00, 
2188.00, 
2189.00, 
2190.00, 
2191.00, 
2192.00, 
2193.00, 
2194.00, 
2195.00, 
2196.00, 
2197.00, 
2198.00, 
2199.00, 
2200.00, 
2201.00, 
2202.00, 
2203.00, 
2204.00, 
2205.00, 
2206.00, 
2207.00, 
2208.00, 
2209.00, 
2210.00, 
2211.00, 
2212.00, 
2213.00, 
2214.00, 
2215.00, 
2216.00, 
2217.00, 
2218.00, 
2219.00, 
2220.00, 
2221.00, 
2222.00, 
2223.00, 
2224.00, 
2225.00, 
2226.00, 
2227.00, 
2228.00, 
2229.00, 
2230.00, 
2231.00, 
2232.00, 
2233.00, 
2234.00, 
2235.00, 
2236.00, 
2237.00, 
2238.00, 
2239.00, 
2240.00, 
2241.00, 
2242.00, 
2243.00, 
2244.00, 
2245.00, 
2246.00, 
2247.00, 
2248.00, 
2249.00, 
2250.00, 
2251.00, 
2252.00, 
2253.00, 
2254.00, 
2255.00, 
2256.00, 
2257.00, 
2258.00, 
2259.00, 
2260.00, 
2261.00, 
2262.00, 
2263.00, 
2264.00, 
2265.00, 
2266.00, 
2267.00, 
2268.00, 
2269.00, 
2270.00, 
2271.00, 
2272.00, 
2273.00, 
2274.00, 
2275.00, 
2276.00, 
2277.00, 
2278.00, 
2279.00, 
2280.00, 
2281.00, 
2282.00, 
2283.00, 
2284.00, 
2285.00, 
2286.00, 
2287.00, 
2288.00, 
2289.00, 
2290.00, 
2291.00, 
2292.00, 
2293.00, 
2294.00, 
2295.00, 
2296.00, 
2297.00, 
2298.00, 
2299.00, 
2300.00, 
2301.00, 
2302.00, 
2303.00, 
2304.00, 
2305.00, 
2306.00, 
2307.00, 
2308.00, 
2309.00, 
2310.00, 
2311.00, 
2312.00, 
2313.00, 
2314.00, 
2315.00, 
2316.00, 
2317.00, 
2318.00, 
2319.00, 
2320.00, 
2321.00, 
2322.00, 
2323.00, 
2324.00, 
2325.00, 
2326.00, 
2327.00, 
2328.00, 
2329.00, 
2330.00, 
2331.00, 
2332.00, 
2333.00, 
2334.00, 
2335.00, 
2336.00, 
2337.00, 
2338.00, 
2339.00, 
2340.00, 
2341.00, 
2342.00, 
2343.00, 
2344.00, 
2345.00, 
2346.00, 
2347.00, 
2348.00, 
2349.00, 
2350.00, 
2351.00, 
2352.00, 
2353.00, 
2354.00, 
2355.00, 
2356.00, 
2357.00, 
2358.00, 
2359.00, 
2360.00, 
2361.00, 
2362.00, 
2363.00, 
2364.00, 
2365.00, 
2366.00, 
2367.00, 
2368.00, 
2369.00, 
2370.00, 
2371.00, 
2372.00, 
2373.00, 
2374.00, 
2375.00, 
2376.00, 
2377.00, 
2378.00, 
2379.00, 
2380.00, 
2381.00, 
2382.00, 
2383.00, 
2384.00, 
2385.00, 
2386.00, 
2387.00, 
2388.00, 
2389.00, 
2390.00, 
2391.00, 
2392.00, 
2393.00, 
2394.00, 
2395.00, 
2396.00, 
2397.00, 
2398.00, 
2399.00, 
2400.00, 
2401.00, 
2402.00, 
2403.00, 
2404.00, 
2405.00, 
2406.00, 
2407.00, 
2408.00, 
2409.00, 
2410.00, 
2411.00, 
2412.00, 
2413.00, 
2414.00, 
2415.00, 
2416.00, 
2417.00, 
2418.00, 
2419.00, 
2420.00, 
2421.00, 
2422.00, 
2423.00, 
2424.00, 
2425.00, 
2426.00, 
2427.00, 
2428.00, 
2429.00, 
2430.00, 
2431.00, 
2432.00, 
2433.00, 
2434.00, 
2435.00, 
2436.00, 
2437.00, 
2438.00, 
2439.00, 
2440.00, 
2441.00, 
2442.00, 
2443.00, 
2444.00, 
2445.00, 
2446.00, 
2447.00, 
2448.00, 
2449.00, 
2450.00, 
2451.00, 
2452.00, 
2453.00, 
2454.00, 
2455.00, 
2456.00, 
2457.00, 
2458.00, 
2459.00, 
2460.00, 
2461.00, 
2462.00, 
2463.00, 
2464.00, 
2465.00, 
2466.00, 
2467.00, 
2468.00, 
2469.00, 
2470.00, 
2471.00, 
2472.00, 
2473.00, 
2474.00, 
2475.00, 
2476.00, 
2477.00, 
2478.00, 
2479.00, 
2480.00, 
2481.00, 
2482.00, 
2483.00, 
2484.00, 
2485.00, 
2486.00, 
2487.00, 
2488.00, 
2489.00, 
2490.00, 
2491.00, 
2492.00, 
2493.00, 
2494.00, 
2495.00, 
2496.00, 
2497.00, 
2498.00, 
2499.00, 
2500.00, 
2501.00, 
2502.00, 
2503.00, 
2504.00, 
2505.00, 
2506.00, 
2507.00, 
2508.00, 
2509.00, 
2510.00, 
2511.00, 
2512.00, 
2513.00, 
2514.00, 
2515.00, 
2516.00, 
2517.00, 
2518.00, 
2519.00, 
2520.00, 
2521.00, 
2522.00, 
2523.00, 
2524.00, 
2525.00, 
2526.00, 
2527.00, 
2528.00, 
2529.00, 
2530.00, 
2531.00, 
2532.00, 
2533.00, 
2534.00, 
2535.00, 
2536.00, 
2537.00, 
2538.00, 
2539.00, 
2540.00, 
2541.00, 
2542.00, 
2543.00, 
2544.00, 
2545.00, 
2546.00, 
2547.00, 
2548.00, 
2549.00, 
2550.00, 
2551.00, 
2552.00, 
2553.00, 
2554.00, 
2555.00, 
2556.00, 
2557.00, 
2558.00, 
2559.00, 
2560.00, 
2561.00, 
2562.00, 
2563.00, 
2564.00, 
2565.00, 
2566.00, 
2567.00, 
2568.00, 
2569.00, 
2570.00, 
2571.00, 
2572.00, 
2573.00, 
2574.00, 
2575.00, 
2576.00, 
2577.00, 
2578.00, 
2579.00, 
2580.00, 
2581.00, 
2582.00, 
2583.00, 
2584.00, 
2585.00, 
2586.00, 
2587.00, 
2588.00, 
2589.00, 
2590.00, 
2591.00, 
2592.00, 
2593.00, 
2594.00, 
2595.00, 
2596.00, 
2597.00, 
2598.00, 
2599.00, 
2600.00, 
