"2cP4 - RawData"
"Wavelength nm.","T%"
200.00,-0.001
201.00,-0.001
202.00,0.003
203.00,0.001
204.00,0.003
205.00,-0.003
206.00,0.005
207.00,0.001
208.00,-0.000
209.00,-0.002
210.00,-0.001
211.00,0.003
212.00,0.000
213.00,0.001
214.00,0.002
215.00,-0.001
216.00,0.004
217.00,-0.000
218.00,-0.001
219.00,-0.001
220.00,0.003
221.00,-0.001
222.00,-0.001
223.00,0.002
224.00,0.001
225.00,0.000
226.00,0.001
227.00,0.000
228.00,0.001
229.00,0.001
230.00,0.000
231.00,0.000
232.00,0.000
233.00,0.001
234.00,0.000
235.00,0.001
236.00,-0.001
237.00,0.001
238.00,0.000
239.00,0.003
240.00,0.001
241.00,0.001
242.00,0.001
243.00,-0.000
244.00,0.001
245.00,-0.001
246.00,0.001
247.00,-0.001
248.00,-0.000
249.00,0.000
250.00,0.000
251.00,0.001
252.00,-0.001
253.00,0.001
254.00,-0.001
255.00,0.001
256.00,-0.001
257.00,-0.002
258.00,-0.000
259.00,0.002
260.00,-0.000
261.00,0.002
262.00,-0.001
263.00,0.002
264.00,0.000
265.00,0.001
266.00,-0.003
267.00,-0.000
268.00,0.002
269.00,-0.000
270.00,0.000
271.00,0.001
272.00,-0.001
273.00,0.000
274.00,0.000
275.00,-0.001
276.00,0.000
277.00,0.001
278.00,0.000
279.00,0.000
280.00,0.000
281.00,0.001
282.00,0.002
283.00,0.001
284.00,0.003
285.00,-0.001
286.00,0.000
287.00,-0.001
288.00,-0.001
289.00,0.000
290.00,0.000
291.00,0.001
292.00,-0.001
293.00,-0.000
294.00,-0.000
295.00,0.000
296.00,-0.002
297.00,-0.000
298.00,0.001
299.00,0.000
300.00,0.002
301.00,0.003
302.00,0.007
303.00,0.007
304.00,0.009
305.00,0.018
306.00,0.027
307.00,0.042
308.00,0.066
309.00,0.103
310.00,0.143
311.00,0.195
312.00,0.256
313.00,0.353
314.00,0.461
315.00,0.601
316.00,0.771
317.00,0.983
318.00,1.208
319.00,1.484
320.00,1.800
321.00,2.136
322.00,2.556
323.00,3.013
324.00,3.487
325.00,3.995
326.00,4.498
327.00,5.094
328.00,5.673
329.00,6.279
330.00,6.944
331.00,7.581
332.00,8.223
333.00,8.783
334.00,9.544
335.00,10.251
336.00,10.908
337.00,11.589
338.00,12.252
339.00,12.843
340.00,13.508
341.00,14.042
342.00,14.663
343.00,15.149
344.00,15.798
345.00,16.327
346.00,16.747
347.00,17.192
348.00,17.600
349.00,18.048
350.00,18.389
351.00,18.742
352.00,19.070
353.00,19.396
354.00,19.716
355.00,19.977
356.00,20.244
357.00,20.524
358.00,20.708
359.00,20.954
360.00,21.134
361.00,21.305
362.00,21.445
363.00,21.621
364.00,21.736
365.00,21.863
366.00,21.951
367.00,22.039
368.00,22.097
369.00,22.173
370.00,22.218
371.00,22.256
372.00,22.289
373.00,22.324
374.00,22.303
375.00,22.291
376.00,22.219
377.00,22.179
378.00,22.162
379.00,22.115
380.00,22.070
381.00,22.111
382.00,22.092
383.00,22.091
384.00,22.133
385.00,22.176
386.00,22.185
387.00,22.233
388.00,22.301
389.00,22.339
390.00,22.342
391.00,22.375
392.00,22.402
393.00,22.410
394.00,22.415
395.00,22.461
396.00,22.482
397.00,22.481
398.00,22.503
399.00,22.487
400.00,22.501
401.00,22.521
402.00,22.517
403.00,22.521
404.00,22.500
405.00,22.497
406.00,22.485
407.00,22.480
408.00,22.508
409.00,22.430
410.00,22.400
411.00,22.404
412.00,22.383
413.00,22.360
414.00,22.354
415.00,22.300
416.00,22.459
417.00,22.509
418.00,22.487
419.00,22.531
420.00,22.563
421.00,22.609
422.00,22.668
423.00,22.709
424.00,22.725
425.00,22.787
426.00,22.838
427.00,22.856
428.00,22.931
429.00,22.974
430.00,22.998
431.00,23.071
432.00,23.115
433.00,23.200
434.00,23.260
435.00,23.310
436.00,23.368
437.00,23.406
438.00,23.528
439.00,23.608
440.00,23.673
441.00,23.758
442.00,23.851
443.00,23.936
444.00,24.029
445.00,24.080
446.00,24.189
447.00,24.304
448.00,24.405
449.00,24.537
450.00,24.619
451.00,24.695
452.00,24.826
453.00,24.929
454.00,25.043
455.00,25.161
456.00,25.283
457.00,25.400
458.00,25.534
459.00,25.641
460.00,25.755
461.00,25.866
462.00,26.005
463.00,26.147
464.00,26.286
465.00,26.382
466.00,26.541
467.00,26.655
468.00,26.776
469.00,26.919
470.00,26.992
471.00,27.111
472.00,27.266
473.00,27.318
474.00,27.417
475.00,27.560
476.00,27.656
477.00,27.768
478.00,27.889
479.00,28.033
480.00,28.151
481.00,28.307
482.00,28.450
483.00,28.615
484.00,28.719
485.00,28.926
486.00,29.080
487.00,29.185
488.00,29.336
489.00,29.438
490.00,29.669
491.00,29.824
492.00,30.020
493.00,30.106
494.00,30.117
495.00,30.271
496.00,30.423
497.00,30.469
498.00,30.664
499.00,30.798
500.00,30.858
501.00,31.043
502.00,31.195
503.00,31.297
504.00,31.424
505.00,31.513
506.00,31.682
507.00,31.761
508.00,31.862
509.00,32.017
510.00,32.117
511.00,32.226
512.00,32.360
513.00,32.512
514.00,32.645
515.00,32.735
516.00,32.837
517.00,32.960
518.00,33.078
519.00,33.123
520.00,33.262
521.00,33.304
522.00,33.343
523.00,33.439
524.00,33.519
525.00,33.603
526.00,33.736
527.00,33.816
528.00,33.903
529.00,34.045
530.00,34.142
531.00,34.269
532.00,34.365
533.00,34.451
534.00,34.545
535.00,34.618
536.00,34.673
537.00,34.779
538.00,34.854
539.00,34.883
540.00,34.954
541.00,34.949
542.00,34.970
543.00,35.164
544.00,35.228
545.00,35.298
546.00,35.343
547.00,35.467
548.00,35.532
549.00,35.558
550.00,35.688
551.00,35.732
552.00,35.837
553.00,35.913
554.00,35.919
555.00,36.012
556.00,36.067
557.00,36.106
558.00,36.165
559.00,36.256
560.00,36.284
561.00,36.365
562.00,36.451
563.00,36.468
564.00,36.477
565.00,36.533
566.00,36.534
567.00,36.603
568.00,36.638
569.00,36.652
570.00,36.685
571.00,36.739
572.00,36.789
573.00,36.832
574.00,36.821
575.00,36.871
576.00,36.909
577.00,36.967
578.00,37.033
579.00,37.080
580.00,37.129
581.00,37.264
582.00,37.349
583.00,37.399
584.00,37.437
585.00,37.530
586.00,37.593
587.00,37.595
588.00,37.632
589.00,37.612
590.00,37.646
591.00,37.793
592.00,37.779
593.00,37.828
594.00,37.883
595.00,37.926
596.00,37.988
597.00,38.055
598.00,38.186
599.00,38.210
600.00,38.266
601.00,38.323
602.00,38.285
603.00,38.346
604.00,38.367
605.00,38.425
606.00,38.491
607.00,38.514
608.00,38.645
609.00,38.619
610.00,38.654
611.00,38.782
612.00,38.723
613.00,38.807
614.00,38.819
615.00,38.903
616.00,38.967
617.00,38.997
618.00,39.077
619.00,39.194
620.00,39.146
621.00,39.201
622.00,39.235
623.00,39.352
624.00,39.442
625.00,39.461
626.00,39.536
627.00,39.597
628.00,39.607
629.00,39.674
630.00,39.676
631.00,39.750
632.00,39.862
633.00,39.928
634.00,40.050
635.00,40.154
636.00,40.208
637.00,40.273
638.00,40.392
639.00,40.403
640.00,40.457
641.00,40.526
642.00,40.607
643.00,40.674
644.00,40.789
645.00,40.818
646.00,40.955
647.00,40.971
648.00,41.058
649.00,41.104
650.00,41.159
651.00,41.316
652.00,41.340
653.00,41.440
654.00,41.570
655.00,41.669
656.00,41.800
657.00,41.993
658.00,41.931
659.00,42.055
660.00,42.146
661.00,42.211
662.00,42.290
663.00,42.399
664.00,42.369
665.00,42.584
666.00,42.631
667.00,42.715
668.00,42.775
669.00,42.911
670.00,43.052
671.00,43.114
672.00,43.105
673.00,43.325
674.00,43.427
675.00,43.430
676.00,43.588
677.00,43.680
678.00,43.647
679.00,43.783
680.00,43.815
681.00,43.944
682.00,44.090
683.00,44.176
684.00,44.280
685.00,44.434
686.00,44.350
687.00,44.475
688.00,44.636
689.00,44.673
690.00,44.776
691.00,44.942
692.00,44.952
693.00,44.917
694.00,45.080
695.00,45.184
696.00,45.220
697.00,45.311
698.00,45.503
699.00,45.591
700.00,45.576
701.00,45.675
702.00,45.801
703.00,45.971
704.00,45.911
705.00,45.966
706.00,46.089
707.00,46.272
708.00,46.176
709.00,46.392
710.00,46.539
711.00,46.468
712.00,46.376
713.00,46.609
714.00,46.610
715.00,46.723
716.00,46.793
717.00,46.895
718.00,46.986
719.00,47.002
720.00,47.155
721.00,51.468
722.00,51.350
723.00,51.416
724.00,51.441
725.00,51.425
726.00,51.436
727.00,51.478
728.00,51.440
729.00,51.625
730.00,51.552
731.00,51.608
732.00,51.633
733.00,51.652
734.00,51.679
735.00,51.718
736.00,51.765
737.00,51.721
738.00,51.805
739.00,51.800
740.00,51.858
741.00,51.928
742.00,51.966
743.00,51.918
744.00,51.921
745.00,51.917
746.00,51.939
747.00,51.972
748.00,51.938
749.00,51.920
750.00,51.918
751.00,51.816
752.00,51.938
753.00,51.959
754.00,51.896
755.00,51.994
756.00,52.028
757.00,51.986
758.00,52.034
759.00,52.033
760.00,52.078
761.00,51.980
762.00,52.007
763.00,52.171
764.00,52.126
765.00,52.050
766.00,52.033
767.00,52.120
768.00,52.152
769.00,52.162
770.00,52.141
771.00,52.205
772.00,52.133
773.00,52.176
774.00,52.228
775.00,52.198
776.00,52.181
777.00,52.164
778.00,52.255
779.00,52.199
780.00,52.280
781.00,52.249
782.00,52.229
783.00,52.173
784.00,52.269
785.00,52.278
786.00,52.240
787.00,52.230
788.00,52.281
789.00,52.197
790.00,52.175
791.00,52.170
792.00,52.177
793.00,52.149
794.00,52.136
795.00,52.175
796.00,52.132
797.00,52.106
798.00,52.078
799.00,52.127
800.00,51.988
801.00,52.091
802.00,52.136
803.00,52.001
804.00,52.059
805.00,52.021
806.00,52.051
807.00,51.962
808.00,51.973
809.00,51.964
810.00,51.943
811.00,51.903
812.00,51.930
813.00,51.887
814.00,51.940
815.00,51.913
816.00,51.949
817.00,51.837
818.00,51.851
819.00,51.829
820.00,51.785
821.00,51.779
822.00,51.863
823.00,51.760
824.00,51.751
825.00,51.697
826.00,51.721
827.00,51.790
828.00,51.752
829.00,51.613
830.00,51.697
831.00,53.911
832.00,53.880
833.00,53.862
834.00,53.843
835.00,53.774
836.00,53.827
837.00,53.745
838.00,53.736
839.00,53.740
840.00,53.696
841.00,53.696
842.00,53.688
843.00,53.688
844.00,53.639
845.00,53.672
846.00,53.642
847.00,53.639
848.00,53.563
849.00,53.535
850.00,53.499
851.00,53.437
852.00,53.448
853.00,53.406
854.00,53.379
855.00,53.337
856.00,53.343
857.00,53.329
858.00,53.285
859.00,53.286
860.00,53.300
861.00,53.264
862.00,53.170
863.00,53.297
864.00,53.166
865.00,53.186
866.00,53.141
867.00,53.128
868.00,53.123
869.00,53.125
870.00,53.105
871.00,53.117
872.00,53.071
873.00,53.079
874.00,53.047
875.00,53.058
876.00,53.042
877.00,53.025
878.00,53.031
879.00,53.006
880.00,53.002
881.00,52.960
882.00,52.970
883.00,52.947
884.00,52.906
885.00,52.886
886.00,52.882
887.00,52.897
888.00,52.855
889.00,52.829
890.00,52.832
891.00,52.793
892.00,52.787
893.00,52.772
894.00,52.747
895.00,52.709
896.00,52.687
897.00,52.669
898.00,52.652
899.00,52.657
900.00,52.648
901.00,52.756
902.00,52.594
903.00,52.574
904.00,52.602
905.00,52.542
906.00,52.519
907.00,52.697
908.00,52.519
909.00,52.485
910.00,52.445
911.00,52.439
912.00,52.443
913.00,52.426
914.00,52.404
915.00,52.356
916.00,52.409
917.00,52.380
918.00,52.461
919.00,52.279
920.00,52.259
921.00,52.237
922.00,52.227
923.00,52.205
924.00,52.176
925.00,52.157
926.00,52.154
927.00,52.150
928.00,52.103
929.00,52.104
930.00,52.084
931.00,52.077
932.00,52.047
933.00,52.040
934.00,52.021
935.00,52.007
936.00,51.998
937.00,51.969
938.00,51.957
939.00,51.942
940.00,51.905
941.00,51.916
942.00,51.876
943.00,51.872
944.00,51.836
945.00,51.831
946.00,51.822
947.00,51.780
948.00,51.778
949.00,51.756
950.00,51.745
951.00,51.711
952.00,51.678
953.00,51.650
954.00,51.644
955.00,51.611
956.00,51.608
957.00,51.559
958.00,51.574
959.00,51.499
960.00,51.501
961.00,51.460
962.00,51.486
963.00,51.447
964.00,51.420
965.00,51.410
966.00,51.417
967.00,51.418
968.00,51.392
969.00,51.426
970.00,51.369
971.00,51.389
972.00,51.368
973.00,51.397
974.00,51.404
975.00,51.362
976.00,51.393
977.00,51.365
978.00,51.405
979.00,51.369
980.00,51.389
981.00,51.354
982.00,51.350
983.00,51.365
984.00,51.350
985.00,51.365
986.00,51.316
987.00,51.341
988.00,51.313
989.00,51.300
990.00,51.311
991.00,51.269
992.00,51.293
993.00,51.261
994.00,51.252
995.00,51.241
996.00,51.233
997.00,51.223
998.00,51.190
999.00,51.227
1000.00,51.158
1001.00,51.178
1002.00,51.160
1003.00,51.140
1004.00,51.167
1005.00,51.107
1006.00,51.139
1007.00,51.092
1008.00,51.079
1009.00,51.079
1010.00,51.051
1011.00,51.030
1012.00,51.001
1013.00,51.007
1014.00,50.960
1015.00,50.984
1016.00,50.937
1017.00,50.933
1018.00,50.916
1019.00,50.885
1020.00,50.883
1021.00,50.871
1022.00,50.867
1023.00,50.821
1024.00,50.828
1025.00,50.848
1026.00,50.805
1027.00,50.776
1028.00,50.761
1029.00,50.760
1030.00,50.719
1031.00,50.738
1032.00,50.691
1033.00,50.698
1034.00,50.676
1035.00,50.638
1036.00,50.616
1037.00,50.597
1038.00,50.589
1039.00,50.550
1040.00,50.558
1041.00,50.511
1042.00,50.515
1043.00,50.479
1044.00,50.512
1045.00,50.514
1046.00,50.511
1047.00,50.498
1048.00,50.520
1049.00,50.536
1050.00,50.539
1051.00,50.580
1052.00,50.575
1053.00,50.584
1054.00,50.577
1055.00,50.577
1056.00,50.602
1057.00,50.600
1058.00,50.573
1059.00,50.585
1060.00,50.584
1061.00,50.575
1062.00,50.562
1063.00,50.555
1064.00,50.543
1065.00,50.545
1066.00,50.531
1067.00,50.519
1068.00,50.535
1069.00,50.482
1070.00,50.479
1071.00,50.455
1072.00,50.477
1073.00,50.446
1074.00,50.440
1075.00,50.437
1076.00,50.445
1077.00,50.426
1078.00,50.420
1079.00,50.407
1080.00,50.391
1081.00,50.372
1082.00,50.378
1083.00,50.367
1084.00,50.365
1085.00,50.382
1086.00,50.389
1087.00,50.353
1088.00,50.329
1089.00,50.331
1090.00,50.319
1091.00,50.287
1092.00,50.291
1093.00,50.273
1094.00,50.268
1095.00,50.253
1096.00,50.234
1097.00,50.237
1098.00,50.251
1099.00,50.232
1100.00,50.221
1101.00,50.198
1102.00,50.176
1103.00,50.183
1104.00,50.181
1105.00,50.166
1106.00,50.168
1107.00,50.153
1108.00,50.161
1109.00,50.139
1110.00,50.133
1111.00,50.136
1112.00,50.118
1113.00,50.096
1114.00,50.099
1115.00,50.099
1116.00,50.107
1117.00,50.068
1118.00,50.061
1119.00,50.062
1120.00,50.052
1121.00,50.032
1122.00,50.037
1123.00,50.025
1124.00,50.000
1125.00,50.007
1126.00,50.003
1127.00,49.994
1128.00,49.989
1129.00,49.967
1130.00,49.955
1131.00,49.956
1132.00,49.926
1133.00,49.938
1134.00,49.931
1135.00,49.920
1136.00,49.930
1137.00,49.915
1138.00,49.919
1139.00,49.917
1140.00,49.897
1141.00,49.897
1142.00,49.892
1143.00,49.897
1144.00,49.891
1145.00,49.902
1146.00,49.900
1147.00,49.867
1148.00,49.856
1149.00,49.866
1150.00,49.862
1151.00,49.850
1152.00,49.829
1153.00,49.834
1154.00,49.829
1155.00,49.846
1156.00,49.826
1157.00,49.823
1158.00,49.823
1159.00,49.827
1160.00,49.822
1161.00,49.827
1162.00,49.812
1163.00,49.814
1164.00,49.821
1165.00,49.808
1166.00,49.820
1167.00,49.805
1168.00,49.806
1169.00,49.802
1170.00,49.815
1171.00,49.777
1172.00,49.794
1173.00,49.778
1174.00,49.794
1175.00,49.797
1176.00,49.790
1177.00,49.802
1178.00,49.786
1179.00,49.783
1180.00,49.777
1181.00,49.794
1182.00,49.779
1183.00,49.774
1184.00,49.752
1185.00,49.779
1186.00,49.763
1187.00,49.760
1188.00,49.754
1189.00,49.761
1190.00,49.737
1191.00,49.762
1192.00,49.778
1193.00,49.747
1194.00,49.767
1195.00,49.734
1196.00,49.778
1197.00,49.777
1198.00,49.753
1199.00,49.757
1200.00,49.744
1201.00,49.744
1202.00,49.735
1203.00,49.742
1204.00,49.719
1205.00,49.753
1206.00,49.728
1207.00,49.742
1208.00,49.726
1209.00,49.717
1210.00,49.733
1211.00,49.727
1212.00,49.730
1213.00,49.702
1214.00,49.724
1215.00,49.708
1216.00,49.715
1217.00,49.714
1218.00,49.712
1219.00,49.734
1220.00,49.703
1221.00,49.730
1222.00,49.727
1223.00,49.726
1224.00,49.739
1225.00,49.726
1226.00,49.728
1227.00,49.714
1228.00,49.729
1229.00,49.727
1230.00,49.768
1231.00,49.741
1232.00,49.767
1233.00,49.762
1234.00,49.761
1235.00,49.763
1236.00,49.764
1237.00,49.772
1238.00,49.779
1239.00,49.764
1240.00,49.769
1241.00,49.783
1242.00,49.765
1243.00,49.791
1244.00,49.761
1245.00,49.777
1246.00,49.786
1247.00,49.781
1248.00,49.777
1249.00,49.786
1250.00,49.790
1251.00,49.794
1252.00,49.810
1253.00,49.793
1254.00,49.829
1255.00,49.813
1256.00,49.789
1257.00,49.774
1258.00,49.819
1259.00,49.806
1260.00,49.829
1261.00,49.814
1262.00,49.817
1263.00,49.813
1264.00,49.812
1265.00,49.830
1266.00,49.829
1267.00,49.828
1268.00,49.854
1269.00,49.840
1270.00,49.850
1271.00,49.848
1272.00,49.851
1273.00,49.868
1274.00,49.859
1275.00,49.866
1276.00,49.874
1277.00,49.873
1278.00,49.873
1279.00,49.881
1280.00,49.884
1281.00,49.889
1282.00,49.906
1283.00,49.906
1284.00,49.906
1285.00,49.887
1286.00,49.878
1287.00,49.893
1288.00,49.911
1289.00,49.892
1290.00,49.921
1291.00,49.912
1292.00,49.921
1293.00,49.921
1294.00,49.925
1295.00,49.933
1296.00,49.943
1297.00,49.936
1298.00,49.962
1299.00,49.938
1300.00,49.944
1301.00,49.949
1302.00,49.969
1303.00,49.985
1304.00,49.962
1305.00,49.974
1306.00,49.980
1307.00,50.001
1308.00,49.991
1309.00,50.000
1310.00,50.000
1311.00,50.001
1312.00,50.011
1313.00,50.021
1314.00,50.015
1315.00,50.035
1316.00,50.026
1317.00,50.060
1318.00,50.044
1319.00,50.035
1320.00,50.065
1321.00,50.200
1322.00,50.210
1323.00,50.182
1324.00,50.187
1325.00,50.167
1326.00,50.208
1327.00,50.198
1328.00,50.213
1329.00,50.193
1330.00,50.195
1331.00,50.210
1332.00,50.203
1333.00,50.196
1334.00,50.211
1335.00,50.232
1336.00,50.253
1337.00,50.278
1338.00,50.345
1339.00,50.394
1340.00,50.438
1341.00,50.517
1342.00,50.584
1343.00,50.625
1344.00,50.669
1345.00,50.738
1346.00,50.764
1347.00,50.794
1348.00,50.787
1349.00,50.818
1350.00,50.871
1351.00,50.858
1352.00,50.860
1353.00,50.853
1354.00,50.894
1355.00,50.849
1356.00,50.922
1357.00,50.895
1358.00,50.883
1359.00,50.871
1360.00,50.945
1361.00,50.890
1362.00,50.860
1363.00,50.935
1364.00,50.938
1365.00,50.910
1366.00,50.908
1367.00,50.901
1368.00,50.888
1369.00,50.881
1370.00,50.903
1371.00,50.870
1372.00,50.892
1373.00,50.874
1374.00,50.901
1375.00,50.881
1376.00,50.872
1377.00,50.860
1378.00,50.944
1379.00,50.899
1380.00,50.877
1381.00,50.869
1382.00,50.873
1383.00,50.870
1384.00,50.860
1385.00,50.831
1386.00,50.867
1387.00,50.828
1388.00,50.815
1389.00,50.808
1390.00,50.802
1391.00,50.849
1392.00,50.861
1393.00,50.881
1394.00,50.844
1395.00,50.765
1396.00,50.836
1397.00,50.886
1398.00,50.903
1399.00,50.931
1400.00,50.866
1401.00,50.851
1402.00,50.886
1403.00,50.895
1404.00,50.892
1405.00,50.954
1406.00,50.920
1407.00,50.895
1408.00,50.908
1409.00,50.873
1410.00,50.942
1411.00,50.912
1412.00,50.909
1413.00,50.887
1414.00,50.956
1415.00,50.983
1416.00,50.988
1417.00,50.985
1418.00,50.994
1419.00,51.003
1420.00,51.013
1421.00,51.046
1422.00,51.053
1423.00,51.047
1424.00,51.062
1425.00,51.077
1426.00,51.090
1427.00,51.117
1428.00,51.098
1429.00,51.126
1430.00,51.136
1431.00,51.145
1432.00,51.155
1433.00,51.183
1434.00,51.184
1435.00,51.215
1436.00,51.211
1437.00,51.221
1438.00,51.245
1439.00,51.259
1440.00,51.281
1441.00,51.288
1442.00,51.298
1443.00,51.360
1444.00,51.342
1445.00,51.322
1446.00,51.327
1447.00,51.348
1448.00,51.364
1449.00,51.396
1450.00,51.381
1451.00,51.411
1452.00,51.447
1453.00,51.448
1454.00,51.465
1455.00,51.492
1456.00,51.502
1457.00,51.512
1458.00,51.525
1459.00,51.542
1460.00,51.568
1461.00,51.555
1462.00,51.591
1463.00,51.600
1464.00,51.614
1465.00,51.618
1466.00,51.633
1467.00,51.649
1468.00,51.678
1469.00,51.677
1470.00,51.694
1471.00,51.726
1472.00,51.739
1473.00,51.735
1474.00,51.776
1475.00,51.754
1476.00,51.776
1477.00,51.769
1478.00,51.794
1479.00,51.810
1480.00,51.806
1481.00,51.825
1482.00,51.850
1483.00,51.851
1484.00,51.857
1485.00,51.873
1486.00,51.880
1487.00,51.897
1488.00,51.926
1489.00,51.914
1490.00,51.932
1491.00,51.932
1492.00,51.955
1493.00,51.950
1494.00,51.969
1495.00,51.971
1496.00,51.996
1497.00,51.996
1498.00,52.001
1499.00,52.036
1500.00,52.052
1501.00, 
1502.00, 
1503.00, 
1504.00, 
1505.00, 
1506.00, 
1507.00, 
1508.00, 
1509.00, 
1510.00, 
1511.00, 
1512.00, 
1513.00, 
1514.00, 
1515.00, 
1516.00, 
1517.00, 
1518.00, 
1519.00, 
1520.00, 
1521.00, 
1522.00, 
1523.00, 
1524.00, 
1525.00, 
1526.00, 
1527.00, 
1528.00, 
1529.00, 
1530.00, 
1531.00, 
1532.00, 
1533.00, 
1534.00, 
1535.00, 
1536.00, 
1537.00, 
1538.00, 
1539.00, 
1540.00, 
1541.00, 
1542.00, 
1543.00, 
1544.00, 
1545.00, 
1546.00, 
1547.00, 
1548.00, 
1549.00, 
1550.00, 
1551.00, 
1552.00, 
1553.00, 
1554.00, 
1555.00, 
1556.00, 
1557.00, 
1558.00, 
1559.00, 
1560.00, 
1561.00, 
1562.00, 
1563.00, 
1564.00, 
1565.00, 
1566.00, 
1567.00, 
1568.00, 
1569.00, 
1570.00, 
1571.00, 
1572.00, 
1573.00, 
1574.00, 
1575.00, 
1576.00, 
1577.00, 
1578.00, 
1579.00, 
1580.00, 
1581.00, 
1582.00, 
1583.00, 
1584.00, 
1585.00, 
1586.00, 
1587.00, 
1588.00, 
1589.00, 
1590.00, 
1591.00, 
1592.00, 
1593.00, 
1594.00, 
1595.00, 
1596.00, 
1597.00, 
1598.00, 
1599.00, 
1600.00, 
1601.00, 
1602.00, 
1603.00, 
1604.00, 
1605.00, 
1606.00, 
1607.00, 
1608.00, 
1609.00, 
1610.00, 
1611.00, 
1612.00, 
1613.00, 
1614.00, 
1615.00, 
1616.00, 
1617.00, 
1618.00, 
1619.00, 
1620.00, 
1621.00, 
1622.00, 
1623.00, 
1624.00, 
1625.00, 
1626.00, 
1627.00, 
1628.00, 
1629.00, 
1630.00, 
1631.00, 
1632.00, 
1633.00, 
1634.00, 
1635.00, 
1636.00, 
1637.00, 
1638.00, 
1639.00, 
1640.00, 
1641.00, 
1642.00, 
1643.00, 
1644.00, 
1645.00, 
1646.00, 
1647.00, 
1648.00, 
1649.00, 
1650.00, 
1651.00, 
1652.00, 
1653.00, 
1654.00, 
1655.00, 
1656.00, 
1657.00, 
1658.00, 
1659.00, 
1660.00, 
1661.00, 
1662.00, 
1663.00, 
1664.00, 
1665.00, 
1666.00, 
1667.00, 
1668.00, 
1669.00, 
1670.00, 
1671.00, 
1672.00, 
1673.00, 
1674.00, 
1675.00, 
1676.00, 
1677.00, 
1678.00, 
1679.00, 
1680.00, 
1681.00, 
1682.00, 
1683.00, 
1684.00, 
1685.00, 
1686.00, 
1687.00, 
1688.00, 
1689.00, 
1690.00, 
1691.00, 
1692.00, 
1693.00, 
1694.00, 
1695.00, 
1696.00, 
1697.00, 
1698.00, 
1699.00, 
1700.00, 
1701.00, 
1702.00, 
1703.00, 
1704.00, 
1705.00, 
1706.00, 
1707.00, 
1708.00, 
1709.00, 
1710.00, 
1711.00, 
1712.00, 
1713.00, 
1714.00, 
1715.00, 
1716.00, 
1717.00, 
1718.00, 
1719.00, 
1720.00, 
1721.00, 
1722.00, 
1723.00, 
1724.00, 
1725.00, 
1726.00, 
1727.00, 
1728.00, 
1729.00, 
1730.00, 
1731.00, 
1732.00, 
1733.00, 
1734.00, 
1735.00, 
1736.00, 
1737.00, 
1738.00, 
1739.00, 
1740.00, 
1741.00, 
1742.00, 
1743.00, 
1744.00, 
1745.00, 
1746.00, 
1747.00, 
1748.00, 
1749.00, 
1750.00, 
1751.00, 
1752.00, 
1753.00, 
1754.00, 
1755.00, 
1756.00, 
1757.00, 
1758.00, 
1759.00, 
1760.00, 
1761.00, 
1762.00, 
1763.00, 
1764.00, 
1765.00, 
1766.00, 
1767.00, 
1768.00, 
1769.00, 
1770.00, 
1771.00, 
1772.00, 
1773.00, 
1774.00, 
1775.00, 
1776.00, 
1777.00, 
1778.00, 
1779.00, 
1780.00, 
1781.00, 
1782.00, 
1783.00, 
1784.00, 
1785.00, 
1786.00, 
1787.00, 
1788.00, 
1789.00, 
1790.00, 
1791.00, 
1792.00, 
1793.00, 
1794.00, 
1795.00, 
1796.00, 
1797.00, 
1798.00, 
1799.00, 
1800.00, 
1801.00, 
1802.00, 
1803.00, 
1804.00, 
1805.00, 
1806.00, 
1807.00, 
1808.00, 
1809.00, 
1810.00, 
1811.00, 
1812.00, 
1813.00, 
1814.00, 
1815.00, 
1816.00, 
1817.00, 
1818.00, 
1819.00, 
1820.00, 
1821.00, 
1822.00, 
1823.00, 
1824.00, 
1825.00, 
1826.00, 
1827.00, 
1828.00, 
1829.00, 
1830.00, 
1831.00, 
1832.00, 
1833.00, 
1834.00, 
1835.00, 
1836.00, 
1837.00, 
1838.00, 
1839.00, 
1840.00, 
1841.00, 
1842.00, 
1843.00, 
1844.00, 
1845.00, 
1846.00, 
1847.00, 
1848.00, 
1849.00, 
1850.00, 
1851.00, 
1852.00, 
1853.00, 
1854.00, 
1855.00, 
1856.00, 
1857.00, 
1858.00, 
1859.00, 
1860.00, 
1861.00, 
1862.00, 
1863.00, 
1864.00, 
1865.00, 
1866.00, 
1867.00, 
1868.00, 
1869.00, 
1870.00, 
1871.00, 
1872.00, 
1873.00, 
1874.00, 
1875.00, 
1876.00, 
1877.00, 
1878.00, 
1879.00, 
1880.00, 
1881.00, 
1882.00, 
1883.00, 
1884.00, 
1885.00, 
1886.00, 
1887.00, 
1888.00, 
1889.00, 
1890.00, 
1891.00, 
1892.00, 
1893.00, 
1894.00, 
1895.00, 
1896.00, 
1897.00, 
1898.00, 
1899.00, 
1900.00, 
1901.00, 
1902.00, 
1903.00, 
1904.00, 
1905.00, 
1906.00, 
1907.00, 
1908.00, 
1909.00, 
1910.00, 
1911.00, 
1912.00, 
1913.00, 
1914.00, 
1915.00, 
1916.00, 
1917.00, 
1918.00, 
1919.00, 
1920.00, 
1921.00, 
1922.00, 
1923.00, 
1924.00, 
1925.00, 
1926.00, 
1927.00, 
1928.00, 
1929.00, 
1930.00, 
1931.00, 
1932.00, 
1933.00, 
1934.00, 
1935.00, 
1936.00, 
1937.00, 
1938.00, 
1939.00, 
1940.00, 
1941.00, 
1942.00, 
1943.00, 
1944.00, 
1945.00, 
1946.00, 
1947.00, 
1948.00, 
1949.00, 
1950.00, 
1951.00, 
1952.00, 
1953.00, 
1954.00, 
1955.00, 
1956.00, 
1957.00, 
1958.00, 
1959.00, 
1960.00, 
1961.00, 
1962.00, 
1963.00, 
1964.00, 
1965.00, 
1966.00, 
1967.00, 
1968.00, 
1969.00, 
1970.00, 
1971.00, 
1972.00, 
1973.00, 
1974.00, 
1975.00, 
1976.00, 
1977.00, 
1978.00, 
1979.00, 
1980.00, 
1981.00, 
1982.00, 
1983.00, 
1984.00, 
1985.00, 
1986.00, 
1987.00, 
1988.00, 
1989.00, 
1990.00, 
1991.00, 
1992.00, 
1993.00, 
1994.00, 
1995.00, 
1996.00, 
1997.00, 
1998.00, 
1999.00, 
2000.00, 
2001.00, 
2002.00, 
2003.00, 
2004.00, 
2005.00, 
2006.00, 
2007.00, 
2008.00, 
2009.00, 
2010.00, 
2011.00, 
2012.00, 
2013.00, 
2014.00, 
2015.00, 
2016.00, 
2017.00, 
2018.00, 
2019.00, 
2020.00, 
2021.00, 
2022.00, 
2023.00, 
2024.00, 
2025.00, 
2026.00, 
2027.00, 
2028.00, 
2029.00, 
2030.00, 
2031.00, 
2032.00, 
2033.00, 
2034.00, 
2035.00, 
2036.00, 
2037.00, 
2038.00, 
2039.00, 
2040.00, 
2041.00, 
2042.00, 
2043.00, 
2044.00, 
2045.00, 
2046.00, 
2047.00, 
2048.00, 
2049.00, 
2050.00, 
2051.00, 
2052.00, 
2053.00, 
2054.00, 
2055.00, 
2056.00, 
2057.00, 
2058.00, 
2059.00, 
2060.00, 
2061.00, 
2062.00, 
2063.00, 
2064.00, 
2065.00, 
2066.00, 
2067.00, 
2068.00, 
2069.00, 
2070.00, 
2071.00, 
2072.00, 
2073.00, 
2074.00, 
2075.00, 
2076.00, 
2077.00, 
2078.00, 
2079.00, 
2080.00, 
2081.00, 
2082.00, 
2083.00, 
2084.00, 
2085.00, 
2086.00, 
2087.00, 
2088.00, 
2089.00, 
2090.00, 
2091.00, 
2092.00, 
2093.00, 
2094.00, 
2095.00, 
2096.00, 
2097.00, 
2098.00, 
2099.00, 
2100.00, 
2101.00, 
2102.00, 
2103.00, 
2104.00, 
2105.00, 
2106.00, 
2107.00, 
2108.00, 
2109.00, 
2110.00, 
2111.00, 
2112.00, 
2113.00, 
2114.00, 
2115.00, 
2116.00, 
2117.00, 
2118.00, 
2119.00, 
2120.00, 
2121.00, 
2122.00, 
2123.00, 
2124.00, 
2125.00, 
2126.00, 
2127.00, 
2128.00, 
2129.00, 
2130.00, 
2131.00, 
2132.00, 
2133.00, 
2134.00, 
2135.00, 
2136.00, 
2137.00, 
2138.00, 
2139.00, 
2140.00, 
2141.00, 
2142.00, 
2143.00, 
2144.00, 
2145.00, 
2146.00, 
2147.00, 
2148.00, 
2149.00, 
2150.00, 
2151.00, 
2152.00, 
2153.00, 
2154.00, 
2155.00, 
2156.00, 
2157.00, 
2158.00, 
2159.00, 
2160.00, 
2161.00, 
2162.00, 
2163.00, 
2164.00, 
2165.00, 
2166.00, 
2167.00, 
2168.00, 
2169.00, 
2170.00, 
2171.00, 
2172.00, 
2173.00, 
2174.00, 
2175.00, 
2176.00, 
2177.00, 
2178.00, 
2179.00, 
2180.00, 
2181.00, 
2182.00, 
2183.00, 
2184.00, 
2185.00, 
2186.00, 
2187.00, 
2188.00, 
2189.00, 
2190.00, 
2191.00, 
2192.00, 
2193.00, 
2194.00, 
2195.00, 
2196.00, 
2197.00, 
2198.00, 
2199.00, 
2200.00, 
2201.00, 
2202.00, 
2203.00, 
2204.00, 
2205.00, 
2206.00, 
2207.00, 
2208.00, 
2209.00, 
2210.00, 
2211.00, 
2212.00, 
2213.00, 
2214.00, 
2215.00, 
2216.00, 
2217.00, 
2218.00, 
2219.00, 
2220.00, 
2221.00, 
2222.00, 
2223.00, 
2224.00, 
2225.00, 
2226.00, 
2227.00, 
2228.00, 
2229.00, 
2230.00, 
2231.00, 
2232.00, 
2233.00, 
2234.00, 
2235.00, 
2236.00, 
2237.00, 
2238.00, 
2239.00, 
2240.00, 
2241.00, 
2242.00, 
2243.00, 
2244.00, 
2245.00, 
2246.00, 
2247.00, 
2248.00, 
2249.00, 
2250.00, 
2251.00, 
2252.00, 
2253.00, 
2254.00, 
2255.00, 
2256.00, 
2257.00, 
2258.00, 
2259.00, 
2260.00, 
2261.00, 
2262.00, 
2263.00, 
2264.00, 
2265.00, 
2266.00, 
2267.00, 
2268.00, 
2269.00, 
2270.00, 
2271.00, 
2272.00, 
2273.00, 
2274.00, 
2275.00, 
2276.00, 
2277.00, 
2278.00, 
2279.00, 
2280.00, 
2281.00, 
2282.00, 
2283.00, 
2284.00, 
2285.00, 
2286.00, 
2287.00, 
2288.00, 
2289.00, 
2290.00, 
2291.00, 
2292.00, 
2293.00, 
2294.00, 
2295.00, 
2296.00, 
2297.00, 
2298.00, 
2299.00, 
2300.00, 
2301.00, 
2302.00, 
2303.00, 
2304.00, 
2305.00, 
2306.00, 
2307.00, 
2308.00, 
2309.00, 
2310.00, 
2311.00, 
2312.00, 
2313.00, 
2314.00, 
2315.00, 
2316.00, 
2317.00, 
2318.00, 
2319.00, 
2320.00, 
2321.00, 
2322.00, 
2323.00, 
2324.00, 
2325.00, 
2326.00, 
2327.00, 
2328.00, 
2329.00, 
2330.00, 
2331.00, 
2332.00, 
2333.00, 
2334.00, 
2335.00, 
2336.00, 
2337.00, 
2338.00, 
2339.00, 
2340.00, 
2341.00, 
2342.00, 
2343.00, 
2344.00, 
2345.00, 
2346.00, 
2347.00, 
2348.00, 
2349.00, 
2350.00, 
2351.00, 
2352.00, 
2353.00, 
2354.00, 
2355.00, 
2356.00, 
2357.00, 
2358.00, 
2359.00, 
2360.00, 
2361.00, 
2362.00, 
2363.00, 
2364.00, 
2365.00, 
2366.00, 
2367.00, 
2368.00, 
2369.00, 
2370.00, 
2371.00, 
2372.00, 
2373.00, 
2374.00, 
2375.00, 
2376.00, 
2377.00, 
2378.00, 
2379.00, 
2380.00, 
2381.00, 
2382.00, 
2383.00, 
2384.00, 
2385.00, 
2386.00, 
2387.00, 
2388.00, 
2389.00, 
2390.00, 
2391.00, 
2392.00, 
2393.00, 
2394.00, 
2395.00, 
2396.00, 
2397.00, 
2398.00, 
2399.00, 
2400.00, 
2401.00, 
2402.00, 
2403.00, 
2404.00, 
2405.00, 
2406.00, 
2407.00, 
2408.00, 
2409.00, 
2410.00, 
2411.00, 
2412.00, 
2413.00, 
2414.00, 
2415.00, 
2416.00, 
2417.00, 
2418.00, 
2419.00, 
2420.00, 
2421.00, 
2422.00, 
2423.00, 
2424.00, 
2425.00, 
2426.00, 
2427.00, 
2428.00, 
2429.00, 
2430.00, 
2431.00, 
2432.00, 
2433.00, 
2434.00, 
2435.00, 
2436.00, 
2437.00, 
2438.00, 
2439.00, 
2440.00, 
2441.00, 
2442.00, 
2443.00, 
2444.00, 
2445.00, 
2446.00, 
2447.00, 
2448.00, 
2449.00, 
2450.00, 
2451.00, 
2452.00, 
2453.00, 
2454.00, 
2455.00, 
2456.00, 
2457.00, 
2458.00, 
2459.00, 
2460.00, 
2461.00, 
2462.00, 
2463.00, 
2464.00, 
2465.00, 
2466.00, 
2467.00, 
2468.00, 
2469.00, 
2470.00, 
2471.00, 
2472.00, 
2473.00, 
2474.00, 
2475.00, 
2476.00, 
2477.00, 
2478.00, 
2479.00, 
2480.00, 
2481.00, 
2482.00, 
2483.00, 
2484.00, 
2485.00, 
2486.00, 
2487.00, 
2488.00, 
2489.00, 
2490.00, 
2491.00, 
2492.00, 
2493.00, 
2494.00, 
2495.00, 
2496.00, 
2497.00, 
2498.00, 
2499.00, 
2500.00, 
2501.00, 
2502.00, 
2503.00, 
2504.00, 
2505.00, 
2506.00, 
2507.00, 
2508.00, 
2509.00, 
2510.00, 
2511.00, 
2512.00, 
2513.00, 
2514.00, 
2515.00, 
2516.00, 
2517.00, 
2518.00, 
2519.00, 
2520.00, 
2521.00, 
2522.00, 
2523.00, 
2524.00, 
2525.00, 
2526.00, 
2527.00, 
2528.00, 
2529.00, 
2530.00, 
2531.00, 
2532.00, 
2533.00, 
2534.00, 
2535.00, 
2536.00, 
2537.00, 
2538.00, 
2539.00, 
2540.00, 
2541.00, 
2542.00, 
2543.00, 
2544.00, 
2545.00, 
2546.00, 
2547.00, 
2548.00, 
2549.00, 
2550.00, 
2551.00, 
2552.00, 
2553.00, 
2554.00, 
2555.00, 
2556.00, 
2557.00, 
2558.00, 
2559.00, 
2560.00, 
2561.00, 
2562.00, 
2563.00, 
2564.00, 
2565.00, 
2566.00, 
2567.00, 
2568.00, 
2569.00, 
2570.00, 
2571.00, 
2572.00, 
2573.00, 
2574.00, 
2575.00, 
2576.00, 
2577.00, 
2578.00, 
2579.00, 
2580.00, 
2581.00, 
2582.00, 
2583.00, 
2584.00, 
2585.00, 
2586.00, 
2587.00, 
2588.00, 
2589.00, 
2590.00, 
2591.00, 
2592.00, 
2593.00, 
2594.00, 
2595.00, 
2596.00, 
2597.00, 
2598.00, 
2599.00, 
2600.00, 
