"1bP2 - RawData"
"Wavelength nm.","T%"
200.00,0.001
201.00,0.002
202.00,-0.001
203.00,0.000
204.00,0.002
205.00,0.002
206.00,-0.000
207.00,-0.000
208.00,0.004
209.00,0.002
210.00,-0.000
211.00,0.001
212.00,0.004
213.00,0.001
214.00,0.001
215.00,-0.000
216.00,-0.001
217.00,0.002
218.00,-0.001
219.00,0.001
220.00,-0.001
221.00,-0.000
222.00,0.002
223.00,-0.001
224.00,-0.001
225.00,0.002
226.00,0.001
227.00,0.002
228.00,-0.001
229.00,-0.000
230.00,0.001
231.00,0.001
232.00,0.001
233.00,0.001
234.00,0.001
235.00,0.000
236.00,-0.001
237.00,-0.001
238.00,0.000
239.00,0.001
240.00,0.002
241.00,0.002
242.00,0.002
243.00,0.000
244.00,0.001
245.00,0.000
246.00,0.001
247.00,0.001
248.00,0.000
249.00,-0.002
250.00,-0.000
251.00,-0.000
252.00,0.001
253.00,0.001
254.00,0.001
255.00,-0.000
256.00,-0.000
257.00,0.001
258.00,-0.000
259.00,-0.000
260.00,0.000
261.00,0.002
262.00,0.001
263.00,0.001
264.00,0.001
265.00,-0.000
266.00,0.002
267.00,0.002
268.00,-0.000
269.00,0.001
270.00,-0.000
271.00,-0.000
272.00,0.000
273.00,-0.001
274.00,-0.000
275.00,0.001
276.00,0.001
277.00,-0.000
278.00,-0.000
279.00,0.000
280.00,-0.000
281.00,0.000
282.00,-0.000
283.00,0.001
284.00,0.001
285.00,0.001
286.00,0.001
287.00,0.001
288.00,-0.000
289.00,0.000
290.00,0.001
291.00,0.000
292.00,-0.000
293.00,0.002
294.00,-0.001
295.00,-0.000
296.00,-0.000
297.00,0.001
298.00,0.000
299.00,0.003
300.00,0.004
301.00,0.006
302.00,0.010
303.00,0.013
304.00,0.022
305.00,0.034
306.00,0.052
307.00,0.078
308.00,0.120
309.00,0.181
310.00,0.254
311.00,0.344
312.00,0.465
313.00,0.620
314.00,0.811
315.00,1.055
316.00,1.340
317.00,1.683
318.00,2.057
319.00,2.488
320.00,2.996
321.00,3.549
322.00,4.171
323.00,4.884
324.00,5.617
325.00,6.350
326.00,7.095
327.00,7.957
328.00,8.819
329.00,9.704
330.00,10.613
331.00,11.493
332.00,12.385
333.00,13.349
334.00,14.256
335.00,15.202
336.00,16.060
337.00,17.017
338.00,17.907
339.00,18.657
340.00,19.494
341.00,20.287
342.00,21.014
343.00,21.694
344.00,22.354
345.00,23.053
346.00,23.636
347.00,24.138
348.00,24.700
349.00,25.252
350.00,25.676
351.00,26.110
352.00,26.474
353.00,26.828
354.00,27.203
355.00,27.584
356.00,27.875
357.00,28.090
358.00,28.421
359.00,28.556
360.00,28.949
361.00,29.142
362.00,29.313
363.00,29.539
364.00,29.634
365.00,29.820
366.00,29.853
367.00,29.981
368.00,30.040
369.00,30.074
370.00,30.151
371.00,30.170
372.00,30.116
373.00,30.162
374.00,30.177
375.00,30.177
376.00,30.083
377.00,30.052
378.00,29.964
379.00,29.856
380.00,29.865
381.00,29.822
382.00,29.855
383.00,29.835
384.00,29.930
385.00,29.942
386.00,29.990
387.00,30.058
388.00,30.115
389.00,30.118
390.00,30.226
391.00,30.228
392.00,30.312
393.00,30.261
394.00,30.276
395.00,30.366
396.00,30.318
397.00,30.305
398.00,30.347
399.00,30.348
400.00,30.340
401.00,30.359
402.00,30.349
403.00,30.332
404.00,30.322
405.00,30.285
406.00,30.307
407.00,30.223
408.00,30.265
409.00,30.181
410.00,30.087
411.00,30.160
412.00,30.069
413.00,30.088
414.00,30.070
415.00,30.036
416.00,30.175
417.00,30.124
418.00,30.096
419.00,30.172
420.00,30.198
421.00,30.220
422.00,30.299
423.00,30.330
424.00,30.273
425.00,30.325
426.00,30.303
427.00,30.456
428.00,30.491
429.00,30.513
430.00,30.545
431.00,30.655
432.00,30.636
433.00,30.723
434.00,30.734
435.00,30.800
436.00,30.869
437.00,30.910
438.00,31.014
439.00,31.049
440.00,31.122
441.00,31.135
442.00,31.231
443.00,31.299
444.00,31.421
445.00,31.462
446.00,31.601
447.00,31.697
448.00,31.759
449.00,31.812
450.00,31.937
451.00,32.050
452.00,32.083
453.00,32.235
454.00,32.257
455.00,32.354
456.00,32.511
457.00,32.654
458.00,32.671
459.00,32.848
460.00,32.915
461.00,33.038
462.00,33.121
463.00,33.283
464.00,33.398
465.00,33.489
466.00,33.643
467.00,33.732
468.00,33.772
469.00,33.893
470.00,34.005
471.00,34.082
472.00,34.197
473.00,34.224
474.00,34.338
475.00,34.425
476.00,34.483
477.00,34.619
478.00,34.684
479.00,34.911
480.00,35.012
481.00,35.099
482.00,35.241
483.00,35.369
484.00,35.547
485.00,35.658
486.00,35.782
487.00,35.958
488.00,36.047
489.00,36.174
490.00,36.329
491.00,36.434
492.00,36.674
493.00,36.748
494.00,36.722
495.00,36.851
496.00,36.976
497.00,37.030
498.00,37.225
499.00,37.331
500.00,37.440
501.00,37.519
502.00,37.625
503.00,37.756
504.00,37.723
505.00,37.882
506.00,38.012
507.00,38.042
508.00,38.134
509.00,38.265
510.00,38.424
511.00,38.523
512.00,38.633
513.00,38.759
514.00,38.812
515.00,38.976
516.00,39.012
517.00,39.073
518.00,39.205
519.00,39.267
520.00,39.272
521.00,39.368
522.00,39.504
523.00,39.502
524.00,39.596
525.00,39.657
526.00,39.755
527.00,39.771
528.00,39.809
529.00,40.005
530.00,40.054
531.00,40.290
532.00,40.319
533.00,40.413
534.00,40.447
535.00,40.561
536.00,40.613
537.00,40.699
538.00,40.834
539.00,40.687
540.00,40.814
541.00,40.824
542.00,40.853
543.00,40.895
544.00,40.963
545.00,40.995
546.00,41.030
547.00,41.140
548.00,41.192
549.00,41.223
550.00,41.337
551.00,41.324
552.00,41.372
553.00,41.470
554.00,41.493
555.00,41.455
556.00,41.563
557.00,41.693
558.00,41.692
559.00,41.789
560.00,41.838
561.00,41.883
562.00,41.941
563.00,41.969
564.00,42.022
565.00,42.001
566.00,41.983
567.00,42.063
568.00,42.126
569.00,42.095
570.00,42.112
571.00,42.158
572.00,42.126
573.00,42.174
574.00,42.204
575.00,42.198
576.00,42.227
577.00,42.229
578.00,42.291
579.00,42.410
580.00,42.441
581.00,42.543
582.00,42.608
583.00,42.620
584.00,42.756
585.00,42.799
586.00,42.799
587.00,42.898
588.00,42.904
589.00,42.794
590.00,42.890
591.00,42.851
592.00,42.853
593.00,42.961
594.00,43.005
595.00,43.066
596.00,43.074
597.00,43.106
598.00,43.106
599.00,43.122
600.00,43.104
601.00,43.028
602.00,43.216
603.00,43.442
604.00,43.326
605.00,43.403
606.00,43.359
607.00,43.353
608.00,43.497
609.00,43.575
610.00,43.465
611.00,43.540
612.00,43.597
613.00,43.568
614.00,43.671
615.00,43.683
616.00,43.696
617.00,43.764
618.00,43.696
619.00,43.788
620.00,43.672
621.00,43.859
622.00,43.778
623.00,43.888
624.00,44.065
625.00,44.084
626.00,44.085
627.00,44.108
628.00,44.192
629.00,44.210
630.00,44.203
631.00,44.246
632.00,44.311
633.00,44.367
634.00,44.453
635.00,44.597
636.00,44.615
637.00,44.633
638.00,44.655
639.00,44.700
640.00,44.729
641.00,44.751
642.00,44.790
643.00,44.710
644.00,44.923
645.00,45.044
646.00,45.128
647.00,45.107
648.00,45.123
649.00,45.140
650.00,45.158
651.00,45.066
652.00,45.292
653.00,45.320
654.00,45.194
655.00,45.460
656.00,45.577
657.00,45.687
658.00,45.732
659.00,45.845
660.00,45.878
661.00,45.827
662.00,45.963
663.00,45.933
664.00,46.095
665.00,46.237
666.00,46.137
667.00,46.240
668.00,46.176
669.00,46.437
670.00,46.626
671.00,46.423
672.00,46.527
673.00,46.653
674.00,46.677
675.00,46.745
676.00,46.949
677.00,46.949
678.00,46.775
679.00,46.843
680.00,46.971
681.00,47.190
682.00,47.237
683.00,47.267
684.00,47.332
685.00,47.392
686.00,47.194
687.00,47.211
688.00,47.448
689.00,47.378
690.00,47.461
691.00,47.786
692.00,47.581
693.00,47.144
694.00,47.557
695.00,48.130
696.00,47.866
697.00,47.857
698.00,47.974
699.00,48.083
700.00,48.130
701.00,48.093
702.00,48.162
703.00,48.406
704.00,48.380
705.00,48.201
706.00,48.381
707.00,48.229
708.00,48.260
709.00,48.752
710.00,48.538
711.00,48.549
712.00,48.549
713.00,48.558
714.00,48.732
715.00,48.808
716.00,48.669
717.00,48.678
718.00,48.866
719.00,48.886
720.00,48.937
721.00,53.551
722.00,53.468
723.00,53.490
724.00,53.535
725.00,53.435
726.00,53.509
727.00,53.509
728.00,53.476
729.00,53.470
730.00,53.538
731.00,53.506
732.00,53.479
733.00,53.431
734.00,53.423
735.00,53.499
736.00,53.593
737.00,53.597
738.00,53.520
739.00,53.584
740.00,53.484
741.00,53.550
742.00,53.594
743.00,53.574
744.00,53.483
745.00,53.545
746.00,53.504
747.00,53.495
748.00,53.461
749.00,53.462
750.00,53.460
751.00,53.433
752.00,53.416
753.00,53.413
754.00,53.392
755.00,53.421
756.00,53.401
757.00,53.273
758.00,53.369
759.00,53.376
760.00,53.372
761.00,53.370
762.00,53.334
763.00,53.404
764.00,53.333
765.00,53.305
766.00,53.289
767.00,53.343
768.00,53.388
769.00,53.263
770.00,53.347
771.00,53.289
772.00,53.300
773.00,53.314
774.00,53.241
775.00,53.310
776.00,53.279
777.00,53.256
778.00,53.261
779.00,53.303
780.00,53.231
781.00,53.282
782.00,53.236
783.00,53.203
784.00,53.271
785.00,53.080
786.00,53.182
787.00,53.167
788.00,53.125
789.00,53.129
790.00,53.051
791.00,53.146
792.00,53.009
793.00,53.059
794.00,53.019
795.00,53.010
796.00,53.048
797.00,52.956
798.00,53.051
799.00,52.965
800.00,52.969
801.00,52.888
802.00,52.863
803.00,52.904
804.00,52.801
805.00,52.800
806.00,52.703
807.00,52.729
808.00,52.829
809.00,52.773
810.00,52.732
811.00,52.745
812.00,52.734
813.00,52.689
814.00,52.684
815.00,52.663
816.00,52.652
817.00,52.590
818.00,52.452
819.00,52.530
820.00,52.511
821.00,52.482
822.00,52.459
823.00,52.431
824.00,52.463
825.00,52.343
826.00,52.374
827.00,52.473
828.00,52.515
829.00,52.397
830.00,52.395
831.00,54.925
832.00,54.932
833.00,54.862
834.00,54.896
835.00,54.844
836.00,54.823
837.00,54.815
838.00,54.790
839.00,54.783
840.00,54.699
841.00,54.782
842.00,54.711
843.00,54.714
844.00,54.705
845.00,54.646
846.00,54.632
847.00,54.611
848.00,54.614
849.00,54.551
850.00,54.541
851.00,54.471
852.00,54.493
853.00,54.482
854.00,54.403
855.00,54.373
856.00,54.363
857.00,54.341
858.00,54.288
859.00,54.292
860.00,54.259
861.00,54.253
862.00,54.249
863.00,54.229
864.00,54.162
865.00,54.214
866.00,54.159
867.00,54.139
868.00,54.158
869.00,54.126
870.00,54.145
871.00,54.118
872.00,54.122
873.00,54.063
874.00,54.287
875.00,54.081
876.00,54.091
877.00,54.052
878.00,54.028
879.00,54.113
880.00,53.924
881.00,54.010
882.00,54.021
883.00,53.997
884.00,53.956
885.00,53.927
886.00,53.942
887.00,53.908
888.00,53.878
889.00,53.900
890.00,53.883
891.00,53.820
892.00,53.803
893.00,53.752
894.00,53.830
895.00,53.608
896.00,53.726
897.00,53.733
898.00,53.680
899.00,53.675
900.00,53.658
901.00,53.656
902.00,53.638
903.00,53.619
904.00,53.609
905.00,53.599
906.00,53.603
907.00,53.555
908.00,53.566
909.00,53.540
910.00,53.463
911.00,53.482
912.00,53.477
913.00,53.438
914.00,53.443
915.00,53.435
916.00,53.423
917.00,53.399
918.00,53.379
919.00,53.333
920.00,53.310
921.00,53.313
922.00,53.290
923.00,53.264
924.00,53.226
925.00,53.223
926.00,53.228
927.00,53.197
928.00,53.186
929.00,53.148
930.00,53.133
931.00,53.136
932.00,53.085
933.00,53.094
934.00,53.068
935.00,53.074
936.00,53.016
937.00,53.027
938.00,53.005
939.00,52.999
940.00,52.979
941.00,52.949
942.00,52.939
943.00,52.910
944.00,52.960
945.00,52.899
946.00,52.887
947.00,52.843
948.00,52.836
949.00,52.819
950.00,52.777
951.00,52.772
952.00,52.746
953.00,52.730
954.00,52.695
955.00,52.668
956.00,52.655
957.00,52.622
958.00,52.632
959.00,52.623
960.00,52.585
961.00,52.570
962.00,52.586
963.00,52.538
964.00,52.528
965.00,52.527
966.00,52.524
967.00,52.523
968.00,52.497
969.00,52.501
970.00,52.483
971.00,52.494
972.00,52.451
973.00,52.492
974.00,52.503
975.00,52.479
976.00,52.481
977.00,52.464
978.00,52.514
979.00,52.487
980.00,52.493
981.00,52.505
982.00,52.492
983.00,52.481
984.00,52.485
985.00,52.499
986.00,52.463
987.00,52.457
988.00,52.414
989.00,52.421
990.00,52.419
991.00,52.389
992.00,52.412
993.00,52.378
994.00,52.360
995.00,52.360
996.00,52.355
997.00,52.333
998.00,52.317
999.00,52.330
1000.00,52.313
1001.00,52.292
1002.00,52.277
1003.00,52.293
1004.00,52.267
1005.00,52.222
1006.00,52.263
1007.00,52.228
1008.00,52.203
1009.00,52.205
1010.00,52.201
1011.00,52.196
1012.00,52.157
1013.00,52.153
1014.00,52.148
1015.00,52.151
1016.00,52.096
1017.00,52.106
1018.00,52.082
1019.00,52.059
1020.00,52.058
1021.00,52.036
1022.00,52.028
1023.00,51.987
1024.00,51.987
1025.00,51.975
1026.00,51.981
1027.00,51.934
1028.00,51.954
1029.00,51.927
1030.00,51.905
1031.00,51.913
1032.00,51.860
1033.00,51.870
1034.00,51.824
1035.00,51.801
1036.00,51.815
1037.00,51.757
1038.00,51.739
1039.00,51.724
1040.00,51.724
1041.00,51.696
1042.00,51.706
1043.00,51.675
1044.00,51.709
1045.00,51.704
1046.00,51.673
1047.00,51.714
1048.00,51.712
1049.00,51.719
1050.00,51.729
1051.00,51.765
1052.00,51.772
1053.00,51.768
1054.00,51.763
1055.00,51.776
1056.00,51.755
1057.00,51.795
1058.00,51.805
1059.00,51.790
1060.00,51.783
1061.00,51.781
1062.00,51.771
1063.00,51.763
1064.00,51.759
1065.00,51.753
1066.00,51.754
1067.00,51.739
1068.00,51.749
1069.00,51.735
1070.00,51.710
1071.00,51.680
1072.00,51.723
1073.00,51.712
1074.00,51.710
1075.00,51.692
1076.00,51.700
1077.00,51.682
1078.00,51.659
1079.00,51.653
1080.00,51.686
1081.00,51.666
1082.00,51.642
1083.00,51.650
1084.00,51.628
1085.00,51.642
1086.00,51.626
1087.00,51.625
1088.00,51.615
1089.00,51.604
1090.00,51.599
1091.00,51.613
1092.00,51.594
1093.00,51.563
1094.00,51.568
1095.00,51.547
1096.00,51.523
1097.00,51.521
1098.00,51.513
1099.00,51.509
1100.00,51.504
1101.00,51.500
1102.00,51.487
1103.00,51.484
1104.00,51.466
1105.00,51.456
1106.00,51.451
1107.00,51.444
1108.00,51.440
1109.00,51.441
1110.00,51.436
1111.00,51.424
1112.00,51.396
1113.00,51.410
1114.00,51.396
1115.00,51.387
1116.00,51.378
1117.00,51.369
1118.00,51.369
1119.00,51.361
1120.00,51.353
1121.00,51.362
1122.00,51.348
1123.00,51.327
1124.00,51.341
1125.00,51.340
1126.00,51.317
1127.00,51.337
1128.00,51.302
1129.00,51.276
1130.00,51.268
1131.00,51.265
1132.00,51.271
1133.00,51.270
1134.00,51.251
1135.00,51.233
1136.00,51.234
1137.00,51.245
1138.00,51.260
1139.00,51.257
1140.00,51.245
1141.00,51.246
1142.00,51.245
1143.00,51.272
1144.00,51.240
1145.00,51.220
1146.00,51.240
1147.00,51.227
1148.00,51.211
1149.00,51.230
1150.00,51.228
1151.00,51.238
1152.00,51.223
1153.00,51.215
1154.00,51.216
1155.00,51.229
1156.00,51.205
1157.00,51.223
1158.00,51.214
1159.00,51.195
1160.00,51.211
1161.00,51.215
1162.00,51.222
1163.00,51.210
1164.00,51.207
1165.00,51.208
1166.00,51.210
1167.00,51.199
1168.00,51.239
1169.00,51.217
1170.00,51.203
1171.00,51.200
1172.00,51.194
1173.00,51.198
1174.00,51.207
1175.00,51.188
1176.00,51.208
1177.00,51.202
1178.00,51.186
1179.00,51.217
1180.00,51.199
1181.00,51.202
1182.00,51.194
1183.00,51.184
1184.00,51.178
1185.00,51.196
1186.00,51.191
1187.00,51.208
1188.00,51.210
1189.00,51.187
1190.00,51.201
1191.00,51.185
1192.00,51.186
1193.00,51.194
1194.00,51.196
1195.00,51.185
1196.00,51.211
1197.00,51.205
1198.00,51.204
1199.00,51.206
1200.00,51.195
1201.00,51.216
1202.00,51.192
1203.00,51.193
1204.00,51.196
1205.00,51.205
1206.00,51.197
1207.00,51.195
1208.00,51.167
1209.00,51.204
1210.00,51.197
1211.00,51.181
1212.00,51.214
1213.00,51.171
1214.00,51.184
1215.00,51.166
1216.00,51.174
1217.00,51.188
1218.00,51.171
1219.00,51.182
1220.00,51.164
1221.00,51.186
1222.00,51.165
1223.00,51.219
1224.00,51.212
1225.00,51.174
1226.00,51.190
1227.00,51.181
1228.00,51.205
1229.00,51.191
1230.00,51.214
1231.00,51.208
1232.00,51.234
1233.00,51.234
1234.00,51.240
1235.00,51.240
1236.00,51.219
1237.00,51.243
1238.00,51.242
1239.00,51.251
1240.00,51.231
1241.00,51.235
1242.00,51.248
1243.00,51.252
1244.00,51.221
1245.00,51.255
1246.00,51.263
1247.00,51.242
1248.00,51.245
1249.00,51.267
1250.00,51.263
1251.00,51.254
1252.00,51.272
1253.00,51.266
1254.00,51.279
1255.00,51.238
1256.00,51.249
1257.00,51.238
1258.00,51.272
1259.00,51.280
1260.00,51.296
1261.00,51.310
1262.00,51.303
1263.00,51.292
1264.00,51.311
1265.00,51.324
1266.00,51.304
1267.00,51.338
1268.00,51.345
1269.00,51.322
1270.00,51.351
1271.00,51.363
1272.00,51.378
1273.00,51.379
1274.00,51.359
1275.00,51.386
1276.00,51.376
1277.00,51.369
1278.00,51.397
1279.00,51.397
1280.00,51.382
1281.00,51.409
1282.00,51.402
1283.00,51.398
1284.00,51.418
1285.00,51.410
1286.00,51.434
1287.00,51.435
1288.00,51.431
1289.00,51.437
1290.00,51.463
1291.00,51.448
1292.00,51.444
1293.00,51.451
1294.00,51.459
1295.00,51.480
1296.00,51.475
1297.00,51.480
1298.00,51.507
1299.00,51.464
1300.00,51.499
1301.00,51.482
1302.00,51.493
1303.00,51.526
1304.00,51.512
1305.00,51.534
1306.00,51.534
1307.00,51.530
1308.00,51.538
1309.00,51.546
1310.00,51.538
1311.00,51.531
1312.00,51.548
1313.00,51.553
1314.00,51.582
1315.00,51.601
1316.00,51.589
1317.00,51.608
1318.00,51.601
1319.00,51.612
1320.00,51.617
1321.00,51.797
1322.00,51.780
1323.00,51.757
1324.00,51.749
1325.00,51.732
1326.00,51.739
1327.00,51.736
1328.00,51.728
1329.00,51.720
1330.00,51.720
1331.00,51.719
1332.00,51.732
1333.00,51.743
1334.00,51.787
1335.00,51.806
1336.00,51.838
1337.00,51.859
1338.00,51.909
1339.00,51.976
1340.00,52.023
1341.00,52.082
1342.00,52.133
1343.00,52.184
1344.00,52.222
1345.00,52.273
1346.00,52.304
1347.00,52.306
1348.00,52.311
1349.00,52.347
1350.00,52.353
1351.00,52.400
1352.00,52.407
1353.00,52.146
1354.00,52.387
1355.00,52.365
1356.00,52.463
1357.00,52.426
1358.00,52.470
1359.00,52.347
1360.00,52.513
1361.00,52.513
1362.00,52.479
1363.00,52.433
1364.00,52.491
1365.00,52.476
1366.00,52.435
1367.00,52.469
1368.00,52.473
1369.00,52.430
1370.00,52.513
1371.00,52.309
1372.00,52.417
1373.00,52.387
1374.00,52.461
1375.00,52.445
1376.00,52.437
1377.00,52.409
1378.00,52.449
1379.00,52.445
1380.00,52.463
1381.00,52.463
1382.00,52.480
1383.00,52.483
1384.00,52.434
1385.00,52.420
1386.00,52.445
1387.00,52.429
1388.00,52.427
1389.00,52.394
1390.00,52.377
1391.00,52.475
1392.00,52.381
1393.00,52.335
1394.00,52.409
1395.00,52.409
1396.00,52.379
1397.00,52.458
1398.00,52.404
1399.00,52.431
1400.00,52.733
1401.00,52.416
1402.00,52.488
1403.00,52.485
1404.00,52.490
1405.00,52.451
1406.00,52.521
1407.00,52.444
1408.00,52.448
1409.00,52.486
1410.00,52.489
1411.00,52.449
1412.00,52.498
1413.00,52.489
1414.00,52.502
1415.00,52.487
1416.00,52.532
1417.00,52.546
1418.00,52.530
1419.00,52.535
1420.00,52.538
1421.00,52.560
1422.00,52.567
1423.00,52.594
1424.00,52.595
1425.00,52.606
1426.00,52.606
1427.00,52.633
1428.00,52.629
1429.00,52.647
1430.00,52.652
1431.00,52.684
1432.00,52.679
1433.00,52.696
1434.00,52.692
1435.00,52.751
1436.00,52.754
1437.00,52.737
1438.00,52.764
1439.00,52.786
1440.00,52.813
1441.00,52.814
1442.00,52.826
1443.00,52.843
1444.00,52.950
1445.00,52.864
1446.00,52.880
1447.00,52.909
1448.00,52.942
1449.00,52.950
1450.00,52.937
1451.00,52.954
1452.00,52.966
1453.00,52.964
1454.00,53.007
1455.00,53.010
1456.00,53.027
1457.00,53.009
1458.00,53.039
1459.00,53.055
1460.00,53.097
1461.00,53.068
1462.00,53.116
1463.00,53.124
1464.00,53.133
1465.00,53.164
1466.00,53.168
1467.00,53.168
1468.00,53.225
1469.00,53.187
1470.00,53.209
1471.00,53.224
1472.00,53.212
1473.00,53.238
1474.00,53.261
1475.00,53.268
1476.00,53.270
1477.00,53.253
1478.00,53.318
1479.00,53.321
1480.00,53.304
1481.00,53.310
1482.00,53.352
1483.00,53.358
1484.00,53.365
1485.00,53.372
1486.00,53.393
1487.00,53.419
1488.00,53.454
1489.00,53.431
1490.00,53.439
1491.00,53.461
1492.00,53.469
1493.00,53.479
1494.00,53.520
1495.00,53.487
1496.00,53.522
1497.00,53.500
1498.00,53.522
1499.00,53.538
1500.00,53.539
1501.00, 
1502.00, 
1503.00, 
1504.00, 
1505.00, 
1506.00, 
1507.00, 
1508.00, 
1509.00, 
1510.00, 
1511.00, 
1512.00, 
1513.00, 
1514.00, 
1515.00, 
1516.00, 
1517.00, 
1518.00, 
1519.00, 
1520.00, 
1521.00, 
1522.00, 
1523.00, 
1524.00, 
1525.00, 
1526.00, 
1527.00, 
1528.00, 
1529.00, 
1530.00, 
1531.00, 
1532.00, 
1533.00, 
1534.00, 
1535.00, 
1536.00, 
1537.00, 
1538.00, 
1539.00, 
1540.00, 
1541.00, 
1542.00, 
1543.00, 
1544.00, 
1545.00, 
1546.00, 
1547.00, 
1548.00, 
1549.00, 
1550.00, 
1551.00, 
1552.00, 
1553.00, 
1554.00, 
1555.00, 
1556.00, 
1557.00, 
1558.00, 
1559.00, 
1560.00, 
1561.00, 
1562.00, 
1563.00, 
1564.00, 
1565.00, 
1566.00, 
1567.00, 
1568.00, 
1569.00, 
1570.00, 
1571.00, 
1572.00, 
1573.00, 
1574.00, 
1575.00, 
1576.00, 
1577.00, 
1578.00, 
1579.00, 
1580.00, 
1581.00, 
1582.00, 
1583.00, 
1584.00, 
1585.00, 
1586.00, 
1587.00, 
1588.00, 
1589.00, 
1590.00, 
1591.00, 
1592.00, 
1593.00, 
1594.00, 
1595.00, 
1596.00, 
1597.00, 
1598.00, 
1599.00, 
1600.00, 
1601.00, 
1602.00, 
1603.00, 
1604.00, 
1605.00, 
1606.00, 
1607.00, 
1608.00, 
1609.00, 
1610.00, 
1611.00, 
1612.00, 
1613.00, 
1614.00, 
1615.00, 
1616.00, 
1617.00, 
1618.00, 
1619.00, 
1620.00, 
1621.00, 
1622.00, 
1623.00, 
1624.00, 
1625.00, 
1626.00, 
1627.00, 
1628.00, 
1629.00, 
1630.00, 
1631.00, 
1632.00, 
1633.00, 
1634.00, 
1635.00, 
1636.00, 
1637.00, 
1638.00, 
1639.00, 
1640.00, 
1641.00, 
1642.00, 
1643.00, 
1644.00, 
1645.00, 
1646.00, 
1647.00, 
1648.00, 
1649.00, 
1650.00, 
1651.00, 
1652.00, 
1653.00, 
1654.00, 
1655.00, 
1656.00, 
1657.00, 
1658.00, 
1659.00, 
1660.00, 
1661.00, 
1662.00, 
1663.00, 
1664.00, 
1665.00, 
1666.00, 
1667.00, 
1668.00, 
1669.00, 
1670.00, 
1671.00, 
1672.00, 
1673.00, 
1674.00, 
1675.00, 
1676.00, 
1677.00, 
1678.00, 
1679.00, 
1680.00, 
1681.00, 
1682.00, 
1683.00, 
1684.00, 
1685.00, 
1686.00, 
1687.00, 
1688.00, 
1689.00, 
1690.00, 
1691.00, 
1692.00, 
1693.00, 
1694.00, 
1695.00, 
1696.00, 
1697.00, 
1698.00, 
1699.00, 
1700.00, 
1701.00, 
1702.00, 
1703.00, 
1704.00, 
1705.00, 
1706.00, 
1707.00, 
1708.00, 
1709.00, 
1710.00, 
1711.00, 
1712.00, 
1713.00, 
1714.00, 
1715.00, 
1716.00, 
1717.00, 
1718.00, 
1719.00, 
1720.00, 
1721.00, 
1722.00, 
1723.00, 
1724.00, 
1725.00, 
1726.00, 
1727.00, 
1728.00, 
1729.00, 
1730.00, 
1731.00, 
1732.00, 
1733.00, 
1734.00, 
1735.00, 
1736.00, 
1737.00, 
1738.00, 
1739.00, 
1740.00, 
1741.00, 
1742.00, 
1743.00, 
1744.00, 
1745.00, 
1746.00, 
1747.00, 
1748.00, 
1749.00, 
1750.00, 
1751.00, 
1752.00, 
1753.00, 
1754.00, 
1755.00, 
1756.00, 
1757.00, 
1758.00, 
1759.00, 
1760.00, 
1761.00, 
1762.00, 
1763.00, 
1764.00, 
1765.00, 
1766.00, 
1767.00, 
1768.00, 
1769.00, 
1770.00, 
1771.00, 
1772.00, 
1773.00, 
1774.00, 
1775.00, 
1776.00, 
1777.00, 
1778.00, 
1779.00, 
1780.00, 
1781.00, 
1782.00, 
1783.00, 
1784.00, 
1785.00, 
1786.00, 
1787.00, 
1788.00, 
1789.00, 
1790.00, 
1791.00, 
1792.00, 
1793.00, 
1794.00, 
1795.00, 
1796.00, 
1797.00, 
1798.00, 
1799.00, 
1800.00, 
1801.00, 
1802.00, 
1803.00, 
1804.00, 
1805.00, 
1806.00, 
1807.00, 
1808.00, 
1809.00, 
1810.00, 
1811.00, 
1812.00, 
1813.00, 
1814.00, 
1815.00, 
1816.00, 
1817.00, 
1818.00, 
1819.00, 
1820.00, 
1821.00, 
1822.00, 
1823.00, 
1824.00, 
1825.00, 
1826.00, 
1827.00, 
1828.00, 
1829.00, 
1830.00, 
1831.00, 
1832.00, 
1833.00, 
1834.00, 
1835.00, 
1836.00, 
1837.00, 
1838.00, 
1839.00, 
1840.00, 
1841.00, 
1842.00, 
1843.00, 
1844.00, 
1845.00, 
1846.00, 
1847.00, 
1848.00, 
1849.00, 
1850.00, 
1851.00, 
1852.00, 
1853.00, 
1854.00, 
1855.00, 
1856.00, 
1857.00, 
1858.00, 
1859.00, 
1860.00, 
1861.00, 
1862.00, 
1863.00, 
1864.00, 
1865.00, 
1866.00, 
1867.00, 
1868.00, 
1869.00, 
1870.00, 
1871.00, 
1872.00, 
1873.00, 
1874.00, 
1875.00, 
1876.00, 
1877.00, 
1878.00, 
1879.00, 
1880.00, 
1881.00, 
1882.00, 
1883.00, 
1884.00, 
1885.00, 
1886.00, 
1887.00, 
1888.00, 
1889.00, 
1890.00, 
1891.00, 
1892.00, 
1893.00, 
1894.00, 
1895.00, 
1896.00, 
1897.00, 
1898.00, 
1899.00, 
1900.00, 
1901.00, 
1902.00, 
1903.00, 
1904.00, 
1905.00, 
1906.00, 
1907.00, 
1908.00, 
1909.00, 
1910.00, 
1911.00, 
1912.00, 
1913.00, 
1914.00, 
1915.00, 
1916.00, 
1917.00, 
1918.00, 
1919.00, 
1920.00, 
1921.00, 
1922.00, 
1923.00, 
1924.00, 
1925.00, 
1926.00, 
1927.00, 
1928.00, 
1929.00, 
1930.00, 
1931.00, 
1932.00, 
1933.00, 
1934.00, 
1935.00, 
1936.00, 
1937.00, 
1938.00, 
1939.00, 
1940.00, 
1941.00, 
1942.00, 
1943.00, 
1944.00, 
1945.00, 
1946.00, 
1947.00, 
1948.00, 
1949.00, 
1950.00, 
1951.00, 
1952.00, 
1953.00, 
1954.00, 
1955.00, 
1956.00, 
1957.00, 
1958.00, 
1959.00, 
1960.00, 
1961.00, 
1962.00, 
1963.00, 
1964.00, 
1965.00, 
1966.00, 
1967.00, 
1968.00, 
1969.00, 
1970.00, 
1971.00, 
1972.00, 
1973.00, 
1974.00, 
1975.00, 
1976.00, 
1977.00, 
1978.00, 
1979.00, 
1980.00, 
1981.00, 
1982.00, 
1983.00, 
1984.00, 
1985.00, 
1986.00, 
1987.00, 
1988.00, 
1989.00, 
1990.00, 
1991.00, 
1992.00, 
1993.00, 
1994.00, 
1995.00, 
1996.00, 
1997.00, 
1998.00, 
1999.00, 
2000.00, 
2001.00, 
2002.00, 
2003.00, 
2004.00, 
2005.00, 
2006.00, 
2007.00, 
2008.00, 
2009.00, 
2010.00, 
2011.00, 
2012.00, 
2013.00, 
2014.00, 
2015.00, 
2016.00, 
2017.00, 
2018.00, 
2019.00, 
2020.00, 
2021.00, 
2022.00, 
2023.00, 
2024.00, 
2025.00, 
2026.00, 
2027.00, 
2028.00, 
2029.00, 
2030.00, 
2031.00, 
2032.00, 
2033.00, 
2034.00, 
2035.00, 
2036.00, 
2037.00, 
2038.00, 
2039.00, 
2040.00, 
2041.00, 
2042.00, 
2043.00, 
2044.00, 
2045.00, 
2046.00, 
2047.00, 
2048.00, 
2049.00, 
2050.00, 
2051.00, 
2052.00, 
2053.00, 
2054.00, 
2055.00, 
2056.00, 
2057.00, 
2058.00, 
2059.00, 
2060.00, 
2061.00, 
2062.00, 
2063.00, 
2064.00, 
2065.00, 
2066.00, 
2067.00, 
2068.00, 
2069.00, 
2070.00, 
2071.00, 
2072.00, 
2073.00, 
2074.00, 
2075.00, 
2076.00, 
2077.00, 
2078.00, 
2079.00, 
2080.00, 
2081.00, 
2082.00, 
2083.00, 
2084.00, 
2085.00, 
2086.00, 
2087.00, 
2088.00, 
2089.00, 
2090.00, 
2091.00, 
2092.00, 
2093.00, 
2094.00, 
2095.00, 
2096.00, 
2097.00, 
2098.00, 
2099.00, 
2100.00, 
2101.00, 
2102.00, 
2103.00, 
2104.00, 
2105.00, 
2106.00, 
2107.00, 
2108.00, 
2109.00, 
2110.00, 
2111.00, 
2112.00, 
2113.00, 
2114.00, 
2115.00, 
2116.00, 
2117.00, 
2118.00, 
2119.00, 
2120.00, 
2121.00, 
2122.00, 
2123.00, 
2124.00, 
2125.00, 
2126.00, 
2127.00, 
2128.00, 
2129.00, 
2130.00, 
2131.00, 
2132.00, 
2133.00, 
2134.00, 
2135.00, 
2136.00, 
2137.00, 
2138.00, 
2139.00, 
2140.00, 
2141.00, 
2142.00, 
2143.00, 
2144.00, 
2145.00, 
2146.00, 
2147.00, 
2148.00, 
2149.00, 
2150.00, 
2151.00, 
2152.00, 
2153.00, 
2154.00, 
2155.00, 
2156.00, 
2157.00, 
2158.00, 
2159.00, 
2160.00, 
2161.00, 
2162.00, 
2163.00, 
2164.00, 
2165.00, 
2166.00, 
2167.00, 
2168.00, 
2169.00, 
2170.00, 
2171.00, 
2172.00, 
2173.00, 
2174.00, 
2175.00, 
2176.00, 
2177.00, 
2178.00, 
2179.00, 
2180.00, 
2181.00, 
2182.00, 
2183.00, 
2184.00, 
2185.00, 
2186.00, 
2187.00, 
2188.00, 
2189.00, 
2190.00, 
2191.00, 
2192.00, 
2193.00, 
2194.00, 
2195.00, 
2196.00, 
2197.00, 
2198.00, 
2199.00, 
2200.00, 
2201.00, 
2202.00, 
2203.00, 
2204.00, 
2205.00, 
2206.00, 
2207.00, 
2208.00, 
2209.00, 
2210.00, 
2211.00, 
2212.00, 
2213.00, 
2214.00, 
2215.00, 
2216.00, 
2217.00, 
2218.00, 
2219.00, 
2220.00, 
2221.00, 
2222.00, 
2223.00, 
2224.00, 
2225.00, 
2226.00, 
2227.00, 
2228.00, 
2229.00, 
2230.00, 
2231.00, 
2232.00, 
2233.00, 
2234.00, 
2235.00, 
2236.00, 
2237.00, 
2238.00, 
2239.00, 
2240.00, 
2241.00, 
2242.00, 
2243.00, 
2244.00, 
2245.00, 
2246.00, 
2247.00, 
2248.00, 
2249.00, 
2250.00, 
2251.00, 
2252.00, 
2253.00, 
2254.00, 
2255.00, 
2256.00, 
2257.00, 
2258.00, 
2259.00, 
2260.00, 
2261.00, 
2262.00, 
2263.00, 
2264.00, 
2265.00, 
2266.00, 
2267.00, 
2268.00, 
2269.00, 
2270.00, 
2271.00, 
2272.00, 
2273.00, 
2274.00, 
2275.00, 
2276.00, 
2277.00, 
2278.00, 
2279.00, 
2280.00, 
2281.00, 
2282.00, 
2283.00, 
2284.00, 
2285.00, 
2286.00, 
2287.00, 
2288.00, 
2289.00, 
2290.00, 
2291.00, 
2292.00, 
2293.00, 
2294.00, 
2295.00, 
2296.00, 
2297.00, 
2298.00, 
2299.00, 
2300.00, 
2301.00, 
2302.00, 
2303.00, 
2304.00, 
2305.00, 
2306.00, 
2307.00, 
2308.00, 
2309.00, 
2310.00, 
2311.00, 
2312.00, 
2313.00, 
2314.00, 
2315.00, 
2316.00, 
2317.00, 
2318.00, 
2319.00, 
2320.00, 
2321.00, 
2322.00, 
2323.00, 
2324.00, 
2325.00, 
2326.00, 
2327.00, 
2328.00, 
2329.00, 
2330.00, 
2331.00, 
2332.00, 
2333.00, 
2334.00, 
2335.00, 
2336.00, 
2337.00, 
2338.00, 
2339.00, 
2340.00, 
2341.00, 
2342.00, 
2343.00, 
2344.00, 
2345.00, 
2346.00, 
2347.00, 
2348.00, 
2349.00, 
2350.00, 
2351.00, 
2352.00, 
2353.00, 
2354.00, 
2355.00, 
2356.00, 
2357.00, 
2358.00, 
2359.00, 
2360.00, 
2361.00, 
2362.00, 
2363.00, 
2364.00, 
2365.00, 
2366.00, 
2367.00, 
2368.00, 
2369.00, 
2370.00, 
2371.00, 
2372.00, 
2373.00, 
2374.00, 
2375.00, 
2376.00, 
2377.00, 
2378.00, 
2379.00, 
2380.00, 
2381.00, 
2382.00, 
2383.00, 
2384.00, 
2385.00, 
2386.00, 
2387.00, 
2388.00, 
2389.00, 
2390.00, 
2391.00, 
2392.00, 
2393.00, 
2394.00, 
2395.00, 
2396.00, 
2397.00, 
2398.00, 
2399.00, 
2400.00, 
2401.00, 
2402.00, 
2403.00, 
2404.00, 
2405.00, 
2406.00, 
2407.00, 
2408.00, 
2409.00, 
2410.00, 
2411.00, 
2412.00, 
2413.00, 
2414.00, 
2415.00, 
2416.00, 
2417.00, 
2418.00, 
2419.00, 
2420.00, 
2421.00, 
2422.00, 
2423.00, 
2424.00, 
2425.00, 
2426.00, 
2427.00, 
2428.00, 
2429.00, 
2430.00, 
2431.00, 
2432.00, 
2433.00, 
2434.00, 
2435.00, 
2436.00, 
2437.00, 
2438.00, 
2439.00, 
2440.00, 
2441.00, 
2442.00, 
2443.00, 
2444.00, 
2445.00, 
2446.00, 
2447.00, 
2448.00, 
2449.00, 
2450.00, 
2451.00, 
2452.00, 
2453.00, 
2454.00, 
2455.00, 
2456.00, 
2457.00, 
2458.00, 
2459.00, 
2460.00, 
2461.00, 
2462.00, 
2463.00, 
2464.00, 
2465.00, 
2466.00, 
2467.00, 
2468.00, 
2469.00, 
2470.00, 
2471.00, 
2472.00, 
2473.00, 
2474.00, 
2475.00, 
2476.00, 
2477.00, 
2478.00, 
2479.00, 
2480.00, 
2481.00, 
2482.00, 
2483.00, 
2484.00, 
2485.00, 
2486.00, 
2487.00, 
2488.00, 
2489.00, 
2490.00, 
2491.00, 
2492.00, 
2493.00, 
2494.00, 
2495.00, 
2496.00, 
2497.00, 
2498.00, 
2499.00, 
2500.00, 
2501.00, 
2502.00, 
2503.00, 
2504.00, 
2505.00, 
2506.00, 
2507.00, 
2508.00, 
2509.00, 
2510.00, 
2511.00, 
2512.00, 
2513.00, 
2514.00, 
2515.00, 
2516.00, 
2517.00, 
2518.00, 
2519.00, 
2520.00, 
2521.00, 
2522.00, 
2523.00, 
2524.00, 
2525.00, 
2526.00, 
2527.00, 
2528.00, 
2529.00, 
2530.00, 
2531.00, 
2532.00, 
2533.00, 
2534.00, 
2535.00, 
2536.00, 
2537.00, 
2538.00, 
2539.00, 
2540.00, 
2541.00, 
2542.00, 
2543.00, 
2544.00, 
2545.00, 
2546.00, 
2547.00, 
2548.00, 
2549.00, 
2550.00, 
2551.00, 
2552.00, 
2553.00, 
2554.00, 
2555.00, 
2556.00, 
2557.00, 
2558.00, 
2559.00, 
2560.00, 
2561.00, 
2562.00, 
2563.00, 
2564.00, 
2565.00, 
2566.00, 
2567.00, 
2568.00, 
2569.00, 
2570.00, 
2571.00, 
2572.00, 
2573.00, 
2574.00, 
2575.00, 
2576.00, 
2577.00, 
2578.00, 
2579.00, 
2580.00, 
2581.00, 
2582.00, 
2583.00, 
2584.00, 
2585.00, 
2586.00, 
2587.00, 
2588.00, 
2589.00, 
2590.00, 
2591.00, 
2592.00, 
2593.00, 
2594.00, 
2595.00, 
2596.00, 
2597.00, 
2598.00, 
2599.00, 
2600.00, 
