"1cP3 - RawData"
"Wavelength nm.","T%"
200.00,0.001
201.00,0.001
202.00,0.003
203.00,0.001
204.00,0.006
205.00,0.001
206.00,-0.001
207.00,0.002
208.00,0.002
209.00,-0.000
210.00,-0.002
211.00,0.001
212.00,0.004
213.00,0.000
214.00,-0.001
215.00,0.002
216.00,0.003
217.00,0.000
218.00,-0.002
219.00,-0.001
220.00,0.003
221.00,-0.001
222.00,0.002
223.00,-0.000
224.00,0.001
225.00,0.000
226.00,0.001
227.00,0.002
228.00,0.002
229.00,0.001
230.00,-0.000
231.00,-0.001
232.00,0.000
233.00,0.001
234.00,-0.000
235.00,0.002
236.00,-0.000
237.00,0.000
238.00,-0.000
239.00,0.000
240.00,-0.000
241.00,0.002
242.00,0.003
243.00,0.002
244.00,0.000
245.00,0.001
246.00,0.001
247.00,0.000
248.00,0.001
249.00,-0.001
250.00,0.001
251.00,-0.000
252.00,-0.001
253.00,-0.001
254.00,0.001
255.00,0.002
256.00,0.001
257.00,0.001
258.00,0.001
259.00,0.001
260.00,0.001
261.00,0.001
262.00,-0.002
263.00,-0.001
264.00,-0.002
265.00,0.001
266.00,-0.001
267.00,0.000
268.00,-0.001
269.00,-0.000
270.00,-0.000
271.00,0.000
272.00,0.002
273.00,0.001
274.00,0.000
275.00,-0.000
276.00,0.000
277.00,0.000
278.00,0.002
279.00,0.000
280.00,-0.000
281.00,0.000
282.00,-0.001
283.00,-0.000
284.00,0.000
285.00,0.001
286.00,-0.001
287.00,0.000
288.00,-0.000
289.00,0.001
290.00,0.001
291.00,0.001
292.00,0.000
293.00,-0.000
294.00,-0.001
295.00,-0.000
296.00,0.001
297.00,0.001
298.00,-0.000
299.00,0.001
300.00,0.001
301.00,0.000
302.00,-0.001
303.00,0.001
304.00,-0.000
305.00,0.003
306.00,0.001
307.00,0.004
308.00,0.009
309.00,0.013
310.00,0.021
311.00,0.032
312.00,0.050
313.00,0.079
314.00,0.114
315.00,0.166
316.00,0.238
317.00,0.345
318.00,0.464
319.00,0.638
320.00,0.859
321.00,1.101
322.00,1.418
323.00,1.787
324.00,2.206
325.00,2.649
326.00,3.165
327.00,3.753
328.00,4.406
329.00,5.088
330.00,5.828
331.00,6.600
332.00,7.431
333.00,8.343
334.00,9.124
335.00,10.094
336.00,10.992
337.00,11.978
338.00,12.899
339.00,13.783
340.00,14.743
341.00,15.664
342.00,16.525
343.00,17.313
344.00,18.123
345.00,19.000
346.00,19.695
347.00,20.435
348.00,21.096
349.00,21.763
350.00,22.402
351.00,22.987
352.00,23.496
353.00,23.988
354.00,24.529
355.00,25.041
356.00,25.426
357.00,25.811
358.00,26.233
359.00,26.617
360.00,26.956
361.00,27.290
362.00,27.610
363.00,27.859
364.00,27.970
365.00,28.194
366.00,28.371
367.00,28.565
368.00,28.630
369.00,28.731
370.00,28.903
371.00,28.920
372.00,28.923
373.00,28.969
374.00,29.013
375.00,29.051
376.00,28.900
377.00,28.881
378.00,28.731
379.00,28.618
380.00,28.660
381.00,28.655
382.00,28.684
383.00,28.804
384.00,28.906
385.00,28.967
386.00,29.019
387.00,29.237
388.00,29.353
389.00,29.413
390.00,29.563
391.00,29.620
392.00,29.670
393.00,29.728
394.00,29.799
395.00,29.854
396.00,29.863
397.00,29.924
398.00,29.942
399.00,29.955
400.00,29.945
401.00,29.983
402.00,29.986
403.00,30.005
404.00,29.987
405.00,29.960
406.00,29.970
407.00,29.908
408.00,29.936
409.00,29.857
410.00,29.808
411.00,29.780
412.00,29.715
413.00,29.777
414.00,29.728
415.00,29.739
416.00,29.807
417.00,29.768
418.00,29.737
419.00,29.848
420.00,29.913
421.00,29.911
422.00,29.872
423.00,29.954
424.00,29.987
425.00,30.060
426.00,30.039
427.00,30.068
428.00,30.093
429.00,30.086
430.00,30.136
431.00,30.296
432.00,30.276
433.00,30.342
434.00,30.369
435.00,30.428
436.00,30.458
437.00,30.511
438.00,30.592
439.00,30.638
440.00,30.709
441.00,30.765
442.00,30.824
443.00,30.926
444.00,31.005
445.00,31.049
446.00,31.159
447.00,31.181
448.00,31.301
449.00,31.380
450.00,31.490
451.00,31.567
452.00,31.673
453.00,31.749
454.00,31.790
455.00,31.926
456.00,32.025
457.00,32.171
458.00,32.270
459.00,32.385
460.00,32.500
461.00,32.621
462.00,32.643
463.00,32.831
464.00,32.933
465.00,33.048
466.00,33.219
467.00,33.309
468.00,33.323
469.00,33.393
470.00,33.491
471.00,33.553
472.00,33.697
473.00,33.750
474.00,33.843
475.00,33.844
476.00,33.983
477.00,34.062
478.00,34.177
479.00,34.378
480.00,34.470
481.00,34.586
482.00,34.641
483.00,34.819
484.00,35.044
485.00,35.042
486.00,35.244
487.00,35.339
488.00,35.502
489.00,35.638
490.00,35.772
491.00,35.886
492.00,36.115
493.00,36.235
494.00,36.196
495.00,36.264
496.00,36.428
497.00,36.507
498.00,36.655
499.00,36.782
500.00,36.977
501.00,36.961
502.00,37.004
503.00,37.160
504.00,37.114
505.00,37.368
506.00,37.460
507.00,37.515
508.00,37.669
509.00,37.795
510.00,37.899
511.00,37.988
512.00,38.124
513.00,38.306
514.00,38.383
515.00,38.548
516.00,38.574
517.00,38.680
518.00,38.820
519.00,38.835
520.00,38.820
521.00,38.944
522.00,39.061
523.00,39.060
524.00,39.150
525.00,39.262
526.00,39.368
527.00,39.377
528.00,39.400
529.00,39.663
530.00,39.771
531.00,39.916
532.00,40.013
533.00,40.101
534.00,40.163
535.00,40.290
536.00,40.329
537.00,40.413
538.00,40.512
539.00,40.497
540.00,40.585
541.00,40.600
542.00,40.634
543.00,40.717
544.00,40.839
545.00,40.882
546.00,40.900
547.00,41.028
548.00,41.139
549.00,41.158
550.00,41.281
551.00,41.356
552.00,41.374
553.00,41.479
554.00,41.521
555.00,41.514
556.00,41.621
557.00,41.637
558.00,41.743
559.00,41.826
560.00,41.771
561.00,41.881
562.00,42.049
563.00,41.954
564.00,42.125
565.00,42.123
566.00,42.110
567.00,42.190
568.00,42.247
569.00,42.280
570.00,42.316
571.00,42.336
572.00,42.304
573.00,42.310
574.00,42.397
575.00,42.321
576.00,42.299
577.00,42.400
578.00,42.513
579.00,42.626
580.00,42.657
581.00,42.839
582.00,42.883
583.00,42.909
584.00,43.001
585.00,43.024
586.00,43.083
587.00,43.213
588.00,43.195
589.00,43.142
590.00,43.213
591.00,43.248
592.00,43.201
593.00,43.267
594.00,43.374
595.00,43.417
596.00,43.495
597.00,43.580
598.00,43.691
599.00,43.587
600.00,43.573
601.00,43.651
602.00,43.626
603.00,43.690
604.00,43.776
605.00,43.783
606.00,43.726
607.00,43.782
608.00,43.992
609.00,44.049
610.00,43.947
611.00,44.037
612.00,44.066
613.00,44.051
614.00,44.178
615.00,44.208
616.00,44.257
617.00,44.272
618.00,44.268
619.00,44.292
620.00,44.201
621.00,44.409
622.00,44.446
623.00,44.503
624.00,44.514
625.00,44.594
626.00,44.658
627.00,44.645
628.00,44.671
629.00,44.709
630.00,44.689
631.00,44.740
632.00,44.841
633.00,44.929
634.00,44.983
635.00,45.061
636.00,45.113
637.00,45.074
638.00,45.161
639.00,45.319
640.00,45.300
641.00,45.272
642.00,45.283
643.00,45.398
644.00,45.455
645.00,45.496
646.00,45.625
647.00,45.638
648.00,45.608
649.00,45.605
650.00,45.694
651.00,45.834
652.00,45.844
653.00,45.766
654.00,45.816
655.00,46.119
656.00,46.249
657.00,46.172
658.00,46.198
659.00,46.185
660.00,46.420
661.00,46.310
662.00,46.324
663.00,46.397
664.00,46.576
665.00,46.759
666.00,46.633
667.00,46.675
668.00,46.582
669.00,46.866
670.00,47.121
671.00,46.890
672.00,46.959
673.00,47.119
674.00,47.075
675.00,47.111
676.00,47.388
677.00,47.420
678.00,47.049
679.00,47.354
680.00,47.516
681.00,47.612
682.00,47.538
683.00,47.417
684.00,47.775
685.00,47.760
686.00,47.514
687.00,47.699
688.00,47.745
689.00,47.552
690.00,47.911
691.00,48.154
692.00,47.890
693.00,47.827
694.00,48.025
695.00,48.108
696.00,48.085
697.00,47.771
698.00,48.334
699.00,48.797
700.00,48.427
701.00,48.437
702.00,48.474
703.00,48.569
704.00,48.484
705.00,48.366
706.00,48.672
707.00,48.532
708.00,48.678
709.00,49.174
710.00,48.705
711.00,48.642
712.00,48.710
713.00,48.875
714.00,49.072
715.00,48.936
716.00,48.864
717.00,49.127
718.00,49.133
719.00,49.083
720.00,49.068
721.00,53.868
722.00,53.806
723.00,53.726
724.00,53.756
725.00,53.687
726.00,53.764
727.00,53.677
728.00,53.716
729.00,53.730
730.00,53.713
731.00,53.699
732.00,53.672
733.00,53.730
734.00,53.710
735.00,53.699
736.00,53.741
737.00,53.819
738.00,53.715
739.00,53.746
740.00,53.716
741.00,53.737
742.00,53.792
743.00,53.669
744.00,53.644
745.00,53.670
746.00,53.593
747.00,53.667
748.00,53.549
749.00,53.521
750.00,53.573
751.00,53.534
752.00,53.530
753.00,53.458
754.00,53.465
755.00,53.471
756.00,53.445
757.00,53.390
758.00,53.390
759.00,53.432
760.00,53.431
761.00,53.416
762.00,53.310
763.00,53.371
764.00,53.380
765.00,53.255
766.00,53.365
767.00,53.361
768.00,53.383
769.00,53.268
770.00,53.337
771.00,53.305
772.00,53.319
773.00,53.282
774.00,53.171
775.00,53.304
776.00,53.188
777.00,53.216
778.00,53.198
779.00,53.275
780.00,53.225
781.00,53.169
782.00,53.214
783.00,53.143
784.00,53.197
785.00,53.101
786.00,53.102
787.00,53.099
788.00,52.992
789.00,53.012
790.00,52.942
791.00,53.015
792.00,52.906
793.00,52.976
794.00,52.910
795.00,52.893
796.00,52.886
797.00,52.754
798.00,52.863
799.00,52.791
800.00,52.766
801.00,52.715
802.00,52.682
803.00,52.680
804.00,52.605
805.00,52.666
806.00,52.544
807.00,52.528
808.00,52.617
809.00,52.570
810.00,52.499
811.00,52.507
812.00,52.486
813.00,52.442
814.00,52.431
815.00,52.434
816.00,52.436
817.00,52.429
818.00,52.261
819.00,52.378
820.00,52.198
821.00,52.265
822.00,52.288
823.00,52.230
824.00,52.248
825.00,52.148
826.00,52.110
827.00,52.204
828.00,52.174
829.00,52.055
830.00,52.016
831.00,54.434
832.00,54.447
833.00,54.354
834.00,54.384
835.00,54.329
836.00,54.313
837.00,54.271
838.00,54.277
839.00,54.253
840.00,54.188
841.00,54.223
842.00,54.144
843.00,54.160
844.00,54.112
845.00,54.076
846.00,54.037
847.00,54.017
848.00,54.026
849.00,53.948
850.00,53.916
851.00,53.842
852.00,53.867
853.00,53.895
854.00,53.777
855.00,53.734
856.00,53.746
857.00,53.709
858.00,53.676
859.00,53.653
860.00,53.651
861.00,53.619
862.00,53.592
863.00,53.556
864.00,53.516
865.00,53.554
866.00,53.498
867.00,53.520
868.00,53.463
869.00,53.424
870.00,53.459
871.00,53.441
872.00,53.440
873.00,53.408
874.00,53.541
875.00,53.388
876.00,53.409
877.00,53.369
878.00,53.357
879.00,53.391
880.00,53.196
881.00,53.288
882.00,53.311
883.00,53.260
884.00,53.223
885.00,53.225
886.00,53.192
887.00,53.159
888.00,53.123
889.00,53.142
890.00,53.112
891.00,53.054
892.00,53.055
893.00,52.986
894.00,53.036
895.00,52.810
896.00,52.945
897.00,52.924
898.00,52.905
899.00,52.885
900.00,52.890
901.00,52.863
902.00,52.864
903.00,52.841
904.00,52.809
905.00,52.794
906.00,52.782
907.00,52.733
908.00,52.735
909.00,52.709
910.00,52.647
911.00,52.668
912.00,52.662
913.00,52.576
914.00,52.728
915.00,52.591
916.00,52.554
917.00,52.528
918.00,52.540
919.00,52.475
920.00,52.464
921.00,52.469
922.00,52.422
923.00,52.391
924.00,52.359
925.00,52.347
926.00,52.354
927.00,52.337
928.00,52.335
929.00,52.301
930.00,52.268
931.00,52.294
932.00,52.251
933.00,52.215
934.00,52.189
935.00,52.192
936.00,52.156
937.00,52.132
938.00,52.113
939.00,52.098
940.00,52.056
941.00,52.019
942.00,52.026
943.00,52.002
944.00,51.897
945.00,51.971
946.00,51.939
947.00,51.897
948.00,51.876
949.00,51.871
950.00,51.855
951.00,51.853
952.00,51.799
953.00,51.787
954.00,51.762
955.00,51.703
956.00,51.690
957.00,51.684
958.00,51.653
959.00,51.593
960.00,51.620
961.00,51.620
962.00,51.611
963.00,51.546
964.00,51.551
965.00,51.561
966.00,51.517
967.00,51.513
968.00,51.489
969.00,51.501
970.00,51.482
971.00,51.500
972.00,51.486
973.00,51.511
974.00,51.478
975.00,51.509
976.00,51.512
977.00,51.477
978.00,51.508
979.00,51.478
980.00,51.484
981.00,51.476
982.00,51.457
983.00,51.469
984.00,51.441
985.00,51.450
986.00,51.432
987.00,51.435
988.00,51.375
989.00,51.387
990.00,51.385
991.00,51.362
992.00,51.385
993.00,51.340
994.00,51.336
995.00,51.315
996.00,51.311
997.00,51.302
998.00,51.279
999.00,51.292
1000.00,51.313
1001.00,51.262
1002.00,51.245
1003.00,51.255
1004.00,51.223
1005.00,51.186
1006.00,51.228
1007.00,51.192
1008.00,51.171
1009.00,51.172
1010.00,51.152
1011.00,51.141
1012.00,51.115
1013.00,51.101
1014.00,51.090
1015.00,51.091
1016.00,51.033
1017.00,51.039
1018.00,51.015
1019.00,51.006
1020.00,51.000
1021.00,50.947
1022.00,50.948
1023.00,50.914
1024.00,50.908
1025.00,50.872
1026.00,50.889
1027.00,50.863
1028.00,50.860
1029.00,50.836
1030.00,50.812
1031.00,50.828
1032.00,50.760
1033.00,50.780
1034.00,50.736
1035.00,50.687
1036.00,50.703
1037.00,50.668
1038.00,50.649
1039.00,50.620
1040.00,50.616
1041.00,50.595
1042.00,50.604
1043.00,50.570
1044.00,50.615
1045.00,50.600
1046.00,50.567
1047.00,50.610
1048.00,50.612
1049.00,50.614
1050.00,50.621
1051.00,50.648
1052.00,50.650
1053.00,50.652
1054.00,50.643
1055.00,50.663
1056.00,50.665
1057.00,50.699
1058.00,50.687
1059.00,50.673
1060.00,50.691
1061.00,50.712
1062.00,50.658
1063.00,50.656
1064.00,50.668
1065.00,50.640
1066.00,50.643
1067.00,50.644
1068.00,50.645
1069.00,50.613
1070.00,50.585
1071.00,50.580
1072.00,50.597
1073.00,50.562
1074.00,50.563
1075.00,50.556
1076.00,50.542
1077.00,50.532
1078.00,50.519
1079.00,50.516
1080.00,50.530
1081.00,50.519
1082.00,50.534
1083.00,50.500
1084.00,50.483
1085.00,50.500
1086.00,50.491
1087.00,50.469
1088.00,50.463
1089.00,50.463
1090.00,50.446
1091.00,50.453
1092.00,50.444
1093.00,50.419
1094.00,50.403
1095.00,50.390
1096.00,50.379
1097.00,50.385
1098.00,50.355
1099.00,50.368
1100.00,50.362
1101.00,50.348
1102.00,50.335
1103.00,50.324
1104.00,50.319
1105.00,50.308
1106.00,50.300
1107.00,50.293
1108.00,50.291
1109.00,50.275
1110.00,50.261
1111.00,50.259
1112.00,50.241
1113.00,50.259
1114.00,50.238
1115.00,50.249
1116.00,50.240
1117.00,50.213
1118.00,50.216
1119.00,50.210
1120.00,50.197
1121.00,50.197
1122.00,50.184
1123.00,50.167
1124.00,50.172
1125.00,50.168
1126.00,50.165
1127.00,50.188
1128.00,50.185
1129.00,50.125
1130.00,50.132
1131.00,50.112
1132.00,50.122
1133.00,50.129
1134.00,50.097
1135.00,50.090
1136.00,50.088
1137.00,50.108
1138.00,50.096
1139.00,50.085
1140.00,50.092
1141.00,50.078
1142.00,50.068
1143.00,50.095
1144.00,50.067
1145.00,50.044
1146.00,50.063
1147.00,50.048
1148.00,50.056
1149.00,50.066
1150.00,50.058
1151.00,50.070
1152.00,50.063
1153.00,50.034
1154.00,50.039
1155.00,50.043
1156.00,50.019
1157.00,50.037
1158.00,50.028
1159.00,50.029
1160.00,50.027
1161.00,50.036
1162.00,50.046
1163.00,50.034
1164.00,50.018
1165.00,50.023
1166.00,50.022
1167.00,49.987
1168.00,50.027
1169.00,50.036
1170.00,50.037
1171.00,50.023
1172.00,50.025
1173.00,50.023
1174.00,50.032
1175.00,49.999
1176.00,50.021
1177.00,50.012
1178.00,50.000
1179.00,50.030
1180.00,50.014
1181.00,50.024
1182.00,50.016
1183.00,50.007
1184.00,50.004
1185.00,50.011
1186.00,49.985
1187.00,50.001
1188.00,50.004
1189.00,49.988
1190.00,50.002
1191.00,49.998
1192.00,50.013
1193.00,50.008
1194.00,49.986
1195.00,49.981
1196.00,50.023
1197.00,50.000
1198.00,50.008
1199.00,49.998
1200.00,49.996
1201.00,50.014
1202.00,50.001
1203.00,50.027
1204.00,50.012
1205.00,49.995
1206.00,49.986
1207.00,50.001
1208.00,49.971
1209.00,50.005
1210.00,49.992
1211.00,49.987
1212.00,50.010
1213.00,49.978
1214.00,49.996
1215.00,49.978
1216.00,50.004
1217.00,50.012
1218.00,50.021
1219.00,50.022
1220.00,49.985
1221.00,50.021
1222.00,50.001
1223.00,50.058
1224.00,50.044
1225.00,50.020
1226.00,50.021
1227.00,50.006
1228.00,50.036
1229.00,50.029
1230.00,50.035
1231.00,50.031
1232.00,50.063
1233.00,50.055
1234.00,50.069
1235.00,50.069
1236.00,50.061
1237.00,50.080
1238.00,50.071
1239.00,50.083
1240.00,50.064
1241.00,50.064
1242.00,50.089
1243.00,50.092
1244.00,50.054
1245.00,50.101
1246.00,50.103
1247.00,50.093
1248.00,50.095
1249.00,50.114
1250.00,50.124
1251.00,50.119
1252.00,50.115
1253.00,50.120
1254.00,50.148
1255.00,50.124
1256.00,50.124
1257.00,50.126
1258.00,50.164
1259.00,50.165
1260.00,50.173
1261.00,50.182
1262.00,50.171
1263.00,50.164
1264.00,50.192
1265.00,50.190
1266.00,50.190
1267.00,50.218
1268.00,50.231
1269.00,50.222
1270.00,50.247
1271.00,50.238
1272.00,50.254
1273.00,50.276
1274.00,50.255
1275.00,50.283
1276.00,50.271
1277.00,50.264
1278.00,50.271
1279.00,50.269
1280.00,50.268
1281.00,50.298
1282.00,50.299
1283.00,50.308
1284.00,50.324
1285.00,50.308
1286.00,50.331
1287.00,50.332
1288.00,50.319
1289.00,50.325
1290.00,50.352
1291.00,50.334
1292.00,50.325
1293.00,50.331
1294.00,50.364
1295.00,50.375
1296.00,50.366
1297.00,50.377
1298.00,50.422
1299.00,50.372
1300.00,50.402
1301.00,50.399
1302.00,50.421
1303.00,50.425
1304.00,50.402
1305.00,50.441
1306.00,50.437
1307.00,50.411
1308.00,50.444
1309.00,50.471
1310.00,50.440
1311.00,50.458
1312.00,50.467
1313.00,50.485
1314.00,50.507
1315.00,50.500
1316.00,50.511
1317.00,50.544
1318.00,50.541
1319.00,50.555
1320.00,50.568
1321.00,50.717
1322.00,50.723
1323.00,50.707
1324.00,50.689
1325.00,50.682
1326.00,50.692
1327.00,50.693
1328.00,50.702
1329.00,50.678
1330.00,50.712
1331.00,50.702
1332.00,50.710
1333.00,50.713
1334.00,50.745
1335.00,50.757
1336.00,50.796
1337.00,50.828
1338.00,50.899
1339.00,50.939
1340.00,50.996
1341.00,51.076
1342.00,51.135
1343.00,51.198
1344.00,51.244
1345.00,51.248
1346.00,51.302
1347.00,51.367
1348.00,51.379
1349.00,51.385
1350.00,51.413
1351.00,51.419
1352.00,51.421
1353.00,51.382
1354.00,51.419
1355.00,51.484
1356.00,51.482
1357.00,51.452
1358.00,51.477
1359.00,51.425
1360.00,51.448
1361.00,51.694
1362.00,51.571
1363.00,51.422
1364.00,51.643
1365.00,51.515
1366.00,51.537
1367.00,51.561
1368.00,51.502
1369.00,51.462
1370.00,51.528
1371.00,51.507
1372.00,51.465
1373.00,51.467
1374.00,51.541
1375.00,51.489
1376.00,51.502
1377.00,51.470
1378.00,51.484
1379.00,51.468
1380.00,51.527
1381.00,51.554
1382.00,51.663
1383.00,51.561
1384.00,51.555
1385.00,51.563
1386.00,51.537
1387.00,51.519
1388.00,51.535
1389.00,51.549
1390.00,51.508
1391.00,51.553
1392.00,51.476
1393.00,51.490
1394.00,51.498
1395.00,51.536
1396.00,51.482
1397.00,51.575
1398.00,51.532
1399.00,51.527
1400.00,51.535
1401.00,51.496
1402.00,51.591
1403.00,51.562
1404.00,51.572
1405.00,51.575
1406.00,51.613
1407.00,51.582
1408.00,51.583
1409.00,51.591
1410.00,51.621
1411.00,51.588
1412.00,51.656
1413.00,51.599
1414.00,51.601
1415.00,51.648
1416.00,51.685
1417.00,51.693
1418.00,51.692
1419.00,51.704
1420.00,51.699
1421.00,51.715
1422.00,51.726
1423.00,51.764
1424.00,51.771
1425.00,51.792
1426.00,51.815
1427.00,51.847
1428.00,51.846
1429.00,51.882
1430.00,51.880
1431.00,51.923
1432.00,51.923
1433.00,51.931
1434.00,51.925
1435.00,51.985
1436.00,51.993
1437.00,51.986
1438.00,52.011
1439.00,52.044
1440.00,52.070
1441.00,52.083
1442.00,52.095
1443.00,52.111
1444.00,52.189
1445.00,52.139
1446.00,52.156
1447.00,52.189
1448.00,52.215
1449.00,52.238
1450.00,52.238
1451.00,52.239
1452.00,52.283
1453.00,52.272
1454.00,52.317
1455.00,52.320
1456.00,52.343
1457.00,52.340
1458.00,52.376
1459.00,52.402
1460.00,52.435
1461.00,52.431
1462.00,52.473
1463.00,52.481
1464.00,52.490
1465.00,52.504
1466.00,52.508
1467.00,52.541
1468.00,52.621
1469.00,52.574
1470.00,52.604
1471.00,52.617
1472.00,52.604
1473.00,52.633
1474.00,52.662
1475.00,52.672
1476.00,52.685
1477.00,52.669
1478.00,52.712
1479.00,52.734
1480.00,52.739
1481.00,52.755
1482.00,52.778
1483.00,52.785
1484.00,52.803
1485.00,52.814
1486.00,52.814
1487.00,52.836
1488.00,52.878
1489.00,52.875
1490.00,52.883
1491.00,52.895
1492.00,52.931
1493.00,52.927
1494.00,52.951
1495.00,52.939
1496.00,52.967
1497.00,52.927
1498.00,52.961
1499.00,52.991
1500.00,53.015
1501.00, 
1502.00, 
1503.00, 
1504.00, 
1505.00, 
1506.00, 
1507.00, 
1508.00, 
1509.00, 
1510.00, 
1511.00, 
1512.00, 
1513.00, 
1514.00, 
1515.00, 
1516.00, 
1517.00, 
1518.00, 
1519.00, 
1520.00, 
1521.00, 
1522.00, 
1523.00, 
1524.00, 
1525.00, 
1526.00, 
1527.00, 
1528.00, 
1529.00, 
1530.00, 
1531.00, 
1532.00, 
1533.00, 
1534.00, 
1535.00, 
1536.00, 
1537.00, 
1538.00, 
1539.00, 
1540.00, 
1541.00, 
1542.00, 
1543.00, 
1544.00, 
1545.00, 
1546.00, 
1547.00, 
1548.00, 
1549.00, 
1550.00, 
1551.00, 
1552.00, 
1553.00, 
1554.00, 
1555.00, 
1556.00, 
1557.00, 
1558.00, 
1559.00, 
1560.00, 
1561.00, 
1562.00, 
1563.00, 
1564.00, 
1565.00, 
1566.00, 
1567.00, 
1568.00, 
1569.00, 
1570.00, 
1571.00, 
1572.00, 
1573.00, 
1574.00, 
1575.00, 
1576.00, 
1577.00, 
1578.00, 
1579.00, 
1580.00, 
1581.00, 
1582.00, 
1583.00, 
1584.00, 
1585.00, 
1586.00, 
1587.00, 
1588.00, 
1589.00, 
1590.00, 
1591.00, 
1592.00, 
1593.00, 
1594.00, 
1595.00, 
1596.00, 
1597.00, 
1598.00, 
1599.00, 
1600.00, 
1601.00, 
1602.00, 
1603.00, 
1604.00, 
1605.00, 
1606.00, 
1607.00, 
1608.00, 
1609.00, 
1610.00, 
1611.00, 
1612.00, 
1613.00, 
1614.00, 
1615.00, 
1616.00, 
1617.00, 
1618.00, 
1619.00, 
1620.00, 
1621.00, 
1622.00, 
1623.00, 
1624.00, 
1625.00, 
1626.00, 
1627.00, 
1628.00, 
1629.00, 
1630.00, 
1631.00, 
1632.00, 
1633.00, 
1634.00, 
1635.00, 
1636.00, 
1637.00, 
1638.00, 
1639.00, 
1640.00, 
1641.00, 
1642.00, 
1643.00, 
1644.00, 
1645.00, 
1646.00, 
1647.00, 
1648.00, 
1649.00, 
1650.00, 
1651.00, 
1652.00, 
1653.00, 
1654.00, 
1655.00, 
1656.00, 
1657.00, 
1658.00, 
1659.00, 
1660.00, 
1661.00, 
1662.00, 
1663.00, 
1664.00, 
1665.00, 
1666.00, 
1667.00, 
1668.00, 
1669.00, 
1670.00, 
1671.00, 
1672.00, 
1673.00, 
1674.00, 
1675.00, 
1676.00, 
1677.00, 
1678.00, 
1679.00, 
1680.00, 
1681.00, 
1682.00, 
1683.00, 
1684.00, 
1685.00, 
1686.00, 
1687.00, 
1688.00, 
1689.00, 
1690.00, 
1691.00, 
1692.00, 
1693.00, 
1694.00, 
1695.00, 
1696.00, 
1697.00, 
1698.00, 
1699.00, 
1700.00, 
1701.00, 
1702.00, 
1703.00, 
1704.00, 
1705.00, 
1706.00, 
1707.00, 
1708.00, 
1709.00, 
1710.00, 
1711.00, 
1712.00, 
1713.00, 
1714.00, 
1715.00, 
1716.00, 
1717.00, 
1718.00, 
1719.00, 
1720.00, 
1721.00, 
1722.00, 
1723.00, 
1724.00, 
1725.00, 
1726.00, 
1727.00, 
1728.00, 
1729.00, 
1730.00, 
1731.00, 
1732.00, 
1733.00, 
1734.00, 
1735.00, 
1736.00, 
1737.00, 
1738.00, 
1739.00, 
1740.00, 
1741.00, 
1742.00, 
1743.00, 
1744.00, 
1745.00, 
1746.00, 
1747.00, 
1748.00, 
1749.00, 
1750.00, 
1751.00, 
1752.00, 
1753.00, 
1754.00, 
1755.00, 
1756.00, 
1757.00, 
1758.00, 
1759.00, 
1760.00, 
1761.00, 
1762.00, 
1763.00, 
1764.00, 
1765.00, 
1766.00, 
1767.00, 
1768.00, 
1769.00, 
1770.00, 
1771.00, 
1772.00, 
1773.00, 
1774.00, 
1775.00, 
1776.00, 
1777.00, 
1778.00, 
1779.00, 
1780.00, 
1781.00, 
1782.00, 
1783.00, 
1784.00, 
1785.00, 
1786.00, 
1787.00, 
1788.00, 
1789.00, 
1790.00, 
1791.00, 
1792.00, 
1793.00, 
1794.00, 
1795.00, 
1796.00, 
1797.00, 
1798.00, 
1799.00, 
1800.00, 
1801.00, 
1802.00, 
1803.00, 
1804.00, 
1805.00, 
1806.00, 
1807.00, 
1808.00, 
1809.00, 
1810.00, 
1811.00, 
1812.00, 
1813.00, 
1814.00, 
1815.00, 
1816.00, 
1817.00, 
1818.00, 
1819.00, 
1820.00, 
1821.00, 
1822.00, 
1823.00, 
1824.00, 
1825.00, 
1826.00, 
1827.00, 
1828.00, 
1829.00, 
1830.00, 
1831.00, 
1832.00, 
1833.00, 
1834.00, 
1835.00, 
1836.00, 
1837.00, 
1838.00, 
1839.00, 
1840.00, 
1841.00, 
1842.00, 
1843.00, 
1844.00, 
1845.00, 
1846.00, 
1847.00, 
1848.00, 
1849.00, 
1850.00, 
1851.00, 
1852.00, 
1853.00, 
1854.00, 
1855.00, 
1856.00, 
1857.00, 
1858.00, 
1859.00, 
1860.00, 
1861.00, 
1862.00, 
1863.00, 
1864.00, 
1865.00, 
1866.00, 
1867.00, 
1868.00, 
1869.00, 
1870.00, 
1871.00, 
1872.00, 
1873.00, 
1874.00, 
1875.00, 
1876.00, 
1877.00, 
1878.00, 
1879.00, 
1880.00, 
1881.00, 
1882.00, 
1883.00, 
1884.00, 
1885.00, 
1886.00, 
1887.00, 
1888.00, 
1889.00, 
1890.00, 
1891.00, 
1892.00, 
1893.00, 
1894.00, 
1895.00, 
1896.00, 
1897.00, 
1898.00, 
1899.00, 
1900.00, 
1901.00, 
1902.00, 
1903.00, 
1904.00, 
1905.00, 
1906.00, 
1907.00, 
1908.00, 
1909.00, 
1910.00, 
1911.00, 
1912.00, 
1913.00, 
1914.00, 
1915.00, 
1916.00, 
1917.00, 
1918.00, 
1919.00, 
1920.00, 
1921.00, 
1922.00, 
1923.00, 
1924.00, 
1925.00, 
1926.00, 
1927.00, 
1928.00, 
1929.00, 
1930.00, 
1931.00, 
1932.00, 
1933.00, 
1934.00, 
1935.00, 
1936.00, 
1937.00, 
1938.00, 
1939.00, 
1940.00, 
1941.00, 
1942.00, 
1943.00, 
1944.00, 
1945.00, 
1946.00, 
1947.00, 
1948.00, 
1949.00, 
1950.00, 
1951.00, 
1952.00, 
1953.00, 
1954.00, 
1955.00, 
1956.00, 
1957.00, 
1958.00, 
1959.00, 
1960.00, 
1961.00, 
1962.00, 
1963.00, 
1964.00, 
1965.00, 
1966.00, 
1967.00, 
1968.00, 
1969.00, 
1970.00, 
1971.00, 
1972.00, 
1973.00, 
1974.00, 
1975.00, 
1976.00, 
1977.00, 
1978.00, 
1979.00, 
1980.00, 
1981.00, 
1982.00, 
1983.00, 
1984.00, 
1985.00, 
1986.00, 
1987.00, 
1988.00, 
1989.00, 
1990.00, 
1991.00, 
1992.00, 
1993.00, 
1994.00, 
1995.00, 
1996.00, 
1997.00, 
1998.00, 
1999.00, 
2000.00, 
2001.00, 
2002.00, 
2003.00, 
2004.00, 
2005.00, 
2006.00, 
2007.00, 
2008.00, 
2009.00, 
2010.00, 
2011.00, 
2012.00, 
2013.00, 
2014.00, 
2015.00, 
2016.00, 
2017.00, 
2018.00, 
2019.00, 
2020.00, 
2021.00, 
2022.00, 
2023.00, 
2024.00, 
2025.00, 
2026.00, 
2027.00, 
2028.00, 
2029.00, 
2030.00, 
2031.00, 
2032.00, 
2033.00, 
2034.00, 
2035.00, 
2036.00, 
2037.00, 
2038.00, 
2039.00, 
2040.00, 
2041.00, 
2042.00, 
2043.00, 
2044.00, 
2045.00, 
2046.00, 
2047.00, 
2048.00, 
2049.00, 
2050.00, 
2051.00, 
2052.00, 
2053.00, 
2054.00, 
2055.00, 
2056.00, 
2057.00, 
2058.00, 
2059.00, 
2060.00, 
2061.00, 
2062.00, 
2063.00, 
2064.00, 
2065.00, 
2066.00, 
2067.00, 
2068.00, 
2069.00, 
2070.00, 
2071.00, 
2072.00, 
2073.00, 
2074.00, 
2075.00, 
2076.00, 
2077.00, 
2078.00, 
2079.00, 
2080.00, 
2081.00, 
2082.00, 
2083.00, 
2084.00, 
2085.00, 
2086.00, 
2087.00, 
2088.00, 
2089.00, 
2090.00, 
2091.00, 
2092.00, 
2093.00, 
2094.00, 
2095.00, 
2096.00, 
2097.00, 
2098.00, 
2099.00, 
2100.00, 
2101.00, 
2102.00, 
2103.00, 
2104.00, 
2105.00, 
2106.00, 
2107.00, 
2108.00, 
2109.00, 
2110.00, 
2111.00, 
2112.00, 
2113.00, 
2114.00, 
2115.00, 
2116.00, 
2117.00, 
2118.00, 
2119.00, 
2120.00, 
2121.00, 
2122.00, 
2123.00, 
2124.00, 
2125.00, 
2126.00, 
2127.00, 
2128.00, 
2129.00, 
2130.00, 
2131.00, 
2132.00, 
2133.00, 
2134.00, 
2135.00, 
2136.00, 
2137.00, 
2138.00, 
2139.00, 
2140.00, 
2141.00, 
2142.00, 
2143.00, 
2144.00, 
2145.00, 
2146.00, 
2147.00, 
2148.00, 
2149.00, 
2150.00, 
2151.00, 
2152.00, 
2153.00, 
2154.00, 
2155.00, 
2156.00, 
2157.00, 
2158.00, 
2159.00, 
2160.00, 
2161.00, 
2162.00, 
2163.00, 
2164.00, 
2165.00, 
2166.00, 
2167.00, 
2168.00, 
2169.00, 
2170.00, 
2171.00, 
2172.00, 
2173.00, 
2174.00, 
2175.00, 
2176.00, 
2177.00, 
2178.00, 
2179.00, 
2180.00, 
2181.00, 
2182.00, 
2183.00, 
2184.00, 
2185.00, 
2186.00, 
2187.00, 
2188.00, 
2189.00, 
2190.00, 
2191.00, 
2192.00, 
2193.00, 
2194.00, 
2195.00, 
2196.00, 
2197.00, 
2198.00, 
2199.00, 
2200.00, 
2201.00, 
2202.00, 
2203.00, 
2204.00, 
2205.00, 
2206.00, 
2207.00, 
2208.00, 
2209.00, 
2210.00, 
2211.00, 
2212.00, 
2213.00, 
2214.00, 
2215.00, 
2216.00, 
2217.00, 
2218.00, 
2219.00, 
2220.00, 
2221.00, 
2222.00, 
2223.00, 
2224.00, 
2225.00, 
2226.00, 
2227.00, 
2228.00, 
2229.00, 
2230.00, 
2231.00, 
2232.00, 
2233.00, 
2234.00, 
2235.00, 
2236.00, 
2237.00, 
2238.00, 
2239.00, 
2240.00, 
2241.00, 
2242.00, 
2243.00, 
2244.00, 
2245.00, 
2246.00, 
2247.00, 
2248.00, 
2249.00, 
2250.00, 
2251.00, 
2252.00, 
2253.00, 
2254.00, 
2255.00, 
2256.00, 
2257.00, 
2258.00, 
2259.00, 
2260.00, 
2261.00, 
2262.00, 
2263.00, 
2264.00, 
2265.00, 
2266.00, 
2267.00, 
2268.00, 
2269.00, 
2270.00, 
2271.00, 
2272.00, 
2273.00, 
2274.00, 
2275.00, 
2276.00, 
2277.00, 
2278.00, 
2279.00, 
2280.00, 
2281.00, 
2282.00, 
2283.00, 
2284.00, 
2285.00, 
2286.00, 
2287.00, 
2288.00, 
2289.00, 
2290.00, 
2291.00, 
2292.00, 
2293.00, 
2294.00, 
2295.00, 
2296.00, 
2297.00, 
2298.00, 
2299.00, 
2300.00, 
2301.00, 
2302.00, 
2303.00, 
2304.00, 
2305.00, 
2306.00, 
2307.00, 
2308.00, 
2309.00, 
2310.00, 
2311.00, 
2312.00, 
2313.00, 
2314.00, 
2315.00, 
2316.00, 
2317.00, 
2318.00, 
2319.00, 
2320.00, 
2321.00, 
2322.00, 
2323.00, 
2324.00, 
2325.00, 
2326.00, 
2327.00, 
2328.00, 
2329.00, 
2330.00, 
2331.00, 
2332.00, 
2333.00, 
2334.00, 
2335.00, 
2336.00, 
2337.00, 
2338.00, 
2339.00, 
2340.00, 
2341.00, 
2342.00, 
2343.00, 
2344.00, 
2345.00, 
2346.00, 
2347.00, 
2348.00, 
2349.00, 
2350.00, 
2351.00, 
2352.00, 
2353.00, 
2354.00, 
2355.00, 
2356.00, 
2357.00, 
2358.00, 
2359.00, 
2360.00, 
2361.00, 
2362.00, 
2363.00, 
2364.00, 
2365.00, 
2366.00, 
2367.00, 
2368.00, 
2369.00, 
2370.00, 
2371.00, 
2372.00, 
2373.00, 
2374.00, 
2375.00, 
2376.00, 
2377.00, 
2378.00, 
2379.00, 
2380.00, 
2381.00, 
2382.00, 
2383.00, 
2384.00, 
2385.00, 
2386.00, 
2387.00, 
2388.00, 
2389.00, 
2390.00, 
2391.00, 
2392.00, 
2393.00, 
2394.00, 
2395.00, 
2396.00, 
2397.00, 
2398.00, 
2399.00, 
2400.00, 
2401.00, 
2402.00, 
2403.00, 
2404.00, 
2405.00, 
2406.00, 
2407.00, 
2408.00, 
2409.00, 
2410.00, 
2411.00, 
2412.00, 
2413.00, 
2414.00, 
2415.00, 
2416.00, 
2417.00, 
2418.00, 
2419.00, 
2420.00, 
2421.00, 
2422.00, 
2423.00, 
2424.00, 
2425.00, 
2426.00, 
2427.00, 
2428.00, 
2429.00, 
2430.00, 
2431.00, 
2432.00, 
2433.00, 
2434.00, 
2435.00, 
2436.00, 
2437.00, 
2438.00, 
2439.00, 
2440.00, 
2441.00, 
2442.00, 
2443.00, 
2444.00, 
2445.00, 
2446.00, 
2447.00, 
2448.00, 
2449.00, 
2450.00, 
2451.00, 
2452.00, 
2453.00, 
2454.00, 
2455.00, 
2456.00, 
2457.00, 
2458.00, 
2459.00, 
2460.00, 
2461.00, 
2462.00, 
2463.00, 
2464.00, 
2465.00, 
2466.00, 
2467.00, 
2468.00, 
2469.00, 
2470.00, 
2471.00, 
2472.00, 
2473.00, 
2474.00, 
2475.00, 
2476.00, 
2477.00, 
2478.00, 
2479.00, 
2480.00, 
2481.00, 
2482.00, 
2483.00, 
2484.00, 
2485.00, 
2486.00, 
2487.00, 
2488.00, 
2489.00, 
2490.00, 
2491.00, 
2492.00, 
2493.00, 
2494.00, 
2495.00, 
2496.00, 
2497.00, 
2498.00, 
2499.00, 
2500.00, 
2501.00, 
2502.00, 
2503.00, 
2504.00, 
2505.00, 
2506.00, 
2507.00, 
2508.00, 
2509.00, 
2510.00, 
2511.00, 
2512.00, 
2513.00, 
2514.00, 
2515.00, 
2516.00, 
2517.00, 
2518.00, 
2519.00, 
2520.00, 
2521.00, 
2522.00, 
2523.00, 
2524.00, 
2525.00, 
2526.00, 
2527.00, 
2528.00, 
2529.00, 
2530.00, 
2531.00, 
2532.00, 
2533.00, 
2534.00, 
2535.00, 
2536.00, 
2537.00, 
2538.00, 
2539.00, 
2540.00, 
2541.00, 
2542.00, 
2543.00, 
2544.00, 
2545.00, 
2546.00, 
2547.00, 
2548.00, 
2549.00, 
2550.00, 
2551.00, 
2552.00, 
2553.00, 
2554.00, 
2555.00, 
2556.00, 
2557.00, 
2558.00, 
2559.00, 
2560.00, 
2561.00, 
2562.00, 
2563.00, 
2564.00, 
2565.00, 
2566.00, 
2567.00, 
2568.00, 
2569.00, 
2570.00, 
2571.00, 
2572.00, 
2573.00, 
2574.00, 
2575.00, 
2576.00, 
2577.00, 
2578.00, 
2579.00, 
2580.00, 
2581.00, 
2582.00, 
2583.00, 
2584.00, 
2585.00, 
2586.00, 
2587.00, 
2588.00, 
2589.00, 
2590.00, 
2591.00, 
2592.00, 
2593.00, 
2594.00, 
2595.00, 
2596.00, 
2597.00, 
2598.00, 
2599.00, 
2600.00, 
