"1cP4 - RawData"
"Wavelength nm.","T%"
200.00,0.003
201.00,0.001
202.00,-0.001
203.00,0.003
204.00,-0.000
205.00,-0.002
206.00,0.000
207.00,0.003
208.00,-0.001
209.00,0.002
210.00,0.002
211.00,0.003
212.00,-0.000
213.00,-0.001
214.00,-0.000
215.00,0.000
216.00,-0.000
217.00,0.005
218.00,-0.000
219.00,0.000
220.00,0.003
221.00,0.001
222.00,-0.001
223.00,0.000
224.00,-0.001
225.00,0.000
226.00,0.002
227.00,-0.000
228.00,0.000
229.00,0.001
230.00,0.001
231.00,0.002
232.00,-0.000
233.00,-0.001
234.00,0.003
235.00,-0.002
236.00,-0.001
237.00,0.001
238.00,0.001
239.00,-0.002
240.00,-0.000
241.00,0.000
242.00,0.001
243.00,0.000
244.00,0.001
245.00,0.000
246.00,-0.000
247.00,-0.000
248.00,0.001
249.00,0.002
250.00,0.001
251.00,0.000
252.00,0.001
253.00,-0.002
254.00,-0.001
255.00,0.001
256.00,0.000
257.00,0.002
258.00,-0.001
259.00,-0.000
260.00,0.001
261.00,0.001
262.00,0.001
263.00,0.000
264.00,-0.001
265.00,0.001
266.00,-0.001
267.00,0.001
268.00,-0.000
269.00,-0.000
270.00,0.001
271.00,-0.001
272.00,0.001
273.00,-0.000
274.00,-0.001
275.00,-0.000
276.00,0.001
277.00,0.000
278.00,-0.000
279.00,-0.000
280.00,-0.000
281.00,0.002
282.00,0.000
283.00,0.001
284.00,-0.000
285.00,0.003
286.00,-0.000
287.00,0.001
288.00,0.001
289.00,0.001
290.00,-0.000
291.00,-0.001
292.00,0.001
293.00,0.000
294.00,-0.000
295.00,0.001
296.00,0.001
297.00,0.001
298.00,0.000
299.00,-0.001
300.00,-0.002
301.00,0.000
302.00,0.002
303.00,0.002
304.00,0.001
305.00,0.001
306.00,0.003
307.00,0.002
308.00,0.006
309.00,0.011
310.00,0.018
311.00,0.029
312.00,0.044
313.00,0.064
314.00,0.097
315.00,0.147
316.00,0.203
317.00,0.294
318.00,0.402
319.00,0.541
320.00,0.715
321.00,0.928
322.00,1.183
323.00,1.502
324.00,1.857
325.00,2.241
326.00,2.646
327.00,3.165
328.00,3.685
329.00,4.241
330.00,4.872
331.00,5.511
332.00,6.090
333.00,6.925
334.00,7.589
335.00,8.342
336.00,9.084
337.00,9.911
338.00,10.672
339.00,11.393
340.00,12.167
341.00,12.906
342.00,13.575
343.00,14.233
344.00,14.877
345.00,15.568
346.00,16.112
347.00,16.696
348.00,17.241
349.00,17.738
350.00,18.257
351.00,18.689
352.00,19.102
353.00,19.509
354.00,19.881
355.00,20.254
356.00,20.566
357.00,20.874
358.00,21.171
359.00,21.472
360.00,21.734
361.00,21.892
362.00,22.100
363.00,22.317
364.00,22.419
365.00,22.589
366.00,22.624
367.00,22.814
368.00,22.884
369.00,22.926
370.00,23.012
371.00,23.055
372.00,23.026
373.00,23.009
374.00,22.990
375.00,23.007
376.00,22.882
377.00,22.815
378.00,22.741
379.00,22.621
380.00,22.572
381.00,22.577
382.00,22.568
383.00,22.668
384.00,22.702
385.00,22.772
386.00,22.784
387.00,22.925
388.00,23.021
389.00,23.012
390.00,23.072
391.00,23.150
392.00,23.202
393.00,23.222
394.00,23.227
395.00,23.279
396.00,23.273
397.00,23.287
398.00,23.297
399.00,23.340
400.00,23.314
401.00,23.327
402.00,23.323
403.00,23.314
404.00,23.303
405.00,23.278
406.00,23.260
407.00,23.255
408.00,23.272
409.00,23.184
410.00,23.141
411.00,23.158
412.00,23.122
413.00,23.140
414.00,23.085
415.00,23.079
416.00,23.152
417.00,23.114
418.00,23.130
419.00,23.207
420.00,23.239
421.00,23.287
422.00,23.280
423.00,23.332
424.00,23.371
425.00,23.424
426.00,23.384
427.00,23.482
428.00,23.535
429.00,23.565
430.00,23.623
431.00,23.703
432.00,23.713
433.00,23.781
434.00,23.837
435.00,23.883
436.00,23.955
437.00,24.013
438.00,24.090
439.00,24.154
440.00,24.215
441.00,24.326
442.00,24.381
443.00,24.442
444.00,24.579
445.00,24.663
446.00,24.759
447.00,24.888
448.00,24.931
449.00,25.041
450.00,25.175
451.00,25.219
452.00,25.357
453.00,25.459
454.00,25.540
455.00,25.641
456.00,25.809
457.00,25.906
458.00,26.026
459.00,26.189
460.00,26.293
461.00,26.439
462.00,26.531
463.00,26.678
464.00,26.785
465.00,26.943
466.00,27.106
467.00,27.240
468.00,27.304
469.00,27.394
470.00,27.527
471.00,27.690
472.00,27.731
473.00,27.857
474.00,27.961
475.00,28.069
476.00,28.173
477.00,28.306
478.00,28.416
479.00,28.613
480.00,28.746
481.00,28.853
482.00,29.012
483.00,29.161
484.00,29.298
485.00,29.470
486.00,29.595
487.00,29.778
488.00,29.889
489.00,30.051
490.00,30.169
491.00,30.314
492.00,30.568
493.00,30.682
494.00,30.668
495.00,30.832
496.00,30.966
497.00,31.068
498.00,31.253
499.00,31.367
500.00,31.536
501.00,31.627
502.00,31.761
503.00,31.904
504.00,31.897
505.00,32.061
506.00,32.168
507.00,32.223
508.00,32.388
509.00,32.565
510.00,32.654
511.00,32.746
512.00,32.957
513.00,33.071
514.00,33.173
515.00,33.364
516.00,33.427
517.00,33.503
518.00,33.593
519.00,33.670
520.00,33.712
521.00,33.806
522.00,33.942
523.00,33.952
524.00,34.071
525.00,34.219
526.00,34.289
527.00,34.318
528.00,34.411
529.00,34.624
530.00,34.746
531.00,34.885
532.00,34.926
533.00,35.072
534.00,35.125
535.00,35.224
536.00,35.260
537.00,35.406
538.00,35.532
539.00,35.482
540.00,35.567
541.00,35.584
542.00,35.604
543.00,35.699
544.00,35.821
545.00,35.846
546.00,35.915
547.00,36.011
548.00,36.120
549.00,36.176
550.00,36.267
551.00,36.352
552.00,36.365
553.00,36.464
554.00,36.522
555.00,36.520
556.00,36.592
557.00,36.670
558.00,36.690
559.00,36.821
560.00,36.867
561.00,36.978
562.00,36.978
563.00,36.997
564.00,37.092
565.00,37.085
566.00,37.102
567.00,37.145
568.00,37.190
569.00,37.284
570.00,37.302
571.00,37.302
572.00,37.356
573.00,37.329
574.00,37.340
575.00,37.366
576.00,37.404
577.00,37.474
578.00,37.534
579.00,37.615
580.00,37.644
581.00,37.746
582.00,37.801
583.00,37.833
584.00,37.964
585.00,37.999
586.00,38.025
587.00,38.131
588.00,38.142
589.00,38.067
590.00,38.137
591.00,38.185
592.00,38.127
593.00,38.164
594.00,38.315
595.00,38.401
596.00,38.455
597.00,38.517
598.00,38.621
599.00,38.520
600.00,38.528
601.00,38.573
602.00,38.647
603.00,38.723
604.00,38.715
605.00,38.863
606.00,38.828
607.00,38.807
608.00,39.011
609.00,39.026
610.00,38.946
611.00,39.028
612.00,39.089
613.00,39.103
614.00,39.223
615.00,39.229
616.00,39.360
617.00,39.393
618.00,39.335
619.00,39.433
620.00,39.356
621.00,39.467
622.00,39.553
623.00,39.591
624.00,39.637
625.00,39.743
626.00,39.820
627.00,39.815
628.00,39.729
629.00,39.923
630.00,40.053
631.00,40.062
632.00,40.107
633.00,40.231
634.00,40.295
635.00,40.436
636.00,40.503
637.00,40.506
638.00,40.549
639.00,40.721
640.00,40.751
641.00,40.736
642.00,40.809
643.00,40.865
644.00,40.985
645.00,41.012
646.00,41.210
647.00,41.233
648.00,41.269
649.00,41.247
650.00,41.281
651.00,41.502
652.00,41.556
653.00,41.535
654.00,41.647
655.00,41.888
656.00,42.064
657.00,41.962
658.00,42.079
659.00,42.255
660.00,42.195
661.00,42.252
662.00,42.266
663.00,42.430
664.00,42.612
665.00,42.769
666.00,42.629
667.00,42.687
668.00,42.769
669.00,43.045
670.00,43.276
671.00,43.136
672.00,43.204
673.00,43.190
674.00,43.379
675.00,43.528
676.00,43.768
677.00,43.819
678.00,43.705
679.00,43.816
680.00,43.930
681.00,44.077
682.00,44.120
683.00,44.101
684.00,44.377
685.00,44.416
686.00,44.304
687.00,44.356
688.00,44.346
689.00,44.495
690.00,44.818
691.00,45.041
692.00,44.770
693.00,44.817
694.00,44.939
695.00,45.159
696.00,45.244
697.00,45.165
698.00,45.332
699.00,45.610
700.00,45.630
701.00,45.523
702.00,45.676
703.00,45.919
704.00,45.921
705.00,45.753
706.00,45.885
707.00,45.895
708.00,45.996
709.00,46.585
710.00,46.192
711.00,46.221
712.00,46.283
713.00,46.421
714.00,46.541
715.00,46.533
716.00,46.532
717.00,46.666
718.00,46.721
719.00,46.786
720.00,46.811
721.00,51.409
722.00,51.343
723.00,51.355
724.00,51.412
725.00,51.367
726.00,51.398
727.00,51.434
728.00,51.306
729.00,51.493
730.00,51.498
731.00,51.587
732.00,51.513
733.00,51.559
734.00,51.539
735.00,51.584
736.00,51.666
737.00,51.740
738.00,51.622
739.00,51.762
740.00,51.695
741.00,51.838
742.00,51.805
743.00,51.777
744.00,51.754
745.00,51.858
746.00,51.812
747.00,51.761
748.00,51.737
749.00,51.688
750.00,51.827
751.00,51.795
752.00,51.814
753.00,51.799
754.00,51.823
755.00,51.802
756.00,51.847
757.00,51.793
758.00,51.870
759.00,51.784
760.00,51.877
761.00,51.864
762.00,51.850
763.00,51.905
764.00,51.914
765.00,51.906
766.00,51.855
767.00,51.935
768.00,51.944
769.00,51.849
770.00,51.973
771.00,51.885
772.00,51.973
773.00,51.951
774.00,51.904
775.00,51.980
776.00,51.916
777.00,51.936
778.00,51.987
779.00,52.059
780.00,51.935
781.00,52.024
782.00,51.956
783.00,51.931
784.00,51.991
785.00,51.857
786.00,51.934
787.00,51.945
788.00,51.776
789.00,51.872
790.00,51.834
791.00,51.860
792.00,51.783
793.00,51.837
794.00,51.827
795.00,51.822
796.00,51.805
797.00,51.720
798.00,51.864
799.00,51.703
800.00,51.730
801.00,51.681
802.00,51.744
803.00,51.700
804.00,51.622
805.00,51.689
806.00,51.535
807.00,51.586
808.00,51.644
809.00,51.581
810.00,51.506
811.00,51.599
812.00,51.545
813.00,51.516
814.00,51.487
815.00,51.474
816.00,51.530
817.00,51.492
818.00,51.338
819.00,51.347
820.00,51.411
821.00,51.426
822.00,51.397
823.00,51.245
824.00,51.373
825.00,51.315
826.00,51.259
827.00,51.275
828.00,51.409
829.00,51.225
830.00,51.316
831.00,53.505
832.00,53.498
833.00,53.455
834.00,53.427
835.00,53.454
836.00,53.412
837.00,53.360
838.00,53.338
839.00,53.355
840.00,53.323
841.00,53.341
842.00,53.300
843.00,53.298
844.00,53.247
845.00,53.211
846.00,53.187
847.00,53.173
848.00,53.192
849.00,53.119
850.00,53.056
851.00,53.033
852.00,53.081
853.00,53.006
854.00,52.966
855.00,52.969
856.00,52.935
857.00,52.917
858.00,52.871
859.00,52.868
860.00,52.851
861.00,52.825
862.00,52.838
863.00,52.815
864.00,52.756
865.00,52.782
866.00,52.735
867.00,52.739
868.00,52.733
869.00,52.698
870.00,52.714
871.00,52.694
872.00,52.686
873.00,52.708
874.00,52.677
875.00,52.620
876.00,52.657
877.00,52.652
878.00,52.603
879.00,52.667
880.00,52.485
881.00,52.561
882.00,52.571
883.00,52.536
884.00,52.494
885.00,52.502
886.00,52.475
887.00,52.415
888.00,52.420
889.00,52.429
890.00,52.432
891.00,52.390
892.00,52.371
893.00,52.276
894.00,52.449
895.00,52.146
896.00,52.291
897.00,52.252
898.00,52.226
899.00,52.217
900.00,52.201
901.00,52.196
902.00,52.199
903.00,52.160
904.00,52.148
905.00,52.139
906.00,52.134
907.00,52.074
908.00,52.080
909.00,52.082
910.00,52.043
911.00,52.016
912.00,52.027
913.00,51.980
914.00,51.962
915.00,51.942
916.00,51.922
917.00,51.898
918.00,51.877
919.00,51.843
920.00,51.837
921.00,51.806
922.00,51.788
923.00,51.768
924.00,51.749
925.00,51.731
926.00,51.725
927.00,51.692
928.00,51.708
929.00,51.683
930.00,51.654
931.00,51.641
932.00,51.549
933.00,51.585
934.00,51.549
935.00,51.554
936.00,51.538
937.00,51.518
938.00,51.501
939.00,51.521
940.00,51.497
941.00,51.457
942.00,51.455
943.00,51.448
944.00,51.388
945.00,51.388
946.00,51.394
947.00,51.323
948.00,51.298
949.00,51.363
950.00,51.291
951.00,51.260
952.00,51.240
953.00,51.219
954.00,51.168
955.00,51.146
956.00,51.137
957.00,51.097
958.00,51.109
959.00,51.072
960.00,51.069
961.00,51.066
962.00,51.062
963.00,51.010
964.00,51.006
965.00,50.989
966.00,50.994
967.00,50.982
968.00,50.942
969.00,50.963
970.00,50.961
971.00,50.964
972.00,50.929
973.00,50.949
974.00,50.964
975.00,50.963
976.00,50.953
977.00,50.949
978.00,50.992
979.00,50.979
980.00,50.952
981.00,50.955
982.00,50.928
983.00,50.932
984.00,50.906
985.00,50.922
986.00,50.894
987.00,50.908
988.00,50.872
989.00,50.873
990.00,50.866
991.00,50.851
992.00,50.861
993.00,50.820
994.00,50.807
995.00,50.777
996.00,50.797
997.00,50.785
998.00,50.763
999.00,50.788
1000.00,50.755
1001.00,50.740
1002.00,50.718
1003.00,50.719
1004.00,50.689
1005.00,50.665
1006.00,50.692
1007.00,50.670
1008.00,50.667
1009.00,50.635
1010.00,50.628
1011.00,50.621
1012.00,50.589
1013.00,50.586
1014.00,50.571
1015.00,50.584
1016.00,50.531
1017.00,50.521
1018.00,50.509
1019.00,50.500
1020.00,50.469
1021.00,50.453
1022.00,50.455
1023.00,50.407
1024.00,50.417
1025.00,50.421
1026.00,50.401
1027.00,50.382
1028.00,50.372
1029.00,50.341
1030.00,50.317
1031.00,50.317
1032.00,50.279
1033.00,50.296
1034.00,50.261
1035.00,50.228
1036.00,50.201
1037.00,50.189
1038.00,50.175
1039.00,50.131
1040.00,50.129
1041.00,50.106
1042.00,50.109
1043.00,50.082
1044.00,50.122
1045.00,50.088
1046.00,50.073
1047.00,50.101
1048.00,50.104
1049.00,50.128
1050.00,50.116
1051.00,50.146
1052.00,50.166
1053.00,50.156
1054.00,50.150
1055.00,50.187
1056.00,50.217
1057.00,50.204
1058.00,50.188
1059.00,50.176
1060.00,50.195
1061.00,50.172
1062.00,50.152
1063.00,50.175
1064.00,50.165
1065.00,50.177
1066.00,50.153
1067.00,50.148
1068.00,50.156
1069.00,50.126
1070.00,50.109
1071.00,50.099
1072.00,50.114
1073.00,50.092
1074.00,50.099
1075.00,50.080
1076.00,50.082
1077.00,50.079
1078.00,50.046
1079.00,50.049
1080.00,50.057
1081.00,50.035
1082.00,50.033
1083.00,50.017
1084.00,50.007
1085.00,50.029
1086.00,50.030
1087.00,49.999
1088.00,49.990
1089.00,49.981
1090.00,49.980
1091.00,49.979
1092.00,49.957
1093.00,49.941
1094.00,49.920
1095.00,49.910
1096.00,49.899
1097.00,49.897
1098.00,49.897
1099.00,49.894
1100.00,49.879
1101.00,49.873
1102.00,49.844
1103.00,49.841
1104.00,49.844
1105.00,49.827
1106.00,49.809
1107.00,49.822
1108.00,49.816
1109.00,49.812
1110.00,49.821
1111.00,49.788
1112.00,49.789
1113.00,49.785
1114.00,49.783
1115.00,49.806
1116.00,49.759
1117.00,49.732
1118.00,49.743
1119.00,49.733
1120.00,49.728
1121.00,49.743
1122.00,49.721
1123.00,49.709
1124.00,49.720
1125.00,49.708
1126.00,49.710
1127.00,49.701
1128.00,49.681
1129.00,49.671
1130.00,49.654
1131.00,49.653
1132.00,49.661
1133.00,49.649
1134.00,49.632
1135.00,49.623
1136.00,49.635
1137.00,49.655
1138.00,49.642
1139.00,49.639
1140.00,49.645
1141.00,49.624
1142.00,49.618
1143.00,49.639
1144.00,49.610
1145.00,49.597
1146.00,49.589
1147.00,49.583
1148.00,49.565
1149.00,49.576
1150.00,49.584
1151.00,49.590
1152.00,49.567
1153.00,49.556
1154.00,49.571
1155.00,49.573
1156.00,49.558
1157.00,49.571
1158.00,49.559
1159.00,49.570
1160.00,49.570
1161.00,49.594
1162.00,49.613
1163.00,49.569
1164.00,49.573
1165.00,49.580
1166.00,49.578
1167.00,49.567
1168.00,49.583
1169.00,49.563
1170.00,49.568
1171.00,49.558
1172.00,49.557
1173.00,49.551
1174.00,49.544
1175.00,49.539
1176.00,49.563
1177.00,49.541
1178.00,49.544
1179.00,49.568
1180.00,49.549
1181.00,49.574
1182.00,49.560
1183.00,49.550
1184.00,49.555
1185.00,49.559
1186.00,49.539
1187.00,49.554
1188.00,49.545
1189.00,49.543
1190.00,49.540
1191.00,49.534
1192.00,49.564
1193.00,49.540
1194.00,49.561
1195.00,49.558
1196.00,49.572
1197.00,49.576
1198.00,49.578
1199.00,49.565
1200.00,49.568
1201.00,49.581
1202.00,49.548
1203.00,49.561
1204.00,49.550
1205.00,49.567
1206.00,49.555
1207.00,49.566
1208.00,49.559
1209.00,49.567
1210.00,49.544
1211.00,49.535
1212.00,49.557
1213.00,49.517
1214.00,49.555
1215.00,49.520
1216.00,49.527
1217.00,49.541
1218.00,49.525
1219.00,49.541
1220.00,49.536
1221.00,49.554
1222.00,49.532
1223.00,49.604
1224.00,49.591
1225.00,49.569
1226.00,49.567
1227.00,49.565
1228.00,49.596
1229.00,49.582
1230.00,49.612
1231.00,49.604
1232.00,49.629
1233.00,49.624
1234.00,49.623
1235.00,49.623
1236.00,49.621
1237.00,49.622
1238.00,49.615
1239.00,49.635
1240.00,49.614
1241.00,49.634
1242.00,49.646
1243.00,49.645
1244.00,49.620
1245.00,49.648
1246.00,49.648
1247.00,49.642
1248.00,49.622
1249.00,49.640
1250.00,49.659
1251.00,49.639
1252.00,49.657
1253.00,49.663
1254.00,49.666
1255.00,49.653
1256.00,49.654
1257.00,49.633
1258.00,49.686
1259.00,49.665
1260.00,49.686
1261.00,49.714
1262.00,49.703
1263.00,49.713
1264.00,49.725
1265.00,49.734
1266.00,49.749
1267.00,49.757
1268.00,49.768
1269.00,49.780
1270.00,49.767
1271.00,49.769
1272.00,49.784
1273.00,49.786
1274.00,49.786
1275.00,49.815
1276.00,49.800
1277.00,49.805
1278.00,49.821
1279.00,49.812
1280.00,49.809
1281.00,49.826
1282.00,49.825
1283.00,49.835
1284.00,49.836
1285.00,49.814
1286.00,49.844
1287.00,49.837
1288.00,49.842
1289.00,49.846
1290.00,49.871
1291.00,49.867
1292.00,49.857
1293.00,49.858
1294.00,49.881
1295.00,49.887
1296.00,49.900
1297.00,49.925
1298.00,49.968
1299.00,49.939
1300.00,49.954
1301.00,49.932
1302.00,49.968
1303.00,49.962
1304.00,49.951
1305.00,49.996
1306.00,49.977
1307.00,49.983
1308.00,49.995
1309.00,50.004
1310.00,50.004
1311.00,50.001
1312.00,50.013
1313.00,50.047
1314.00,50.059
1315.00,50.056
1316.00,50.064
1317.00,50.070
1318.00,50.070
1319.00,50.077
1320.00,50.087
1321.00,50.253
1322.00,50.253
1323.00,50.229
1324.00,50.241
1325.00,50.231
1326.00,50.243
1327.00,50.253
1328.00,50.233
1329.00,50.229
1330.00,50.248
1331.00,50.244
1332.00,50.249
1333.00,50.277
1334.00,50.287
1335.00,50.308
1336.00,50.332
1337.00,50.367
1338.00,50.440
1339.00,50.463
1340.00,50.513
1341.00,50.592
1342.00,50.635
1343.00,50.692
1344.00,50.743
1345.00,50.781
1346.00,50.837
1347.00,50.857
1348.00,50.862
1349.00,50.899
1350.00,50.911
1351.00,50.937
1352.00,50.957
1353.00,50.897
1354.00,50.958
1355.00,50.994
1356.00,51.000
1357.00,50.975
1358.00,50.970
1359.00,50.931
1360.00,50.956
1361.00,51.176
1362.00,51.095
1363.00,50.910
1364.00,51.154
1365.00,50.999
1366.00,50.980
1367.00,51.084
1368.00,51.030
1369.00,50.972
1370.00,51.027
1371.00,51.094
1372.00,51.006
1373.00,50.977
1374.00,51.025
1375.00,50.978
1376.00,50.992
1377.00,50.970
1378.00,50.923
1379.00,50.981
1380.00,51.003
1381.00,51.038
1382.00,51.109
1383.00,51.039
1384.00,51.043
1385.00,51.003
1386.00,50.972
1387.00,51.051
1388.00,51.042
1389.00,50.930
1390.00,50.905
1391.00,51.092
1392.00,50.924
1393.00,50.849
1394.00,51.030
1395.00,51.087
1396.00,50.983
1397.00,50.913
1398.00,50.937
1399.00,51.106
1400.00,51.139
1401.00,51.006
1402.00,51.017
1403.00,51.112
1404.00,51.102
1405.00,51.070
1406.00,51.090
1407.00,50.936
1408.00,51.149
1409.00,51.128
1410.00,51.136
1411.00,51.066
1412.00,51.131
1413.00,51.107
1414.00,51.152
1415.00,51.162
1416.00,51.173
1417.00,51.185
1418.00,51.179
1419.00,51.172
1420.00,51.194
1421.00,51.230
1422.00,51.223
1423.00,51.250
1424.00,51.265
1425.00,51.275
1426.00,51.288
1427.00,51.303
1428.00,51.308
1429.00,51.335
1430.00,51.332
1431.00,51.366
1432.00,51.386
1433.00,51.389
1434.00,51.410
1435.00,51.506
1436.00,51.456
1437.00,51.470
1438.00,51.475
1439.00,51.505
1440.00,51.520
1441.00,51.516
1442.00,51.545
1443.00,51.567
1444.00,51.658
1445.00,51.595
1446.00,51.625
1447.00,51.637
1448.00,51.712
1449.00,51.698
1450.00,51.697
1451.00,51.720
1452.00,51.727
1453.00,51.735
1454.00,51.772
1455.00,51.778
1456.00,51.812
1457.00,51.816
1458.00,51.846
1459.00,51.870
1460.00,51.882
1461.00,51.879
1462.00,51.934
1463.00,51.925
1464.00,51.945
1465.00,51.965
1466.00,51.944
1467.00,52.001
1468.00,52.057
1469.00,51.998
1470.00,52.036
1471.00,52.048
1472.00,52.037
1473.00,52.071
1474.00,52.090
1475.00,52.104
1476.00,52.145
1477.00,52.111
1478.00,52.148
1479.00,52.176
1480.00,52.156
1481.00,52.205
1482.00,52.208
1483.00,52.242
1484.00,52.266
1485.00,52.227
1486.00,52.252
1487.00,52.286
1488.00,52.315
1489.00,52.316
1490.00,52.329
1491.00,52.348
1492.00,52.380
1493.00,52.356
1494.00,52.392
1495.00,52.389
1496.00,52.423
1497.00,52.411
1498.00,52.432
1499.00,52.434
1500.00,52.471
1501.00, 
1502.00, 
1503.00, 
1504.00, 
1505.00, 
1506.00, 
1507.00, 
1508.00, 
1509.00, 
1510.00, 
1511.00, 
1512.00, 
1513.00, 
1514.00, 
1515.00, 
1516.00, 
1517.00, 
1518.00, 
1519.00, 
1520.00, 
1521.00, 
1522.00, 
1523.00, 
1524.00, 
1525.00, 
1526.00, 
1527.00, 
1528.00, 
1529.00, 
1530.00, 
1531.00, 
1532.00, 
1533.00, 
1534.00, 
1535.00, 
1536.00, 
1537.00, 
1538.00, 
1539.00, 
1540.00, 
1541.00, 
1542.00, 
1543.00, 
1544.00, 
1545.00, 
1546.00, 
1547.00, 
1548.00, 
1549.00, 
1550.00, 
1551.00, 
1552.00, 
1553.00, 
1554.00, 
1555.00, 
1556.00, 
1557.00, 
1558.00, 
1559.00, 
1560.00, 
1561.00, 
1562.00, 
1563.00, 
1564.00, 
1565.00, 
1566.00, 
1567.00, 
1568.00, 
1569.00, 
1570.00, 
1571.00, 
1572.00, 
1573.00, 
1574.00, 
1575.00, 
1576.00, 
1577.00, 
1578.00, 
1579.00, 
1580.00, 
1581.00, 
1582.00, 
1583.00, 
1584.00, 
1585.00, 
1586.00, 
1587.00, 
1588.00, 
1589.00, 
1590.00, 
1591.00, 
1592.00, 
1593.00, 
1594.00, 
1595.00, 
1596.00, 
1597.00, 
1598.00, 
1599.00, 
1600.00, 
1601.00, 
1602.00, 
1603.00, 
1604.00, 
1605.00, 
1606.00, 
1607.00, 
1608.00, 
1609.00, 
1610.00, 
1611.00, 
1612.00, 
1613.00, 
1614.00, 
1615.00, 
1616.00, 
1617.00, 
1618.00, 
1619.00, 
1620.00, 
1621.00, 
1622.00, 
1623.00, 
1624.00, 
1625.00, 
1626.00, 
1627.00, 
1628.00, 
1629.00, 
1630.00, 
1631.00, 
1632.00, 
1633.00, 
1634.00, 
1635.00, 
1636.00, 
1637.00, 
1638.00, 
1639.00, 
1640.00, 
1641.00, 
1642.00, 
1643.00, 
1644.00, 
1645.00, 
1646.00, 
1647.00, 
1648.00, 
1649.00, 
1650.00, 
1651.00, 
1652.00, 
1653.00, 
1654.00, 
1655.00, 
1656.00, 
1657.00, 
1658.00, 
1659.00, 
1660.00, 
1661.00, 
1662.00, 
1663.00, 
1664.00, 
1665.00, 
1666.00, 
1667.00, 
1668.00, 
1669.00, 
1670.00, 
1671.00, 
1672.00, 
1673.00, 
1674.00, 
1675.00, 
1676.00, 
1677.00, 
1678.00, 
1679.00, 
1680.00, 
1681.00, 
1682.00, 
1683.00, 
1684.00, 
1685.00, 
1686.00, 
1687.00, 
1688.00, 
1689.00, 
1690.00, 
1691.00, 
1692.00, 
1693.00, 
1694.00, 
1695.00, 
1696.00, 
1697.00, 
1698.00, 
1699.00, 
1700.00, 
1701.00, 
1702.00, 
1703.00, 
1704.00, 
1705.00, 
1706.00, 
1707.00, 
1708.00, 
1709.00, 
1710.00, 
1711.00, 
1712.00, 
1713.00, 
1714.00, 
1715.00, 
1716.00, 
1717.00, 
1718.00, 
1719.00, 
1720.00, 
1721.00, 
1722.00, 
1723.00, 
1724.00, 
1725.00, 
1726.00, 
1727.00, 
1728.00, 
1729.00, 
1730.00, 
1731.00, 
1732.00, 
1733.00, 
1734.00, 
1735.00, 
1736.00, 
1737.00, 
1738.00, 
1739.00, 
1740.00, 
1741.00, 
1742.00, 
1743.00, 
1744.00, 
1745.00, 
1746.00, 
1747.00, 
1748.00, 
1749.00, 
1750.00, 
1751.00, 
1752.00, 
1753.00, 
1754.00, 
1755.00, 
1756.00, 
1757.00, 
1758.00, 
1759.00, 
1760.00, 
1761.00, 
1762.00, 
1763.00, 
1764.00, 
1765.00, 
1766.00, 
1767.00, 
1768.00, 
1769.00, 
1770.00, 
1771.00, 
1772.00, 
1773.00, 
1774.00, 
1775.00, 
1776.00, 
1777.00, 
1778.00, 
1779.00, 
1780.00, 
1781.00, 
1782.00, 
1783.00, 
1784.00, 
1785.00, 
1786.00, 
1787.00, 
1788.00, 
1789.00, 
1790.00, 
1791.00, 
1792.00, 
1793.00, 
1794.00, 
1795.00, 
1796.00, 
1797.00, 
1798.00, 
1799.00, 
1800.00, 
1801.00, 
1802.00, 
1803.00, 
1804.00, 
1805.00, 
1806.00, 
1807.00, 
1808.00, 
1809.00, 
1810.00, 
1811.00, 
1812.00, 
1813.00, 
1814.00, 
1815.00, 
1816.00, 
1817.00, 
1818.00, 
1819.00, 
1820.00, 
1821.00, 
1822.00, 
1823.00, 
1824.00, 
1825.00, 
1826.00, 
1827.00, 
1828.00, 
1829.00, 
1830.00, 
1831.00, 
1832.00, 
1833.00, 
1834.00, 
1835.00, 
1836.00, 
1837.00, 
1838.00, 
1839.00, 
1840.00, 
1841.00, 
1842.00, 
1843.00, 
1844.00, 
1845.00, 
1846.00, 
1847.00, 
1848.00, 
1849.00, 
1850.00, 
1851.00, 
1852.00, 
1853.00, 
1854.00, 
1855.00, 
1856.00, 
1857.00, 
1858.00, 
1859.00, 
1860.00, 
1861.00, 
1862.00, 
1863.00, 
1864.00, 
1865.00, 
1866.00, 
1867.00, 
1868.00, 
1869.00, 
1870.00, 
1871.00, 
1872.00, 
1873.00, 
1874.00, 
1875.00, 
1876.00, 
1877.00, 
1878.00, 
1879.00, 
1880.00, 
1881.00, 
1882.00, 
1883.00, 
1884.00, 
1885.00, 
1886.00, 
1887.00, 
1888.00, 
1889.00, 
1890.00, 
1891.00, 
1892.00, 
1893.00, 
1894.00, 
1895.00, 
1896.00, 
1897.00, 
1898.00, 
1899.00, 
1900.00, 
1901.00, 
1902.00, 
1903.00, 
1904.00, 
1905.00, 
1906.00, 
1907.00, 
1908.00, 
1909.00, 
1910.00, 
1911.00, 
1912.00, 
1913.00, 
1914.00, 
1915.00, 
1916.00, 
1917.00, 
1918.00, 
1919.00, 
1920.00, 
1921.00, 
1922.00, 
1923.00, 
1924.00, 
1925.00, 
1926.00, 
1927.00, 
1928.00, 
1929.00, 
1930.00, 
1931.00, 
1932.00, 
1933.00, 
1934.00, 
1935.00, 
1936.00, 
1937.00, 
1938.00, 
1939.00, 
1940.00, 
1941.00, 
1942.00, 
1943.00, 
1944.00, 
1945.00, 
1946.00, 
1947.00, 
1948.00, 
1949.00, 
1950.00, 
1951.00, 
1952.00, 
1953.00, 
1954.00, 
1955.00, 
1956.00, 
1957.00, 
1958.00, 
1959.00, 
1960.00, 
1961.00, 
1962.00, 
1963.00, 
1964.00, 
1965.00, 
1966.00, 
1967.00, 
1968.00, 
1969.00, 
1970.00, 
1971.00, 
1972.00, 
1973.00, 
1974.00, 
1975.00, 
1976.00, 
1977.00, 
1978.00, 
1979.00, 
1980.00, 
1981.00, 
1982.00, 
1983.00, 
1984.00, 
1985.00, 
1986.00, 
1987.00, 
1988.00, 
1989.00, 
1990.00, 
1991.00, 
1992.00, 
1993.00, 
1994.00, 
1995.00, 
1996.00, 
1997.00, 
1998.00, 
1999.00, 
2000.00, 
2001.00, 
2002.00, 
2003.00, 
2004.00, 
2005.00, 
2006.00, 
2007.00, 
2008.00, 
2009.00, 
2010.00, 
2011.00, 
2012.00, 
2013.00, 
2014.00, 
2015.00, 
2016.00, 
2017.00, 
2018.00, 
2019.00, 
2020.00, 
2021.00, 
2022.00, 
2023.00, 
2024.00, 
2025.00, 
2026.00, 
2027.00, 
2028.00, 
2029.00, 
2030.00, 
2031.00, 
2032.00, 
2033.00, 
2034.00, 
2035.00, 
2036.00, 
2037.00, 
2038.00, 
2039.00, 
2040.00, 
2041.00, 
2042.00, 
2043.00, 
2044.00, 
2045.00, 
2046.00, 
2047.00, 
2048.00, 
2049.00, 
2050.00, 
2051.00, 
2052.00, 
2053.00, 
2054.00, 
2055.00, 
2056.00, 
2057.00, 
2058.00, 
2059.00, 
2060.00, 
2061.00, 
2062.00, 
2063.00, 
2064.00, 
2065.00, 
2066.00, 
2067.00, 
2068.00, 
2069.00, 
2070.00, 
2071.00, 
2072.00, 
2073.00, 
2074.00, 
2075.00, 
2076.00, 
2077.00, 
2078.00, 
2079.00, 
2080.00, 
2081.00, 
2082.00, 
2083.00, 
2084.00, 
2085.00, 
2086.00, 
2087.00, 
2088.00, 
2089.00, 
2090.00, 
2091.00, 
2092.00, 
2093.00, 
2094.00, 
2095.00, 
2096.00, 
2097.00, 
2098.00, 
2099.00, 
2100.00, 
2101.00, 
2102.00, 
2103.00, 
2104.00, 
2105.00, 
2106.00, 
2107.00, 
2108.00, 
2109.00, 
2110.00, 
2111.00, 
2112.00, 
2113.00, 
2114.00, 
2115.00, 
2116.00, 
2117.00, 
2118.00, 
2119.00, 
2120.00, 
2121.00, 
2122.00, 
2123.00, 
2124.00, 
2125.00, 
2126.00, 
2127.00, 
2128.00, 
2129.00, 
2130.00, 
2131.00, 
2132.00, 
2133.00, 
2134.00, 
2135.00, 
2136.00, 
2137.00, 
2138.00, 
2139.00, 
2140.00, 
2141.00, 
2142.00, 
2143.00, 
2144.00, 
2145.00, 
2146.00, 
2147.00, 
2148.00, 
2149.00, 
2150.00, 
2151.00, 
2152.00, 
2153.00, 
2154.00, 
2155.00, 
2156.00, 
2157.00, 
2158.00, 
2159.00, 
2160.00, 
2161.00, 
2162.00, 
2163.00, 
2164.00, 
2165.00, 
2166.00, 
2167.00, 
2168.00, 
2169.00, 
2170.00, 
2171.00, 
2172.00, 
2173.00, 
2174.00, 
2175.00, 
2176.00, 
2177.00, 
2178.00, 
2179.00, 
2180.00, 
2181.00, 
2182.00, 
2183.00, 
2184.00, 
2185.00, 
2186.00, 
2187.00, 
2188.00, 
2189.00, 
2190.00, 
2191.00, 
2192.00, 
2193.00, 
2194.00, 
2195.00, 
2196.00, 
2197.00, 
2198.00, 
2199.00, 
2200.00, 
2201.00, 
2202.00, 
2203.00, 
2204.00, 
2205.00, 
2206.00, 
2207.00, 
2208.00, 
2209.00, 
2210.00, 
2211.00, 
2212.00, 
2213.00, 
2214.00, 
2215.00, 
2216.00, 
2217.00, 
2218.00, 
2219.00, 
2220.00, 
2221.00, 
2222.00, 
2223.00, 
2224.00, 
2225.00, 
2226.00, 
2227.00, 
2228.00, 
2229.00, 
2230.00, 
2231.00, 
2232.00, 
2233.00, 
2234.00, 
2235.00, 
2236.00, 
2237.00, 
2238.00, 
2239.00, 
2240.00, 
2241.00, 
2242.00, 
2243.00, 
2244.00, 
2245.00, 
2246.00, 
2247.00, 
2248.00, 
2249.00, 
2250.00, 
2251.00, 
2252.00, 
2253.00, 
2254.00, 
2255.00, 
2256.00, 
2257.00, 
2258.00, 
2259.00, 
2260.00, 
2261.00, 
2262.00, 
2263.00, 
2264.00, 
2265.00, 
2266.00, 
2267.00, 
2268.00, 
2269.00, 
2270.00, 
2271.00, 
2272.00, 
2273.00, 
2274.00, 
2275.00, 
2276.00, 
2277.00, 
2278.00, 
2279.00, 
2280.00, 
2281.00, 
2282.00, 
2283.00, 
2284.00, 
2285.00, 
2286.00, 
2287.00, 
2288.00, 
2289.00, 
2290.00, 
2291.00, 
2292.00, 
2293.00, 
2294.00, 
2295.00, 
2296.00, 
2297.00, 
2298.00, 
2299.00, 
2300.00, 
2301.00, 
2302.00, 
2303.00, 
2304.00, 
2305.00, 
2306.00, 
2307.00, 
2308.00, 
2309.00, 
2310.00, 
2311.00, 
2312.00, 
2313.00, 
2314.00, 
2315.00, 
2316.00, 
2317.00, 
2318.00, 
2319.00, 
2320.00, 
2321.00, 
2322.00, 
2323.00, 
2324.00, 
2325.00, 
2326.00, 
2327.00, 
2328.00, 
2329.00, 
2330.00, 
2331.00, 
2332.00, 
2333.00, 
2334.00, 
2335.00, 
2336.00, 
2337.00, 
2338.00, 
2339.00, 
2340.00, 
2341.00, 
2342.00, 
2343.00, 
2344.00, 
2345.00, 
2346.00, 
2347.00, 
2348.00, 
2349.00, 
2350.00, 
2351.00, 
2352.00, 
2353.00, 
2354.00, 
2355.00, 
2356.00, 
2357.00, 
2358.00, 
2359.00, 
2360.00, 
2361.00, 
2362.00, 
2363.00, 
2364.00, 
2365.00, 
2366.00, 
2367.00, 
2368.00, 
2369.00, 
2370.00, 
2371.00, 
2372.00, 
2373.00, 
2374.00, 
2375.00, 
2376.00, 
2377.00, 
2378.00, 
2379.00, 
2380.00, 
2381.00, 
2382.00, 
2383.00, 
2384.00, 
2385.00, 
2386.00, 
2387.00, 
2388.00, 
2389.00, 
2390.00, 
2391.00, 
2392.00, 
2393.00, 
2394.00, 
2395.00, 
2396.00, 
2397.00, 
2398.00, 
2399.00, 
2400.00, 
2401.00, 
2402.00, 
2403.00, 
2404.00, 
2405.00, 
2406.00, 
2407.00, 
2408.00, 
2409.00, 
2410.00, 
2411.00, 
2412.00, 
2413.00, 
2414.00, 
2415.00, 
2416.00, 
2417.00, 
2418.00, 
2419.00, 
2420.00, 
2421.00, 
2422.00, 
2423.00, 
2424.00, 
2425.00, 
2426.00, 
2427.00, 
2428.00, 
2429.00, 
2430.00, 
2431.00, 
2432.00, 
2433.00, 
2434.00, 
2435.00, 
2436.00, 
2437.00, 
2438.00, 
2439.00, 
2440.00, 
2441.00, 
2442.00, 
2443.00, 
2444.00, 
2445.00, 
2446.00, 
2447.00, 
2448.00, 
2449.00, 
2450.00, 
2451.00, 
2452.00, 
2453.00, 
2454.00, 
2455.00, 
2456.00, 
2457.00, 
2458.00, 
2459.00, 
2460.00, 
2461.00, 
2462.00, 
2463.00, 
2464.00, 
2465.00, 
2466.00, 
2467.00, 
2468.00, 
2469.00, 
2470.00, 
2471.00, 
2472.00, 
2473.00, 
2474.00, 
2475.00, 
2476.00, 
2477.00, 
2478.00, 
2479.00, 
2480.00, 
2481.00, 
2482.00, 
2483.00, 
2484.00, 
2485.00, 
2486.00, 
2487.00, 
2488.00, 
2489.00, 
2490.00, 
2491.00, 
2492.00, 
2493.00, 
2494.00, 
2495.00, 
2496.00, 
2497.00, 
2498.00, 
2499.00, 
2500.00, 
2501.00, 
2502.00, 
2503.00, 
2504.00, 
2505.00, 
2506.00, 
2507.00, 
2508.00, 
2509.00, 
2510.00, 
2511.00, 
2512.00, 
2513.00, 
2514.00, 
2515.00, 
2516.00, 
2517.00, 
2518.00, 
2519.00, 
2520.00, 
2521.00, 
2522.00, 
2523.00, 
2524.00, 
2525.00, 
2526.00, 
2527.00, 
2528.00, 
2529.00, 
2530.00, 
2531.00, 
2532.00, 
2533.00, 
2534.00, 
2535.00, 
2536.00, 
2537.00, 
2538.00, 
2539.00, 
2540.00, 
2541.00, 
2542.00, 
2543.00, 
2544.00, 
2545.00, 
2546.00, 
2547.00, 
2548.00, 
2549.00, 
2550.00, 
2551.00, 
2552.00, 
2553.00, 
2554.00, 
2555.00, 
2556.00, 
2557.00, 
2558.00, 
2559.00, 
2560.00, 
2561.00, 
2562.00, 
2563.00, 
2564.00, 
2565.00, 
2566.00, 
2567.00, 
2568.00, 
2569.00, 
2570.00, 
2571.00, 
2572.00, 
2573.00, 
2574.00, 
2575.00, 
2576.00, 
2577.00, 
2578.00, 
2579.00, 
2580.00, 
2581.00, 
2582.00, 
2583.00, 
2584.00, 
2585.00, 
2586.00, 
2587.00, 
2588.00, 
2589.00, 
2590.00, 
2591.00, 
2592.00, 
2593.00, 
2594.00, 
2595.00, 
2596.00, 
2597.00, 
2598.00, 
2599.00, 
2600.00, 
