"1cP5 - RawData"
"Wavelength nm.","T%"
200.00,0.005
201.00,0.003
202.00,0.003
203.00,0.002
204.00,0.001
205.00,-0.002
206.00,0.001
207.00,-0.000
208.00,-0.001
209.00,0.001
210.00,0.001
211.00,-0.000
212.00,-0.001
213.00,0.003
214.00,0.001
215.00,0.002
216.00,0.000
217.00,-0.001
218.00,0.001
219.00,-0.001
220.00,-0.001
221.00,0.003
222.00,0.001
223.00,-0.000
224.00,-0.000
225.00,0.003
226.00,0.003
227.00,0.001
228.00,-0.001
229.00,0.000
230.00,-0.001
231.00,0.000
232.00,0.001
233.00,0.000
234.00,0.000
235.00,0.002
236.00,-0.000
237.00,0.001
238.00,0.001
239.00,0.001
240.00,0.002
241.00,0.001
242.00,-0.002
243.00,-0.000
244.00,0.002
245.00,-0.001
246.00,0.002
247.00,-0.002
248.00,-0.001
249.00,-0.000
250.00,0.001
251.00,-0.000
252.00,0.000
253.00,0.001
254.00,0.002
255.00,0.002
256.00,0.000
257.00,-0.001
258.00,0.000
259.00,-0.001
260.00,0.001
261.00,0.002
262.00,0.000
263.00,-0.001
264.00,0.000
265.00,-0.000
266.00,0.001
267.00,-0.000
268.00,0.001
269.00,-0.000
270.00,0.001
271.00,0.001
272.00,0.001
273.00,0.000
274.00,0.001
275.00,-0.000
276.00,0.001
277.00,0.001
278.00,-0.001
279.00,-0.001
280.00,0.001
281.00,-0.001
282.00,0.000
283.00,0.001
284.00,0.000
285.00,0.002
286.00,0.001
287.00,0.001
288.00,0.001
289.00,0.000
290.00,0.001
291.00,0.002
292.00,0.001
293.00,-0.000
294.00,-0.001
295.00,0.000
296.00,0.000
297.00,0.001
298.00,0.000
299.00,-0.001
300.00,0.000
301.00,0.001
302.00,0.000
303.00,0.001
304.00,-0.000
305.00,0.000
306.00,-0.001
307.00,0.004
308.00,0.006
309.00,0.013
310.00,0.016
311.00,0.025
312.00,0.043
313.00,0.064
314.00,0.095
315.00,0.137
316.00,0.195
317.00,0.273
318.00,0.381
319.00,0.515
320.00,0.681
321.00,0.875
322.00,1.131
323.00,1.429
324.00,1.752
325.00,2.112
326.00,2.511
327.00,2.994
328.00,3.488
329.00,4.021
330.00,4.616
331.00,5.200
332.00,5.855
333.00,6.558
334.00,7.190
335.00,7.896
336.00,8.620
337.00,9.380
338.00,10.078
339.00,10.752
340.00,11.474
341.00,12.199
342.00,12.826
343.00,13.420
344.00,14.052
345.00,14.683
346.00,15.237
347.00,15.739
348.00,16.266
349.00,16.759
350.00,17.233
351.00,17.629
352.00,18.032
353.00,18.395
354.00,18.768
355.00,19.102
356.00,19.396
357.00,19.665
358.00,19.928
359.00,20.221
360.00,20.449
361.00,20.666
362.00,20.856
363.00,21.010
364.00,21.120
365.00,21.262
366.00,21.363
367.00,21.482
368.00,21.482
369.00,21.538
370.00,21.629
371.00,21.622
372.00,21.595
373.00,21.585
374.00,21.580
375.00,21.568
376.00,21.477
377.00,21.378
378.00,21.269
379.00,21.212
380.00,21.175
381.00,21.143
382.00,21.160
383.00,21.220
384.00,21.258
385.00,21.282
386.00,21.307
387.00,21.401
388.00,21.460
389.00,21.506
390.00,21.567
391.00,21.591
392.00,21.632
393.00,21.663
394.00,21.724
395.00,21.710
396.00,21.694
397.00,21.753
398.00,21.716
399.00,21.768
400.00,21.737
401.00,21.733
402.00,21.720
403.00,21.719
404.00,21.731
405.00,21.705
406.00,21.665
407.00,21.609
408.00,21.640
409.00,21.574
410.00,21.540
411.00,21.537
412.00,21.459
413.00,21.511
414.00,21.485
415.00,21.485
416.00,21.568
417.00,21.526
418.00,21.517
419.00,21.598
420.00,21.634
421.00,21.647
422.00,21.647
423.00,21.705
424.00,21.746
425.00,21.802
426.00,21.806
427.00,21.884
428.00,21.896
429.00,21.926
430.00,21.954
431.00,22.035
432.00,22.056
433.00,22.115
434.00,22.167
435.00,22.248
436.00,22.304
437.00,22.379
438.00,22.427
439.00,22.483
440.00,22.569
441.00,22.640
442.00,22.728
443.00,22.811
444.00,22.930
445.00,23.009
446.00,23.109
447.00,23.252
448.00,23.271
449.00,23.388
450.00,23.519
451.00,23.592
452.00,23.705
453.00,23.838
454.00,23.923
455.00,24.037
456.00,24.174
457.00,24.293
458.00,24.384
459.00,24.532
460.00,24.680
461.00,24.808
462.00,24.880
463.00,25.067
464.00,25.191
465.00,25.315
466.00,25.461
467.00,25.578
468.00,25.676
469.00,25.799
470.00,25.892
471.00,26.004
472.00,26.129
473.00,26.233
474.00,26.343
475.00,26.434
476.00,26.549
477.00,26.676
478.00,26.796
479.00,27.003
480.00,27.149
481.00,27.242
482.00,27.393
483.00,27.528
484.00,27.728
485.00,27.872
486.00,28.024
487.00,28.216
488.00,28.329
489.00,28.484
490.00,28.622
491.00,28.771
492.00,29.007
493.00,29.114
494.00,29.139
495.00,29.309
496.00,29.445
497.00,29.538
498.00,29.722
499.00,29.839
500.00,30.009
501.00,30.089
502.00,30.234
503.00,30.353
504.00,30.372
505.00,30.552
506.00,30.710
507.00,30.773
508.00,30.930
509.00,31.091
510.00,31.196
511.00,31.309
512.00,31.464
513.00,31.626
514.00,31.697
515.00,31.883
516.00,31.989
517.00,32.063
518.00,32.197
519.00,32.257
520.00,32.302
521.00,32.390
522.00,32.514
523.00,32.565
524.00,32.635
525.00,32.796
526.00,32.879
527.00,32.948
528.00,32.992
529.00,33.193
530.00,33.331
531.00,33.506
532.00,33.536
533.00,33.622
534.00,33.719
535.00,33.795
536.00,33.926
537.00,34.048
538.00,34.152
539.00,34.095
540.00,34.214
541.00,34.204
542.00,34.293
543.00,34.363
544.00,34.434
545.00,34.534
546.00,34.604
547.00,34.694
548.00,34.747
549.00,34.793
550.00,34.891
551.00,35.032
552.00,35.071
553.00,35.081
554.00,35.186
555.00,35.179
556.00,35.284
557.00,35.377
558.00,35.377
559.00,35.466
560.00,35.525
561.00,35.646
562.00,35.577
563.00,35.657
564.00,35.765
565.00,35.708
566.00,35.793
567.00,35.858
568.00,35.929
569.00,35.965
570.00,35.981
571.00,36.037
572.00,36.053
573.00,36.000
574.00,36.081
575.00,36.082
576.00,36.099
577.00,36.135
578.00,36.221
579.00,36.330
580.00,36.341
581.00,36.463
582.00,36.520
583.00,36.550
584.00,36.666
585.00,36.695
586.00,36.734
587.00,36.807
588.00,36.827
589.00,36.760
590.00,36.834
591.00,36.870
592.00,36.858
593.00,36.934
594.00,36.965
595.00,37.026
596.00,37.141
597.00,37.214
598.00,37.265
599.00,37.263
600.00,37.311
601.00,37.339
602.00,37.311
603.00,37.373
604.00,37.418
605.00,37.507
606.00,37.493
607.00,37.515
608.00,37.705
609.00,37.769
610.00,37.640
611.00,37.745
612.00,37.778
613.00,37.792
614.00,37.878
615.00,37.944
616.00,38.043
617.00,38.024
618.00,38.036
619.00,38.047
620.00,37.852
621.00,38.270
622.00,38.364
623.00,38.309
624.00,38.413
625.00,38.505
626.00,38.523
627.00,38.558
628.00,38.592
629.00,38.612
630.00,38.672
631.00,38.714
632.00,38.834
633.00,38.913
634.00,39.005
635.00,39.138
636.00,39.200
637.00,39.208
638.00,39.246
639.00,39.392
640.00,39.425
641.00,39.434
642.00,39.532
643.00,39.630
644.00,39.640
645.00,39.719
646.00,39.848
647.00,39.908
648.00,39.979
649.00,39.979
650.00,39.973
651.00,40.166
652.00,40.279
653.00,40.284
654.00,40.348
655.00,40.616
656.00,40.782
657.00,40.722
658.00,40.814
659.00,40.942
660.00,40.925
661.00,41.012
662.00,41.049
663.00,41.165
664.00,41.324
665.00,41.544
666.00,41.471
667.00,41.592
668.00,41.531
669.00,41.786
670.00,42.093
671.00,41.885
672.00,42.030
673.00,42.202
674.00,42.192
675.00,42.292
676.00,42.602
677.00,42.660
678.00,42.508
679.00,42.705
680.00,42.722
681.00,42.832
682.00,42.975
683.00,42.880
684.00,43.181
685.00,43.282
686.00,43.233
687.00,43.414
688.00,43.440
689.00,43.423
690.00,43.746
691.00,44.011
692.00,43.737
693.00,43.754
694.00,44.006
695.00,44.140
696.00,44.232
697.00,44.212
698.00,44.318
699.00,44.507
700.00,44.603
701.00,44.590
702.00,44.697
703.00,44.981
704.00,44.983
705.00,44.783
706.00,44.844
707.00,44.929
708.00,45.113
709.00,45.644
710.00,45.284
711.00,45.358
712.00,45.399
713.00,45.463
714.00,45.685
715.00,45.661
716.00,45.639
717.00,45.811
718.00,45.985
719.00,45.970
720.00,46.022
721.00,50.471
722.00,50.471
723.00,50.544
724.00,50.549
725.00,50.513
726.00,50.572
727.00,50.562
728.00,50.557
729.00,50.688
730.00,50.779
731.00,50.790
732.00,50.746
733.00,50.797
734.00,50.785
735.00,50.856
736.00,50.934
737.00,50.990
738.00,50.917
739.00,50.975
740.00,50.944
741.00,51.092
742.00,51.081
743.00,51.084
744.00,51.057
745.00,51.126
746.00,51.146
747.00,51.122
748.00,51.078
749.00,51.126
750.00,51.124
751.00,51.210
752.00,51.244
753.00,51.161
754.00,51.176
755.00,51.201
756.00,51.126
757.00,51.198
758.00,51.254
759.00,51.242
760.00,51.250
761.00,51.286
762.00,51.240
763.00,51.339
764.00,51.288
765.00,51.279
766.00,51.398
767.00,51.363
768.00,51.385
769.00,51.303
770.00,51.415
771.00,51.361
772.00,51.395
773.00,51.365
774.00,51.379
775.00,51.472
776.00,51.430
777.00,51.409
778.00,51.424
779.00,51.510
780.00,51.491
781.00,51.475
782.00,51.456
783.00,51.431
784.00,51.443
785.00,51.433
786.00,51.460
787.00,51.465
788.00,51.342
789.00,51.394
790.00,51.350
791.00,51.471
792.00,51.374
793.00,51.424
794.00,51.356
795.00,51.432
796.00,51.371
797.00,51.283
798.00,51.388
799.00,51.280
800.00,51.249
801.00,51.265
802.00,51.278
803.00,51.276
804.00,51.189
805.00,51.237
806.00,51.163
807.00,51.180
808.00,51.248
809.00,51.159
810.00,51.091
811.00,51.226
812.00,51.158
813.00,51.116
814.00,51.129
815.00,51.087
816.00,51.099
817.00,51.078
818.00,50.895
819.00,51.017
820.00,51.007
821.00,51.002
822.00,51.014
823.00,50.951
824.00,51.028
825.00,50.898
826.00,50.813
827.00,50.933
828.00,51.028
829.00,50.938
830.00,50.868
831.00,53.199
832.00,53.144
833.00,53.136
834.00,53.134
835.00,53.073
836.00,53.082
837.00,53.044
838.00,53.045
839.00,53.048
840.00,52.931
841.00,53.029
842.00,52.959
843.00,52.966
844.00,52.973
845.00,52.935
846.00,52.892
847.00,52.876
848.00,52.860
849.00,52.807
850.00,52.793
851.00,52.722
852.00,52.793
853.00,52.713
854.00,52.677
855.00,52.618
856.00,52.637
857.00,52.644
858.00,52.590
859.00,52.587
860.00,52.569
861.00,52.517
862.00,52.643
863.00,52.515
864.00,52.480
865.00,52.519
866.00,52.468
867.00,52.461
868.00,52.465
869.00,52.445
870.00,52.432
871.00,52.410
872.00,52.436
873.00,52.436
874.00,52.453
875.00,52.353
876.00,52.386
877.00,52.364
878.00,52.338
879.00,52.397
880.00,52.218
881.00,52.288
882.00,52.319
883.00,52.275
884.00,52.262
885.00,52.250
886.00,52.211
887.00,52.197
888.00,52.189
889.00,52.169
890.00,52.182
891.00,52.147
892.00,52.130
893.00,52.085
894.00,52.110
895.00,51.993
896.00,52.068
897.00,52.003
898.00,51.979
899.00,51.987
900.00,51.972
901.00,51.920
902.00,51.919
903.00,51.890
904.00,51.889
905.00,51.890
906.00,51.852
907.00,51.822
908.00,51.839
909.00,51.837
910.00,51.745
911.00,51.798
912.00,51.755
913.00,51.715
914.00,51.700
915.00,51.699
916.00,51.668
917.00,51.653
918.00,51.632
919.00,51.607
920.00,51.600
921.00,51.559
922.00,51.518
923.00,51.595
924.00,51.491
925.00,51.478
926.00,51.490
927.00,51.474
928.00,51.462
929.00,51.437
930.00,51.408
931.00,51.422
932.00,51.377
933.00,51.373
934.00,51.342
935.00,51.269
936.00,51.382
937.00,51.284
938.00,51.293
939.00,51.290
940.00,51.246
941.00,51.225
942.00,51.211
943.00,51.195
944.00,51.149
945.00,51.170
946.00,51.161
947.00,51.112
948.00,51.096
949.00,51.078
950.00,51.062
951.00,51.027
952.00,51.001
953.00,50.994
954.00,50.951
955.00,50.903
956.00,50.908
957.00,50.876
958.00,50.871
959.00,50.839
960.00,50.833
961.00,50.828
962.00,50.804
963.00,50.762
964.00,50.779
965.00,50.776
966.00,50.750
967.00,50.730
968.00,50.728
969.00,50.734
970.00,50.727
971.00,50.732
972.00,50.696
973.00,50.735
974.00,50.739
975.00,50.741
976.00,50.728
977.00,50.709
978.00,50.753
979.00,50.714
980.00,50.738
981.00,50.718
982.00,50.698
983.00,50.749
984.00,50.693
985.00,50.709
986.00,50.684
987.00,50.694
988.00,50.645
989.00,50.637
990.00,50.635
991.00,50.621
992.00,50.650
993.00,50.603
994.00,50.598
995.00,50.571
996.00,50.574
997.00,50.566
998.00,50.539
999.00,50.561
1000.00,50.530
1001.00,50.522
1002.00,50.500
1003.00,50.516
1004.00,50.480
1005.00,50.453
1006.00,50.475
1007.00,50.439
1008.00,50.435
1009.00,50.422
1010.00,50.408
1011.00,50.408
1012.00,50.378
1013.00,50.380
1014.00,50.374
1015.00,50.362
1016.00,50.309
1017.00,50.295
1018.00,50.281
1019.00,50.276
1020.00,50.245
1021.00,50.228
1022.00,50.226
1023.00,50.185
1024.00,50.179
1025.00,50.155
1026.00,50.190
1027.00,50.143
1028.00,50.124
1029.00,50.144
1030.00,50.093
1031.00,50.097
1032.00,50.054
1033.00,50.067
1034.00,50.039
1035.00,49.990
1036.00,49.966
1037.00,49.959
1038.00,49.933
1039.00,49.909
1040.00,49.903
1041.00,49.889
1042.00,49.895
1043.00,49.871
1044.00,49.944
1045.00,49.907
1046.00,49.871
1047.00,49.902
1048.00,49.906
1049.00,49.908
1050.00,49.901
1051.00,49.932
1052.00,49.943
1053.00,49.940
1054.00,49.941
1055.00,49.978
1056.00,49.956
1057.00,49.994
1058.00,49.990
1059.00,49.989
1060.00,50.030
1061.00,49.961
1062.00,49.951
1063.00,49.962
1064.00,49.952
1065.00,49.943
1066.00,49.940
1067.00,49.934
1068.00,49.951
1069.00,49.919
1070.00,49.893
1071.00,49.877
1072.00,49.893
1073.00,49.864
1074.00,49.866
1075.00,49.847
1076.00,49.853
1077.00,49.845
1078.00,49.820
1079.00,49.826
1080.00,49.824
1081.00,49.805
1082.00,49.816
1083.00,49.810
1084.00,49.802
1085.00,49.814
1086.00,49.786
1087.00,49.782
1088.00,49.780
1089.00,49.772
1090.00,49.767
1091.00,49.774
1092.00,49.756
1093.00,49.747
1094.00,49.724
1095.00,49.717
1096.00,49.707
1097.00,49.695
1098.00,49.680
1099.00,49.687
1100.00,49.671
1101.00,49.654
1102.00,49.636
1103.00,49.642
1104.00,49.633
1105.00,49.609
1106.00,49.603
1107.00,49.604
1108.00,49.585
1109.00,49.576
1110.00,49.586
1111.00,49.563
1112.00,49.549
1113.00,49.551
1114.00,49.549
1115.00,49.555
1116.00,49.533
1117.00,49.515
1118.00,49.529
1119.00,49.527
1120.00,49.519
1121.00,49.530
1122.00,49.503
1123.00,49.477
1124.00,49.479
1125.00,49.484
1126.00,49.484
1127.00,49.477
1128.00,49.469
1129.00,49.451
1130.00,49.430
1131.00,49.431
1132.00,49.447
1133.00,49.447
1134.00,49.420
1135.00,49.406
1136.00,49.452
1137.00,49.445
1138.00,49.434
1139.00,49.425
1140.00,49.419
1141.00,49.396
1142.00,49.390
1143.00,49.419
1144.00,49.365
1145.00,49.350
1146.00,49.362
1147.00,49.351
1148.00,49.352
1149.00,49.365
1150.00,49.366
1151.00,49.393
1152.00,49.390
1153.00,49.345
1154.00,49.349
1155.00,49.349
1156.00,49.344
1157.00,49.356
1158.00,49.361
1159.00,49.357
1160.00,49.336
1161.00,49.351
1162.00,49.367
1163.00,49.350
1164.00,49.333
1165.00,49.341
1166.00,49.350
1167.00,49.330
1168.00,49.352
1169.00,49.346
1170.00,49.343
1171.00,49.318
1172.00,49.317
1173.00,49.323
1174.00,49.327
1175.00,49.301
1176.00,49.326
1177.00,49.311
1178.00,49.303
1179.00,49.318
1180.00,49.309
1181.00,49.338
1182.00,49.310
1183.00,49.304
1184.00,49.310
1185.00,49.306
1186.00,49.304
1187.00,49.329
1188.00,49.307
1189.00,49.320
1190.00,49.303
1191.00,49.313
1192.00,49.346
1193.00,49.322
1194.00,49.331
1195.00,49.335
1196.00,49.355
1197.00,49.352
1198.00,49.358
1199.00,49.357
1200.00,49.355
1201.00,49.371
1202.00,49.346
1203.00,49.360
1204.00,49.335
1205.00,49.343
1206.00,49.343
1207.00,49.326
1208.00,49.302
1209.00,49.347
1210.00,49.346
1211.00,49.328
1212.00,49.354
1213.00,49.318
1214.00,49.342
1215.00,49.303
1216.00,49.308
1217.00,49.346
1218.00,49.316
1219.00,49.327
1220.00,49.325
1221.00,49.357
1222.00,49.344
1223.00,49.381
1224.00,49.375
1225.00,49.350
1226.00,49.342
1227.00,49.344
1228.00,49.362
1229.00,49.343
1230.00,49.369
1231.00,49.377
1232.00,49.399
1233.00,49.407
1234.00,49.419
1235.00,49.420
1236.00,49.420
1237.00,49.416
1238.00,49.419
1239.00,49.426
1240.00,49.383
1241.00,49.391
1242.00,49.408
1243.00,49.420
1244.00,49.402
1245.00,49.443
1246.00,49.467
1247.00,49.452
1248.00,49.448
1249.00,49.474
1250.00,49.471
1251.00,49.431
1252.00,49.446
1253.00,49.456
1254.00,49.479
1255.00,49.461
1256.00,49.460
1257.00,49.467
1258.00,49.501
1259.00,49.487
1260.00,49.514
1261.00,49.525
1262.00,49.507
1263.00,49.500
1264.00,49.545
1265.00,49.552
1266.00,49.507
1267.00,49.546
1268.00,49.558
1269.00,49.546
1270.00,49.554
1271.00,49.569
1272.00,49.588
1273.00,49.580
1274.00,49.574
1275.00,49.608
1276.00,49.598
1277.00,49.589
1278.00,49.613
1279.00,49.613
1280.00,49.602
1281.00,49.609
1282.00,49.621
1283.00,49.625
1284.00,49.603
1285.00,49.621
1286.00,49.649
1287.00,49.625
1288.00,49.639
1289.00,49.632
1290.00,49.667
1291.00,49.666
1292.00,49.661
1293.00,49.663
1294.00,49.690
1295.00,49.696
1296.00,49.690
1297.00,49.703
1298.00,49.733
1299.00,49.703
1300.00,49.726
1301.00,49.712
1302.00,49.735
1303.00,49.736
1304.00,49.723
1305.00,49.749
1306.00,49.756
1307.00,49.775
1308.00,49.794
1309.00,49.809
1310.00,49.797
1311.00,49.786
1312.00,49.790
1313.00,49.799
1314.00,49.810
1315.00,49.825
1316.00,49.837
1317.00,49.854
1318.00,49.866
1319.00,49.875
1320.00,49.866
1321.00,50.030
1322.00,50.036
1323.00,50.008
1324.00,50.006
1325.00,50.001
1326.00,50.010
1327.00,50.032
1328.00,50.007
1329.00,50.006
1330.00,50.020
1331.00,50.041
1332.00,50.047
1333.00,50.047
1334.00,50.064
1335.00,50.091
1336.00,50.116
1337.00,50.148
1338.00,50.218
1339.00,50.245
1340.00,50.294
1341.00,50.378
1342.00,50.416
1343.00,50.466
1344.00,50.529
1345.00,50.575
1346.00,50.646
1347.00,50.703
1348.00,50.654
1349.00,50.693
1350.00,50.700
1351.00,50.737
1352.00,50.770
1353.00,50.756
1354.00,50.744
1355.00,50.725
1356.00,50.774
1357.00,50.757
1358.00,50.802
1359.00,50.777
1360.00,50.773
1361.00,50.867
1362.00,50.543
1363.00,50.424
1364.00,50.786
1365.00,50.798
1366.00,50.884
1367.00,50.788
1368.00,50.793
1369.00,50.827
1370.00,50.790
1371.00,50.792
1372.00,50.783
1373.00,50.792
1374.00,50.824
1375.00,50.783
1376.00,50.778
1377.00,50.793
1378.00,50.851
1379.00,50.794
1380.00,50.815
1381.00,50.770
1382.00,50.842
1383.00,50.815
1384.00,50.786
1385.00,50.855
1386.00,50.797
1387.00,50.779
1388.00,50.785
1389.00,50.868
1390.00,50.775
1391.00,50.776
1392.00,50.767
1393.00,50.811
1394.00,50.757
1395.00,50.769
1396.00,50.726
1397.00,50.829
1398.00,50.764
1399.00,50.786
1400.00,50.753
1401.00,50.779
1402.00,50.857
1403.00,50.805
1404.00,50.829
1405.00,50.834
1406.00,50.871
1407.00,50.847
1408.00,50.823
1409.00,50.857
1410.00,50.897
1411.00,50.873
1412.00,50.940
1413.00,50.832
1414.00,50.847
1415.00,50.907
1416.00,50.919
1417.00,50.975
1418.00,50.966
1419.00,50.941
1420.00,50.974
1421.00,51.017
1422.00,50.988
1423.00,51.025
1424.00,51.039
1425.00,51.063
1426.00,51.078
1427.00,51.085
1428.00,51.093
1429.00,51.134
1430.00,51.101
1431.00,51.136
1432.00,51.148
1433.00,51.158
1434.00,51.174
1435.00,51.224
1436.00,51.240
1437.00,51.235
1438.00,51.239
1439.00,51.277
1440.00,51.303
1441.00,51.311
1442.00,51.302
1443.00,51.307
1444.00,51.425
1445.00,51.349
1446.00,51.386
1447.00,51.426
1448.00,51.485
1449.00,51.460
1450.00,51.476
1451.00,51.511
1452.00,51.495
1453.00,51.530
1454.00,51.573
1455.00,51.551
1456.00,51.582
1457.00,51.575
1458.00,51.604
1459.00,51.631
1460.00,51.639
1461.00,51.642
1462.00,51.683
1463.00,51.668
1464.00,51.697
1465.00,51.710
1466.00,51.705
1467.00,51.757
1468.00,51.842
1469.00,51.784
1470.00,51.817
1471.00,51.834
1472.00,51.822
1473.00,51.849
1474.00,51.866
1475.00,51.900
1476.00,51.915
1477.00,51.885
1478.00,51.946
1479.00,51.958
1480.00,51.941
1481.00,51.970
1482.00,51.988
1483.00,52.000
1484.00,52.026
1485.00,52.017
1486.00,52.035
1487.00,52.058
1488.00,52.086
1489.00,52.078
1490.00,52.075
1491.00,52.080
1492.00,52.109
1493.00,52.089
1494.00,52.132
1495.00,52.141
1496.00,52.163
1497.00,52.158
1498.00,52.190
1499.00,52.197
1500.00,52.219
1501.00, 
1502.00, 
1503.00, 
1504.00, 
1505.00, 
1506.00, 
1507.00, 
1508.00, 
1509.00, 
1510.00, 
1511.00, 
1512.00, 
1513.00, 
1514.00, 
1515.00, 
1516.00, 
1517.00, 
1518.00, 
1519.00, 
1520.00, 
1521.00, 
1522.00, 
1523.00, 
1524.00, 
1525.00, 
1526.00, 
1527.00, 
1528.00, 
1529.00, 
1530.00, 
1531.00, 
1532.00, 
1533.00, 
1534.00, 
1535.00, 
1536.00, 
1537.00, 
1538.00, 
1539.00, 
1540.00, 
1541.00, 
1542.00, 
1543.00, 
1544.00, 
1545.00, 
1546.00, 
1547.00, 
1548.00, 
1549.00, 
1550.00, 
1551.00, 
1552.00, 
1553.00, 
1554.00, 
1555.00, 
1556.00, 
1557.00, 
1558.00, 
1559.00, 
1560.00, 
1561.00, 
1562.00, 
1563.00, 
1564.00, 
1565.00, 
1566.00, 
1567.00, 
1568.00, 
1569.00, 
1570.00, 
1571.00, 
1572.00, 
1573.00, 
1574.00, 
1575.00, 
1576.00, 
1577.00, 
1578.00, 
1579.00, 
1580.00, 
1581.00, 
1582.00, 
1583.00, 
1584.00, 
1585.00, 
1586.00, 
1587.00, 
1588.00, 
1589.00, 
1590.00, 
1591.00, 
1592.00, 
1593.00, 
1594.00, 
1595.00, 
1596.00, 
1597.00, 
1598.00, 
1599.00, 
1600.00, 
1601.00, 
1602.00, 
1603.00, 
1604.00, 
1605.00, 
1606.00, 
1607.00, 
1608.00, 
1609.00, 
1610.00, 
1611.00, 
1612.00, 
1613.00, 
1614.00, 
1615.00, 
1616.00, 
1617.00, 
1618.00, 
1619.00, 
1620.00, 
1621.00, 
1622.00, 
1623.00, 
1624.00, 
1625.00, 
1626.00, 
1627.00, 
1628.00, 
1629.00, 
1630.00, 
1631.00, 
1632.00, 
1633.00, 
1634.00, 
1635.00, 
1636.00, 
1637.00, 
1638.00, 
1639.00, 
1640.00, 
1641.00, 
1642.00, 
1643.00, 
1644.00, 
1645.00, 
1646.00, 
1647.00, 
1648.00, 
1649.00, 
1650.00, 
1651.00, 
1652.00, 
1653.00, 
1654.00, 
1655.00, 
1656.00, 
1657.00, 
1658.00, 
1659.00, 
1660.00, 
1661.00, 
1662.00, 
1663.00, 
1664.00, 
1665.00, 
1666.00, 
1667.00, 
1668.00, 
1669.00, 
1670.00, 
1671.00, 
1672.00, 
1673.00, 
1674.00, 
1675.00, 
1676.00, 
1677.00, 
1678.00, 
1679.00, 
1680.00, 
1681.00, 
1682.00, 
1683.00, 
1684.00, 
1685.00, 
1686.00, 
1687.00, 
1688.00, 
1689.00, 
1690.00, 
1691.00, 
1692.00, 
1693.00, 
1694.00, 
1695.00, 
1696.00, 
1697.00, 
1698.00, 
1699.00, 
1700.00, 
1701.00, 
1702.00, 
1703.00, 
1704.00, 
1705.00, 
1706.00, 
1707.00, 
1708.00, 
1709.00, 
1710.00, 
1711.00, 
1712.00, 
1713.00, 
1714.00, 
1715.00, 
1716.00, 
1717.00, 
1718.00, 
1719.00, 
1720.00, 
1721.00, 
1722.00, 
1723.00, 
1724.00, 
1725.00, 
1726.00, 
1727.00, 
1728.00, 
1729.00, 
1730.00, 
1731.00, 
1732.00, 
1733.00, 
1734.00, 
1735.00, 
1736.00, 
1737.00, 
1738.00, 
1739.00, 
1740.00, 
1741.00, 
1742.00, 
1743.00, 
1744.00, 
1745.00, 
1746.00, 
1747.00, 
1748.00, 
1749.00, 
1750.00, 
1751.00, 
1752.00, 
1753.00, 
1754.00, 
1755.00, 
1756.00, 
1757.00, 
1758.00, 
1759.00, 
1760.00, 
1761.00, 
1762.00, 
1763.00, 
1764.00, 
1765.00, 
1766.00, 
1767.00, 
1768.00, 
1769.00, 
1770.00, 
1771.00, 
1772.00, 
1773.00, 
1774.00, 
1775.00, 
1776.00, 
1777.00, 
1778.00, 
1779.00, 
1780.00, 
1781.00, 
1782.00, 
1783.00, 
1784.00, 
1785.00, 
1786.00, 
1787.00, 
1788.00, 
1789.00, 
1790.00, 
1791.00, 
1792.00, 
1793.00, 
1794.00, 
1795.00, 
1796.00, 
1797.00, 
1798.00, 
1799.00, 
1800.00, 
1801.00, 
1802.00, 
1803.00, 
1804.00, 
1805.00, 
1806.00, 
1807.00, 
1808.00, 
1809.00, 
1810.00, 
1811.00, 
1812.00, 
1813.00, 
1814.00, 
1815.00, 
1816.00, 
1817.00, 
1818.00, 
1819.00, 
1820.00, 
1821.00, 
1822.00, 
1823.00, 
1824.00, 
1825.00, 
1826.00, 
1827.00, 
1828.00, 
1829.00, 
1830.00, 
1831.00, 
1832.00, 
1833.00, 
1834.00, 
1835.00, 
1836.00, 
1837.00, 
1838.00, 
1839.00, 
1840.00, 
1841.00, 
1842.00, 
1843.00, 
1844.00, 
1845.00, 
1846.00, 
1847.00, 
1848.00, 
1849.00, 
1850.00, 
1851.00, 
1852.00, 
1853.00, 
1854.00, 
1855.00, 
1856.00, 
1857.00, 
1858.00, 
1859.00, 
1860.00, 
1861.00, 
1862.00, 
1863.00, 
1864.00, 
1865.00, 
1866.00, 
1867.00, 
1868.00, 
1869.00, 
1870.00, 
1871.00, 
1872.00, 
1873.00, 
1874.00, 
1875.00, 
1876.00, 
1877.00, 
1878.00, 
1879.00, 
1880.00, 
1881.00, 
1882.00, 
1883.00, 
1884.00, 
1885.00, 
1886.00, 
1887.00, 
1888.00, 
1889.00, 
1890.00, 
1891.00, 
1892.00, 
1893.00, 
1894.00, 
1895.00, 
1896.00, 
1897.00, 
1898.00, 
1899.00, 
1900.00, 
1901.00, 
1902.00, 
1903.00, 
1904.00, 
1905.00, 
1906.00, 
1907.00, 
1908.00, 
1909.00, 
1910.00, 
1911.00, 
1912.00, 
1913.00, 
1914.00, 
1915.00, 
1916.00, 
1917.00, 
1918.00, 
1919.00, 
1920.00, 
1921.00, 
1922.00, 
1923.00, 
1924.00, 
1925.00, 
1926.00, 
1927.00, 
1928.00, 
1929.00, 
1930.00, 
1931.00, 
1932.00, 
1933.00, 
1934.00, 
1935.00, 
1936.00, 
1937.00, 
1938.00, 
1939.00, 
1940.00, 
1941.00, 
1942.00, 
1943.00, 
1944.00, 
1945.00, 
1946.00, 
1947.00, 
1948.00, 
1949.00, 
1950.00, 
1951.00, 
1952.00, 
1953.00, 
1954.00, 
1955.00, 
1956.00, 
1957.00, 
1958.00, 
1959.00, 
1960.00, 
1961.00, 
1962.00, 
1963.00, 
1964.00, 
1965.00, 
1966.00, 
1967.00, 
1968.00, 
1969.00, 
1970.00, 
1971.00, 
1972.00, 
1973.00, 
1974.00, 
1975.00, 
1976.00, 
1977.00, 
1978.00, 
1979.00, 
1980.00, 
1981.00, 
1982.00, 
1983.00, 
1984.00, 
1985.00, 
1986.00, 
1987.00, 
1988.00, 
1989.00, 
1990.00, 
1991.00, 
1992.00, 
1993.00, 
1994.00, 
1995.00, 
1996.00, 
1997.00, 
1998.00, 
1999.00, 
2000.00, 
2001.00, 
2002.00, 
2003.00, 
2004.00, 
2005.00, 
2006.00, 
2007.00, 
2008.00, 
2009.00, 
2010.00, 
2011.00, 
2012.00, 
2013.00, 
2014.00, 
2015.00, 
2016.00, 
2017.00, 
2018.00, 
2019.00, 
2020.00, 
2021.00, 
2022.00, 
2023.00, 
2024.00, 
2025.00, 
2026.00, 
2027.00, 
2028.00, 
2029.00, 
2030.00, 
2031.00, 
2032.00, 
2033.00, 
2034.00, 
2035.00, 
2036.00, 
2037.00, 
2038.00, 
2039.00, 
2040.00, 
2041.00, 
2042.00, 
2043.00, 
2044.00, 
2045.00, 
2046.00, 
2047.00, 
2048.00, 
2049.00, 
2050.00, 
2051.00, 
2052.00, 
2053.00, 
2054.00, 
2055.00, 
2056.00, 
2057.00, 
2058.00, 
2059.00, 
2060.00, 
2061.00, 
2062.00, 
2063.00, 
2064.00, 
2065.00, 
2066.00, 
2067.00, 
2068.00, 
2069.00, 
2070.00, 
2071.00, 
2072.00, 
2073.00, 
2074.00, 
2075.00, 
2076.00, 
2077.00, 
2078.00, 
2079.00, 
2080.00, 
2081.00, 
2082.00, 
2083.00, 
2084.00, 
2085.00, 
2086.00, 
2087.00, 
2088.00, 
2089.00, 
2090.00, 
2091.00, 
2092.00, 
2093.00, 
2094.00, 
2095.00, 
2096.00, 
2097.00, 
2098.00, 
2099.00, 
2100.00, 
2101.00, 
2102.00, 
2103.00, 
2104.00, 
2105.00, 
2106.00, 
2107.00, 
2108.00, 
2109.00, 
2110.00, 
2111.00, 
2112.00, 
2113.00, 
2114.00, 
2115.00, 
2116.00, 
2117.00, 
2118.00, 
2119.00, 
2120.00, 
2121.00, 
2122.00, 
2123.00, 
2124.00, 
2125.00, 
2126.00, 
2127.00, 
2128.00, 
2129.00, 
2130.00, 
2131.00, 
2132.00, 
2133.00, 
2134.00, 
2135.00, 
2136.00, 
2137.00, 
2138.00, 
2139.00, 
2140.00, 
2141.00, 
2142.00, 
2143.00, 
2144.00, 
2145.00, 
2146.00, 
2147.00, 
2148.00, 
2149.00, 
2150.00, 
2151.00, 
2152.00, 
2153.00, 
2154.00, 
2155.00, 
2156.00, 
2157.00, 
2158.00, 
2159.00, 
2160.00, 
2161.00, 
2162.00, 
2163.00, 
2164.00, 
2165.00, 
2166.00, 
2167.00, 
2168.00, 
2169.00, 
2170.00, 
2171.00, 
2172.00, 
2173.00, 
2174.00, 
2175.00, 
2176.00, 
2177.00, 
2178.00, 
2179.00, 
2180.00, 
2181.00, 
2182.00, 
2183.00, 
2184.00, 
2185.00, 
2186.00, 
2187.00, 
2188.00, 
2189.00, 
2190.00, 
2191.00, 
2192.00, 
2193.00, 
2194.00, 
2195.00, 
2196.00, 
2197.00, 
2198.00, 
2199.00, 
2200.00, 
2201.00, 
2202.00, 
2203.00, 
2204.00, 
2205.00, 
2206.00, 
2207.00, 
2208.00, 
2209.00, 
2210.00, 
2211.00, 
2212.00, 
2213.00, 
2214.00, 
2215.00, 
2216.00, 
2217.00, 
2218.00, 
2219.00, 
2220.00, 
2221.00, 
2222.00, 
2223.00, 
2224.00, 
2225.00, 
2226.00, 
2227.00, 
2228.00, 
2229.00, 
2230.00, 
2231.00, 
2232.00, 
2233.00, 
2234.00, 
2235.00, 
2236.00, 
2237.00, 
2238.00, 
2239.00, 
2240.00, 
2241.00, 
2242.00, 
2243.00, 
2244.00, 
2245.00, 
2246.00, 
2247.00, 
2248.00, 
2249.00, 
2250.00, 
2251.00, 
2252.00, 
2253.00, 
2254.00, 
2255.00, 
2256.00, 
2257.00, 
2258.00, 
2259.00, 
2260.00, 
2261.00, 
2262.00, 
2263.00, 
2264.00, 
2265.00, 
2266.00, 
2267.00, 
2268.00, 
2269.00, 
2270.00, 
2271.00, 
2272.00, 
2273.00, 
2274.00, 
2275.00, 
2276.00, 
2277.00, 
2278.00, 
2279.00, 
2280.00, 
2281.00, 
2282.00, 
2283.00, 
2284.00, 
2285.00, 
2286.00, 
2287.00, 
2288.00, 
2289.00, 
2290.00, 
2291.00, 
2292.00, 
2293.00, 
2294.00, 
2295.00, 
2296.00, 
2297.00, 
2298.00, 
2299.00, 
2300.00, 
2301.00, 
2302.00, 
2303.00, 
2304.00, 
2305.00, 
2306.00, 
2307.00, 
2308.00, 
2309.00, 
2310.00, 
2311.00, 
2312.00, 
2313.00, 
2314.00, 
2315.00, 
2316.00, 
2317.00, 
2318.00, 
2319.00, 
2320.00, 
2321.00, 
2322.00, 
2323.00, 
2324.00, 
2325.00, 
2326.00, 
2327.00, 
2328.00, 
2329.00, 
2330.00, 
2331.00, 
2332.00, 
2333.00, 
2334.00, 
2335.00, 
2336.00, 
2337.00, 
2338.00, 
2339.00, 
2340.00, 
2341.00, 
2342.00, 
2343.00, 
2344.00, 
2345.00, 
2346.00, 
2347.00, 
2348.00, 
2349.00, 
2350.00, 
2351.00, 
2352.00, 
2353.00, 
2354.00, 
2355.00, 
2356.00, 
2357.00, 
2358.00, 
2359.00, 
2360.00, 
2361.00, 
2362.00, 
2363.00, 
2364.00, 
2365.00, 
2366.00, 
2367.00, 
2368.00, 
2369.00, 
2370.00, 
2371.00, 
2372.00, 
2373.00, 
2374.00, 
2375.00, 
2376.00, 
2377.00, 
2378.00, 
2379.00, 
2380.00, 
2381.00, 
2382.00, 
2383.00, 
2384.00, 
2385.00, 
2386.00, 
2387.00, 
2388.00, 
2389.00, 
2390.00, 
2391.00, 
2392.00, 
2393.00, 
2394.00, 
2395.00, 
2396.00, 
2397.00, 
2398.00, 
2399.00, 
2400.00, 
2401.00, 
2402.00, 
2403.00, 
2404.00, 
2405.00, 
2406.00, 
2407.00, 
2408.00, 
2409.00, 
2410.00, 
2411.00, 
2412.00, 
2413.00, 
2414.00, 
2415.00, 
2416.00, 
2417.00, 
2418.00, 
2419.00, 
2420.00, 
2421.00, 
2422.00, 
2423.00, 
2424.00, 
2425.00, 
2426.00, 
2427.00, 
2428.00, 
2429.00, 
2430.00, 
2431.00, 
2432.00, 
2433.00, 
2434.00, 
2435.00, 
2436.00, 
2437.00, 
2438.00, 
2439.00, 
2440.00, 
2441.00, 
2442.00, 
2443.00, 
2444.00, 
2445.00, 
2446.00, 
2447.00, 
2448.00, 
2449.00, 
2450.00, 
2451.00, 
2452.00, 
2453.00, 
2454.00, 
2455.00, 
2456.00, 
2457.00, 
2458.00, 
2459.00, 
2460.00, 
2461.00, 
2462.00, 
2463.00, 
2464.00, 
2465.00, 
2466.00, 
2467.00, 
2468.00, 
2469.00, 
2470.00, 
2471.00, 
2472.00, 
2473.00, 
2474.00, 
2475.00, 
2476.00, 
2477.00, 
2478.00, 
2479.00, 
2480.00, 
2481.00, 
2482.00, 
2483.00, 
2484.00, 
2485.00, 
2486.00, 
2487.00, 
2488.00, 
2489.00, 
2490.00, 
2491.00, 
2492.00, 
2493.00, 
2494.00, 
2495.00, 
2496.00, 
2497.00, 
2498.00, 
2499.00, 
2500.00, 
2501.00, 
2502.00, 
2503.00, 
2504.00, 
2505.00, 
2506.00, 
2507.00, 
2508.00, 
2509.00, 
2510.00, 
2511.00, 
2512.00, 
2513.00, 
2514.00, 
2515.00, 
2516.00, 
2517.00, 
2518.00, 
2519.00, 
2520.00, 
2521.00, 
2522.00, 
2523.00, 
2524.00, 
2525.00, 
2526.00, 
2527.00, 
2528.00, 
2529.00, 
2530.00, 
2531.00, 
2532.00, 
2533.00, 
2534.00, 
2535.00, 
2536.00, 
2537.00, 
2538.00, 
2539.00, 
2540.00, 
2541.00, 
2542.00, 
2543.00, 
2544.00, 
2545.00, 
2546.00, 
2547.00, 
2548.00, 
2549.00, 
2550.00, 
2551.00, 
2552.00, 
2553.00, 
2554.00, 
2555.00, 
2556.00, 
2557.00, 
2558.00, 
2559.00, 
2560.00, 
2561.00, 
2562.00, 
2563.00, 
2564.00, 
2565.00, 
2566.00, 
2567.00, 
2568.00, 
2569.00, 
2570.00, 
2571.00, 
2572.00, 
2573.00, 
2574.00, 
2575.00, 
2576.00, 
2577.00, 
2578.00, 
2579.00, 
2580.00, 
2581.00, 
2582.00, 
2583.00, 
2584.00, 
2585.00, 
2586.00, 
2587.00, 
2588.00, 
2589.00, 
2590.00, 
2591.00, 
2592.00, 
2593.00, 
2594.00, 
2595.00, 
2596.00, 
2597.00, 
2598.00, 
2599.00, 
2600.00, 
