"2cP1 - RawData"
"Wavelength nm.","T%"
200.00,0.001
201.00,-0.000
202.00,0.001
203.00,0.001
204.00,0.002
205.00,-0.000
206.00,-0.000
207.00,0.003
208.00,0.000
209.00,0.001
210.00,0.002
211.00,0.003
212.00,-0.000
213.00,-0.001
214.00,-0.001
215.00,0.001
216.00,0.003
217.00,0.002
218.00,0.001
219.00,0.002
220.00,0.001
221.00,0.002
222.00,0.001
223.00,-0.001
224.00,0.001
225.00,-0.000
226.00,0.000
227.00,-0.001
228.00,0.002
229.00,0.003
230.00,0.003
231.00,0.000
232.00,0.001
233.00,0.001
234.00,-0.000
235.00,0.000
236.00,0.000
237.00,0.001
238.00,0.000
239.00,0.002
240.00,-0.000
241.00,-0.001
242.00,0.000
243.00,0.001
244.00,-0.001
245.00,0.002
246.00,0.001
247.00,0.001
248.00,-0.001
249.00,0.001
250.00,0.001
251.00,0.001
252.00,0.001
253.00,-0.001
254.00,-0.001
255.00,0.002
256.00,-0.000
257.00,0.000
258.00,0.000
259.00,0.001
260.00,-0.000
261.00,-0.001
262.00,0.001
263.00,0.000
264.00,-0.000
265.00,0.000
266.00,-0.000
267.00,0.000
268.00,-0.000
269.00,-0.000
270.00,0.001
271.00,0.001
272.00,0.002
273.00,-0.001
274.00,-0.002
275.00,0.000
276.00,0.000
277.00,0.000
278.00,0.001
279.00,0.000
280.00,0.001
281.00,0.000
282.00,0.001
283.00,-0.002
284.00,0.001
285.00,0.002
286.00,0.001
287.00,0.001
288.00,0.002
289.00,-0.001
290.00,0.001
291.00,-0.001
292.00,-0.001
293.00,-0.000
294.00,0.001
295.00,-0.001
296.00,0.001
297.00,0.001
298.00,0.001
299.00,0.002
300.00,0.002
301.00,0.005
302.00,0.005
303.00,0.008
304.00,0.012
305.00,0.018
306.00,0.031
307.00,0.043
308.00,0.067
309.00,0.104
310.00,0.148
311.00,0.201
312.00,0.272
313.00,0.366
314.00,0.479
315.00,0.640
316.00,0.819
317.00,1.034
318.00,1.268
319.00,1.565
320.00,1.853
321.00,2.277
322.00,2.695
323.00,3.204
324.00,3.699
325.00,4.218
326.00,4.767
327.00,5.383
328.00,6.015
329.00,6.667
330.00,7.368
331.00,8.051
332.00,8.735
333.00,9.533
334.00,10.201
335.00,10.943
336.00,11.627
337.00,12.424
338.00,13.083
339.00,13.751
340.00,14.420
341.00,15.093
342.00,15.683
343.00,16.289
344.00,16.843
345.00,17.456
346.00,17.900
347.00,18.429
348.00,18.895
349.00,19.352
350.00,19.781
351.00,20.155
352.00,20.483
353.00,20.850
354.00,21.170
355.00,21.460
356.00,21.782
357.00,22.078
358.00,22.287
359.00,22.517
360.00,22.740
361.00,22.947
362.00,23.129
363.00,23.299
364.00,23.455
365.00,23.597
366.00,23.715
367.00,23.833
368.00,23.890
369.00,23.922
370.00,24.032
371.00,24.081
372.00,24.106
373.00,24.124
374.00,24.110
375.00,24.103
376.00,24.109
377.00,24.092
378.00,24.037
379.00,23.978
380.00,23.944
381.00,23.954
382.00,23.940
383.00,23.988
384.00,24.006
385.00,24.078
386.00,24.043
387.00,24.185
388.00,24.205
389.00,24.246
390.00,24.306
391.00,24.340
392.00,24.383
393.00,24.387
394.00,24.393
395.00,24.399
396.00,24.432
397.00,24.428
398.00,24.463
399.00,24.402
400.00,24.466
401.00,24.476
402.00,24.489
403.00,24.474
404.00,24.460
405.00,24.473
406.00,24.475
407.00,24.436
408.00,24.434
409.00,24.395
410.00,24.363
411.00,24.343
412.00,24.322
413.00,24.341
414.00,24.330
415.00,24.319
416.00,24.384
417.00,24.380
418.00,24.367
419.00,24.394
420.00,24.388
421.00,24.518
422.00,24.536
423.00,24.533
424.00,24.536
425.00,24.522
426.00,24.646
427.00,24.678
428.00,24.725
429.00,24.765
430.00,24.703
431.00,24.868
432.00,24.899
433.00,24.975
434.00,25.012
435.00,25.068
436.00,25.140
437.00,25.202
438.00,25.271
439.00,25.324
440.00,25.391
441.00,25.464
442.00,25.532
443.00,25.582
444.00,25.667
445.00,25.690
446.00,25.897
447.00,26.033
448.00,26.023
449.00,26.151
450.00,26.226
451.00,26.343
452.00,26.447
453.00,26.551
454.00,26.637
455.00,26.744
456.00,26.877
457.00,26.974
458.00,27.098
459.00,27.167
460.00,27.292
461.00,27.400
462.00,27.509
463.00,27.636
464.00,27.748
465.00,27.852
466.00,27.973
467.00,28.067
468.00,28.127
469.00,28.282
470.00,28.382
471.00,28.505
472.00,28.617
473.00,28.679
474.00,28.786
475.00,28.869
476.00,28.926
477.00,29.126
478.00,29.254
479.00,29.395
480.00,29.558
481.00,29.675
482.00,29.817
483.00,29.941
484.00,30.088
485.00,30.260
486.00,30.366
487.00,30.548
488.00,30.640
489.00,30.798
490.00,30.956
491.00,31.075
492.00,31.221
493.00,31.326
494.00,31.355
495.00,31.461
496.00,31.585
497.00,31.547
498.00,31.910
499.00,32.060
500.00,32.137
501.00,32.264
502.00,32.362
503.00,32.520
504.00,32.590
505.00,32.759
506.00,32.887
507.00,32.929
508.00,33.058
509.00,33.154
510.00,33.272
511.00,33.405
512.00,33.536
513.00,33.653
514.00,33.793
515.00,33.922
516.00,33.973
517.00,34.073
518.00,34.150
519.00,34.254
520.00,34.350
521.00,34.393
522.00,34.551
523.00,34.608
524.00,34.652
525.00,34.794
526.00,34.890
527.00,34.956
528.00,35.003
529.00,35.165
530.00,35.188
531.00,35.390
532.00,35.514
533.00,35.568
534.00,35.660
535.00,35.721
536.00,35.844
537.00,35.951
538.00,36.117
539.00,36.093
540.00,36.148
541.00,36.192
542.00,36.283
543.00,36.310
544.00,36.385
545.00,36.474
546.00,36.557
547.00,36.646
548.00,36.706
549.00,36.747
550.00,36.914
551.00,36.922
552.00,37.023
553.00,37.116
554.00,37.138
555.00,37.228
556.00,37.247
557.00,37.304
558.00,37.346
559.00,37.475
560.00,37.521
561.00,37.562
562.00,37.615
563.00,37.618
564.00,37.721
565.00,37.734
566.00,37.723
567.00,37.877
568.00,37.834
569.00,37.869
570.00,37.923
571.00,37.968
572.00,38.020
573.00,38.051
574.00,38.144
575.00,38.168
576.00,38.175
577.00,38.261
578.00,38.300
579.00,38.358
580.00,38.454
581.00,38.552
582.00,38.591
583.00,38.655
584.00,38.784
585.00,38.811
586.00,38.831
587.00,38.945
588.00,38.973
589.00,39.027
590.00,39.002
591.00,38.966
592.00,38.997
593.00,39.165
594.00,39.290
595.00,39.289
596.00,39.316
597.00,39.409
598.00,39.477
599.00,39.505
600.00,39.542
601.00,39.568
602.00,39.644
603.00,39.652
604.00,39.680
605.00,39.710
606.00,39.706
607.00,39.735
608.00,39.940
609.00,39.871
610.00,39.941
611.00,40.023
612.00,40.112
613.00,40.071
614.00,40.161
615.00,40.211
616.00,40.261
617.00,40.345
618.00,40.416
619.00,40.480
620.00,40.302
621.00,40.520
622.00,40.530
623.00,40.587
624.00,40.667
625.00,40.755
626.00,40.757
627.00,40.818
628.00,40.880
629.00,40.972
630.00,40.982
631.00,41.069
632.00,41.102
633.00,41.162
634.00,41.243
635.00,41.314
636.00,41.411
637.00,41.468
638.00,41.546
639.00,41.657
640.00,41.645
641.00,41.707
642.00,41.764
643.00,41.807
644.00,41.886
645.00,41.979
646.00,42.022
647.00,42.089
648.00,42.134
649.00,42.217
650.00,42.266
651.00,42.364
652.00,42.406
653.00,42.413
654.00,42.526
655.00,42.622
656.00,42.745
657.00,42.885
658.00,42.949
659.00,43.016
660.00,43.163
661.00,43.041
662.00,43.187
663.00,43.265
664.00,43.354
665.00,43.374
666.00,43.436
667.00,43.573
668.00,43.688
669.00,43.750
670.00,43.808
671.00,43.773
672.00,43.884
673.00,44.020
674.00,44.102
675.00,44.188
676.00,44.257
677.00,44.345
678.00,44.321
679.00,44.465
680.00,44.528
681.00,44.655
682.00,44.739
683.00,44.815
684.00,44.996
685.00,44.983
686.00,44.934
687.00,45.066
688.00,45.209
689.00,45.232
690.00,45.271
691.00,45.393
692.00,45.404
693.00,45.376
694.00,45.528
695.00,45.664
696.00,45.651
697.00,45.669
698.00,45.929
699.00,45.904
700.00,46.051
701.00,46.055
702.00,46.188
703.00,46.216
704.00,46.260
705.00,46.312
706.00,46.507
707.00,46.419
708.00,46.391
709.00,46.669
710.00,46.699
711.00,46.781
712.00,46.722
713.00,46.895
714.00,46.946
715.00,47.001
716.00,46.908
717.00,47.025
718.00,47.153
719.00,47.160
720.00,47.248
721.00,51.406
722.00,51.370
723.00,51.440
724.00,51.359
725.00,51.393
726.00,51.461
727.00,51.402
728.00,51.452
729.00,51.567
730.00,51.514
731.00,51.470
732.00,51.520
733.00,51.519
734.00,51.582
735.00,51.577
736.00,51.654
737.00,51.676
738.00,51.652
739.00,51.733
740.00,51.708
741.00,51.740
742.00,51.769
743.00,51.764
744.00,51.752
745.00,51.762
746.00,51.693
747.00,51.731
748.00,51.708
749.00,51.634
750.00,51.717
751.00,51.692
752.00,51.683
753.00,51.706
754.00,51.779
755.00,51.714
756.00,51.610
757.00,51.683
758.00,51.739
759.00,51.654
760.00,51.705
761.00,51.744
762.00,51.648
763.00,51.756
764.00,51.751
765.00,51.681
766.00,51.742
767.00,51.819
768.00,51.834
769.00,51.708
770.00,51.788
771.00,51.701
772.00,51.794
773.00,51.813
774.00,51.729
775.00,51.851
776.00,51.776
777.00,51.719
778.00,51.879
779.00,51.877
780.00,51.828
781.00,51.815
782.00,51.837
783.00,51.787
784.00,51.806
785.00,51.739
786.00,51.804
787.00,51.724
788.00,51.647
789.00,51.778
790.00,51.647
791.00,51.717
792.00,51.701
793.00,51.698
794.00,51.674
795.00,51.631
796.00,51.627
797.00,51.597
798.00,51.633
799.00,51.577
800.00,51.639
801.00,51.543
802.00,51.598
803.00,51.575
804.00,51.464
805.00,51.505
806.00,51.400
807.00,51.438
808.00,51.465
809.00,51.416
810.00,51.420
811.00,51.429
812.00,51.467
813.00,51.431
814.00,51.459
815.00,51.343
816.00,51.460
817.00,51.250
818.00,51.187
819.00,51.240
820.00,51.261
821.00,51.231
822.00,51.229
823.00,51.141
824.00,51.208
825.00,51.135
826.00,51.128
827.00,51.174
828.00,51.133
829.00,51.102
830.00,51.166
831.00,53.647
832.00,53.600
833.00,53.561
834.00,53.553
835.00,53.499
836.00,53.525
837.00,53.467
838.00,53.451
839.00,53.450
840.00,53.399
841.00,53.399
842.00,53.399
843.00,53.385
844.00,53.322
845.00,53.341
846.00,53.322
847.00,53.305
848.00,53.293
849.00,53.234
850.00,53.188
851.00,53.135
852.00,53.136
853.00,53.091
854.00,53.076
855.00,53.027
856.00,53.036
857.00,53.006
858.00,52.978
859.00,52.970
860.00,52.946
861.00,52.895
862.00,53.013
863.00,52.865
864.00,52.840
865.00,52.861
866.00,52.810
867.00,52.821
868.00,52.820
869.00,52.784
870.00,52.742
871.00,52.771
872.00,52.761
873.00,52.779
874.00,52.735
875.00,52.729
876.00,52.736
877.00,52.814
878.00,52.705
879.00,52.761
880.00,52.576
881.00,52.650
882.00,52.637
883.00,52.606
884.00,52.590
885.00,52.557
886.00,52.538
887.00,52.518
888.00,52.519
889.00,52.490
890.00,52.508
891.00,52.429
892.00,52.422
893.00,52.379
894.00,52.448
895.00,52.222
896.00,52.337
897.00,52.318
898.00,52.294
899.00,52.284
900.00,52.293
901.00,52.273
902.00,52.238
903.00,52.234
904.00,52.228
905.00,52.201
906.00,52.197
907.00,52.173
908.00,52.133
909.00,52.122
910.00,52.073
911.00,52.088
912.00,52.097
913.00,52.047
914.00,52.017
915.00,52.008
916.00,51.987
917.00,51.938
918.00,51.947
919.00,51.903
920.00,51.896
921.00,51.887
922.00,51.857
923.00,51.846
924.00,51.814
925.00,51.777
926.00,51.795
927.00,51.763
928.00,51.763
929.00,51.729
930.00,51.697
931.00,51.705
932.00,51.656
933.00,51.668
934.00,51.654
935.00,51.629
936.00,51.608
937.00,51.581
938.00,51.569
939.00,51.574
940.00,51.537
941.00,51.506
942.00,51.550
943.00,51.496
944.00,51.457
945.00,51.448
946.00,51.432
947.00,51.407
948.00,51.378
949.00,51.356
950.00,51.346
951.00,51.326
952.00,51.283
953.00,51.279
954.00,51.254
955.00,51.225
956.00,51.208
957.00,51.203
958.00,51.176
959.00,51.129
960.00,51.112
961.00,51.085
962.00,51.091
963.00,51.037
964.00,51.043
965.00,51.023
966.00,51.019
967.00,51.032
968.00,51.002
969.00,51.021
970.00,51.003
971.00,51.009
972.00,50.984
973.00,51.007
974.00,51.020
975.00,50.997
976.00,51.013
977.00,50.985
978.00,51.028
979.00,50.980
980.00,51.013
981.00,51.004
982.00,51.001
983.00,50.997
984.00,50.982
985.00,51.002
986.00,50.956
987.00,50.961
988.00,50.936
989.00,50.924
990.00,50.919
991.00,50.890
992.00,50.914
993.00,50.874
994.00,50.868
995.00,50.857
996.00,50.838
997.00,50.840
998.00,50.815
999.00,50.844
1000.00,50.796
1001.00,50.796
1002.00,50.778
1003.00,50.780
1004.00,50.755
1005.00,50.723
1006.00,50.749
1007.00,50.716
1008.00,50.698
1009.00,50.699
1010.00,50.668
1011.00,50.664
1012.00,50.640
1013.00,50.638
1014.00,50.607
1015.00,50.624
1016.00,50.566
1017.00,50.569
1018.00,50.551
1019.00,50.534
1020.00,50.505
1021.00,50.488
1022.00,50.486
1023.00,50.437
1024.00,50.448
1025.00,50.433
1026.00,50.446
1027.00,50.414
1028.00,50.407
1029.00,50.391
1030.00,50.367
1031.00,50.372
1032.00,50.323
1033.00,50.338
1034.00,50.334
1035.00,50.257
1036.00,50.241
1037.00,50.224
1038.00,50.213
1039.00,50.185
1040.00,50.181
1041.00,50.148
1042.00,50.153
1043.00,50.123
1044.00,50.163
1045.00,50.133
1046.00,50.117
1047.00,50.134
1048.00,50.139
1049.00,50.135
1050.00,50.143
1051.00,50.163
1052.00,50.177
1053.00,50.181
1054.00,50.180
1055.00,50.192
1056.00,50.170
1057.00,50.216
1058.00,50.208
1059.00,50.202
1060.00,50.201
1061.00,50.192
1062.00,50.175
1063.00,50.182
1064.00,50.155
1065.00,50.162
1066.00,50.147
1067.00,50.129
1068.00,50.132
1069.00,50.110
1070.00,50.083
1071.00,50.075
1072.00,50.095
1073.00,50.077
1074.00,50.076
1075.00,50.065
1076.00,50.055
1077.00,50.047
1078.00,50.022
1079.00,50.002
1080.00,50.016
1081.00,49.993
1082.00,49.994
1083.00,49.990
1084.00,49.979
1085.00,49.969
1086.00,49.962
1087.00,49.959
1088.00,49.933
1089.00,49.932
1090.00,49.929
1091.00,49.919
1092.00,49.916
1093.00,49.894
1094.00,49.901
1095.00,49.889
1096.00,49.847
1097.00,49.837
1098.00,49.840
1099.00,49.832
1100.00,49.808
1101.00,49.792
1102.00,49.804
1103.00,49.801
1104.00,49.793
1105.00,49.773
1106.00,49.771
1107.00,49.766
1108.00,49.766
1109.00,49.755
1110.00,49.758
1111.00,49.738
1112.00,49.718
1113.00,49.710
1114.00,49.703
1115.00,49.700
1116.00,49.693
1117.00,49.677
1118.00,49.682
1119.00,49.664
1120.00,49.660
1121.00,49.655
1122.00,49.643
1123.00,49.619
1124.00,49.626
1125.00,49.611
1126.00,49.602
1127.00,49.601
1128.00,49.590
1129.00,49.567
1130.00,49.567
1131.00,49.559
1132.00,49.570
1133.00,49.561
1134.00,49.540
1135.00,49.519
1136.00,49.537
1137.00,49.535
1138.00,49.529
1139.00,49.520
1140.00,49.524
1141.00,49.495
1142.00,49.509
1143.00,49.522
1144.00,49.489
1145.00,49.482
1146.00,49.494
1147.00,49.482
1148.00,49.474
1149.00,49.480
1150.00,49.480
1151.00,49.483
1152.00,49.468
1153.00,49.450
1154.00,49.457
1155.00,49.467
1156.00,49.461
1157.00,49.446
1158.00,49.448
1159.00,49.428
1160.00,49.428
1161.00,49.436
1162.00,49.432
1163.00,49.426
1164.00,49.416
1165.00,49.414
1166.00,49.418
1167.00,49.413
1168.00,49.423
1169.00,49.409
1170.00,49.414
1171.00,49.391
1172.00,49.390
1173.00,49.392
1174.00,49.389
1175.00,49.383
1176.00,49.395
1177.00,49.383
1178.00,49.378
1179.00,49.386
1180.00,49.377
1181.00,49.389
1182.00,49.393
1183.00,49.376
1184.00,49.368
1185.00,49.384
1186.00,49.369
1187.00,49.383
1188.00,49.361
1189.00,49.349
1190.00,49.339
1191.00,49.346
1192.00,49.359
1193.00,49.352
1194.00,49.365
1195.00,49.337
1196.00,49.359
1197.00,49.352
1198.00,49.357
1199.00,49.341
1200.00,49.330
1201.00,49.357
1202.00,49.339
1203.00,49.334
1204.00,49.316
1205.00,49.335
1206.00,49.332
1207.00,49.338
1208.00,49.323
1209.00,49.333
1210.00,49.325
1211.00,49.317
1212.00,49.340
1213.00,49.312
1214.00,49.327
1215.00,49.313
1216.00,49.328
1217.00,49.342
1218.00,49.314
1219.00,49.322
1220.00,49.311
1221.00,49.325
1222.00,49.314
1223.00,49.338
1224.00,49.331
1225.00,49.318
1226.00,49.318
1227.00,49.309
1228.00,49.323
1229.00,49.326
1230.00,49.351
1231.00,49.355
1232.00,49.356
1233.00,49.344
1234.00,49.353
1235.00,49.354
1236.00,49.350
1237.00,49.347
1238.00,49.357
1239.00,49.368
1240.00,49.360
1241.00,49.359
1242.00,49.367
1243.00,49.377
1244.00,49.340
1245.00,49.367
1246.00,49.380
1247.00,49.374
1248.00,49.366
1249.00,49.374
1250.00,49.374
1251.00,49.376
1252.00,49.396
1253.00,49.397
1254.00,49.394
1255.00,49.396
1256.00,49.376
1257.00,49.366
1258.00,49.400
1259.00,49.392
1260.00,49.411
1261.00,49.413
1262.00,49.409
1263.00,49.399
1264.00,49.412
1265.00,49.408
1266.00,49.406
1267.00,49.413
1268.00,49.435
1269.00,49.421
1270.00,49.434
1271.00,49.443
1272.00,49.453
1273.00,49.453
1274.00,49.454
1275.00,49.454
1276.00,49.457
1277.00,49.459
1278.00,49.489
1279.00,49.460
1280.00,49.463
1281.00,49.473
1282.00,49.480
1283.00,49.484
1284.00,49.471
1285.00,49.462
1286.00,49.486
1287.00,49.478
1288.00,49.481
1289.00,49.476
1290.00,49.491
1291.00,49.494
1292.00,49.496
1293.00,49.487
1294.00,49.514
1295.00,49.514
1296.00,49.515
1297.00,49.534
1298.00,49.540
1299.00,49.523
1300.00,49.532
1301.00,49.539
1302.00,49.544
1303.00,49.572
1304.00,49.545
1305.00,49.566
1306.00,49.564
1307.00,49.572
1308.00,49.574
1309.00,49.569
1310.00,49.571
1311.00,49.579
1312.00,49.580
1313.00,49.586
1314.00,49.599
1315.00,49.599
1316.00,49.608
1317.00,49.628
1318.00,49.627
1319.00,49.638
1320.00,49.666
1321.00,49.811
1322.00,49.830
1323.00,49.806
1324.00,49.813
1325.00,49.796
1326.00,49.814
1327.00,49.818
1328.00,49.808
1329.00,49.801
1330.00,49.802
1331.00,49.802
1332.00,49.804
1333.00,49.815
1334.00,49.833
1335.00,49.857
1336.00,49.871
1337.00,49.897
1338.00,49.977
1339.00,50.019
1340.00,50.066
1341.00,50.122
1342.00,50.192
1343.00,50.253
1344.00,50.290
1345.00,50.335
1346.00,50.390
1347.00,50.399
1348.00,50.423
1349.00,50.463
1350.00,50.467
1351.00,50.490
1352.00,50.501
1353.00,50.516
1354.00,50.506
1355.00,50.467
1356.00,50.500
1357.00,50.519
1358.00,50.521
1359.00,50.516
1360.00,50.630
1361.00,50.512
1362.00,50.457
1363.00,50.586
1364.00,50.530
1365.00,50.526
1366.00,50.572
1367.00,50.502
1368.00,50.468
1369.00,50.505
1370.00,50.518
1371.00,50.465
1372.00,50.490
1373.00,50.495
1374.00,50.502
1375.00,50.487
1376.00,50.483
1377.00,50.473
1378.00,50.539
1379.00,50.536
1380.00,50.480
1381.00,50.473
1382.00,50.255
1383.00,50.492
1384.00,50.428
1385.00,50.383
1386.00,50.506
1387.00,50.432
1388.00,50.411
1389.00,50.461
1390.00,50.525
1391.00,50.431
1392.00,50.430
1393.00,50.489
1394.00,50.415
1395.00,50.450
1396.00,50.375
1397.00,50.453
1398.00,50.494
1399.00,50.452
1400.00,50.401
1401.00,50.439
1402.00,50.518
1403.00,50.491
1404.00,50.446
1405.00,50.527
1406.00,50.470
1407.00,50.505
1408.00,50.504
1409.00,50.489
1410.00,50.507
1411.00,50.505
1412.00,50.601
1413.00,50.744
1414.00,50.487
1415.00,50.560
1416.00,50.593
1417.00,50.604
1418.00,50.581
1419.00,50.560
1420.00,50.599
1421.00,50.606
1422.00,50.609
1423.00,50.621
1424.00,50.645
1425.00,50.641
1426.00,50.686
1427.00,50.676
1428.00,50.691
1429.00,50.724
1430.00,50.715
1431.00,50.735
1432.00,50.747
1433.00,50.766
1434.00,50.768
1435.00,50.809
1436.00,50.815
1437.00,50.809
1438.00,50.816
1439.00,50.850
1440.00,50.867
1441.00,50.863
1442.00,50.864
1443.00,50.921
1444.00,50.950
1445.00,50.915
1446.00,50.911
1447.00,50.956
1448.00,50.995
1449.00,51.005
1450.00,50.997
1451.00,51.014
1452.00,51.017
1453.00,51.048
1454.00,51.054
1455.00,51.062
1456.00,51.095
1457.00,51.088
1458.00,51.102
1459.00,51.122
1460.00,51.132
1461.00,51.157
1462.00,51.175
1463.00,51.191
1464.00,51.197
1465.00,51.209
1466.00,51.213
1467.00,51.246
1468.00,51.276
1469.00,51.268
1470.00,51.276
1471.00,51.297
1472.00,51.299
1473.00,51.313
1474.00,51.337
1475.00,51.345
1476.00,51.365
1477.00,51.355
1478.00,51.380
1479.00,51.403
1480.00,51.406
1481.00,51.409
1482.00,51.437
1483.00,51.445
1484.00,51.447
1485.00,51.465
1486.00,51.468
1487.00,51.470
1488.00,51.488
1489.00,51.497
1490.00,51.503
1491.00,51.515
1492.00,51.537
1493.00,51.541
1494.00,51.550
1495.00,51.568
1496.00,51.560
1497.00,51.575
1498.00,51.569
1499.00,51.590
1500.00,51.620
1501.00, 
1502.00, 
1503.00, 
1504.00, 
1505.00, 
1506.00, 
1507.00, 
1508.00, 
1509.00, 
1510.00, 
1511.00, 
1512.00, 
1513.00, 
1514.00, 
1515.00, 
1516.00, 
1517.00, 
1518.00, 
1519.00, 
1520.00, 
1521.00, 
1522.00, 
1523.00, 
1524.00, 
1525.00, 
1526.00, 
1527.00, 
1528.00, 
1529.00, 
1530.00, 
1531.00, 
1532.00, 
1533.00, 
1534.00, 
1535.00, 
1536.00, 
1537.00, 
1538.00, 
1539.00, 
1540.00, 
1541.00, 
1542.00, 
1543.00, 
1544.00, 
1545.00, 
1546.00, 
1547.00, 
1548.00, 
1549.00, 
1550.00, 
1551.00, 
1552.00, 
1553.00, 
1554.00, 
1555.00, 
1556.00, 
1557.00, 
1558.00, 
1559.00, 
1560.00, 
1561.00, 
1562.00, 
1563.00, 
1564.00, 
1565.00, 
1566.00, 
1567.00, 
1568.00, 
1569.00, 
1570.00, 
1571.00, 
1572.00, 
1573.00, 
1574.00, 
1575.00, 
1576.00, 
1577.00, 
1578.00, 
1579.00, 
1580.00, 
1581.00, 
1582.00, 
1583.00, 
1584.00, 
1585.00, 
1586.00, 
1587.00, 
1588.00, 
1589.00, 
1590.00, 
1591.00, 
1592.00, 
1593.00, 
1594.00, 
1595.00, 
1596.00, 
1597.00, 
1598.00, 
1599.00, 
1600.00, 
1601.00, 
1602.00, 
1603.00, 
1604.00, 
1605.00, 
1606.00, 
1607.00, 
1608.00, 
1609.00, 
1610.00, 
1611.00, 
1612.00, 
1613.00, 
1614.00, 
1615.00, 
1616.00, 
1617.00, 
1618.00, 
1619.00, 
1620.00, 
1621.00, 
1622.00, 
1623.00, 
1624.00, 
1625.00, 
1626.00, 
1627.00, 
1628.00, 
1629.00, 
1630.00, 
1631.00, 
1632.00, 
1633.00, 
1634.00, 
1635.00, 
1636.00, 
1637.00, 
1638.00, 
1639.00, 
1640.00, 
1641.00, 
1642.00, 
1643.00, 
1644.00, 
1645.00, 
1646.00, 
1647.00, 
1648.00, 
1649.00, 
1650.00, 
1651.00, 
1652.00, 
1653.00, 
1654.00, 
1655.00, 
1656.00, 
1657.00, 
1658.00, 
1659.00, 
1660.00, 
1661.00, 
1662.00, 
1663.00, 
1664.00, 
1665.00, 
1666.00, 
1667.00, 
1668.00, 
1669.00, 
1670.00, 
1671.00, 
1672.00, 
1673.00, 
1674.00, 
1675.00, 
1676.00, 
1677.00, 
1678.00, 
1679.00, 
1680.00, 
1681.00, 
1682.00, 
1683.00, 
1684.00, 
1685.00, 
1686.00, 
1687.00, 
1688.00, 
1689.00, 
1690.00, 
1691.00, 
1692.00, 
1693.00, 
1694.00, 
1695.00, 
1696.00, 
1697.00, 
1698.00, 
1699.00, 
1700.00, 
1701.00, 
1702.00, 
1703.00, 
1704.00, 
1705.00, 
1706.00, 
1707.00, 
1708.00, 
1709.00, 
1710.00, 
1711.00, 
1712.00, 
1713.00, 
1714.00, 
1715.00, 
1716.00, 
1717.00, 
1718.00, 
1719.00, 
1720.00, 
1721.00, 
1722.00, 
1723.00, 
1724.00, 
1725.00, 
1726.00, 
1727.00, 
1728.00, 
1729.00, 
1730.00, 
1731.00, 
1732.00, 
1733.00, 
1734.00, 
1735.00, 
1736.00, 
1737.00, 
1738.00, 
1739.00, 
1740.00, 
1741.00, 
1742.00, 
1743.00, 
1744.00, 
1745.00, 
1746.00, 
1747.00, 
1748.00, 
1749.00, 
1750.00, 
1751.00, 
1752.00, 
1753.00, 
1754.00, 
1755.00, 
1756.00, 
1757.00, 
1758.00, 
1759.00, 
1760.00, 
1761.00, 
1762.00, 
1763.00, 
1764.00, 
1765.00, 
1766.00, 
1767.00, 
1768.00, 
1769.00, 
1770.00, 
1771.00, 
1772.00, 
1773.00, 
1774.00, 
1775.00, 
1776.00, 
1777.00, 
1778.00, 
1779.00, 
1780.00, 
1781.00, 
1782.00, 
1783.00, 
1784.00, 
1785.00, 
1786.00, 
1787.00, 
1788.00, 
1789.00, 
1790.00, 
1791.00, 
1792.00, 
1793.00, 
1794.00, 
1795.00, 
1796.00, 
1797.00, 
1798.00, 
1799.00, 
1800.00, 
1801.00, 
1802.00, 
1803.00, 
1804.00, 
1805.00, 
1806.00, 
1807.00, 
1808.00, 
1809.00, 
1810.00, 
1811.00, 
1812.00, 
1813.00, 
1814.00, 
1815.00, 
1816.00, 
1817.00, 
1818.00, 
1819.00, 
1820.00, 
1821.00, 
1822.00, 
1823.00, 
1824.00, 
1825.00, 
1826.00, 
1827.00, 
1828.00, 
1829.00, 
1830.00, 
1831.00, 
1832.00, 
1833.00, 
1834.00, 
1835.00, 
1836.00, 
1837.00, 
1838.00, 
1839.00, 
1840.00, 
1841.00, 
1842.00, 
1843.00, 
1844.00, 
1845.00, 
1846.00, 
1847.00, 
1848.00, 
1849.00, 
1850.00, 
1851.00, 
1852.00, 
1853.00, 
1854.00, 
1855.00, 
1856.00, 
1857.00, 
1858.00, 
1859.00, 
1860.00, 
1861.00, 
1862.00, 
1863.00, 
1864.00, 
1865.00, 
1866.00, 
1867.00, 
1868.00, 
1869.00, 
1870.00, 
1871.00, 
1872.00, 
1873.00, 
1874.00, 
1875.00, 
1876.00, 
1877.00, 
1878.00, 
1879.00, 
1880.00, 
1881.00, 
1882.00, 
1883.00, 
1884.00, 
1885.00, 
1886.00, 
1887.00, 
1888.00, 
1889.00, 
1890.00, 
1891.00, 
1892.00, 
1893.00, 
1894.00, 
1895.00, 
1896.00, 
1897.00, 
1898.00, 
1899.00, 
1900.00, 
1901.00, 
1902.00, 
1903.00, 
1904.00, 
1905.00, 
1906.00, 
1907.00, 
1908.00, 
1909.00, 
1910.00, 
1911.00, 
1912.00, 
1913.00, 
1914.00, 
1915.00, 
1916.00, 
1917.00, 
1918.00, 
1919.00, 
1920.00, 
1921.00, 
1922.00, 
1923.00, 
1924.00, 
1925.00, 
1926.00, 
1927.00, 
1928.00, 
1929.00, 
1930.00, 
1931.00, 
1932.00, 
1933.00, 
1934.00, 
1935.00, 
1936.00, 
1937.00, 
1938.00, 
1939.00, 
1940.00, 
1941.00, 
1942.00, 
1943.00, 
1944.00, 
1945.00, 
1946.00, 
1947.00, 
1948.00, 
1949.00, 
1950.00, 
1951.00, 
1952.00, 
1953.00, 
1954.00, 
1955.00, 
1956.00, 
1957.00, 
1958.00, 
1959.00, 
1960.00, 
1961.00, 
1962.00, 
1963.00, 
1964.00, 
1965.00, 
1966.00, 
1967.00, 
1968.00, 
1969.00, 
1970.00, 
1971.00, 
1972.00, 
1973.00, 
1974.00, 
1975.00, 
1976.00, 
1977.00, 
1978.00, 
1979.00, 
1980.00, 
1981.00, 
1982.00, 
1983.00, 
1984.00, 
1985.00, 
1986.00, 
1987.00, 
1988.00, 
1989.00, 
1990.00, 
1991.00, 
1992.00, 
1993.00, 
1994.00, 
1995.00, 
1996.00, 
1997.00, 
1998.00, 
1999.00, 
2000.00, 
2001.00, 
2002.00, 
2003.00, 
2004.00, 
2005.00, 
2006.00, 
2007.00, 
2008.00, 
2009.00, 
2010.00, 
2011.00, 
2012.00, 
2013.00, 
2014.00, 
2015.00, 
2016.00, 
2017.00, 
2018.00, 
2019.00, 
2020.00, 
2021.00, 
2022.00, 
2023.00, 
2024.00, 
2025.00, 
2026.00, 
2027.00, 
2028.00, 
2029.00, 
2030.00, 
2031.00, 
2032.00, 
2033.00, 
2034.00, 
2035.00, 
2036.00, 
2037.00, 
2038.00, 
2039.00, 
2040.00, 
2041.00, 
2042.00, 
2043.00, 
2044.00, 
2045.00, 
2046.00, 
2047.00, 
2048.00, 
2049.00, 
2050.00, 
2051.00, 
2052.00, 
2053.00, 
2054.00, 
2055.00, 
2056.00, 
2057.00, 
2058.00, 
2059.00, 
2060.00, 
2061.00, 
2062.00, 
2063.00, 
2064.00, 
2065.00, 
2066.00, 
2067.00, 
2068.00, 
2069.00, 
2070.00, 
2071.00, 
2072.00, 
2073.00, 
2074.00, 
2075.00, 
2076.00, 
2077.00, 
2078.00, 
2079.00, 
2080.00, 
2081.00, 
2082.00, 
2083.00, 
2084.00, 
2085.00, 
2086.00, 
2087.00, 
2088.00, 
2089.00, 
2090.00, 
2091.00, 
2092.00, 
2093.00, 
2094.00, 
2095.00, 
2096.00, 
2097.00, 
2098.00, 
2099.00, 
2100.00, 
2101.00, 
2102.00, 
2103.00, 
2104.00, 
2105.00, 
2106.00, 
2107.00, 
2108.00, 
2109.00, 
2110.00, 
2111.00, 
2112.00, 
2113.00, 
2114.00, 
2115.00, 
2116.00, 
2117.00, 
2118.00, 
2119.00, 
2120.00, 
2121.00, 
2122.00, 
2123.00, 
2124.00, 
2125.00, 
2126.00, 
2127.00, 
2128.00, 
2129.00, 
2130.00, 
2131.00, 
2132.00, 
2133.00, 
2134.00, 
2135.00, 
2136.00, 
2137.00, 
2138.00, 
2139.00, 
2140.00, 
2141.00, 
2142.00, 
2143.00, 
2144.00, 
2145.00, 
2146.00, 
2147.00, 
2148.00, 
2149.00, 
2150.00, 
2151.00, 
2152.00, 
2153.00, 
2154.00, 
2155.00, 
2156.00, 
2157.00, 
2158.00, 
2159.00, 
2160.00, 
2161.00, 
2162.00, 
2163.00, 
2164.00, 
2165.00, 
2166.00, 
2167.00, 
2168.00, 
2169.00, 
2170.00, 
2171.00, 
2172.00, 
2173.00, 
2174.00, 
2175.00, 
2176.00, 
2177.00, 
2178.00, 
2179.00, 
2180.00, 
2181.00, 
2182.00, 
2183.00, 
2184.00, 
2185.00, 
2186.00, 
2187.00, 
2188.00, 
2189.00, 
2190.00, 
2191.00, 
2192.00, 
2193.00, 
2194.00, 
2195.00, 
2196.00, 
2197.00, 
2198.00, 
2199.00, 
2200.00, 
2201.00, 
2202.00, 
2203.00, 
2204.00, 
2205.00, 
2206.00, 
2207.00, 
2208.00, 
2209.00, 
2210.00, 
2211.00, 
2212.00, 
2213.00, 
2214.00, 
2215.00, 
2216.00, 
2217.00, 
2218.00, 
2219.00, 
2220.00, 
2221.00, 
2222.00, 
2223.00, 
2224.00, 
2225.00, 
2226.00, 
2227.00, 
2228.00, 
2229.00, 
2230.00, 
2231.00, 
2232.00, 
2233.00, 
2234.00, 
2235.00, 
2236.00, 
2237.00, 
2238.00, 
2239.00, 
2240.00, 
2241.00, 
2242.00, 
2243.00, 
2244.00, 
2245.00, 
2246.00, 
2247.00, 
2248.00, 
2249.00, 
2250.00, 
2251.00, 
2252.00, 
2253.00, 
2254.00, 
2255.00, 
2256.00, 
2257.00, 
2258.00, 
2259.00, 
2260.00, 
2261.00, 
2262.00, 
2263.00, 
2264.00, 
2265.00, 
2266.00, 
2267.00, 
2268.00, 
2269.00, 
2270.00, 
2271.00, 
2272.00, 
2273.00, 
2274.00, 
2275.00, 
2276.00, 
2277.00, 
2278.00, 
2279.00, 
2280.00, 
2281.00, 
2282.00, 
2283.00, 
2284.00, 
2285.00, 
2286.00, 
2287.00, 
2288.00, 
2289.00, 
2290.00, 
2291.00, 
2292.00, 
2293.00, 
2294.00, 
2295.00, 
2296.00, 
2297.00, 
2298.00, 
2299.00, 
2300.00, 
2301.00, 
2302.00, 
2303.00, 
2304.00, 
2305.00, 
2306.00, 
2307.00, 
2308.00, 
2309.00, 
2310.00, 
2311.00, 
2312.00, 
2313.00, 
2314.00, 
2315.00, 
2316.00, 
2317.00, 
2318.00, 
2319.00, 
2320.00, 
2321.00, 
2322.00, 
2323.00, 
2324.00, 
2325.00, 
2326.00, 
2327.00, 
2328.00, 
2329.00, 
2330.00, 
2331.00, 
2332.00, 
2333.00, 
2334.00, 
2335.00, 
2336.00, 
2337.00, 
2338.00, 
2339.00, 
2340.00, 
2341.00, 
2342.00, 
2343.00, 
2344.00, 
2345.00, 
2346.00, 
2347.00, 
2348.00, 
2349.00, 
2350.00, 
2351.00, 
2352.00, 
2353.00, 
2354.00, 
2355.00, 
2356.00, 
2357.00, 
2358.00, 
2359.00, 
2360.00, 
2361.00, 
2362.00, 
2363.00, 
2364.00, 
2365.00, 
2366.00, 
2367.00, 
2368.00, 
2369.00, 
2370.00, 
2371.00, 
2372.00, 
2373.00, 
2374.00, 
2375.00, 
2376.00, 
2377.00, 
2378.00, 
2379.00, 
2380.00, 
2381.00, 
2382.00, 
2383.00, 
2384.00, 
2385.00, 
2386.00, 
2387.00, 
2388.00, 
2389.00, 
2390.00, 
2391.00, 
2392.00, 
2393.00, 
2394.00, 
2395.00, 
2396.00, 
2397.00, 
2398.00, 
2399.00, 
2400.00, 
2401.00, 
2402.00, 
2403.00, 
2404.00, 
2405.00, 
2406.00, 
2407.00, 
2408.00, 
2409.00, 
2410.00, 
2411.00, 
2412.00, 
2413.00, 
2414.00, 
2415.00, 
2416.00, 
2417.00, 
2418.00, 
2419.00, 
2420.00, 
2421.00, 
2422.00, 
2423.00, 
2424.00, 
2425.00, 
2426.00, 
2427.00, 
2428.00, 
2429.00, 
2430.00, 
2431.00, 
2432.00, 
2433.00, 
2434.00, 
2435.00, 
2436.00, 
2437.00, 
2438.00, 
2439.00, 
2440.00, 
2441.00, 
2442.00, 
2443.00, 
2444.00, 
2445.00, 
2446.00, 
2447.00, 
2448.00, 
2449.00, 
2450.00, 
2451.00, 
2452.00, 
2453.00, 
2454.00, 
2455.00, 
2456.00, 
2457.00, 
2458.00, 
2459.00, 
2460.00, 
2461.00, 
2462.00, 
2463.00, 
2464.00, 
2465.00, 
2466.00, 
2467.00, 
2468.00, 
2469.00, 
2470.00, 
2471.00, 
2472.00, 
2473.00, 
2474.00, 
2475.00, 
2476.00, 
2477.00, 
2478.00, 
2479.00, 
2480.00, 
2481.00, 
2482.00, 
2483.00, 
2484.00, 
2485.00, 
2486.00, 
2487.00, 
2488.00, 
2489.00, 
2490.00, 
2491.00, 
2492.00, 
2493.00, 
2494.00, 
2495.00, 
2496.00, 
2497.00, 
2498.00, 
2499.00, 
2500.00, 
2501.00, 
2502.00, 
2503.00, 
2504.00, 
2505.00, 
2506.00, 
2507.00, 
2508.00, 
2509.00, 
2510.00, 
2511.00, 
2512.00, 
2513.00, 
2514.00, 
2515.00, 
2516.00, 
2517.00, 
2518.00, 
2519.00, 
2520.00, 
2521.00, 
2522.00, 
2523.00, 
2524.00, 
2525.00, 
2526.00, 
2527.00, 
2528.00, 
2529.00, 
2530.00, 
2531.00, 
2532.00, 
2533.00, 
2534.00, 
2535.00, 
2536.00, 
2537.00, 
2538.00, 
2539.00, 
2540.00, 
2541.00, 
2542.00, 
2543.00, 
2544.00, 
2545.00, 
2546.00, 
2547.00, 
2548.00, 
2549.00, 
2550.00, 
2551.00, 
2552.00, 
2553.00, 
2554.00, 
2555.00, 
2556.00, 
2557.00, 
2558.00, 
2559.00, 
2560.00, 
2561.00, 
2562.00, 
2563.00, 
2564.00, 
2565.00, 
2566.00, 
2567.00, 
2568.00, 
2569.00, 
2570.00, 
2571.00, 
2572.00, 
2573.00, 
2574.00, 
2575.00, 
2576.00, 
2577.00, 
2578.00, 
2579.00, 
2580.00, 
2581.00, 
2582.00, 
2583.00, 
2584.00, 
2585.00, 
2586.00, 
2587.00, 
2588.00, 
2589.00, 
2590.00, 
2591.00, 
2592.00, 
2593.00, 
2594.00, 
2595.00, 
2596.00, 
2597.00, 
2598.00, 
2599.00, 
2600.00, 
