"2cP3 - RawData"
"Wavelength nm.","T%"
200.00,0.001
201.00,0.004
202.00,0.001
203.00,-0.001
204.00,0.002
205.00,0.002
206.00,-0.001
207.00,0.000
208.00,0.001
209.00,-0.000
210.00,0.002
211.00,-0.001
212.00,-0.001
213.00,0.002
214.00,0.002
215.00,0.001
216.00,0.001
217.00,0.002
218.00,0.001
219.00,0.002
220.00,0.003
221.00,-0.000
222.00,0.001
223.00,0.001
224.00,-0.002
225.00,0.000
226.00,0.001
227.00,0.001
228.00,-0.000
229.00,0.001
230.00,-0.001
231.00,-0.001
232.00,-0.002
233.00,0.002
234.00,0.001
235.00,0.001
236.00,-0.001
237.00,0.002
238.00,0.001
239.00,0.000
240.00,0.001
241.00,0.000
242.00,-0.000
243.00,0.000
244.00,0.000
245.00,0.001
246.00,0.002
247.00,0.000
248.00,-0.002
249.00,0.002
250.00,0.000
251.00,0.003
252.00,-0.000
253.00,0.001
254.00,-0.001
255.00,0.000
256.00,0.000
257.00,0.001
258.00,-0.000
259.00,0.001
260.00,-0.001
261.00,-0.000
262.00,0.001
263.00,-0.000
264.00,-0.001
265.00,-0.001
266.00,0.001
267.00,0.000
268.00,0.000
269.00,0.000
270.00,-0.001
271.00,-0.001
272.00,0.001
273.00,-0.000
274.00,0.001
275.00,0.002
276.00,-0.000
277.00,0.001
278.00,0.001
279.00,0.000
280.00,-0.000
281.00,0.001
282.00,0.001
283.00,-0.000
284.00,-0.000
285.00,-0.001
286.00,0.001
287.00,-0.000
288.00,-0.000
289.00,-0.000
290.00,-0.000
291.00,-0.002
292.00,0.000
293.00,-0.001
294.00,0.000
295.00,0.001
296.00,0.001
297.00,-0.000
298.00,0.002
299.00,0.001
300.00,0.002
301.00,0.002
302.00,0.006
303.00,0.008
304.00,0.013
305.00,0.021
306.00,0.032
307.00,0.048
308.00,0.077
309.00,0.118
310.00,0.162
311.00,0.222
312.00,0.311
313.00,0.427
314.00,0.559
315.00,0.717
316.00,0.930
317.00,1.171
318.00,1.446
319.00,1.767
320.00,2.166
321.00,2.609
322.00,3.085
323.00,3.650
324.00,4.234
325.00,4.842
326.00,5.411
327.00,6.151
328.00,6.860
329.00,7.615
330.00,8.448
331.00,9.191
332.00,9.996
333.00,10.832
334.00,11.655
335.00,12.476
336.00,13.305
337.00,14.160
338.00,14.977
339.00,15.751
340.00,16.559
341.00,17.316
342.00,18.019
343.00,18.715
344.00,19.370
345.00,20.013
346.00,20.550
347.00,21.136
348.00,21.707
349.00,22.248
350.00,22.735
351.00,23.214
352.00,23.669
353.00,23.897
354.00,24.445
355.00,24.821
356.00,25.205
357.00,25.534
358.00,25.826
359.00,26.110
360.00,26.371
361.00,26.551
362.00,26.812
363.00,27.010
364.00,27.211
365.00,27.422
366.00,27.524
367.00,27.742
368.00,27.770
369.00,27.909
370.00,27.998
371.00,28.082
372.00,28.115
373.00,28.181
374.00,28.207
375.00,28.196
376.00,28.176
377.00,28.157
378.00,28.081
379.00,28.084
380.00,28.047
381.00,28.066
382.00,28.112
383.00,28.144
384.00,28.217
385.00,28.271
386.00,28.310
387.00,28.399
388.00,28.479
389.00,28.522
390.00,28.575
391.00,28.613
392.00,28.672
393.00,28.733
394.00,28.790
395.00,28.811
396.00,28.812
397.00,28.871
398.00,28.888
399.00,28.881
400.00,28.908
401.00,28.914
402.00,28.946
403.00,28.950
404.00,28.949
405.00,28.942
406.00,28.925
407.00,28.912
408.00,28.908
409.00,28.842
410.00,28.812
411.00,28.800
412.00,28.774
413.00,28.760
414.00,28.810
415.00,28.793
416.00,28.888
417.00,28.920
418.00,28.897
419.00,28.931
420.00,28.961
421.00,29.017
422.00,29.044
423.00,29.074
424.00,29.094
425.00,29.145
426.00,29.145
427.00,29.196
428.00,29.253
429.00,29.281
430.00,29.298
431.00,29.384
432.00,29.402
433.00,29.467
434.00,29.496
435.00,29.550
436.00,29.620
437.00,29.643
438.00,29.723
439.00,29.776
440.00,29.759
441.00,29.905
442.00,29.986
443.00,30.063
444.00,30.133
445.00,30.199
446.00,30.298
447.00,30.442
448.00,30.463
449.00,30.531
450.00,30.641
451.00,30.708
452.00,30.807
453.00,30.916
454.00,30.969
455.00,31.071
456.00,31.193
457.00,31.316
458.00,31.390
459.00,31.491
460.00,31.582
461.00,31.671
462.00,31.773
463.00,31.892
464.00,32.008
465.00,32.127
466.00,32.225
467.00,32.316
468.00,32.363
469.00,32.519
470.00,32.566
471.00,32.678
472.00,32.770
473.00,32.816
474.00,32.902
475.00,33.016
476.00,33.068
477.00,33.196
478.00,33.293
479.00,33.427
480.00,33.548
481.00,33.639
482.00,33.800
483.00,33.892
484.00,33.946
485.00,34.177
486.00,34.210
487.00,34.454
488.00,34.568
489.00,34.754
490.00,34.868
491.00,34.969
492.00,35.162
493.00,35.212
494.00,35.215
495.00,35.339
496.00,35.478
497.00,35.512
498.00,35.722
499.00,35.822
500.00,35.951
501.00,36.045
502.00,36.149
503.00,36.235
504.00,36.287
505.00,36.432
506.00,36.539
507.00,36.597
508.00,36.695
509.00,36.825
510.00,36.942
511.00,37.032
512.00,37.165
513.00,37.242
514.00,37.385
515.00,37.495
516.00,37.566
517.00,37.684
518.00,37.763
519.00,37.798
520.00,37.901
521.00,37.921
522.00,38.019
523.00,38.083
524.00,38.122
525.00,38.274
526.00,38.336
527.00,38.431
528.00,38.352
529.00,38.643
530.00,38.733
531.00,38.892
532.00,38.956
533.00,39.055
534.00,39.128
535.00,39.216
536.00,39.290
537.00,39.355
538.00,39.552
539.00,39.502
540.00,39.561
541.00,39.595
542.00,39.666
543.00,39.706
544.00,39.788
545.00,39.871
546.00,39.922
547.00,40.032
548.00,40.091
549.00,40.117
550.00,40.252
551.00,40.266
552.00,40.363
553.00,40.455
554.00,40.509
555.00,40.534
556.00,40.619
557.00,40.723
558.00,40.748
559.00,40.825
560.00,40.870
561.00,40.924
562.00,40.975
563.00,40.986
564.00,41.103
565.00,41.063
566.00,41.105
567.00,41.211
568.00,41.210
569.00,41.243
570.00,41.231
571.00,41.309
572.00,41.342
573.00,41.387
574.00,41.463
575.00,41.454
576.00,41.503
577.00,41.542
578.00,41.602
579.00,41.688
580.00,41.702
581.00,41.849
582.00,41.896
583.00,41.939
584.00,42.085
585.00,42.101
586.00,42.129
587.00,42.245
588.00,42.278
589.00,42.292
590.00,42.361
591.00,42.337
592.00,42.374
593.00,42.433
594.00,42.498
595.00,42.490
596.00,42.555
597.00,42.611
598.00,42.684
599.00,42.723
600.00,42.763
601.00,42.819
602.00,42.836
603.00,42.831
604.00,42.895
605.00,42.967
606.00,43.068
607.00,43.011
608.00,43.093
609.00,43.053
610.00,42.938
611.00,42.975
612.00,43.115
613.00,43.178
614.00,43.331
615.00,43.367
616.00,43.398
617.00,43.444
618.00,43.504
619.00,43.563
620.00,43.408
621.00,43.607
622.00,43.635
623.00,43.715
624.00,43.759
625.00,43.760
626.00,43.851
627.00,43.834
628.00,43.936
629.00,43.930
630.00,43.987
631.00,44.053
632.00,44.081
633.00,44.118
634.00,44.200
635.00,44.347
636.00,44.389
637.00,44.434
638.00,44.481
639.00,44.532
640.00,44.549
641.00,44.590
642.00,44.585
643.00,44.697
644.00,44.773
645.00,44.814
646.00,44.877
647.00,44.938
648.00,44.967
649.00,45.001
650.00,45.019
651.00,45.126
652.00,45.199
653.00,45.213
654.00,45.316
655.00,45.365
656.00,45.408
657.00,45.614
658.00,45.622
659.00,45.717
660.00,45.609
661.00,45.616
662.00,45.864
663.00,45.904
664.00,45.926
665.00,45.933
666.00,45.976
667.00,46.072
668.00,46.102
669.00,46.165
670.00,46.291
671.00,46.172
672.00,46.318
673.00,46.441
674.00,46.464
675.00,46.573
676.00,46.666
677.00,46.663
678.00,46.604
679.00,46.671
680.00,46.747
681.00,46.841
682.00,46.884
683.00,46.881
684.00,47.128
685.00,47.098
686.00,47.060
687.00,47.265
688.00,47.207
689.00,47.237
690.00,47.394
691.00,47.446
692.00,47.312
693.00,47.355
694.00,47.289
695.00,47.362
696.00,47.491
697.00,47.514
698.00,47.407
699.00,47.837
700.00,48.266
701.00,47.791
702.00,47.975
703.00,48.029
704.00,48.063
705.00,48.007
706.00,48.028
707.00,48.079
708.00,48.061
709.00,48.176
710.00,48.204
711.00,48.410
712.00,48.299
713.00,48.313
714.00,48.388
715.00,48.407
716.00,48.420
717.00,48.524
718.00,48.570
719.00,48.599
720.00,48.653
721.00,53.064
722.00,53.038
723.00,53.021
724.00,53.017
725.00,52.979
726.00,52.993
727.00,53.030
728.00,52.978
729.00,53.003
730.00,53.056
731.00,52.997
732.00,52.988
733.00,53.015
734.00,52.929
735.00,52.998
736.00,53.018
737.00,53.054
738.00,52.973
739.00,53.022
740.00,52.960
741.00,53.063
742.00,53.060
743.00,52.987
744.00,52.969
745.00,53.040
746.00,52.919
747.00,52.942
748.00,52.918
749.00,52.837
750.00,52.833
751.00,52.841
752.00,52.789
753.00,52.766
754.00,52.820
755.00,52.775
756.00,52.741
757.00,52.741
758.00,52.725
759.00,52.737
760.00,52.718
761.00,52.772
762.00,52.708
763.00,52.757
764.00,52.734
765.00,52.698
766.00,52.650
767.00,52.728
768.00,52.728
769.00,52.676
770.00,52.658
771.00,52.656
772.00,52.702
773.00,52.661
774.00,52.664
775.00,52.677
776.00,52.651
777.00,52.513
778.00,52.626
779.00,52.640
780.00,52.669
781.00,52.566
782.00,52.600
783.00,52.539
784.00,52.561
785.00,52.535
786.00,52.560
787.00,52.557
788.00,52.463
789.00,52.518
790.00,52.409
791.00,52.422
792.00,52.396
793.00,52.407
794.00,52.364
795.00,52.363
796.00,52.350
797.00,52.256
798.00,52.355
799.00,52.274
800.00,52.329
801.00,52.210
802.00,52.215
803.00,52.218
804.00,52.198
805.00,52.137
806.00,52.109
807.00,52.066
808.00,52.129
809.00,52.031
810.00,52.003
811.00,52.025
812.00,51.981
813.00,52.011
814.00,51.995
815.00,51.981
816.00,52.023
817.00,51.918
818.00,51.809
819.00,51.741
820.00,51.894
821.00,51.781
822.00,51.740
823.00,51.722
824.00,51.759
825.00,51.693
826.00,51.701
827.00,51.787
828.00,51.723
829.00,51.595
830.00,51.619
831.00,54.187
832.00,54.155
833.00,54.103
834.00,54.115
835.00,54.049
836.00,54.072
837.00,54.014
838.00,53.977
839.00,53.934
840.00,53.921
841.00,53.935
842.00,53.920
843.00,53.909
844.00,53.891
845.00,53.832
846.00,53.799
847.00,53.810
848.00,53.794
849.00,53.741
850.00,53.697
851.00,53.648
852.00,53.653
853.00,53.626
854.00,53.563
855.00,53.515
856.00,53.515
857.00,53.471
858.00,53.472
859.00,53.397
860.00,53.396
861.00,53.375
862.00,53.354
863.00,53.328
864.00,53.301
865.00,53.332
866.00,53.281
867.00,53.285
868.00,53.241
869.00,53.238
870.00,53.231
871.00,53.232
872.00,53.208
873.00,53.235
874.00,53.163
875.00,53.189
876.00,53.146
877.00,53.137
878.00,53.098
879.00,53.188
880.00,52.996
881.00,53.082
882.00,53.090
883.00,53.047
884.00,53.023
885.00,53.012
886.00,53.008
887.00,52.961
888.00,52.932
889.00,52.921
890.00,52.913
891.00,52.852
892.00,52.827
893.00,52.766
894.00,52.840
895.00,52.625
896.00,52.734
897.00,52.729
898.00,52.708
899.00,52.687
900.00,52.690
901.00,52.690
902.00,52.658
903.00,52.631
904.00,52.617
905.00,52.580
906.00,52.567
907.00,52.544
908.00,52.543
909.00,52.517
910.00,52.473
911.00,52.509
912.00,52.517
913.00,52.440
914.00,52.417
915.00,52.412
916.00,52.378
917.00,52.356
918.00,52.348
919.00,52.285
920.00,52.307
921.00,52.276
922.00,52.256
923.00,52.212
924.00,52.206
925.00,52.175
926.00,52.265
927.00,52.156
928.00,52.164
929.00,52.135
930.00,52.090
931.00,52.086
932.00,52.047
933.00,52.037
934.00,52.019
935.00,52.009
936.00,51.980
937.00,51.963
938.00,51.940
939.00,51.951
940.00,51.916
941.00,51.885
942.00,51.918
943.00,51.867
944.00,51.820
945.00,51.824
946.00,51.801
947.00,51.785
948.00,51.758
949.00,51.740
950.00,51.721
951.00,51.721
952.00,51.670
953.00,51.645
954.00,51.619
955.00,51.580
956.00,51.585
957.00,51.531
958.00,51.541
959.00,51.494
960.00,51.500
961.00,51.464
962.00,51.470
963.00,51.439
964.00,51.429
965.00,51.408
966.00,51.396
967.00,51.399
968.00,51.360
969.00,51.387
970.00,51.366
971.00,51.369
972.00,51.339
973.00,51.378
974.00,51.379
975.00,51.354
976.00,51.368
977.00,51.335
978.00,51.387
979.00,51.351
980.00,51.377
981.00,51.364
982.00,51.337
983.00,51.326
984.00,51.324
985.00,51.347
986.00,51.310
987.00,51.309
988.00,51.282
989.00,51.275
990.00,51.259
991.00,51.232
992.00,51.258
993.00,51.219
994.00,51.203
995.00,51.211
996.00,51.179
997.00,51.183
998.00,51.160
999.00,51.175
1000.00,51.148
1001.00,51.129
1002.00,51.111
1003.00,51.120
1004.00,51.093
1005.00,51.061
1006.00,51.093
1007.00,51.058
1008.00,51.043
1009.00,51.039
1010.00,51.006
1011.00,51.019
1012.00,50.986
1013.00,50.988
1014.00,50.971
1015.00,50.971
1016.00,50.903
1017.00,50.919
1018.00,50.908
1019.00,50.890
1020.00,50.864
1021.00,50.848
1022.00,50.852
1023.00,50.795
1024.00,50.807
1025.00,50.783
1026.00,50.792
1027.00,50.763
1028.00,50.758
1029.00,50.729
1030.00,50.703
1031.00,50.704
1032.00,50.653
1033.00,50.678
1034.00,50.628
1035.00,50.600
1036.00,50.594
1037.00,50.570
1038.00,50.578
1039.00,50.540
1040.00,50.535
1041.00,50.496
1042.00,50.505
1043.00,50.466
1044.00,50.506
1045.00,50.486
1046.00,50.455
1047.00,50.485
1048.00,50.468
1049.00,50.486
1050.00,50.495
1051.00,50.504
1052.00,50.521
1053.00,50.528
1054.00,50.527
1055.00,50.547
1056.00,50.518
1057.00,50.556
1058.00,50.555
1059.00,50.551
1060.00,50.542
1061.00,50.540
1062.00,50.493
1063.00,50.510
1064.00,50.504
1065.00,50.492
1066.00,50.498
1067.00,50.481
1068.00,50.505
1069.00,50.476
1070.00,50.456
1071.00,50.435
1072.00,50.456
1073.00,50.418
1074.00,50.429
1075.00,50.417
1076.00,50.397
1077.00,50.396
1078.00,50.382
1079.00,50.364
1080.00,50.367
1081.00,50.335
1082.00,50.339
1083.00,50.332
1084.00,50.321
1085.00,50.333
1086.00,50.344
1087.00,50.294
1088.00,50.290
1089.00,50.275
1090.00,50.264
1091.00,50.271
1092.00,50.255
1093.00,50.232
1094.00,50.234
1095.00,50.202
1096.00,50.202
1097.00,50.184
1098.00,50.187
1099.00,50.197
1100.00,50.168
1101.00,50.149
1102.00,50.156
1103.00,50.148
1104.00,50.145
1105.00,50.131
1106.00,50.117
1107.00,50.104
1108.00,50.107
1109.00,50.098
1110.00,50.115
1111.00,50.099
1112.00,50.068
1113.00,50.072
1114.00,50.056
1115.00,50.049
1116.00,50.043
1117.00,50.014
1118.00,50.016
1119.00,50.006
1120.00,49.992
1121.00,49.995
1122.00,49.988
1123.00,49.965
1124.00,49.971
1125.00,49.944
1126.00,49.938
1127.00,49.946
1128.00,49.930
1129.00,49.909
1130.00,49.890
1131.00,49.905
1132.00,49.878
1133.00,49.921
1134.00,49.896
1135.00,49.868
1136.00,49.876
1137.00,49.878
1138.00,49.881
1139.00,49.871
1140.00,49.853
1141.00,49.835
1142.00,49.839
1143.00,49.870
1144.00,49.859
1145.00,49.852
1146.00,49.881
1147.00,49.854
1148.00,49.825
1149.00,49.837
1150.00,49.834
1151.00,49.832
1152.00,49.805
1153.00,49.788
1154.00,49.796
1155.00,49.799
1156.00,49.770
1157.00,49.790
1158.00,49.780
1159.00,49.771
1160.00,49.778
1161.00,49.777
1162.00,49.775
1163.00,49.768
1164.00,49.763
1165.00,49.762
1166.00,49.756
1167.00,49.747
1168.00,49.771
1169.00,49.756
1170.00,49.763
1171.00,49.741
1172.00,49.735
1173.00,49.740
1174.00,49.755
1175.00,49.731
1176.00,49.749
1177.00,49.747
1178.00,49.725
1179.00,49.751
1180.00,49.727
1181.00,49.740
1182.00,49.740
1183.00,49.721
1184.00,49.710
1185.00,49.720
1186.00,49.701
1187.00,49.716
1188.00,49.708
1189.00,49.703
1190.00,49.707
1191.00,49.687
1192.00,49.704
1193.00,49.704
1194.00,49.703
1195.00,49.685
1196.00,49.704
1197.00,49.697
1198.00,49.703
1199.00,49.694
1200.00,49.664
1201.00,49.686
1202.00,49.672
1203.00,49.681
1204.00,49.682
1205.00,49.684
1206.00,49.679
1207.00,49.683
1208.00,49.656
1209.00,49.673
1210.00,49.673
1211.00,49.660
1212.00,49.686
1213.00,49.655
1214.00,49.667
1215.00,49.663
1216.00,49.651
1217.00,49.661
1218.00,49.649
1219.00,49.656
1220.00,49.655
1221.00,49.662
1222.00,49.645
1223.00,49.691
1224.00,49.669
1225.00,49.648
1226.00,49.659
1227.00,49.639
1228.00,49.669
1229.00,49.665
1230.00,49.688
1231.00,49.680
1232.00,49.697
1233.00,49.691
1234.00,49.700
1235.00,49.688
1236.00,49.684
1237.00,49.697
1238.00,49.692
1239.00,49.703
1240.00,49.692
1241.00,49.695
1242.00,49.707
1243.00,49.722
1244.00,49.692
1245.00,49.723
1246.00,49.727
1247.00,49.724
1248.00,49.732
1249.00,49.731
1250.00,49.735
1251.00,49.722
1252.00,49.742
1253.00,49.758
1254.00,49.755
1255.00,49.725
1256.00,49.719
1257.00,49.698
1258.00,49.752
1259.00,49.742
1260.00,49.750
1261.00,49.740
1262.00,49.726
1263.00,49.733
1264.00,49.770
1265.00,49.785
1266.00,49.776
1267.00,49.790
1268.00,49.791
1269.00,49.774
1270.00,49.794
1271.00,49.784
1272.00,49.796
1273.00,49.794
1274.00,49.784
1275.00,49.809
1276.00,49.802
1277.00,49.789
1278.00,49.812
1279.00,49.810
1280.00,49.806
1281.00,49.817
1282.00,49.819
1283.00,49.828
1284.00,49.834
1285.00,49.808
1286.00,49.838
1287.00,49.813
1288.00,49.823
1289.00,49.839
1290.00,49.864
1291.00,49.853
1292.00,49.864
1293.00,49.863
1294.00,49.891
1295.00,49.908
1296.00,49.900
1297.00,49.914
1298.00,49.929
1299.00,49.918
1300.00,49.955
1301.00,49.920
1302.00,49.923
1303.00,49.953
1304.00,49.919
1305.00,49.940
1306.00,49.918
1307.00,49.918
1308.00,49.921
1309.00,49.929
1310.00,49.926
1311.00,49.945
1312.00,49.939
1313.00,49.945
1314.00,49.971
1315.00,49.963
1316.00,49.955
1317.00,49.965
1318.00,49.963
1319.00,49.984
1320.00,50.002
1321.00,50.150
1322.00,50.168
1323.00,50.134
1324.00,50.133
1325.00,50.118
1326.00,50.134
1327.00,50.131
1328.00,50.125
1329.00,50.103
1330.00,50.119
1331.00,50.121
1332.00,50.120
1333.00,50.143
1334.00,50.176
1335.00,50.183
1336.00,50.207
1337.00,50.245
1338.00,50.290
1339.00,50.337
1340.00,50.383
1341.00,50.451
1342.00,50.516
1343.00,50.561
1344.00,50.606
1345.00,50.664
1346.00,50.727
1347.00,50.746
1348.00,50.748
1349.00,50.779
1350.00,50.800
1351.00,50.803
1352.00,50.828
1353.00,50.816
1354.00,50.817
1355.00,50.817
1356.00,50.859
1357.00,50.771
1358.00,50.883
1359.00,50.854
1360.00,50.895
1361.00,50.903
1362.00,50.841
1363.00,50.858
1364.00,50.843
1365.00,50.834
1366.00,50.911
1367.00,50.825
1368.00,50.812
1369.00,50.824
1370.00,50.820
1371.00,50.796
1372.00,50.825
1373.00,50.808
1374.00,50.829
1375.00,50.812
1376.00,50.800
1377.00,50.787
1378.00,50.865
1379.00,50.870
1380.00,50.811
1381.00,50.844
1382.00,50.803
1383.00,50.804
1384.00,50.761
1385.00,50.731
1386.00,50.817
1387.00,50.750
1388.00,50.782
1389.00,50.809
1390.00,50.807
1391.00,50.781
1392.00,50.753
1393.00,50.897
1394.00,50.768
1395.00,50.767
1396.00,50.717
1397.00,50.833
1398.00,50.856
1399.00,50.803
1400.00,50.719
1401.00,50.781
1402.00,50.897
1403.00,50.794
1404.00,50.807
1405.00,50.857
1406.00,50.840
1407.00,50.841
1408.00,50.829
1409.00,50.831
1410.00,50.877
1411.00,50.841
1412.00,50.912
1413.00,50.819
1414.00,50.826
1415.00,50.888
1416.00,50.923
1417.00,50.944
1418.00,50.930
1419.00,50.873
1420.00,50.917
1421.00,50.967
1422.00,50.951
1423.00,50.947
1424.00,50.977
1425.00,50.981
1426.00,50.989
1427.00,51.021
1428.00,51.030
1429.00,51.055
1430.00,51.046
1431.00,51.040
1432.00,51.086
1433.00,51.083
1434.00,51.084
1435.00,51.155
1436.00,51.131
1437.00,51.133
1438.00,51.155
1439.00,51.180
1440.00,51.204
1441.00,51.197
1442.00,51.205
1443.00,51.247
1444.00,51.298
1445.00,51.240
1446.00,51.235
1447.00,51.280
1448.00,51.326
1449.00,51.355
1450.00,51.359
1451.00,51.332
1452.00,51.343
1453.00,51.358
1454.00,51.392
1455.00,51.391
1456.00,51.416
1457.00,51.407
1458.00,51.425
1459.00,51.454
1460.00,51.472
1461.00,51.477
1462.00,51.497
1463.00,51.520
1464.00,51.557
1465.00,51.550
1466.00,51.534
1467.00,51.576
1468.00,51.634
1469.00,51.601
1470.00,51.612
1471.00,51.626
1472.00,51.632
1473.00,51.639
1474.00,51.670
1475.00,51.675
1476.00,51.718
1477.00,51.687
1478.00,51.721
1479.00,51.734
1480.00,51.733
1481.00,51.737
1482.00,51.777
1483.00,51.784
1484.00,51.795
1485.00,51.803
1486.00,51.807
1487.00,51.827
1488.00,51.841
1489.00,51.839
1490.00,51.853
1491.00,51.853
1492.00,51.870
1493.00,51.883
1494.00,51.883
1495.00,51.891
1496.00,51.898
1497.00,51.897
1498.00,51.917
1499.00,51.932
1500.00,51.947
1501.00, 
1502.00, 
1503.00, 
1504.00, 
1505.00, 
1506.00, 
1507.00, 
1508.00, 
1509.00, 
1510.00, 
1511.00, 
1512.00, 
1513.00, 
1514.00, 
1515.00, 
1516.00, 
1517.00, 
1518.00, 
1519.00, 
1520.00, 
1521.00, 
1522.00, 
1523.00, 
1524.00, 
1525.00, 
1526.00, 
1527.00, 
1528.00, 
1529.00, 
1530.00, 
1531.00, 
1532.00, 
1533.00, 
1534.00, 
1535.00, 
1536.00, 
1537.00, 
1538.00, 
1539.00, 
1540.00, 
1541.00, 
1542.00, 
1543.00, 
1544.00, 
1545.00, 
1546.00, 
1547.00, 
1548.00, 
1549.00, 
1550.00, 
1551.00, 
1552.00, 
1553.00, 
1554.00, 
1555.00, 
1556.00, 
1557.00, 
1558.00, 
1559.00, 
1560.00, 
1561.00, 
1562.00, 
1563.00, 
1564.00, 
1565.00, 
1566.00, 
1567.00, 
1568.00, 
1569.00, 
1570.00, 
1571.00, 
1572.00, 
1573.00, 
1574.00, 
1575.00, 
1576.00, 
1577.00, 
1578.00, 
1579.00, 
1580.00, 
1581.00, 
1582.00, 
1583.00, 
1584.00, 
1585.00, 
1586.00, 
1587.00, 
1588.00, 
1589.00, 
1590.00, 
1591.00, 
1592.00, 
1593.00, 
1594.00, 
1595.00, 
1596.00, 
1597.00, 
1598.00, 
1599.00, 
1600.00, 
1601.00, 
1602.00, 
1603.00, 
1604.00, 
1605.00, 
1606.00, 
1607.00, 
1608.00, 
1609.00, 
1610.00, 
1611.00, 
1612.00, 
1613.00, 
1614.00, 
1615.00, 
1616.00, 
1617.00, 
1618.00, 
1619.00, 
1620.00, 
1621.00, 
1622.00, 
1623.00, 
1624.00, 
1625.00, 
1626.00, 
1627.00, 
1628.00, 
1629.00, 
1630.00, 
1631.00, 
1632.00, 
1633.00, 
1634.00, 
1635.00, 
1636.00, 
1637.00, 
1638.00, 
1639.00, 
1640.00, 
1641.00, 
1642.00, 
1643.00, 
1644.00, 
1645.00, 
1646.00, 
1647.00, 
1648.00, 
1649.00, 
1650.00, 
1651.00, 
1652.00, 
1653.00, 
1654.00, 
1655.00, 
1656.00, 
1657.00, 
1658.00, 
1659.00, 
1660.00, 
1661.00, 
1662.00, 
1663.00, 
1664.00, 
1665.00, 
1666.00, 
1667.00, 
1668.00, 
1669.00, 
1670.00, 
1671.00, 
1672.00, 
1673.00, 
1674.00, 
1675.00, 
1676.00, 
1677.00, 
1678.00, 
1679.00, 
1680.00, 
1681.00, 
1682.00, 
1683.00, 
1684.00, 
1685.00, 
1686.00, 
1687.00, 
1688.00, 
1689.00, 
1690.00, 
1691.00, 
1692.00, 
1693.00, 
1694.00, 
1695.00, 
1696.00, 
1697.00, 
1698.00, 
1699.00, 
1700.00, 
1701.00, 
1702.00, 
1703.00, 
1704.00, 
1705.00, 
1706.00, 
1707.00, 
1708.00, 
1709.00, 
1710.00, 
1711.00, 
1712.00, 
1713.00, 
1714.00, 
1715.00, 
1716.00, 
1717.00, 
1718.00, 
1719.00, 
1720.00, 
1721.00, 
1722.00, 
1723.00, 
1724.00, 
1725.00, 
1726.00, 
1727.00, 
1728.00, 
1729.00, 
1730.00, 
1731.00, 
1732.00, 
1733.00, 
1734.00, 
1735.00, 
1736.00, 
1737.00, 
1738.00, 
1739.00, 
1740.00, 
1741.00, 
1742.00, 
1743.00, 
1744.00, 
1745.00, 
1746.00, 
1747.00, 
1748.00, 
1749.00, 
1750.00, 
1751.00, 
1752.00, 
1753.00, 
1754.00, 
1755.00, 
1756.00, 
1757.00, 
1758.00, 
1759.00, 
1760.00, 
1761.00, 
1762.00, 
1763.00, 
1764.00, 
1765.00, 
1766.00, 
1767.00, 
1768.00, 
1769.00, 
1770.00, 
1771.00, 
1772.00, 
1773.00, 
1774.00, 
1775.00, 
1776.00, 
1777.00, 
1778.00, 
1779.00, 
1780.00, 
1781.00, 
1782.00, 
1783.00, 
1784.00, 
1785.00, 
1786.00, 
1787.00, 
1788.00, 
1789.00, 
1790.00, 
1791.00, 
1792.00, 
1793.00, 
1794.00, 
1795.00, 
1796.00, 
1797.00, 
1798.00, 
1799.00, 
1800.00, 
1801.00, 
1802.00, 
1803.00, 
1804.00, 
1805.00, 
1806.00, 
1807.00, 
1808.00, 
1809.00, 
1810.00, 
1811.00, 
1812.00, 
1813.00, 
1814.00, 
1815.00, 
1816.00, 
1817.00, 
1818.00, 
1819.00, 
1820.00, 
1821.00, 
1822.00, 
1823.00, 
1824.00, 
1825.00, 
1826.00, 
1827.00, 
1828.00, 
1829.00, 
1830.00, 
1831.00, 
1832.00, 
1833.00, 
1834.00, 
1835.00, 
1836.00, 
1837.00, 
1838.00, 
1839.00, 
1840.00, 
1841.00, 
1842.00, 
1843.00, 
1844.00, 
1845.00, 
1846.00, 
1847.00, 
1848.00, 
1849.00, 
1850.00, 
1851.00, 
1852.00, 
1853.00, 
1854.00, 
1855.00, 
1856.00, 
1857.00, 
1858.00, 
1859.00, 
1860.00, 
1861.00, 
1862.00, 
1863.00, 
1864.00, 
1865.00, 
1866.00, 
1867.00, 
1868.00, 
1869.00, 
1870.00, 
1871.00, 
1872.00, 
1873.00, 
1874.00, 
1875.00, 
1876.00, 
1877.00, 
1878.00, 
1879.00, 
1880.00, 
1881.00, 
1882.00, 
1883.00, 
1884.00, 
1885.00, 
1886.00, 
1887.00, 
1888.00, 
1889.00, 
1890.00, 
1891.00, 
1892.00, 
1893.00, 
1894.00, 
1895.00, 
1896.00, 
1897.00, 
1898.00, 
1899.00, 
1900.00, 
1901.00, 
1902.00, 
1903.00, 
1904.00, 
1905.00, 
1906.00, 
1907.00, 
1908.00, 
1909.00, 
1910.00, 
1911.00, 
1912.00, 
1913.00, 
1914.00, 
1915.00, 
1916.00, 
1917.00, 
1918.00, 
1919.00, 
1920.00, 
1921.00, 
1922.00, 
1923.00, 
1924.00, 
1925.00, 
1926.00, 
1927.00, 
1928.00, 
1929.00, 
1930.00, 
1931.00, 
1932.00, 
1933.00, 
1934.00, 
1935.00, 
1936.00, 
1937.00, 
1938.00, 
1939.00, 
1940.00, 
1941.00, 
1942.00, 
1943.00, 
1944.00, 
1945.00, 
1946.00, 
1947.00, 
1948.00, 
1949.00, 
1950.00, 
1951.00, 
1952.00, 
1953.00, 
1954.00, 
1955.00, 
1956.00, 
1957.00, 
1958.00, 
1959.00, 
1960.00, 
1961.00, 
1962.00, 
1963.00, 
1964.00, 
1965.00, 
1966.00, 
1967.00, 
1968.00, 
1969.00, 
1970.00, 
1971.00, 
1972.00, 
1973.00, 
1974.00, 
1975.00, 
1976.00, 
1977.00, 
1978.00, 
1979.00, 
1980.00, 
1981.00, 
1982.00, 
1983.00, 
1984.00, 
1985.00, 
1986.00, 
1987.00, 
1988.00, 
1989.00, 
1990.00, 
1991.00, 
1992.00, 
1993.00, 
1994.00, 
1995.00, 
1996.00, 
1997.00, 
1998.00, 
1999.00, 
2000.00, 
2001.00, 
2002.00, 
2003.00, 
2004.00, 
2005.00, 
2006.00, 
2007.00, 
2008.00, 
2009.00, 
2010.00, 
2011.00, 
2012.00, 
2013.00, 
2014.00, 
2015.00, 
2016.00, 
2017.00, 
2018.00, 
2019.00, 
2020.00, 
2021.00, 
2022.00, 
2023.00, 
2024.00, 
2025.00, 
2026.00, 
2027.00, 
2028.00, 
2029.00, 
2030.00, 
2031.00, 
2032.00, 
2033.00, 
2034.00, 
2035.00, 
2036.00, 
2037.00, 
2038.00, 
2039.00, 
2040.00, 
2041.00, 
2042.00, 
2043.00, 
2044.00, 
2045.00, 
2046.00, 
2047.00, 
2048.00, 
2049.00, 
2050.00, 
2051.00, 
2052.00, 
2053.00, 
2054.00, 
2055.00, 
2056.00, 
2057.00, 
2058.00, 
2059.00, 
2060.00, 
2061.00, 
2062.00, 
2063.00, 
2064.00, 
2065.00, 
2066.00, 
2067.00, 
2068.00, 
2069.00, 
2070.00, 
2071.00, 
2072.00, 
2073.00, 
2074.00, 
2075.00, 
2076.00, 
2077.00, 
2078.00, 
2079.00, 
2080.00, 
2081.00, 
2082.00, 
2083.00, 
2084.00, 
2085.00, 
2086.00, 
2087.00, 
2088.00, 
2089.00, 
2090.00, 
2091.00, 
2092.00, 
2093.00, 
2094.00, 
2095.00, 
2096.00, 
2097.00, 
2098.00, 
2099.00, 
2100.00, 
2101.00, 
2102.00, 
2103.00, 
2104.00, 
2105.00, 
2106.00, 
2107.00, 
2108.00, 
2109.00, 
2110.00, 
2111.00, 
2112.00, 
2113.00, 
2114.00, 
2115.00, 
2116.00, 
2117.00, 
2118.00, 
2119.00, 
2120.00, 
2121.00, 
2122.00, 
2123.00, 
2124.00, 
2125.00, 
2126.00, 
2127.00, 
2128.00, 
2129.00, 
2130.00, 
2131.00, 
2132.00, 
2133.00, 
2134.00, 
2135.00, 
2136.00, 
2137.00, 
2138.00, 
2139.00, 
2140.00, 
2141.00, 
2142.00, 
2143.00, 
2144.00, 
2145.00, 
2146.00, 
2147.00, 
2148.00, 
2149.00, 
2150.00, 
2151.00, 
2152.00, 
2153.00, 
2154.00, 
2155.00, 
2156.00, 
2157.00, 
2158.00, 
2159.00, 
2160.00, 
2161.00, 
2162.00, 
2163.00, 
2164.00, 
2165.00, 
2166.00, 
2167.00, 
2168.00, 
2169.00, 
2170.00, 
2171.00, 
2172.00, 
2173.00, 
2174.00, 
2175.00, 
2176.00, 
2177.00, 
2178.00, 
2179.00, 
2180.00, 
2181.00, 
2182.00, 
2183.00, 
2184.00, 
2185.00, 
2186.00, 
2187.00, 
2188.00, 
2189.00, 
2190.00, 
2191.00, 
2192.00, 
2193.00, 
2194.00, 
2195.00, 
2196.00, 
2197.00, 
2198.00, 
2199.00, 
2200.00, 
2201.00, 
2202.00, 
2203.00, 
2204.00, 
2205.00, 
2206.00, 
2207.00, 
2208.00, 
2209.00, 
2210.00, 
2211.00, 
2212.00, 
2213.00, 
2214.00, 
2215.00, 
2216.00, 
2217.00, 
2218.00, 
2219.00, 
2220.00, 
2221.00, 
2222.00, 
2223.00, 
2224.00, 
2225.00, 
2226.00, 
2227.00, 
2228.00, 
2229.00, 
2230.00, 
2231.00, 
2232.00, 
2233.00, 
2234.00, 
2235.00, 
2236.00, 
2237.00, 
2238.00, 
2239.00, 
2240.00, 
2241.00, 
2242.00, 
2243.00, 
2244.00, 
2245.00, 
2246.00, 
2247.00, 
2248.00, 
2249.00, 
2250.00, 
2251.00, 
2252.00, 
2253.00, 
2254.00, 
2255.00, 
2256.00, 
2257.00, 
2258.00, 
2259.00, 
2260.00, 
2261.00, 
2262.00, 
2263.00, 
2264.00, 
2265.00, 
2266.00, 
2267.00, 
2268.00, 
2269.00, 
2270.00, 
2271.00, 
2272.00, 
2273.00, 
2274.00, 
2275.00, 
2276.00, 
2277.00, 
2278.00, 
2279.00, 
2280.00, 
2281.00, 
2282.00, 
2283.00, 
2284.00, 
2285.00, 
2286.00, 
2287.00, 
2288.00, 
2289.00, 
2290.00, 
2291.00, 
2292.00, 
2293.00, 
2294.00, 
2295.00, 
2296.00, 
2297.00, 
2298.00, 
2299.00, 
2300.00, 
2301.00, 
2302.00, 
2303.00, 
2304.00, 
2305.00, 
2306.00, 
2307.00, 
2308.00, 
2309.00, 
2310.00, 
2311.00, 
2312.00, 
2313.00, 
2314.00, 
2315.00, 
2316.00, 
2317.00, 
2318.00, 
2319.00, 
2320.00, 
2321.00, 
2322.00, 
2323.00, 
2324.00, 
2325.00, 
2326.00, 
2327.00, 
2328.00, 
2329.00, 
2330.00, 
2331.00, 
2332.00, 
2333.00, 
2334.00, 
2335.00, 
2336.00, 
2337.00, 
2338.00, 
2339.00, 
2340.00, 
2341.00, 
2342.00, 
2343.00, 
2344.00, 
2345.00, 
2346.00, 
2347.00, 
2348.00, 
2349.00, 
2350.00, 
2351.00, 
2352.00, 
2353.00, 
2354.00, 
2355.00, 
2356.00, 
2357.00, 
2358.00, 
2359.00, 
2360.00, 
2361.00, 
2362.00, 
2363.00, 
2364.00, 
2365.00, 
2366.00, 
2367.00, 
2368.00, 
2369.00, 
2370.00, 
2371.00, 
2372.00, 
2373.00, 
2374.00, 
2375.00, 
2376.00, 
2377.00, 
2378.00, 
2379.00, 
2380.00, 
2381.00, 
2382.00, 
2383.00, 
2384.00, 
2385.00, 
2386.00, 
2387.00, 
2388.00, 
2389.00, 
2390.00, 
2391.00, 
2392.00, 
2393.00, 
2394.00, 
2395.00, 
2396.00, 
2397.00, 
2398.00, 
2399.00, 
2400.00, 
2401.00, 
2402.00, 
2403.00, 
2404.00, 
2405.00, 
2406.00, 
2407.00, 
2408.00, 
2409.00, 
2410.00, 
2411.00, 
2412.00, 
2413.00, 
2414.00, 
2415.00, 
2416.00, 
2417.00, 
2418.00, 
2419.00, 
2420.00, 
2421.00, 
2422.00, 
2423.00, 
2424.00, 
2425.00, 
2426.00, 
2427.00, 
2428.00, 
2429.00, 
2430.00, 
2431.00, 
2432.00, 
2433.00, 
2434.00, 
2435.00, 
2436.00, 
2437.00, 
2438.00, 
2439.00, 
2440.00, 
2441.00, 
2442.00, 
2443.00, 
2444.00, 
2445.00, 
2446.00, 
2447.00, 
2448.00, 
2449.00, 
2450.00, 
2451.00, 
2452.00, 
2453.00, 
2454.00, 
2455.00, 
2456.00, 
2457.00, 
2458.00, 
2459.00, 
2460.00, 
2461.00, 
2462.00, 
2463.00, 
2464.00, 
2465.00, 
2466.00, 
2467.00, 
2468.00, 
2469.00, 
2470.00, 
2471.00, 
2472.00, 
2473.00, 
2474.00, 
2475.00, 
2476.00, 
2477.00, 
2478.00, 
2479.00, 
2480.00, 
2481.00, 
2482.00, 
2483.00, 
2484.00, 
2485.00, 
2486.00, 
2487.00, 
2488.00, 
2489.00, 
2490.00, 
2491.00, 
2492.00, 
2493.00, 
2494.00, 
2495.00, 
2496.00, 
2497.00, 
2498.00, 
2499.00, 
2500.00, 
2501.00, 
2502.00, 
2503.00, 
2504.00, 
2505.00, 
2506.00, 
2507.00, 
2508.00, 
2509.00, 
2510.00, 
2511.00, 
2512.00, 
2513.00, 
2514.00, 
2515.00, 
2516.00, 
2517.00, 
2518.00, 
2519.00, 
2520.00, 
2521.00, 
2522.00, 
2523.00, 
2524.00, 
2525.00, 
2526.00, 
2527.00, 
2528.00, 
2529.00, 
2530.00, 
2531.00, 
2532.00, 
2533.00, 
2534.00, 
2535.00, 
2536.00, 
2537.00, 
2538.00, 
2539.00, 
2540.00, 
2541.00, 
2542.00, 
2543.00, 
2544.00, 
2545.00, 
2546.00, 
2547.00, 
2548.00, 
2549.00, 
2550.00, 
2551.00, 
2552.00, 
2553.00, 
2554.00, 
2555.00, 
2556.00, 
2557.00, 
2558.00, 
2559.00, 
2560.00, 
2561.00, 
2562.00, 
2563.00, 
2564.00, 
2565.00, 
2566.00, 
2567.00, 
2568.00, 
2569.00, 
2570.00, 
2571.00, 
2572.00, 
2573.00, 
2574.00, 
2575.00, 
2576.00, 
2577.00, 
2578.00, 
2579.00, 
2580.00, 
2581.00, 
2582.00, 
2583.00, 
2584.00, 
2585.00, 
2586.00, 
2587.00, 
2588.00, 
2589.00, 
2590.00, 
2591.00, 
2592.00, 
2593.00, 
2594.00, 
2595.00, 
2596.00, 
2597.00, 
2598.00, 
2599.00, 
2600.00, 
