"1aP2 - RawData"
"Wavelength nm.","T%"
200.00,-0.002
201.00,0.002
202.00,-0.000
203.00,-0.001
204.00,0.001
205.00,0.003
206.00,0.001
207.00,0.005
208.00,0.005
209.00,-0.001
210.00,-0.001
211.00,0.001
212.00,0.001
213.00,0.000
214.00,0.000
215.00,0.001
216.00,0.003
217.00,0.002
218.00,0.001
219.00,-0.002
220.00,0.003
221.00,-0.001
222.00,0.001
223.00,-0.002
224.00,0.001
225.00,0.001
226.00,0.000
227.00,0.001
228.00,0.001
229.00,0.002
230.00,0.001
231.00,0.003
232.00,-0.000
233.00,0.001
234.00,0.001
235.00,0.001
236.00,0.000
237.00,-0.000
238.00,-0.000
239.00,0.002
240.00,0.000
241.00,-0.001
242.00,-0.000
243.00,0.000
244.00,0.001
245.00,0.000
246.00,0.002
247.00,0.001
248.00,-0.001
249.00,0.002
250.00,-0.000
251.00,0.001
252.00,-0.001
253.00,0.001
254.00,0.000
255.00,-0.000
256.00,-0.001
257.00,0.002
258.00,-0.001
259.00,-0.000
260.00,0.001
261.00,0.001
262.00,0.000
263.00,0.002
264.00,-0.001
265.00,0.000
266.00,-0.001
267.00,0.002
268.00,0.001
269.00,-0.001
270.00,0.002
271.00,-0.001
272.00,0.001
273.00,0.000
274.00,0.001
275.00,-0.000
276.00,-0.001
277.00,0.000
278.00,-0.001
279.00,-0.000
280.00,0.001
281.00,-0.000
282.00,-0.001
283.00,0.001
284.00,-0.001
285.00,0.001
286.00,-0.000
287.00,0.002
288.00,-0.001
289.00,0.001
290.00,-0.001
291.00,0.001
292.00,-0.001
293.00,0.001
294.00,0.001
295.00,0.000
296.00,-0.001
297.00,0.002
298.00,0.001
299.00,0.002
300.00,0.003
301.00,0.005
302.00,0.007
303.00,0.011
304.00,0.018
305.00,0.026
306.00,0.042
307.00,0.064
308.00,0.099
309.00,0.152
310.00,0.211
311.00,0.286
312.00,0.384
313.00,0.517
314.00,0.687
315.00,0.871
316.00,1.109
317.00,1.401
318.00,1.692
319.00,2.064
320.00,2.488
321.00,2.952
322.00,3.465
323.00,4.031
324.00,4.653
325.00,5.268
326.00,5.879
327.00,6.587
328.00,7.325
329.00,8.069
330.00,8.803
331.00,9.560
332.00,10.215
333.00,11.165
334.00,11.860
335.00,12.631
336.00,13.383
337.00,14.141
338.00,14.889
339.00,15.559
340.00,16.255
341.00,16.905
342.00,17.475
343.00,18.102
344.00,18.714
345.00,19.276
346.00,19.738
347.00,20.152
348.00,20.625
349.00,21.058
350.00,21.443
351.00,21.814
352.00,22.068
353.00,22.448
354.00,22.743
355.00,23.011
356.00,23.254
357.00,23.441
358.00,23.686
359.00,23.970
360.00,24.180
361.00,24.233
362.00,24.375
363.00,24.583
364.00,24.658
365.00,24.710
366.00,24.804
367.00,24.860
368.00,24.893
369.00,24.917
370.00,25.038
371.00,24.955
372.00,24.942
373.00,25.042
374.00,25.003
375.00,24.917
376.00,24.852
377.00,24.806
378.00,24.706
379.00,24.640
380.00,24.636
381.00,24.580
382.00,24.578
383.00,24.601
384.00,24.603
385.00,24.662
386.00,24.611
387.00,24.789
388.00,24.743
389.00,24.720
390.00,24.799
391.00,24.803
392.00,24.788
393.00,24.792
394.00,24.811
395.00,24.855
396.00,24.800
397.00,24.803
398.00,24.802
399.00,24.804
400.00,24.842
401.00,24.816
402.00,24.831
403.00,24.787
404.00,24.778
405.00,24.745
406.00,24.751
407.00,24.693
408.00,24.711
409.00,24.667
410.00,24.625
411.00,24.611
412.00,24.582
413.00,24.616
414.00,24.584
415.00,24.595
416.00,24.676
417.00,24.680
418.00,24.635
419.00,24.733
420.00,24.795
421.00,24.762
422.00,24.778
423.00,24.832
424.00,24.877
425.00,24.884
426.00,24.902
427.00,24.983
428.00,25.004
429.00,25.062
430.00,25.132
431.00,25.153
432.00,25.189
433.00,25.256
434.00,25.355
435.00,25.425
436.00,25.442
437.00,25.544
438.00,25.602
439.00,25.659
440.00,25.739
441.00,25.837
442.00,25.898
443.00,26.000
444.00,26.163
445.00,26.152
446.00,26.238
447.00,26.329
448.00,26.448
449.00,26.564
450.00,26.701
451.00,26.759
452.00,26.848
453.00,26.991
454.00,27.057
455.00,27.189
456.00,27.321
457.00,27.409
458.00,27.521
459.00,27.688
460.00,27.784
461.00,27.931
462.00,28.018
463.00,28.171
464.00,28.301
465.00,28.400
466.00,28.553
467.00,28.709
468.00,28.781
469.00,28.908
470.00,29.031
471.00,29.074
472.00,29.243
473.00,29.294
474.00,29.435
475.00,29.543
476.00,29.608
477.00,29.776
478.00,29.863
479.00,30.065
480.00,30.173
481.00,30.265
482.00,30.485
483.00,30.616
484.00,30.791
485.00,30.971
486.00,31.075
487.00,31.272
488.00,31.354
489.00,31.536
490.00,31.706
491.00,31.794
492.00,31.949
493.00,32.140
494.00,32.331
495.00,32.350
496.00,32.477
497.00,32.568
498.00,32.711
499.00,32.845
500.00,32.993
501.00,33.071
502.00,33.232
503.00,33.367
504.00,33.416
505.00,33.548
506.00,33.654
507.00,33.766
508.00,33.903
509.00,34.088
510.00,34.227
511.00,34.237
512.00,34.355
513.00,34.552
514.00,34.642
515.00,34.756
516.00,34.905
517.00,34.946
518.00,35.152
519.00,35.180
520.00,35.205
521.00,35.370
522.00,35.473
523.00,35.473
524.00,35.608
525.00,35.714
526.00,35.777
527.00,35.852
528.00,35.926
529.00,36.133
530.00,36.254
531.00,36.334
532.00,36.404
533.00,36.597
534.00,36.588
535.00,36.640
536.00,36.737
537.00,36.855
538.00,36.880
539.00,36.913
540.00,36.994
541.00,37.018
542.00,37.008
543.00,37.134
544.00,37.211
545.00,37.279
546.00,37.313
547.00,37.459
548.00,37.534
549.00,37.605
550.00,37.603
551.00,37.737
552.00,37.769
553.00,37.789
554.00,37.833
555.00,37.864
556.00,37.924
557.00,37.971
558.00,38.040
559.00,38.122
560.00,38.113
561.00,38.143
562.00,38.299
563.00,38.361
564.00,38.403
565.00,38.469
566.00,38.470
567.00,38.530
568.00,38.554
569.00,38.649
570.00,38.618
571.00,38.668
572.00,38.674
573.00,38.661
574.00,38.724
575.00,38.719
576.00,38.751
577.00,38.780
578.00,38.903
579.00,38.981
580.00,38.964
581.00,39.167
582.00,39.226
583.00,39.185
584.00,39.314
585.00,39.335
586.00,39.396
587.00,39.479
588.00,39.464
589.00,39.437
590.00,39.563
591.00,39.574
592.00,39.542
593.00,39.576
594.00,39.674
595.00,39.757
596.00,39.817
597.00,39.853
598.00,39.907
599.00,39.881
600.00,39.934
601.00,39.955
602.00,39.971
603.00,39.982
604.00,40.054
605.00,40.144
606.00,40.122
607.00,40.182
608.00,40.384
609.00,40.419
610.00,40.261
611.00,40.305
612.00,40.318
613.00,40.448
614.00,40.505
615.00,40.541
616.00,40.654
617.00,40.621
618.00,40.613
619.00,40.678
620.00,40.710
621.00,40.753
622.00,40.869
623.00,40.946
624.00,40.978
625.00,41.076
626.00,41.122
627.00,41.149
628.00,41.130
629.00,41.244
630.00,41.273
631.00,41.272
632.00,41.403
633.00,41.463
634.00,41.538
635.00,41.679
636.00,41.749
637.00,41.770
638.00,41.783
639.00,41.965
640.00,42.002
641.00,42.009
642.00,42.066
643.00,42.147
644.00,42.291
645.00,42.303
646.00,42.489
647.00,42.551
648.00,42.541
649.00,42.554
650.00,42.594
651.00,42.816
652.00,42.760
653.00,42.856
654.00,42.882
655.00,42.992
656.00,43.382
657.00,42.814
658.00,43.412
659.00,43.489
660.00,43.552
661.00,43.509
662.00,43.604
663.00,43.675
664.00,43.919
665.00,44.133
666.00,43.960
667.00,44.103
668.00,44.063
669.00,44.330
670.00,44.575
671.00,44.463
672.00,44.612
673.00,44.615
674.00,44.701
675.00,44.849
676.00,44.938
677.00,45.187
678.00,44.834
679.00,45.023
680.00,45.290
681.00,45.453
682.00,45.366
683.00,45.420
684.00,45.690
685.00,45.655
686.00,45.546
687.00,45.751
688.00,45.839
689.00,45.745
690.00,46.097
691.00,46.358
692.00,46.000
693.00,46.069
694.00,46.327
695.00,46.336
696.00,46.405
697.00,46.409
698.00,46.533
699.00,46.758
700.00,46.748
701.00,46.903
702.00,46.990
703.00,47.131
704.00,47.179
705.00,47.107
706.00,47.219
707.00,47.283
708.00,47.072
709.00,47.504
710.00,47.910
711.00,47.440
712.00,47.526
713.00,47.687
714.00,47.725
715.00,47.777
716.00,47.711
717.00,47.952
718.00,48.177
719.00,48.055
720.00,48.109
721.00,52.619
722.00,52.676
723.00,52.597
724.00,52.704
725.00,52.634
726.00,52.700
727.00,52.775
728.00,52.730
729.00,52.746
730.00,52.802
731.00,52.830
732.00,52.865
733.00,52.947
734.00,52.880
735.00,52.998
736.00,52.953
737.00,52.964
738.00,53.069
739.00,53.064
740.00,53.038
741.00,53.091
742.00,53.192
743.00,53.094
744.00,53.190
745.00,53.227
746.00,53.186
747.00,53.189
748.00,53.121
749.00,53.185
750.00,53.276
751.00,53.154
752.00,53.226
753.00,53.263
754.00,53.240
755.00,53.235
756.00,53.264
757.00,53.257
758.00,53.231
759.00,53.308
760.00,53.273
761.00,53.264
762.00,53.312
763.00,53.367
764.00,53.327
765.00,53.374
766.00,53.379
767.00,53.418
768.00,53.389
769.00,53.383
770.00,53.426
771.00,53.381
772.00,53.448
773.00,53.401
774.00,53.426
775.00,53.505
776.00,53.363
777.00,53.437
778.00,53.332
779.00,53.507
780.00,53.487
781.00,53.458
782.00,53.452
783.00,53.484
784.00,53.539
785.00,53.418
786.00,53.486
787.00,53.444
788.00,53.461
789.00,53.383
790.00,53.497
791.00,53.481
792.00,53.409
793.00,53.477
794.00,53.291
795.00,53.438
796.00,53.326
797.00,53.290
798.00,53.458
799.00,53.263
800.00,53.376
801.00,53.334
802.00,53.337
803.00,53.281
804.00,53.235
805.00,53.270
806.00,53.281
807.00,53.215
808.00,53.294
809.00,53.200
810.00,53.207
811.00,53.230
812.00,53.314
813.00,53.151
814.00,53.145
815.00,53.148
816.00,53.230
817.00,53.211
818.00,53.053
819.00,53.141
820.00,52.992
821.00,53.130
822.00,53.145
823.00,53.019
824.00,53.150
825.00,53.002
826.00,53.059
827.00,53.058
828.00,53.054
829.00,53.053
830.00,53.135
831.00,55.537
832.00,55.541
833.00,55.430
834.00,55.476
835.00,55.458
836.00,55.498
837.00,55.376
838.00,55.429
839.00,55.512
840.00,55.375
841.00,55.373
842.00,55.345
843.00,55.360
844.00,55.297
845.00,55.320
846.00,55.289
847.00,55.271
848.00,55.297
849.00,55.197
850.00,55.182
851.00,55.125
852.00,55.145
853.00,55.115
854.00,55.116
855.00,55.061
856.00,55.035
857.00,55.034
858.00,55.018
859.00,55.029
860.00,55.023
861.00,55.025
862.00,54.966
863.00,54.973
864.00,54.951
865.00,54.983
866.00,55.047
867.00,54.933
868.00,54.921
869.00,54.896
870.00,54.894
871.00,54.862
872.00,54.868
873.00,54.850
874.00,54.891
875.00,54.830
876.00,54.820
877.00,54.787
878.00,54.834
879.00,54.801
880.00,54.769
881.00,54.733
882.00,54.964
883.00,54.732
884.00,54.707
885.00,54.734
886.00,54.692
887.00,54.703
888.00,54.660
889.00,54.691
890.00,54.673
891.00,54.632
892.00,54.633
893.00,54.593
894.00,54.609
895.00,54.563
896.00,54.550
897.00,54.529
898.00,54.495
899.00,54.497
900.00,54.489
901.00,54.502
902.00,54.489
903.00,54.447
904.00,54.439
905.00,54.436
906.00,54.431
907.00,54.414
908.00,54.359
909.00,54.305
910.00,54.399
911.00,54.293
912.00,54.317
913.00,54.258
914.00,54.249
915.00,54.292
916.00,54.112
917.00,54.210
918.00,54.228
919.00,54.214
920.00,54.094
921.00,54.192
922.00,54.148
923.00,54.118
924.00,54.084
925.00,54.126
926.00,54.057
927.00,54.052
928.00,54.025
929.00,54.034
930.00,53.995
931.00,53.968
932.00,53.941
933.00,53.969
934.00,53.937
935.00,53.922
936.00,53.913
937.00,53.892
938.00,53.880
939.00,53.843
940.00,53.838
941.00,53.827
942.00,53.787
943.00,53.782
944.00,53.738
945.00,53.748
946.00,53.740
947.00,53.708
948.00,53.693
949.00,53.692
950.00,53.663
951.00,53.640
952.00,53.639
953.00,53.568
954.00,53.563
955.00,53.530
956.00,53.510
957.00,53.477
958.00,53.499
959.00,53.442
960.00,53.443
961.00,53.436
962.00,53.436
963.00,53.409
964.00,53.407
965.00,53.403
966.00,53.357
967.00,53.380
968.00,53.357
969.00,53.373
970.00,53.327
971.00,53.353
972.00,53.309
973.00,53.375
974.00,53.406
975.00,53.361
976.00,53.359
977.00,53.286
978.00,53.376
979.00,53.365
980.00,53.378
981.00,53.366
982.00,53.313
983.00,53.433
984.00,53.343
985.00,53.366
986.00,53.320
987.00,53.371
988.00,53.315
989.00,53.296
990.00,53.295
991.00,53.301
992.00,53.304
993.00,53.255
994.00,53.241
995.00,53.234
996.00,53.203
997.00,53.243
998.00,53.201
999.00,53.217
1000.00,53.145
1001.00,53.167
1002.00,53.156
1003.00,53.152
1004.00,53.114
1005.00,53.086
1006.00,53.138
1007.00,53.108
1008.00,53.072
1009.00,53.050
1010.00,53.066
1011.00,53.045
1012.00,53.023
1013.00,53.040
1014.00,53.005
1015.00,53.006
1016.00,52.980
1017.00,52.975
1018.00,52.982
1019.00,52.932
1020.00,52.954
1021.00,52.928
1022.00,52.927
1023.00,52.892
1024.00,52.892
1025.00,52.871
1026.00,52.851
1027.00,52.815
1028.00,52.844
1029.00,52.824
1030.00,52.774
1031.00,52.812
1032.00,52.763
1033.00,52.753
1034.00,52.743
1035.00,52.713
1036.00,52.686
1037.00,52.667
1038.00,52.668
1039.00,52.628
1040.00,52.633
1041.00,52.570
1042.00,52.593
1043.00,52.564
1044.00,52.577
1045.00,52.568
1046.00,52.560
1047.00,52.594
1048.00,52.599
1049.00,52.607
1050.00,52.612
1051.00,52.664
1052.00,52.621
1053.00,52.651
1054.00,52.651
1055.00,52.671
1056.00,52.687
1057.00,52.680
1058.00,52.671
1059.00,52.679
1060.00,52.686
1061.00,52.664
1062.00,52.660
1063.00,52.654
1064.00,52.674
1065.00,52.641
1066.00,52.635
1067.00,52.632
1068.00,52.662
1069.00,52.623
1070.00,52.607
1071.00,52.591
1072.00,52.635
1073.00,52.601
1074.00,52.573
1075.00,52.568
1076.00,52.582
1077.00,52.551
1078.00,52.554
1079.00,52.561
1080.00,52.556
1081.00,52.549
1082.00,52.544
1083.00,52.543
1084.00,52.552
1085.00,52.520
1086.00,52.535
1087.00,52.518
1088.00,52.498
1089.00,52.512
1090.00,52.495
1091.00,52.501
1092.00,52.501
1093.00,52.467
1094.00,52.464
1095.00,52.469
1096.00,52.426
1097.00,52.440
1098.00,52.417
1099.00,52.407
1100.00,52.402
1101.00,52.395
1102.00,52.380
1103.00,52.384
1104.00,52.366
1105.00,52.395
1106.00,52.348
1107.00,52.327
1108.00,52.328
1109.00,52.327
1110.00,52.311
1111.00,52.308
1112.00,52.301
1113.00,52.300
1114.00,52.284
1115.00,52.289
1116.00,52.283
1117.00,52.280
1118.00,52.255
1119.00,52.266
1120.00,52.263
1121.00,52.258
1122.00,52.246
1123.00,52.246
1124.00,52.244
1125.00,52.255
1126.00,52.239
1127.00,52.239
1128.00,52.235
1129.00,52.197
1130.00,52.197
1131.00,52.191
1132.00,52.173
1133.00,52.171
1134.00,52.161
1135.00,52.165
1136.00,52.169
1137.00,52.171
1138.00,52.164
1139.00,52.181
1140.00,52.160
1141.00,52.161
1142.00,52.141
1143.00,52.157
1144.00,52.143
1145.00,52.139
1146.00,52.140
1147.00,52.134
1148.00,52.114
1149.00,52.136
1150.00,52.133
1151.00,52.111
1152.00,52.129
1153.00,52.135
1154.00,52.111
1155.00,52.125
1156.00,52.113
1157.00,52.121
1158.00,52.113
1159.00,52.121
1160.00,52.111
1161.00,52.136
1162.00,52.103
1163.00,52.117
1164.00,52.114
1165.00,52.106
1166.00,52.118
1167.00,52.098
1168.00,52.122
1169.00,52.115
1170.00,52.099
1171.00,52.100
1172.00,52.120
1173.00,52.089
1174.00,52.100
1175.00,52.096
1176.00,52.077
1177.00,52.071
1178.00,52.093
1179.00,52.108
1180.00,52.080
1181.00,52.099
1182.00,52.101
1183.00,52.120
1184.00,52.085
1185.00,52.107
1186.00,52.099
1187.00,52.103
1188.00,52.103
1189.00,52.104
1190.00,52.093
1191.00,52.079
1192.00,52.100
1193.00,52.108
1194.00,52.104
1195.00,52.064
1196.00,52.123
1197.00,52.100
1198.00,52.093
1199.00,52.097
1200.00,52.105
1201.00,52.130
1202.00,52.110
1203.00,52.094
1204.00,52.090
1205.00,52.123
1206.00,52.089
1207.00,52.089
1208.00,52.079
1209.00,52.093
1210.00,52.079
1211.00,52.103
1212.00,52.153
1213.00,52.086
1214.00,52.104
1215.00,52.097
1216.00,52.116
1217.00,52.101
1218.00,52.089
1219.00,52.096
1220.00,52.087
1221.00,52.092
1222.00,52.103
1223.00,52.115
1224.00,52.113
1225.00,52.103
1226.00,52.093
1227.00,52.101
1228.00,52.105
1229.00,52.115
1230.00,52.132
1231.00,52.125
1232.00,52.149
1233.00,52.153
1234.00,52.155
1235.00,52.150
1236.00,52.134
1237.00,52.138
1238.00,52.127
1239.00,52.114
1240.00,52.126
1241.00,52.140
1242.00,52.121
1243.00,52.133
1244.00,52.111
1245.00,52.164
1246.00,52.166
1247.00,52.142
1248.00,52.163
1249.00,52.196
1250.00,52.168
1251.00,52.171
1252.00,52.179
1253.00,52.157
1254.00,52.193
1255.00,52.180
1256.00,52.197
1257.00,52.194
1258.00,52.197
1259.00,52.215
1260.00,52.259
1261.00,52.216
1262.00,52.237
1263.00,52.231
1264.00,52.234
1265.00,52.243
1266.00,52.246
1267.00,52.256
1268.00,52.244
1269.00,52.256
1270.00,52.276
1271.00,52.273
1272.00,52.266
1273.00,52.291
1274.00,52.279
1275.00,52.278
1276.00,52.286
1277.00,52.302
1278.00,52.313
1279.00,52.314
1280.00,52.303
1281.00,52.330
1282.00,52.358
1283.00,52.328
1284.00,52.347
1285.00,52.337
1286.00,52.343
1287.00,52.341
1288.00,52.339
1289.00,52.337
1290.00,52.378
1291.00,52.358
1292.00,52.371
1293.00,52.388
1294.00,52.385
1295.00,52.408
1296.00,52.402
1297.00,52.399
1298.00,52.441
1299.00,52.410
1300.00,52.437
1301.00,52.429
1302.00,52.447
1303.00,52.449
1304.00,52.440
1305.00,52.449
1306.00,52.465
1307.00,52.474
1308.00,52.473
1309.00,52.493
1310.00,52.488
1311.00,52.469
1312.00,52.480
1313.00,52.475
1314.00,52.497
1315.00,52.529
1316.00,52.503
1317.00,52.535
1318.00,52.538
1319.00,52.521
1320.00,52.518
1321.00,52.713
1322.00,52.684
1323.00,52.688
1324.00,52.693
1325.00,52.678
1326.00,52.689
1327.00,52.673
1328.00,52.670
1329.00,52.686
1330.00,52.660
1331.00,52.700
1332.00,52.690
1333.00,52.667
1334.00,52.696
1335.00,52.717
1336.00,52.753
1337.00,52.777
1338.00,52.839
1339.00,52.880
1340.00,52.946
1341.00,52.999
1342.00,53.063
1343.00,53.102
1344.00,53.157
1345.00,53.213
1346.00,53.249
1347.00,53.270
1348.00,53.290
1349.00,53.301
1350.00,53.315
1351.00,53.346
1352.00,53.344
1353.00,53.361
1354.00,53.370
1355.00,53.330
1356.00,53.409
1357.00,53.368
1358.00,53.372
1359.00,53.344
1360.00,53.315
1361.00,53.415
1362.00,53.198
1363.00,53.201
1364.00,53.588
1365.00,53.391
1366.00,53.470
1367.00,53.452
1368.00,53.309
1369.00,53.398
1370.00,53.402
1371.00,53.358
1372.00,53.375
1373.00,53.403
1374.00,53.384
1375.00,53.384
1376.00,53.373
1377.00,53.330
1378.00,53.382
1379.00,53.412
1380.00,53.394
1381.00,53.478
1382.00,53.415
1383.00,53.400
1384.00,53.346
1385.00,53.297
1386.00,53.405
1387.00,53.376
1388.00,53.331
1389.00,53.310
1390.00,53.412
1391.00,53.389
1392.00,53.356
1393.00,53.379
1394.00,53.428
1395.00,53.376
1396.00,53.299
1397.00,53.336
1398.00,53.424
1399.00,53.439
1400.00,53.376
1401.00,53.330
1402.00,53.477
1403.00,53.439
1404.00,53.383
1405.00,53.426
1406.00,53.435
1407.00,53.429
1408.00,53.497
1409.00,53.428
1410.00,53.466
1411.00,53.428
1412.00,53.511
1413.00,53.492
1414.00,53.443
1415.00,53.482
1416.00,53.476
1417.00,53.551
1418.00,53.499
1419.00,53.532
1420.00,53.528
1421.00,53.536
1422.00,53.603
1423.00,53.585
1424.00,53.596
1425.00,53.627
1426.00,53.597
1427.00,53.651
1428.00,53.634
1429.00,53.630
1430.00,53.660
1431.00,53.662
1432.00,53.670
1433.00,53.696
1434.00,53.665
1435.00,53.725
1436.00,53.722
1437.00,53.739
1438.00,53.735
1439.00,53.793
1440.00,53.787
1441.00,53.786
1442.00,53.798
1443.00,53.814
1444.00,53.881
1445.00,53.824
1446.00,53.854
1447.00,53.892
1448.00,53.916
1449.00,53.922
1450.00,53.932
1451.00,53.922
1452.00,53.955
1453.00,53.976
1454.00,53.974
1455.00,54.008
1456.00,54.023
1457.00,54.017
1458.00,54.030
1459.00,54.058
1460.00,54.083
1461.00,54.083
1462.00,54.111
1463.00,54.115
1464.00,54.120
1465.00,54.130
1466.00,54.151
1467.00,54.170
1468.00,54.231
1469.00,54.193
1470.00,54.209
1471.00,54.229
1472.00,54.235
1473.00,54.239
1474.00,54.272
1475.00,54.274
1476.00,54.290
1477.00,54.271
1478.00,54.301
1479.00,54.312
1480.00,54.300
1481.00,54.321
1482.00,54.355
1483.00,54.379
1484.00,54.384
1485.00,54.385
1486.00,54.409
1487.00,54.418
1488.00,54.445
1489.00,54.425
1490.00,54.468
1491.00,54.458
1492.00,54.477
1493.00,54.444
1494.00,54.483
1495.00,54.450
1496.00,54.512
1497.00,54.489
1498.00,54.507
1499.00,54.524
1500.00,54.530
1501.00, 
1502.00, 
1503.00, 
1504.00, 
1505.00, 
1506.00, 
1507.00, 
1508.00, 
1509.00, 
1510.00, 
1511.00, 
1512.00, 
1513.00, 
1514.00, 
1515.00, 
1516.00, 
1517.00, 
1518.00, 
1519.00, 
1520.00, 
1521.00, 
1522.00, 
1523.00, 
1524.00, 
1525.00, 
1526.00, 
1527.00, 
1528.00, 
1529.00, 
1530.00, 
1531.00, 
1532.00, 
1533.00, 
1534.00, 
1535.00, 
1536.00, 
1537.00, 
1538.00, 
1539.00, 
1540.00, 
1541.00, 
1542.00, 
1543.00, 
1544.00, 
1545.00, 
1546.00, 
1547.00, 
1548.00, 
1549.00, 
1550.00, 
1551.00, 
1552.00, 
1553.00, 
1554.00, 
1555.00, 
1556.00, 
1557.00, 
1558.00, 
1559.00, 
1560.00, 
1561.00, 
1562.00, 
1563.00, 
1564.00, 
1565.00, 
1566.00, 
1567.00, 
1568.00, 
1569.00, 
1570.00, 
1571.00, 
1572.00, 
1573.00, 
1574.00, 
1575.00, 
1576.00, 
1577.00, 
1578.00, 
1579.00, 
1580.00, 
1581.00, 
1582.00, 
1583.00, 
1584.00, 
1585.00, 
1586.00, 
1587.00, 
1588.00, 
1589.00, 
1590.00, 
1591.00, 
1592.00, 
1593.00, 
1594.00, 
1595.00, 
1596.00, 
1597.00, 
1598.00, 
1599.00, 
1600.00, 
1601.00, 
1602.00, 
1603.00, 
1604.00, 
1605.00, 
1606.00, 
1607.00, 
1608.00, 
1609.00, 
1610.00, 
1611.00, 
1612.00, 
1613.00, 
1614.00, 
1615.00, 
1616.00, 
1617.00, 
1618.00, 
1619.00, 
1620.00, 
1621.00, 
1622.00, 
1623.00, 
1624.00, 
1625.00, 
1626.00, 
1627.00, 
1628.00, 
1629.00, 
1630.00, 
1631.00, 
1632.00, 
1633.00, 
1634.00, 
1635.00, 
1636.00, 
1637.00, 
1638.00, 
1639.00, 
1640.00, 
1641.00, 
1642.00, 
1643.00, 
1644.00, 
1645.00, 
1646.00, 
1647.00, 
1648.00, 
1649.00, 
1650.00, 
1651.00, 
1652.00, 
1653.00, 
1654.00, 
1655.00, 
1656.00, 
1657.00, 
1658.00, 
1659.00, 
1660.00, 
1661.00, 
1662.00, 
1663.00, 
1664.00, 
1665.00, 
1666.00, 
1667.00, 
1668.00, 
1669.00, 
1670.00, 
1671.00, 
1672.00, 
1673.00, 
1674.00, 
1675.00, 
1676.00, 
1677.00, 
1678.00, 
1679.00, 
1680.00, 
1681.00, 
1682.00, 
1683.00, 
1684.00, 
1685.00, 
1686.00, 
1687.00, 
1688.00, 
1689.00, 
1690.00, 
1691.00, 
1692.00, 
1693.00, 
1694.00, 
1695.00, 
1696.00, 
1697.00, 
1698.00, 
1699.00, 
1700.00, 
1701.00, 
1702.00, 
1703.00, 
1704.00, 
1705.00, 
1706.00, 
1707.00, 
1708.00, 
1709.00, 
1710.00, 
1711.00, 
1712.00, 
1713.00, 
1714.00, 
1715.00, 
1716.00, 
1717.00, 
1718.00, 
1719.00, 
1720.00, 
1721.00, 
1722.00, 
1723.00, 
1724.00, 
1725.00, 
1726.00, 
1727.00, 
1728.00, 
1729.00, 
1730.00, 
1731.00, 
1732.00, 
1733.00, 
1734.00, 
1735.00, 
1736.00, 
1737.00, 
1738.00, 
1739.00, 
1740.00, 
1741.00, 
1742.00, 
1743.00, 
1744.00, 
1745.00, 
1746.00, 
1747.00, 
1748.00, 
1749.00, 
1750.00, 
1751.00, 
1752.00, 
1753.00, 
1754.00, 
1755.00, 
1756.00, 
1757.00, 
1758.00, 
1759.00, 
1760.00, 
1761.00, 
1762.00, 
1763.00, 
1764.00, 
1765.00, 
1766.00, 
1767.00, 
1768.00, 
1769.00, 
1770.00, 
1771.00, 
1772.00, 
1773.00, 
1774.00, 
1775.00, 
1776.00, 
1777.00, 
1778.00, 
1779.00, 
1780.00, 
1781.00, 
1782.00, 
1783.00, 
1784.00, 
1785.00, 
1786.00, 
1787.00, 
1788.00, 
1789.00, 
1790.00, 
1791.00, 
1792.00, 
1793.00, 
1794.00, 
1795.00, 
1796.00, 
1797.00, 
1798.00, 
1799.00, 
1800.00, 
1801.00, 
1802.00, 
1803.00, 
1804.00, 
1805.00, 
1806.00, 
1807.00, 
1808.00, 
1809.00, 
1810.00, 
1811.00, 
1812.00, 
1813.00, 
1814.00, 
1815.00, 
1816.00, 
1817.00, 
1818.00, 
1819.00, 
1820.00, 
1821.00, 
1822.00, 
1823.00, 
1824.00, 
1825.00, 
1826.00, 
1827.00, 
1828.00, 
1829.00, 
1830.00, 
1831.00, 
1832.00, 
1833.00, 
1834.00, 
1835.00, 
1836.00, 
1837.00, 
1838.00, 
1839.00, 
1840.00, 
1841.00, 
1842.00, 
1843.00, 
1844.00, 
1845.00, 
1846.00, 
1847.00, 
1848.00, 
1849.00, 
1850.00, 
1851.00, 
1852.00, 
1853.00, 
1854.00, 
1855.00, 
1856.00, 
1857.00, 
1858.00, 
1859.00, 
1860.00, 
1861.00, 
1862.00, 
1863.00, 
1864.00, 
1865.00, 
1866.00, 
1867.00, 
1868.00, 
1869.00, 
1870.00, 
1871.00, 
1872.00, 
1873.00, 
1874.00, 
1875.00, 
1876.00, 
1877.00, 
1878.00, 
1879.00, 
1880.00, 
1881.00, 
1882.00, 
1883.00, 
1884.00, 
1885.00, 
1886.00, 
1887.00, 
1888.00, 
1889.00, 
1890.00, 
1891.00, 
1892.00, 
1893.00, 
1894.00, 
1895.00, 
1896.00, 
1897.00, 
1898.00, 
1899.00, 
1900.00, 
1901.00, 
1902.00, 
1903.00, 
1904.00, 
1905.00, 
1906.00, 
1907.00, 
1908.00, 
1909.00, 
1910.00, 
1911.00, 
1912.00, 
1913.00, 
1914.00, 
1915.00, 
1916.00, 
1917.00, 
1918.00, 
1919.00, 
1920.00, 
1921.00, 
1922.00, 
1923.00, 
1924.00, 
1925.00, 
1926.00, 
1927.00, 
1928.00, 
1929.00, 
1930.00, 
1931.00, 
1932.00, 
1933.00, 
1934.00, 
1935.00, 
1936.00, 
1937.00, 
1938.00, 
1939.00, 
1940.00, 
1941.00, 
1942.00, 
1943.00, 
1944.00, 
1945.00, 
1946.00, 
1947.00, 
1948.00, 
1949.00, 
1950.00, 
1951.00, 
1952.00, 
1953.00, 
1954.00, 
1955.00, 
1956.00, 
1957.00, 
1958.00, 
1959.00, 
1960.00, 
1961.00, 
1962.00, 
1963.00, 
1964.00, 
1965.00, 
1966.00, 
1967.00, 
1968.00, 
1969.00, 
1970.00, 
1971.00, 
1972.00, 
1973.00, 
1974.00, 
1975.00, 
1976.00, 
1977.00, 
1978.00, 
1979.00, 
1980.00, 
1981.00, 
1982.00, 
1983.00, 
1984.00, 
1985.00, 
1986.00, 
1987.00, 
1988.00, 
1989.00, 
1990.00, 
1991.00, 
1992.00, 
1993.00, 
1994.00, 
1995.00, 
1996.00, 
1997.00, 
1998.00, 
1999.00, 
2000.00, 
2001.00, 
2002.00, 
2003.00, 
2004.00, 
2005.00, 
2006.00, 
2007.00, 
2008.00, 
2009.00, 
2010.00, 
2011.00, 
2012.00, 
2013.00, 
2014.00, 
2015.00, 
2016.00, 
2017.00, 
2018.00, 
2019.00, 
2020.00, 
2021.00, 
2022.00, 
2023.00, 
2024.00, 
2025.00, 
2026.00, 
2027.00, 
2028.00, 
2029.00, 
2030.00, 
2031.00, 
2032.00, 
2033.00, 
2034.00, 
2035.00, 
2036.00, 
2037.00, 
2038.00, 
2039.00, 
2040.00, 
2041.00, 
2042.00, 
2043.00, 
2044.00, 
2045.00, 
2046.00, 
2047.00, 
2048.00, 
2049.00, 
2050.00, 
2051.00, 
2052.00, 
2053.00, 
2054.00, 
2055.00, 
2056.00, 
2057.00, 
2058.00, 
2059.00, 
2060.00, 
2061.00, 
2062.00, 
2063.00, 
2064.00, 
2065.00, 
2066.00, 
2067.00, 
2068.00, 
2069.00, 
2070.00, 
2071.00, 
2072.00, 
2073.00, 
2074.00, 
2075.00, 
2076.00, 
2077.00, 
2078.00, 
2079.00, 
2080.00, 
2081.00, 
2082.00, 
2083.00, 
2084.00, 
2085.00, 
2086.00, 
2087.00, 
2088.00, 
2089.00, 
2090.00, 
2091.00, 
2092.00, 
2093.00, 
2094.00, 
2095.00, 
2096.00, 
2097.00, 
2098.00, 
2099.00, 
2100.00, 
2101.00, 
2102.00, 
2103.00, 
2104.00, 
2105.00, 
2106.00, 
2107.00, 
2108.00, 
2109.00, 
2110.00, 
2111.00, 
2112.00, 
2113.00, 
2114.00, 
2115.00, 
2116.00, 
2117.00, 
2118.00, 
2119.00, 
2120.00, 
2121.00, 
2122.00, 
2123.00, 
2124.00, 
2125.00, 
2126.00, 
2127.00, 
2128.00, 
2129.00, 
2130.00, 
2131.00, 
2132.00, 
2133.00, 
2134.00, 
2135.00, 
2136.00, 
2137.00, 
2138.00, 
2139.00, 
2140.00, 
2141.00, 
2142.00, 
2143.00, 
2144.00, 
2145.00, 
2146.00, 
2147.00, 
2148.00, 
2149.00, 
2150.00, 
2151.00, 
2152.00, 
2153.00, 
2154.00, 
2155.00, 
2156.00, 
2157.00, 
2158.00, 
2159.00, 
2160.00, 
2161.00, 
2162.00, 
2163.00, 
2164.00, 
2165.00, 
2166.00, 
2167.00, 
2168.00, 
2169.00, 
2170.00, 
2171.00, 
2172.00, 
2173.00, 
2174.00, 
2175.00, 
2176.00, 
2177.00, 
2178.00, 
2179.00, 
2180.00, 
2181.00, 
2182.00, 
2183.00, 
2184.00, 
2185.00, 
2186.00, 
2187.00, 
2188.00, 
2189.00, 
2190.00, 
2191.00, 
2192.00, 
2193.00, 
2194.00, 
2195.00, 
2196.00, 
2197.00, 
2198.00, 
2199.00, 
2200.00, 
2201.00, 
2202.00, 
2203.00, 
2204.00, 
2205.00, 
2206.00, 
2207.00, 
2208.00, 
2209.00, 
2210.00, 
2211.00, 
2212.00, 
2213.00, 
2214.00, 
2215.00, 
2216.00, 
2217.00, 
2218.00, 
2219.00, 
2220.00, 
2221.00, 
2222.00, 
2223.00, 
2224.00, 
2225.00, 
2226.00, 
2227.00, 
2228.00, 
2229.00, 
2230.00, 
2231.00, 
2232.00, 
2233.00, 
2234.00, 
2235.00, 
2236.00, 
2237.00, 
2238.00, 
2239.00, 
2240.00, 
2241.00, 
2242.00, 
2243.00, 
2244.00, 
2245.00, 
2246.00, 
2247.00, 
2248.00, 
2249.00, 
2250.00, 
2251.00, 
2252.00, 
2253.00, 
2254.00, 
2255.00, 
2256.00, 
2257.00, 
2258.00, 
2259.00, 
2260.00, 
2261.00, 
2262.00, 
2263.00, 
2264.00, 
2265.00, 
2266.00, 
2267.00, 
2268.00, 
2269.00, 
2270.00, 
2271.00, 
2272.00, 
2273.00, 
2274.00, 
2275.00, 
2276.00, 
2277.00, 
2278.00, 
2279.00, 
2280.00, 
2281.00, 
2282.00, 
2283.00, 
2284.00, 
2285.00, 
2286.00, 
2287.00, 
2288.00, 
2289.00, 
2290.00, 
2291.00, 
2292.00, 
2293.00, 
2294.00, 
2295.00, 
2296.00, 
2297.00, 
2298.00, 
2299.00, 
2300.00, 
2301.00, 
2302.00, 
2303.00, 
2304.00, 
2305.00, 
2306.00, 
2307.00, 
2308.00, 
2309.00, 
2310.00, 
2311.00, 
2312.00, 
2313.00, 
2314.00, 
2315.00, 
2316.00, 
2317.00, 
2318.00, 
2319.00, 
2320.00, 
2321.00, 
2322.00, 
2323.00, 
2324.00, 
2325.00, 
2326.00, 
2327.00, 
2328.00, 
2329.00, 
2330.00, 
2331.00, 
2332.00, 
2333.00, 
2334.00, 
2335.00, 
2336.00, 
2337.00, 
2338.00, 
2339.00, 
2340.00, 
2341.00, 
2342.00, 
2343.00, 
2344.00, 
2345.00, 
2346.00, 
2347.00, 
2348.00, 
2349.00, 
2350.00, 
2351.00, 
2352.00, 
2353.00, 
2354.00, 
2355.00, 
2356.00, 
2357.00, 
2358.00, 
2359.00, 
2360.00, 
2361.00, 
2362.00, 
2363.00, 
2364.00, 
2365.00, 
2366.00, 
2367.00, 
2368.00, 
2369.00, 
2370.00, 
2371.00, 
2372.00, 
2373.00, 
2374.00, 
2375.00, 
2376.00, 
2377.00, 
2378.00, 
2379.00, 
2380.00, 
2381.00, 
2382.00, 
2383.00, 
2384.00, 
2385.00, 
2386.00, 
2387.00, 
2388.00, 
2389.00, 
2390.00, 
2391.00, 
2392.00, 
2393.00, 
2394.00, 
2395.00, 
2396.00, 
2397.00, 
2398.00, 
2399.00, 
2400.00, 
2401.00, 
2402.00, 
2403.00, 
2404.00, 
2405.00, 
2406.00, 
2407.00, 
2408.00, 
2409.00, 
2410.00, 
2411.00, 
2412.00, 
2413.00, 
2414.00, 
2415.00, 
2416.00, 
2417.00, 
2418.00, 
2419.00, 
2420.00, 
2421.00, 
2422.00, 
2423.00, 
2424.00, 
2425.00, 
2426.00, 
2427.00, 
2428.00, 
2429.00, 
2430.00, 
2431.00, 
2432.00, 
2433.00, 
2434.00, 
2435.00, 
2436.00, 
2437.00, 
2438.00, 
2439.00, 
2440.00, 
2441.00, 
2442.00, 
2443.00, 
2444.00, 
2445.00, 
2446.00, 
2447.00, 
2448.00, 
2449.00, 
2450.00, 
2451.00, 
2452.00, 
2453.00, 
2454.00, 
2455.00, 
2456.00, 
2457.00, 
2458.00, 
2459.00, 
2460.00, 
2461.00, 
2462.00, 
2463.00, 
2464.00, 
2465.00, 
2466.00, 
2467.00, 
2468.00, 
2469.00, 
2470.00, 
2471.00, 
2472.00, 
2473.00, 
2474.00, 
2475.00, 
2476.00, 
2477.00, 
2478.00, 
2479.00, 
2480.00, 
2481.00, 
2482.00, 
2483.00, 
2484.00, 
2485.00, 
2486.00, 
2487.00, 
2488.00, 
2489.00, 
2490.00, 
2491.00, 
2492.00, 
2493.00, 
2494.00, 
2495.00, 
2496.00, 
2497.00, 
2498.00, 
2499.00, 
2500.00, 
2501.00, 
2502.00, 
2503.00, 
2504.00, 
2505.00, 
2506.00, 
2507.00, 
2508.00, 
2509.00, 
2510.00, 
2511.00, 
2512.00, 
2513.00, 
2514.00, 
2515.00, 
2516.00, 
2517.00, 
2518.00, 
2519.00, 
2520.00, 
2521.00, 
2522.00, 
2523.00, 
2524.00, 
2525.00, 
2526.00, 
2527.00, 
2528.00, 
2529.00, 
2530.00, 
2531.00, 
2532.00, 
2533.00, 
2534.00, 
2535.00, 
2536.00, 
2537.00, 
2538.00, 
2539.00, 
2540.00, 
2541.00, 
2542.00, 
2543.00, 
2544.00, 
2545.00, 
2546.00, 
2547.00, 
2548.00, 
2549.00, 
2550.00, 
2551.00, 
2552.00, 
2553.00, 
2554.00, 
2555.00, 
2556.00, 
2557.00, 
2558.00, 
2559.00, 
2560.00, 
2561.00, 
2562.00, 
2563.00, 
2564.00, 
2565.00, 
2566.00, 
2567.00, 
2568.00, 
2569.00, 
2570.00, 
2571.00, 
2572.00, 
2573.00, 
2574.00, 
2575.00, 
2576.00, 
2577.00, 
2578.00, 
2579.00, 
2580.00, 
2581.00, 
2582.00, 
2583.00, 
2584.00, 
2585.00, 
2586.00, 
2587.00, 
2588.00, 
2589.00, 
2590.00, 
2591.00, 
2592.00, 
2593.00, 
2594.00, 
2595.00, 
2596.00, 
2597.00, 
2598.00, 
2599.00, 
2600.00, 
