"1bP2 - RawData"
"Wavelength nm.","T%"
200.00,0.002
201.00,0.001
202.00,0.003
203.00,0.000
204.00,-0.000
205.00,0.003
206.00,-0.000
207.00,0.002
208.00,0.003
209.00,0.002
210.00,-0.002
211.00,0.002
212.00,0.002
213.00,0.000
214.00,0.001
215.00,0.000
216.00,-0.002
217.00,0.001
218.00,0.000
219.00,0.003
220.00,0.002
221.00,0.001
222.00,-0.000
223.00,-0.003
224.00,-0.002
225.00,0.000
226.00,0.000
227.00,0.002
228.00,0.001
229.00,0.000
230.00,-0.001
231.00,0.002
232.00,0.003
233.00,-0.001
234.00,0.001
235.00,-0.000
236.00,0.000
237.00,0.001
238.00,0.000
239.00,0.000
240.00,0.003
241.00,0.000
242.00,-0.000
243.00,0.001
244.00,0.000
245.00,0.001
246.00,0.001
247.00,0.001
248.00,0.001
249.00,0.001
250.00,0.001
251.00,0.002
252.00,0.001
253.00,-0.001
254.00,0.001
255.00,-0.002
256.00,0.000
257.00,0.001
258.00,0.001
259.00,-0.000
260.00,-0.000
261.00,-0.002
262.00,0.001
263.00,0.002
264.00,0.002
265.00,-0.001
266.00,-0.001
267.00,0.000
268.00,0.001
269.00,0.002
270.00,0.001
271.00,-0.001
272.00,-0.000
273.00,-0.001
274.00,0.000
275.00,-0.001
276.00,0.000
277.00,-0.000
278.00,0.000
279.00,0.001
280.00,0.001
281.00,0.001
282.00,-0.000
283.00,0.000
284.00,0.001
285.00,-0.000
286.00,0.000
287.00,-0.001
288.00,0.001
289.00,0.001
290.00,0.000
291.00,-0.002
292.00,0.000
293.00,-0.000
294.00,0.000
295.00,0.000
296.00,-0.001
297.00,0.000
298.00,0.002
299.00,0.003
300.00,0.004
301.00,0.006
302.00,0.009
303.00,0.012
304.00,0.019
305.00,0.032
306.00,0.048
307.00,0.069
308.00,0.107
309.00,0.165
310.00,0.227
311.00,0.305
312.00,0.427
313.00,0.573
314.00,0.736
315.00,0.951
316.00,1.184
317.00,1.502
318.00,1.839
319.00,2.155
320.00,2.675
321.00,3.199
322.00,3.738
323.00,4.367
324.00,5.003
325.00,5.637
326.00,6.326
327.00,7.064
328.00,7.815
329.00,8.593
330.00,9.399
331.00,10.190
332.00,11.004
333.00,11.867
334.00,12.657
335.00,13.439
336.00,14.274
337.00,15.049
338.00,15.829
339.00,16.591
340.00,17.272
341.00,17.999
342.00,18.584
343.00,19.214
344.00,19.875
345.00,20.461
346.00,20.961
347.00,21.409
348.00,21.915
349.00,22.328
350.00,22.744
351.00,23.158
352.00,23.443
353.00,23.798
354.00,24.111
355.00,24.392
356.00,24.627
357.00,24.866
358.00,25.140
359.00,25.421
360.00,25.587
361.00,25.687
362.00,25.889
363.00,26.040
364.00,26.068
365.00,26.181
366.00,26.302
367.00,26.333
368.00,26.426
369.00,26.424
370.00,26.528
371.00,26.477
372.00,26.453
373.00,26.555
374.00,26.532
375.00,26.409
376.00,26.380
377.00,26.306
378.00,26.194
379.00,26.175
380.00,26.196
381.00,26.080
382.00,26.081
383.00,26.095
384.00,26.111
385.00,26.198
386.00,26.172
387.00,26.335
388.00,26.257
389.00,26.252
390.00,26.318
391.00,26.305
392.00,26.350
393.00,26.356
394.00,26.353
395.00,26.438
396.00,26.347
397.00,26.395
398.00,26.333
399.00,26.318
400.00,26.378
401.00,26.336
402.00,26.339
403.00,26.315
404.00,26.316
405.00,26.263
406.00,26.277
407.00,26.170
408.00,26.224
409.00,26.138
410.00,26.114
411.00,26.143
412.00,26.073
413.00,26.076
414.00,25.968
415.00,26.069
416.00,26.164
417.00,26.156
418.00,26.106
419.00,26.204
420.00,26.230
421.00,26.190
422.00,26.193
423.00,26.281
424.00,26.248
425.00,26.327
426.00,26.294
427.00,26.409
428.00,26.457
429.00,26.486
430.00,26.531
431.00,26.567
432.00,26.575
433.00,26.666
434.00,26.711
435.00,26.774
436.00,26.822
437.00,26.899
438.00,26.954
439.00,27.034
440.00,27.096
441.00,27.192
442.00,27.272
443.00,27.326
444.00,27.507
445.00,27.475
446.00,27.566
447.00,27.647
448.00,27.772
449.00,27.846
450.00,27.962
451.00,28.032
452.00,28.144
453.00,28.240
454.00,28.314
455.00,28.442
456.00,28.563
457.00,28.654
458.00,28.756
459.00,28.927
460.00,29.015
461.00,29.156
462.00,29.237
463.00,29.398
464.00,29.540
465.00,29.577
466.00,29.738
467.00,29.878
468.00,29.949
469.00,30.069
470.00,30.156
471.00,30.220
472.00,30.350
473.00,30.397
474.00,30.515
475.00,30.649
476.00,30.688
477.00,30.886
478.00,30.950
479.00,31.149
480.00,31.271
481.00,31.349
482.00,31.498
483.00,31.667
484.00,31.811
485.00,32.013
486.00,32.118
487.00,32.255
488.00,32.357
489.00,32.505
490.00,32.687
491.00,32.814
492.00,32.928
493.00,33.148
494.00,33.316
495.00,33.303
496.00,33.394
497.00,33.501
498.00,33.628
499.00,33.778
500.00,33.920
501.00,34.008
502.00,34.148
503.00,34.234
504.00,34.284
505.00,34.396
506.00,34.521
507.00,34.598
508.00,34.735
509.00,34.909
510.00,35.036
511.00,35.060
512.00,35.218
513.00,35.339
514.00,35.445
515.00,35.575
516.00,35.679
517.00,35.715
518.00,35.889
519.00,35.946
520.00,35.999
521.00,36.127
522.00,36.199
523.00,36.249
524.00,36.395
525.00,36.514
526.00,36.517
527.00,36.550
528.00,36.666
529.00,36.841
530.00,36.965
531.00,37.037
532.00,37.108
533.00,37.285
534.00,37.218
535.00,37.322
536.00,37.408
537.00,37.543
538.00,37.543
539.00,37.531
540.00,37.656
541.00,37.652
542.00,37.692
543.00,37.705
544.00,37.829
545.00,37.907
546.00,37.954
547.00,38.120
548.00,38.150
549.00,38.217
550.00,38.233
551.00,38.318
552.00,38.391
553.00,38.422
554.00,38.424
555.00,38.486
556.00,38.598
557.00,38.616
558.00,38.657
559.00,38.754
560.00,38.786
561.00,38.893
562.00,38.930
563.00,38.943
564.00,39.007
565.00,39.023
566.00,39.014
567.00,39.078
568.00,39.097
569.00,39.177
570.00,39.178
571.00,39.233
572.00,39.275
573.00,39.214
574.00,39.275
575.00,39.268
576.00,39.285
577.00,39.291
578.00,39.419
579.00,39.463
580.00,39.499
581.00,39.651
582.00,39.697
583.00,39.707
584.00,39.787
585.00,39.918
586.00,39.918
587.00,39.895
588.00,39.826
589.00,39.893
590.00,40.113
591.00,40.123
592.00,40.139
593.00,40.165
594.00,40.163
595.00,40.236
596.00,40.271
597.00,40.304
598.00,40.404
599.00,40.432
600.00,40.461
601.00,40.478
602.00,40.449
603.00,40.461
604.00,40.547
605.00,40.646
606.00,40.574
607.00,40.640
608.00,40.842
609.00,40.888
610.00,40.694
611.00,40.780
612.00,40.788
613.00,40.910
614.00,40.978
615.00,40.979
616.00,41.094
617.00,41.030
618.00,41.029
619.00,41.099
620.00,41.134
621.00,41.212
622.00,41.217
623.00,41.294
624.00,41.388
625.00,41.471
626.00,41.494
627.00,41.512
628.00,41.528
629.00,41.598
630.00,41.638
631.00,41.638
632.00,41.739
633.00,41.873
634.00,41.962
635.00,42.003
636.00,42.038
637.00,42.048
638.00,42.116
639.00,42.198
640.00,42.274
641.00,42.262
642.00,42.378
643.00,42.394
644.00,42.458
645.00,42.551
646.00,42.748
647.00,42.753
648.00,42.761
649.00,42.780
650.00,42.775
651.00,43.009
652.00,43.048
653.00,43.040
654.00,43.084
655.00,43.259
656.00,43.579
657.00,43.453
658.00,43.519
659.00,43.629
660.00,43.543
661.00,43.570
662.00,43.693
663.00,43.764
664.00,43.975
665.00,44.151
666.00,44.046
667.00,44.186
668.00,44.190
669.00,44.332
670.00,44.556
671.00,44.350
672.00,44.594
673.00,44.663
674.00,44.679
675.00,44.777
676.00,44.967
677.00,45.063
678.00,44.754
679.00,45.086
680.00,45.267
681.00,45.397
682.00,45.258
683.00,45.203
684.00,45.504
685.00,45.556
686.00,45.392
687.00,45.554
688.00,45.644
689.00,45.577
690.00,45.798
691.00,46.168
692.00,45.831
693.00,45.859
694.00,46.116
695.00,46.144
696.00,46.198
697.00,46.134
698.00,46.221
699.00,46.363
700.00,46.456
701.00,46.492
702.00,46.636
703.00,46.849
704.00,46.784
705.00,46.712
706.00,46.736
707.00,46.918
708.00,46.759
709.00,47.101
710.00,47.474
711.00,46.997
712.00,46.993
713.00,47.068
714.00,47.296
715.00,47.357
716.00,47.271
717.00,47.407
718.00,47.647
719.00,47.601
720.00,47.627
721.00,52.196
722.00,52.282
723.00,52.175
724.00,52.240
725.00,52.162
726.00,52.222
727.00,52.230
728.00,52.261
729.00,52.257
730.00,52.272
731.00,52.241
732.00,52.268
733.00,52.370
734.00,52.319
735.00,52.388
736.00,52.424
737.00,52.477
738.00,52.463
739.00,52.478
740.00,52.470
741.00,52.490
742.00,52.529
743.00,52.466
744.00,52.514
745.00,52.549
746.00,52.473
747.00,52.526
748.00,52.441
749.00,52.490
750.00,52.572
751.00,52.426
752.00,52.407
753.00,52.508
754.00,52.486
755.00,52.518
756.00,52.456
757.00,52.526
758.00,52.544
759.00,52.534
760.00,52.570
761.00,52.469
762.00,52.511
763.00,52.527
764.00,52.487
765.00,52.510
766.00,52.522
767.00,52.577
768.00,52.489
769.00,52.522
770.00,52.524
771.00,52.557
772.00,52.571
773.00,52.515
774.00,52.595
775.00,52.594
776.00,52.481
777.00,52.648
778.00,52.475
779.00,52.669
780.00,52.509
781.00,52.557
782.00,52.607
783.00,52.578
784.00,52.644
785.00,52.527
786.00,52.556
787.00,52.541
788.00,52.509
789.00,52.447
790.00,52.491
791.00,52.553
792.00,52.427
793.00,52.543
794.00,52.466
795.00,52.471
796.00,52.360
797.00,52.387
798.00,52.469
799.00,52.379
800.00,52.386
801.00,52.385
802.00,52.332
803.00,52.285
804.00,52.250
805.00,52.370
806.00,52.245
807.00,52.289
808.00,52.284
809.00,52.201
810.00,52.157
811.00,52.156
812.00,52.341
813.00,52.152
814.00,52.212
815.00,52.146
816.00,52.126
817.00,52.211
818.00,52.066
819.00,52.160
820.00,52.008
821.00,52.138
822.00,52.034
823.00,52.050
824.00,52.085
825.00,51.981
826.00,51.980
827.00,52.049
828.00,51.997
829.00,52.073
830.00,52.101
831.00,54.629
832.00,54.597
833.00,54.515
834.00,54.534
835.00,54.503
836.00,54.515
837.00,54.450
838.00,54.465
839.00,54.426
840.00,54.403
841.00,54.440
842.00,54.354
843.00,54.386
844.00,54.350
845.00,54.333
846.00,54.315
847.00,54.234
848.00,54.452
849.00,54.227
850.00,54.179
851.00,54.137
852.00,54.176
853.00,54.148
854.00,54.102
855.00,54.053
856.00,54.033
857.00,54.033
858.00,54.014
859.00,54.013
860.00,53.987
861.00,53.994
862.00,53.928
863.00,53.928
864.00,53.920
865.00,53.954
866.00,53.913
867.00,53.924
868.00,53.914
869.00,53.891
870.00,53.903
871.00,53.860
872.00,53.881
873.00,53.842
874.00,53.834
875.00,53.818
876.00,53.818
877.00,53.793
878.00,53.808
879.00,53.800
880.00,53.772
881.00,53.760
882.00,53.810
883.00,53.738
884.00,53.707
885.00,53.693
886.00,53.682
887.00,53.656
888.00,53.653
889.00,53.638
890.00,53.640
891.00,53.582
892.00,53.589
893.00,53.520
894.00,53.557
895.00,53.514
896.00,53.512
897.00,53.497
898.00,53.468
899.00,53.444
900.00,53.429
901.00,53.467
902.00,53.445
903.00,53.418
904.00,53.424
905.00,53.393
906.00,53.381
907.00,53.508
908.00,53.325
909.00,53.325
910.00,53.295
911.00,53.284
912.00,53.289
913.00,53.242
914.00,53.182
915.00,53.249
916.00,53.108
917.00,53.179
918.00,53.160
919.00,53.147
920.00,53.102
921.00,53.123
922.00,53.092
923.00,53.077
924.00,53.054
925.00,53.038
926.00,53.012
927.00,53.046
928.00,52.969
929.00,52.996
930.00,52.943
931.00,52.925
932.00,52.897
933.00,52.916
934.00,52.900
935.00,52.868
936.00,52.837
937.00,52.827
938.00,52.829
939.00,52.801
940.00,52.791
941.00,52.775
942.00,52.751
943.00,52.720
944.00,52.688
945.00,52.710
946.00,52.705
947.00,52.655
948.00,52.640
949.00,52.636
950.00,52.600
951.00,52.594
952.00,52.587
953.00,52.550
954.00,52.527
955.00,52.489
956.00,52.491
957.00,52.449
958.00,52.445
959.00,52.406
960.00,52.413
961.00,52.389
962.00,52.384
963.00,52.369
964.00,52.378
965.00,52.366
966.00,52.331
967.00,52.325
968.00,52.305
969.00,52.313
970.00,52.292
971.00,52.323
972.00,52.266
973.00,52.317
974.00,52.342
975.00,52.298
976.00,52.296
977.00,52.230
978.00,52.354
979.00,52.406
980.00,52.327
981.00,52.338
982.00,52.317
983.00,52.294
984.00,52.300
985.00,52.336
986.00,52.291
987.00,52.316
988.00,52.277
989.00,52.272
990.00,52.263
991.00,52.237
992.00,52.260
993.00,52.218
994.00,52.190
995.00,52.184
996.00,52.186
997.00,52.161
998.00,52.151
999.00,52.164
1000.00,52.112
1001.00,52.136
1002.00,52.099
1003.00,52.110
1004.00,52.096
1005.00,52.051
1006.00,52.101
1007.00,52.071
1008.00,52.047
1009.00,52.017
1010.00,52.007
1011.00,52.006
1012.00,51.981
1013.00,51.968
1014.00,51.937
1015.00,51.961
1016.00,51.932
1017.00,51.928
1018.00,51.917
1019.00,51.897
1020.00,51.891
1021.00,51.871
1022.00,51.935
1023.00,51.833
1024.00,51.827
1025.00,51.798
1026.00,51.787
1027.00,51.741
1028.00,51.759
1029.00,51.750
1030.00,51.725
1031.00,51.756
1032.00,51.707
1033.00,51.702
1034.00,51.684
1035.00,51.644
1036.00,51.622
1037.00,51.610
1038.00,51.599
1039.00,51.558
1040.00,51.570
1041.00,51.511
1042.00,51.529
1043.00,51.492
1044.00,51.520
1045.00,51.512
1046.00,51.498
1047.00,51.536
1048.00,51.537
1049.00,51.530
1050.00,51.544
1051.00,51.599
1052.00,51.563
1053.00,51.584
1054.00,51.582
1055.00,51.614
1056.00,51.629
1057.00,51.615
1058.00,51.623
1059.00,51.630
1060.00,51.622
1061.00,51.599
1062.00,51.589
1063.00,51.593
1064.00,51.592
1065.00,51.577
1066.00,51.579
1067.00,51.589
1068.00,51.595
1069.00,51.562
1070.00,51.579
1071.00,51.566
1072.00,51.563
1073.00,51.529
1074.00,51.509
1075.00,51.500
1076.00,51.521
1077.00,51.495
1078.00,51.487
1079.00,51.486
1080.00,51.498
1081.00,51.496
1082.00,51.472
1083.00,51.481
1084.00,51.484
1085.00,51.456
1086.00,51.445
1087.00,51.447
1088.00,51.438
1089.00,51.440
1090.00,51.438
1091.00,51.447
1092.00,51.436
1093.00,51.409
1094.00,51.397
1095.00,51.390
1096.00,51.366
1097.00,51.372
1098.00,51.359
1099.00,51.366
1100.00,51.367
1101.00,51.344
1102.00,51.328
1103.00,51.321
1104.00,51.284
1105.00,51.300
1106.00,51.294
1107.00,51.288
1108.00,51.280
1109.00,51.280
1110.00,51.267
1111.00,51.264
1112.00,51.235
1113.00,51.243
1114.00,51.224
1115.00,51.218
1116.00,51.221
1117.00,51.213
1118.00,51.194
1119.00,51.193
1120.00,51.186
1121.00,51.196
1122.00,51.187
1123.00,51.173
1124.00,51.176
1125.00,51.180
1126.00,51.155
1127.00,51.161
1128.00,51.151
1129.00,51.125
1130.00,51.128
1131.00,51.122
1132.00,51.099
1133.00,51.112
1134.00,51.102
1135.00,51.098
1136.00,51.117
1137.00,51.098
1138.00,51.102
1139.00,51.124
1140.00,51.091
1141.00,51.103
1142.00,51.071
1143.00,51.089
1144.00,51.073
1145.00,51.060
1146.00,51.055
1147.00,51.048
1148.00,51.028
1149.00,51.065
1150.00,51.061
1151.00,51.041
1152.00,51.047
1153.00,51.039
1154.00,51.028
1155.00,51.054
1156.00,51.024
1157.00,51.038
1158.00,51.039
1159.00,51.036
1160.00,51.032
1161.00,51.055
1162.00,51.050
1163.00,51.033
1164.00,51.034
1165.00,51.028
1166.00,51.037
1167.00,51.017
1168.00,51.055
1169.00,51.058
1170.00,51.028
1171.00,51.021
1172.00,51.042
1173.00,51.021
1174.00,51.028
1175.00,51.016
1176.00,51.019
1177.00,51.027
1178.00,51.013
1179.00,51.058
1180.00,51.050
1181.00,51.040
1182.00,51.037
1183.00,51.056
1184.00,51.022
1185.00,51.037
1186.00,51.022
1187.00,51.044
1188.00,51.044
1189.00,51.020
1190.00,51.030
1191.00,51.025
1192.00,51.036
1193.00,51.028
1194.00,51.032
1195.00,51.003
1196.00,51.040
1197.00,51.038
1198.00,51.041
1199.00,51.026
1200.00,51.026
1201.00,51.051
1202.00,51.031
1203.00,51.010
1204.00,51.009
1205.00,51.037
1206.00,51.015
1207.00,51.016
1208.00,51.015
1209.00,51.026
1210.00,51.031
1211.00,51.006
1212.00,51.032
1213.00,50.999
1214.00,51.007
1215.00,51.012
1216.00,51.034
1217.00,51.016
1218.00,51.001
1219.00,51.007
1220.00,51.029
1221.00,51.031
1222.00,51.019
1223.00,51.055
1224.00,51.037
1225.00,51.001
1226.00,51.015
1227.00,51.023
1228.00,51.020
1229.00,51.021
1230.00,51.048
1231.00,51.053
1232.00,51.073
1233.00,51.057
1234.00,51.063
1235.00,51.073
1236.00,51.060
1237.00,51.061
1238.00,51.068
1239.00,51.073
1240.00,51.044
1241.00,51.058
1242.00,51.055
1243.00,51.061
1244.00,51.037
1245.00,51.096
1246.00,51.105
1247.00,51.074
1248.00,51.089
1249.00,51.118
1250.00,51.095
1251.00,51.094
1252.00,51.095
1253.00,51.085
1254.00,51.130
1255.00,51.090
1256.00,51.076
1257.00,51.064
1258.00,51.106
1259.00,51.112
1260.00,51.148
1261.00,51.136
1262.00,51.127
1263.00,51.126
1264.00,51.146
1265.00,51.155
1266.00,51.166
1267.00,51.176
1268.00,51.183
1269.00,51.190
1270.00,51.201
1271.00,51.206
1272.00,51.196
1273.00,51.219
1274.00,51.204
1275.00,51.207
1276.00,51.214
1277.00,51.221
1278.00,51.238
1279.00,51.259
1280.00,51.226
1281.00,51.259
1282.00,51.281
1283.00,51.286
1284.00,51.256
1285.00,51.245
1286.00,51.272
1287.00,51.290
1288.00,51.259
1289.00,51.255
1290.00,51.302
1291.00,51.265
1292.00,51.284
1293.00,51.289
1294.00,51.284
1295.00,51.302
1296.00,51.290
1297.00,51.320
1298.00,51.380
1299.00,51.314
1300.00,51.343
1301.00,51.339
1302.00,51.341
1303.00,51.345
1304.00,51.340
1305.00,51.347
1306.00,51.359
1307.00,51.362
1308.00,51.363
1309.00,51.389
1310.00,51.361
1311.00,51.366
1312.00,51.386
1313.00,51.371
1314.00,51.402
1315.00,51.418
1316.00,51.397
1317.00,51.434
1318.00,51.432
1319.00,51.433
1320.00,51.448
1321.00,51.626
1322.00,51.604
1323.00,51.608
1324.00,51.575
1325.00,51.596
1326.00,51.586
1327.00,51.589
1328.00,51.620
1329.00,51.571
1330.00,51.587
1331.00,51.585
1332.00,51.568
1333.00,51.588
1334.00,51.617
1335.00,51.612
1336.00,51.653
1337.00,51.677
1338.00,51.736
1339.00,51.764
1340.00,51.826
1341.00,51.909
1342.00,51.976
1343.00,52.045
1344.00,52.084
1345.00,52.143
1346.00,52.150
1347.00,52.195
1348.00,52.228
1349.00,52.207
1350.00,52.225
1351.00,52.250
1352.00,52.252
1353.00,52.277
1354.00,52.265
1355.00,52.250
1356.00,52.304
1357.00,52.264
1358.00,52.313
1359.00,52.300
1360.00,52.290
1361.00,52.341
1362.00,52.225
1363.00,52.359
1364.00,52.420
1365.00,52.277
1366.00,52.330
1367.00,52.339
1368.00,52.221
1369.00,52.294
1370.00,52.281
1371.00,52.232
1372.00,52.264
1373.00,52.287
1374.00,52.294
1375.00,52.279
1376.00,52.268
1377.00,52.234
1378.00,52.347
1379.00,52.295
1380.00,52.278
1381.00,52.357
1382.00,52.280
1383.00,52.287
1384.00,52.234
1385.00,52.188
1386.00,52.297
1387.00,52.256
1388.00,52.207
1389.00,52.211
1390.00,52.247
1391.00,52.258
1392.00,52.222
1393.00,52.259
1394.00,52.297
1395.00,52.262
1396.00,52.205
1397.00,52.220
1398.00,52.257
1399.00,52.312
1400.00,52.283
1401.00,52.218
1402.00,52.335
1403.00,52.316
1404.00,52.226
1405.00,52.303
1406.00,52.311
1407.00,52.286
1408.00,52.317
1409.00,52.257
1410.00,52.326
1411.00,52.292
1412.00,52.333
1413.00,52.326
1414.00,52.317
1415.00,52.311
1416.00,52.322
1417.00,52.388
1418.00,52.357
1419.00,52.365
1420.00,52.370
1421.00,52.402
1422.00,52.417
1423.00,52.423
1424.00,52.427
1425.00,52.437
1426.00,52.428
1427.00,52.494
1428.00,52.482
1429.00,52.487
1430.00,52.498
1431.00,52.507
1432.00,52.533
1433.00,52.533
1434.00,52.495
1435.00,52.589
1436.00,52.576
1437.00,52.561
1438.00,52.587
1439.00,52.624
1440.00,52.633
1441.00,52.637
1442.00,52.642
1443.00,52.666
1444.00,52.743
1445.00,52.669
1446.00,52.708
1447.00,52.743
1448.00,52.763
1449.00,52.772
1450.00,52.782
1451.00,52.776
1452.00,52.801
1453.00,52.830
1454.00,52.833
1455.00,52.859
1456.00,52.859
1457.00,52.864
1458.00,52.889
1459.00,52.897
1460.00,52.932
1461.00,52.915
1462.00,52.937
1463.00,52.958
1464.00,52.969
1465.00,52.984
1466.00,52.998
1467.00,52.996
1468.00,53.054
1469.00,53.006
1470.00,53.043
1471.00,53.077
1472.00,53.081
1473.00,53.084
1474.00,53.112
1475.00,53.107
1476.00,53.129
1477.00,53.125
1478.00,53.128
1479.00,53.139
1480.00,53.139
1481.00,53.152
1482.00,53.187
1483.00,53.204
1484.00,53.203
1485.00,53.213
1486.00,53.229
1487.00,53.256
1488.00,53.277
1489.00,53.242
1490.00,53.281
1491.00,53.282
1492.00,53.290
1493.00,53.266
1494.00,53.307
1495.00,53.258
1496.00,53.306
1497.00,53.287
1498.00,53.327
1499.00,53.360
1500.00,53.352
1501.00, 
1502.00, 
1503.00, 
1504.00, 
1505.00, 
1506.00, 
1507.00, 
1508.00, 
1509.00, 
1510.00, 
1511.00, 
1512.00, 
1513.00, 
1514.00, 
1515.00, 
1516.00, 
1517.00, 
1518.00, 
1519.00, 
1520.00, 
1521.00, 
1522.00, 
1523.00, 
1524.00, 
1525.00, 
1526.00, 
1527.00, 
1528.00, 
1529.00, 
1530.00, 
1531.00, 
1532.00, 
1533.00, 
1534.00, 
1535.00, 
1536.00, 
1537.00, 
1538.00, 
1539.00, 
1540.00, 
1541.00, 
1542.00, 
1543.00, 
1544.00, 
1545.00, 
1546.00, 
1547.00, 
1548.00, 
1549.00, 
1550.00, 
1551.00, 
1552.00, 
1553.00, 
1554.00, 
1555.00, 
1556.00, 
1557.00, 
1558.00, 
1559.00, 
1560.00, 
1561.00, 
1562.00, 
1563.00, 
1564.00, 
1565.00, 
1566.00, 
1567.00, 
1568.00, 
1569.00, 
1570.00, 
1571.00, 
1572.00, 
1573.00, 
1574.00, 
1575.00, 
1576.00, 
1577.00, 
1578.00, 
1579.00, 
1580.00, 
1581.00, 
1582.00, 
1583.00, 
1584.00, 
1585.00, 
1586.00, 
1587.00, 
1588.00, 
1589.00, 
1590.00, 
1591.00, 
1592.00, 
1593.00, 
1594.00, 
1595.00, 
1596.00, 
1597.00, 
1598.00, 
1599.00, 
1600.00, 
1601.00, 
1602.00, 
1603.00, 
1604.00, 
1605.00, 
1606.00, 
1607.00, 
1608.00, 
1609.00, 
1610.00, 
1611.00, 
1612.00, 
1613.00, 
1614.00, 
1615.00, 
1616.00, 
1617.00, 
1618.00, 
1619.00, 
1620.00, 
1621.00, 
1622.00, 
1623.00, 
1624.00, 
1625.00, 
1626.00, 
1627.00, 
1628.00, 
1629.00, 
1630.00, 
1631.00, 
1632.00, 
1633.00, 
1634.00, 
1635.00, 
1636.00, 
1637.00, 
1638.00, 
1639.00, 
1640.00, 
1641.00, 
1642.00, 
1643.00, 
1644.00, 
1645.00, 
1646.00, 
1647.00, 
1648.00, 
1649.00, 
1650.00, 
1651.00, 
1652.00, 
1653.00, 
1654.00, 
1655.00, 
1656.00, 
1657.00, 
1658.00, 
1659.00, 
1660.00, 
1661.00, 
1662.00, 
1663.00, 
1664.00, 
1665.00, 
1666.00, 
1667.00, 
1668.00, 
1669.00, 
1670.00, 
1671.00, 
1672.00, 
1673.00, 
1674.00, 
1675.00, 
1676.00, 
1677.00, 
1678.00, 
1679.00, 
1680.00, 
1681.00, 
1682.00, 
1683.00, 
1684.00, 
1685.00, 
1686.00, 
1687.00, 
1688.00, 
1689.00, 
1690.00, 
1691.00, 
1692.00, 
1693.00, 
1694.00, 
1695.00, 
1696.00, 
1697.00, 
1698.00, 
1699.00, 
1700.00, 
1701.00, 
1702.00, 
1703.00, 
1704.00, 
1705.00, 
1706.00, 
1707.00, 
1708.00, 
1709.00, 
1710.00, 
1711.00, 
1712.00, 
1713.00, 
1714.00, 
1715.00, 
1716.00, 
1717.00, 
1718.00, 
1719.00, 
1720.00, 
1721.00, 
1722.00, 
1723.00, 
1724.00, 
1725.00, 
1726.00, 
1727.00, 
1728.00, 
1729.00, 
1730.00, 
1731.00, 
1732.00, 
1733.00, 
1734.00, 
1735.00, 
1736.00, 
1737.00, 
1738.00, 
1739.00, 
1740.00, 
1741.00, 
1742.00, 
1743.00, 
1744.00, 
1745.00, 
1746.00, 
1747.00, 
1748.00, 
1749.00, 
1750.00, 
1751.00, 
1752.00, 
1753.00, 
1754.00, 
1755.00, 
1756.00, 
1757.00, 
1758.00, 
1759.00, 
1760.00, 
1761.00, 
1762.00, 
1763.00, 
1764.00, 
1765.00, 
1766.00, 
1767.00, 
1768.00, 
1769.00, 
1770.00, 
1771.00, 
1772.00, 
1773.00, 
1774.00, 
1775.00, 
1776.00, 
1777.00, 
1778.00, 
1779.00, 
1780.00, 
1781.00, 
1782.00, 
1783.00, 
1784.00, 
1785.00, 
1786.00, 
1787.00, 
1788.00, 
1789.00, 
1790.00, 
1791.00, 
1792.00, 
1793.00, 
1794.00, 
1795.00, 
1796.00, 
1797.00, 
1798.00, 
1799.00, 
1800.00, 
1801.00, 
1802.00, 
1803.00, 
1804.00, 
1805.00, 
1806.00, 
1807.00, 
1808.00, 
1809.00, 
1810.00, 
1811.00, 
1812.00, 
1813.00, 
1814.00, 
1815.00, 
1816.00, 
1817.00, 
1818.00, 
1819.00, 
1820.00, 
1821.00, 
1822.00, 
1823.00, 
1824.00, 
1825.00, 
1826.00, 
1827.00, 
1828.00, 
1829.00, 
1830.00, 
1831.00, 
1832.00, 
1833.00, 
1834.00, 
1835.00, 
1836.00, 
1837.00, 
1838.00, 
1839.00, 
1840.00, 
1841.00, 
1842.00, 
1843.00, 
1844.00, 
1845.00, 
1846.00, 
1847.00, 
1848.00, 
1849.00, 
1850.00, 
1851.00, 
1852.00, 
1853.00, 
1854.00, 
1855.00, 
1856.00, 
1857.00, 
1858.00, 
1859.00, 
1860.00, 
1861.00, 
1862.00, 
1863.00, 
1864.00, 
1865.00, 
1866.00, 
1867.00, 
1868.00, 
1869.00, 
1870.00, 
1871.00, 
1872.00, 
1873.00, 
1874.00, 
1875.00, 
1876.00, 
1877.00, 
1878.00, 
1879.00, 
1880.00, 
1881.00, 
1882.00, 
1883.00, 
1884.00, 
1885.00, 
1886.00, 
1887.00, 
1888.00, 
1889.00, 
1890.00, 
1891.00, 
1892.00, 
1893.00, 
1894.00, 
1895.00, 
1896.00, 
1897.00, 
1898.00, 
1899.00, 
1900.00, 
1901.00, 
1902.00, 
1903.00, 
1904.00, 
1905.00, 
1906.00, 
1907.00, 
1908.00, 
1909.00, 
1910.00, 
1911.00, 
1912.00, 
1913.00, 
1914.00, 
1915.00, 
1916.00, 
1917.00, 
1918.00, 
1919.00, 
1920.00, 
1921.00, 
1922.00, 
1923.00, 
1924.00, 
1925.00, 
1926.00, 
1927.00, 
1928.00, 
1929.00, 
1930.00, 
1931.00, 
1932.00, 
1933.00, 
1934.00, 
1935.00, 
1936.00, 
1937.00, 
1938.00, 
1939.00, 
1940.00, 
1941.00, 
1942.00, 
1943.00, 
1944.00, 
1945.00, 
1946.00, 
1947.00, 
1948.00, 
1949.00, 
1950.00, 
1951.00, 
1952.00, 
1953.00, 
1954.00, 
1955.00, 
1956.00, 
1957.00, 
1958.00, 
1959.00, 
1960.00, 
1961.00, 
1962.00, 
1963.00, 
1964.00, 
1965.00, 
1966.00, 
1967.00, 
1968.00, 
1969.00, 
1970.00, 
1971.00, 
1972.00, 
1973.00, 
1974.00, 
1975.00, 
1976.00, 
1977.00, 
1978.00, 
1979.00, 
1980.00, 
1981.00, 
1982.00, 
1983.00, 
1984.00, 
1985.00, 
1986.00, 
1987.00, 
1988.00, 
1989.00, 
1990.00, 
1991.00, 
1992.00, 
1993.00, 
1994.00, 
1995.00, 
1996.00, 
1997.00, 
1998.00, 
1999.00, 
2000.00, 
2001.00, 
2002.00, 
2003.00, 
2004.00, 
2005.00, 
2006.00, 
2007.00, 
2008.00, 
2009.00, 
2010.00, 
2011.00, 
2012.00, 
2013.00, 
2014.00, 
2015.00, 
2016.00, 
2017.00, 
2018.00, 
2019.00, 
2020.00, 
2021.00, 
2022.00, 
2023.00, 
2024.00, 
2025.00, 
2026.00, 
2027.00, 
2028.00, 
2029.00, 
2030.00, 
2031.00, 
2032.00, 
2033.00, 
2034.00, 
2035.00, 
2036.00, 
2037.00, 
2038.00, 
2039.00, 
2040.00, 
2041.00, 
2042.00, 
2043.00, 
2044.00, 
2045.00, 
2046.00, 
2047.00, 
2048.00, 
2049.00, 
2050.00, 
2051.00, 
2052.00, 
2053.00, 
2054.00, 
2055.00, 
2056.00, 
2057.00, 
2058.00, 
2059.00, 
2060.00, 
2061.00, 
2062.00, 
2063.00, 
2064.00, 
2065.00, 
2066.00, 
2067.00, 
2068.00, 
2069.00, 
2070.00, 
2071.00, 
2072.00, 
2073.00, 
2074.00, 
2075.00, 
2076.00, 
2077.00, 
2078.00, 
2079.00, 
2080.00, 
2081.00, 
2082.00, 
2083.00, 
2084.00, 
2085.00, 
2086.00, 
2087.00, 
2088.00, 
2089.00, 
2090.00, 
2091.00, 
2092.00, 
2093.00, 
2094.00, 
2095.00, 
2096.00, 
2097.00, 
2098.00, 
2099.00, 
2100.00, 
2101.00, 
2102.00, 
2103.00, 
2104.00, 
2105.00, 
2106.00, 
2107.00, 
2108.00, 
2109.00, 
2110.00, 
2111.00, 
2112.00, 
2113.00, 
2114.00, 
2115.00, 
2116.00, 
2117.00, 
2118.00, 
2119.00, 
2120.00, 
2121.00, 
2122.00, 
2123.00, 
2124.00, 
2125.00, 
2126.00, 
2127.00, 
2128.00, 
2129.00, 
2130.00, 
2131.00, 
2132.00, 
2133.00, 
2134.00, 
2135.00, 
2136.00, 
2137.00, 
2138.00, 
2139.00, 
2140.00, 
2141.00, 
2142.00, 
2143.00, 
2144.00, 
2145.00, 
2146.00, 
2147.00, 
2148.00, 
2149.00, 
2150.00, 
2151.00, 
2152.00, 
2153.00, 
2154.00, 
2155.00, 
2156.00, 
2157.00, 
2158.00, 
2159.00, 
2160.00, 
2161.00, 
2162.00, 
2163.00, 
2164.00, 
2165.00, 
2166.00, 
2167.00, 
2168.00, 
2169.00, 
2170.00, 
2171.00, 
2172.00, 
2173.00, 
2174.00, 
2175.00, 
2176.00, 
2177.00, 
2178.00, 
2179.00, 
2180.00, 
2181.00, 
2182.00, 
2183.00, 
2184.00, 
2185.00, 
2186.00, 
2187.00, 
2188.00, 
2189.00, 
2190.00, 
2191.00, 
2192.00, 
2193.00, 
2194.00, 
2195.00, 
2196.00, 
2197.00, 
2198.00, 
2199.00, 
2200.00, 
2201.00, 
2202.00, 
2203.00, 
2204.00, 
2205.00, 
2206.00, 
2207.00, 
2208.00, 
2209.00, 
2210.00, 
2211.00, 
2212.00, 
2213.00, 
2214.00, 
2215.00, 
2216.00, 
2217.00, 
2218.00, 
2219.00, 
2220.00, 
2221.00, 
2222.00, 
2223.00, 
2224.00, 
2225.00, 
2226.00, 
2227.00, 
2228.00, 
2229.00, 
2230.00, 
2231.00, 
2232.00, 
2233.00, 
2234.00, 
2235.00, 
2236.00, 
2237.00, 
2238.00, 
2239.00, 
2240.00, 
2241.00, 
2242.00, 
2243.00, 
2244.00, 
2245.00, 
2246.00, 
2247.00, 
2248.00, 
2249.00, 
2250.00, 
2251.00, 
2252.00, 
2253.00, 
2254.00, 
2255.00, 
2256.00, 
2257.00, 
2258.00, 
2259.00, 
2260.00, 
2261.00, 
2262.00, 
2263.00, 
2264.00, 
2265.00, 
2266.00, 
2267.00, 
2268.00, 
2269.00, 
2270.00, 
2271.00, 
2272.00, 
2273.00, 
2274.00, 
2275.00, 
2276.00, 
2277.00, 
2278.00, 
2279.00, 
2280.00, 
2281.00, 
2282.00, 
2283.00, 
2284.00, 
2285.00, 
2286.00, 
2287.00, 
2288.00, 
2289.00, 
2290.00, 
2291.00, 
2292.00, 
2293.00, 
2294.00, 
2295.00, 
2296.00, 
2297.00, 
2298.00, 
2299.00, 
2300.00, 
2301.00, 
2302.00, 
2303.00, 
2304.00, 
2305.00, 
2306.00, 
2307.00, 
2308.00, 
2309.00, 
2310.00, 
2311.00, 
2312.00, 
2313.00, 
2314.00, 
2315.00, 
2316.00, 
2317.00, 
2318.00, 
2319.00, 
2320.00, 
2321.00, 
2322.00, 
2323.00, 
2324.00, 
2325.00, 
2326.00, 
2327.00, 
2328.00, 
2329.00, 
2330.00, 
2331.00, 
2332.00, 
2333.00, 
2334.00, 
2335.00, 
2336.00, 
2337.00, 
2338.00, 
2339.00, 
2340.00, 
2341.00, 
2342.00, 
2343.00, 
2344.00, 
2345.00, 
2346.00, 
2347.00, 
2348.00, 
2349.00, 
2350.00, 
2351.00, 
2352.00, 
2353.00, 
2354.00, 
2355.00, 
2356.00, 
2357.00, 
2358.00, 
2359.00, 
2360.00, 
2361.00, 
2362.00, 
2363.00, 
2364.00, 
2365.00, 
2366.00, 
2367.00, 
2368.00, 
2369.00, 
2370.00, 
2371.00, 
2372.00, 
2373.00, 
2374.00, 
2375.00, 
2376.00, 
2377.00, 
2378.00, 
2379.00, 
2380.00, 
2381.00, 
2382.00, 
2383.00, 
2384.00, 
2385.00, 
2386.00, 
2387.00, 
2388.00, 
2389.00, 
2390.00, 
2391.00, 
2392.00, 
2393.00, 
2394.00, 
2395.00, 
2396.00, 
2397.00, 
2398.00, 
2399.00, 
2400.00, 
2401.00, 
2402.00, 
2403.00, 
2404.00, 
2405.00, 
2406.00, 
2407.00, 
2408.00, 
2409.00, 
2410.00, 
2411.00, 
2412.00, 
2413.00, 
2414.00, 
2415.00, 
2416.00, 
2417.00, 
2418.00, 
2419.00, 
2420.00, 
2421.00, 
2422.00, 
2423.00, 
2424.00, 
2425.00, 
2426.00, 
2427.00, 
2428.00, 
2429.00, 
2430.00, 
2431.00, 
2432.00, 
2433.00, 
2434.00, 
2435.00, 
2436.00, 
2437.00, 
2438.00, 
2439.00, 
2440.00, 
2441.00, 
2442.00, 
2443.00, 
2444.00, 
2445.00, 
2446.00, 
2447.00, 
2448.00, 
2449.00, 
2450.00, 
2451.00, 
2452.00, 
2453.00, 
2454.00, 
2455.00, 
2456.00, 
2457.00, 
2458.00, 
2459.00, 
2460.00, 
2461.00, 
2462.00, 
2463.00, 
2464.00, 
2465.00, 
2466.00, 
2467.00, 
2468.00, 
2469.00, 
2470.00, 
2471.00, 
2472.00, 
2473.00, 
2474.00, 
2475.00, 
2476.00, 
2477.00, 
2478.00, 
2479.00, 
2480.00, 
2481.00, 
2482.00, 
2483.00, 
2484.00, 
2485.00, 
2486.00, 
2487.00, 
2488.00, 
2489.00, 
2490.00, 
2491.00, 
2492.00, 
2493.00, 
2494.00, 
2495.00, 
2496.00, 
2497.00, 
2498.00, 
2499.00, 
2500.00, 
2501.00, 
2502.00, 
2503.00, 
2504.00, 
2505.00, 
2506.00, 
2507.00, 
2508.00, 
2509.00, 
2510.00, 
2511.00, 
2512.00, 
2513.00, 
2514.00, 
2515.00, 
2516.00, 
2517.00, 
2518.00, 
2519.00, 
2520.00, 
2521.00, 
2522.00, 
2523.00, 
2524.00, 
2525.00, 
2526.00, 
2527.00, 
2528.00, 
2529.00, 
2530.00, 
2531.00, 
2532.00, 
2533.00, 
2534.00, 
2535.00, 
2536.00, 
2537.00, 
2538.00, 
2539.00, 
2540.00, 
2541.00, 
2542.00, 
2543.00, 
2544.00, 
2545.00, 
2546.00, 
2547.00, 
2548.00, 
2549.00, 
2550.00, 
2551.00, 
2552.00, 
2553.00, 
2554.00, 
2555.00, 
2556.00, 
2557.00, 
2558.00, 
2559.00, 
2560.00, 
2561.00, 
2562.00, 
2563.00, 
2564.00, 
2565.00, 
2566.00, 
2567.00, 
2568.00, 
2569.00, 
2570.00, 
2571.00, 
2572.00, 
2573.00, 
2574.00, 
2575.00, 
2576.00, 
2577.00, 
2578.00, 
2579.00, 
2580.00, 
2581.00, 
2582.00, 
2583.00, 
2584.00, 
2585.00, 
2586.00, 
2587.00, 
2588.00, 
2589.00, 
2590.00, 
2591.00, 
2592.00, 
2593.00, 
2594.00, 
2595.00, 
2596.00, 
2597.00, 
2598.00, 
2599.00, 
2600.00, 
