"1cP1 - RawData"
"Wavelength nm.","T%"
200.00,0.000
201.00,0.002
202.00,0.003
203.00,0.002
204.00,0.002
205.00,0.000
206.00,0.002
207.00,-0.000
208.00,0.002
209.00,0.001
210.00,0.002
211.00,0.002
212.00,-0.000
213.00,0.001
214.00,-0.001
215.00,0.002
216.00,0.002
217.00,-0.001
218.00,0.002
219.00,0.006
220.00,-0.000
221.00,0.001
222.00,0.001
223.00,-0.003
224.00,0.001
225.00,0.000
226.00,0.001
227.00,0.001
228.00,0.000
229.00,0.002
230.00,0.001
231.00,0.002
232.00,0.001
233.00,0.001
234.00,0.000
235.00,0.000
236.00,-0.001
237.00,0.001
238.00,0.003
239.00,0.001
240.00,0.000
241.00,-0.001
242.00,0.001
243.00,-0.001
244.00,0.003
245.00,0.001
246.00,0.002
247.00,-0.001
248.00,0.000
249.00,0.002
250.00,0.001
251.00,0.000
252.00,-0.001
253.00,0.000
254.00,-0.000
255.00,-0.000
256.00,0.001
257.00,-0.001
258.00,0.001
259.00,-0.001
260.00,0.001
261.00,-0.000
262.00,-0.000
263.00,0.000
264.00,-0.000
265.00,-0.001
266.00,-0.000
267.00,-0.001
268.00,-0.001
269.00,0.001
270.00,0.001
271.00,0.001
272.00,0.001
273.00,0.001
274.00,-0.001
275.00,-0.000
276.00,-0.000
277.00,0.001
278.00,-0.000
279.00,0.000
280.00,-0.000
281.00,0.001
282.00,-0.001
283.00,0.001
284.00,0.001
285.00,0.002
286.00,-0.001
287.00,-0.001
288.00,0.001
289.00,-0.001
290.00,0.001
291.00,0.000
292.00,0.000
293.00,0.000
294.00,0.000
295.00,0.001
296.00,-0.000
297.00,-0.001
298.00,0.000
299.00,-0.001
300.00,0.001
301.00,0.000
302.00,0.001
303.00,-0.000
304.00,0.001
305.00,0.000
306.00,0.003
307.00,0.003
308.00,0.006
309.00,0.012
310.00,0.017
311.00,0.023
312.00,0.037
313.00,0.058
314.00,0.086
315.00,0.130
316.00,0.185
317.00,0.264
318.00,0.356
319.00,0.477
320.00,0.631
321.00,0.821
322.00,1.050
323.00,1.326
324.00,1.648
325.00,1.978
326.00,2.337
327.00,2.780
328.00,3.255
329.00,3.744
330.00,4.288
331.00,4.848
332.00,5.456
333.00,6.118
334.00,6.741
335.00,7.395
336.00,8.085
337.00,8.754
338.00,9.443
339.00,10.083
340.00,10.736
341.00,11.380
342.00,11.998
343.00,12.616
344.00,13.227
345.00,13.811
346.00,14.264
347.00,14.776
348.00,15.318
349.00,15.749
350.00,16.140
351.00,16.586
352.00,16.850
353.00,17.278
354.00,17.633
355.00,17.953
356.00,18.221
357.00,18.518
358.00,18.766
359.00,19.029
360.00,19.283
361.00,19.400
362.00,19.604
363.00,19.789
364.00,19.892
365.00,19.975
366.00,20.104
367.00,20.184
368.00,20.225
369.00,20.292
370.00,20.367
371.00,20.335
372.00,20.314
373.00,20.347
374.00,20.359
375.00,20.227
376.00,20.162
377.00,20.107
378.00,19.979
379.00,19.920
380.00,19.914
381.00,19.888
382.00,19.886
383.00,19.929
384.00,19.935
385.00,20.007
386.00,20.030
387.00,20.173
388.00,20.181
389.00,20.151
390.00,20.203
391.00,20.226
392.00,20.281
393.00,20.309
394.00,20.335
395.00,20.371
396.00,20.353
397.00,20.372
398.00,20.388
399.00,20.346
400.00,20.354
401.00,20.345
402.00,20.350
403.00,20.327
404.00,20.337
405.00,20.251
406.00,20.295
407.00,20.223
408.00,20.257
409.00,20.180
410.00,20.160
411.00,20.159
412.00,20.136
413.00,20.129
414.00,20.058
415.00,20.114
416.00,20.147
417.00,20.162
418.00,20.122
419.00,20.189
420.00,20.234
421.00,20.245
422.00,20.237
423.00,20.278
424.00,20.302
425.00,20.328
426.00,20.341
427.00,20.402
428.00,20.420
429.00,20.464
430.00,20.520
431.00,20.577
432.00,20.586
433.00,20.629
434.00,20.697
435.00,20.733
436.00,20.784
437.00,20.856
438.00,20.929
439.00,20.990
440.00,21.061
441.00,21.138
442.00,21.208
443.00,21.283
444.00,21.430
445.00,21.459
446.00,21.540
447.00,21.596
448.00,21.710
449.00,21.816
450.00,21.918
451.00,22.028
452.00,22.099
453.00,22.214
454.00,22.299
455.00,22.434
456.00,22.564
457.00,22.653
458.00,22.766
459.00,22.901
460.00,23.010
461.00,23.154
462.00,23.255
463.00,23.396
464.00,23.528
465.00,23.604
466.00,23.758
467.00,23.932
468.00,24.015
469.00,24.113
470.00,24.221
471.00,24.283
472.00,24.422
473.00,24.482
474.00,24.619
475.00,24.724
476.00,24.811
477.00,24.947
478.00,25.066
479.00,25.179
480.00,25.347
481.00,25.469
482.00,25.657
483.00,25.806
484.00,25.963
485.00,26.136
486.00,26.274
487.00,26.423
488.00,26.558
489.00,26.687
490.00,26.875
491.00,26.981
492.00,27.127
493.00,27.343
494.00,27.489
495.00,27.495
496.00,27.639
497.00,27.740
498.00,27.878
499.00,27.986
500.00,28.166
501.00,28.232
502.00,28.393
503.00,28.498
504.00,28.489
505.00,28.669
506.00,28.911
507.00,28.974
508.00,29.178
509.00,29.358
510.00,29.502
511.00,29.570
512.00,29.693
513.00,29.826
514.00,29.948
515.00,30.059
516.00,30.180
517.00,30.281
518.00,30.444
519.00,30.490
520.00,30.567
521.00,30.712
522.00,30.806
523.00,30.834
524.00,31.021
525.00,31.121
526.00,31.200
527.00,31.246
528.00,31.303
529.00,31.522
530.00,31.650
531.00,31.742
532.00,31.850
533.00,31.998
534.00,32.009
535.00,32.123
536.00,32.203
537.00,32.341
538.00,32.378
539.00,32.447
540.00,32.534
541.00,32.561
542.00,32.624
543.00,32.707
544.00,32.802
545.00,32.872
546.00,32.937
547.00,33.103
548.00,33.164
549.00,33.217
550.00,33.310
551.00,33.376
552.00,33.461
553.00,33.529
554.00,33.565
555.00,33.620
556.00,33.702
557.00,33.764
558.00,33.857
559.00,33.940
560.00,33.981
561.00,34.097
562.00,34.120
563.00,34.163
564.00,34.199
565.00,34.250
566.00,34.281
567.00,34.350
568.00,34.350
569.00,34.427
570.00,34.464
571.00,34.541
572.00,34.568
573.00,34.548
574.00,34.647
575.00,34.594
576.00,34.670
577.00,34.672
578.00,34.778
579.00,34.895
580.00,34.852
581.00,35.036
582.00,35.125
583.00,35.130
584.00,35.222
585.00,35.249
586.00,35.329
587.00,35.400
588.00,35.421
589.00,35.395
590.00,35.460
591.00,35.529
592.00,35.602
593.00,35.670
594.00,35.655
595.00,35.648
596.00,35.720
597.00,35.780
598.00,35.901
599.00,35.898
600.00,36.019
601.00,36.049
602.00,36.067
603.00,36.049
604.00,36.122
605.00,36.222
606.00,36.201
607.00,36.279
608.00,36.449
609.00,36.499
610.00,36.413
611.00,36.501
612.00,36.507
613.00,36.591
614.00,36.679
615.00,36.738
616.00,36.816
617.00,36.766
618.00,36.781
619.00,36.859
620.00,36.895
621.00,36.964
622.00,37.041
623.00,37.112
624.00,37.195
625.00,37.272
626.00,37.375
627.00,37.374
628.00,37.392
629.00,37.459
630.00,37.513
631.00,37.547
632.00,37.665
633.00,37.761
634.00,37.827
635.00,37.910
636.00,37.989
637.00,37.998
638.00,38.054
639.00,38.189
640.00,38.225
641.00,38.229
642.00,38.355
643.00,38.392
644.00,38.516
645.00,38.543
646.00,38.749
647.00,38.806
648.00,38.789
649.00,38.846
650.00,38.940
651.00,39.045
652.00,39.077
653.00,39.174
654.00,39.205
655.00,39.436
656.00,39.739
657.00,39.599
658.00,39.746
659.00,39.866
660.00,39.899
661.00,39.923
662.00,39.884
663.00,40.098
664.00,40.317
665.00,40.476
666.00,40.492
667.00,40.518
668.00,40.500
669.00,40.776
670.00,41.004
671.00,40.822
672.00,41.038
673.00,41.159
674.00,41.239
675.00,41.324
676.00,41.551
677.00,41.640
678.00,41.422
679.00,41.693
680.00,41.917
681.00,41.985
682.00,41.957
683.00,41.980
684.00,42.157
685.00,42.231
686.00,42.190
687.00,42.289
688.00,42.505
689.00,42.482
690.00,42.616
691.00,42.950
692.00,42.549
693.00,42.426
694.00,43.071
695.00,43.384
696.00,43.218
697.00,43.204
698.00,43.300
699.00,43.448
700.00,43.455
701.00,43.592
702.00,43.726
703.00,43.926
704.00,43.959
705.00,43.939
706.00,44.008
707.00,44.172
708.00,43.991
709.00,44.347
710.00,44.792
711.00,44.324
712.00,44.321
713.00,44.625
714.00,44.677
715.00,44.601
716.00,44.651
717.00,44.913
718.00,45.110
719.00,45.074
720.00,45.060
721.00,49.472
722.00,49.571
723.00,49.573
724.00,49.620
725.00,49.561
726.00,49.647
727.00,49.614
728.00,49.749
729.00,49.656
730.00,49.782
731.00,49.831
732.00,49.837
733.00,49.918
734.00,49.876
735.00,49.956
736.00,49.943
737.00,49.986
738.00,50.055
739.00,50.075
740.00,50.133
741.00,50.143
742.00,50.225
743.00,50.163
744.00,50.284
745.00,50.302
746.00,50.270
747.00,50.236
748.00,50.213
749.00,50.250
750.00,50.312
751.00,50.257
752.00,50.272
753.00,50.336
754.00,50.371
755.00,50.325
756.00,50.325
757.00,50.343
758.00,50.375
759.00,50.380
760.00,50.419
761.00,50.423
762.00,50.452
763.00,50.467
764.00,50.433
765.00,50.449
766.00,50.548
767.00,50.542
768.00,50.564
769.00,50.539
770.00,50.525
771.00,50.581
772.00,50.631
773.00,50.589
774.00,50.593
775.00,50.640
776.00,50.538
777.00,50.692
778.00,50.531
779.00,50.730
780.00,50.650
781.00,50.626
782.00,50.650
783.00,50.582
784.00,50.671
785.00,50.607
786.00,50.667
787.00,50.676
788.00,50.653
789.00,50.648
790.00,50.684
791.00,50.667
792.00,50.559
793.00,50.572
794.00,50.630
795.00,50.620
796.00,50.483
797.00,50.513
798.00,50.561
799.00,50.518
800.00,50.525
801.00,50.527
802.00,50.549
803.00,50.501
804.00,50.442
805.00,50.506
806.00,50.460
807.00,50.467
808.00,50.483
809.00,50.423
810.00,50.374
811.00,50.334
812.00,50.531
813.00,50.399
814.00,50.347
815.00,50.361
816.00,50.402
817.00,50.404
818.00,50.334
819.00,50.272
820.00,50.257
821.00,50.300
822.00,50.346
823.00,50.231
824.00,50.247
825.00,50.244
826.00,50.177
827.00,50.257
828.00,50.246
829.00,50.201
830.00,50.237
831.00,52.486
832.00,52.459
833.00,52.415
834.00,52.418
835.00,52.380
836.00,52.412
837.00,52.380
838.00,52.371
839.00,52.387
840.00,52.310
841.00,52.337
842.00,52.284
843.00,52.293
844.00,52.283
845.00,52.216
846.00,52.200
847.00,52.193
848.00,52.214
849.00,52.129
850.00,52.099
851.00,52.043
852.00,52.100
853.00,52.054
854.00,51.985
855.00,52.069
856.00,51.960
857.00,51.938
858.00,51.907
859.00,51.903
860.00,51.891
861.00,51.905
862.00,51.835
863.00,51.835
864.00,51.802
865.00,51.845
866.00,51.793
867.00,51.823
868.00,51.778
869.00,51.758
870.00,51.759
871.00,51.735
872.00,51.747
873.00,51.721
874.00,51.685
875.00,51.668
876.00,51.691
877.00,51.669
878.00,51.678
879.00,51.600
880.00,51.765
881.00,51.630
882.00,51.666
883.00,51.632
884.00,51.587
885.00,51.502
886.00,51.658
887.00,51.531
888.00,51.507
889.00,51.504
890.00,51.505
891.00,51.445
892.00,51.451
893.00,51.390
894.00,51.420
895.00,51.358
896.00,51.357
897.00,51.337
898.00,51.300
899.00,51.302
900.00,51.278
901.00,51.284
902.00,51.266
903.00,51.231
904.00,51.221
905.00,51.199
906.00,51.184
907.00,51.148
908.00,51.129
909.00,51.149
910.00,51.113
911.00,51.075
912.00,51.115
913.00,51.059
914.00,51.040
915.00,51.086
916.00,50.942
917.00,50.981
918.00,50.985
919.00,50.970
920.00,50.898
921.00,50.944
922.00,50.928
923.00,50.892
924.00,50.807
925.00,50.879
926.00,50.816
927.00,50.822
928.00,50.774
929.00,50.791
930.00,50.747
931.00,50.729
932.00,50.691
933.00,50.721
934.00,50.689
935.00,50.703
936.00,50.649
937.00,50.648
938.00,50.636
939.00,50.595
940.00,50.585
941.00,50.573
942.00,50.541
943.00,50.516
944.00,50.471
945.00,50.483
946.00,50.476
947.00,50.453
948.00,50.427
949.00,50.407
950.00,50.382
951.00,50.368
952.00,50.357
953.00,50.306
954.00,50.298
955.00,50.248
956.00,50.238
957.00,50.198
958.00,50.214
959.00,50.148
960.00,50.152
961.00,50.141
962.00,50.151
963.00,50.095
964.00,50.090
965.00,50.103
966.00,50.059
967.00,50.065
968.00,50.058
969.00,50.077
970.00,50.041
971.00,50.066
972.00,50.012
973.00,50.050
974.00,50.065
975.00,50.014
976.00,50.033
977.00,49.941
978.00,50.058
979.00,50.016
980.00,50.037
981.00,50.033
982.00,50.023
983.00,50.022
984.00,50.003
985.00,50.023
986.00,50.016
987.00,50.030
988.00,49.978
989.00,49.978
990.00,49.968
991.00,49.948
992.00,49.971
993.00,49.939
994.00,49.922
995.00,49.922
996.00,49.930
997.00,49.908
998.00,49.880
999.00,49.898
1000.00,49.840
1001.00,49.855
1002.00,49.822
1003.00,49.838
1004.00,49.796
1005.00,49.757
1006.00,49.815
1007.00,49.790
1008.00,49.764
1009.00,49.745
1010.00,49.747
1011.00,49.724
1012.00,49.692
1013.00,49.708
1014.00,49.671
1015.00,49.693
1016.00,49.640
1017.00,49.654
1018.00,49.629
1019.00,49.585
1020.00,49.607
1021.00,49.585
1022.00,49.590
1023.00,49.539
1024.00,49.542
1025.00,49.512
1026.00,49.502
1027.00,49.464
1028.00,49.472
1029.00,49.460
1030.00,49.419
1031.00,49.454
1032.00,49.396
1033.00,49.396
1034.00,49.377
1035.00,49.341
1036.00,49.316
1037.00,49.301
1038.00,49.297
1039.00,49.241
1040.00,49.251
1041.00,49.206
1042.00,49.207
1043.00,49.180
1044.00,49.199
1045.00,49.196
1046.00,49.193
1047.00,49.234
1048.00,49.242
1049.00,49.233
1050.00,49.238
1051.00,49.273
1052.00,49.236
1053.00,49.265
1054.00,49.260
1055.00,49.303
1056.00,49.300
1057.00,49.287
1058.00,49.270
1059.00,49.283
1060.00,49.286
1061.00,49.272
1062.00,49.278
1063.00,49.298
1064.00,49.282
1065.00,49.252
1066.00,49.254
1067.00,49.247
1068.00,49.268
1069.00,49.231
1070.00,49.214
1071.00,49.197
1072.00,49.230
1073.00,49.201
1074.00,49.201
1075.00,49.188
1076.00,49.194
1077.00,49.156
1078.00,49.146
1079.00,49.146
1080.00,49.155
1081.00,49.152
1082.00,49.135
1083.00,49.142
1084.00,49.138
1085.00,49.119
1086.00,49.120
1087.00,49.111
1088.00,49.087
1089.00,49.084
1090.00,49.089
1091.00,49.079
1092.00,49.081
1093.00,49.055
1094.00,49.050
1095.00,49.051
1096.00,49.016
1097.00,49.035
1098.00,49.015
1099.00,49.012
1100.00,48.993
1101.00,48.993
1102.00,48.973
1103.00,48.983
1104.00,48.964
1105.00,48.952
1106.00,48.948
1107.00,48.959
1108.00,48.923
1109.00,48.920
1110.00,48.898
1111.00,48.899
1112.00,48.885
1113.00,48.884
1114.00,48.878
1115.00,48.872
1116.00,48.870
1117.00,48.865
1118.00,48.831
1119.00,48.841
1120.00,48.828
1121.00,48.824
1122.00,48.813
1123.00,48.838
1124.00,48.847
1125.00,48.842
1126.00,48.814
1127.00,48.818
1128.00,48.795
1129.00,48.759
1130.00,48.773
1131.00,48.772
1132.00,48.757
1133.00,48.753
1134.00,48.732
1135.00,48.733
1136.00,48.750
1137.00,48.746
1138.00,48.739
1139.00,48.758
1140.00,48.730
1141.00,48.748
1142.00,48.733
1143.00,48.744
1144.00,48.721
1145.00,48.707
1146.00,48.716
1147.00,48.720
1148.00,48.696
1149.00,48.719
1150.00,48.720
1151.00,48.707
1152.00,48.697
1153.00,48.689
1154.00,48.680
1155.00,48.687
1156.00,48.673
1157.00,48.689
1158.00,48.695
1159.00,48.674
1160.00,48.676
1161.00,48.691
1162.00,48.666
1163.00,48.679
1164.00,48.664
1165.00,48.664
1166.00,48.671
1167.00,48.657
1168.00,48.682
1169.00,48.675
1170.00,48.663
1171.00,48.654
1172.00,48.671
1173.00,48.647
1174.00,48.660
1175.00,48.658
1176.00,48.658
1177.00,48.658
1178.00,48.656
1179.00,48.671
1180.00,48.661
1181.00,48.663
1182.00,48.650
1183.00,48.668
1184.00,48.637
1185.00,48.651
1186.00,48.628
1187.00,48.632
1188.00,48.634
1189.00,48.639
1190.00,48.648
1191.00,48.644
1192.00,48.656
1193.00,48.649
1194.00,48.659
1195.00,48.623
1196.00,48.665
1197.00,48.652
1198.00,48.645
1199.00,48.654
1200.00,48.665
1201.00,48.664
1202.00,48.648
1203.00,48.638
1204.00,48.635
1205.00,48.661
1206.00,48.628
1207.00,48.640
1208.00,48.628
1209.00,48.634
1210.00,48.647
1211.00,48.627
1212.00,48.653
1213.00,48.617
1214.00,48.629
1215.00,48.617
1216.00,48.633
1217.00,48.620
1218.00,48.615
1219.00,48.629
1220.00,48.629
1221.00,48.651
1222.00,48.637
1223.00,48.666
1224.00,48.673
1225.00,48.651
1226.00,48.664
1227.00,48.660
1228.00,48.678
1229.00,48.689
1230.00,48.703
1231.00,48.693
1232.00,48.716
1233.00,48.709
1234.00,48.700
1235.00,48.714
1236.00,48.698
1237.00,48.708
1238.00,48.706
1239.00,48.714
1240.00,48.712
1241.00,48.723
1242.00,48.729
1243.00,48.737
1244.00,48.711
1245.00,48.758
1246.00,48.757
1247.00,48.718
1248.00,48.727
1249.00,48.756
1250.00,48.742
1251.00,48.748
1252.00,48.769
1253.00,48.749
1254.00,48.773
1255.00,48.766
1256.00,48.770
1257.00,48.760
1258.00,48.779
1259.00,48.796
1260.00,48.823
1261.00,48.799
1262.00,48.803
1263.00,48.790
1264.00,48.791
1265.00,48.793
1266.00,48.792
1267.00,48.815
1268.00,48.821
1269.00,48.833
1270.00,48.852
1271.00,48.865
1272.00,48.847
1273.00,48.876
1274.00,48.865
1275.00,48.870
1276.00,48.872
1277.00,48.871
1278.00,48.887
1279.00,48.893
1280.00,48.883
1281.00,48.901
1282.00,48.920
1283.00,48.902
1284.00,48.919
1285.00,48.909
1286.00,48.925
1287.00,48.942
1288.00,48.941
1289.00,48.932
1290.00,48.967
1291.00,48.953
1292.00,48.968
1293.00,48.975
1294.00,48.987
1295.00,48.992
1296.00,48.983
1297.00,48.994
1298.00,49.026
1299.00,49.004
1300.00,49.027
1301.00,49.034
1302.00,49.043
1303.00,49.045
1304.00,49.039
1305.00,49.043
1306.00,49.083
1307.00,49.071
1308.00,49.078
1309.00,49.088
1310.00,49.070
1311.00,49.061
1312.00,49.060
1313.00,49.074
1314.00,49.096
1315.00,49.129
1316.00,49.118
1317.00,49.157
1318.00,49.155
1319.00,49.152
1320.00,49.169
1321.00,49.316
1322.00,49.308
1323.00,49.312
1324.00,49.296
1325.00,49.303
1326.00,49.329
1327.00,49.322
1328.00,49.323
1329.00,49.330
1330.00,49.338
1331.00,49.338
1332.00,49.323
1333.00,49.326
1334.00,49.365
1335.00,49.367
1336.00,49.398
1337.00,49.436
1338.00,49.495
1339.00,49.534
1340.00,49.597
1341.00,49.668
1342.00,49.735
1343.00,49.758
1344.00,49.827
1345.00,49.883
1346.00,49.911
1347.00,49.939
1348.00,49.979
1349.00,49.991
1350.00,50.001
1351.00,50.021
1352.00,50.018
1353.00,50.042
1354.00,50.051
1355.00,50.023
1356.00,50.076
1357.00,50.056
1358.00,50.103
1359.00,50.077
1360.00,50.104
1361.00,50.090
1362.00,50.010
1363.00,50.122
1364.00,50.152
1365.00,50.078
1366.00,50.242
1367.00,50.100
1368.00,50.072
1369.00,50.094
1370.00,50.102
1371.00,50.053
1372.00,50.076
1373.00,50.095
1374.00,50.110
1375.00,50.100
1376.00,50.077
1377.00,50.051
1378.00,50.145
1379.00,50.102
1380.00,50.099
1381.00,50.198
1382.00,50.102
1383.00,50.091
1384.00,50.064
1385.00,50.037
1386.00,50.112
1387.00,50.061
1388.00,50.041
1389.00,50.053
1390.00,50.072
1391.00,50.078
1392.00,50.046
1393.00,50.116
1394.00,50.101
1395.00,50.064
1396.00,50.017
1397.00,50.065
1398.00,50.120
1399.00,50.111
1400.00,50.057
1401.00,50.039
1402.00,50.171
1403.00,50.110
1404.00,50.082
1405.00,50.129
1406.00,50.134
1407.00,50.131
1408.00,50.155
1409.00,50.104
1410.00,50.161
1411.00,50.177
1412.00,50.271
1413.00,50.160
1414.00,50.172
1415.00,50.204
1416.00,50.205
1417.00,50.255
1418.00,50.233
1419.00,50.260
1420.00,50.255
1421.00,50.303
1422.00,50.300
1423.00,50.295
1424.00,50.306
1425.00,50.321
1426.00,50.357
1427.00,50.381
1428.00,50.351
1429.00,50.366
1430.00,50.380
1431.00,50.391
1432.00,50.409
1433.00,50.459
1434.00,50.442
1435.00,50.519
1436.00,50.527
1437.00,50.519
1438.00,50.539
1439.00,50.567
1440.00,50.581
1441.00,50.596
1442.00,50.618
1443.00,50.637
1444.00,50.690
1445.00,50.646
1446.00,50.679
1447.00,50.726
1448.00,50.751
1449.00,50.750
1450.00,50.767
1451.00,50.771
1452.00,50.807
1453.00,50.822
1454.00,50.821
1455.00,50.840
1456.00,50.855
1457.00,50.859
1458.00,50.879
1459.00,50.909
1460.00,50.936
1461.00,50.926
1462.00,50.963
1463.00,50.970
1464.00,50.971
1465.00,50.988
1466.00,51.014
1467.00,51.021
1468.00,51.073
1469.00,51.029
1470.00,51.063
1471.00,51.087
1472.00,51.110
1473.00,51.126
1474.00,51.141
1475.00,51.136
1476.00,51.163
1477.00,51.161
1478.00,51.183
1479.00,51.195
1480.00,51.199
1481.00,51.208
1482.00,51.242
1483.00,51.257
1484.00,51.270
1485.00,51.287
1486.00,51.299
1487.00,51.333
1488.00,51.361
1489.00,51.326
1490.00,51.354
1491.00,51.359
1492.00,51.397
1493.00,51.374
1494.00,51.428
1495.00,51.419
1496.00,51.455
1497.00,51.441
1498.00,51.458
1499.00,51.480
1500.00,51.487
1501.00, 
1502.00, 
1503.00, 
1504.00, 
1505.00, 
1506.00, 
1507.00, 
1508.00, 
1509.00, 
1510.00, 
1511.00, 
1512.00, 
1513.00, 
1514.00, 
1515.00, 
1516.00, 
1517.00, 
1518.00, 
1519.00, 
1520.00, 
1521.00, 
1522.00, 
1523.00, 
1524.00, 
1525.00, 
1526.00, 
1527.00, 
1528.00, 
1529.00, 
1530.00, 
1531.00, 
1532.00, 
1533.00, 
1534.00, 
1535.00, 
1536.00, 
1537.00, 
1538.00, 
1539.00, 
1540.00, 
1541.00, 
1542.00, 
1543.00, 
1544.00, 
1545.00, 
1546.00, 
1547.00, 
1548.00, 
1549.00, 
1550.00, 
1551.00, 
1552.00, 
1553.00, 
1554.00, 
1555.00, 
1556.00, 
1557.00, 
1558.00, 
1559.00, 
1560.00, 
1561.00, 
1562.00, 
1563.00, 
1564.00, 
1565.00, 
1566.00, 
1567.00, 
1568.00, 
1569.00, 
1570.00, 
1571.00, 
1572.00, 
1573.00, 
1574.00, 
1575.00, 
1576.00, 
1577.00, 
1578.00, 
1579.00, 
1580.00, 
1581.00, 
1582.00, 
1583.00, 
1584.00, 
1585.00, 
1586.00, 
1587.00, 
1588.00, 
1589.00, 
1590.00, 
1591.00, 
1592.00, 
1593.00, 
1594.00, 
1595.00, 
1596.00, 
1597.00, 
1598.00, 
1599.00, 
1600.00, 
1601.00, 
1602.00, 
1603.00, 
1604.00, 
1605.00, 
1606.00, 
1607.00, 
1608.00, 
1609.00, 
1610.00, 
1611.00, 
1612.00, 
1613.00, 
1614.00, 
1615.00, 
1616.00, 
1617.00, 
1618.00, 
1619.00, 
1620.00, 
1621.00, 
1622.00, 
1623.00, 
1624.00, 
1625.00, 
1626.00, 
1627.00, 
1628.00, 
1629.00, 
1630.00, 
1631.00, 
1632.00, 
1633.00, 
1634.00, 
1635.00, 
1636.00, 
1637.00, 
1638.00, 
1639.00, 
1640.00, 
1641.00, 
1642.00, 
1643.00, 
1644.00, 
1645.00, 
1646.00, 
1647.00, 
1648.00, 
1649.00, 
1650.00, 
1651.00, 
1652.00, 
1653.00, 
1654.00, 
1655.00, 
1656.00, 
1657.00, 
1658.00, 
1659.00, 
1660.00, 
1661.00, 
1662.00, 
1663.00, 
1664.00, 
1665.00, 
1666.00, 
1667.00, 
1668.00, 
1669.00, 
1670.00, 
1671.00, 
1672.00, 
1673.00, 
1674.00, 
1675.00, 
1676.00, 
1677.00, 
1678.00, 
1679.00, 
1680.00, 
1681.00, 
1682.00, 
1683.00, 
1684.00, 
1685.00, 
1686.00, 
1687.00, 
1688.00, 
1689.00, 
1690.00, 
1691.00, 
1692.00, 
1693.00, 
1694.00, 
1695.00, 
1696.00, 
1697.00, 
1698.00, 
1699.00, 
1700.00, 
1701.00, 
1702.00, 
1703.00, 
1704.00, 
1705.00, 
1706.00, 
1707.00, 
1708.00, 
1709.00, 
1710.00, 
1711.00, 
1712.00, 
1713.00, 
1714.00, 
1715.00, 
1716.00, 
1717.00, 
1718.00, 
1719.00, 
1720.00, 
1721.00, 
1722.00, 
1723.00, 
1724.00, 
1725.00, 
1726.00, 
1727.00, 
1728.00, 
1729.00, 
1730.00, 
1731.00, 
1732.00, 
1733.00, 
1734.00, 
1735.00, 
1736.00, 
1737.00, 
1738.00, 
1739.00, 
1740.00, 
1741.00, 
1742.00, 
1743.00, 
1744.00, 
1745.00, 
1746.00, 
1747.00, 
1748.00, 
1749.00, 
1750.00, 
1751.00, 
1752.00, 
1753.00, 
1754.00, 
1755.00, 
1756.00, 
1757.00, 
1758.00, 
1759.00, 
1760.00, 
1761.00, 
1762.00, 
1763.00, 
1764.00, 
1765.00, 
1766.00, 
1767.00, 
1768.00, 
1769.00, 
1770.00, 
1771.00, 
1772.00, 
1773.00, 
1774.00, 
1775.00, 
1776.00, 
1777.00, 
1778.00, 
1779.00, 
1780.00, 
1781.00, 
1782.00, 
1783.00, 
1784.00, 
1785.00, 
1786.00, 
1787.00, 
1788.00, 
1789.00, 
1790.00, 
1791.00, 
1792.00, 
1793.00, 
1794.00, 
1795.00, 
1796.00, 
1797.00, 
1798.00, 
1799.00, 
1800.00, 
1801.00, 
1802.00, 
1803.00, 
1804.00, 
1805.00, 
1806.00, 
1807.00, 
1808.00, 
1809.00, 
1810.00, 
1811.00, 
1812.00, 
1813.00, 
1814.00, 
1815.00, 
1816.00, 
1817.00, 
1818.00, 
1819.00, 
1820.00, 
1821.00, 
1822.00, 
1823.00, 
1824.00, 
1825.00, 
1826.00, 
1827.00, 
1828.00, 
1829.00, 
1830.00, 
1831.00, 
1832.00, 
1833.00, 
1834.00, 
1835.00, 
1836.00, 
1837.00, 
1838.00, 
1839.00, 
1840.00, 
1841.00, 
1842.00, 
1843.00, 
1844.00, 
1845.00, 
1846.00, 
1847.00, 
1848.00, 
1849.00, 
1850.00, 
1851.00, 
1852.00, 
1853.00, 
1854.00, 
1855.00, 
1856.00, 
1857.00, 
1858.00, 
1859.00, 
1860.00, 
1861.00, 
1862.00, 
1863.00, 
1864.00, 
1865.00, 
1866.00, 
1867.00, 
1868.00, 
1869.00, 
1870.00, 
1871.00, 
1872.00, 
1873.00, 
1874.00, 
1875.00, 
1876.00, 
1877.00, 
1878.00, 
1879.00, 
1880.00, 
1881.00, 
1882.00, 
1883.00, 
1884.00, 
1885.00, 
1886.00, 
1887.00, 
1888.00, 
1889.00, 
1890.00, 
1891.00, 
1892.00, 
1893.00, 
1894.00, 
1895.00, 
1896.00, 
1897.00, 
1898.00, 
1899.00, 
1900.00, 
1901.00, 
1902.00, 
1903.00, 
1904.00, 
1905.00, 
1906.00, 
1907.00, 
1908.00, 
1909.00, 
1910.00, 
1911.00, 
1912.00, 
1913.00, 
1914.00, 
1915.00, 
1916.00, 
1917.00, 
1918.00, 
1919.00, 
1920.00, 
1921.00, 
1922.00, 
1923.00, 
1924.00, 
1925.00, 
1926.00, 
1927.00, 
1928.00, 
1929.00, 
1930.00, 
1931.00, 
1932.00, 
1933.00, 
1934.00, 
1935.00, 
1936.00, 
1937.00, 
1938.00, 
1939.00, 
1940.00, 
1941.00, 
1942.00, 
1943.00, 
1944.00, 
1945.00, 
1946.00, 
1947.00, 
1948.00, 
1949.00, 
1950.00, 
1951.00, 
1952.00, 
1953.00, 
1954.00, 
1955.00, 
1956.00, 
1957.00, 
1958.00, 
1959.00, 
1960.00, 
1961.00, 
1962.00, 
1963.00, 
1964.00, 
1965.00, 
1966.00, 
1967.00, 
1968.00, 
1969.00, 
1970.00, 
1971.00, 
1972.00, 
1973.00, 
1974.00, 
1975.00, 
1976.00, 
1977.00, 
1978.00, 
1979.00, 
1980.00, 
1981.00, 
1982.00, 
1983.00, 
1984.00, 
1985.00, 
1986.00, 
1987.00, 
1988.00, 
1989.00, 
1990.00, 
1991.00, 
1992.00, 
1993.00, 
1994.00, 
1995.00, 
1996.00, 
1997.00, 
1998.00, 
1999.00, 
2000.00, 
2001.00, 
2002.00, 
2003.00, 
2004.00, 
2005.00, 
2006.00, 
2007.00, 
2008.00, 
2009.00, 
2010.00, 
2011.00, 
2012.00, 
2013.00, 
2014.00, 
2015.00, 
2016.00, 
2017.00, 
2018.00, 
2019.00, 
2020.00, 
2021.00, 
2022.00, 
2023.00, 
2024.00, 
2025.00, 
2026.00, 
2027.00, 
2028.00, 
2029.00, 
2030.00, 
2031.00, 
2032.00, 
2033.00, 
2034.00, 
2035.00, 
2036.00, 
2037.00, 
2038.00, 
2039.00, 
2040.00, 
2041.00, 
2042.00, 
2043.00, 
2044.00, 
2045.00, 
2046.00, 
2047.00, 
2048.00, 
2049.00, 
2050.00, 
2051.00, 
2052.00, 
2053.00, 
2054.00, 
2055.00, 
2056.00, 
2057.00, 
2058.00, 
2059.00, 
2060.00, 
2061.00, 
2062.00, 
2063.00, 
2064.00, 
2065.00, 
2066.00, 
2067.00, 
2068.00, 
2069.00, 
2070.00, 
2071.00, 
2072.00, 
2073.00, 
2074.00, 
2075.00, 
2076.00, 
2077.00, 
2078.00, 
2079.00, 
2080.00, 
2081.00, 
2082.00, 
2083.00, 
2084.00, 
2085.00, 
2086.00, 
2087.00, 
2088.00, 
2089.00, 
2090.00, 
2091.00, 
2092.00, 
2093.00, 
2094.00, 
2095.00, 
2096.00, 
2097.00, 
2098.00, 
2099.00, 
2100.00, 
2101.00, 
2102.00, 
2103.00, 
2104.00, 
2105.00, 
2106.00, 
2107.00, 
2108.00, 
2109.00, 
2110.00, 
2111.00, 
2112.00, 
2113.00, 
2114.00, 
2115.00, 
2116.00, 
2117.00, 
2118.00, 
2119.00, 
2120.00, 
2121.00, 
2122.00, 
2123.00, 
2124.00, 
2125.00, 
2126.00, 
2127.00, 
2128.00, 
2129.00, 
2130.00, 
2131.00, 
2132.00, 
2133.00, 
2134.00, 
2135.00, 
2136.00, 
2137.00, 
2138.00, 
2139.00, 
2140.00, 
2141.00, 
2142.00, 
2143.00, 
2144.00, 
2145.00, 
2146.00, 
2147.00, 
2148.00, 
2149.00, 
2150.00, 
2151.00, 
2152.00, 
2153.00, 
2154.00, 
2155.00, 
2156.00, 
2157.00, 
2158.00, 
2159.00, 
2160.00, 
2161.00, 
2162.00, 
2163.00, 
2164.00, 
2165.00, 
2166.00, 
2167.00, 
2168.00, 
2169.00, 
2170.00, 
2171.00, 
2172.00, 
2173.00, 
2174.00, 
2175.00, 
2176.00, 
2177.00, 
2178.00, 
2179.00, 
2180.00, 
2181.00, 
2182.00, 
2183.00, 
2184.00, 
2185.00, 
2186.00, 
2187.00, 
2188.00, 
2189.00, 
2190.00, 
2191.00, 
2192.00, 
2193.00, 
2194.00, 
2195.00, 
2196.00, 
2197.00, 
2198.00, 
2199.00, 
2200.00, 
2201.00, 
2202.00, 
2203.00, 
2204.00, 
2205.00, 
2206.00, 
2207.00, 
2208.00, 
2209.00, 
2210.00, 
2211.00, 
2212.00, 
2213.00, 
2214.00, 
2215.00, 
2216.00, 
2217.00, 
2218.00, 
2219.00, 
2220.00, 
2221.00, 
2222.00, 
2223.00, 
2224.00, 
2225.00, 
2226.00, 
2227.00, 
2228.00, 
2229.00, 
2230.00, 
2231.00, 
2232.00, 
2233.00, 
2234.00, 
2235.00, 
2236.00, 
2237.00, 
2238.00, 
2239.00, 
2240.00, 
2241.00, 
2242.00, 
2243.00, 
2244.00, 
2245.00, 
2246.00, 
2247.00, 
2248.00, 
2249.00, 
2250.00, 
2251.00, 
2252.00, 
2253.00, 
2254.00, 
2255.00, 
2256.00, 
2257.00, 
2258.00, 
2259.00, 
2260.00, 
2261.00, 
2262.00, 
2263.00, 
2264.00, 
2265.00, 
2266.00, 
2267.00, 
2268.00, 
2269.00, 
2270.00, 
2271.00, 
2272.00, 
2273.00, 
2274.00, 
2275.00, 
2276.00, 
2277.00, 
2278.00, 
2279.00, 
2280.00, 
2281.00, 
2282.00, 
2283.00, 
2284.00, 
2285.00, 
2286.00, 
2287.00, 
2288.00, 
2289.00, 
2290.00, 
2291.00, 
2292.00, 
2293.00, 
2294.00, 
2295.00, 
2296.00, 
2297.00, 
2298.00, 
2299.00, 
2300.00, 
2301.00, 
2302.00, 
2303.00, 
2304.00, 
2305.00, 
2306.00, 
2307.00, 
2308.00, 
2309.00, 
2310.00, 
2311.00, 
2312.00, 
2313.00, 
2314.00, 
2315.00, 
2316.00, 
2317.00, 
2318.00, 
2319.00, 
2320.00, 
2321.00, 
2322.00, 
2323.00, 
2324.00, 
2325.00, 
2326.00, 
2327.00, 
2328.00, 
2329.00, 
2330.00, 
2331.00, 
2332.00, 
2333.00, 
2334.00, 
2335.00, 
2336.00, 
2337.00, 
2338.00, 
2339.00, 
2340.00, 
2341.00, 
2342.00, 
2343.00, 
2344.00, 
2345.00, 
2346.00, 
2347.00, 
2348.00, 
2349.00, 
2350.00, 
2351.00, 
2352.00, 
2353.00, 
2354.00, 
2355.00, 
2356.00, 
2357.00, 
2358.00, 
2359.00, 
2360.00, 
2361.00, 
2362.00, 
2363.00, 
2364.00, 
2365.00, 
2366.00, 
2367.00, 
2368.00, 
2369.00, 
2370.00, 
2371.00, 
2372.00, 
2373.00, 
2374.00, 
2375.00, 
2376.00, 
2377.00, 
2378.00, 
2379.00, 
2380.00, 
2381.00, 
2382.00, 
2383.00, 
2384.00, 
2385.00, 
2386.00, 
2387.00, 
2388.00, 
2389.00, 
2390.00, 
2391.00, 
2392.00, 
2393.00, 
2394.00, 
2395.00, 
2396.00, 
2397.00, 
2398.00, 
2399.00, 
2400.00, 
2401.00, 
2402.00, 
2403.00, 
2404.00, 
2405.00, 
2406.00, 
2407.00, 
2408.00, 
2409.00, 
2410.00, 
2411.00, 
2412.00, 
2413.00, 
2414.00, 
2415.00, 
2416.00, 
2417.00, 
2418.00, 
2419.00, 
2420.00, 
2421.00, 
2422.00, 
2423.00, 
2424.00, 
2425.00, 
2426.00, 
2427.00, 
2428.00, 
2429.00, 
2430.00, 
2431.00, 
2432.00, 
2433.00, 
2434.00, 
2435.00, 
2436.00, 
2437.00, 
2438.00, 
2439.00, 
2440.00, 
2441.00, 
2442.00, 
2443.00, 
2444.00, 
2445.00, 
2446.00, 
2447.00, 
2448.00, 
2449.00, 
2450.00, 
2451.00, 
2452.00, 
2453.00, 
2454.00, 
2455.00, 
2456.00, 
2457.00, 
2458.00, 
2459.00, 
2460.00, 
2461.00, 
2462.00, 
2463.00, 
2464.00, 
2465.00, 
2466.00, 
2467.00, 
2468.00, 
2469.00, 
2470.00, 
2471.00, 
2472.00, 
2473.00, 
2474.00, 
2475.00, 
2476.00, 
2477.00, 
2478.00, 
2479.00, 
2480.00, 
2481.00, 
2482.00, 
2483.00, 
2484.00, 
2485.00, 
2486.00, 
2487.00, 
2488.00, 
2489.00, 
2490.00, 
2491.00, 
2492.00, 
2493.00, 
2494.00, 
2495.00, 
2496.00, 
2497.00, 
2498.00, 
2499.00, 
2500.00, 
2501.00, 
2502.00, 
2503.00, 
2504.00, 
2505.00, 
2506.00, 
2507.00, 
2508.00, 
2509.00, 
2510.00, 
2511.00, 
2512.00, 
2513.00, 
2514.00, 
2515.00, 
2516.00, 
2517.00, 
2518.00, 
2519.00, 
2520.00, 
2521.00, 
2522.00, 
2523.00, 
2524.00, 
2525.00, 
2526.00, 
2527.00, 
2528.00, 
2529.00, 
2530.00, 
2531.00, 
2532.00, 
2533.00, 
2534.00, 
2535.00, 
2536.00, 
2537.00, 
2538.00, 
2539.00, 
2540.00, 
2541.00, 
2542.00, 
2543.00, 
2544.00, 
2545.00, 
2546.00, 
2547.00, 
2548.00, 
2549.00, 
2550.00, 
2551.00, 
2552.00, 
2553.00, 
2554.00, 
2555.00, 
2556.00, 
2557.00, 
2558.00, 
2559.00, 
2560.00, 
2561.00, 
2562.00, 
2563.00, 
2564.00, 
2565.00, 
2566.00, 
2567.00, 
2568.00, 
2569.00, 
2570.00, 
2571.00, 
2572.00, 
2573.00, 
2574.00, 
2575.00, 
2576.00, 
2577.00, 
2578.00, 
2579.00, 
2580.00, 
2581.00, 
2582.00, 
2583.00, 
2584.00, 
2585.00, 
2586.00, 
2587.00, 
2588.00, 
2589.00, 
2590.00, 
2591.00, 
2592.00, 
2593.00, 
2594.00, 
2595.00, 
2596.00, 
2597.00, 
2598.00, 
2599.00, 
2600.00, 
