"1cP2 - RawData"
"Wavelength nm.","T%"
200.00,0.002
201.00,0.001
202.00,0.001
203.00,-0.000
204.00,0.003
205.00,0.002
206.00,-0.000
207.00,0.002
208.00,-0.000
209.00,0.003
210.00,-0.000
211.00,0.002
212.00,0.000
213.00,0.000
214.00,0.001
215.00,-0.000
216.00,0.001
217.00,0.002
218.00,0.002
219.00,0.003
220.00,0.000
221.00,0.000
222.00,0.001
223.00,-0.004
224.00,-0.001
225.00,-0.001
226.00,0.000
227.00,0.001
228.00,-0.000
229.00,0.002
230.00,-0.001
231.00,0.001
232.00,-0.000
233.00,0.001
234.00,0.001
235.00,-0.000
236.00,0.001
237.00,0.000
238.00,-0.000
239.00,0.001
240.00,0.001
241.00,0.001
242.00,-0.001
243.00,-0.000
244.00,-0.001
245.00,0.001
246.00,0.001
247.00,-0.000
248.00,0.000
249.00,-0.000
250.00,0.001
251.00,0.000
252.00,0.001
253.00,0.002
254.00,0.001
255.00,0.000
256.00,0.001
257.00,-0.000
258.00,-0.000
259.00,-0.001
260.00,-0.001
261.00,0.000
262.00,-0.001
263.00,0.000
264.00,-0.002
265.00,-0.000
266.00,0.000
267.00,-0.001
268.00,0.001
269.00,0.001
270.00,0.001
271.00,-0.000
272.00,-0.000
273.00,0.000
274.00,-0.001
275.00,0.000
276.00,0.001
277.00,0.000
278.00,0.001
279.00,-0.000
280.00,-0.001
281.00,0.000
282.00,0.001
283.00,0.001
284.00,-0.001
285.00,0.001
286.00,-0.000
287.00,-0.001
288.00,-0.000
289.00,-0.002
290.00,-0.001
291.00,-0.001
292.00,-0.000
293.00,-0.000
294.00,0.001
295.00,-0.001
296.00,-0.000
297.00,0.001
298.00,-0.000
299.00,-0.000
300.00,0.001
301.00,0.001
302.00,0.002
303.00,-0.000
304.00,0.001
305.00,0.002
306.00,0.003
307.00,0.005
308.00,0.008
309.00,0.016
310.00,0.025
311.00,0.040
312.00,0.057
313.00,0.088
314.00,0.138
315.00,0.195
316.00,0.290
317.00,0.398
318.00,0.548
319.00,0.747
320.00,0.990
321.00,1.291
322.00,1.634
323.00,2.077
324.00,2.574
325.00,3.105
326.00,3.677
327.00,4.378
328.00,5.165
329.00,5.868
330.00,6.790
331.00,7.688
332.00,8.688
333.00,9.687
334.00,10.711
335.00,11.779
336.00,12.883
337.00,14.007
338.00,15.155
339.00,16.202
340.00,17.305
341.00,18.362
342.00,19.369
343.00,20.410
344.00,21.440
345.00,22.375
346.00,23.247
347.00,24.064
348.00,24.958
349.00,25.709
350.00,26.450
351.00,27.175
352.00,27.752
353.00,28.437
354.00,29.047
355.00,29.646
356.00,30.126
357.00,30.593
358.00,31.106
359.00,31.604
360.00,32.077
361.00,32.307
362.00,32.727
363.00,33.000
364.00,33.242
365.00,33.477
366.00,33.730
367.00,33.961
368.00,34.028
369.00,34.211
370.00,34.384
371.00,34.409
372.00,34.413
373.00,34.564
374.00,34.578
375.00,34.478
376.00,34.467
377.00,34.348
378.00,34.242
379.00,34.144
380.00,34.220
381.00,34.136
382.00,34.187
383.00,34.320
384.00,34.402
385.00,34.589
386.00,34.636
387.00,34.930
388.00,34.975
389.00,35.080
390.00,35.238
391.00,35.304
392.00,35.412
393.00,35.458
394.00,35.515
395.00,35.661
396.00,35.631
397.00,35.705
398.00,35.721
399.00,35.736
400.00,35.811
401.00,35.810
402.00,35.817
403.00,35.807
404.00,35.824
405.00,35.754
406.00,35.784
407.00,35.708
408.00,35.756
409.00,35.648
410.00,35.557
411.00,35.557
412.00,35.473
413.00,35.523
414.00,35.467
415.00,35.523
416.00,35.590
417.00,35.602
418.00,35.449
419.00,35.579
420.00,35.611
421.00,35.541
422.00,35.556
423.00,35.571
424.00,35.606
425.00,35.639
426.00,35.612
427.00,35.673
428.00,35.692
429.00,35.721
430.00,35.793
431.00,35.848
432.00,35.772
433.00,35.846
434.00,35.884
435.00,35.926
436.00,35.944
437.00,36.016
438.00,36.003
439.00,36.058
440.00,36.129
441.00,36.191
442.00,36.218
443.00,36.296
444.00,36.495
445.00,36.369
446.00,36.489
447.00,36.498
448.00,36.612
449.00,36.717
450.00,36.819
451.00,36.892
452.00,36.895
453.00,37.027
454.00,37.010
455.00,37.143
456.00,37.288
457.00,37.325
458.00,37.383
459.00,37.539
460.00,37.610
461.00,37.695
462.00,37.786
463.00,37.878
464.00,38.008
465.00,38.082
466.00,38.158
467.00,38.252
468.00,38.365
469.00,38.396
470.00,38.441
471.00,38.418
472.00,38.543
473.00,38.556
474.00,38.650
475.00,38.700
476.00,38.694
477.00,38.858
478.00,38.911
479.00,39.077
480.00,39.143
481.00,39.149
482.00,39.209
483.00,39.383
484.00,39.542
485.00,39.774
486.00,39.823
487.00,39.958
488.00,39.999
489.00,40.148
490.00,40.319
491.00,40.395
492.00,40.438
493.00,40.662
494.00,40.773
495.00,40.725
496.00,40.791
497.00,40.897
498.00,40.998
499.00,41.059
500.00,41.169
501.00,41.212
502.00,41.301
503.00,41.456
504.00,41.398
505.00,41.474
506.00,41.638
507.00,41.670
508.00,41.842
509.00,41.909
510.00,42.032
511.00,41.956
512.00,42.109
513.00,42.251
514.00,42.355
515.00,42.441
516.00,42.530
517.00,42.601
518.00,42.719
519.00,42.703
520.00,42.723
521.00,42.845
522.00,42.909
523.00,42.859
524.00,43.034
525.00,43.078
526.00,43.085
527.00,43.129
528.00,43.164
529.00,43.345
530.00,43.499
531.00,43.590
532.00,43.644
533.00,43.802
534.00,43.763
535.00,43.802
536.00,43.903
537.00,43.974
538.00,43.957
539.00,44.009
540.00,44.076
541.00,44.104
542.00,44.139
543.00,44.174
544.00,44.264
545.00,44.283
546.00,44.324
547.00,44.422
548.00,44.556
549.00,44.556
550.00,44.610
551.00,44.698
552.00,44.754
553.00,44.758
554.00,44.766
555.00,44.770
556.00,44.881
557.00,44.926
558.00,44.989
559.00,45.041
560.00,45.062
561.00,45.154
562.00,45.196
563.00,45.194
564.00,45.198
565.00,45.317
566.00,45.303
567.00,45.290
568.00,45.259
569.00,45.318
570.00,45.281
571.00,45.420
572.00,45.425
573.00,45.367
574.00,45.397
575.00,45.383
576.00,45.379
577.00,45.416
578.00,45.520
579.00,45.588
580.00,45.616
581.00,45.791
582.00,45.826
583.00,45.787
584.00,45.919
585.00,45.915
586.00,46.016
587.00,46.094
588.00,46.043
589.00,45.967
590.00,46.068
591.00,46.121
592.00,46.167
593.00,46.167
594.00,46.101
595.00,46.222
596.00,46.232
597.00,46.290
598.00,46.405
599.00,46.330
600.00,46.380
601.00,46.365
602.00,46.325
603.00,46.373
604.00,46.392
605.00,46.505
606.00,46.534
607.00,46.465
608.00,46.627
609.00,46.675
610.00,46.387
611.00,46.565
612.00,46.639
613.00,46.611
614.00,46.731
615.00,46.718
616.00,46.776
617.00,46.735
618.00,46.677
619.00,46.706
620.00,46.738
621.00,46.799
622.00,46.829
623.00,46.921
624.00,47.007
625.00,46.943
626.00,46.900
627.00,46.996
628.00,46.976
629.00,47.020
630.00,47.030
631.00,47.021
632.00,47.110
633.00,47.194
634.00,47.225
635.00,47.240
636.00,47.218
637.00,47.208
638.00,47.291
639.00,47.326
640.00,47.203
641.00,47.144
642.00,47.392
643.00,47.424
644.00,47.456
645.00,47.513
646.00,47.665
647.00,47.668
648.00,47.563
649.00,47.591
650.00,47.587
651.00,47.793
652.00,47.794
653.00,47.639
654.00,47.701
655.00,47.869
656.00,48.144
657.00,47.913
658.00,47.968
659.00,47.887
660.00,48.051
661.00,47.950
662.00,47.956
663.00,48.032
664.00,48.138
665.00,48.405
666.00,48.554
667.00,48.269
668.00,48.170
669.00,48.382
670.00,48.613
671.00,48.437
672.00,48.586
673.00,48.534
674.00,48.485
675.00,48.569
676.00,48.688
677.00,48.809
678.00,48.530
679.00,48.691
680.00,48.880
681.00,48.868
682.00,48.579
683.00,48.477
684.00,49.025
685.00,49.142
686.00,48.782
687.00,48.796
688.00,48.912
689.00,48.800
690.00,48.999
691.00,49.302
692.00,48.910
693.00,48.775
694.00,49.008
695.00,49.112
696.00,48.937
697.00,48.913
698.00,49.090
699.00,49.273
700.00,49.222
701.00,49.213
702.00,49.353
703.00,49.455
704.00,49.409
705.00,49.205
706.00,49.274
707.00,49.371
708.00,49.205
709.00,49.510
710.00,49.880
711.00,49.336
712.00,49.302
713.00,49.477
714.00,49.539
715.00,49.471
716.00,49.397
717.00,49.495
718.00,49.735
719.00,49.604
720.00,49.567
721.00,54.229
722.00,54.220
723.00,54.169
724.00,54.171
725.00,54.083
726.00,54.093
727.00,54.071
728.00,54.083
729.00,53.958
730.00,53.972
731.00,53.955
732.00,53.885
733.00,53.941
734.00,53.892
735.00,53.882
736.00,53.810
737.00,53.850
738.00,53.875
739.00,53.828
740.00,53.786
741.00,53.777
742.00,53.763
743.00,53.731
744.00,53.691
745.00,53.741
746.00,53.633
747.00,53.568
748.00,53.535
749.00,53.481
750.00,53.515
751.00,53.369
752.00,53.358
753.00,53.363
754.00,53.335
755.00,53.254
756.00,53.231
757.00,53.227
758.00,53.244
759.00,53.222
760.00,53.172
761.00,53.158
762.00,53.198
763.00,53.169
764.00,53.048
765.00,53.043
766.00,53.040
767.00,53.062
768.00,52.965
769.00,52.993
770.00,52.891
771.00,52.882
772.00,52.956
773.00,52.868
774.00,52.839
775.00,52.893
776.00,52.764
777.00,52.894
778.00,52.757
779.00,52.806
780.00,52.714
781.00,52.716
782.00,52.658
783.00,52.614
784.00,52.666
785.00,52.572
786.00,52.554
787.00,52.487
788.00,52.557
789.00,52.396
790.00,52.434
791.00,52.401
792.00,52.327
793.00,52.371
794.00,52.259
795.00,52.270
796.00,52.272
797.00,52.165
798.00,52.256
799.00,52.145
800.00,52.110
801.00,52.089
802.00,52.095
803.00,51.986
804.00,51.999
805.00,51.957
806.00,51.983
807.00,51.848
808.00,51.910
809.00,51.849
810.00,51.778
811.00,51.808
812.00,51.865
813.00,51.690
814.00,51.745
815.00,51.646
816.00,51.732
817.00,51.622
818.00,51.596
819.00,51.572
820.00,51.542
821.00,51.556
822.00,51.538
823.00,51.374
824.00,51.428
825.00,51.361
826.00,51.348
827.00,51.440
828.00,51.345
829.00,51.401
830.00,51.395
831.00,53.672
832.00,53.754
833.00,53.609
834.00,53.600
835.00,53.586
836.00,53.584
837.00,53.505
838.00,53.517
839.00,53.479
840.00,53.379
841.00,53.417
842.00,53.373
843.00,53.348
844.00,53.301
845.00,53.277
846.00,53.274
847.00,53.213
848.00,53.198
849.00,53.157
850.00,53.100
851.00,53.023
852.00,53.028
853.00,53.000
854.00,52.955
855.00,52.926
856.00,52.906
857.00,52.872
858.00,52.793
859.00,52.854
860.00,52.814
861.00,52.799
862.00,52.739
863.00,52.723
864.00,52.707
865.00,52.743
866.00,52.683
867.00,52.673
868.00,52.638
869.00,52.624
870.00,52.602
871.00,52.557
872.00,52.556
873.00,52.523
874.00,52.511
875.00,52.490
876.00,52.495
877.00,52.454
878.00,52.473
879.00,52.417
880.00,52.400
881.00,52.407
882.00,52.424
883.00,52.323
884.00,52.290
885.00,52.292
886.00,52.301
887.00,52.253
888.00,52.200
889.00,52.361
890.00,52.210
891.00,52.159
892.00,52.154
893.00,52.103
894.00,52.136
895.00,52.063
896.00,52.065
897.00,52.038
898.00,51.997
899.00,51.979
900.00,51.977
901.00,51.924
902.00,51.978
903.00,51.903
904.00,51.898
905.00,51.891
906.00,51.881
907.00,51.851
908.00,51.807
909.00,51.811
910.00,51.757
911.00,51.722
912.00,51.740
913.00,51.678
914.00,51.653
915.00,51.720
916.00,51.571
917.00,51.625
918.00,51.598
919.00,51.572
920.00,51.510
921.00,51.544
922.00,51.515
923.00,51.491
924.00,51.467
925.00,51.470
926.00,51.406
927.00,51.402
928.00,51.363
929.00,51.376
930.00,51.337
931.00,51.304
932.00,51.272
933.00,51.278
934.00,51.242
935.00,51.234
936.00,51.196
937.00,51.189
938.00,51.183
939.00,51.145
940.00,51.131
941.00,51.134
942.00,51.086
943.00,51.071
944.00,51.117
945.00,51.046
946.00,51.014
947.00,50.994
948.00,50.956
949.00,50.952
950.00,50.920
951.00,50.891
952.00,50.866
953.00,50.807
954.00,50.797
955.00,50.769
956.00,50.760
957.00,50.702
958.00,50.711
959.00,50.700
960.00,50.673
961.00,50.645
962.00,50.647
963.00,50.611
964.00,50.609
965.00,50.617
966.00,50.585
967.00,50.582
968.00,50.543
969.00,50.574
970.00,50.529
971.00,50.549
972.00,50.496
973.00,50.550
974.00,50.573
975.00,50.517
976.00,50.538
977.00,50.443
978.00,50.562
979.00,50.518
980.00,50.553
981.00,50.547
982.00,50.530
983.00,50.536
984.00,50.520
985.00,50.551
986.00,50.488
987.00,50.521
988.00,50.466
989.00,50.474
990.00,50.466
991.00,50.448
992.00,50.477
993.00,50.429
994.00,50.398
995.00,50.397
996.00,50.386
997.00,50.358
998.00,50.345
999.00,50.362
1000.00,50.300
1001.00,50.313
1002.00,50.300
1003.00,50.286
1004.00,50.247
1005.00,50.229
1006.00,50.276
1007.00,50.247
1008.00,50.208
1009.00,50.202
1010.00,50.210
1011.00,50.188
1012.00,50.159
1013.00,50.172
1014.00,50.123
1015.00,50.138
1016.00,50.082
1017.00,50.104
1018.00,50.076
1019.00,50.027
1020.00,50.062
1021.00,50.016
1022.00,50.019
1023.00,49.969
1024.00,49.979
1025.00,49.947
1026.00,49.944
1027.00,49.908
1028.00,49.907
1029.00,49.890
1030.00,49.845
1031.00,49.890
1032.00,49.850
1033.00,49.855
1034.00,49.824
1035.00,49.790
1036.00,49.766
1037.00,49.747
1038.00,49.746
1039.00,49.699
1040.00,49.706
1041.00,49.650
1042.00,49.661
1043.00,49.628
1044.00,49.648
1045.00,49.632
1046.00,49.629
1047.00,49.661
1048.00,49.658
1049.00,49.661
1050.00,49.669
1051.00,49.715
1052.00,49.692
1053.00,49.719
1054.00,49.703
1055.00,49.736
1056.00,49.748
1057.00,49.742
1058.00,49.722
1059.00,49.728
1060.00,49.776
1061.00,49.720
1062.00,49.705
1063.00,49.715
1064.00,49.704
1065.00,49.672
1066.00,49.691
1067.00,49.675
1068.00,49.700
1069.00,49.660
1070.00,49.654
1071.00,49.608
1072.00,49.645
1073.00,49.624
1074.00,49.619
1075.00,49.605
1076.00,49.602
1077.00,49.581
1078.00,49.573
1079.00,49.591
1080.00,49.606
1081.00,49.593
1082.00,49.548
1083.00,49.555
1084.00,49.553
1085.00,49.528
1086.00,49.534
1087.00,49.533
1088.00,49.505
1089.00,49.500
1090.00,49.494
1091.00,49.496
1092.00,49.483
1093.00,49.459
1094.00,49.448
1095.00,49.450
1096.00,49.411
1097.00,49.429
1098.00,49.408
1099.00,49.400
1100.00,49.398
1101.00,49.388
1102.00,49.375
1103.00,49.384
1104.00,49.354
1105.00,49.356
1106.00,49.351
1107.00,49.342
1108.00,49.340
1109.00,49.336
1110.00,49.326
1111.00,49.323
1112.00,49.307
1113.00,49.298
1114.00,49.290
1115.00,49.274
1116.00,49.271
1117.00,49.272
1118.00,49.240
1119.00,49.268
1120.00,49.251
1121.00,49.247
1122.00,49.239
1123.00,49.245
1124.00,49.235
1125.00,49.232
1126.00,49.218
1127.00,49.236
1128.00,49.204
1129.00,49.179
1130.00,49.184
1131.00,49.171
1132.00,49.160
1133.00,49.175
1134.00,49.142
1135.00,49.135
1136.00,49.161
1137.00,49.152
1138.00,49.146
1139.00,49.165
1140.00,49.137
1141.00,49.139
1142.00,49.112
1143.00,49.132
1144.00,49.111
1145.00,49.106
1146.00,49.113
1147.00,49.112
1148.00,49.092
1149.00,49.116
1150.00,49.126
1151.00,49.109
1152.00,49.105
1153.00,49.114
1154.00,49.093
1155.00,49.104
1156.00,49.094
1157.00,49.111
1158.00,49.107
1159.00,49.097
1160.00,49.089
1161.00,49.107
1162.00,49.085
1163.00,49.100
1164.00,49.099
1165.00,49.093
1166.00,49.094
1167.00,49.073
1168.00,49.089
1169.00,49.071
1170.00,49.057
1171.00,49.050
1172.00,49.077
1173.00,49.059
1174.00,49.062
1175.00,49.061
1176.00,49.055
1177.00,49.045
1178.00,49.047
1179.00,49.065
1180.00,49.051
1181.00,49.065
1182.00,49.062
1183.00,49.080
1184.00,49.055
1185.00,49.080
1186.00,49.058
1187.00,49.068
1188.00,49.061
1189.00,49.048
1190.00,49.043
1191.00,49.038
1192.00,49.048
1193.00,49.038
1194.00,49.053
1195.00,49.015
1196.00,49.054
1197.00,49.037
1198.00,49.031
1199.00,49.041
1200.00,49.048
1201.00,49.078
1202.00,49.072
1203.00,49.049
1204.00,49.048
1205.00,49.082
1206.00,49.065
1207.00,49.063
1208.00,49.048
1209.00,49.059
1210.00,49.057
1211.00,49.048
1212.00,49.083
1213.00,49.055
1214.00,49.057
1215.00,49.049
1216.00,49.093
1217.00,49.047
1218.00,49.043
1219.00,49.083
1220.00,49.054
1221.00,49.062
1222.00,49.043
1223.00,49.067
1224.00,49.070
1225.00,49.048
1226.00,49.072
1227.00,49.066
1228.00,49.067
1229.00,49.081
1230.00,49.106
1231.00,49.102
1232.00,49.114
1233.00,49.115
1234.00,49.125
1235.00,49.138
1236.00,49.117
1237.00,49.137
1238.00,49.124
1239.00,49.112
1240.00,49.118
1241.00,49.149
1242.00,49.150
1243.00,49.159
1244.00,49.147
1245.00,49.184
1246.00,49.185
1247.00,49.155
1248.00,49.171
1249.00,49.187
1250.00,49.169
1251.00,49.173
1252.00,49.175
1253.00,49.157
1254.00,49.189
1255.00,49.170
1256.00,49.173
1257.00,49.155
1258.00,49.195
1259.00,49.199
1260.00,49.235
1261.00,49.211
1262.00,49.216
1263.00,49.211
1264.00,49.212
1265.00,49.221
1266.00,49.211
1267.00,49.226
1268.00,49.231
1269.00,49.243
1270.00,49.259
1271.00,49.262
1272.00,49.257
1273.00,49.285
1274.00,49.263
1275.00,49.282
1276.00,49.276
1277.00,49.293
1278.00,49.309
1279.00,49.327
1280.00,49.320
1281.00,49.346
1282.00,49.362
1283.00,49.333
1284.00,49.345
1285.00,49.339
1286.00,49.362
1287.00,49.352
1288.00,49.347
1289.00,49.340
1290.00,49.376
1291.00,49.355
1292.00,49.387
1293.00,49.391
1294.00,49.384
1295.00,49.414
1296.00,49.396
1297.00,49.396
1298.00,49.445
1299.00,49.407
1300.00,49.425
1301.00,49.420
1302.00,49.440
1303.00,49.463
1304.00,49.443
1305.00,49.470
1306.00,49.494
1307.00,49.489
1308.00,49.489
1309.00,49.509
1310.00,49.475
1311.00,49.466
1312.00,49.496
1313.00,49.494
1314.00,49.515
1315.00,49.550
1316.00,49.536
1317.00,49.569
1318.00,49.557
1319.00,49.549
1320.00,49.565
1321.00,49.748
1322.00,49.735
1323.00,49.726
1324.00,49.710
1325.00,49.708
1326.00,49.733
1327.00,49.709
1328.00,49.714
1329.00,49.730
1330.00,49.739
1331.00,49.747
1332.00,49.739
1333.00,49.759
1334.00,49.792
1335.00,49.796
1336.00,49.832
1337.00,49.875
1338.00,49.930
1339.00,49.967
1340.00,50.030
1341.00,50.087
1342.00,50.157
1343.00,50.185
1344.00,50.249
1345.00,50.308
1346.00,50.332
1347.00,50.366
1348.00,50.398
1349.00,50.416
1350.00,50.434
1351.00,50.448
1352.00,50.450
1353.00,50.478
1354.00,50.468
1355.00,50.437
1356.00,50.479
1357.00,50.460
1358.00,50.523
1359.00,50.481
1360.00,50.516
1361.00,50.516
1362.00,50.461
1363.00,50.525
1364.00,50.546
1365.00,50.490
1366.00,50.539
1367.00,50.517
1368.00,50.470
1369.00,50.529
1370.00,50.498
1371.00,50.450
1372.00,50.490
1373.00,50.516
1374.00,50.529
1375.00,50.528
1376.00,50.510
1377.00,50.480
1378.00,50.603
1379.00,50.536
1380.00,50.511
1381.00,50.579
1382.00,50.507
1383.00,50.517
1384.00,50.456
1385.00,50.455
1386.00,50.535
1387.00,50.478
1388.00,50.454
1389.00,50.466
1390.00,50.503
1391.00,50.495
1392.00,50.458
1393.00,50.537
1394.00,50.522
1395.00,50.440
1396.00,50.435
1397.00,50.544
1398.00,50.601
1399.00,50.539
1400.00,50.495
1401.00,50.480
1402.00,50.610
1403.00,50.520
1404.00,50.535
1405.00,50.555
1406.00,50.581
1407.00,50.555
1408.00,50.582
1409.00,50.534
1410.00,50.597
1411.00,50.580
1412.00,50.638
1413.00,50.589
1414.00,50.585
1415.00,50.625
1416.00,50.631
1417.00,50.685
1418.00,50.665
1419.00,50.678
1420.00,50.693
1421.00,50.743
1422.00,50.744
1423.00,50.748
1424.00,50.742
1425.00,50.765
1426.00,50.762
1427.00,50.805
1428.00,50.801
1429.00,50.820
1430.00,50.829
1431.00,50.841
1432.00,50.868
1433.00,50.886
1434.00,50.860
1435.00,50.924
1436.00,50.928
1437.00,50.914
1438.00,50.943
1439.00,50.983
1440.00,50.983
1441.00,51.000
1442.00,51.002
1443.00,51.053
1444.00,51.116
1445.00,51.054
1446.00,51.095
1447.00,51.119
1448.00,51.149
1449.00,51.171
1450.00,51.169
1451.00,51.178
1452.00,51.208
1453.00,51.225
1454.00,51.233
1455.00,51.258
1456.00,51.283
1457.00,51.273
1458.00,51.295
1459.00,51.320
1460.00,51.344
1461.00,51.359
1462.00,51.406
1463.00,51.402
1464.00,51.401
1465.00,51.420
1466.00,51.442
1467.00,51.456
1468.00,51.508
1469.00,51.473
1470.00,51.490
1471.00,51.525
1472.00,51.533
1473.00,51.558
1474.00,51.597
1475.00,51.590
1476.00,51.628
1477.00,51.607
1478.00,51.637
1479.00,51.649
1480.00,51.655
1481.00,51.669
1482.00,51.706
1483.00,51.720
1484.00,51.712
1485.00,51.731
1486.00,51.742
1487.00,51.758
1488.00,51.786
1489.00,51.737
1490.00,51.774
1491.00,51.797
1492.00,51.847
1493.00,51.809
1494.00,51.857
1495.00,51.842
1496.00,51.883
1497.00,51.854
1498.00,51.888
1499.00,51.904
1500.00,51.919
1501.00, 
1502.00, 
1503.00, 
1504.00, 
1505.00, 
1506.00, 
1507.00, 
1508.00, 
1509.00, 
1510.00, 
1511.00, 
1512.00, 
1513.00, 
1514.00, 
1515.00, 
1516.00, 
1517.00, 
1518.00, 
1519.00, 
1520.00, 
1521.00, 
1522.00, 
1523.00, 
1524.00, 
1525.00, 
1526.00, 
1527.00, 
1528.00, 
1529.00, 
1530.00, 
1531.00, 
1532.00, 
1533.00, 
1534.00, 
1535.00, 
1536.00, 
1537.00, 
1538.00, 
1539.00, 
1540.00, 
1541.00, 
1542.00, 
1543.00, 
1544.00, 
1545.00, 
1546.00, 
1547.00, 
1548.00, 
1549.00, 
1550.00, 
1551.00, 
1552.00, 
1553.00, 
1554.00, 
1555.00, 
1556.00, 
1557.00, 
1558.00, 
1559.00, 
1560.00, 
1561.00, 
1562.00, 
1563.00, 
1564.00, 
1565.00, 
1566.00, 
1567.00, 
1568.00, 
1569.00, 
1570.00, 
1571.00, 
1572.00, 
1573.00, 
1574.00, 
1575.00, 
1576.00, 
1577.00, 
1578.00, 
1579.00, 
1580.00, 
1581.00, 
1582.00, 
1583.00, 
1584.00, 
1585.00, 
1586.00, 
1587.00, 
1588.00, 
1589.00, 
1590.00, 
1591.00, 
1592.00, 
1593.00, 
1594.00, 
1595.00, 
1596.00, 
1597.00, 
1598.00, 
1599.00, 
1600.00, 
1601.00, 
1602.00, 
1603.00, 
1604.00, 
1605.00, 
1606.00, 
1607.00, 
1608.00, 
1609.00, 
1610.00, 
1611.00, 
1612.00, 
1613.00, 
1614.00, 
1615.00, 
1616.00, 
1617.00, 
1618.00, 
1619.00, 
1620.00, 
1621.00, 
1622.00, 
1623.00, 
1624.00, 
1625.00, 
1626.00, 
1627.00, 
1628.00, 
1629.00, 
1630.00, 
1631.00, 
1632.00, 
1633.00, 
1634.00, 
1635.00, 
1636.00, 
1637.00, 
1638.00, 
1639.00, 
1640.00, 
1641.00, 
1642.00, 
1643.00, 
1644.00, 
1645.00, 
1646.00, 
1647.00, 
1648.00, 
1649.00, 
1650.00, 
1651.00, 
1652.00, 
1653.00, 
1654.00, 
1655.00, 
1656.00, 
1657.00, 
1658.00, 
1659.00, 
1660.00, 
1661.00, 
1662.00, 
1663.00, 
1664.00, 
1665.00, 
1666.00, 
1667.00, 
1668.00, 
1669.00, 
1670.00, 
1671.00, 
1672.00, 
1673.00, 
1674.00, 
1675.00, 
1676.00, 
1677.00, 
1678.00, 
1679.00, 
1680.00, 
1681.00, 
1682.00, 
1683.00, 
1684.00, 
1685.00, 
1686.00, 
1687.00, 
1688.00, 
1689.00, 
1690.00, 
1691.00, 
1692.00, 
1693.00, 
1694.00, 
1695.00, 
1696.00, 
1697.00, 
1698.00, 
1699.00, 
1700.00, 
1701.00, 
1702.00, 
1703.00, 
1704.00, 
1705.00, 
1706.00, 
1707.00, 
1708.00, 
1709.00, 
1710.00, 
1711.00, 
1712.00, 
1713.00, 
1714.00, 
1715.00, 
1716.00, 
1717.00, 
1718.00, 
1719.00, 
1720.00, 
1721.00, 
1722.00, 
1723.00, 
1724.00, 
1725.00, 
1726.00, 
1727.00, 
1728.00, 
1729.00, 
1730.00, 
1731.00, 
1732.00, 
1733.00, 
1734.00, 
1735.00, 
1736.00, 
1737.00, 
1738.00, 
1739.00, 
1740.00, 
1741.00, 
1742.00, 
1743.00, 
1744.00, 
1745.00, 
1746.00, 
1747.00, 
1748.00, 
1749.00, 
1750.00, 
1751.00, 
1752.00, 
1753.00, 
1754.00, 
1755.00, 
1756.00, 
1757.00, 
1758.00, 
1759.00, 
1760.00, 
1761.00, 
1762.00, 
1763.00, 
1764.00, 
1765.00, 
1766.00, 
1767.00, 
1768.00, 
1769.00, 
1770.00, 
1771.00, 
1772.00, 
1773.00, 
1774.00, 
1775.00, 
1776.00, 
1777.00, 
1778.00, 
1779.00, 
1780.00, 
1781.00, 
1782.00, 
1783.00, 
1784.00, 
1785.00, 
1786.00, 
1787.00, 
1788.00, 
1789.00, 
1790.00, 
1791.00, 
1792.00, 
1793.00, 
1794.00, 
1795.00, 
1796.00, 
1797.00, 
1798.00, 
1799.00, 
1800.00, 
1801.00, 
1802.00, 
1803.00, 
1804.00, 
1805.00, 
1806.00, 
1807.00, 
1808.00, 
1809.00, 
1810.00, 
1811.00, 
1812.00, 
1813.00, 
1814.00, 
1815.00, 
1816.00, 
1817.00, 
1818.00, 
1819.00, 
1820.00, 
1821.00, 
1822.00, 
1823.00, 
1824.00, 
1825.00, 
1826.00, 
1827.00, 
1828.00, 
1829.00, 
1830.00, 
1831.00, 
1832.00, 
1833.00, 
1834.00, 
1835.00, 
1836.00, 
1837.00, 
1838.00, 
1839.00, 
1840.00, 
1841.00, 
1842.00, 
1843.00, 
1844.00, 
1845.00, 
1846.00, 
1847.00, 
1848.00, 
1849.00, 
1850.00, 
1851.00, 
1852.00, 
1853.00, 
1854.00, 
1855.00, 
1856.00, 
1857.00, 
1858.00, 
1859.00, 
1860.00, 
1861.00, 
1862.00, 
1863.00, 
1864.00, 
1865.00, 
1866.00, 
1867.00, 
1868.00, 
1869.00, 
1870.00, 
1871.00, 
1872.00, 
1873.00, 
1874.00, 
1875.00, 
1876.00, 
1877.00, 
1878.00, 
1879.00, 
1880.00, 
1881.00, 
1882.00, 
1883.00, 
1884.00, 
1885.00, 
1886.00, 
1887.00, 
1888.00, 
1889.00, 
1890.00, 
1891.00, 
1892.00, 
1893.00, 
1894.00, 
1895.00, 
1896.00, 
1897.00, 
1898.00, 
1899.00, 
1900.00, 
1901.00, 
1902.00, 
1903.00, 
1904.00, 
1905.00, 
1906.00, 
1907.00, 
1908.00, 
1909.00, 
1910.00, 
1911.00, 
1912.00, 
1913.00, 
1914.00, 
1915.00, 
1916.00, 
1917.00, 
1918.00, 
1919.00, 
1920.00, 
1921.00, 
1922.00, 
1923.00, 
1924.00, 
1925.00, 
1926.00, 
1927.00, 
1928.00, 
1929.00, 
1930.00, 
1931.00, 
1932.00, 
1933.00, 
1934.00, 
1935.00, 
1936.00, 
1937.00, 
1938.00, 
1939.00, 
1940.00, 
1941.00, 
1942.00, 
1943.00, 
1944.00, 
1945.00, 
1946.00, 
1947.00, 
1948.00, 
1949.00, 
1950.00, 
1951.00, 
1952.00, 
1953.00, 
1954.00, 
1955.00, 
1956.00, 
1957.00, 
1958.00, 
1959.00, 
1960.00, 
1961.00, 
1962.00, 
1963.00, 
1964.00, 
1965.00, 
1966.00, 
1967.00, 
1968.00, 
1969.00, 
1970.00, 
1971.00, 
1972.00, 
1973.00, 
1974.00, 
1975.00, 
1976.00, 
1977.00, 
1978.00, 
1979.00, 
1980.00, 
1981.00, 
1982.00, 
1983.00, 
1984.00, 
1985.00, 
1986.00, 
1987.00, 
1988.00, 
1989.00, 
1990.00, 
1991.00, 
1992.00, 
1993.00, 
1994.00, 
1995.00, 
1996.00, 
1997.00, 
1998.00, 
1999.00, 
2000.00, 
2001.00, 
2002.00, 
2003.00, 
2004.00, 
2005.00, 
2006.00, 
2007.00, 
2008.00, 
2009.00, 
2010.00, 
2011.00, 
2012.00, 
2013.00, 
2014.00, 
2015.00, 
2016.00, 
2017.00, 
2018.00, 
2019.00, 
2020.00, 
2021.00, 
2022.00, 
2023.00, 
2024.00, 
2025.00, 
2026.00, 
2027.00, 
2028.00, 
2029.00, 
2030.00, 
2031.00, 
2032.00, 
2033.00, 
2034.00, 
2035.00, 
2036.00, 
2037.00, 
2038.00, 
2039.00, 
2040.00, 
2041.00, 
2042.00, 
2043.00, 
2044.00, 
2045.00, 
2046.00, 
2047.00, 
2048.00, 
2049.00, 
2050.00, 
2051.00, 
2052.00, 
2053.00, 
2054.00, 
2055.00, 
2056.00, 
2057.00, 
2058.00, 
2059.00, 
2060.00, 
2061.00, 
2062.00, 
2063.00, 
2064.00, 
2065.00, 
2066.00, 
2067.00, 
2068.00, 
2069.00, 
2070.00, 
2071.00, 
2072.00, 
2073.00, 
2074.00, 
2075.00, 
2076.00, 
2077.00, 
2078.00, 
2079.00, 
2080.00, 
2081.00, 
2082.00, 
2083.00, 
2084.00, 
2085.00, 
2086.00, 
2087.00, 
2088.00, 
2089.00, 
2090.00, 
2091.00, 
2092.00, 
2093.00, 
2094.00, 
2095.00, 
2096.00, 
2097.00, 
2098.00, 
2099.00, 
2100.00, 
2101.00, 
2102.00, 
2103.00, 
2104.00, 
2105.00, 
2106.00, 
2107.00, 
2108.00, 
2109.00, 
2110.00, 
2111.00, 
2112.00, 
2113.00, 
2114.00, 
2115.00, 
2116.00, 
2117.00, 
2118.00, 
2119.00, 
2120.00, 
2121.00, 
2122.00, 
2123.00, 
2124.00, 
2125.00, 
2126.00, 
2127.00, 
2128.00, 
2129.00, 
2130.00, 
2131.00, 
2132.00, 
2133.00, 
2134.00, 
2135.00, 
2136.00, 
2137.00, 
2138.00, 
2139.00, 
2140.00, 
2141.00, 
2142.00, 
2143.00, 
2144.00, 
2145.00, 
2146.00, 
2147.00, 
2148.00, 
2149.00, 
2150.00, 
2151.00, 
2152.00, 
2153.00, 
2154.00, 
2155.00, 
2156.00, 
2157.00, 
2158.00, 
2159.00, 
2160.00, 
2161.00, 
2162.00, 
2163.00, 
2164.00, 
2165.00, 
2166.00, 
2167.00, 
2168.00, 
2169.00, 
2170.00, 
2171.00, 
2172.00, 
2173.00, 
2174.00, 
2175.00, 
2176.00, 
2177.00, 
2178.00, 
2179.00, 
2180.00, 
2181.00, 
2182.00, 
2183.00, 
2184.00, 
2185.00, 
2186.00, 
2187.00, 
2188.00, 
2189.00, 
2190.00, 
2191.00, 
2192.00, 
2193.00, 
2194.00, 
2195.00, 
2196.00, 
2197.00, 
2198.00, 
2199.00, 
2200.00, 
2201.00, 
2202.00, 
2203.00, 
2204.00, 
2205.00, 
2206.00, 
2207.00, 
2208.00, 
2209.00, 
2210.00, 
2211.00, 
2212.00, 
2213.00, 
2214.00, 
2215.00, 
2216.00, 
2217.00, 
2218.00, 
2219.00, 
2220.00, 
2221.00, 
2222.00, 
2223.00, 
2224.00, 
2225.00, 
2226.00, 
2227.00, 
2228.00, 
2229.00, 
2230.00, 
2231.00, 
2232.00, 
2233.00, 
2234.00, 
2235.00, 
2236.00, 
2237.00, 
2238.00, 
2239.00, 
2240.00, 
2241.00, 
2242.00, 
2243.00, 
2244.00, 
2245.00, 
2246.00, 
2247.00, 
2248.00, 
2249.00, 
2250.00, 
2251.00, 
2252.00, 
2253.00, 
2254.00, 
2255.00, 
2256.00, 
2257.00, 
2258.00, 
2259.00, 
2260.00, 
2261.00, 
2262.00, 
2263.00, 
2264.00, 
2265.00, 
2266.00, 
2267.00, 
2268.00, 
2269.00, 
2270.00, 
2271.00, 
2272.00, 
2273.00, 
2274.00, 
2275.00, 
2276.00, 
2277.00, 
2278.00, 
2279.00, 
2280.00, 
2281.00, 
2282.00, 
2283.00, 
2284.00, 
2285.00, 
2286.00, 
2287.00, 
2288.00, 
2289.00, 
2290.00, 
2291.00, 
2292.00, 
2293.00, 
2294.00, 
2295.00, 
2296.00, 
2297.00, 
2298.00, 
2299.00, 
2300.00, 
2301.00, 
2302.00, 
2303.00, 
2304.00, 
2305.00, 
2306.00, 
2307.00, 
2308.00, 
2309.00, 
2310.00, 
2311.00, 
2312.00, 
2313.00, 
2314.00, 
2315.00, 
2316.00, 
2317.00, 
2318.00, 
2319.00, 
2320.00, 
2321.00, 
2322.00, 
2323.00, 
2324.00, 
2325.00, 
2326.00, 
2327.00, 
2328.00, 
2329.00, 
2330.00, 
2331.00, 
2332.00, 
2333.00, 
2334.00, 
2335.00, 
2336.00, 
2337.00, 
2338.00, 
2339.00, 
2340.00, 
2341.00, 
2342.00, 
2343.00, 
2344.00, 
2345.00, 
2346.00, 
2347.00, 
2348.00, 
2349.00, 
2350.00, 
2351.00, 
2352.00, 
2353.00, 
2354.00, 
2355.00, 
2356.00, 
2357.00, 
2358.00, 
2359.00, 
2360.00, 
2361.00, 
2362.00, 
2363.00, 
2364.00, 
2365.00, 
2366.00, 
2367.00, 
2368.00, 
2369.00, 
2370.00, 
2371.00, 
2372.00, 
2373.00, 
2374.00, 
2375.00, 
2376.00, 
2377.00, 
2378.00, 
2379.00, 
2380.00, 
2381.00, 
2382.00, 
2383.00, 
2384.00, 
2385.00, 
2386.00, 
2387.00, 
2388.00, 
2389.00, 
2390.00, 
2391.00, 
2392.00, 
2393.00, 
2394.00, 
2395.00, 
2396.00, 
2397.00, 
2398.00, 
2399.00, 
2400.00, 
2401.00, 
2402.00, 
2403.00, 
2404.00, 
2405.00, 
2406.00, 
2407.00, 
2408.00, 
2409.00, 
2410.00, 
2411.00, 
2412.00, 
2413.00, 
2414.00, 
2415.00, 
2416.00, 
2417.00, 
2418.00, 
2419.00, 
2420.00, 
2421.00, 
2422.00, 
2423.00, 
2424.00, 
2425.00, 
2426.00, 
2427.00, 
2428.00, 
2429.00, 
2430.00, 
2431.00, 
2432.00, 
2433.00, 
2434.00, 
2435.00, 
2436.00, 
2437.00, 
2438.00, 
2439.00, 
2440.00, 
2441.00, 
2442.00, 
2443.00, 
2444.00, 
2445.00, 
2446.00, 
2447.00, 
2448.00, 
2449.00, 
2450.00, 
2451.00, 
2452.00, 
2453.00, 
2454.00, 
2455.00, 
2456.00, 
2457.00, 
2458.00, 
2459.00, 
2460.00, 
2461.00, 
2462.00, 
2463.00, 
2464.00, 
2465.00, 
2466.00, 
2467.00, 
2468.00, 
2469.00, 
2470.00, 
2471.00, 
2472.00, 
2473.00, 
2474.00, 
2475.00, 
2476.00, 
2477.00, 
2478.00, 
2479.00, 
2480.00, 
2481.00, 
2482.00, 
2483.00, 
2484.00, 
2485.00, 
2486.00, 
2487.00, 
2488.00, 
2489.00, 
2490.00, 
2491.00, 
2492.00, 
2493.00, 
2494.00, 
2495.00, 
2496.00, 
2497.00, 
2498.00, 
2499.00, 
2500.00, 
2501.00, 
2502.00, 
2503.00, 
2504.00, 
2505.00, 
2506.00, 
2507.00, 
2508.00, 
2509.00, 
2510.00, 
2511.00, 
2512.00, 
2513.00, 
2514.00, 
2515.00, 
2516.00, 
2517.00, 
2518.00, 
2519.00, 
2520.00, 
2521.00, 
2522.00, 
2523.00, 
2524.00, 
2525.00, 
2526.00, 
2527.00, 
2528.00, 
2529.00, 
2530.00, 
2531.00, 
2532.00, 
2533.00, 
2534.00, 
2535.00, 
2536.00, 
2537.00, 
2538.00, 
2539.00, 
2540.00, 
2541.00, 
2542.00, 
2543.00, 
2544.00, 
2545.00, 
2546.00, 
2547.00, 
2548.00, 
2549.00, 
2550.00, 
2551.00, 
2552.00, 
2553.00, 
2554.00, 
2555.00, 
2556.00, 
2557.00, 
2558.00, 
2559.00, 
2560.00, 
2561.00, 
2562.00, 
2563.00, 
2564.00, 
2565.00, 
2566.00, 
2567.00, 
2568.00, 
2569.00, 
2570.00, 
2571.00, 
2572.00, 
2573.00, 
2574.00, 
2575.00, 
2576.00, 
2577.00, 
2578.00, 
2579.00, 
2580.00, 
2581.00, 
2582.00, 
2583.00, 
2584.00, 
2585.00, 
2586.00, 
2587.00, 
2588.00, 
2589.00, 
2590.00, 
2591.00, 
2592.00, 
2593.00, 
2594.00, 
2595.00, 
2596.00, 
2597.00, 
2598.00, 
2599.00, 
2600.00, 
