"1cP3 - RawData"
"Wavelength nm.","T%"
200.00,-0.002
201.00,0.001
202.00,0.001
203.00,-0.001
204.00,0.001
205.00,0.002
206.00,0.000
207.00,0.001
208.00,0.002
209.00,0.001
210.00,-0.002
211.00,-0.000
212.00,-0.002
213.00,-0.001
214.00,-0.001
215.00,0.000
216.00,0.002
217.00,0.004
218.00,0.003
219.00,0.003
220.00,-0.003
221.00,0.002
222.00,0.001
223.00,-0.001
224.00,0.000
225.00,0.001
226.00,-0.001
227.00,-0.000
228.00,0.001
229.00,-0.001
230.00,0.002
231.00,0.001
232.00,0.000
233.00,-0.001
234.00,-0.000
235.00,-0.002
236.00,0.001
237.00,-0.000
238.00,0.001
239.00,-0.000
240.00,-0.001
241.00,0.000
242.00,0.002
243.00,0.000
244.00,0.001
245.00,-0.000
246.00,0.000
247.00,0.001
248.00,-0.001
249.00,0.002
250.00,0.001
251.00,0.002
252.00,0.002
253.00,-0.001
254.00,-0.000
255.00,0.001
256.00,-0.001
257.00,-0.000
258.00,0.000
259.00,-0.000
260.00,-0.001
261.00,-0.001
262.00,-0.001
263.00,-0.000
264.00,0.001
265.00,0.001
266.00,-0.001
267.00,0.000
268.00,-0.000
269.00,0.001
270.00,-0.000
271.00,-0.000
272.00,-0.001
273.00,-0.001
274.00,0.001
275.00,-0.001
276.00,0.001
277.00,-0.001
278.00,-0.001
279.00,0.000
280.00,0.000
281.00,-0.001
282.00,-0.001
283.00,-0.000
284.00,-0.001
285.00,0.000
286.00,-0.001
287.00,0.001
288.00,-0.001
289.00,0.002
290.00,0.001
291.00,-0.001
292.00,0.001
293.00,-0.001
294.00,0.001
295.00,0.000
296.00,0.002
297.00,0.000
298.00,0.000
299.00,0.001
300.00,0.000
301.00,-0.000
302.00,0.001
303.00,0.001
304.00,0.001
305.00,0.001
306.00,0.000
307.00,0.002
308.00,0.006
309.00,0.008
310.00,0.017
311.00,0.025
312.00,0.038
313.00,0.066
314.00,0.098
315.00,0.140
316.00,0.199
317.00,0.283
318.00,0.385
319.00,0.518
320.00,0.684
321.00,0.899
322.00,1.138
323.00,1.441
324.00,1.786
325.00,2.142
326.00,2.545
327.00,3.029
328.00,3.538
329.00,4.081
330.00,4.708
331.00,5.294
332.00,5.948
333.00,6.688
334.00,7.332
335.00,8.094
336.00,8.840
337.00,9.584
338.00,10.321
339.00,11.033
340.00,11.774
341.00,12.518
342.00,13.193
343.00,13.881
344.00,14.582
345.00,15.186
346.00,15.740
347.00,16.313
348.00,16.856
349.00,17.401
350.00,17.870
351.00,18.306
352.00,18.726
353.00,19.151
354.00,19.545
355.00,19.878
356.00,20.237
357.00,20.531
358.00,20.862
359.00,21.178
360.00,21.432
361.00,21.569
362.00,21.782
363.00,22.009
364.00,22.129
365.00,22.232
366.00,22.390
367.00,22.503
368.00,22.534
369.00,22.659
370.00,22.779
371.00,22.781
372.00,22.705
373.00,22.808
374.00,22.799
375.00,22.690
376.00,22.649
377.00,22.569
378.00,22.480
379.00,22.392
380.00,22.412
381.00,22.387
382.00,22.372
383.00,22.472
384.00,22.521
385.00,22.581
386.00,22.593
387.00,22.792
388.00,22.788
389.00,22.802
390.00,22.877
391.00,22.924
392.00,22.921
393.00,22.995
394.00,23.012
395.00,23.077
396.00,23.050
397.00,23.081
398.00,23.092
399.00,23.081
400.00,23.112
401.00,23.100
402.00,23.113
403.00,23.094
404.00,23.114
405.00,23.080
406.00,23.064
407.00,22.994
408.00,22.981
409.00,22.946
410.00,22.919
411.00,22.904
412.00,22.864
413.00,22.858
414.00,22.816
415.00,22.869
416.00,22.968
417.00,22.944
418.00,22.874
419.00,22.987
420.00,23.009
421.00,22.925
422.00,22.883
423.00,23.014
424.00,23.054
425.00,23.097
426.00,23.081
427.00,23.146
428.00,23.148
429.00,23.194
430.00,23.258
431.00,23.291
432.00,23.318
433.00,23.364
434.00,23.416
435.00,23.485
436.00,23.511
437.00,23.577
438.00,23.620
439.00,23.675
440.00,23.727
441.00,23.826
442.00,23.892
443.00,23.963
444.00,24.098
445.00,24.081
446.00,24.173
447.00,24.228
448.00,24.359
449.00,24.448
450.00,24.540
451.00,24.614
452.00,24.719
453.00,24.828
454.00,24.904
455.00,24.999
456.00,25.131
457.00,25.213
458.00,25.316
459.00,25.456
460.00,25.543
461.00,25.686
462.00,25.753
463.00,25.906
464.00,26.033
465.00,26.103
466.00,26.199
467.00,26.413
468.00,26.452
469.00,26.561
470.00,26.684
471.00,26.706
472.00,26.838
473.00,26.899
474.00,26.999
475.00,27.128
476.00,27.155
477.00,27.337
478.00,27.436
479.00,27.595
480.00,27.708
481.00,27.805
482.00,27.989
483.00,28.120
484.00,28.263
485.00,28.450
486.00,28.535
487.00,28.684
488.00,28.814
489.00,28.929
490.00,29.095
491.00,29.231
492.00,29.352
493.00,29.547
494.00,29.706
495.00,29.700
496.00,29.822
497.00,29.913
498.00,30.002
499.00,30.157
500.00,30.300
501.00,30.366
502.00,30.535
503.00,30.634
504.00,30.717
505.00,30.794
506.00,30.952
507.00,31.020
508.00,31.168
509.00,31.366
510.00,31.487
511.00,31.488
512.00,31.640
513.00,31.782
514.00,31.869
515.00,31.960
516.00,32.117
517.00,32.167
518.00,32.350
519.00,32.393
520.00,32.482
521.00,32.617
522.00,32.673
523.00,32.711
524.00,32.883
525.00,33.006
526.00,33.079
527.00,33.149
528.00,33.207
529.00,33.414
530.00,33.550
531.00,33.607
532.00,33.690
533.00,33.867
534.00,33.888
535.00,33.970
536.00,34.063
537.00,34.159
538.00,34.216
539.00,34.269
540.00,34.335
541.00,34.391
542.00,34.423
543.00,34.513
544.00,34.579
545.00,34.635
546.00,34.692
547.00,34.879
548.00,34.890
549.00,35.002
550.00,35.045
551.00,35.015
552.00,35.154
553.00,35.238
554.00,35.269
555.00,35.380
556.00,35.478
557.00,35.505
558.00,35.602
559.00,35.714
560.00,35.712
561.00,35.822
562.00,35.850
563.00,35.919
564.00,36.005
565.00,36.020
566.00,36.031
567.00,36.081
568.00,36.089
569.00,36.177
570.00,36.214
571.00,36.245
572.00,36.275
573.00,36.268
574.00,36.319
575.00,36.308
576.00,36.341
577.00,36.367
578.00,36.501
579.00,36.621
580.00,36.596
581.00,36.697
582.00,36.786
583.00,36.845
584.00,37.016
585.00,37.064
586.00,37.126
587.00,37.238
588.00,37.157
589.00,37.146
590.00,37.292
591.00,37.340
592.00,37.389
593.00,37.437
594.00,37.434
595.00,37.510
596.00,37.510
597.00,37.570
598.00,37.634
599.00,37.633
600.00,37.777
601.00,37.804
602.00,37.801
603.00,37.777
604.00,37.878
605.00,37.965
606.00,37.908
607.00,37.980
608.00,38.193
609.00,38.190
610.00,38.030
611.00,38.200
612.00,38.182
613.00,38.243
614.00,38.368
615.00,38.383
616.00,38.438
617.00,38.454
618.00,38.467
619.00,38.528
620.00,38.576
621.00,38.647
622.00,38.694
623.00,38.815
624.00,38.840
625.00,38.923
626.00,38.979
627.00,38.984
628.00,38.986
629.00,39.065
630.00,39.129
631.00,39.110
632.00,39.236
633.00,39.331
634.00,39.416
635.00,39.477
636.00,39.533
637.00,39.550
638.00,39.559
639.00,39.712
640.00,39.742
641.00,39.791
642.00,39.894
643.00,39.822
644.00,39.982
645.00,40.033
646.00,40.226
647.00,40.251
648.00,40.217
649.00,40.234
650.00,40.225
651.00,40.490
652.00,40.655
653.00,40.576
654.00,40.621
655.00,40.793
656.00,41.026
657.00,40.950
658.00,41.076
659.00,41.199
660.00,41.123
661.00,41.121
662.00,41.196
663.00,41.354
664.00,41.540
665.00,41.712
666.00,41.607
667.00,41.647
668.00,41.673
669.00,41.960
670.00,42.115
671.00,41.896
672.00,42.131
673.00,42.173
674.00,42.277
675.00,42.430
676.00,42.553
677.00,42.653
678.00,42.340
679.00,42.637
680.00,42.818
681.00,42.886
682.00,42.824
683.00,42.804
684.00,43.011
685.00,43.064
686.00,42.998
687.00,43.169
688.00,43.246
689.00,43.176
690.00,43.418
691.00,43.721
692.00,43.221
693.00,43.311
694.00,43.614
695.00,43.643
696.00,43.603
697.00,43.696
698.00,43.780
699.00,43.905
700.00,43.875
701.00,44.016
702.00,44.136
703.00,44.372
704.00,44.338
705.00,44.314
706.00,44.330
707.00,44.448
708.00,44.304
709.00,44.666
710.00,45.005
711.00,44.577
712.00,44.597
713.00,44.789
714.00,44.813
715.00,44.794
716.00,44.866
717.00,45.006
718.00,45.144
719.00,45.144
720.00,45.114
721.00,49.886
722.00,49.956
723.00,49.934
724.00,50.012
725.00,49.916
726.00,49.940
727.00,50.011
728.00,50.067
729.00,49.989
730.00,50.026
731.00,50.053
732.00,50.000
733.00,50.094
734.00,50.063
735.00,50.120
736.00,50.106
737.00,50.217
738.00,50.207
739.00,50.194
740.00,50.157
741.00,50.210
742.00,50.285
743.00,50.245
744.00,50.303
745.00,50.305
746.00,50.244
747.00,50.253
748.00,50.192
749.00,50.242
750.00,50.261
751.00,50.200
752.00,50.206
753.00,50.207
754.00,50.221
755.00,50.207
756.00,50.180
757.00,50.202
758.00,50.233
759.00,50.154
760.00,50.234
761.00,50.269
762.00,50.254
763.00,50.270
764.00,50.161
765.00,50.185
766.00,50.238
767.00,50.223
768.00,50.243
769.00,50.240
770.00,50.222
771.00,50.251
772.00,50.234
773.00,50.229
774.00,50.289
775.00,50.272
776.00,50.161
777.00,50.290
778.00,50.143
779.00,50.316
780.00,50.248
781.00,50.282
782.00,50.267
783.00,50.254
784.00,50.312
785.00,50.184
786.00,50.226
787.00,50.159
788.00,50.153
789.00,50.164
790.00,50.157
791.00,50.204
792.00,50.046
793.00,50.119
794.00,50.042
795.00,50.179
796.00,50.008
797.00,49.951
798.00,50.115
799.00,49.958
800.00,49.960
801.00,49.979
802.00,49.956
803.00,49.953
804.00,49.856
805.00,49.869
806.00,49.895
807.00,49.878
808.00,49.888
809.00,49.848
810.00,49.823
811.00,49.838
812.00,49.916
813.00,49.750
814.00,49.843
815.00,49.732
816.00,49.815
817.00,49.804
818.00,49.659
819.00,49.670
820.00,49.612
821.00,49.683
822.00,49.713
823.00,49.573
824.00,49.627
825.00,49.555
826.00,49.541
827.00,49.628
828.00,49.562
829.00,49.526
830.00,49.549
831.00,51.908
832.00,51.917
833.00,51.826
834.00,51.850
835.00,51.820
836.00,51.833
837.00,51.804
838.00,51.809
839.00,51.786
840.00,51.716
841.00,51.746
842.00,51.721
843.00,51.698
844.00,51.654
845.00,51.628
846.00,51.627
847.00,51.580
848.00,51.603
849.00,51.552
850.00,51.484
851.00,51.424
852.00,51.449
853.00,51.434
854.00,51.381
855.00,51.352
856.00,51.349
857.00,51.283
858.00,51.297
859.00,51.266
860.00,51.264
861.00,51.247
862.00,51.190
863.00,51.202
864.00,51.177
865.00,51.203
866.00,51.185
867.00,51.163
868.00,51.141
869.00,51.123
870.00,51.113
871.00,51.025
872.00,51.178
873.00,51.062
874.00,51.049
875.00,51.041
876.00,51.025
877.00,51.006
878.00,51.013
879.00,50.992
880.00,50.982
881.00,50.970
882.00,50.993
883.00,50.960
884.00,50.900
885.00,50.908
886.00,50.881
887.00,50.852
888.00,50.799
889.00,50.803
890.00,50.793
891.00,50.756
892.00,50.739
893.00,50.696
894.00,50.725
895.00,50.693
896.00,50.692
897.00,50.683
898.00,50.628
899.00,50.602
900.00,50.589
901.00,50.755
902.00,50.588
903.00,50.551
904.00,50.538
905.00,50.525
906.00,50.520
907.00,50.492
908.00,50.455
909.00,50.440
910.00,50.418
911.00,50.374
912.00,50.399
913.00,50.360
914.00,50.313
915.00,50.353
916.00,50.209
917.00,50.292
918.00,50.280
919.00,50.251
920.00,50.197
921.00,50.207
922.00,50.187
923.00,50.143
924.00,50.130
925.00,50.141
926.00,50.096
927.00,50.083
928.00,50.061
929.00,50.051
930.00,50.033
931.00,49.998
932.00,49.981
933.00,49.996
934.00,49.978
935.00,49.950
936.00,49.912
937.00,49.910
938.00,49.895
939.00,49.854
940.00,49.849
941.00,49.841
942.00,49.807
943.00,49.792
944.00,49.750
945.00,49.760
946.00,49.734
947.00,49.711
948.00,49.691
949.00,49.661
950.00,49.647
951.00,49.620
952.00,49.604
953.00,49.560
954.00,49.542
955.00,49.517
956.00,49.494
957.00,49.463
958.00,49.488
959.00,49.420
960.00,49.416
961.00,49.416
962.00,49.400
963.00,49.357
964.00,49.343
965.00,49.343
966.00,49.299
967.00,49.315
968.00,49.304
969.00,49.325
970.00,49.288
971.00,49.301
972.00,49.256
973.00,49.310
974.00,49.328
975.00,49.286
976.00,49.288
977.00,49.214
978.00,49.329
979.00,49.296
980.00,49.309
981.00,49.304
982.00,49.289
983.00,49.291
984.00,49.262
985.00,49.280
986.00,49.230
987.00,49.273
988.00,49.225
989.00,49.235
990.00,49.231
991.00,49.213
992.00,49.230
993.00,49.183
994.00,49.182
995.00,49.166
996.00,49.160
997.00,49.140
998.00,49.115
999.00,49.126
1000.00,49.083
1001.00,49.092
1002.00,49.076
1003.00,49.064
1004.00,49.023
1005.00,48.990
1006.00,49.039
1007.00,49.003
1008.00,48.983
1009.00,48.982
1010.00,48.973
1011.00,48.961
1012.00,48.939
1013.00,48.944
1014.00,48.915
1015.00,48.921
1016.00,48.899
1017.00,48.890
1018.00,48.907
1019.00,48.836
1020.00,48.837
1021.00,48.806
1022.00,48.817
1023.00,48.758
1024.00,48.761
1025.00,48.750
1026.00,48.727
1027.00,48.697
1028.00,48.692
1029.00,48.680
1030.00,48.651
1031.00,48.672
1032.00,48.622
1033.00,48.632
1034.00,48.602
1035.00,48.576
1036.00,48.542
1037.00,48.516
1038.00,48.520
1039.00,48.470
1040.00,48.475
1041.00,48.432
1042.00,48.435
1043.00,48.399
1044.00,48.427
1045.00,48.411
1046.00,48.404
1047.00,48.440
1048.00,48.445
1049.00,48.459
1050.00,48.461
1051.00,48.508
1052.00,48.489
1053.00,48.504
1054.00,48.492
1055.00,48.535
1056.00,48.546
1057.00,48.530
1058.00,48.526
1059.00,48.531
1060.00,48.530
1061.00,48.513
1062.00,48.503
1063.00,48.509
1064.00,48.514
1065.00,48.476
1066.00,48.485
1067.00,48.480
1068.00,48.492
1069.00,48.462
1070.00,48.447
1071.00,48.425
1072.00,48.463
1073.00,48.427
1074.00,48.424
1075.00,48.405
1076.00,48.408
1077.00,48.390
1078.00,48.380
1079.00,48.382
1080.00,48.388
1081.00,48.362
1082.00,48.347
1083.00,48.342
1084.00,48.347
1085.00,48.328
1086.00,48.325
1087.00,48.320
1088.00,48.308
1089.00,48.302
1090.00,48.300
1091.00,48.298
1092.00,48.282
1093.00,48.265
1094.00,48.251
1095.00,48.241
1096.00,48.228
1097.00,48.232
1098.00,48.207
1099.00,48.218
1100.00,48.209
1101.00,48.197
1102.00,48.185
1103.00,48.191
1104.00,48.161
1105.00,48.163
1106.00,48.147
1107.00,48.149
1108.00,48.140
1109.00,48.144
1110.00,48.162
1111.00,48.120
1112.00,48.111
1113.00,48.117
1114.00,48.100
1115.00,48.098
1116.00,48.081
1117.00,48.079
1118.00,48.056
1119.00,48.059
1120.00,48.050
1121.00,48.051
1122.00,48.040
1123.00,48.041
1124.00,48.051
1125.00,48.057
1126.00,48.024
1127.00,48.025
1128.00,48.010
1129.00,47.979
1130.00,47.980
1131.00,47.976
1132.00,47.965
1133.00,47.962
1134.00,47.946
1135.00,47.938
1136.00,47.943
1137.00,47.955
1138.00,47.955
1139.00,47.957
1140.00,47.943
1141.00,47.948
1142.00,47.926
1143.00,47.943
1144.00,47.908
1145.00,47.897
1146.00,47.908
1147.00,47.910
1148.00,47.891
1149.00,47.915
1150.00,47.919
1151.00,47.909
1152.00,47.897
1153.00,47.891
1154.00,47.883
1155.00,47.899
1156.00,47.894
1157.00,47.903
1158.00,47.888
1159.00,47.895
1160.00,47.882
1161.00,47.902
1162.00,47.895
1163.00,47.899
1164.00,47.892
1165.00,47.892
1166.00,47.902
1167.00,47.879
1168.00,47.911
1169.00,47.892
1170.00,47.884
1171.00,47.878
1172.00,47.874
1173.00,47.856
1174.00,47.863
1175.00,47.850
1176.00,47.853
1177.00,47.857
1178.00,47.858
1179.00,47.886
1180.00,47.862
1181.00,47.867
1182.00,47.852
1183.00,47.850
1184.00,47.835
1185.00,47.837
1186.00,47.832
1187.00,47.876
1188.00,47.850
1189.00,47.848
1190.00,47.858
1191.00,47.840
1192.00,47.864
1193.00,47.845
1194.00,47.859
1195.00,47.832
1196.00,47.871
1197.00,47.857
1198.00,47.852
1199.00,47.850
1200.00,47.856
1201.00,47.882
1202.00,47.844
1203.00,47.852
1204.00,47.857
1205.00,47.872
1206.00,47.850
1207.00,47.856
1208.00,47.837
1209.00,47.855
1210.00,47.857
1211.00,47.842
1212.00,47.869
1213.00,47.827
1214.00,47.860
1215.00,47.839
1216.00,47.850
1217.00,47.852
1218.00,47.831
1219.00,47.834
1220.00,47.833
1221.00,47.844
1222.00,47.826
1223.00,47.854
1224.00,47.849
1225.00,47.827
1226.00,47.837
1227.00,47.825
1228.00,47.843
1229.00,47.852
1230.00,47.888
1231.00,47.901
1232.00,47.919
1233.00,47.922
1234.00,47.918
1235.00,47.916
1236.00,47.905
1237.00,47.921
1238.00,47.905
1239.00,47.906
1240.00,47.895
1241.00,47.899
1242.00,47.908
1243.00,47.911
1244.00,47.894
1245.00,47.947
1246.00,47.940
1247.00,47.945
1248.00,47.951
1249.00,47.953
1250.00,47.945
1251.00,47.947
1252.00,47.953
1253.00,47.929
1254.00,47.960
1255.00,47.945
1256.00,47.954
1257.00,47.920
1258.00,47.982
1259.00,47.975
1260.00,48.000
1261.00,47.992
1262.00,48.001
1263.00,47.981
1264.00,47.996
1265.00,48.007
1266.00,48.001
1267.00,48.006
1268.00,48.007
1269.00,48.028
1270.00,48.034
1271.00,48.028
1272.00,48.024
1273.00,48.047
1274.00,48.035
1275.00,48.061
1276.00,48.061
1277.00,48.074
1278.00,48.092
1279.00,48.088
1280.00,48.065
1281.00,48.093
1282.00,48.112
1283.00,48.098
1284.00,48.123
1285.00,48.102
1286.00,48.129
1287.00,48.115
1288.00,48.112
1289.00,48.116
1290.00,48.144
1291.00,48.131
1292.00,48.154
1293.00,48.160
1294.00,48.164
1295.00,48.181
1296.00,48.168
1297.00,48.183
1298.00,48.217
1299.00,48.186
1300.00,48.216
1301.00,48.195
1302.00,48.207
1303.00,48.205
1304.00,48.183
1305.00,48.217
1306.00,48.234
1307.00,48.231
1308.00,48.247
1309.00,48.259
1310.00,48.241
1311.00,48.234
1312.00,48.237
1313.00,48.247
1314.00,48.264
1315.00,48.287
1316.00,48.290
1317.00,48.323
1318.00,48.324
1319.00,48.339
1320.00,48.347
1321.00,48.500
1322.00,48.497
1323.00,48.487
1324.00,48.470
1325.00,48.469
1326.00,48.502
1327.00,48.476
1328.00,48.482
1329.00,48.476
1330.00,48.502
1331.00,48.491
1332.00,48.484
1333.00,48.508
1334.00,48.542
1335.00,48.538
1336.00,48.599
1337.00,48.610
1338.00,48.679
1339.00,48.713
1340.00,48.783
1341.00,48.850
1342.00,48.912
1343.00,48.943
1344.00,49.011
1345.00,49.060
1346.00,49.081
1347.00,49.126
1348.00,49.130
1349.00,49.160
1350.00,49.175
1351.00,49.181
1352.00,49.222
1353.00,49.224
1354.00,49.219
1355.00,49.186
1356.00,49.225
1357.00,49.218
1358.00,49.275
1359.00,49.233
1360.00,49.294
1361.00,49.256
1362.00,49.213
1363.00,49.295
1364.00,49.309
1365.00,49.241
1366.00,49.333
1367.00,49.262
1368.00,49.213
1369.00,49.257
1370.00,49.217
1371.00,49.197
1372.00,49.209
1373.00,49.227
1374.00,49.260
1375.00,49.236
1376.00,49.231
1377.00,49.213
1378.00,49.371
1379.00,49.245
1380.00,49.268
1381.00,49.280
1382.00,49.135
1383.00,49.281
1384.00,49.205
1385.00,49.203
1386.00,49.273
1387.00,49.191
1388.00,49.206
1389.00,49.225
1390.00,49.253
1391.00,49.235
1392.00,49.215
1393.00,49.338
1394.00,49.267
1395.00,49.150
1396.00,49.186
1397.00,49.267
1398.00,49.280
1399.00,49.267
1400.00,49.253
1401.00,49.209
1402.00,49.382
1403.00,49.262
1404.00,49.262
1405.00,49.272
1406.00,49.304
1407.00,49.282
1408.00,49.291
1409.00,49.286
1410.00,49.354
1411.00,49.301
1412.00,49.372
1413.00,49.334
1414.00,49.310
1415.00,49.346
1416.00,49.350
1417.00,49.397
1418.00,49.370
1419.00,49.369
1420.00,49.384
1421.00,49.456
1422.00,49.458
1423.00,49.459
1424.00,49.464
1425.00,49.475
1426.00,49.508
1427.00,49.514
1428.00,49.503
1429.00,49.558
1430.00,49.539
1431.00,49.569
1432.00,49.585
1433.00,49.599
1434.00,49.599
1435.00,49.658
1436.00,49.655
1437.00,49.659
1438.00,49.661
1439.00,49.684
1440.00,49.689
1441.00,49.736
1442.00,49.736
1443.00,49.805
1444.00,49.889
1445.00,49.790
1446.00,49.813
1447.00,49.836
1448.00,49.873
1449.00,49.882
1450.00,49.872
1451.00,49.902
1452.00,49.935
1453.00,49.944
1454.00,49.954
1455.00,49.974
1456.00,49.993
1457.00,49.982
1458.00,50.021
1459.00,50.036
1460.00,50.059
1461.00,50.032
1462.00,50.097
1463.00,50.115
1464.00,50.089
1465.00,50.124
1466.00,50.139
1467.00,50.141
1468.00,50.206
1469.00,50.171
1470.00,50.208
1471.00,50.215
1472.00,50.218
1473.00,50.258
1474.00,50.284
1475.00,50.282
1476.00,50.318
1477.00,50.294
1478.00,50.309
1479.00,50.322
1480.00,50.316
1481.00,50.338
1482.00,50.373
1483.00,50.399
1484.00,50.415
1485.00,50.416
1486.00,50.424
1487.00,50.463
1488.00,50.492
1489.00,50.463
1490.00,50.503
1491.00,50.499
1492.00,50.527
1493.00,50.512
1494.00,50.546
1495.00,50.541
1496.00,50.586
1497.00,50.543
1498.00,50.584
1499.00,50.601
1500.00,50.623
1501.00, 
1502.00, 
1503.00, 
1504.00, 
1505.00, 
1506.00, 
1507.00, 
1508.00, 
1509.00, 
1510.00, 
1511.00, 
1512.00, 
1513.00, 
1514.00, 
1515.00, 
1516.00, 
1517.00, 
1518.00, 
1519.00, 
1520.00, 
1521.00, 
1522.00, 
1523.00, 
1524.00, 
1525.00, 
1526.00, 
1527.00, 
1528.00, 
1529.00, 
1530.00, 
1531.00, 
1532.00, 
1533.00, 
1534.00, 
1535.00, 
1536.00, 
1537.00, 
1538.00, 
1539.00, 
1540.00, 
1541.00, 
1542.00, 
1543.00, 
1544.00, 
1545.00, 
1546.00, 
1547.00, 
1548.00, 
1549.00, 
1550.00, 
1551.00, 
1552.00, 
1553.00, 
1554.00, 
1555.00, 
1556.00, 
1557.00, 
1558.00, 
1559.00, 
1560.00, 
1561.00, 
1562.00, 
1563.00, 
1564.00, 
1565.00, 
1566.00, 
1567.00, 
1568.00, 
1569.00, 
1570.00, 
1571.00, 
1572.00, 
1573.00, 
1574.00, 
1575.00, 
1576.00, 
1577.00, 
1578.00, 
1579.00, 
1580.00, 
1581.00, 
1582.00, 
1583.00, 
1584.00, 
1585.00, 
1586.00, 
1587.00, 
1588.00, 
1589.00, 
1590.00, 
1591.00, 
1592.00, 
1593.00, 
1594.00, 
1595.00, 
1596.00, 
1597.00, 
1598.00, 
1599.00, 
1600.00, 
1601.00, 
1602.00, 
1603.00, 
1604.00, 
1605.00, 
1606.00, 
1607.00, 
1608.00, 
1609.00, 
1610.00, 
1611.00, 
1612.00, 
1613.00, 
1614.00, 
1615.00, 
1616.00, 
1617.00, 
1618.00, 
1619.00, 
1620.00, 
1621.00, 
1622.00, 
1623.00, 
1624.00, 
1625.00, 
1626.00, 
1627.00, 
1628.00, 
1629.00, 
1630.00, 
1631.00, 
1632.00, 
1633.00, 
1634.00, 
1635.00, 
1636.00, 
1637.00, 
1638.00, 
1639.00, 
1640.00, 
1641.00, 
1642.00, 
1643.00, 
1644.00, 
1645.00, 
1646.00, 
1647.00, 
1648.00, 
1649.00, 
1650.00, 
1651.00, 
1652.00, 
1653.00, 
1654.00, 
1655.00, 
1656.00, 
1657.00, 
1658.00, 
1659.00, 
1660.00, 
1661.00, 
1662.00, 
1663.00, 
1664.00, 
1665.00, 
1666.00, 
1667.00, 
1668.00, 
1669.00, 
1670.00, 
1671.00, 
1672.00, 
1673.00, 
1674.00, 
1675.00, 
1676.00, 
1677.00, 
1678.00, 
1679.00, 
1680.00, 
1681.00, 
1682.00, 
1683.00, 
1684.00, 
1685.00, 
1686.00, 
1687.00, 
1688.00, 
1689.00, 
1690.00, 
1691.00, 
1692.00, 
1693.00, 
1694.00, 
1695.00, 
1696.00, 
1697.00, 
1698.00, 
1699.00, 
1700.00, 
1701.00, 
1702.00, 
1703.00, 
1704.00, 
1705.00, 
1706.00, 
1707.00, 
1708.00, 
1709.00, 
1710.00, 
1711.00, 
1712.00, 
1713.00, 
1714.00, 
1715.00, 
1716.00, 
1717.00, 
1718.00, 
1719.00, 
1720.00, 
1721.00, 
1722.00, 
1723.00, 
1724.00, 
1725.00, 
1726.00, 
1727.00, 
1728.00, 
1729.00, 
1730.00, 
1731.00, 
1732.00, 
1733.00, 
1734.00, 
1735.00, 
1736.00, 
1737.00, 
1738.00, 
1739.00, 
1740.00, 
1741.00, 
1742.00, 
1743.00, 
1744.00, 
1745.00, 
1746.00, 
1747.00, 
1748.00, 
1749.00, 
1750.00, 
1751.00, 
1752.00, 
1753.00, 
1754.00, 
1755.00, 
1756.00, 
1757.00, 
1758.00, 
1759.00, 
1760.00, 
1761.00, 
1762.00, 
1763.00, 
1764.00, 
1765.00, 
1766.00, 
1767.00, 
1768.00, 
1769.00, 
1770.00, 
1771.00, 
1772.00, 
1773.00, 
1774.00, 
1775.00, 
1776.00, 
1777.00, 
1778.00, 
1779.00, 
1780.00, 
1781.00, 
1782.00, 
1783.00, 
1784.00, 
1785.00, 
1786.00, 
1787.00, 
1788.00, 
1789.00, 
1790.00, 
1791.00, 
1792.00, 
1793.00, 
1794.00, 
1795.00, 
1796.00, 
1797.00, 
1798.00, 
1799.00, 
1800.00, 
1801.00, 
1802.00, 
1803.00, 
1804.00, 
1805.00, 
1806.00, 
1807.00, 
1808.00, 
1809.00, 
1810.00, 
1811.00, 
1812.00, 
1813.00, 
1814.00, 
1815.00, 
1816.00, 
1817.00, 
1818.00, 
1819.00, 
1820.00, 
1821.00, 
1822.00, 
1823.00, 
1824.00, 
1825.00, 
1826.00, 
1827.00, 
1828.00, 
1829.00, 
1830.00, 
1831.00, 
1832.00, 
1833.00, 
1834.00, 
1835.00, 
1836.00, 
1837.00, 
1838.00, 
1839.00, 
1840.00, 
1841.00, 
1842.00, 
1843.00, 
1844.00, 
1845.00, 
1846.00, 
1847.00, 
1848.00, 
1849.00, 
1850.00, 
1851.00, 
1852.00, 
1853.00, 
1854.00, 
1855.00, 
1856.00, 
1857.00, 
1858.00, 
1859.00, 
1860.00, 
1861.00, 
1862.00, 
1863.00, 
1864.00, 
1865.00, 
1866.00, 
1867.00, 
1868.00, 
1869.00, 
1870.00, 
1871.00, 
1872.00, 
1873.00, 
1874.00, 
1875.00, 
1876.00, 
1877.00, 
1878.00, 
1879.00, 
1880.00, 
1881.00, 
1882.00, 
1883.00, 
1884.00, 
1885.00, 
1886.00, 
1887.00, 
1888.00, 
1889.00, 
1890.00, 
1891.00, 
1892.00, 
1893.00, 
1894.00, 
1895.00, 
1896.00, 
1897.00, 
1898.00, 
1899.00, 
1900.00, 
1901.00, 
1902.00, 
1903.00, 
1904.00, 
1905.00, 
1906.00, 
1907.00, 
1908.00, 
1909.00, 
1910.00, 
1911.00, 
1912.00, 
1913.00, 
1914.00, 
1915.00, 
1916.00, 
1917.00, 
1918.00, 
1919.00, 
1920.00, 
1921.00, 
1922.00, 
1923.00, 
1924.00, 
1925.00, 
1926.00, 
1927.00, 
1928.00, 
1929.00, 
1930.00, 
1931.00, 
1932.00, 
1933.00, 
1934.00, 
1935.00, 
1936.00, 
1937.00, 
1938.00, 
1939.00, 
1940.00, 
1941.00, 
1942.00, 
1943.00, 
1944.00, 
1945.00, 
1946.00, 
1947.00, 
1948.00, 
1949.00, 
1950.00, 
1951.00, 
1952.00, 
1953.00, 
1954.00, 
1955.00, 
1956.00, 
1957.00, 
1958.00, 
1959.00, 
1960.00, 
1961.00, 
1962.00, 
1963.00, 
1964.00, 
1965.00, 
1966.00, 
1967.00, 
1968.00, 
1969.00, 
1970.00, 
1971.00, 
1972.00, 
1973.00, 
1974.00, 
1975.00, 
1976.00, 
1977.00, 
1978.00, 
1979.00, 
1980.00, 
1981.00, 
1982.00, 
1983.00, 
1984.00, 
1985.00, 
1986.00, 
1987.00, 
1988.00, 
1989.00, 
1990.00, 
1991.00, 
1992.00, 
1993.00, 
1994.00, 
1995.00, 
1996.00, 
1997.00, 
1998.00, 
1999.00, 
2000.00, 
2001.00, 
2002.00, 
2003.00, 
2004.00, 
2005.00, 
2006.00, 
2007.00, 
2008.00, 
2009.00, 
2010.00, 
2011.00, 
2012.00, 
2013.00, 
2014.00, 
2015.00, 
2016.00, 
2017.00, 
2018.00, 
2019.00, 
2020.00, 
2021.00, 
2022.00, 
2023.00, 
2024.00, 
2025.00, 
2026.00, 
2027.00, 
2028.00, 
2029.00, 
2030.00, 
2031.00, 
2032.00, 
2033.00, 
2034.00, 
2035.00, 
2036.00, 
2037.00, 
2038.00, 
2039.00, 
2040.00, 
2041.00, 
2042.00, 
2043.00, 
2044.00, 
2045.00, 
2046.00, 
2047.00, 
2048.00, 
2049.00, 
2050.00, 
2051.00, 
2052.00, 
2053.00, 
2054.00, 
2055.00, 
2056.00, 
2057.00, 
2058.00, 
2059.00, 
2060.00, 
2061.00, 
2062.00, 
2063.00, 
2064.00, 
2065.00, 
2066.00, 
2067.00, 
2068.00, 
2069.00, 
2070.00, 
2071.00, 
2072.00, 
2073.00, 
2074.00, 
2075.00, 
2076.00, 
2077.00, 
2078.00, 
2079.00, 
2080.00, 
2081.00, 
2082.00, 
2083.00, 
2084.00, 
2085.00, 
2086.00, 
2087.00, 
2088.00, 
2089.00, 
2090.00, 
2091.00, 
2092.00, 
2093.00, 
2094.00, 
2095.00, 
2096.00, 
2097.00, 
2098.00, 
2099.00, 
2100.00, 
2101.00, 
2102.00, 
2103.00, 
2104.00, 
2105.00, 
2106.00, 
2107.00, 
2108.00, 
2109.00, 
2110.00, 
2111.00, 
2112.00, 
2113.00, 
2114.00, 
2115.00, 
2116.00, 
2117.00, 
2118.00, 
2119.00, 
2120.00, 
2121.00, 
2122.00, 
2123.00, 
2124.00, 
2125.00, 
2126.00, 
2127.00, 
2128.00, 
2129.00, 
2130.00, 
2131.00, 
2132.00, 
2133.00, 
2134.00, 
2135.00, 
2136.00, 
2137.00, 
2138.00, 
2139.00, 
2140.00, 
2141.00, 
2142.00, 
2143.00, 
2144.00, 
2145.00, 
2146.00, 
2147.00, 
2148.00, 
2149.00, 
2150.00, 
2151.00, 
2152.00, 
2153.00, 
2154.00, 
2155.00, 
2156.00, 
2157.00, 
2158.00, 
2159.00, 
2160.00, 
2161.00, 
2162.00, 
2163.00, 
2164.00, 
2165.00, 
2166.00, 
2167.00, 
2168.00, 
2169.00, 
2170.00, 
2171.00, 
2172.00, 
2173.00, 
2174.00, 
2175.00, 
2176.00, 
2177.00, 
2178.00, 
2179.00, 
2180.00, 
2181.00, 
2182.00, 
2183.00, 
2184.00, 
2185.00, 
2186.00, 
2187.00, 
2188.00, 
2189.00, 
2190.00, 
2191.00, 
2192.00, 
2193.00, 
2194.00, 
2195.00, 
2196.00, 
2197.00, 
2198.00, 
2199.00, 
2200.00, 
2201.00, 
2202.00, 
2203.00, 
2204.00, 
2205.00, 
2206.00, 
2207.00, 
2208.00, 
2209.00, 
2210.00, 
2211.00, 
2212.00, 
2213.00, 
2214.00, 
2215.00, 
2216.00, 
2217.00, 
2218.00, 
2219.00, 
2220.00, 
2221.00, 
2222.00, 
2223.00, 
2224.00, 
2225.00, 
2226.00, 
2227.00, 
2228.00, 
2229.00, 
2230.00, 
2231.00, 
2232.00, 
2233.00, 
2234.00, 
2235.00, 
2236.00, 
2237.00, 
2238.00, 
2239.00, 
2240.00, 
2241.00, 
2242.00, 
2243.00, 
2244.00, 
2245.00, 
2246.00, 
2247.00, 
2248.00, 
2249.00, 
2250.00, 
2251.00, 
2252.00, 
2253.00, 
2254.00, 
2255.00, 
2256.00, 
2257.00, 
2258.00, 
2259.00, 
2260.00, 
2261.00, 
2262.00, 
2263.00, 
2264.00, 
2265.00, 
2266.00, 
2267.00, 
2268.00, 
2269.00, 
2270.00, 
2271.00, 
2272.00, 
2273.00, 
2274.00, 
2275.00, 
2276.00, 
2277.00, 
2278.00, 
2279.00, 
2280.00, 
2281.00, 
2282.00, 
2283.00, 
2284.00, 
2285.00, 
2286.00, 
2287.00, 
2288.00, 
2289.00, 
2290.00, 
2291.00, 
2292.00, 
2293.00, 
2294.00, 
2295.00, 
2296.00, 
2297.00, 
2298.00, 
2299.00, 
2300.00, 
2301.00, 
2302.00, 
2303.00, 
2304.00, 
2305.00, 
2306.00, 
2307.00, 
2308.00, 
2309.00, 
2310.00, 
2311.00, 
2312.00, 
2313.00, 
2314.00, 
2315.00, 
2316.00, 
2317.00, 
2318.00, 
2319.00, 
2320.00, 
2321.00, 
2322.00, 
2323.00, 
2324.00, 
2325.00, 
2326.00, 
2327.00, 
2328.00, 
2329.00, 
2330.00, 
2331.00, 
2332.00, 
2333.00, 
2334.00, 
2335.00, 
2336.00, 
2337.00, 
2338.00, 
2339.00, 
2340.00, 
2341.00, 
2342.00, 
2343.00, 
2344.00, 
2345.00, 
2346.00, 
2347.00, 
2348.00, 
2349.00, 
2350.00, 
2351.00, 
2352.00, 
2353.00, 
2354.00, 
2355.00, 
2356.00, 
2357.00, 
2358.00, 
2359.00, 
2360.00, 
2361.00, 
2362.00, 
2363.00, 
2364.00, 
2365.00, 
2366.00, 
2367.00, 
2368.00, 
2369.00, 
2370.00, 
2371.00, 
2372.00, 
2373.00, 
2374.00, 
2375.00, 
2376.00, 
2377.00, 
2378.00, 
2379.00, 
2380.00, 
2381.00, 
2382.00, 
2383.00, 
2384.00, 
2385.00, 
2386.00, 
2387.00, 
2388.00, 
2389.00, 
2390.00, 
2391.00, 
2392.00, 
2393.00, 
2394.00, 
2395.00, 
2396.00, 
2397.00, 
2398.00, 
2399.00, 
2400.00, 
2401.00, 
2402.00, 
2403.00, 
2404.00, 
2405.00, 
2406.00, 
2407.00, 
2408.00, 
2409.00, 
2410.00, 
2411.00, 
2412.00, 
2413.00, 
2414.00, 
2415.00, 
2416.00, 
2417.00, 
2418.00, 
2419.00, 
2420.00, 
2421.00, 
2422.00, 
2423.00, 
2424.00, 
2425.00, 
2426.00, 
2427.00, 
2428.00, 
2429.00, 
2430.00, 
2431.00, 
2432.00, 
2433.00, 
2434.00, 
2435.00, 
2436.00, 
2437.00, 
2438.00, 
2439.00, 
2440.00, 
2441.00, 
2442.00, 
2443.00, 
2444.00, 
2445.00, 
2446.00, 
2447.00, 
2448.00, 
2449.00, 
2450.00, 
2451.00, 
2452.00, 
2453.00, 
2454.00, 
2455.00, 
2456.00, 
2457.00, 
2458.00, 
2459.00, 
2460.00, 
2461.00, 
2462.00, 
2463.00, 
2464.00, 
2465.00, 
2466.00, 
2467.00, 
2468.00, 
2469.00, 
2470.00, 
2471.00, 
2472.00, 
2473.00, 
2474.00, 
2475.00, 
2476.00, 
2477.00, 
2478.00, 
2479.00, 
2480.00, 
2481.00, 
2482.00, 
2483.00, 
2484.00, 
2485.00, 
2486.00, 
2487.00, 
2488.00, 
2489.00, 
2490.00, 
2491.00, 
2492.00, 
2493.00, 
2494.00, 
2495.00, 
2496.00, 
2497.00, 
2498.00, 
2499.00, 
2500.00, 
2501.00, 
2502.00, 
2503.00, 
2504.00, 
2505.00, 
2506.00, 
2507.00, 
2508.00, 
2509.00, 
2510.00, 
2511.00, 
2512.00, 
2513.00, 
2514.00, 
2515.00, 
2516.00, 
2517.00, 
2518.00, 
2519.00, 
2520.00, 
2521.00, 
2522.00, 
2523.00, 
2524.00, 
2525.00, 
2526.00, 
2527.00, 
2528.00, 
2529.00, 
2530.00, 
2531.00, 
2532.00, 
2533.00, 
2534.00, 
2535.00, 
2536.00, 
2537.00, 
2538.00, 
2539.00, 
2540.00, 
2541.00, 
2542.00, 
2543.00, 
2544.00, 
2545.00, 
2546.00, 
2547.00, 
2548.00, 
2549.00, 
2550.00, 
2551.00, 
2552.00, 
2553.00, 
2554.00, 
2555.00, 
2556.00, 
2557.00, 
2558.00, 
2559.00, 
2560.00, 
2561.00, 
2562.00, 
2563.00, 
2564.00, 
2565.00, 
2566.00, 
2567.00, 
2568.00, 
2569.00, 
2570.00, 
2571.00, 
2572.00, 
2573.00, 
2574.00, 
2575.00, 
2576.00, 
2577.00, 
2578.00, 
2579.00, 
2580.00, 
2581.00, 
2582.00, 
2583.00, 
2584.00, 
2585.00, 
2586.00, 
2587.00, 
2588.00, 
2589.00, 
2590.00, 
2591.00, 
2592.00, 
2593.00, 
2594.00, 
2595.00, 
2596.00, 
2597.00, 
2598.00, 
2599.00, 
2600.00, 
