"2bP2 - RawData"
"Wavelength nm.","T%"
200.00,0.004
201.00,0.002
202.00,0.003
203.00,0.005
204.00,0.002
205.00,0.000
206.00,0.003
207.00,-0.001
208.00,0.000
209.00,0.004
210.00,0.004
211.00,0.001
212.00,0.002
213.00,0.001
214.00,-0.001
215.00,0.001
216.00,-0.001
217.00,-0.002
218.00,0.001
219.00,-0.000
220.00,0.001
221.00,0.001
222.00,0.000
223.00,-0.002
224.00,-0.001
225.00,-0.001
226.00,0.001
227.00,0.001
228.00,0.000
229.00,0.002
230.00,-0.002
231.00,-0.000
232.00,-0.001
233.00,-0.001
234.00,0.004
235.00,0.001
236.00,-0.002
237.00,-0.001
238.00,0.001
239.00,0.001
240.00,0.000
241.00,0.001
242.00,0.000
243.00,0.002
244.00,0.001
245.00,0.001
246.00,-0.000
247.00,0.001
248.00,-0.001
249.00,-0.001
250.00,-0.001
251.00,0.002
252.00,0.001
253.00,-0.000
254.00,0.000
255.00,-0.000
256.00,-0.000
257.00,0.002
258.00,0.000
259.00,0.003
260.00,-0.000
261.00,0.001
262.00,0.002
263.00,0.001
264.00,-0.001
265.00,-0.001
266.00,0.001
267.00,0.000
268.00,-0.001
269.00,0.000
270.00,0.001
271.00,0.001
272.00,-0.000
273.00,0.000
274.00,0.000
275.00,0.001
276.00,0.001
277.00,0.001
278.00,0.001
279.00,-0.000
280.00,0.000
281.00,0.001
282.00,-0.001
283.00,0.000
284.00,0.001
285.00,0.001
286.00,-0.001
287.00,-0.001
288.00,-0.000
289.00,0.002
290.00,0.003
291.00,-0.002
292.00,0.002
293.00,0.000
294.00,0.000
295.00,-0.000
296.00,-0.001
297.00,0.000
298.00,0.002
299.00,0.002
300.00,0.002
301.00,0.005
302.00,0.005
303.00,0.008
304.00,0.012
305.00,0.018
306.00,0.031
307.00,0.041
308.00,0.066
309.00,0.099
310.00,0.141
311.00,0.186
312.00,0.264
313.00,0.349
314.00,0.452
315.00,0.582
316.00,0.734
317.00,0.920
318.00,1.124
319.00,1.376
320.00,1.645
321.00,1.982
322.00,2.337
323.00,2.746
324.00,3.136
325.00,3.570
326.00,3.998
327.00,4.502
328.00,5.017
329.00,5.520
330.00,6.061
331.00,6.587
332.00,7.143
333.00,7.732
334.00,8.282
335.00,8.860
336.00,9.375
337.00,9.959
338.00,10.489
339.00,10.981
340.00,11.488
341.00,12.052
342.00,12.467
343.00,12.920
344.00,13.380
345.00,13.792
346.00,14.164
347.00,14.460
348.00,14.859
349.00,15.149
350.00,15.468
351.00,15.738
352.00,15.984
353.00,16.229
354.00,16.478
355.00,16.689
356.00,16.873
357.00,17.057
358.00,17.221
359.00,17.392
360.00,17.575
361.00,17.630
362.00,17.765
363.00,17.862
364.00,17.917
365.00,17.985
366.00,18.074
367.00,18.116
368.00,18.137
369.00,18.175
370.00,18.213
371.00,18.194
372.00,18.178
373.00,18.187
374.00,18.184
375.00,18.124
376.00,18.098
377.00,18.040
378.00,17.971
379.00,17.932
380.00,17.890
381.00,17.844
382.00,17.824
383.00,17.839
384.00,17.839
385.00,17.848
386.00,17.843
387.00,17.924
388.00,17.873
389.00,17.871
390.00,17.878
391.00,17.872
392.00,17.852
393.00,17.882
394.00,17.872
395.00,17.811
396.00,17.816
397.00,17.813
398.00,17.854
399.00,17.817
400.00,17.816
401.00,17.794
402.00,17.792
403.00,17.770
404.00,17.776
405.00,17.745
406.00,17.751
407.00,17.692
408.00,17.721
409.00,17.639
410.00,17.643
411.00,17.622
412.00,17.626
413.00,17.611
414.00,17.589
415.00,17.625
416.00,17.674
417.00,17.682
418.00,17.637
419.00,17.713
420.00,17.742
421.00,17.761
422.00,17.758
423.00,17.812
424.00,17.833
425.00,17.874
426.00,17.888
427.00,17.957
428.00,17.951
429.00,18.019
430.00,18.073
431.00,18.113
432.00,18.158
433.00,18.212
434.00,18.278
435.00,18.342
436.00,18.390
437.00,18.452
438.00,18.516
439.00,18.579
440.00,18.661
441.00,18.754
442.00,18.826
443.00,18.896
444.00,19.029
445.00,19.059
446.00,19.152
447.00,19.230
448.00,19.364
449.00,19.455
450.00,19.575
451.00,19.658
452.00,19.743
453.00,19.877
454.00,19.939
455.00,20.063
456.00,20.208
457.00,20.289
458.00,20.415
459.00,20.567
460.00,20.679
461.00,20.815
462.00,20.931
463.00,21.065
464.00,21.211
465.00,21.306
466.00,21.435
467.00,21.616
468.00,21.698
469.00,21.832
470.00,21.951
471.00,22.042
472.00,22.157
473.00,22.231
474.00,22.397
475.00,22.501
476.00,22.613
477.00,22.752
478.00,22.872
479.00,23.051
480.00,23.185
481.00,23.320
482.00,23.483
483.00,23.635
484.00,23.813
485.00,23.972
486.00,24.119
487.00,24.271
488.00,24.402
489.00,24.574
490.00,24.704
491.00,24.871
492.00,25.018
493.00,25.208
494.00,25.373
495.00,25.446
496.00,25.563
497.00,25.670
498.00,25.833
499.00,25.924
500.00,26.114
501.00,26.236
502.00,26.411
503.00,26.531
504.00,26.619
505.00,26.776
506.00,26.876
507.00,27.002
508.00,27.170
509.00,27.346
510.00,27.490
511.00,27.575
512.00,27.710
513.00,27.859
514.00,27.972
515.00,28.073
516.00,28.223
517.00,28.313
518.00,28.489
519.00,28.574
520.00,28.649
521.00,28.787
522.00,28.871
523.00,28.924
524.00,29.105
525.00,29.174
526.00,29.262
527.00,29.362
528.00,29.433
529.00,29.614
530.00,29.757
531.00,29.834
532.00,29.946
533.00,30.112
534.00,30.150
535.00,30.219
536.00,30.329
537.00,30.413
538.00,30.498
539.00,30.550
540.00,30.658
541.00,30.712
542.00,30.760
543.00,30.871
544.00,30.933
545.00,31.038
546.00,31.077
547.00,31.200
548.00,31.297
549.00,31.354
550.00,31.433
551.00,31.497
552.00,31.585
553.00,31.651
554.00,31.711
555.00,31.733
556.00,31.812
557.00,31.927
558.00,32.024
559.00,32.057
560.00,32.114
561.00,32.198
562.00,32.251
563.00,32.308
564.00,32.355
565.00,32.404
566.00,32.430
567.00,32.495
568.00,32.527
569.00,32.621
570.00,32.659
571.00,32.699
572.00,32.696
573.00,32.708
574.00,32.803
575.00,32.793
576.00,32.809
577.00,32.858
578.00,32.962
579.00,33.055
580.00,33.090
581.00,33.239
582.00,33.297
583.00,33.301
584.00,33.449
585.00,33.520
586.00,33.480
587.00,33.598
588.00,33.613
589.00,33.559
590.00,33.762
591.00,33.805
592.00,33.852
593.00,33.935
594.00,33.915
595.00,34.022
596.00,34.042
597.00,34.092
598.00,34.149
599.00,34.216
600.00,34.262
601.00,34.335
602.00,34.355
603.00,34.347
604.00,34.395
605.00,34.463
606.00,34.488
607.00,34.592
608.00,34.738
609.00,34.823
610.00,34.694
611.00,34.803
612.00,34.804
613.00,34.894
614.00,35.028
615.00,35.017
616.00,35.151
617.00,35.137
618.00,35.176
619.00,35.231
620.00,35.227
621.00,35.351
622.00,35.382
623.00,35.462
624.00,35.576
625.00,35.621
626.00,35.769
627.00,35.779
628.00,35.735
629.00,35.791
630.00,35.977
631.00,36.131
632.00,36.172
633.00,36.296
634.00,36.374
635.00,36.476
636.00,36.568
637.00,36.565
638.00,36.646
639.00,36.779
640.00,36.853
641.00,36.896
642.00,37.032
643.00,37.028
644.00,37.161
645.00,37.270
646.00,37.428
647.00,37.529
648.00,37.617
649.00,37.586
650.00,37.687
651.00,37.881
652.00,37.924
653.00,37.930
654.00,38.091
655.00,38.223
656.00,38.612
657.00,38.376
658.00,38.661
659.00,38.809
660.00,38.853
661.00,38.846
662.00,39.002
663.00,39.092
664.00,39.309
665.00,39.493
666.00,39.462
667.00,39.555
668.00,39.538
669.00,39.841
670.00,40.089
671.00,39.989
672.00,40.210
673.00,40.322
674.00,40.432
675.00,40.509
676.00,40.695
677.00,40.870
678.00,40.661
679.00,41.030
680.00,41.205
681.00,41.285
682.00,41.189
683.00,41.353
684.00,41.564
685.00,41.653
686.00,41.585
687.00,41.829
688.00,41.967
689.00,41.985
690.00,42.311
691.00,42.545
692.00,42.197
693.00,42.277
694.00,42.508
695.00,42.740
696.00,42.822
697.00,42.744
698.00,42.906
699.00,43.245
700.00,43.340
701.00,43.323
702.00,43.465
703.00,43.758
704.00,43.778
705.00,43.815
706.00,43.891
707.00,43.985
708.00,43.911
709.00,44.349
710.00,44.694
711.00,44.325
712.00,44.357
713.00,44.608
714.00,44.705
715.00,44.684
716.00,44.753
717.00,45.051
718.00,45.244
719.00,45.238
720.00,45.254
721.00,49.603
722.00,49.576
723.00,49.652
724.00,49.665
725.00,49.704
726.00,49.777
727.00,49.818
728.00,49.950
729.00,49.866
730.00,49.958
731.00,50.063
732.00,50.115
733.00,50.154
734.00,50.230
735.00,50.293
736.00,50.375
737.00,50.401
738.00,50.438
739.00,50.502
740.00,50.593
741.00,50.607
742.00,50.686
743.00,50.671
744.00,50.807
745.00,50.826
746.00,50.713
747.00,50.813
748.00,50.760
749.00,50.831
750.00,50.892
751.00,50.934
752.00,50.909
753.00,50.951
754.00,51.028
755.00,51.088
756.00,51.056
757.00,51.058
758.00,51.141
759.00,51.135
760.00,51.241
761.00,51.167
762.00,51.251
763.00,51.340
764.00,51.272
765.00,51.354
766.00,51.402
767.00,51.408
768.00,51.499
769.00,51.506
770.00,51.516
771.00,51.490
772.00,51.521
773.00,51.539
774.00,51.615
775.00,51.680
776.00,51.529
777.00,51.642
778.00,51.612
779.00,51.752
780.00,51.726
781.00,51.756
782.00,51.791
783.00,51.660
784.00,51.797
785.00,51.750
786.00,51.769
787.00,51.797
788.00,51.807
789.00,51.758
790.00,51.821
791.00,51.845
792.00,51.799
793.00,51.822
794.00,51.819
795.00,51.878
796.00,51.841
797.00,51.758
798.00,51.832
799.00,51.812
800.00,51.781
801.00,51.831
802.00,51.847
803.00,51.815
804.00,51.758
805.00,51.842
806.00,51.816
807.00,51.751
808.00,51.787
809.00,51.828
810.00,51.740
811.00,51.768
812.00,51.892
813.00,51.750
814.00,51.799
815.00,51.729
816.00,51.802
817.00,51.765
818.00,51.717
819.00,51.751
820.00,51.747
821.00,51.724
822.00,51.733
823.00,51.724
824.00,51.700
825.00,51.643
826.00,51.647
827.00,51.732
828.00,51.778
829.00,51.637
830.00,51.788
831.00,54.113
832.00,54.092
833.00,54.071
834.00,54.081
835.00,54.066
836.00,54.117
837.00,54.076
838.00,54.056
839.00,54.033
840.00,53.975
841.00,54.012
842.00,53.994
843.00,53.999
844.00,53.956
845.00,53.942
846.00,53.967
847.00,53.920
848.00,53.944
849.00,53.895
850.00,53.855
851.00,53.792
852.00,53.817
853.00,53.791
854.00,53.797
855.00,53.731
856.00,53.739
857.00,53.701
858.00,53.704
859.00,53.671
860.00,53.665
861.00,53.683
862.00,53.623
863.00,53.638
864.00,53.636
865.00,53.673
866.00,53.621
867.00,53.633
868.00,53.599
869.00,53.588
870.00,53.586
871.00,53.561
872.00,53.569
873.00,53.556
874.00,53.545
875.00,53.554
876.00,53.540
877.00,53.491
878.00,53.572
879.00,53.529
880.00,53.504
881.00,53.500
882.00,53.514
883.00,53.464
884.00,53.429
885.00,53.413
886.00,53.397
887.00,53.385
888.00,53.380
889.00,53.377
890.00,53.376
891.00,53.333
892.00,53.343
893.00,53.292
894.00,53.331
895.00,53.285
896.00,53.261
897.00,53.228
898.00,53.200
899.00,53.201
900.00,53.191
901.00,53.215
902.00,53.186
903.00,53.168
904.00,53.153
905.00,53.116
906.00,53.126
907.00,53.100
908.00,53.065
909.00,53.067
910.00,53.050
911.00,52.998
912.00,53.027
913.00,52.975
914.00,52.951
915.00,53.012
916.00,52.860
917.00,52.922
918.00,52.916
919.00,52.901
920.00,52.822
921.00,52.852
922.00,52.841
923.00,52.826
924.00,52.793
925.00,52.789
926.00,52.761
927.00,52.763
928.00,52.733
929.00,52.749
930.00,52.710
931.00,52.694
932.00,52.662
933.00,52.701
934.00,52.655
935.00,52.640
936.00,52.601
937.00,52.595
938.00,52.585
939.00,52.557
940.00,52.538
941.00,52.538
942.00,52.509
943.00,52.489
944.00,52.461
945.00,52.473
946.00,52.456
947.00,52.376
948.00,52.378
949.00,52.455
950.00,52.355
951.00,52.347
952.00,52.328
953.00,52.285
954.00,52.277
955.00,52.228
956.00,52.223
957.00,52.189
958.00,52.194
959.00,52.135
960.00,52.137
961.00,52.125
962.00,52.144
963.00,52.108
964.00,52.077
965.00,52.091
966.00,52.069
967.00,52.067
968.00,52.054
969.00,52.060
970.00,52.036
971.00,52.060
972.00,52.025
973.00,52.070
974.00,52.102
975.00,52.053
976.00,52.057
977.00,51.979
978.00,52.078
979.00,52.045
980.00,52.060
981.00,52.065
982.00,52.041
983.00,52.032
984.00,52.026
985.00,52.039
986.00,52.000
987.00,52.025
988.00,51.981
989.00,51.979
990.00,51.981
991.00,51.957
992.00,51.973
993.00,51.937
994.00,51.910
995.00,51.923
996.00,51.911
997.00,51.899
998.00,51.875
999.00,51.900
1000.00,51.855
1001.00,51.861
1002.00,51.847
1003.00,51.840
1004.00,51.828
1005.00,51.790
1006.00,51.820
1007.00,51.814
1008.00,51.767
1009.00,51.755
1010.00,51.782
1011.00,51.733
1012.00,51.704
1013.00,51.711
1014.00,51.685
1015.00,51.698
1016.00,51.649
1017.00,51.651
1018.00,51.648
1019.00,51.600
1020.00,51.596
1021.00,51.587
1022.00,51.588
1023.00,51.522
1024.00,51.542
1025.00,51.562
1026.00,51.511
1027.00,51.479
1028.00,51.482
1029.00,51.462
1030.00,51.419
1031.00,51.440
1032.00,51.402
1033.00,51.399
1034.00,51.388
1035.00,51.354
1036.00,51.330
1037.00,51.316
1038.00,51.310
1039.00,51.265
1040.00,51.264
1041.00,51.220
1042.00,51.208
1043.00,51.182
1044.00,51.197
1045.00,51.201
1046.00,51.184
1047.00,51.216
1048.00,51.230
1049.00,51.229
1050.00,51.244
1051.00,51.286
1052.00,51.269
1053.00,51.279
1054.00,51.278
1055.00,51.307
1056.00,51.310
1057.00,51.300
1058.00,51.287
1059.00,51.287
1060.00,51.291
1061.00,51.279
1062.00,51.265
1063.00,51.254
1064.00,51.259
1065.00,51.234
1066.00,51.236
1067.00,51.237
1068.00,51.236
1069.00,51.207
1070.00,51.226
1071.00,51.226
1072.00,51.198
1073.00,51.174
1074.00,51.174
1075.00,51.167
1076.00,51.166
1077.00,51.151
1078.00,51.147
1079.00,51.137
1080.00,51.137
1081.00,51.131
1082.00,51.113
1083.00,51.119
1084.00,51.119
1085.00,51.115
1086.00,51.121
1087.00,51.077
1088.00,51.066
1089.00,51.057
1090.00,51.059
1091.00,51.056
1092.00,51.042
1093.00,51.015
1094.00,51.005
1095.00,51.008
1096.00,50.981
1097.00,50.978
1098.00,50.971
1099.00,50.974
1100.00,50.961
1101.00,50.932
1102.00,50.926
1103.00,50.932
1104.00,50.917
1105.00,50.915
1106.00,50.916
1107.00,50.892
1108.00,50.887
1109.00,50.880
1110.00,50.874
1111.00,50.876
1112.00,50.852
1113.00,50.849
1114.00,50.843
1115.00,50.835
1116.00,50.830
1117.00,50.817
1118.00,50.801
1119.00,50.797
1120.00,50.791
1121.00,50.785
1122.00,50.787
1123.00,50.779
1124.00,50.773
1125.00,50.782
1126.00,50.752
1127.00,50.755
1128.00,50.750
1129.00,50.701
1130.00,50.700
1131.00,50.713
1132.00,50.689
1133.00,50.686
1134.00,50.682
1135.00,50.673
1136.00,50.688
1137.00,50.690
1138.00,50.678
1139.00,50.700
1140.00,50.668
1141.00,50.675
1142.00,50.663
1143.00,50.657
1144.00,50.652
1145.00,50.615
1146.00,50.634
1147.00,50.649
1148.00,50.616
1149.00,50.628
1150.00,50.641
1151.00,50.624
1152.00,50.614
1153.00,50.610
1154.00,50.598
1155.00,50.615
1156.00,50.614
1157.00,50.616
1158.00,50.618
1159.00,50.607
1160.00,50.605
1161.00,50.619
1162.00,50.596
1163.00,50.606
1164.00,50.581
1165.00,50.577
1166.00,50.582
1167.00,50.567
1168.00,50.581
1169.00,50.581
1170.00,50.563
1171.00,50.556
1172.00,50.571
1173.00,50.552
1174.00,50.556
1175.00,50.556
1176.00,50.555
1177.00,50.545
1178.00,50.531
1179.00,50.543
1180.00,50.533
1181.00,50.542
1182.00,50.539
1183.00,50.541
1184.00,50.526
1185.00,50.538
1186.00,50.538
1187.00,50.539
1188.00,50.533
1189.00,50.527
1190.00,50.516
1191.00,50.514
1192.00,50.537
1193.00,50.529
1194.00,50.519
1195.00,50.486
1196.00,50.520
1197.00,50.510
1198.00,50.518
1199.00,50.507
1200.00,50.512
1201.00,50.518
1202.00,50.510
1203.00,50.498
1204.00,50.495
1205.00,50.523
1206.00,50.491
1207.00,50.508
1208.00,50.514
1209.00,50.497
1210.00,50.500
1211.00,50.494
1212.00,50.516
1213.00,50.479
1214.00,50.489
1215.00,50.484
1216.00,50.497
1217.00,50.485
1218.00,50.481
1219.00,50.480
1220.00,50.477
1221.00,50.481
1222.00,50.463
1223.00,50.484
1224.00,50.485
1225.00,50.456
1226.00,50.474
1227.00,50.479
1228.00,50.488
1229.00,50.499
1230.00,50.530
1231.00,50.534
1232.00,50.532
1233.00,50.541
1234.00,50.532
1235.00,50.546
1236.00,50.526
1237.00,50.525
1238.00,50.529
1239.00,50.523
1240.00,50.526
1241.00,50.514
1242.00,50.521
1243.00,50.531
1244.00,50.515
1245.00,50.551
1246.00,50.564
1247.00,50.537
1248.00,50.534
1249.00,50.558
1250.00,50.542
1251.00,50.555
1252.00,50.546
1253.00,50.537
1254.00,50.586
1255.00,50.547
1256.00,50.535
1257.00,50.539
1258.00,50.567
1259.00,50.573
1260.00,50.601
1261.00,50.589
1262.00,50.590
1263.00,50.592
1264.00,50.602
1265.00,50.604
1266.00,50.615
1267.00,50.601
1268.00,50.620
1269.00,50.621
1270.00,50.621
1271.00,50.620
1272.00,50.623
1273.00,50.640
1274.00,50.624
1275.00,50.630
1276.00,50.643
1277.00,50.642
1278.00,50.645
1279.00,50.653
1280.00,50.652
1281.00,50.663
1282.00,50.680
1283.00,50.662
1284.00,50.670
1285.00,50.664
1286.00,50.662
1287.00,50.678
1288.00,50.655
1289.00,50.660
1290.00,50.679
1291.00,50.680
1292.00,50.685
1293.00,50.697
1294.00,50.698
1295.00,50.714
1296.00,50.698
1297.00,50.717
1298.00,50.739
1299.00,50.716
1300.00,50.712
1301.00,50.738
1302.00,50.733
1303.00,50.748
1304.00,50.737
1305.00,50.742
1306.00,50.771
1307.00,50.773
1308.00,50.798
1309.00,50.799
1310.00,50.806
1311.00,50.783
1312.00,50.801
1313.00,50.766
1314.00,50.798
1315.00,50.827
1316.00,50.805
1317.00,50.838
1318.00,50.835
1319.00,50.811
1320.00,50.829
1321.00,50.967
1322.00,50.981
1323.00,50.973
1324.00,50.972
1325.00,50.987
1326.00,50.972
1327.00,50.958
1328.00,50.948
1329.00,50.955
1330.00,50.956
1331.00,50.960
1332.00,50.944
1333.00,50.963
1334.00,50.994
1335.00,51.013
1336.00,51.022
1337.00,51.064
1338.00,51.099
1339.00,51.158
1340.00,51.213
1341.00,51.277
1342.00,51.332
1343.00,51.378
1344.00,51.425
1345.00,51.498
1346.00,51.521
1347.00,51.560
1348.00,51.588
1349.00,51.609
1350.00,51.614
1351.00,51.640
1352.00,51.620
1353.00,51.669
1354.00,51.656
1355.00,51.646
1356.00,51.680
1357.00,51.658
1358.00,51.695
1359.00,51.605
1360.00,51.670
1361.00,51.684
1362.00,51.623
1363.00,51.739
1364.00,51.740
1365.00,51.679
1366.00,51.710
1367.00,51.705
1368.00,51.653
1369.00,51.685
1370.00,51.675
1371.00,51.677
1372.00,51.637
1373.00,51.664
1374.00,51.671
1375.00,51.654
1376.00,51.627
1377.00,51.614
1378.00,51.661
1379.00,51.648
1380.00,51.644
1381.00,51.677
1382.00,51.640
1383.00,51.628
1384.00,51.598
1385.00,51.558
1386.00,51.655
1387.00,51.618
1388.00,51.571
1389.00,51.544
1390.00,51.628
1391.00,51.630
1392.00,51.595
1393.00,51.635
1394.00,51.643
1395.00,51.594
1396.00,51.555
1397.00,51.612
1398.00,51.677
1399.00,51.653
1400.00,51.608
1401.00,51.579
1402.00,51.696
1403.00,51.661
1404.00,51.637
1405.00,51.672
1406.00,51.663
1407.00,51.687
1408.00,51.682
1409.00,51.663
1410.00,51.692
1411.00,51.696
1412.00,51.715
1413.00,51.691
1414.00,51.672
1415.00,51.708
1416.00,51.715
1417.00,51.742
1418.00,51.727
1419.00,51.735
1420.00,51.761
1421.00,51.789
1422.00,51.797
1423.00,51.783
1424.00,51.800
1425.00,51.809
1426.00,51.823
1427.00,51.844
1428.00,51.842
1429.00,51.847
1430.00,51.861
1431.00,51.869
1432.00,51.894
1433.00,51.924
1434.00,51.898
1435.00,51.970
1436.00,51.980
1437.00,51.970
1438.00,51.983
1439.00,52.008
1440.00,52.019
1441.00,52.026
1442.00,52.020
1443.00,52.061
1444.00,52.111
1445.00,52.074
1446.00,52.072
1447.00,52.121
1448.00,52.135
1449.00,52.149
1450.00,52.149
1451.00,52.169
1452.00,52.189
1453.00,52.221
1454.00,52.212
1455.00,52.248
1456.00,52.248
1457.00,52.251
1458.00,52.266
1459.00,52.294
1460.00,52.298
1461.00,52.306
1462.00,52.346
1463.00,52.375
1464.00,52.360
1465.00,52.375
1466.00,52.391
1467.00,52.405
1468.00,52.436
1469.00,52.415
1470.00,52.443
1471.00,52.463
1472.00,52.465
1473.00,52.500
1474.00,52.504
1475.00,52.505
1476.00,52.513
1477.00,52.514
1478.00,52.517
1479.00,52.530
1480.00,52.532
1481.00,52.550
1482.00,52.582
1483.00,52.603
1484.00,52.604
1485.00,52.621
1486.00,52.618
1487.00,52.644
1488.00,52.662
1489.00,52.646
1490.00,52.662
1491.00,52.689
1492.00,52.699
1493.00,52.692
1494.00,52.725
1495.00,52.715
1496.00,52.729
1497.00,52.723
1498.00,52.727
1499.00,52.761
1500.00,52.747
1501.00, 
1502.00, 
1503.00, 
1504.00, 
1505.00, 
1506.00, 
1507.00, 
1508.00, 
1509.00, 
1510.00, 
1511.00, 
1512.00, 
1513.00, 
1514.00, 
1515.00, 
1516.00, 
1517.00, 
1518.00, 
1519.00, 
1520.00, 
1521.00, 
1522.00, 
1523.00, 
1524.00, 
1525.00, 
1526.00, 
1527.00, 
1528.00, 
1529.00, 
1530.00, 
1531.00, 
1532.00, 
1533.00, 
1534.00, 
1535.00, 
1536.00, 
1537.00, 
1538.00, 
1539.00, 
1540.00, 
1541.00, 
1542.00, 
1543.00, 
1544.00, 
1545.00, 
1546.00, 
1547.00, 
1548.00, 
1549.00, 
1550.00, 
1551.00, 
1552.00, 
1553.00, 
1554.00, 
1555.00, 
1556.00, 
1557.00, 
1558.00, 
1559.00, 
1560.00, 
1561.00, 
1562.00, 
1563.00, 
1564.00, 
1565.00, 
1566.00, 
1567.00, 
1568.00, 
1569.00, 
1570.00, 
1571.00, 
1572.00, 
1573.00, 
1574.00, 
1575.00, 
1576.00, 
1577.00, 
1578.00, 
1579.00, 
1580.00, 
1581.00, 
1582.00, 
1583.00, 
1584.00, 
1585.00, 
1586.00, 
1587.00, 
1588.00, 
1589.00, 
1590.00, 
1591.00, 
1592.00, 
1593.00, 
1594.00, 
1595.00, 
1596.00, 
1597.00, 
1598.00, 
1599.00, 
1600.00, 
1601.00, 
1602.00, 
1603.00, 
1604.00, 
1605.00, 
1606.00, 
1607.00, 
1608.00, 
1609.00, 
1610.00, 
1611.00, 
1612.00, 
1613.00, 
1614.00, 
1615.00, 
1616.00, 
1617.00, 
1618.00, 
1619.00, 
1620.00, 
1621.00, 
1622.00, 
1623.00, 
1624.00, 
1625.00, 
1626.00, 
1627.00, 
1628.00, 
1629.00, 
1630.00, 
1631.00, 
1632.00, 
1633.00, 
1634.00, 
1635.00, 
1636.00, 
1637.00, 
1638.00, 
1639.00, 
1640.00, 
1641.00, 
1642.00, 
1643.00, 
1644.00, 
1645.00, 
1646.00, 
1647.00, 
1648.00, 
1649.00, 
1650.00, 
1651.00, 
1652.00, 
1653.00, 
1654.00, 
1655.00, 
1656.00, 
1657.00, 
1658.00, 
1659.00, 
1660.00, 
1661.00, 
1662.00, 
1663.00, 
1664.00, 
1665.00, 
1666.00, 
1667.00, 
1668.00, 
1669.00, 
1670.00, 
1671.00, 
1672.00, 
1673.00, 
1674.00, 
1675.00, 
1676.00, 
1677.00, 
1678.00, 
1679.00, 
1680.00, 
1681.00, 
1682.00, 
1683.00, 
1684.00, 
1685.00, 
1686.00, 
1687.00, 
1688.00, 
1689.00, 
1690.00, 
1691.00, 
1692.00, 
1693.00, 
1694.00, 
1695.00, 
1696.00, 
1697.00, 
1698.00, 
1699.00, 
1700.00, 
1701.00, 
1702.00, 
1703.00, 
1704.00, 
1705.00, 
1706.00, 
1707.00, 
1708.00, 
1709.00, 
1710.00, 
1711.00, 
1712.00, 
1713.00, 
1714.00, 
1715.00, 
1716.00, 
1717.00, 
1718.00, 
1719.00, 
1720.00, 
1721.00, 
1722.00, 
1723.00, 
1724.00, 
1725.00, 
1726.00, 
1727.00, 
1728.00, 
1729.00, 
1730.00, 
1731.00, 
1732.00, 
1733.00, 
1734.00, 
1735.00, 
1736.00, 
1737.00, 
1738.00, 
1739.00, 
1740.00, 
1741.00, 
1742.00, 
1743.00, 
1744.00, 
1745.00, 
1746.00, 
1747.00, 
1748.00, 
1749.00, 
1750.00, 
1751.00, 
1752.00, 
1753.00, 
1754.00, 
1755.00, 
1756.00, 
1757.00, 
1758.00, 
1759.00, 
1760.00, 
1761.00, 
1762.00, 
1763.00, 
1764.00, 
1765.00, 
1766.00, 
1767.00, 
1768.00, 
1769.00, 
1770.00, 
1771.00, 
1772.00, 
1773.00, 
1774.00, 
1775.00, 
1776.00, 
1777.00, 
1778.00, 
1779.00, 
1780.00, 
1781.00, 
1782.00, 
1783.00, 
1784.00, 
1785.00, 
1786.00, 
1787.00, 
1788.00, 
1789.00, 
1790.00, 
1791.00, 
1792.00, 
1793.00, 
1794.00, 
1795.00, 
1796.00, 
1797.00, 
1798.00, 
1799.00, 
1800.00, 
1801.00, 
1802.00, 
1803.00, 
1804.00, 
1805.00, 
1806.00, 
1807.00, 
1808.00, 
1809.00, 
1810.00, 
1811.00, 
1812.00, 
1813.00, 
1814.00, 
1815.00, 
1816.00, 
1817.00, 
1818.00, 
1819.00, 
1820.00, 
1821.00, 
1822.00, 
1823.00, 
1824.00, 
1825.00, 
1826.00, 
1827.00, 
1828.00, 
1829.00, 
1830.00, 
1831.00, 
1832.00, 
1833.00, 
1834.00, 
1835.00, 
1836.00, 
1837.00, 
1838.00, 
1839.00, 
1840.00, 
1841.00, 
1842.00, 
1843.00, 
1844.00, 
1845.00, 
1846.00, 
1847.00, 
1848.00, 
1849.00, 
1850.00, 
1851.00, 
1852.00, 
1853.00, 
1854.00, 
1855.00, 
1856.00, 
1857.00, 
1858.00, 
1859.00, 
1860.00, 
1861.00, 
1862.00, 
1863.00, 
1864.00, 
1865.00, 
1866.00, 
1867.00, 
1868.00, 
1869.00, 
1870.00, 
1871.00, 
1872.00, 
1873.00, 
1874.00, 
1875.00, 
1876.00, 
1877.00, 
1878.00, 
1879.00, 
1880.00, 
1881.00, 
1882.00, 
1883.00, 
1884.00, 
1885.00, 
1886.00, 
1887.00, 
1888.00, 
1889.00, 
1890.00, 
1891.00, 
1892.00, 
1893.00, 
1894.00, 
1895.00, 
1896.00, 
1897.00, 
1898.00, 
1899.00, 
1900.00, 
1901.00, 
1902.00, 
1903.00, 
1904.00, 
1905.00, 
1906.00, 
1907.00, 
1908.00, 
1909.00, 
1910.00, 
1911.00, 
1912.00, 
1913.00, 
1914.00, 
1915.00, 
1916.00, 
1917.00, 
1918.00, 
1919.00, 
1920.00, 
1921.00, 
1922.00, 
1923.00, 
1924.00, 
1925.00, 
1926.00, 
1927.00, 
1928.00, 
1929.00, 
1930.00, 
1931.00, 
1932.00, 
1933.00, 
1934.00, 
1935.00, 
1936.00, 
1937.00, 
1938.00, 
1939.00, 
1940.00, 
1941.00, 
1942.00, 
1943.00, 
1944.00, 
1945.00, 
1946.00, 
1947.00, 
1948.00, 
1949.00, 
1950.00, 
1951.00, 
1952.00, 
1953.00, 
1954.00, 
1955.00, 
1956.00, 
1957.00, 
1958.00, 
1959.00, 
1960.00, 
1961.00, 
1962.00, 
1963.00, 
1964.00, 
1965.00, 
1966.00, 
1967.00, 
1968.00, 
1969.00, 
1970.00, 
1971.00, 
1972.00, 
1973.00, 
1974.00, 
1975.00, 
1976.00, 
1977.00, 
1978.00, 
1979.00, 
1980.00, 
1981.00, 
1982.00, 
1983.00, 
1984.00, 
1985.00, 
1986.00, 
1987.00, 
1988.00, 
1989.00, 
1990.00, 
1991.00, 
1992.00, 
1993.00, 
1994.00, 
1995.00, 
1996.00, 
1997.00, 
1998.00, 
1999.00, 
2000.00, 
2001.00, 
2002.00, 
2003.00, 
2004.00, 
2005.00, 
2006.00, 
2007.00, 
2008.00, 
2009.00, 
2010.00, 
2011.00, 
2012.00, 
2013.00, 
2014.00, 
2015.00, 
2016.00, 
2017.00, 
2018.00, 
2019.00, 
2020.00, 
2021.00, 
2022.00, 
2023.00, 
2024.00, 
2025.00, 
2026.00, 
2027.00, 
2028.00, 
2029.00, 
2030.00, 
2031.00, 
2032.00, 
2033.00, 
2034.00, 
2035.00, 
2036.00, 
2037.00, 
2038.00, 
2039.00, 
2040.00, 
2041.00, 
2042.00, 
2043.00, 
2044.00, 
2045.00, 
2046.00, 
2047.00, 
2048.00, 
2049.00, 
2050.00, 
2051.00, 
2052.00, 
2053.00, 
2054.00, 
2055.00, 
2056.00, 
2057.00, 
2058.00, 
2059.00, 
2060.00, 
2061.00, 
2062.00, 
2063.00, 
2064.00, 
2065.00, 
2066.00, 
2067.00, 
2068.00, 
2069.00, 
2070.00, 
2071.00, 
2072.00, 
2073.00, 
2074.00, 
2075.00, 
2076.00, 
2077.00, 
2078.00, 
2079.00, 
2080.00, 
2081.00, 
2082.00, 
2083.00, 
2084.00, 
2085.00, 
2086.00, 
2087.00, 
2088.00, 
2089.00, 
2090.00, 
2091.00, 
2092.00, 
2093.00, 
2094.00, 
2095.00, 
2096.00, 
2097.00, 
2098.00, 
2099.00, 
2100.00, 
2101.00, 
2102.00, 
2103.00, 
2104.00, 
2105.00, 
2106.00, 
2107.00, 
2108.00, 
2109.00, 
2110.00, 
2111.00, 
2112.00, 
2113.00, 
2114.00, 
2115.00, 
2116.00, 
2117.00, 
2118.00, 
2119.00, 
2120.00, 
2121.00, 
2122.00, 
2123.00, 
2124.00, 
2125.00, 
2126.00, 
2127.00, 
2128.00, 
2129.00, 
2130.00, 
2131.00, 
2132.00, 
2133.00, 
2134.00, 
2135.00, 
2136.00, 
2137.00, 
2138.00, 
2139.00, 
2140.00, 
2141.00, 
2142.00, 
2143.00, 
2144.00, 
2145.00, 
2146.00, 
2147.00, 
2148.00, 
2149.00, 
2150.00, 
2151.00, 
2152.00, 
2153.00, 
2154.00, 
2155.00, 
2156.00, 
2157.00, 
2158.00, 
2159.00, 
2160.00, 
2161.00, 
2162.00, 
2163.00, 
2164.00, 
2165.00, 
2166.00, 
2167.00, 
2168.00, 
2169.00, 
2170.00, 
2171.00, 
2172.00, 
2173.00, 
2174.00, 
2175.00, 
2176.00, 
2177.00, 
2178.00, 
2179.00, 
2180.00, 
2181.00, 
2182.00, 
2183.00, 
2184.00, 
2185.00, 
2186.00, 
2187.00, 
2188.00, 
2189.00, 
2190.00, 
2191.00, 
2192.00, 
2193.00, 
2194.00, 
2195.00, 
2196.00, 
2197.00, 
2198.00, 
2199.00, 
2200.00, 
2201.00, 
2202.00, 
2203.00, 
2204.00, 
2205.00, 
2206.00, 
2207.00, 
2208.00, 
2209.00, 
2210.00, 
2211.00, 
2212.00, 
2213.00, 
2214.00, 
2215.00, 
2216.00, 
2217.00, 
2218.00, 
2219.00, 
2220.00, 
2221.00, 
2222.00, 
2223.00, 
2224.00, 
2225.00, 
2226.00, 
2227.00, 
2228.00, 
2229.00, 
2230.00, 
2231.00, 
2232.00, 
2233.00, 
2234.00, 
2235.00, 
2236.00, 
2237.00, 
2238.00, 
2239.00, 
2240.00, 
2241.00, 
2242.00, 
2243.00, 
2244.00, 
2245.00, 
2246.00, 
2247.00, 
2248.00, 
2249.00, 
2250.00, 
2251.00, 
2252.00, 
2253.00, 
2254.00, 
2255.00, 
2256.00, 
2257.00, 
2258.00, 
2259.00, 
2260.00, 
2261.00, 
2262.00, 
2263.00, 
2264.00, 
2265.00, 
2266.00, 
2267.00, 
2268.00, 
2269.00, 
2270.00, 
2271.00, 
2272.00, 
2273.00, 
2274.00, 
2275.00, 
2276.00, 
2277.00, 
2278.00, 
2279.00, 
2280.00, 
2281.00, 
2282.00, 
2283.00, 
2284.00, 
2285.00, 
2286.00, 
2287.00, 
2288.00, 
2289.00, 
2290.00, 
2291.00, 
2292.00, 
2293.00, 
2294.00, 
2295.00, 
2296.00, 
2297.00, 
2298.00, 
2299.00, 
2300.00, 
2301.00, 
2302.00, 
2303.00, 
2304.00, 
2305.00, 
2306.00, 
2307.00, 
2308.00, 
2309.00, 
2310.00, 
2311.00, 
2312.00, 
2313.00, 
2314.00, 
2315.00, 
2316.00, 
2317.00, 
2318.00, 
2319.00, 
2320.00, 
2321.00, 
2322.00, 
2323.00, 
2324.00, 
2325.00, 
2326.00, 
2327.00, 
2328.00, 
2329.00, 
2330.00, 
2331.00, 
2332.00, 
2333.00, 
2334.00, 
2335.00, 
2336.00, 
2337.00, 
2338.00, 
2339.00, 
2340.00, 
2341.00, 
2342.00, 
2343.00, 
2344.00, 
2345.00, 
2346.00, 
2347.00, 
2348.00, 
2349.00, 
2350.00, 
2351.00, 
2352.00, 
2353.00, 
2354.00, 
2355.00, 
2356.00, 
2357.00, 
2358.00, 
2359.00, 
2360.00, 
2361.00, 
2362.00, 
2363.00, 
2364.00, 
2365.00, 
2366.00, 
2367.00, 
2368.00, 
2369.00, 
2370.00, 
2371.00, 
2372.00, 
2373.00, 
2374.00, 
2375.00, 
2376.00, 
2377.00, 
2378.00, 
2379.00, 
2380.00, 
2381.00, 
2382.00, 
2383.00, 
2384.00, 
2385.00, 
2386.00, 
2387.00, 
2388.00, 
2389.00, 
2390.00, 
2391.00, 
2392.00, 
2393.00, 
2394.00, 
2395.00, 
2396.00, 
2397.00, 
2398.00, 
2399.00, 
2400.00, 
2401.00, 
2402.00, 
2403.00, 
2404.00, 
2405.00, 
2406.00, 
2407.00, 
2408.00, 
2409.00, 
2410.00, 
2411.00, 
2412.00, 
2413.00, 
2414.00, 
2415.00, 
2416.00, 
2417.00, 
2418.00, 
2419.00, 
2420.00, 
2421.00, 
2422.00, 
2423.00, 
2424.00, 
2425.00, 
2426.00, 
2427.00, 
2428.00, 
2429.00, 
2430.00, 
2431.00, 
2432.00, 
2433.00, 
2434.00, 
2435.00, 
2436.00, 
2437.00, 
2438.00, 
2439.00, 
2440.00, 
2441.00, 
2442.00, 
2443.00, 
2444.00, 
2445.00, 
2446.00, 
2447.00, 
2448.00, 
2449.00, 
2450.00, 
2451.00, 
2452.00, 
2453.00, 
2454.00, 
2455.00, 
2456.00, 
2457.00, 
2458.00, 
2459.00, 
2460.00, 
2461.00, 
2462.00, 
2463.00, 
2464.00, 
2465.00, 
2466.00, 
2467.00, 
2468.00, 
2469.00, 
2470.00, 
2471.00, 
2472.00, 
2473.00, 
2474.00, 
2475.00, 
2476.00, 
2477.00, 
2478.00, 
2479.00, 
2480.00, 
2481.00, 
2482.00, 
2483.00, 
2484.00, 
2485.00, 
2486.00, 
2487.00, 
2488.00, 
2489.00, 
2490.00, 
2491.00, 
2492.00, 
2493.00, 
2494.00, 
2495.00, 
2496.00, 
2497.00, 
2498.00, 
2499.00, 
2500.00, 
2501.00, 
2502.00, 
2503.00, 
2504.00, 
2505.00, 
2506.00, 
2507.00, 
2508.00, 
2509.00, 
2510.00, 
2511.00, 
2512.00, 
2513.00, 
2514.00, 
2515.00, 
2516.00, 
2517.00, 
2518.00, 
2519.00, 
2520.00, 
2521.00, 
2522.00, 
2523.00, 
2524.00, 
2525.00, 
2526.00, 
2527.00, 
2528.00, 
2529.00, 
2530.00, 
2531.00, 
2532.00, 
2533.00, 
2534.00, 
2535.00, 
2536.00, 
2537.00, 
2538.00, 
2539.00, 
2540.00, 
2541.00, 
2542.00, 
2543.00, 
2544.00, 
2545.00, 
2546.00, 
2547.00, 
2548.00, 
2549.00, 
2550.00, 
2551.00, 
2552.00, 
2553.00, 
2554.00, 
2555.00, 
2556.00, 
2557.00, 
2558.00, 
2559.00, 
2560.00, 
2561.00, 
2562.00, 
2563.00, 
2564.00, 
2565.00, 
2566.00, 
2567.00, 
2568.00, 
2569.00, 
2570.00, 
2571.00, 
2572.00, 
2573.00, 
2574.00, 
2575.00, 
2576.00, 
2577.00, 
2578.00, 
2579.00, 
2580.00, 
2581.00, 
2582.00, 
2583.00, 
2584.00, 
2585.00, 
2586.00, 
2587.00, 
2588.00, 
2589.00, 
2590.00, 
2591.00, 
2592.00, 
2593.00, 
2594.00, 
2595.00, 
2596.00, 
2597.00, 
2598.00, 
2599.00, 
2600.00, 
