"2cP2 - RawData"
"Wavelength nm.","T%"
200.00,-0.000
201.00,0.002
202.00,0.002
203.00,0.000
204.00,0.002
205.00,0.003
206.00,0.000
207.00,-0.001
208.00,0.002
209.00,0.000
210.00,-0.001
211.00,0.002
212.00,0.001
213.00,0.001
214.00,0.003
215.00,0.002
216.00,0.003
217.00,0.003
218.00,0.001
219.00,0.000
220.00,-0.001
221.00,-0.000
222.00,0.001
223.00,0.002
224.00,0.001
225.00,0.004
226.00,-0.001
227.00,0.001
228.00,0.002
229.00,0.000
230.00,0.001
231.00,0.000
232.00,-0.001
233.00,0.000
234.00,0.001
235.00,0.001
236.00,-0.001
237.00,0.001
238.00,0.002
239.00,0.001
240.00,-0.000
241.00,0.001
242.00,0.002
243.00,0.002
244.00,0.001
245.00,0.000
246.00,-0.001
247.00,-0.001
248.00,0.000
249.00,-0.000
250.00,-0.000
251.00,-0.001
252.00,-0.001
253.00,0.002
254.00,0.000
255.00,-0.000
256.00,0.000
257.00,0.000
258.00,-0.000
259.00,-0.000
260.00,0.000
261.00,0.000
262.00,0.001
263.00,0.001
264.00,0.001
265.00,0.001
266.00,-0.001
267.00,0.000
268.00,0.001
269.00,-0.001
270.00,-0.000
271.00,0.000
272.00,0.000
273.00,-0.001
274.00,0.000
275.00,0.001
276.00,0.000
277.00,0.000
278.00,-0.001
279.00,0.001
280.00,0.001
281.00,0.000
282.00,0.001
283.00,-0.001
284.00,-0.000
285.00,-0.001
286.00,0.000
287.00,0.000
288.00,-0.001
289.00,0.001
290.00,-0.001
291.00,-0.000
292.00,0.000
293.00,0.001
294.00,0.001
295.00,-0.000
296.00,0.000
297.00,-0.000
298.00,0.002
299.00,0.002
300.00,0.002
301.00,0.005
302.00,0.007
303.00,0.011
304.00,0.017
305.00,0.026
306.00,0.038
307.00,0.058
308.00,0.097
309.00,0.148
310.00,0.210
311.00,0.281
312.00,0.384
313.00,0.518
314.00,0.688
315.00,0.895
316.00,1.148
317.00,1.453
318.00,1.791
319.00,2.221
320.00,2.687
321.00,3.210
322.00,3.824
323.00,4.490
324.00,5.115
325.00,5.965
326.00,6.726
327.00,7.619
328.00,8.509
329.00,9.427
330.00,10.371
331.00,11.343
332.00,12.330
333.00,13.403
334.00,14.415
335.00,15.462
336.00,16.499
337.00,17.536
338.00,18.534
339.00,19.484
340.00,20.430
341.00,21.391
342.00,22.261
343.00,23.133
344.00,24.013
345.00,24.747
346.00,25.568
347.00,26.241
348.00,27.000
349.00,27.658
350.00,28.226
351.00,28.769
352.00,29.321
353.00,29.912
354.00,30.426
355.00,30.831
356.00,31.308
357.00,31.743
358.00,32.134
359.00,32.527
360.00,32.829
361.00,33.066
362.00,33.422
363.00,33.704
364.00,33.976
365.00,34.184
366.00,34.463
367.00,34.541
368.00,34.695
369.00,34.830
370.00,34.960
371.00,35.035
372.00,35.053
373.00,35.141
374.00,35.145
375.00,35.209
376.00,35.199
377.00,35.183
378.00,35.105
379.00,35.115
380.00,35.105
381.00,35.121
382.00,35.153
383.00,35.266
384.00,35.305
385.00,35.406
386.00,35.502
387.00,35.735
388.00,35.640
389.00,35.718
390.00,35.830
391.00,35.909
392.00,35.965
393.00,36.011
394.00,36.049
395.00,36.102
396.00,36.123
397.00,36.154
398.00,36.218
399.00,36.242
400.00,36.280
401.00,36.317
402.00,36.311
403.00,36.265
404.00,36.292
405.00,36.290
406.00,36.312
407.00,36.255
408.00,36.230
409.00,36.184
410.00,36.147
411.00,36.164
412.00,36.110
413.00,36.089
414.00,36.054
415.00,36.120
416.00,36.176
417.00,36.230
418.00,36.092
419.00,36.110
420.00,36.120
421.00,36.214
422.00,36.223
423.00,36.234
424.00,36.271
425.00,36.268
426.00,36.291
427.00,36.309
428.00,36.356
429.00,36.386
430.00,36.449
431.00,36.381
432.00,36.446
433.00,36.495
434.00,36.391
435.00,36.610
436.00,36.605
437.00,36.660
438.00,36.707
439.00,36.740
440.00,36.813
441.00,36.910
442.00,36.955
443.00,37.008
444.00,37.151
445.00,37.059
446.00,37.152
447.00,37.222
448.00,37.291
449.00,37.380
450.00,37.464
451.00,37.551
452.00,37.616
453.00,37.709
454.00,37.750
455.00,37.866
456.00,37.952
457.00,38.017
458.00,38.085
459.00,38.199
460.00,38.230
461.00,38.339
462.00,38.429
463.00,38.516
464.00,38.608
465.00,38.664
466.00,38.721
467.00,38.852
468.00,38.888
469.00,38.974
470.00,39.038
471.00,39.066
472.00,39.136
473.00,39.116
474.00,39.239
475.00,39.295
476.00,39.335
477.00,39.437
478.00,39.510
479.00,39.618
480.00,39.724
481.00,39.828
482.00,39.939
483.00,40.025
484.00,40.154
485.00,40.332
486.00,40.356
487.00,40.494
488.00,40.568
489.00,40.683
490.00,40.779
491.00,40.911
492.00,40.971
493.00,41.090
494.00,41.126
495.00,41.188
496.00,41.285
497.00,41.336
498.00,41.464
499.00,41.553
500.00,41.633
501.00,41.647
502.00,41.816
503.00,41.875
504.00,41.929
505.00,42.076
506.00,42.146
507.00,42.201
508.00,42.313
509.00,42.430
510.00,42.508
511.00,42.541
512.00,42.571
513.00,42.660
514.00,42.818
515.00,42.855
516.00,42.936
517.00,42.986
518.00,43.104
519.00,43.151
520.00,43.220
521.00,43.266
522.00,43.310
523.00,43.398
524.00,43.512
525.00,43.514
526.00,43.499
527.00,43.631
528.00,43.618
529.00,43.685
530.00,43.755
531.00,43.921
532.00,44.000
533.00,44.126
534.00,44.038
535.00,44.116
536.00,44.231
537.00,44.287
538.00,44.311
539.00,44.387
540.00,44.443
541.00,44.449
542.00,44.485
543.00,44.562
544.00,44.593
545.00,44.665
546.00,44.637
547.00,44.703
548.00,44.878
549.00,44.856
550.00,44.997
551.00,44.987
552.00,45.059
553.00,45.115
554.00,45.144
555.00,45.225
556.00,45.246
557.00,45.275
558.00,45.376
559.00,45.369
560.00,45.426
561.00,45.496
562.00,45.464
563.00,45.525
564.00,45.517
565.00,45.495
566.00,45.604
567.00,45.674
568.00,45.613
569.00,45.665
570.00,45.669
571.00,45.662
572.00,45.772
573.00,45.753
574.00,45.834
575.00,45.848
576.00,45.824
577.00,45.884
578.00,45.907
579.00,45.942
580.00,45.970
581.00,46.211
582.00,46.208
583.00,46.256
584.00,46.360
585.00,46.377
586.00,46.435
587.00,46.515
588.00,46.528
589.00,46.542
590.00,46.580
591.00,46.598
592.00,46.617
593.00,46.669
594.00,46.535
595.00,46.580
596.00,46.625
597.00,46.746
598.00,46.820
599.00,46.843
600.00,46.895
601.00,46.960
602.00,46.936
603.00,46.958
604.00,46.985
605.00,47.037
606.00,47.032
607.00,47.062
608.00,47.161
609.00,47.089
610.00,47.051
611.00,47.119
612.00,47.169
613.00,47.148
614.00,47.251
615.00,47.200
616.00,47.269
617.00,47.297
618.00,47.284
619.00,47.298
620.00,47.243
621.00,47.269
622.00,47.306
623.00,47.462
624.00,47.498
625.00,47.506
626.00,47.552
627.00,47.580
628.00,47.565
629.00,47.657
630.00,47.700
631.00,47.579
632.00,47.674
633.00,47.718
634.00,47.709
635.00,47.739
636.00,47.779
637.00,47.855
638.00,47.927
639.00,47.918
640.00,47.960
641.00,47.953
642.00,48.030
643.00,48.023
644.00,48.088
645.00,48.142
646.00,48.195
647.00,48.242
648.00,48.247
649.00,48.267
650.00,48.252
651.00,48.348
652.00,48.374
653.00,48.352
654.00,48.362
655.00,48.359
656.00,48.525
657.00,48.601
658.00,48.668
659.00,48.715
660.00,48.646
661.00,48.575
662.00,48.729
663.00,48.705
664.00,48.845
665.00,48.793
666.00,48.743
667.00,48.924
668.00,48.862
669.00,48.805
670.00,48.984
671.00,49.139
672.00,49.045
673.00,49.139
674.00,49.097
675.00,49.131
676.00,49.180
677.00,49.195
678.00,49.203
679.00,49.294
680.00,49.449
681.00,49.441
682.00,49.365
683.00,49.360
684.00,49.551
685.00,49.415
686.00,49.315
687.00,49.389
688.00,49.419
689.00,49.409
690.00,49.504
691.00,49.548
692.00,49.210
693.00,49.394
694.00,49.606
695.00,49.653
696.00,49.724
697.00,49.751
698.00,49.838
699.00,49.883
700.00,49.883
701.00,49.780
702.00,49.872
703.00,49.961
704.00,49.956
705.00,49.983
706.00,49.982
707.00,50.081
708.00,49.852
709.00,49.948
710.00,50.119
711.00,50.081
712.00,49.994
713.00,50.065
714.00,50.015
715.00,50.145
716.00,50.117
717.00,50.062
718.00,50.196
719.00,50.085
720.00,50.087
721.00,54.296
722.00,54.340
723.00,54.282
724.00,54.251
725.00,54.206
726.00,54.224
727.00,54.084
728.00,54.145
729.00,54.000
730.00,54.048
731.00,54.023
732.00,54.013
733.00,53.975
734.00,53.892
735.00,53.910
736.00,53.925
737.00,53.900
738.00,53.833
739.00,53.895
740.00,53.914
741.00,53.856
742.00,53.790
743.00,53.813
744.00,53.834
745.00,53.733
746.00,53.673
747.00,53.665
748.00,53.634
749.00,53.509
750.00,53.577
751.00,53.522
752.00,53.436
753.00,53.408
754.00,53.451
755.00,53.343
756.00,53.267
757.00,53.286
758.00,53.295
759.00,53.290
760.00,53.255
761.00,53.243
762.00,53.263
763.00,53.224
764.00,53.172
765.00,53.181
766.00,53.142
767.00,53.131
768.00,53.143
769.00,53.120
770.00,52.975
771.00,53.002
772.00,53.002
773.00,52.941
774.00,52.965
775.00,53.031
776.00,52.908
777.00,52.962
778.00,52.854
779.00,52.910
780.00,52.866
781.00,52.840
782.00,52.841
783.00,52.786
784.00,52.792
785.00,52.720
786.00,52.693
787.00,52.687
788.00,52.656
789.00,52.621
790.00,52.604
791.00,52.562
792.00,52.501
793.00,52.433
794.00,52.491
795.00,52.468
796.00,52.393
797.00,52.373
798.00,52.404
799.00,52.329
800.00,52.296
801.00,52.283
802.00,52.193
803.00,52.205
804.00,52.123
805.00,52.120
806.00,52.147
807.00,52.080
808.00,52.106
809.00,52.043
810.00,52.016
811.00,51.986
812.00,52.079
813.00,51.923
814.00,51.909
815.00,51.854
816.00,51.934
817.00,51.811
818.00,51.799
819.00,51.851
820.00,51.736
821.00,51.698
822.00,51.713
823.00,51.633
824.00,51.585
825.00,51.606
826.00,51.626
827.00,51.683
828.00,51.554
829.00,51.546
830.00,51.659
831.00,54.117
832.00,54.127
833.00,54.045
834.00,54.057
835.00,54.004
836.00,54.037
837.00,53.941
838.00,53.930
839.00,53.899
840.00,53.845
841.00,53.857
842.00,53.827
843.00,53.782
844.00,53.786
845.00,53.747
846.00,53.754
847.00,53.644
848.00,53.651
849.00,53.595
850.00,53.537
851.00,53.481
852.00,53.476
853.00,53.583
854.00,53.423
855.00,53.390
856.00,53.370
857.00,53.336
858.00,53.310
859.00,53.258
860.00,53.263
861.00,53.254
862.00,53.170
863.00,53.162
864.00,53.159
865.00,53.178
866.00,53.102
867.00,53.066
868.00,53.228
869.00,53.065
870.00,53.038
871.00,53.015
872.00,53.008
873.00,52.994
874.00,52.980
875.00,52.955
876.00,52.941
877.00,52.927
878.00,52.920
879.00,52.894
880.00,52.866
881.00,52.852
882.00,52.887
883.00,52.819
884.00,52.764
885.00,52.777
886.00,52.741
887.00,52.725
888.00,52.695
889.00,52.669
890.00,52.687
891.00,52.616
892.00,52.618
893.00,52.555
894.00,52.564
895.00,52.510
896.00,52.497
897.00,52.466
898.00,52.446
899.00,52.428
900.00,52.420
901.00,52.455
902.00,52.413
903.00,52.379
904.00,52.379
905.00,52.340
906.00,52.323
907.00,52.295
908.00,52.267
909.00,52.244
910.00,52.221
911.00,52.188
912.00,52.221
913.00,52.150
914.00,52.120
915.00,52.171
916.00,52.028
917.00,52.102
918.00,52.078
919.00,52.013
920.00,51.961
921.00,52.088
922.00,51.965
923.00,51.937
924.00,51.914
925.00,51.892
926.00,51.874
927.00,51.866
928.00,51.850
929.00,51.833
930.00,51.794
931.00,51.782
932.00,51.748
933.00,51.754
934.00,51.718
935.00,51.700
936.00,51.678
937.00,51.680
938.00,51.641
939.00,51.634
940.00,51.609
941.00,51.600
942.00,51.553
943.00,51.560
944.00,51.521
945.00,51.519
946.00,51.498
947.00,51.486
948.00,51.435
949.00,51.410
950.00,51.380
951.00,51.371
952.00,51.325
953.00,51.262
954.00,51.324
955.00,51.222
956.00,51.226
957.00,51.170
958.00,51.200
959.00,51.166
960.00,51.149
961.00,51.119
962.00,51.123
963.00,51.095
964.00,51.082
965.00,51.064
966.00,51.042
967.00,51.043
968.00,50.997
969.00,51.086
970.00,51.013
971.00,51.036
972.00,50.997
973.00,51.024
974.00,51.060
975.00,51.019
976.00,51.013
977.00,50.924
978.00,51.034
979.00,50.992
980.00,51.012
981.00,51.015
982.00,51.008
983.00,51.000
984.00,50.987
985.00,50.994
986.00,50.950
987.00,50.972
988.00,50.950
989.00,50.932
990.00,50.927
991.00,50.905
992.00,50.921
993.00,50.878
994.00,50.853
995.00,50.839
996.00,50.825
997.00,50.825
998.00,50.803
999.00,50.816
1000.00,50.759
1001.00,50.787
1002.00,50.769
1003.00,50.773
1004.00,50.744
1005.00,50.710
1006.00,50.733
1007.00,50.714
1008.00,50.693
1009.00,50.680
1010.00,50.663
1011.00,50.654
1012.00,50.617
1013.00,50.628
1014.00,50.597
1015.00,50.598
1016.00,50.559
1017.00,50.563
1018.00,50.546
1019.00,50.504
1020.00,50.500
1021.00,50.484
1022.00,50.487
1023.00,50.431
1024.00,50.442
1025.00,50.429
1026.00,50.410
1027.00,50.388
1028.00,50.378
1029.00,50.367
1030.00,50.343
1031.00,50.360
1032.00,50.311
1033.00,50.306
1034.00,50.273
1035.00,50.248
1036.00,50.228
1037.00,50.195
1038.00,50.198
1039.00,50.145
1040.00,50.156
1041.00,50.105
1042.00,50.101
1043.00,50.071
1044.00,50.090
1045.00,50.083
1046.00,50.082
1047.00,50.093
1048.00,50.102
1049.00,50.113
1050.00,50.119
1051.00,50.150
1052.00,50.146
1053.00,50.163
1054.00,50.153
1055.00,50.176
1056.00,50.179
1057.00,50.179
1058.00,50.169
1059.00,50.171
1060.00,50.169
1061.00,50.160
1062.00,50.151
1063.00,50.151
1064.00,50.143
1065.00,50.123
1066.00,50.124
1067.00,50.103
1068.00,50.119
1069.00,50.092
1070.00,50.076
1071.00,50.052
1072.00,50.063
1073.00,50.049
1074.00,50.033
1075.00,50.009
1076.00,50.025
1077.00,50.011
1078.00,50.008
1079.00,49.983
1080.00,49.992
1081.00,49.969
1082.00,49.965
1083.00,49.963
1084.00,49.960
1085.00,49.930
1086.00,49.939
1087.00,49.936
1088.00,49.910
1089.00,49.900
1090.00,49.913
1091.00,49.902
1092.00,49.892
1093.00,49.860
1094.00,49.854
1095.00,49.845
1096.00,49.834
1097.00,49.837
1098.00,49.828
1099.00,49.809
1100.00,49.794
1101.00,49.787
1102.00,49.780
1103.00,49.770
1104.00,49.754
1105.00,49.738
1106.00,49.744
1107.00,49.729
1108.00,49.720
1109.00,49.707
1110.00,49.706
1111.00,49.703
1112.00,49.699
1113.00,49.686
1114.00,49.691
1115.00,49.676
1116.00,49.671
1117.00,49.653
1118.00,49.633
1119.00,49.615
1120.00,49.618
1121.00,49.619
1122.00,49.603
1123.00,49.605
1124.00,49.598
1125.00,49.592
1126.00,49.589
1127.00,49.580
1128.00,49.562
1129.00,49.532
1130.00,49.537
1131.00,49.521
1132.00,49.516
1133.00,49.505
1134.00,49.499
1135.00,49.490
1136.00,49.487
1137.00,49.488
1138.00,49.483
1139.00,49.502
1140.00,49.478
1141.00,49.479
1142.00,49.481
1143.00,49.486
1144.00,49.462
1145.00,49.456
1146.00,49.461
1147.00,49.437
1148.00,49.425
1149.00,49.448
1150.00,49.457
1151.00,49.438
1152.00,49.424
1153.00,49.432
1154.00,49.418
1155.00,49.427
1156.00,49.422
1157.00,49.421
1158.00,49.418
1159.00,49.400
1160.00,49.404
1161.00,49.404
1162.00,49.390
1163.00,49.403
1164.00,49.379
1165.00,49.387
1166.00,49.375
1167.00,49.370
1168.00,49.395
1169.00,49.383
1170.00,49.375
1171.00,49.354
1172.00,49.382
1173.00,49.371
1174.00,49.368
1175.00,49.374
1176.00,49.376
1177.00,49.372
1178.00,49.361
1179.00,49.381
1180.00,49.361
1181.00,49.368
1182.00,49.360
1183.00,49.359
1184.00,49.338
1185.00,49.358
1186.00,49.349
1187.00,49.363
1188.00,49.335
1189.00,49.332
1190.00,49.336
1191.00,49.334
1192.00,49.345
1193.00,49.336
1194.00,49.352
1195.00,49.312
1196.00,49.336
1197.00,49.324
1198.00,49.329
1199.00,49.332
1200.00,49.321
1201.00,49.325
1202.00,49.313
1203.00,49.319
1204.00,49.298
1205.00,49.315
1206.00,49.303
1207.00,49.312
1208.00,49.288
1209.00,49.289
1210.00,49.295
1211.00,49.296
1212.00,49.317
1213.00,49.288
1214.00,49.300
1215.00,49.292
1216.00,49.301
1217.00,49.308
1218.00,49.289
1219.00,49.302
1220.00,49.305
1221.00,49.300
1222.00,49.288
1223.00,49.288
1224.00,49.292
1225.00,49.279
1226.00,49.280
1227.00,49.270
1228.00,49.288
1229.00,49.328
1230.00,49.337
1231.00,49.338
1232.00,49.333
1233.00,49.330
1234.00,49.333
1235.00,49.347
1236.00,49.334
1237.00,49.326
1238.00,49.332
1239.00,49.331
1240.00,49.331
1241.00,49.332
1242.00,49.344
1243.00,49.354
1244.00,49.332
1245.00,49.355
1246.00,49.366
1247.00,49.354
1248.00,49.359
1249.00,49.372
1250.00,49.370
1251.00,49.372
1252.00,49.387
1253.00,49.373
1254.00,49.390
1255.00,49.382
1256.00,49.366
1257.00,49.350
1258.00,49.387
1259.00,49.388
1260.00,49.410
1261.00,49.396
1262.00,49.396
1263.00,49.392
1264.00,49.416
1265.00,49.400
1266.00,49.413
1267.00,49.406
1268.00,49.426
1269.00,49.416
1270.00,49.414
1271.00,49.419
1272.00,49.418
1273.00,49.426
1274.00,49.420
1275.00,49.431
1276.00,49.442
1277.00,49.441
1278.00,49.461
1279.00,49.453
1280.00,49.464
1281.00,49.459
1282.00,49.485
1283.00,49.465
1284.00,49.455
1285.00,49.454
1286.00,49.461
1287.00,49.467
1288.00,49.469
1289.00,49.468
1290.00,49.499
1291.00,49.488
1292.00,49.503
1293.00,49.496
1294.00,49.507
1295.00,49.518
1296.00,49.517
1297.00,49.530
1298.00,49.540
1299.00,49.526
1300.00,49.529
1301.00,49.544
1302.00,49.537
1303.00,49.560
1304.00,49.540
1305.00,49.554
1306.00,49.569
1307.00,49.579
1308.00,49.585
1309.00,49.583
1310.00,49.597
1311.00,49.597
1312.00,49.594
1313.00,49.579
1314.00,49.589
1315.00,49.604
1316.00,49.595
1317.00,49.620
1318.00,49.632
1319.00,49.611
1320.00,49.638
1321.00,49.781
1322.00,49.803
1323.00,49.778
1324.00,49.782
1325.00,49.771
1326.00,49.797
1327.00,49.785
1328.00,49.786
1329.00,49.784
1330.00,49.790
1331.00,49.783
1332.00,49.771
1333.00,49.789
1334.00,49.814
1335.00,49.821
1336.00,49.848
1337.00,49.880
1338.00,49.952
1339.00,49.991
1340.00,50.047
1341.00,50.115
1342.00,50.201
1343.00,50.240
1344.00,50.292
1345.00,50.346
1346.00,50.368
1347.00,50.399
1348.00,50.402
1349.00,50.450
1350.00,50.447
1351.00,50.466
1352.00,50.474
1353.00,50.510
1354.00,50.481
1355.00,50.453
1356.00,50.493
1357.00,50.492
1358.00,50.512
1359.00,50.508
1360.00,50.576
1361.00,50.483
1362.00,50.462
1363.00,50.552
1364.00,50.530
1365.00,50.546
1366.00,50.493
1367.00,50.484
1368.00,50.466
1369.00,50.497
1370.00,50.479
1371.00,50.440
1372.00,50.467
1373.00,50.468
1374.00,50.497
1375.00,50.475
1376.00,50.460
1377.00,50.440
1378.00,50.501
1379.00,50.471
1380.00,50.466
1381.00,50.497
1382.00,50.463
1383.00,50.443
1384.00,50.421
1385.00,50.416
1386.00,50.482
1387.00,50.402
1388.00,50.396
1389.00,50.425
1390.00,50.500
1391.00,50.438
1392.00,50.435
1393.00,50.444
1394.00,50.445
1395.00,50.348
1396.00,50.520
1397.00,50.461
1398.00,50.492
1399.00,50.463
1400.00,50.436
1401.00,50.424
1402.00,50.551
1403.00,50.445
1404.00,50.468
1405.00,50.486
1406.00,50.480
1407.00,50.505
1408.00,50.497
1409.00,50.468
1410.00,50.544
1411.00,50.381
1412.00,50.544
1413.00,50.506
1414.00,50.510
1415.00,50.548
1416.00,50.567
1417.00,50.586
1418.00,50.570
1419.00,50.556
1420.00,50.590
1421.00,50.620
1422.00,50.629
1423.00,50.629
1424.00,50.649
1425.00,50.640
1426.00,50.665
1427.00,50.674
1428.00,50.685
1429.00,50.707
1430.00,50.705
1431.00,50.720
1432.00,50.737
1433.00,50.765
1434.00,50.742
1435.00,50.800
1436.00,50.802
1437.00,50.803
1438.00,50.815
1439.00,50.840
1440.00,50.851
1441.00,50.857
1442.00,50.869
1443.00,50.910
1444.00,50.911
1445.00,50.907
1446.00,50.907
1447.00,50.955
1448.00,50.973
1449.00,50.987
1450.00,50.985
1451.00,51.007
1452.00,51.022
1453.00,51.059
1454.00,51.051
1455.00,51.074
1456.00,51.096
1457.00,51.078
1458.00,51.084
1459.00,51.106
1460.00,51.105
1461.00,51.121
1462.00,51.147
1463.00,51.165
1464.00,51.172
1465.00,51.188
1466.00,51.198
1467.00,51.218
1468.00,51.252
1469.00,51.238
1470.00,51.248
1471.00,51.276
1472.00,51.282
1473.00,51.308
1474.00,51.332
1475.00,51.332
1476.00,51.356
1477.00,51.355
1478.00,51.363
1479.00,51.364
1480.00,51.374
1481.00,51.393
1482.00,51.423
1483.00,51.433
1484.00,51.430
1485.00,51.445
1486.00,51.438
1487.00,51.473
1488.00,51.477
1489.00,51.465
1490.00,51.494
1491.00,51.503
1492.00,51.532
1493.00,51.536
1494.00,51.550
1495.00,51.553
1496.00,51.564
1497.00,51.573
1498.00,51.577
1499.00,51.600
1500.00,51.616
1501.00, 
1502.00, 
1503.00, 
1504.00, 
1505.00, 
1506.00, 
1507.00, 
1508.00, 
1509.00, 
1510.00, 
1511.00, 
1512.00, 
1513.00, 
1514.00, 
1515.00, 
1516.00, 
1517.00, 
1518.00, 
1519.00, 
1520.00, 
1521.00, 
1522.00, 
1523.00, 
1524.00, 
1525.00, 
1526.00, 
1527.00, 
1528.00, 
1529.00, 
1530.00, 
1531.00, 
1532.00, 
1533.00, 
1534.00, 
1535.00, 
1536.00, 
1537.00, 
1538.00, 
1539.00, 
1540.00, 
1541.00, 
1542.00, 
1543.00, 
1544.00, 
1545.00, 
1546.00, 
1547.00, 
1548.00, 
1549.00, 
1550.00, 
1551.00, 
1552.00, 
1553.00, 
1554.00, 
1555.00, 
1556.00, 
1557.00, 
1558.00, 
1559.00, 
1560.00, 
1561.00, 
1562.00, 
1563.00, 
1564.00, 
1565.00, 
1566.00, 
1567.00, 
1568.00, 
1569.00, 
1570.00, 
1571.00, 
1572.00, 
1573.00, 
1574.00, 
1575.00, 
1576.00, 
1577.00, 
1578.00, 
1579.00, 
1580.00, 
1581.00, 
1582.00, 
1583.00, 
1584.00, 
1585.00, 
1586.00, 
1587.00, 
1588.00, 
1589.00, 
1590.00, 
1591.00, 
1592.00, 
1593.00, 
1594.00, 
1595.00, 
1596.00, 
1597.00, 
1598.00, 
1599.00, 
1600.00, 
1601.00, 
1602.00, 
1603.00, 
1604.00, 
1605.00, 
1606.00, 
1607.00, 
1608.00, 
1609.00, 
1610.00, 
1611.00, 
1612.00, 
1613.00, 
1614.00, 
1615.00, 
1616.00, 
1617.00, 
1618.00, 
1619.00, 
1620.00, 
1621.00, 
1622.00, 
1623.00, 
1624.00, 
1625.00, 
1626.00, 
1627.00, 
1628.00, 
1629.00, 
1630.00, 
1631.00, 
1632.00, 
1633.00, 
1634.00, 
1635.00, 
1636.00, 
1637.00, 
1638.00, 
1639.00, 
1640.00, 
1641.00, 
1642.00, 
1643.00, 
1644.00, 
1645.00, 
1646.00, 
1647.00, 
1648.00, 
1649.00, 
1650.00, 
1651.00, 
1652.00, 
1653.00, 
1654.00, 
1655.00, 
1656.00, 
1657.00, 
1658.00, 
1659.00, 
1660.00, 
1661.00, 
1662.00, 
1663.00, 
1664.00, 
1665.00, 
1666.00, 
1667.00, 
1668.00, 
1669.00, 
1670.00, 
1671.00, 
1672.00, 
1673.00, 
1674.00, 
1675.00, 
1676.00, 
1677.00, 
1678.00, 
1679.00, 
1680.00, 
1681.00, 
1682.00, 
1683.00, 
1684.00, 
1685.00, 
1686.00, 
1687.00, 
1688.00, 
1689.00, 
1690.00, 
1691.00, 
1692.00, 
1693.00, 
1694.00, 
1695.00, 
1696.00, 
1697.00, 
1698.00, 
1699.00, 
1700.00, 
1701.00, 
1702.00, 
1703.00, 
1704.00, 
1705.00, 
1706.00, 
1707.00, 
1708.00, 
1709.00, 
1710.00, 
1711.00, 
1712.00, 
1713.00, 
1714.00, 
1715.00, 
1716.00, 
1717.00, 
1718.00, 
1719.00, 
1720.00, 
1721.00, 
1722.00, 
1723.00, 
1724.00, 
1725.00, 
1726.00, 
1727.00, 
1728.00, 
1729.00, 
1730.00, 
1731.00, 
1732.00, 
1733.00, 
1734.00, 
1735.00, 
1736.00, 
1737.00, 
1738.00, 
1739.00, 
1740.00, 
1741.00, 
1742.00, 
1743.00, 
1744.00, 
1745.00, 
1746.00, 
1747.00, 
1748.00, 
1749.00, 
1750.00, 
1751.00, 
1752.00, 
1753.00, 
1754.00, 
1755.00, 
1756.00, 
1757.00, 
1758.00, 
1759.00, 
1760.00, 
1761.00, 
1762.00, 
1763.00, 
1764.00, 
1765.00, 
1766.00, 
1767.00, 
1768.00, 
1769.00, 
1770.00, 
1771.00, 
1772.00, 
1773.00, 
1774.00, 
1775.00, 
1776.00, 
1777.00, 
1778.00, 
1779.00, 
1780.00, 
1781.00, 
1782.00, 
1783.00, 
1784.00, 
1785.00, 
1786.00, 
1787.00, 
1788.00, 
1789.00, 
1790.00, 
1791.00, 
1792.00, 
1793.00, 
1794.00, 
1795.00, 
1796.00, 
1797.00, 
1798.00, 
1799.00, 
1800.00, 
1801.00, 
1802.00, 
1803.00, 
1804.00, 
1805.00, 
1806.00, 
1807.00, 
1808.00, 
1809.00, 
1810.00, 
1811.00, 
1812.00, 
1813.00, 
1814.00, 
1815.00, 
1816.00, 
1817.00, 
1818.00, 
1819.00, 
1820.00, 
1821.00, 
1822.00, 
1823.00, 
1824.00, 
1825.00, 
1826.00, 
1827.00, 
1828.00, 
1829.00, 
1830.00, 
1831.00, 
1832.00, 
1833.00, 
1834.00, 
1835.00, 
1836.00, 
1837.00, 
1838.00, 
1839.00, 
1840.00, 
1841.00, 
1842.00, 
1843.00, 
1844.00, 
1845.00, 
1846.00, 
1847.00, 
1848.00, 
1849.00, 
1850.00, 
1851.00, 
1852.00, 
1853.00, 
1854.00, 
1855.00, 
1856.00, 
1857.00, 
1858.00, 
1859.00, 
1860.00, 
1861.00, 
1862.00, 
1863.00, 
1864.00, 
1865.00, 
1866.00, 
1867.00, 
1868.00, 
1869.00, 
1870.00, 
1871.00, 
1872.00, 
1873.00, 
1874.00, 
1875.00, 
1876.00, 
1877.00, 
1878.00, 
1879.00, 
1880.00, 
1881.00, 
1882.00, 
1883.00, 
1884.00, 
1885.00, 
1886.00, 
1887.00, 
1888.00, 
1889.00, 
1890.00, 
1891.00, 
1892.00, 
1893.00, 
1894.00, 
1895.00, 
1896.00, 
1897.00, 
1898.00, 
1899.00, 
1900.00, 
1901.00, 
1902.00, 
1903.00, 
1904.00, 
1905.00, 
1906.00, 
1907.00, 
1908.00, 
1909.00, 
1910.00, 
1911.00, 
1912.00, 
1913.00, 
1914.00, 
1915.00, 
1916.00, 
1917.00, 
1918.00, 
1919.00, 
1920.00, 
1921.00, 
1922.00, 
1923.00, 
1924.00, 
1925.00, 
1926.00, 
1927.00, 
1928.00, 
1929.00, 
1930.00, 
1931.00, 
1932.00, 
1933.00, 
1934.00, 
1935.00, 
1936.00, 
1937.00, 
1938.00, 
1939.00, 
1940.00, 
1941.00, 
1942.00, 
1943.00, 
1944.00, 
1945.00, 
1946.00, 
1947.00, 
1948.00, 
1949.00, 
1950.00, 
1951.00, 
1952.00, 
1953.00, 
1954.00, 
1955.00, 
1956.00, 
1957.00, 
1958.00, 
1959.00, 
1960.00, 
1961.00, 
1962.00, 
1963.00, 
1964.00, 
1965.00, 
1966.00, 
1967.00, 
1968.00, 
1969.00, 
1970.00, 
1971.00, 
1972.00, 
1973.00, 
1974.00, 
1975.00, 
1976.00, 
1977.00, 
1978.00, 
1979.00, 
1980.00, 
1981.00, 
1982.00, 
1983.00, 
1984.00, 
1985.00, 
1986.00, 
1987.00, 
1988.00, 
1989.00, 
1990.00, 
1991.00, 
1992.00, 
1993.00, 
1994.00, 
1995.00, 
1996.00, 
1997.00, 
1998.00, 
1999.00, 
2000.00, 
2001.00, 
2002.00, 
2003.00, 
2004.00, 
2005.00, 
2006.00, 
2007.00, 
2008.00, 
2009.00, 
2010.00, 
2011.00, 
2012.00, 
2013.00, 
2014.00, 
2015.00, 
2016.00, 
2017.00, 
2018.00, 
2019.00, 
2020.00, 
2021.00, 
2022.00, 
2023.00, 
2024.00, 
2025.00, 
2026.00, 
2027.00, 
2028.00, 
2029.00, 
2030.00, 
2031.00, 
2032.00, 
2033.00, 
2034.00, 
2035.00, 
2036.00, 
2037.00, 
2038.00, 
2039.00, 
2040.00, 
2041.00, 
2042.00, 
2043.00, 
2044.00, 
2045.00, 
2046.00, 
2047.00, 
2048.00, 
2049.00, 
2050.00, 
2051.00, 
2052.00, 
2053.00, 
2054.00, 
2055.00, 
2056.00, 
2057.00, 
2058.00, 
2059.00, 
2060.00, 
2061.00, 
2062.00, 
2063.00, 
2064.00, 
2065.00, 
2066.00, 
2067.00, 
2068.00, 
2069.00, 
2070.00, 
2071.00, 
2072.00, 
2073.00, 
2074.00, 
2075.00, 
2076.00, 
2077.00, 
2078.00, 
2079.00, 
2080.00, 
2081.00, 
2082.00, 
2083.00, 
2084.00, 
2085.00, 
2086.00, 
2087.00, 
2088.00, 
2089.00, 
2090.00, 
2091.00, 
2092.00, 
2093.00, 
2094.00, 
2095.00, 
2096.00, 
2097.00, 
2098.00, 
2099.00, 
2100.00, 
2101.00, 
2102.00, 
2103.00, 
2104.00, 
2105.00, 
2106.00, 
2107.00, 
2108.00, 
2109.00, 
2110.00, 
2111.00, 
2112.00, 
2113.00, 
2114.00, 
2115.00, 
2116.00, 
2117.00, 
2118.00, 
2119.00, 
2120.00, 
2121.00, 
2122.00, 
2123.00, 
2124.00, 
2125.00, 
2126.00, 
2127.00, 
2128.00, 
2129.00, 
2130.00, 
2131.00, 
2132.00, 
2133.00, 
2134.00, 
2135.00, 
2136.00, 
2137.00, 
2138.00, 
2139.00, 
2140.00, 
2141.00, 
2142.00, 
2143.00, 
2144.00, 
2145.00, 
2146.00, 
2147.00, 
2148.00, 
2149.00, 
2150.00, 
2151.00, 
2152.00, 
2153.00, 
2154.00, 
2155.00, 
2156.00, 
2157.00, 
2158.00, 
2159.00, 
2160.00, 
2161.00, 
2162.00, 
2163.00, 
2164.00, 
2165.00, 
2166.00, 
2167.00, 
2168.00, 
2169.00, 
2170.00, 
2171.00, 
2172.00, 
2173.00, 
2174.00, 
2175.00, 
2176.00, 
2177.00, 
2178.00, 
2179.00, 
2180.00, 
2181.00, 
2182.00, 
2183.00, 
2184.00, 
2185.00, 
2186.00, 
2187.00, 
2188.00, 
2189.00, 
2190.00, 
2191.00, 
2192.00, 
2193.00, 
2194.00, 
2195.00, 
2196.00, 
2197.00, 
2198.00, 
2199.00, 
2200.00, 
2201.00, 
2202.00, 
2203.00, 
2204.00, 
2205.00, 
2206.00, 
2207.00, 
2208.00, 
2209.00, 
2210.00, 
2211.00, 
2212.00, 
2213.00, 
2214.00, 
2215.00, 
2216.00, 
2217.00, 
2218.00, 
2219.00, 
2220.00, 
2221.00, 
2222.00, 
2223.00, 
2224.00, 
2225.00, 
2226.00, 
2227.00, 
2228.00, 
2229.00, 
2230.00, 
2231.00, 
2232.00, 
2233.00, 
2234.00, 
2235.00, 
2236.00, 
2237.00, 
2238.00, 
2239.00, 
2240.00, 
2241.00, 
2242.00, 
2243.00, 
2244.00, 
2245.00, 
2246.00, 
2247.00, 
2248.00, 
2249.00, 
2250.00, 
2251.00, 
2252.00, 
2253.00, 
2254.00, 
2255.00, 
2256.00, 
2257.00, 
2258.00, 
2259.00, 
2260.00, 
2261.00, 
2262.00, 
2263.00, 
2264.00, 
2265.00, 
2266.00, 
2267.00, 
2268.00, 
2269.00, 
2270.00, 
2271.00, 
2272.00, 
2273.00, 
2274.00, 
2275.00, 
2276.00, 
2277.00, 
2278.00, 
2279.00, 
2280.00, 
2281.00, 
2282.00, 
2283.00, 
2284.00, 
2285.00, 
2286.00, 
2287.00, 
2288.00, 
2289.00, 
2290.00, 
2291.00, 
2292.00, 
2293.00, 
2294.00, 
2295.00, 
2296.00, 
2297.00, 
2298.00, 
2299.00, 
2300.00, 
2301.00, 
2302.00, 
2303.00, 
2304.00, 
2305.00, 
2306.00, 
2307.00, 
2308.00, 
2309.00, 
2310.00, 
2311.00, 
2312.00, 
2313.00, 
2314.00, 
2315.00, 
2316.00, 
2317.00, 
2318.00, 
2319.00, 
2320.00, 
2321.00, 
2322.00, 
2323.00, 
2324.00, 
2325.00, 
2326.00, 
2327.00, 
2328.00, 
2329.00, 
2330.00, 
2331.00, 
2332.00, 
2333.00, 
2334.00, 
2335.00, 
2336.00, 
2337.00, 
2338.00, 
2339.00, 
2340.00, 
2341.00, 
2342.00, 
2343.00, 
2344.00, 
2345.00, 
2346.00, 
2347.00, 
2348.00, 
2349.00, 
2350.00, 
2351.00, 
2352.00, 
2353.00, 
2354.00, 
2355.00, 
2356.00, 
2357.00, 
2358.00, 
2359.00, 
2360.00, 
2361.00, 
2362.00, 
2363.00, 
2364.00, 
2365.00, 
2366.00, 
2367.00, 
2368.00, 
2369.00, 
2370.00, 
2371.00, 
2372.00, 
2373.00, 
2374.00, 
2375.00, 
2376.00, 
2377.00, 
2378.00, 
2379.00, 
2380.00, 
2381.00, 
2382.00, 
2383.00, 
2384.00, 
2385.00, 
2386.00, 
2387.00, 
2388.00, 
2389.00, 
2390.00, 
2391.00, 
2392.00, 
2393.00, 
2394.00, 
2395.00, 
2396.00, 
2397.00, 
2398.00, 
2399.00, 
2400.00, 
2401.00, 
2402.00, 
2403.00, 
2404.00, 
2405.00, 
2406.00, 
2407.00, 
2408.00, 
2409.00, 
2410.00, 
2411.00, 
2412.00, 
2413.00, 
2414.00, 
2415.00, 
2416.00, 
2417.00, 
2418.00, 
2419.00, 
2420.00, 
2421.00, 
2422.00, 
2423.00, 
2424.00, 
2425.00, 
2426.00, 
2427.00, 
2428.00, 
2429.00, 
2430.00, 
2431.00, 
2432.00, 
2433.00, 
2434.00, 
2435.00, 
2436.00, 
2437.00, 
2438.00, 
2439.00, 
2440.00, 
2441.00, 
2442.00, 
2443.00, 
2444.00, 
2445.00, 
2446.00, 
2447.00, 
2448.00, 
2449.00, 
2450.00, 
2451.00, 
2452.00, 
2453.00, 
2454.00, 
2455.00, 
2456.00, 
2457.00, 
2458.00, 
2459.00, 
2460.00, 
2461.00, 
2462.00, 
2463.00, 
2464.00, 
2465.00, 
2466.00, 
2467.00, 
2468.00, 
2469.00, 
2470.00, 
2471.00, 
2472.00, 
2473.00, 
2474.00, 
2475.00, 
2476.00, 
2477.00, 
2478.00, 
2479.00, 
2480.00, 
2481.00, 
2482.00, 
2483.00, 
2484.00, 
2485.00, 
2486.00, 
2487.00, 
2488.00, 
2489.00, 
2490.00, 
2491.00, 
2492.00, 
2493.00, 
2494.00, 
2495.00, 
2496.00, 
2497.00, 
2498.00, 
2499.00, 
2500.00, 
2501.00, 
2502.00, 
2503.00, 
2504.00, 
2505.00, 
2506.00, 
2507.00, 
2508.00, 
2509.00, 
2510.00, 
2511.00, 
2512.00, 
2513.00, 
2514.00, 
2515.00, 
2516.00, 
2517.00, 
2518.00, 
2519.00, 
2520.00, 
2521.00, 
2522.00, 
2523.00, 
2524.00, 
2525.00, 
2526.00, 
2527.00, 
2528.00, 
2529.00, 
2530.00, 
2531.00, 
2532.00, 
2533.00, 
2534.00, 
2535.00, 
2536.00, 
2537.00, 
2538.00, 
2539.00, 
2540.00, 
2541.00, 
2542.00, 
2543.00, 
2544.00, 
2545.00, 
2546.00, 
2547.00, 
2548.00, 
2549.00, 
2550.00, 
2551.00, 
2552.00, 
2553.00, 
2554.00, 
2555.00, 
2556.00, 
2557.00, 
2558.00, 
2559.00, 
2560.00, 
2561.00, 
2562.00, 
2563.00, 
2564.00, 
2565.00, 
2566.00, 
2567.00, 
2568.00, 
2569.00, 
2570.00, 
2571.00, 
2572.00, 
2573.00, 
2574.00, 
2575.00, 
2576.00, 
2577.00, 
2578.00, 
2579.00, 
2580.00, 
2581.00, 
2582.00, 
2583.00, 
2584.00, 
2585.00, 
2586.00, 
2587.00, 
2588.00, 
2589.00, 
2590.00, 
2591.00, 
2592.00, 
2593.00, 
2594.00, 
2595.00, 
2596.00, 
2597.00, 
2598.00, 
2599.00, 
2600.00, 
