"2cP3 - RawData"
"Wavelength nm.","T%"
200.00,0.002
201.00,0.001
202.00,-0.001
203.00,0.003
204.00,-0.001
205.00,0.001
206.00,0.002
207.00,-0.000
208.00,0.000
209.00,-0.000
210.00,0.000
211.00,0.001
212.00,0.000
213.00,0.001
214.00,0.000
215.00,0.000
216.00,0.001
217.00,0.000
218.00,-0.001
219.00,0.003
220.00,0.005
221.00,-0.002
222.00,-0.001
223.00,0.001
224.00,0.002
225.00,0.000
226.00,0.000
227.00,0.004
228.00,0.001
229.00,0.002
230.00,0.001
231.00,0.000
232.00,0.002
233.00,0.000
234.00,0.001
235.00,0.001
236.00,0.002
237.00,-0.000
238.00,0.001
239.00,-0.001
240.00,0.001
241.00,0.000
242.00,0.001
243.00,0.001
244.00,0.000
245.00,0.001
246.00,-0.001
247.00,0.001
248.00,0.001
249.00,-0.001
250.00,0.001
251.00,-0.000
252.00,-0.001
253.00,-0.001
254.00,0.000
255.00,0.000
256.00,-0.002
257.00,-0.000
258.00,-0.000
259.00,0.002
260.00,0.001
261.00,0.001
262.00,-0.000
263.00,0.001
264.00,-0.001
265.00,0.000
266.00,-0.001
267.00,0.001
268.00,0.000
269.00,0.000
270.00,0.001
271.00,0.001
272.00,0.001
273.00,0.001
274.00,-0.001
275.00,-0.000
276.00,-0.001
277.00,0.002
278.00,0.002
279.00,-0.001
280.00,0.001
281.00,-0.001
282.00,-0.001
283.00,0.001
284.00,-0.002
285.00,0.000
286.00,0.000
287.00,-0.001
288.00,0.000
289.00,0.001
290.00,0.002
291.00,-0.001
292.00,-0.000
293.00,0.001
294.00,0.000
295.00,0.001
296.00,-0.001
297.00,-0.001
298.00,0.001
299.00,0.001
300.00,0.003
301.00,0.005
302.00,0.004
303.00,0.008
304.00,0.012
305.00,0.017
306.00,0.027
307.00,0.041
308.00,0.064
309.00,0.099
310.00,0.138
311.00,0.186
312.00,0.256
313.00,0.350
314.00,0.466
315.00,0.610
316.00,0.764
317.00,0.962
318.00,1.191
319.00,1.466
320.00,1.781
321.00,2.068
322.00,2.534
323.00,2.991
324.00,3.453
325.00,3.926
326.00,4.447
327.00,5.009
328.00,5.595
329.00,6.199
330.00,6.811
331.00,7.455
332.00,8.087
333.00,8.794
334.00,9.445
335.00,10.107
336.00,10.781
337.00,11.461
338.00,12.117
339.00,12.701
340.00,13.357
341.00,13.947
342.00,14.504
343.00,15.081
344.00,15.574
345.00,16.085
346.00,16.588
347.00,17.024
348.00,17.484
349.00,17.903
350.00,18.271
351.00,18.634
352.00,18.966
353.00,19.282
354.00,19.630
355.00,19.833
356.00,20.162
357.00,20.408
358.00,20.658
359.00,20.845
360.00,21.048
361.00,21.151
362.00,21.352
363.00,21.564
364.00,21.671
365.00,21.796
366.00,21.885
367.00,21.988
368.00,22.049
369.00,22.101
370.00,22.201
371.00,22.203
372.00,22.210
373.00,22.229
374.00,22.218
375.00,22.220
376.00,22.193
377.00,22.180
378.00,22.093
379.00,22.060
380.00,22.072
381.00,22.037
382.00,22.034
383.00,22.051
384.00,22.085
385.00,22.144
386.00,22.163
387.00,22.258
388.00,22.195
389.00,22.242
390.00,22.270
391.00,22.320
392.00,22.310
393.00,22.335
394.00,22.367
395.00,22.381
396.00,22.384
397.00,22.391
398.00,22.371
399.00,22.368
400.00,22.377
401.00,22.362
402.00,22.350
403.00,22.386
404.00,22.407
405.00,22.366
406.00,22.376
407.00,22.296
408.00,22.326
409.00,22.282
410.00,22.264
411.00,22.250
412.00,22.242
413.00,22.222
414.00,22.208
415.00,22.258
416.00,22.309
417.00,22.349
418.00,22.291
419.00,22.321
420.00,22.283
421.00,22.386
422.00,22.394
423.00,22.424
424.00,22.470
425.00,22.488
426.00,22.509
427.00,22.562
428.00,22.601
429.00,22.635
430.00,22.683
431.00,22.714
432.00,22.752
433.00,22.816
434.00,22.850
435.00,22.920
436.00,22.958
437.00,23.047
438.00,23.087
439.00,23.150
440.00,23.212
441.00,23.300
442.00,23.374
443.00,23.449
444.00,23.577
445.00,23.590
446.00,23.653
447.00,23.760
448.00,23.848
449.00,23.954
450.00,24.073
451.00,24.156
452.00,24.241
453.00,24.347
454.00,24.421
455.00,24.545
456.00,24.648
457.00,24.738
458.00,24.851
459.00,25.002
460.00,25.086
461.00,25.208
462.00,25.293
463.00,25.404
464.00,25.570
465.00,25.612
466.00,25.730
467.00,25.889
468.00,25.986
469.00,26.124
470.00,26.208
471.00,26.303
472.00,26.402
473.00,26.465
474.00,26.601
475.00,26.678
476.00,26.747
477.00,26.878
478.00,27.083
479.00,27.217
480.00,27.343
481.00,27.469
482.00,27.641
483.00,27.760
484.00,27.905
485.00,28.110
486.00,28.199
487.00,28.330
488.00,28.438
489.00,28.622
490.00,28.740
491.00,28.889
492.00,28.933
493.00,29.210
494.00,29.298
495.00,29.382
496.00,29.493
497.00,29.595
498.00,29.741
499.00,29.902
500.00,29.972
501.00,30.086
502.00,30.243
503.00,30.300
504.00,30.521
505.00,30.614
506.00,30.756
507.00,30.859
508.00,31.007
509.00,31.187
510.00,31.276
511.00,31.352
512.00,31.442
513.00,31.590
514.00,31.747
515.00,31.777
516.00,31.957
517.00,32.039
518.00,32.203
519.00,32.290
520.00,32.397
521.00,32.503
522.00,32.583
523.00,32.688
524.00,32.815
525.00,32.883
526.00,32.966
527.00,33.076
528.00,33.162
529.00,33.249
530.00,33.383
531.00,33.499
532.00,33.591
533.00,33.787
534.00,33.772
535.00,33.884
536.00,34.006
537.00,34.043
538.00,34.143
539.00,34.210
540.00,34.274
541.00,34.366
542.00,34.408
543.00,34.478
544.00,34.574
545.00,34.664
546.00,34.675
547.00,34.769
548.00,34.926
549.00,34.979
550.00,35.075
551.00,35.141
552.00,35.230
553.00,35.252
554.00,35.360
555.00,35.427
556.00,35.443
557.00,35.566
558.00,35.669
559.00,35.684
560.00,35.780
561.00,35.770
562.00,35.846
563.00,35.983
564.00,36.039
565.00,36.103
566.00,36.134
567.00,36.191
568.00,36.193
569.00,36.286
570.00,36.239
571.00,36.318
572.00,36.396
573.00,36.436
574.00,36.519
575.00,36.495
576.00,36.557
577.00,36.608
578.00,36.693
579.00,36.797
580.00,36.882
581.00,36.968
582.00,37.071
583.00,37.102
584.00,37.240
585.00,37.253
586.00,37.325
587.00,37.440
588.00,37.453
589.00,37.470
590.00,37.559
591.00,37.600
592.00,37.670
593.00,37.742
594.00,37.705
595.00,37.755
596.00,37.777
597.00,37.827
598.00,37.907
599.00,37.937
600.00,38.040
601.00,38.107
602.00,38.124
603.00,38.126
604.00,38.211
605.00,38.271
606.00,38.323
607.00,38.340
608.00,38.485
609.00,38.510
610.00,38.503
611.00,38.603
612.00,38.594
613.00,38.587
614.00,38.749
615.00,38.753
616.00,38.795
617.00,38.883
618.00,38.900
619.00,38.925
620.00,38.980
621.00,39.102
622.00,39.138
623.00,39.293
624.00,39.312
625.00,39.405
626.00,39.441
627.00,39.493
628.00,39.536
629.00,39.630
630.00,39.708
631.00,39.726
632.00,39.805
633.00,39.848
634.00,39.942
635.00,40.035
636.00,40.118
637.00,40.172
638.00,40.201
639.00,40.326
640.00,40.370
641.00,40.457
642.00,40.507
643.00,40.545
644.00,40.684
645.00,40.741
646.00,40.864
647.00,40.942
648.00,40.951
649.00,41.056
650.00,41.123
651.00,41.228
652.00,41.312
653.00,41.337
654.00,41.437
655.00,41.509
656.00,41.610
657.00,41.842
658.00,41.990
659.00,42.014
660.00,41.997
661.00,42.000
662.00,42.237
663.00,42.244
664.00,42.347
665.00,42.415
666.00,42.545
667.00,42.643
668.00,42.657
669.00,42.734
670.00,42.902
671.00,42.811
672.00,43.000
673.00,43.090
674.00,43.186
675.00,43.333
676.00,43.437
677.00,43.451
678.00,43.450
679.00,43.630
680.00,43.712
681.00,43.766
682.00,43.868
683.00,43.858
684.00,44.022
685.00,44.088
686.00,44.110
687.00,44.307
688.00,44.407
689.00,44.369
690.00,44.542
691.00,44.666
692.00,44.522
693.00,44.565
694.00,44.727
695.00,44.813
696.00,44.957
697.00,44.950
698.00,45.108
699.00,45.112
700.00,45.124
701.00,45.285
702.00,45.392
703.00,45.556
704.00,45.376
705.00,45.457
706.00,45.952
707.00,45.951
708.00,45.756
709.00,45.989
710.00,46.174
711.00,45.988
712.00,46.153
713.00,46.189
714.00,46.212
715.00,46.269
716.00,46.340
717.00,46.472
718.00,46.551
719.00,46.641
720.00,46.623
721.00,50.656
722.00,50.720
723.00,50.817
724.00,50.821
725.00,50.661
726.00,50.824
727.00,50.821
728.00,50.926
729.00,50.830
730.00,50.938
731.00,50.951
732.00,50.998
733.00,51.003
734.00,51.000
735.00,51.081
736.00,51.082
737.00,51.138
738.00,51.208
739.00,51.165
740.00,51.233
741.00,51.217
742.00,51.266
743.00,51.207
744.00,51.334
745.00,51.305
746.00,51.290
747.00,51.261
748.00,51.245
749.00,51.230
750.00,51.314
751.00,51.305
752.00,51.286
753.00,51.316
754.00,51.366
755.00,51.313
756.00,51.295
757.00,51.367
758.00,51.327
759.00,51.364
760.00,51.389
761.00,51.310
762.00,51.379
763.00,51.379
764.00,51.396
765.00,51.459
766.00,51.414
767.00,51.501
768.00,51.462
769.00,51.462
770.00,51.396
771.00,51.481
772.00,51.501
773.00,51.532
774.00,51.509
775.00,51.589
776.00,51.491
777.00,51.543
778.00,51.475
779.00,51.675
780.00,51.549
781.00,51.610
782.00,51.567
783.00,51.533
784.00,51.661
785.00,51.543
786.00,51.545
787.00,51.568
788.00,51.526
789.00,51.478
790.00,51.559
791.00,51.572
792.00,51.481
793.00,51.450
794.00,51.473
795.00,51.448
796.00,51.412
797.00,51.431
798.00,51.482
799.00,51.469
800.00,51.479
801.00,51.367
802.00,51.397
803.00,51.370
804.00,51.348
805.00,51.351
806.00,51.315
807.00,51.268
808.00,51.296
809.00,51.368
810.00,51.267
811.00,51.278
812.00,51.365
813.00,51.199
814.00,51.304
815.00,51.224
816.00,51.244
817.00,51.190
818.00,51.181
819.00,51.152
820.00,51.160
821.00,51.130
822.00,51.119
823.00,51.097
824.00,51.111
825.00,51.090
826.00,51.106
827.00,51.153
828.00,51.068
829.00,51.042
830.00,51.107
831.00,53.710
832.00,53.680
833.00,53.637
834.00,53.648
835.00,53.613
836.00,53.594
837.00,53.548
838.00,53.536
839.00,53.519
840.00,53.469
841.00,53.488
842.00,53.496
843.00,53.472
844.00,53.501
845.00,53.426
846.00,53.429
847.00,53.410
848.00,53.337
849.00,53.267
850.00,53.329
851.00,53.229
852.00,53.235
853.00,53.207
854.00,53.181
855.00,53.162
856.00,53.137
857.00,53.131
858.00,53.121
859.00,53.072
860.00,53.087
861.00,53.039
862.00,53.021
863.00,53.006
864.00,52.969
865.00,52.973
866.00,52.959
867.00,52.966
868.00,52.959
869.00,52.935
870.00,52.909
871.00,52.887
872.00,52.893
873.00,52.885
874.00,52.867
875.00,52.894
876.00,52.854
877.00,52.846
878.00,52.852
879.00,52.783
880.00,52.887
881.00,52.778
882.00,52.794
883.00,52.748
884.00,52.699
885.00,52.705
886.00,52.677
887.00,52.684
888.00,52.656
889.00,52.644
890.00,52.644
891.00,52.585
892.00,52.585
893.00,52.540
894.00,52.557
895.00,52.518
896.00,52.490
897.00,52.467
898.00,52.444
899.00,52.425
900.00,52.434
901.00,52.471
902.00,52.421
903.00,52.382
904.00,52.388
905.00,52.356
906.00,52.344
907.00,52.322
908.00,52.302
909.00,52.301
910.00,52.280
911.00,52.245
912.00,52.281
913.00,52.222
914.00,52.176
915.00,52.229
916.00,52.083
917.00,52.142
918.00,52.110
919.00,52.102
920.00,52.056
921.00,52.063
922.00,52.051
923.00,52.002
924.00,52.019
925.00,51.981
926.00,51.958
927.00,51.958
928.00,51.928
929.00,51.927
930.00,51.887
931.00,51.847
932.00,51.854
933.00,51.857
934.00,51.773
935.00,51.772
936.00,51.773
937.00,51.744
938.00,51.754
939.00,51.716
940.00,51.715
941.00,51.700
942.00,51.659
943.00,51.654
944.00,51.619
945.00,51.623
946.00,51.591
947.00,51.608
948.00,51.559
949.00,51.519
950.00,51.502
951.00,51.485
952.00,51.457
953.00,51.425
954.00,51.402
955.00,51.370
956.00,51.365
957.00,51.330
958.00,51.342
959.00,51.287
960.00,51.276
961.00,51.248
962.00,51.268
963.00,51.224
964.00,51.214
965.00,51.201
966.00,51.181
967.00,51.189
968.00,51.171
969.00,51.186
970.00,51.153
971.00,51.170
972.00,51.131
973.00,51.160
974.00,51.191
975.00,51.149
976.00,51.155
977.00,51.075
978.00,51.173
979.00,51.143
980.00,51.170
981.00,51.177
982.00,51.162
983.00,51.143
984.00,51.131
985.00,51.151
986.00,51.116
987.00,51.126
988.00,51.108
989.00,51.092
990.00,51.098
991.00,51.073
992.00,51.087
993.00,51.049
994.00,51.014
995.00,51.012
996.00,50.998
997.00,50.987
998.00,50.962
999.00,50.985
1000.00,50.929
1001.00,50.949
1002.00,50.940
1003.00,50.936
1004.00,50.920
1005.00,50.879
1006.00,50.911
1007.00,50.885
1008.00,50.849
1009.00,50.839
1010.00,50.829
1011.00,50.805
1012.00,50.774
1013.00,50.788
1014.00,50.746
1015.00,50.761
1016.00,50.726
1017.00,50.733
1018.00,50.714
1019.00,50.679
1020.00,50.671
1021.00,50.658
1022.00,50.639
1023.00,50.594
1024.00,50.593
1025.00,50.575
1026.00,50.568
1027.00,50.540
1028.00,50.532
1029.00,50.512
1030.00,50.486
1031.00,50.497
1032.00,50.467
1033.00,50.450
1034.00,50.431
1035.00,50.406
1036.00,50.387
1037.00,50.365
1038.00,50.361
1039.00,50.316
1040.00,50.337
1041.00,50.282
1042.00,50.284
1043.00,50.254
1044.00,50.274
1045.00,50.267
1046.00,50.263
1047.00,50.278
1048.00,50.290
1049.00,50.290
1050.00,50.303
1051.00,50.331
1052.00,50.320
1053.00,50.339
1054.00,50.342
1055.00,50.349
1056.00,50.352
1057.00,50.359
1058.00,50.343
1059.00,50.354
1060.00,50.347
1061.00,50.358
1062.00,50.336
1063.00,50.334
1064.00,50.317
1065.00,50.307
1066.00,50.294
1067.00,50.288
1068.00,50.294
1069.00,50.273
1070.00,50.256
1071.00,50.222
1072.00,50.258
1073.00,50.225
1074.00,50.222
1075.00,50.202
1076.00,50.199
1077.00,50.180
1078.00,50.184
1079.00,50.168
1080.00,50.173
1081.00,50.154
1082.00,50.143
1083.00,50.135
1084.00,50.137
1085.00,50.106
1086.00,50.120
1087.00,50.118
1088.00,50.093
1089.00,50.081
1090.00,50.085
1091.00,50.080
1092.00,50.085
1093.00,50.049
1094.00,50.049
1095.00,50.038
1096.00,50.021
1097.00,50.012
1098.00,50.007
1099.00,50.001
1100.00,50.004
1101.00,49.970
1102.00,49.965
1103.00,49.958
1104.00,49.929
1105.00,49.916
1106.00,49.917
1107.00,49.908
1108.00,49.921
1109.00,49.911
1110.00,49.920
1111.00,49.903
1112.00,49.884
1113.00,49.864
1114.00,49.868
1115.00,49.860
1116.00,49.854
1117.00,49.838
1118.00,49.822
1119.00,49.817
1120.00,49.817
1121.00,49.805
1122.00,49.799
1123.00,49.795
1124.00,49.799
1125.00,49.789
1126.00,49.782
1127.00,49.782
1128.00,49.771
1129.00,49.722
1130.00,49.728
1131.00,49.720
1132.00,49.724
1133.00,49.728
1134.00,49.720
1135.00,49.709
1136.00,49.720
1137.00,49.705
1138.00,49.708
1139.00,49.728
1140.00,49.708
1141.00,49.689
1142.00,49.676
1143.00,49.685
1144.00,49.663
1145.00,49.651
1146.00,49.656
1147.00,49.653
1148.00,49.633
1149.00,49.646
1150.00,49.649
1151.00,49.638
1152.00,49.627
1153.00,49.635
1154.00,49.613
1155.00,49.618
1156.00,49.608
1157.00,49.609
1158.00,49.614
1159.00,49.594
1160.00,49.594
1161.00,49.605
1162.00,49.581
1163.00,49.594
1164.00,49.579
1165.00,49.569
1166.00,49.577
1167.00,49.581
1168.00,49.590
1169.00,49.581
1170.00,49.561
1171.00,49.550
1172.00,49.569
1173.00,49.554
1174.00,49.560
1175.00,49.566
1176.00,49.559
1177.00,49.559
1178.00,49.557
1179.00,49.571
1180.00,49.555
1181.00,49.556
1182.00,49.550
1183.00,49.555
1184.00,49.528
1185.00,49.542
1186.00,49.533
1187.00,49.542
1188.00,49.521
1189.00,49.519
1190.00,49.524
1191.00,49.518
1192.00,49.526
1193.00,49.524
1194.00,49.537
1195.00,49.496
1196.00,49.525
1197.00,49.520
1198.00,49.511
1199.00,49.508
1200.00,49.509
1201.00,49.517
1202.00,49.509
1203.00,49.503
1204.00,49.501
1205.00,49.509
1206.00,49.490
1207.00,49.491
1208.00,49.488
1209.00,49.483
1210.00,49.488
1211.00,49.482
1212.00,49.501
1213.00,49.473
1214.00,49.479
1215.00,49.479
1216.00,49.479
1217.00,49.479
1218.00,49.465
1219.00,49.478
1220.00,49.478
1221.00,49.486
1222.00,49.475
1223.00,49.477
1224.00,49.489
1225.00,49.469
1226.00,49.481
1227.00,49.472
1228.00,49.474
1229.00,49.486
1230.00,49.510
1231.00,49.505
1232.00,49.519
1233.00,49.509
1234.00,49.518
1235.00,49.529
1236.00,49.507
1237.00,49.505
1238.00,49.500
1239.00,49.506
1240.00,49.514
1241.00,49.520
1242.00,49.514
1243.00,49.535
1244.00,49.516
1245.00,49.550
1246.00,49.562
1247.00,49.540
1248.00,49.542
1249.00,49.553
1250.00,49.539
1251.00,49.544
1252.00,49.556
1253.00,49.533
1254.00,49.556
1255.00,49.552
1256.00,49.540
1257.00,49.521
1258.00,49.560
1259.00,49.569
1260.00,49.599
1261.00,49.566
1262.00,49.576
1263.00,49.575
1264.00,49.583
1265.00,49.584
1266.00,49.586
1267.00,49.587
1268.00,49.604
1269.00,49.594
1270.00,49.612
1271.00,49.609
1272.00,49.604
1273.00,49.622
1274.00,49.621
1275.00,49.611
1276.00,49.625
1277.00,49.638
1278.00,49.656
1279.00,49.645
1280.00,49.651
1281.00,49.660
1282.00,49.685
1283.00,49.627
1284.00,49.657
1285.00,49.648
1286.00,49.664
1287.00,49.661
1288.00,49.663
1289.00,49.660
1290.00,49.685
1291.00,49.680
1292.00,49.686
1293.00,49.683
1294.00,49.685
1295.00,49.703
1296.00,49.703
1297.00,49.710
1298.00,49.734
1299.00,49.717
1300.00,49.727
1301.00,49.750
1302.00,49.738
1303.00,49.756
1304.00,49.729
1305.00,49.752
1306.00,49.765
1307.00,49.769
1308.00,49.770
1309.00,49.780
1310.00,49.784
1311.00,49.776
1312.00,49.785
1313.00,49.756
1314.00,49.770
1315.00,49.783
1316.00,49.780
1317.00,49.803
1318.00,49.805
1319.00,49.806
1320.00,49.841
1321.00,49.973
1322.00,49.990
1323.00,49.976
1324.00,49.961
1325.00,49.953
1326.00,50.020
1327.00,49.957
1328.00,49.984
1329.00,49.985
1330.00,49.993
1331.00,49.990
1332.00,49.984
1333.00,49.982
1334.00,50.023
1335.00,50.021
1336.00,50.051
1337.00,50.084
1338.00,50.148
1339.00,50.186
1340.00,50.242
1341.00,50.301
1342.00,50.380
1343.00,50.468
1344.00,50.463
1345.00,50.531
1346.00,50.563
1347.00,50.597
1348.00,50.612
1349.00,50.634
1350.00,50.645
1351.00,50.664
1352.00,50.648
1353.00,50.672
1354.00,50.698
1355.00,50.807
1356.00,50.684
1357.00,50.686
1358.00,50.734
1359.00,50.719
1360.00,50.752
1361.00,50.660
1362.00,50.664
1363.00,50.744
1364.00,50.767
1365.00,50.705
1366.00,50.739
1367.00,50.694
1368.00,50.658
1369.00,50.686
1370.00,50.674
1371.00,50.641
1372.00,50.662
1373.00,50.683
1374.00,50.707
1375.00,50.684
1376.00,50.686
1377.00,50.646
1378.00,50.735
1379.00,50.670
1380.00,50.671
1381.00,50.700
1382.00,50.670
1383.00,50.659
1384.00,50.639
1385.00,50.614
1386.00,50.671
1387.00,50.592
1388.00,50.662
1389.00,50.647
1390.00,50.705
1391.00,50.606
1392.00,50.644
1393.00,50.736
1394.00,50.654
1395.00,50.616
1396.00,50.621
1397.00,50.668
1398.00,50.703
1399.00,50.659
1400.00,50.652
1401.00,50.641
1402.00,50.816
1403.00,50.752
1404.00,50.666
1405.00,50.707
1406.00,50.701
1407.00,50.710
1408.00,50.713
1409.00,50.687
1410.00,50.735
1411.00,50.722
1412.00,50.763
1413.00,50.724
1414.00,50.718
1415.00,50.765
1416.00,50.769
1417.00,50.800
1418.00,50.799
1419.00,50.779
1420.00,50.829
1421.00,50.861
1422.00,50.863
1423.00,50.853
1424.00,50.875
1425.00,50.890
1426.00,50.894
1427.00,50.908
1428.00,50.919
1429.00,50.941
1430.00,50.939
1431.00,50.954
1432.00,50.967
1433.00,51.009
1434.00,50.986
1435.00,51.036
1436.00,51.043
1437.00,51.047
1438.00,51.058
1439.00,51.085
1440.00,51.085
1441.00,51.104
1442.00,51.109
1443.00,51.145
1444.00,51.177
1445.00,51.144
1446.00,51.137
1447.00,51.182
1448.00,51.223
1449.00,51.218
1450.00,51.226
1451.00,51.249
1452.00,51.267
1453.00,51.306
1454.00,51.282
1455.00,51.314
1456.00,51.326
1457.00,51.321
1458.00,51.329
1459.00,51.372
1460.00,51.373
1461.00,51.388
1462.00,51.408
1463.00,51.429
1464.00,51.447
1465.00,51.451
1466.00,51.473
1467.00,51.487
1468.00,51.518
1469.00,51.520
1470.00,51.523
1471.00,51.542
1472.00,51.561
1473.00,51.571
1474.00,51.600
1475.00,51.600
1476.00,51.617
1477.00,51.613
1478.00,51.616
1479.00,51.628
1480.00,51.637
1481.00,51.649
1482.00,51.663
1483.00,51.700
1484.00,51.697
1485.00,51.709
1486.00,51.718
1487.00,51.731
1488.00,51.756
1489.00,51.744
1490.00,51.774
1491.00,51.779
1492.00,51.790
1493.00,51.788
1494.00,51.811
1495.00,51.816
1496.00,51.822
1497.00,51.839
1498.00,51.842
1499.00,51.879
1500.00,51.895
1501.00, 
1502.00, 
1503.00, 
1504.00, 
1505.00, 
1506.00, 
1507.00, 
1508.00, 
1509.00, 
1510.00, 
1511.00, 
1512.00, 
1513.00, 
1514.00, 
1515.00, 
1516.00, 
1517.00, 
1518.00, 
1519.00, 
1520.00, 
1521.00, 
1522.00, 
1523.00, 
1524.00, 
1525.00, 
1526.00, 
1527.00, 
1528.00, 
1529.00, 
1530.00, 
1531.00, 
1532.00, 
1533.00, 
1534.00, 
1535.00, 
1536.00, 
1537.00, 
1538.00, 
1539.00, 
1540.00, 
1541.00, 
1542.00, 
1543.00, 
1544.00, 
1545.00, 
1546.00, 
1547.00, 
1548.00, 
1549.00, 
1550.00, 
1551.00, 
1552.00, 
1553.00, 
1554.00, 
1555.00, 
1556.00, 
1557.00, 
1558.00, 
1559.00, 
1560.00, 
1561.00, 
1562.00, 
1563.00, 
1564.00, 
1565.00, 
1566.00, 
1567.00, 
1568.00, 
1569.00, 
1570.00, 
1571.00, 
1572.00, 
1573.00, 
1574.00, 
1575.00, 
1576.00, 
1577.00, 
1578.00, 
1579.00, 
1580.00, 
1581.00, 
1582.00, 
1583.00, 
1584.00, 
1585.00, 
1586.00, 
1587.00, 
1588.00, 
1589.00, 
1590.00, 
1591.00, 
1592.00, 
1593.00, 
1594.00, 
1595.00, 
1596.00, 
1597.00, 
1598.00, 
1599.00, 
1600.00, 
1601.00, 
1602.00, 
1603.00, 
1604.00, 
1605.00, 
1606.00, 
1607.00, 
1608.00, 
1609.00, 
1610.00, 
1611.00, 
1612.00, 
1613.00, 
1614.00, 
1615.00, 
1616.00, 
1617.00, 
1618.00, 
1619.00, 
1620.00, 
1621.00, 
1622.00, 
1623.00, 
1624.00, 
1625.00, 
1626.00, 
1627.00, 
1628.00, 
1629.00, 
1630.00, 
1631.00, 
1632.00, 
1633.00, 
1634.00, 
1635.00, 
1636.00, 
1637.00, 
1638.00, 
1639.00, 
1640.00, 
1641.00, 
1642.00, 
1643.00, 
1644.00, 
1645.00, 
1646.00, 
1647.00, 
1648.00, 
1649.00, 
1650.00, 
1651.00, 
1652.00, 
1653.00, 
1654.00, 
1655.00, 
1656.00, 
1657.00, 
1658.00, 
1659.00, 
1660.00, 
1661.00, 
1662.00, 
1663.00, 
1664.00, 
1665.00, 
1666.00, 
1667.00, 
1668.00, 
1669.00, 
1670.00, 
1671.00, 
1672.00, 
1673.00, 
1674.00, 
1675.00, 
1676.00, 
1677.00, 
1678.00, 
1679.00, 
1680.00, 
1681.00, 
1682.00, 
1683.00, 
1684.00, 
1685.00, 
1686.00, 
1687.00, 
1688.00, 
1689.00, 
1690.00, 
1691.00, 
1692.00, 
1693.00, 
1694.00, 
1695.00, 
1696.00, 
1697.00, 
1698.00, 
1699.00, 
1700.00, 
1701.00, 
1702.00, 
1703.00, 
1704.00, 
1705.00, 
1706.00, 
1707.00, 
1708.00, 
1709.00, 
1710.00, 
1711.00, 
1712.00, 
1713.00, 
1714.00, 
1715.00, 
1716.00, 
1717.00, 
1718.00, 
1719.00, 
1720.00, 
1721.00, 
1722.00, 
1723.00, 
1724.00, 
1725.00, 
1726.00, 
1727.00, 
1728.00, 
1729.00, 
1730.00, 
1731.00, 
1732.00, 
1733.00, 
1734.00, 
1735.00, 
1736.00, 
1737.00, 
1738.00, 
1739.00, 
1740.00, 
1741.00, 
1742.00, 
1743.00, 
1744.00, 
1745.00, 
1746.00, 
1747.00, 
1748.00, 
1749.00, 
1750.00, 
1751.00, 
1752.00, 
1753.00, 
1754.00, 
1755.00, 
1756.00, 
1757.00, 
1758.00, 
1759.00, 
1760.00, 
1761.00, 
1762.00, 
1763.00, 
1764.00, 
1765.00, 
1766.00, 
1767.00, 
1768.00, 
1769.00, 
1770.00, 
1771.00, 
1772.00, 
1773.00, 
1774.00, 
1775.00, 
1776.00, 
1777.00, 
1778.00, 
1779.00, 
1780.00, 
1781.00, 
1782.00, 
1783.00, 
1784.00, 
1785.00, 
1786.00, 
1787.00, 
1788.00, 
1789.00, 
1790.00, 
1791.00, 
1792.00, 
1793.00, 
1794.00, 
1795.00, 
1796.00, 
1797.00, 
1798.00, 
1799.00, 
1800.00, 
1801.00, 
1802.00, 
1803.00, 
1804.00, 
1805.00, 
1806.00, 
1807.00, 
1808.00, 
1809.00, 
1810.00, 
1811.00, 
1812.00, 
1813.00, 
1814.00, 
1815.00, 
1816.00, 
1817.00, 
1818.00, 
1819.00, 
1820.00, 
1821.00, 
1822.00, 
1823.00, 
1824.00, 
1825.00, 
1826.00, 
1827.00, 
1828.00, 
1829.00, 
1830.00, 
1831.00, 
1832.00, 
1833.00, 
1834.00, 
1835.00, 
1836.00, 
1837.00, 
1838.00, 
1839.00, 
1840.00, 
1841.00, 
1842.00, 
1843.00, 
1844.00, 
1845.00, 
1846.00, 
1847.00, 
1848.00, 
1849.00, 
1850.00, 
1851.00, 
1852.00, 
1853.00, 
1854.00, 
1855.00, 
1856.00, 
1857.00, 
1858.00, 
1859.00, 
1860.00, 
1861.00, 
1862.00, 
1863.00, 
1864.00, 
1865.00, 
1866.00, 
1867.00, 
1868.00, 
1869.00, 
1870.00, 
1871.00, 
1872.00, 
1873.00, 
1874.00, 
1875.00, 
1876.00, 
1877.00, 
1878.00, 
1879.00, 
1880.00, 
1881.00, 
1882.00, 
1883.00, 
1884.00, 
1885.00, 
1886.00, 
1887.00, 
1888.00, 
1889.00, 
1890.00, 
1891.00, 
1892.00, 
1893.00, 
1894.00, 
1895.00, 
1896.00, 
1897.00, 
1898.00, 
1899.00, 
1900.00, 
1901.00, 
1902.00, 
1903.00, 
1904.00, 
1905.00, 
1906.00, 
1907.00, 
1908.00, 
1909.00, 
1910.00, 
1911.00, 
1912.00, 
1913.00, 
1914.00, 
1915.00, 
1916.00, 
1917.00, 
1918.00, 
1919.00, 
1920.00, 
1921.00, 
1922.00, 
1923.00, 
1924.00, 
1925.00, 
1926.00, 
1927.00, 
1928.00, 
1929.00, 
1930.00, 
1931.00, 
1932.00, 
1933.00, 
1934.00, 
1935.00, 
1936.00, 
1937.00, 
1938.00, 
1939.00, 
1940.00, 
1941.00, 
1942.00, 
1943.00, 
1944.00, 
1945.00, 
1946.00, 
1947.00, 
1948.00, 
1949.00, 
1950.00, 
1951.00, 
1952.00, 
1953.00, 
1954.00, 
1955.00, 
1956.00, 
1957.00, 
1958.00, 
1959.00, 
1960.00, 
1961.00, 
1962.00, 
1963.00, 
1964.00, 
1965.00, 
1966.00, 
1967.00, 
1968.00, 
1969.00, 
1970.00, 
1971.00, 
1972.00, 
1973.00, 
1974.00, 
1975.00, 
1976.00, 
1977.00, 
1978.00, 
1979.00, 
1980.00, 
1981.00, 
1982.00, 
1983.00, 
1984.00, 
1985.00, 
1986.00, 
1987.00, 
1988.00, 
1989.00, 
1990.00, 
1991.00, 
1992.00, 
1993.00, 
1994.00, 
1995.00, 
1996.00, 
1997.00, 
1998.00, 
1999.00, 
2000.00, 
2001.00, 
2002.00, 
2003.00, 
2004.00, 
2005.00, 
2006.00, 
2007.00, 
2008.00, 
2009.00, 
2010.00, 
2011.00, 
2012.00, 
2013.00, 
2014.00, 
2015.00, 
2016.00, 
2017.00, 
2018.00, 
2019.00, 
2020.00, 
2021.00, 
2022.00, 
2023.00, 
2024.00, 
2025.00, 
2026.00, 
2027.00, 
2028.00, 
2029.00, 
2030.00, 
2031.00, 
2032.00, 
2033.00, 
2034.00, 
2035.00, 
2036.00, 
2037.00, 
2038.00, 
2039.00, 
2040.00, 
2041.00, 
2042.00, 
2043.00, 
2044.00, 
2045.00, 
2046.00, 
2047.00, 
2048.00, 
2049.00, 
2050.00, 
2051.00, 
2052.00, 
2053.00, 
2054.00, 
2055.00, 
2056.00, 
2057.00, 
2058.00, 
2059.00, 
2060.00, 
2061.00, 
2062.00, 
2063.00, 
2064.00, 
2065.00, 
2066.00, 
2067.00, 
2068.00, 
2069.00, 
2070.00, 
2071.00, 
2072.00, 
2073.00, 
2074.00, 
2075.00, 
2076.00, 
2077.00, 
2078.00, 
2079.00, 
2080.00, 
2081.00, 
2082.00, 
2083.00, 
2084.00, 
2085.00, 
2086.00, 
2087.00, 
2088.00, 
2089.00, 
2090.00, 
2091.00, 
2092.00, 
2093.00, 
2094.00, 
2095.00, 
2096.00, 
2097.00, 
2098.00, 
2099.00, 
2100.00, 
2101.00, 
2102.00, 
2103.00, 
2104.00, 
2105.00, 
2106.00, 
2107.00, 
2108.00, 
2109.00, 
2110.00, 
2111.00, 
2112.00, 
2113.00, 
2114.00, 
2115.00, 
2116.00, 
2117.00, 
2118.00, 
2119.00, 
2120.00, 
2121.00, 
2122.00, 
2123.00, 
2124.00, 
2125.00, 
2126.00, 
2127.00, 
2128.00, 
2129.00, 
2130.00, 
2131.00, 
2132.00, 
2133.00, 
2134.00, 
2135.00, 
2136.00, 
2137.00, 
2138.00, 
2139.00, 
2140.00, 
2141.00, 
2142.00, 
2143.00, 
2144.00, 
2145.00, 
2146.00, 
2147.00, 
2148.00, 
2149.00, 
2150.00, 
2151.00, 
2152.00, 
2153.00, 
2154.00, 
2155.00, 
2156.00, 
2157.00, 
2158.00, 
2159.00, 
2160.00, 
2161.00, 
2162.00, 
2163.00, 
2164.00, 
2165.00, 
2166.00, 
2167.00, 
2168.00, 
2169.00, 
2170.00, 
2171.00, 
2172.00, 
2173.00, 
2174.00, 
2175.00, 
2176.00, 
2177.00, 
2178.00, 
2179.00, 
2180.00, 
2181.00, 
2182.00, 
2183.00, 
2184.00, 
2185.00, 
2186.00, 
2187.00, 
2188.00, 
2189.00, 
2190.00, 
2191.00, 
2192.00, 
2193.00, 
2194.00, 
2195.00, 
2196.00, 
2197.00, 
2198.00, 
2199.00, 
2200.00, 
2201.00, 
2202.00, 
2203.00, 
2204.00, 
2205.00, 
2206.00, 
2207.00, 
2208.00, 
2209.00, 
2210.00, 
2211.00, 
2212.00, 
2213.00, 
2214.00, 
2215.00, 
2216.00, 
2217.00, 
2218.00, 
2219.00, 
2220.00, 
2221.00, 
2222.00, 
2223.00, 
2224.00, 
2225.00, 
2226.00, 
2227.00, 
2228.00, 
2229.00, 
2230.00, 
2231.00, 
2232.00, 
2233.00, 
2234.00, 
2235.00, 
2236.00, 
2237.00, 
2238.00, 
2239.00, 
2240.00, 
2241.00, 
2242.00, 
2243.00, 
2244.00, 
2245.00, 
2246.00, 
2247.00, 
2248.00, 
2249.00, 
2250.00, 
2251.00, 
2252.00, 
2253.00, 
2254.00, 
2255.00, 
2256.00, 
2257.00, 
2258.00, 
2259.00, 
2260.00, 
2261.00, 
2262.00, 
2263.00, 
2264.00, 
2265.00, 
2266.00, 
2267.00, 
2268.00, 
2269.00, 
2270.00, 
2271.00, 
2272.00, 
2273.00, 
2274.00, 
2275.00, 
2276.00, 
2277.00, 
2278.00, 
2279.00, 
2280.00, 
2281.00, 
2282.00, 
2283.00, 
2284.00, 
2285.00, 
2286.00, 
2287.00, 
2288.00, 
2289.00, 
2290.00, 
2291.00, 
2292.00, 
2293.00, 
2294.00, 
2295.00, 
2296.00, 
2297.00, 
2298.00, 
2299.00, 
2300.00, 
2301.00, 
2302.00, 
2303.00, 
2304.00, 
2305.00, 
2306.00, 
2307.00, 
2308.00, 
2309.00, 
2310.00, 
2311.00, 
2312.00, 
2313.00, 
2314.00, 
2315.00, 
2316.00, 
2317.00, 
2318.00, 
2319.00, 
2320.00, 
2321.00, 
2322.00, 
2323.00, 
2324.00, 
2325.00, 
2326.00, 
2327.00, 
2328.00, 
2329.00, 
2330.00, 
2331.00, 
2332.00, 
2333.00, 
2334.00, 
2335.00, 
2336.00, 
2337.00, 
2338.00, 
2339.00, 
2340.00, 
2341.00, 
2342.00, 
2343.00, 
2344.00, 
2345.00, 
2346.00, 
2347.00, 
2348.00, 
2349.00, 
2350.00, 
2351.00, 
2352.00, 
2353.00, 
2354.00, 
2355.00, 
2356.00, 
2357.00, 
2358.00, 
2359.00, 
2360.00, 
2361.00, 
2362.00, 
2363.00, 
2364.00, 
2365.00, 
2366.00, 
2367.00, 
2368.00, 
2369.00, 
2370.00, 
2371.00, 
2372.00, 
2373.00, 
2374.00, 
2375.00, 
2376.00, 
2377.00, 
2378.00, 
2379.00, 
2380.00, 
2381.00, 
2382.00, 
2383.00, 
2384.00, 
2385.00, 
2386.00, 
2387.00, 
2388.00, 
2389.00, 
2390.00, 
2391.00, 
2392.00, 
2393.00, 
2394.00, 
2395.00, 
2396.00, 
2397.00, 
2398.00, 
2399.00, 
2400.00, 
2401.00, 
2402.00, 
2403.00, 
2404.00, 
2405.00, 
2406.00, 
2407.00, 
2408.00, 
2409.00, 
2410.00, 
2411.00, 
2412.00, 
2413.00, 
2414.00, 
2415.00, 
2416.00, 
2417.00, 
2418.00, 
2419.00, 
2420.00, 
2421.00, 
2422.00, 
2423.00, 
2424.00, 
2425.00, 
2426.00, 
2427.00, 
2428.00, 
2429.00, 
2430.00, 
2431.00, 
2432.00, 
2433.00, 
2434.00, 
2435.00, 
2436.00, 
2437.00, 
2438.00, 
2439.00, 
2440.00, 
2441.00, 
2442.00, 
2443.00, 
2444.00, 
2445.00, 
2446.00, 
2447.00, 
2448.00, 
2449.00, 
2450.00, 
2451.00, 
2452.00, 
2453.00, 
2454.00, 
2455.00, 
2456.00, 
2457.00, 
2458.00, 
2459.00, 
2460.00, 
2461.00, 
2462.00, 
2463.00, 
2464.00, 
2465.00, 
2466.00, 
2467.00, 
2468.00, 
2469.00, 
2470.00, 
2471.00, 
2472.00, 
2473.00, 
2474.00, 
2475.00, 
2476.00, 
2477.00, 
2478.00, 
2479.00, 
2480.00, 
2481.00, 
2482.00, 
2483.00, 
2484.00, 
2485.00, 
2486.00, 
2487.00, 
2488.00, 
2489.00, 
2490.00, 
2491.00, 
2492.00, 
2493.00, 
2494.00, 
2495.00, 
2496.00, 
2497.00, 
2498.00, 
2499.00, 
2500.00, 
2501.00, 
2502.00, 
2503.00, 
2504.00, 
2505.00, 
2506.00, 
2507.00, 
2508.00, 
2509.00, 
2510.00, 
2511.00, 
2512.00, 
2513.00, 
2514.00, 
2515.00, 
2516.00, 
2517.00, 
2518.00, 
2519.00, 
2520.00, 
2521.00, 
2522.00, 
2523.00, 
2524.00, 
2525.00, 
2526.00, 
2527.00, 
2528.00, 
2529.00, 
2530.00, 
2531.00, 
2532.00, 
2533.00, 
2534.00, 
2535.00, 
2536.00, 
2537.00, 
2538.00, 
2539.00, 
2540.00, 
2541.00, 
2542.00, 
2543.00, 
2544.00, 
2545.00, 
2546.00, 
2547.00, 
2548.00, 
2549.00, 
2550.00, 
2551.00, 
2552.00, 
2553.00, 
2554.00, 
2555.00, 
2556.00, 
2557.00, 
2558.00, 
2559.00, 
2560.00, 
2561.00, 
2562.00, 
2563.00, 
2564.00, 
2565.00, 
2566.00, 
2567.00, 
2568.00, 
2569.00, 
2570.00, 
2571.00, 
2572.00, 
2573.00, 
2574.00, 
2575.00, 
2576.00, 
2577.00, 
2578.00, 
2579.00, 
2580.00, 
2581.00, 
2582.00, 
2583.00, 
2584.00, 
2585.00, 
2586.00, 
2587.00, 
2588.00, 
2589.00, 
2590.00, 
2591.00, 
2592.00, 
2593.00, 
2594.00, 
2595.00, 
2596.00, 
2597.00, 
2598.00, 
2599.00, 
2600.00, 
