"2cP5 - RawData"
"Wavelength nm.","T%"
200.00,0.002
201.00,-0.001
202.00,0.000
203.00,-0.001
204.00,0.001
205.00,-0.001
206.00,0.001
207.00,0.002
208.00,0.002
209.00,0.002
210.00,0.002
211.00,0.002
212.00,0.001
213.00,-0.001
214.00,0.001
215.00,0.001
216.00,0.003
217.00,0.002
218.00,0.005
219.00,0.004
220.00,0.001
221.00,0.001
222.00,0.002
223.00,-0.002
224.00,0.003
225.00,-0.003
226.00,-0.001
227.00,0.001
228.00,0.003
229.00,0.002
230.00,0.001
231.00,0.001
232.00,0.000
233.00,0.000
234.00,0.002
235.00,-0.000
236.00,-0.001
237.00,0.001
238.00,-0.000
239.00,-0.001
240.00,0.001
241.00,-0.000
242.00,0.001
243.00,-0.001
244.00,-0.001
245.00,0.002
246.00,0.000
247.00,0.000
248.00,0.001
249.00,-0.001
250.00,0.001
251.00,-0.001
252.00,0.000
253.00,0.001
254.00,0.001
255.00,0.001
256.00,0.001
257.00,-0.001
258.00,-0.001
259.00,-0.000
260.00,0.002
261.00,-0.001
262.00,0.002
263.00,0.001
264.00,-0.000
265.00,-0.002
266.00,0.001
267.00,0.001
268.00,0.001
269.00,-0.001
270.00,-0.001
271.00,0.001
272.00,-0.000
273.00,-0.000
274.00,0.001
275.00,-0.001
276.00,0.002
277.00,0.002
278.00,0.000
279.00,0.001
280.00,-0.000
281.00,-0.002
282.00,0.001
283.00,0.002
284.00,0.002
285.00,0.001
286.00,-0.001
287.00,-0.000
288.00,0.001
289.00,-0.002
290.00,0.001
291.00,0.002
292.00,0.001
293.00,0.001
294.00,0.000
295.00,-0.001
296.00,-0.001
297.00,0.000
298.00,-0.000
299.00,-0.001
300.00,0.002
301.00,0.002
302.00,0.004
303.00,0.007
304.00,0.010
305.00,0.014
306.00,0.021
307.00,0.030
308.00,0.049
309.00,0.080
310.00,0.108
311.00,0.145
312.00,0.197
313.00,0.277
314.00,0.355
315.00,0.455
316.00,0.586
317.00,0.747
318.00,0.914
319.00,1.127
320.00,1.365
321.00,1.644
322.00,1.926
323.00,2.274
324.00,2.633
325.00,3.009
326.00,3.394
327.00,3.807
328.00,4.252
329.00,4.719
330.00,5.192
331.00,5.669
332.00,6.153
333.00,6.657
334.00,7.139
335.00,7.628
336.00,8.124
337.00,8.612
338.00,9.147
339.00,9.582
340.00,10.074
341.00,10.494
342.00,10.926
343.00,11.352
344.00,11.739
345.00,12.079
346.00,12.431
347.00,12.743
348.00,13.092
349.00,13.361
350.00,13.644
351.00,13.893
352.00,14.138
353.00,14.384
354.00,14.584
355.00,14.756
356.00,14.928
357.00,15.127
358.00,15.255
359.00,15.427
360.00,15.539
361.00,15.625
362.00,15.736
363.00,15.854
364.00,15.916
365.00,15.992
366.00,16.058
367.00,16.077
368.00,16.123
369.00,16.115
370.00,16.163
371.00,16.168
372.00,16.148
373.00,16.153
374.00,16.126
375.00,16.104
376.00,16.063
377.00,16.016
378.00,15.953
379.00,15.923
380.00,15.891
381.00,15.843
382.00,15.805
383.00,15.833
384.00,15.840
385.00,15.859
386.00,15.852
387.00,15.906
388.00,15.840
389.00,15.865
390.00,15.875
391.00,15.880
392.00,15.858
393.00,15.872
394.00,15.858
395.00,15.876
396.00,15.858
397.00,15.862
398.00,15.869
399.00,15.853
400.00,15.866
401.00,15.830
402.00,15.832
403.00,15.823
404.00,15.810
405.00,15.798
406.00,15.775
407.00,15.729
408.00,15.747
409.00,15.717
410.00,15.737
411.00,15.645
412.00,15.635
413.00,15.649
414.00,15.668
415.00,15.692
416.00,15.750
417.00,15.784
418.00,15.755
419.00,15.788
420.00,15.790
421.00,15.847
422.00,15.878
423.00,15.898
424.00,15.928
425.00,15.961
426.00,15.995
427.00,16.043
428.00,16.097
429.00,16.131
430.00,16.188
431.00,16.221
432.00,16.280
433.00,16.332
434.00,16.383
435.00,16.453
436.00,16.478
437.00,16.590
438.00,16.630
439.00,16.707
440.00,16.782
441.00,16.872
442.00,16.958
443.00,17.052
444.00,17.163
445.00,17.187
446.00,17.284
447.00,17.327
448.00,17.471
449.00,17.573
450.00,17.686
451.00,17.765
452.00,17.874
453.00,17.972
454.00,18.063
455.00,18.197
456.00,18.311
457.00,18.408
458.00,18.558
459.00,18.698
460.00,18.781
461.00,18.904
462.00,19.066
463.00,19.124
464.00,19.319
465.00,19.419
466.00,19.554
467.00,19.719
468.00,19.828
469.00,19.973
470.00,20.059
471.00,20.167
472.00,20.308
473.00,20.360
474.00,20.515
475.00,20.623
476.00,20.714
477.00,20.915
478.00,21.029
479.00,21.187
480.00,21.314
481.00,21.452
482.00,21.626
483.00,21.799
484.00,21.926
485.00,22.137
486.00,22.238
487.00,22.409
488.00,22.550
489.00,22.735
490.00,22.896
491.00,23.028
492.00,23.191
493.00,23.297
494.00,23.504
495.00,23.605
496.00,23.738
497.00,23.878
498.00,24.032
499.00,24.188
500.00,24.329
501.00,24.399
502.00,24.618
503.00,24.710
504.00,24.776
505.00,24.989
506.00,25.103
507.00,25.230
508.00,25.402
509.00,25.552
510.00,25.696
511.00,25.779
512.00,25.885
513.00,26.016
514.00,26.227
515.00,26.310
516.00,26.435
517.00,26.564
518.00,26.727
519.00,26.825
520.00,26.908
521.00,27.025
522.00,27.116
523.00,27.223
524.00,27.341
525.00,27.423
526.00,27.526
527.00,27.599
528.00,27.690
529.00,27.783
530.00,27.951
531.00,28.106
532.00,28.209
533.00,28.357
534.00,28.405
535.00,28.488
536.00,28.627
537.00,28.709
538.00,28.789
539.00,28.866
540.00,28.935
541.00,29.007
542.00,29.054
543.00,29.167
544.00,29.238
545.00,29.321
546.00,29.389
547.00,29.505
548.00,29.613
549.00,29.663
550.00,29.766
551.00,29.805
552.00,29.913
553.00,29.981
554.00,30.042
555.00,30.142
556.00,30.173
557.00,30.237
558.00,30.349
559.00,30.420
560.00,30.433
561.00,30.531
562.00,30.581
563.00,30.600
564.00,30.727
565.00,30.752
566.00,30.791
567.00,30.862
568.00,30.864
569.00,30.956
570.00,30.943
571.00,31.011
572.00,31.069
573.00,31.099
574.00,31.183
575.00,31.153
576.00,31.212
577.00,31.257
578.00,31.309
579.00,31.371
580.00,31.458
581.00,31.581
582.00,31.647
583.00,31.697
584.00,31.850
585.00,31.827
586.00,31.865
587.00,32.014
588.00,32.004
589.00,32.062
590.00,32.130
591.00,32.154
592.00,32.253
593.00,32.299
594.00,32.299
595.00,32.331
596.00,32.402
597.00,32.477
598.00,32.552
599.00,32.628
600.00,32.680
601.00,32.718
602.00,32.738
603.00,32.740
604.00,32.825
605.00,32.876
606.00,32.948
607.00,33.007
608.00,33.111
609.00,33.147
610.00,33.120
611.00,33.181
612.00,33.264
613.00,33.316
614.00,33.393
615.00,33.426
616.00,33.537
617.00,33.596
618.00,33.620
619.00,33.640
620.00,33.699
621.00,33.791
622.00,33.832
623.00,33.973
624.00,34.064
625.00,34.121
626.00,34.204
627.00,34.250
628.00,34.315
629.00,34.397
630.00,34.480
631.00,34.517
632.00,34.637
633.00,34.699
634.00,34.781
635.00,34.877
636.00,34.997
637.00,35.096
638.00,35.169
639.00,35.236
640.00,35.329
641.00,35.393
642.00,35.499
643.00,35.544
644.00,35.697
645.00,35.793
646.00,35.869
647.00,36.030
648.00,36.081
649.00,36.182
650.00,36.257
651.00,36.366
652.00,36.515
653.00,36.522
654.00,36.737
655.00,36.822
656.00,36.994
657.00,37.113
658.00,37.128
659.00,37.256
660.00,37.467
661.00,37.499
662.00,37.456
663.00,37.713
664.00,37.814
665.00,37.938
666.00,38.040
667.00,38.197
668.00,38.247
669.00,38.405
670.00,38.617
671.00,38.611
672.00,38.799
673.00,38.918
674.00,39.041
675.00,39.136
676.00,39.301
677.00,39.404
678.00,39.454
679.00,39.635
680.00,39.794
681.00,39.937
682.00,39.955
683.00,40.104
684.00,40.346
685.00,40.381
686.00,40.361
687.00,40.533
688.00,40.741
689.00,40.735
690.00,40.847
691.00,41.190
692.00,41.073
693.00,41.174
694.00,41.360
695.00,41.519
696.00,41.586
697.00,41.735
698.00,41.855
699.00,42.068
700.00,42.010
701.00,42.178
702.00,42.516
703.00,42.622
704.00,42.743
705.00,42.762
706.00,42.812
707.00,43.125
708.00,42.978
709.00,43.178
710.00,43.498
711.00,43.487
712.00,43.396
713.00,43.625
714.00,43.741
715.00,43.769
716.00,43.943
717.00,43.988
718.00,44.158
719.00,44.319
720.00,44.281
721.00,48.421
722.00,48.525
723.00,48.568
724.00,48.645
725.00,48.580
726.00,48.710
727.00,48.776
728.00,48.845
729.00,48.845
730.00,48.970
731.00,49.008
732.00,49.085
733.00,49.172
734.00,49.207
735.00,49.328
736.00,49.351
737.00,49.408
738.00,49.486
739.00,49.544
740.00,49.659
741.00,49.662
742.00,49.757
743.00,49.700
744.00,49.826
745.00,49.841
746.00,49.915
747.00,49.872
748.00,49.882
749.00,49.928
750.00,50.037
751.00,50.054
752.00,50.030
753.00,50.122
754.00,50.169
755.00,50.213
756.00,50.193
757.00,50.252
758.00,50.301
759.00,50.354
760.00,50.390
761.00,50.331
762.00,50.438
763.00,50.455
764.00,50.525
765.00,50.540
766.00,50.577
767.00,50.640
768.00,50.683
769.00,50.732
770.00,50.714
771.00,50.774
772.00,50.783
773.00,50.810
774.00,50.846
775.00,50.906
776.00,50.798
777.00,50.972
778.00,50.815
779.00,50.994
780.00,51.004
781.00,51.005
782.00,51.054
783.00,51.025
784.00,51.110
785.00,51.054
786.00,51.076
787.00,51.091
788.00,51.030
789.00,51.094
790.00,51.138
791.00,51.139
792.00,51.099
793.00,51.078
794.00,51.067
795.00,51.168
796.00,51.120
797.00,51.070
798.00,51.162
799.00,51.134
800.00,51.150
801.00,51.181
802.00,51.181
803.00,51.157
804.00,51.101
805.00,51.123
806.00,51.133
807.00,51.119
808.00,51.125
809.00,51.087
810.00,51.105
811.00,51.082
812.00,51.256
813.00,51.131
814.00,51.138
815.00,51.138
816.00,51.188
817.00,51.133
818.00,51.156
819.00,51.088
820.00,51.108
821.00,51.092
822.00,51.149
823.00,51.094
824.00,51.111
825.00,51.010
826.00,51.087
827.00,51.139
828.00,51.063
829.00,51.024
830.00,51.168
831.00,53.257
832.00,53.264
833.00,53.218
834.00,53.229
835.00,53.212
836.00,53.229
837.00,53.216
838.00,53.191
839.00,53.105
840.00,53.105
841.00,53.149
842.00,53.151
843.00,53.131
844.00,53.129
845.00,53.075
846.00,53.092
847.00,53.068
848.00,53.078
849.00,53.056
850.00,52.942
851.00,52.973
852.00,52.938
853.00,52.933
854.00,52.918
855.00,52.891
856.00,52.858
857.00,52.857
858.00,52.866
859.00,52.825
860.00,52.822
861.00,52.844
862.00,52.791
863.00,52.777
864.00,52.763
865.00,52.796
866.00,52.758
867.00,52.768
868.00,52.752
869.00,52.735
870.00,52.736
871.00,52.701
872.00,52.719
873.00,52.710
874.00,52.688
875.00,52.673
876.00,52.661
877.00,52.658
878.00,52.670
879.00,52.664
880.00,52.622
881.00,52.623
882.00,52.651
883.00,52.595
884.00,52.581
885.00,52.569
886.00,52.562
887.00,52.541
888.00,52.524
889.00,52.519
890.00,52.530
891.00,52.485
892.00,52.488
893.00,52.444
894.00,52.455
895.00,52.417
896.00,52.397
897.00,52.365
898.00,52.339
899.00,52.325
900.00,52.312
901.00,52.336
902.00,52.313
903.00,52.289
904.00,52.299
905.00,52.268
906.00,52.259
907.00,52.247
908.00,52.213
909.00,52.199
910.00,52.177
911.00,52.148
912.00,52.183
913.00,52.132
914.00,52.110
915.00,52.164
916.00,52.017
917.00,52.078
918.00,52.074
919.00,52.064
920.00,51.972
921.00,51.978
922.00,51.991
923.00,51.974
924.00,51.939
925.00,51.910
926.00,52.087
927.00,51.909
928.00,51.879
929.00,51.884
930.00,51.850
931.00,51.833
932.00,51.808
933.00,51.829
934.00,51.797
935.00,51.804
936.00,51.753
937.00,51.744
938.00,51.740
939.00,51.721
940.00,51.659
941.00,51.705
942.00,51.643
943.00,51.642
944.00,51.614
945.00,51.601
946.00,51.587
947.00,51.581
948.00,51.551
949.00,51.532
950.00,51.511
951.00,51.495
952.00,51.464
953.00,51.425
954.00,51.408
955.00,51.371
956.00,51.368
957.00,51.322
958.00,51.352
959.00,51.295
960.00,51.284
961.00,51.261
962.00,51.276
963.00,51.238
964.00,51.221
965.00,51.213
966.00,51.239
967.00,51.207
968.00,51.187
969.00,51.207
970.00,51.175
971.00,51.198
972.00,51.148
973.00,51.184
974.00,51.230
975.00,51.162
976.00,51.186
977.00,51.108
978.00,51.219
979.00,51.161
980.00,51.200
981.00,51.198
982.00,51.178
983.00,51.155
984.00,51.162
985.00,51.167
986.00,51.106
987.00,51.201
988.00,51.123
989.00,51.129
990.00,51.141
991.00,51.125
992.00,51.140
993.00,51.100
994.00,51.073
995.00,51.070
996.00,51.052
997.00,51.039
998.00,51.024
999.00,51.028
1000.00,50.967
1001.00,50.996
1002.00,51.029
1003.00,50.970
1004.00,50.962
1005.00,50.928
1006.00,50.945
1007.00,50.923
1008.00,50.904
1009.00,50.883
1010.00,50.866
1011.00,50.838
1012.00,50.830
1013.00,50.829
1014.00,50.801
1015.00,50.832
1016.00,50.839
1017.00,50.782
1018.00,50.770
1019.00,50.736
1020.00,50.728
1021.00,50.717
1022.00,50.721
1023.00,50.669
1024.00,50.670
1025.00,50.647
1026.00,50.653
1027.00,50.620
1028.00,50.614
1029.00,50.612
1030.00,50.577
1031.00,50.591
1032.00,50.558
1033.00,50.555
1034.00,50.520
1035.00,50.497
1036.00,50.467
1037.00,50.445
1038.00,50.431
1039.00,50.385
1040.00,50.406
1041.00,50.356
1042.00,50.348
1043.00,50.327
1044.00,50.342
1045.00,50.329
1046.00,50.316
1047.00,50.346
1048.00,50.347
1049.00,50.351
1050.00,50.367
1051.00,50.403
1052.00,50.402
1053.00,50.411
1054.00,50.407
1055.00,50.421
1056.00,50.428
1057.00,50.420
1058.00,50.406
1059.00,50.414
1060.00,50.404
1061.00,50.404
1062.00,50.403
1063.00,50.422
1064.00,50.374
1065.00,50.357
1066.00,50.360
1067.00,50.350
1068.00,50.360
1069.00,50.320
1070.00,50.330
1071.00,50.303
1072.00,50.323
1073.00,50.304
1074.00,50.309
1075.00,50.288
1076.00,50.294
1077.00,50.271
1078.00,50.260
1079.00,50.247
1080.00,50.260
1081.00,50.250
1082.00,50.234
1083.00,50.225
1084.00,50.229
1085.00,50.216
1086.00,50.213
1087.00,50.217
1088.00,50.184
1089.00,50.180
1090.00,50.178
1091.00,50.169
1092.00,50.160
1093.00,50.126
1094.00,50.122
1095.00,50.125
1096.00,50.093
1097.00,50.098
1098.00,50.088
1099.00,50.085
1100.00,50.069
1101.00,50.058
1102.00,50.049
1103.00,50.049
1104.00,50.023
1105.00,50.021
1106.00,50.023
1107.00,50.003
1108.00,50.009
1109.00,50.020
1110.00,49.995
1111.00,49.989
1112.00,49.971
1113.00,49.963
1114.00,49.963
1115.00,49.943
1116.00,49.944
1117.00,49.934
1118.00,49.922
1119.00,49.915
1120.00,49.913
1121.00,49.903
1122.00,49.895
1123.00,49.897
1124.00,49.887
1125.00,49.881
1126.00,49.859
1127.00,49.863
1128.00,49.848
1129.00,49.814
1130.00,49.812
1131.00,49.808
1132.00,49.803
1133.00,49.796
1134.00,49.785
1135.00,49.769
1136.00,49.788
1137.00,49.780
1138.00,49.771
1139.00,49.790
1140.00,49.759
1141.00,49.765
1142.00,49.757
1143.00,49.763
1144.00,49.736
1145.00,49.727
1146.00,49.739
1147.00,49.727
1148.00,49.718
1149.00,49.732
1150.00,49.728
1151.00,49.722
1152.00,49.705
1153.00,49.714
1154.00,49.690
1155.00,49.699
1156.00,49.688
1157.00,49.689
1158.00,49.692
1159.00,49.681
1160.00,49.680
1161.00,49.689
1162.00,49.667
1163.00,49.683
1164.00,49.663
1165.00,49.660
1166.00,49.661
1167.00,49.666
1168.00,49.668
1169.00,49.669
1170.00,49.657
1171.00,49.639
1172.00,49.656
1173.00,49.632
1174.00,49.639
1175.00,49.640
1176.00,49.645
1177.00,49.651
1178.00,49.648
1179.00,49.661
1180.00,49.642
1181.00,49.648
1182.00,49.642
1183.00,49.642
1184.00,49.619
1185.00,49.639
1186.00,49.627
1187.00,49.637
1188.00,49.623
1189.00,49.618
1190.00,49.611
1191.00,49.612
1192.00,49.622
1193.00,49.612
1194.00,49.619
1195.00,49.587
1196.00,49.623
1197.00,49.614
1198.00,49.608
1199.00,49.610
1200.00,49.608
1201.00,49.612
1202.00,49.617
1203.00,49.614
1204.00,49.591
1205.00,49.613
1206.00,49.588
1207.00,49.598
1208.00,49.585
1209.00,49.582
1210.00,49.587
1211.00,49.576
1212.00,49.592
1213.00,49.562
1214.00,49.568
1215.00,49.558
1216.00,49.571
1217.00,49.570
1218.00,49.563
1219.00,49.574
1220.00,49.566
1221.00,49.575
1222.00,49.566
1223.00,49.585
1224.00,49.587
1225.00,49.565
1226.00,49.584
1227.00,49.578
1228.00,49.584
1229.00,49.584
1230.00,49.620
1231.00,49.613
1232.00,49.631
1233.00,49.630
1234.00,49.627
1235.00,49.629
1236.00,49.609
1237.00,49.611
1238.00,49.613
1239.00,49.608
1240.00,49.612
1241.00,49.620
1242.00,49.621
1243.00,49.617
1244.00,49.606
1245.00,49.656
1246.00,49.662
1247.00,49.642
1248.00,49.641
1249.00,49.656
1250.00,49.637
1251.00,49.632
1252.00,49.645
1253.00,49.635
1254.00,49.659
1255.00,49.648
1256.00,49.643
1257.00,49.620
1258.00,49.651
1259.00,49.657
1260.00,49.682
1261.00,49.658
1262.00,49.661
1263.00,49.659
1264.00,49.663
1265.00,49.662
1266.00,49.661
1267.00,49.667
1268.00,49.680
1269.00,49.681
1270.00,49.693
1271.00,49.704
1272.00,49.710
1273.00,49.724
1274.00,49.725
1275.00,49.719
1276.00,49.736
1277.00,49.742
1278.00,49.723
1279.00,49.736
1280.00,49.735
1281.00,49.745
1282.00,49.772
1283.00,49.755
1284.00,49.761
1285.00,49.754
1286.00,49.764
1287.00,49.760
1288.00,49.759
1289.00,49.760
1290.00,49.776
1291.00,49.768
1292.00,49.777
1293.00,49.778
1294.00,49.779
1295.00,49.792
1296.00,49.792
1297.00,49.794
1298.00,49.811
1299.00,49.788
1300.00,49.806
1301.00,49.813
1302.00,49.805
1303.00,49.825
1304.00,49.809
1305.00,49.814
1306.00,49.822
1307.00,49.836
1308.00,49.851
1309.00,49.847
1310.00,49.859
1311.00,49.847
1312.00,49.858
1313.00,49.853
1314.00,49.862
1315.00,49.884
1316.00,49.873
1317.00,49.896
1318.00,49.898
1319.00,49.892
1320.00,49.911
1321.00,50.085
1322.00,50.057
1323.00,50.043
1324.00,50.045
1325.00,50.029
1326.00,50.061
1327.00,50.051
1328.00,50.061
1329.00,50.063
1330.00,50.050
1331.00,50.067
1332.00,50.053
1333.00,50.058
1334.00,50.080
1335.00,50.123
1336.00,50.142
1337.00,50.149
1338.00,50.208
1339.00,50.255
1340.00,50.314
1341.00,50.381
1342.00,50.444
1343.00,50.488
1344.00,50.548
1345.00,50.610
1346.00,50.641
1347.00,50.666
1348.00,50.681
1349.00,50.692
1350.00,50.727
1351.00,50.742
1352.00,50.728
1353.00,50.758
1354.00,50.751
1355.00,50.714
1356.00,50.769
1357.00,50.773
1358.00,50.805
1359.00,50.796
1360.00,50.768
1361.00,50.748
1362.00,50.726
1363.00,50.802
1364.00,50.819
1365.00,50.778
1366.00,50.897
1367.00,50.777
1368.00,50.730
1369.00,50.759
1370.00,50.749
1371.00,50.698
1372.00,50.732
1373.00,50.744
1374.00,50.765
1375.00,50.751
1376.00,50.733
1377.00,50.711
1378.00,50.743
1379.00,50.757
1380.00,50.744
1381.00,50.847
1382.00,50.749
1383.00,50.727
1384.00,50.690
1385.00,50.674
1386.00,50.747
1387.00,50.696
1388.00,50.671
1389.00,50.658
1390.00,50.729
1391.00,50.725
1392.00,50.698
1393.00,50.762
1394.00,50.737
1395.00,50.682
1396.00,50.653
1397.00,50.699
1398.00,50.766
1399.00,50.754
1400.00,50.731
1401.00,50.687
1402.00,50.803
1403.00,50.723
1404.00,50.733
1405.00,50.749
1406.00,50.756
1407.00,50.760
1408.00,50.770
1409.00,50.725
1410.00,50.764
1411.00,50.748
1412.00,50.783
1413.00,50.759
1414.00,50.773
1415.00,50.809
1416.00,50.827
1417.00,50.867
1418.00,50.845
1419.00,50.837
1420.00,50.866
1421.00,50.904
1422.00,50.906
1423.00,50.898
1424.00,50.912
1425.00,50.919
1426.00,50.932
1427.00,50.950
1428.00,50.962
1429.00,50.978
1430.00,50.992
1431.00,50.998
1432.00,51.005
1433.00,51.042
1434.00,51.010
1435.00,51.066
1436.00,51.075
1437.00,51.068
1438.00,51.078
1439.00,51.099
1440.00,51.115
1441.00,51.127
1442.00,51.147
1443.00,51.191
1444.00,51.220
1445.00,51.188
1446.00,51.200
1447.00,51.234
1448.00,51.242
1449.00,51.264
1450.00,51.260
1451.00,51.277
1452.00,51.278
1453.00,51.320
1454.00,51.314
1455.00,51.337
1456.00,51.341
1457.00,51.339
1458.00,51.357
1459.00,51.382
1460.00,51.398
1461.00,51.400
1462.00,51.424
1463.00,51.446
1464.00,51.448
1465.00,51.454
1466.00,51.472
1467.00,51.484
1468.00,51.522
1469.00,51.512
1470.00,51.527
1471.00,51.547
1472.00,51.551
1473.00,51.578
1474.00,51.597
1475.00,51.606
1476.00,51.626
1477.00,51.617
1478.00,51.630
1479.00,51.646
1480.00,51.645
1481.00,51.673
1482.00,51.698
1483.00,51.717
1484.00,51.719
1485.00,51.720
1486.00,51.724
1487.00,51.745
1488.00,51.764
1489.00,51.758
1490.00,51.782
1491.00,51.793
1492.00,51.809
1493.00,51.807
1494.00,51.832
1495.00,51.825
1496.00,51.843
1497.00,51.840
1498.00,51.857
1499.00,51.875
1500.00,51.878
1501.00, 
1502.00, 
1503.00, 
1504.00, 
1505.00, 
1506.00, 
1507.00, 
1508.00, 
1509.00, 
1510.00, 
1511.00, 
1512.00, 
1513.00, 
1514.00, 
1515.00, 
1516.00, 
1517.00, 
1518.00, 
1519.00, 
1520.00, 
1521.00, 
1522.00, 
1523.00, 
1524.00, 
1525.00, 
1526.00, 
1527.00, 
1528.00, 
1529.00, 
1530.00, 
1531.00, 
1532.00, 
1533.00, 
1534.00, 
1535.00, 
1536.00, 
1537.00, 
1538.00, 
1539.00, 
1540.00, 
1541.00, 
1542.00, 
1543.00, 
1544.00, 
1545.00, 
1546.00, 
1547.00, 
1548.00, 
1549.00, 
1550.00, 
1551.00, 
1552.00, 
1553.00, 
1554.00, 
1555.00, 
1556.00, 
1557.00, 
1558.00, 
1559.00, 
1560.00, 
1561.00, 
1562.00, 
1563.00, 
1564.00, 
1565.00, 
1566.00, 
1567.00, 
1568.00, 
1569.00, 
1570.00, 
1571.00, 
1572.00, 
1573.00, 
1574.00, 
1575.00, 
1576.00, 
1577.00, 
1578.00, 
1579.00, 
1580.00, 
1581.00, 
1582.00, 
1583.00, 
1584.00, 
1585.00, 
1586.00, 
1587.00, 
1588.00, 
1589.00, 
1590.00, 
1591.00, 
1592.00, 
1593.00, 
1594.00, 
1595.00, 
1596.00, 
1597.00, 
1598.00, 
1599.00, 
1600.00, 
1601.00, 
1602.00, 
1603.00, 
1604.00, 
1605.00, 
1606.00, 
1607.00, 
1608.00, 
1609.00, 
1610.00, 
1611.00, 
1612.00, 
1613.00, 
1614.00, 
1615.00, 
1616.00, 
1617.00, 
1618.00, 
1619.00, 
1620.00, 
1621.00, 
1622.00, 
1623.00, 
1624.00, 
1625.00, 
1626.00, 
1627.00, 
1628.00, 
1629.00, 
1630.00, 
1631.00, 
1632.00, 
1633.00, 
1634.00, 
1635.00, 
1636.00, 
1637.00, 
1638.00, 
1639.00, 
1640.00, 
1641.00, 
1642.00, 
1643.00, 
1644.00, 
1645.00, 
1646.00, 
1647.00, 
1648.00, 
1649.00, 
1650.00, 
1651.00, 
1652.00, 
1653.00, 
1654.00, 
1655.00, 
1656.00, 
1657.00, 
1658.00, 
1659.00, 
1660.00, 
1661.00, 
1662.00, 
1663.00, 
1664.00, 
1665.00, 
1666.00, 
1667.00, 
1668.00, 
1669.00, 
1670.00, 
1671.00, 
1672.00, 
1673.00, 
1674.00, 
1675.00, 
1676.00, 
1677.00, 
1678.00, 
1679.00, 
1680.00, 
1681.00, 
1682.00, 
1683.00, 
1684.00, 
1685.00, 
1686.00, 
1687.00, 
1688.00, 
1689.00, 
1690.00, 
1691.00, 
1692.00, 
1693.00, 
1694.00, 
1695.00, 
1696.00, 
1697.00, 
1698.00, 
1699.00, 
1700.00, 
1701.00, 
1702.00, 
1703.00, 
1704.00, 
1705.00, 
1706.00, 
1707.00, 
1708.00, 
1709.00, 
1710.00, 
1711.00, 
1712.00, 
1713.00, 
1714.00, 
1715.00, 
1716.00, 
1717.00, 
1718.00, 
1719.00, 
1720.00, 
1721.00, 
1722.00, 
1723.00, 
1724.00, 
1725.00, 
1726.00, 
1727.00, 
1728.00, 
1729.00, 
1730.00, 
1731.00, 
1732.00, 
1733.00, 
1734.00, 
1735.00, 
1736.00, 
1737.00, 
1738.00, 
1739.00, 
1740.00, 
1741.00, 
1742.00, 
1743.00, 
1744.00, 
1745.00, 
1746.00, 
1747.00, 
1748.00, 
1749.00, 
1750.00, 
1751.00, 
1752.00, 
1753.00, 
1754.00, 
1755.00, 
1756.00, 
1757.00, 
1758.00, 
1759.00, 
1760.00, 
1761.00, 
1762.00, 
1763.00, 
1764.00, 
1765.00, 
1766.00, 
1767.00, 
1768.00, 
1769.00, 
1770.00, 
1771.00, 
1772.00, 
1773.00, 
1774.00, 
1775.00, 
1776.00, 
1777.00, 
1778.00, 
1779.00, 
1780.00, 
1781.00, 
1782.00, 
1783.00, 
1784.00, 
1785.00, 
1786.00, 
1787.00, 
1788.00, 
1789.00, 
1790.00, 
1791.00, 
1792.00, 
1793.00, 
1794.00, 
1795.00, 
1796.00, 
1797.00, 
1798.00, 
1799.00, 
1800.00, 
1801.00, 
1802.00, 
1803.00, 
1804.00, 
1805.00, 
1806.00, 
1807.00, 
1808.00, 
1809.00, 
1810.00, 
1811.00, 
1812.00, 
1813.00, 
1814.00, 
1815.00, 
1816.00, 
1817.00, 
1818.00, 
1819.00, 
1820.00, 
1821.00, 
1822.00, 
1823.00, 
1824.00, 
1825.00, 
1826.00, 
1827.00, 
1828.00, 
1829.00, 
1830.00, 
1831.00, 
1832.00, 
1833.00, 
1834.00, 
1835.00, 
1836.00, 
1837.00, 
1838.00, 
1839.00, 
1840.00, 
1841.00, 
1842.00, 
1843.00, 
1844.00, 
1845.00, 
1846.00, 
1847.00, 
1848.00, 
1849.00, 
1850.00, 
1851.00, 
1852.00, 
1853.00, 
1854.00, 
1855.00, 
1856.00, 
1857.00, 
1858.00, 
1859.00, 
1860.00, 
1861.00, 
1862.00, 
1863.00, 
1864.00, 
1865.00, 
1866.00, 
1867.00, 
1868.00, 
1869.00, 
1870.00, 
1871.00, 
1872.00, 
1873.00, 
1874.00, 
1875.00, 
1876.00, 
1877.00, 
1878.00, 
1879.00, 
1880.00, 
1881.00, 
1882.00, 
1883.00, 
1884.00, 
1885.00, 
1886.00, 
1887.00, 
1888.00, 
1889.00, 
1890.00, 
1891.00, 
1892.00, 
1893.00, 
1894.00, 
1895.00, 
1896.00, 
1897.00, 
1898.00, 
1899.00, 
1900.00, 
1901.00, 
1902.00, 
1903.00, 
1904.00, 
1905.00, 
1906.00, 
1907.00, 
1908.00, 
1909.00, 
1910.00, 
1911.00, 
1912.00, 
1913.00, 
1914.00, 
1915.00, 
1916.00, 
1917.00, 
1918.00, 
1919.00, 
1920.00, 
1921.00, 
1922.00, 
1923.00, 
1924.00, 
1925.00, 
1926.00, 
1927.00, 
1928.00, 
1929.00, 
1930.00, 
1931.00, 
1932.00, 
1933.00, 
1934.00, 
1935.00, 
1936.00, 
1937.00, 
1938.00, 
1939.00, 
1940.00, 
1941.00, 
1942.00, 
1943.00, 
1944.00, 
1945.00, 
1946.00, 
1947.00, 
1948.00, 
1949.00, 
1950.00, 
1951.00, 
1952.00, 
1953.00, 
1954.00, 
1955.00, 
1956.00, 
1957.00, 
1958.00, 
1959.00, 
1960.00, 
1961.00, 
1962.00, 
1963.00, 
1964.00, 
1965.00, 
1966.00, 
1967.00, 
1968.00, 
1969.00, 
1970.00, 
1971.00, 
1972.00, 
1973.00, 
1974.00, 
1975.00, 
1976.00, 
1977.00, 
1978.00, 
1979.00, 
1980.00, 
1981.00, 
1982.00, 
1983.00, 
1984.00, 
1985.00, 
1986.00, 
1987.00, 
1988.00, 
1989.00, 
1990.00, 
1991.00, 
1992.00, 
1993.00, 
1994.00, 
1995.00, 
1996.00, 
1997.00, 
1998.00, 
1999.00, 
2000.00, 
2001.00, 
2002.00, 
2003.00, 
2004.00, 
2005.00, 
2006.00, 
2007.00, 
2008.00, 
2009.00, 
2010.00, 
2011.00, 
2012.00, 
2013.00, 
2014.00, 
2015.00, 
2016.00, 
2017.00, 
2018.00, 
2019.00, 
2020.00, 
2021.00, 
2022.00, 
2023.00, 
2024.00, 
2025.00, 
2026.00, 
2027.00, 
2028.00, 
2029.00, 
2030.00, 
2031.00, 
2032.00, 
2033.00, 
2034.00, 
2035.00, 
2036.00, 
2037.00, 
2038.00, 
2039.00, 
2040.00, 
2041.00, 
2042.00, 
2043.00, 
2044.00, 
2045.00, 
2046.00, 
2047.00, 
2048.00, 
2049.00, 
2050.00, 
2051.00, 
2052.00, 
2053.00, 
2054.00, 
2055.00, 
2056.00, 
2057.00, 
2058.00, 
2059.00, 
2060.00, 
2061.00, 
2062.00, 
2063.00, 
2064.00, 
2065.00, 
2066.00, 
2067.00, 
2068.00, 
2069.00, 
2070.00, 
2071.00, 
2072.00, 
2073.00, 
2074.00, 
2075.00, 
2076.00, 
2077.00, 
2078.00, 
2079.00, 
2080.00, 
2081.00, 
2082.00, 
2083.00, 
2084.00, 
2085.00, 
2086.00, 
2087.00, 
2088.00, 
2089.00, 
2090.00, 
2091.00, 
2092.00, 
2093.00, 
2094.00, 
2095.00, 
2096.00, 
2097.00, 
2098.00, 
2099.00, 
2100.00, 
2101.00, 
2102.00, 
2103.00, 
2104.00, 
2105.00, 
2106.00, 
2107.00, 
2108.00, 
2109.00, 
2110.00, 
2111.00, 
2112.00, 
2113.00, 
2114.00, 
2115.00, 
2116.00, 
2117.00, 
2118.00, 
2119.00, 
2120.00, 
2121.00, 
2122.00, 
2123.00, 
2124.00, 
2125.00, 
2126.00, 
2127.00, 
2128.00, 
2129.00, 
2130.00, 
2131.00, 
2132.00, 
2133.00, 
2134.00, 
2135.00, 
2136.00, 
2137.00, 
2138.00, 
2139.00, 
2140.00, 
2141.00, 
2142.00, 
2143.00, 
2144.00, 
2145.00, 
2146.00, 
2147.00, 
2148.00, 
2149.00, 
2150.00, 
2151.00, 
2152.00, 
2153.00, 
2154.00, 
2155.00, 
2156.00, 
2157.00, 
2158.00, 
2159.00, 
2160.00, 
2161.00, 
2162.00, 
2163.00, 
2164.00, 
2165.00, 
2166.00, 
2167.00, 
2168.00, 
2169.00, 
2170.00, 
2171.00, 
2172.00, 
2173.00, 
2174.00, 
2175.00, 
2176.00, 
2177.00, 
2178.00, 
2179.00, 
2180.00, 
2181.00, 
2182.00, 
2183.00, 
2184.00, 
2185.00, 
2186.00, 
2187.00, 
2188.00, 
2189.00, 
2190.00, 
2191.00, 
2192.00, 
2193.00, 
2194.00, 
2195.00, 
2196.00, 
2197.00, 
2198.00, 
2199.00, 
2200.00, 
2201.00, 
2202.00, 
2203.00, 
2204.00, 
2205.00, 
2206.00, 
2207.00, 
2208.00, 
2209.00, 
2210.00, 
2211.00, 
2212.00, 
2213.00, 
2214.00, 
2215.00, 
2216.00, 
2217.00, 
2218.00, 
2219.00, 
2220.00, 
2221.00, 
2222.00, 
2223.00, 
2224.00, 
2225.00, 
2226.00, 
2227.00, 
2228.00, 
2229.00, 
2230.00, 
2231.00, 
2232.00, 
2233.00, 
2234.00, 
2235.00, 
2236.00, 
2237.00, 
2238.00, 
2239.00, 
2240.00, 
2241.00, 
2242.00, 
2243.00, 
2244.00, 
2245.00, 
2246.00, 
2247.00, 
2248.00, 
2249.00, 
2250.00, 
2251.00, 
2252.00, 
2253.00, 
2254.00, 
2255.00, 
2256.00, 
2257.00, 
2258.00, 
2259.00, 
2260.00, 
2261.00, 
2262.00, 
2263.00, 
2264.00, 
2265.00, 
2266.00, 
2267.00, 
2268.00, 
2269.00, 
2270.00, 
2271.00, 
2272.00, 
2273.00, 
2274.00, 
2275.00, 
2276.00, 
2277.00, 
2278.00, 
2279.00, 
2280.00, 
2281.00, 
2282.00, 
2283.00, 
2284.00, 
2285.00, 
2286.00, 
2287.00, 
2288.00, 
2289.00, 
2290.00, 
2291.00, 
2292.00, 
2293.00, 
2294.00, 
2295.00, 
2296.00, 
2297.00, 
2298.00, 
2299.00, 
2300.00, 
2301.00, 
2302.00, 
2303.00, 
2304.00, 
2305.00, 
2306.00, 
2307.00, 
2308.00, 
2309.00, 
2310.00, 
2311.00, 
2312.00, 
2313.00, 
2314.00, 
2315.00, 
2316.00, 
2317.00, 
2318.00, 
2319.00, 
2320.00, 
2321.00, 
2322.00, 
2323.00, 
2324.00, 
2325.00, 
2326.00, 
2327.00, 
2328.00, 
2329.00, 
2330.00, 
2331.00, 
2332.00, 
2333.00, 
2334.00, 
2335.00, 
2336.00, 
2337.00, 
2338.00, 
2339.00, 
2340.00, 
2341.00, 
2342.00, 
2343.00, 
2344.00, 
2345.00, 
2346.00, 
2347.00, 
2348.00, 
2349.00, 
2350.00, 
2351.00, 
2352.00, 
2353.00, 
2354.00, 
2355.00, 
2356.00, 
2357.00, 
2358.00, 
2359.00, 
2360.00, 
2361.00, 
2362.00, 
2363.00, 
2364.00, 
2365.00, 
2366.00, 
2367.00, 
2368.00, 
2369.00, 
2370.00, 
2371.00, 
2372.00, 
2373.00, 
2374.00, 
2375.00, 
2376.00, 
2377.00, 
2378.00, 
2379.00, 
2380.00, 
2381.00, 
2382.00, 
2383.00, 
2384.00, 
2385.00, 
2386.00, 
2387.00, 
2388.00, 
2389.00, 
2390.00, 
2391.00, 
2392.00, 
2393.00, 
2394.00, 
2395.00, 
2396.00, 
2397.00, 
2398.00, 
2399.00, 
2400.00, 
2401.00, 
2402.00, 
2403.00, 
2404.00, 
2405.00, 
2406.00, 
2407.00, 
2408.00, 
2409.00, 
2410.00, 
2411.00, 
2412.00, 
2413.00, 
2414.00, 
2415.00, 
2416.00, 
2417.00, 
2418.00, 
2419.00, 
2420.00, 
2421.00, 
2422.00, 
2423.00, 
2424.00, 
2425.00, 
2426.00, 
2427.00, 
2428.00, 
2429.00, 
2430.00, 
2431.00, 
2432.00, 
2433.00, 
2434.00, 
2435.00, 
2436.00, 
2437.00, 
2438.00, 
2439.00, 
2440.00, 
2441.00, 
2442.00, 
2443.00, 
2444.00, 
2445.00, 
2446.00, 
2447.00, 
2448.00, 
2449.00, 
2450.00, 
2451.00, 
2452.00, 
2453.00, 
2454.00, 
2455.00, 
2456.00, 
2457.00, 
2458.00, 
2459.00, 
2460.00, 
2461.00, 
2462.00, 
2463.00, 
2464.00, 
2465.00, 
2466.00, 
2467.00, 
2468.00, 
2469.00, 
2470.00, 
2471.00, 
2472.00, 
2473.00, 
2474.00, 
2475.00, 
2476.00, 
2477.00, 
2478.00, 
2479.00, 
2480.00, 
2481.00, 
2482.00, 
2483.00, 
2484.00, 
2485.00, 
2486.00, 
2487.00, 
2488.00, 
2489.00, 
2490.00, 
2491.00, 
2492.00, 
2493.00, 
2494.00, 
2495.00, 
2496.00, 
2497.00, 
2498.00, 
2499.00, 
2500.00, 
2501.00, 
2502.00, 
2503.00, 
2504.00, 
2505.00, 
2506.00, 
2507.00, 
2508.00, 
2509.00, 
2510.00, 
2511.00, 
2512.00, 
2513.00, 
2514.00, 
2515.00, 
2516.00, 
2517.00, 
2518.00, 
2519.00, 
2520.00, 
2521.00, 
2522.00, 
2523.00, 
2524.00, 
2525.00, 
2526.00, 
2527.00, 
2528.00, 
2529.00, 
2530.00, 
2531.00, 
2532.00, 
2533.00, 
2534.00, 
2535.00, 
2536.00, 
2537.00, 
2538.00, 
2539.00, 
2540.00, 
2541.00, 
2542.00, 
2543.00, 
2544.00, 
2545.00, 
2546.00, 
2547.00, 
2548.00, 
2549.00, 
2550.00, 
2551.00, 
2552.00, 
2553.00, 
2554.00, 
2555.00, 
2556.00, 
2557.00, 
2558.00, 
2559.00, 
2560.00, 
2561.00, 
2562.00, 
2563.00, 
2564.00, 
2565.00, 
2566.00, 
2567.00, 
2568.00, 
2569.00, 
2570.00, 
2571.00, 
2572.00, 
2573.00, 
2574.00, 
2575.00, 
2576.00, 
2577.00, 
2578.00, 
2579.00, 
2580.00, 
2581.00, 
2582.00, 
2583.00, 
2584.00, 
2585.00, 
2586.00, 
2587.00, 
2588.00, 
2589.00, 
2590.00, 
2591.00, 
2592.00, 
2593.00, 
2594.00, 
2595.00, 
2596.00, 
2597.00, 
2598.00, 
2599.00, 
2600.00, 
