"1aP2 - RawData"
"Wavelength nm.","T%"
200.00,0.000
201.00,0.001
202.00,-0.001
203.00,0.002
204.00,0.001
205.00,0.002
206.00,0.001
207.00,0.002
208.00,0.004
209.00,0.002
210.00,0.002
211.00,0.001
212.00,0.002
213.00,-0.000
214.00,0.000
215.00,0.000
216.00,-0.001
217.00,0.001
218.00,0.000
219.00,0.000
220.00,-0.001
221.00,0.001
222.00,0.001
223.00,0.001
224.00,0.000
225.00,0.000
226.00,0.002
227.00,-0.001
228.00,-0.000
229.00,0.001
230.00,0.003
231.00,0.001
232.00,-0.001
233.00,-0.002
234.00,0.002
235.00,-0.001
236.00,0.002
237.00,0.002
238.00,-0.001
239.00,0.002
240.00,-0.001
241.00,0.001
242.00,-0.000
243.00,-0.000
244.00,0.000
245.00,-0.001
246.00,-0.000
247.00,0.000
248.00,-0.000
249.00,0.001
250.00,0.001
251.00,-0.001
252.00,0.001
253.00,0.001
254.00,0.000
255.00,0.001
256.00,0.001
257.00,-0.001
258.00,-0.001
259.00,0.001
260.00,-0.001
261.00,-0.000
262.00,0.002
263.00,0.002
264.00,-0.000
265.00,0.001
266.00,0.002
267.00,-0.000
268.00,-0.000
269.00,0.000
270.00,-0.000
271.00,-0.000
272.00,0.000
273.00,-0.000
274.00,0.000
275.00,0.001
276.00,-0.002
277.00,-0.000
278.00,-0.000
279.00,0.000
280.00,0.001
281.00,-0.002
282.00,0.001
283.00,-0.000
284.00,-0.000
285.00,0.000
286.00,-0.000
287.00,-0.002
288.00,0.001
289.00,-0.000
290.00,0.000
291.00,-0.001
292.00,0.002
293.00,-0.000
294.00,0.000
295.00,0.001
296.00,0.001
297.00,-0.001
298.00,0.001
299.00,0.002
300.00,0.004
301.00,0.005
302.00,0.006
303.00,0.013
304.00,0.018
305.00,0.030
306.00,0.043
307.00,0.067
308.00,0.099
309.00,0.150
310.00,0.215
311.00,0.285
312.00,0.390
313.00,0.528
314.00,0.684
315.00,0.886
316.00,1.123
317.00,1.417
318.00,1.731
319.00,2.101
320.00,2.528
321.00,3.024
322.00,3.538
323.00,4.143
324.00,4.770
325.00,5.411
326.00,6.032
327.00,6.752
328.00,7.486
329.00,8.250
330.00,9.042
331.00,9.774
332.00,10.555
333.00,11.402
334.00,12.156
335.00,12.924
336.00,13.704
337.00,14.488
338.00,15.224
339.00,15.925
340.00,16.563
341.00,17.288
342.00,17.892
343.00,18.532
344.00,19.186
345.00,19.674
346.00,20.197
347.00,20.627
348.00,21.128
349.00,21.483
350.00,21.918
351.00,22.315
352.00,22.577
353.00,22.897
354.00,23.222
355.00,23.524
356.00,23.759
357.00,23.922
358.00,24.237
359.00,24.451
360.00,24.660
361.00,24.789
362.00,24.959
363.00,25.096
364.00,25.146
365.00,25.273
366.00,25.353
367.00,25.445
368.00,25.476
369.00,25.503
370.00,25.566
371.00,25.547
372.00,25.535
373.00,25.473
374.00,25.542
375.00,25.516
376.00,25.453
377.00,25.426
378.00,25.290
379.00,25.197
380.00,25.221
381.00,25.174
382.00,25.163
383.00,25.159
384.00,25.180
385.00,25.245
386.00,25.252
387.00,25.328
388.00,25.394
389.00,25.309
390.00,25.384
391.00,25.387
392.00,25.402
393.00,25.426
394.00,25.436
395.00,25.480
396.00,25.384
397.00,25.475
398.00,25.413
399.00,25.419
400.00,25.435
401.00,25.379
402.00,25.442
403.00,25.331
404.00,25.434
405.00,25.371
406.00,25.374
407.00,25.311
408.00,25.340
409.00,25.268
410.00,25.215
411.00,25.230
412.00,25.182
413.00,25.226
414.00,25.165
415.00,25.191
416.00,25.290
417.00,25.221
418.00,25.274
419.00,25.367
420.00,25.400
421.00,25.425
422.00,25.426
423.00,25.488
424.00,25.572
425.00,25.530
426.00,25.547
427.00,25.605
428.00,25.661
429.00,25.687
430.00,25.791
431.00,25.855
432.00,25.855
433.00,25.916
434.00,25.964
435.00,26.074
436.00,26.110
437.00,26.175
438.00,26.234
439.00,26.338
440.00,26.397
441.00,26.478
442.00,26.563
443.00,26.615
444.00,26.706
445.00,26.792
446.00,26.901
447.00,26.961
448.00,27.095
449.00,27.225
450.00,27.319
451.00,27.373
452.00,27.460
453.00,27.605
454.00,27.698
455.00,27.798
456.00,27.920
457.00,28.043
458.00,28.117
459.00,28.270
460.00,28.361
461.00,28.550
462.00,28.584
463.00,28.805
464.00,28.913
465.00,29.059
466.00,29.204
467.00,29.337
468.00,29.419
469.00,29.535
470.00,29.595
471.00,29.708
472.00,29.836
473.00,29.907
474.00,30.062
475.00,30.161
476.00,30.272
477.00,30.386
478.00,30.512
479.00,30.721
480.00,30.826
481.00,30.955
482.00,31.140
483.00,31.242
484.00,31.418
485.00,31.554
486.00,31.710
487.00,31.896
488.00,31.962
489.00,32.177
490.00,32.316
491.00,32.432
492.00,32.694
493.00,32.831
494.00,32.806
495.00,32.907
496.00,33.054
497.00,33.130
498.00,33.247
499.00,33.428
500.00,33.606
501.00,33.582
502.00,33.737
503.00,33.924
504.00,33.910
505.00,34.127
506.00,34.290
507.00,34.304
508.00,34.413
509.00,34.592
510.00,34.709
511.00,34.790
512.00,35.007
513.00,35.076
514.00,35.085
515.00,35.402
516.00,35.469
517.00,35.544
518.00,35.704
519.00,35.718
520.00,35.799
521.00,35.929
522.00,35.984
523.00,36.003
524.00,36.113
525.00,36.265
526.00,36.364
527.00,36.424
528.00,36.488
529.00,36.690
530.00,36.828
531.00,36.890
532.00,36.956
533.00,37.053
534.00,37.153
535.00,37.210
536.00,37.281
537.00,37.361
538.00,37.365
539.00,37.455
540.00,37.522
541.00,37.571
542.00,37.589
543.00,37.663
544.00,37.769
545.00,37.795
546.00,37.827
547.00,37.978
548.00,38.075
549.00,38.101
550.00,38.153
551.00,38.264
552.00,38.305
553.00,38.298
554.00,38.406
555.00,38.438
556.00,38.482
557.00,38.496
558.00,38.674
559.00,38.692
560.00,38.686
561.00,38.749
562.00,38.946
563.00,38.826
564.00,38.964
565.00,39.024
566.00,39.020
567.00,39.055
568.00,39.077
569.00,39.120
570.00,39.169
571.00,39.230
572.00,39.240
573.00,39.189
574.00,39.272
575.00,39.277
576.00,39.253
577.00,39.343
578.00,39.411
579.00,39.465
580.00,39.534
581.00,39.649
582.00,39.714
583.00,39.721
584.00,39.824
585.00,39.898
586.00,39.910
587.00,39.991
588.00,40.012
589.00,39.945
590.00,39.991
591.00,40.004
592.00,39.932
593.00,40.054
594.00,40.253
595.00,40.276
596.00,40.314
597.00,40.351
598.00,40.425
599.00,40.379
600.00,40.417
601.00,40.492
602.00,40.452
603.00,40.543
604.00,40.574
605.00,40.623
606.00,40.630
607.00,40.684
608.00,40.892
609.00,40.949
610.00,40.803
611.00,40.744
612.00,40.757
613.00,40.876
614.00,40.937
615.00,40.995
616.00,41.032
617.00,41.005
618.00,40.881
619.00,41.276
620.00,41.566
621.00,41.348
622.00,41.387
623.00,41.440
624.00,41.539
625.00,41.566
626.00,41.635
627.00,41.680
628.00,41.698
629.00,41.685
630.00,41.748
631.00,41.784
632.00,41.884
633.00,42.023
634.00,42.164
635.00,42.153
636.00,42.216
637.00,42.241
638.00,42.336
639.00,42.416
640.00,42.459
641.00,42.502
642.00,42.578
643.00,42.678
644.00,42.706
645.00,42.796
646.00,42.925
647.00,42.993
648.00,42.987
649.00,43.059
650.00,43.057
651.00,43.183
652.00,43.330
653.00,43.325
654.00,43.323
655.00,43.509
656.00,43.808
657.00,43.708
658.00,43.819
659.00,43.773
660.00,43.893
661.00,43.949
662.00,43.964
663.00,44.127
664.00,44.380
665.00,44.604
666.00,44.285
667.00,44.467
668.00,44.480
669.00,44.820
670.00,45.039
671.00,45.013
672.00,44.899
673.00,45.078
674.00,45.133
675.00,45.114
676.00,45.463
677.00,45.540
678.00,45.020
679.00,45.528
680.00,45.834
681.00,45.811
682.00,45.778
683.00,45.804
684.00,46.006
685.00,46.096
686.00,45.943
687.00,46.079
688.00,46.261
689.00,46.226
690.00,46.447
691.00,46.668
692.00,46.451
693.00,46.493
694.00,46.609
695.00,46.791
696.00,46.835
697.00,46.733
698.00,46.860
699.00,47.170
700.00,47.104
701.00,47.163
702.00,47.263
703.00,47.458
704.00,47.394
705.00,47.367
706.00,47.625
707.00,47.598
708.00,47.395
709.00,47.908
710.00,48.317
711.00,47.731
712.00,47.917
713.00,48.089
714.00,48.075
715.00,48.125
716.00,48.072
717.00,48.248
718.00,48.325
719.00,48.431
720.00,48.432
721.00,52.913
722.00,52.951
723.00,52.984
724.00,52.954
725.00,53.035
726.00,53.013
727.00,52.986
728.00,53.057
729.00,53.117
730.00,53.123
731.00,53.162
732.00,53.107
733.00,53.313
734.00,53.231
735.00,53.236
736.00,53.243
737.00,53.297
738.00,53.411
739.00,53.376
740.00,53.502
741.00,53.419
742.00,53.459
743.00,53.486
744.00,53.436
745.00,53.510
746.00,53.472
747.00,53.424
748.00,53.487
749.00,53.475
750.00,53.465
751.00,53.459
752.00,53.461
753.00,53.391
754.00,53.560
755.00,53.506
756.00,53.553
757.00,53.546
758.00,53.557
759.00,53.591
760.00,53.521
761.00,53.543
762.00,53.552
763.00,53.638
764.00,53.515
765.00,53.656
766.00,53.640
767.00,53.658
768.00,53.676
769.00,53.648
770.00,53.719
771.00,53.655
772.00,53.662
773.00,53.724
774.00,53.728
775.00,53.705
776.00,53.658
777.00,53.810
778.00,53.669
779.00,53.725
780.00,53.607
781.00,53.737
782.00,53.661
783.00,53.651
784.00,53.585
785.00,53.625
786.00,53.740
787.00,53.648
788.00,53.667
789.00,53.693
790.00,53.644
791.00,53.728
792.00,53.607
793.00,53.622
794.00,53.678
795.00,53.605
796.00,53.570
797.00,53.550
798.00,53.562
799.00,53.532
800.00,53.543
801.00,53.522
802.00,53.547
803.00,53.533
804.00,53.496
805.00,53.518
806.00,53.462
807.00,53.497
808.00,53.447
809.00,53.445
810.00,53.501
811.00,53.426
812.00,53.505
813.00,53.320
814.00,53.360
815.00,53.369
816.00,53.400
817.00,53.357
818.00,53.274
819.00,53.230
820.00,53.272
821.00,53.321
822.00,53.337
823.00,53.301
824.00,53.336
825.00,53.158
826.00,53.282
827.00,53.288
828.00,53.290
829.00,53.200
830.00,53.248
831.00,55.722
832.00,55.720
833.00,55.654
834.00,55.647
835.00,55.602
836.00,55.658
837.00,55.601
838.00,55.622
839.00,55.604
840.00,55.533
841.00,55.582
842.00,55.524
843.00,55.510
844.00,55.511
845.00,55.474
846.00,55.466
847.00,55.456
848.00,55.468
849.00,55.376
850.00,55.354
851.00,55.309
852.00,55.358
853.00,55.274
854.00,55.294
855.00,55.236
856.00,55.246
857.00,55.192
858.00,55.165
859.00,55.167
860.00,55.133
861.00,55.162
862.00,55.103
863.00,55.135
864.00,55.093
865.00,55.122
866.00,55.087
867.00,55.109
868.00,55.061
869.00,55.053
870.00,55.095
871.00,55.070
872.00,55.059
873.00,55.027
874.00,55.074
875.00,54.990
876.00,55.017
877.00,54.988
878.00,54.993
879.00,54.975
880.00,54.982
881.00,54.928
882.00,54.998
883.00,54.954
884.00,54.895
885.00,54.882
886.00,54.881
887.00,54.867
888.00,54.823
889.00,54.831
890.00,54.823
891.00,54.827
892.00,54.731
893.00,54.913
894.00,54.780
895.00,54.738
896.00,54.699
897.00,54.663
898.00,54.664
899.00,54.652
900.00,54.632
901.00,54.632
902.00,54.662
903.00,54.612
904.00,54.580
905.00,54.590
906.00,54.575
907.00,54.558
908.00,54.497
909.00,54.497
910.00,54.468
911.00,54.456
912.00,54.451
913.00,54.422
914.00,54.437
915.00,54.368
916.00,54.355
917.00,54.384
918.00,54.347
919.00,54.274
920.00,54.269
921.00,54.297
922.00,54.299
923.00,54.242
924.00,54.214
925.00,54.234
926.00,54.203
927.00,54.170
928.00,54.146
929.00,54.145
930.00,54.094
931.00,54.077
932.00,54.114
933.00,54.121
934.00,54.086
935.00,54.012
936.00,54.147
937.00,54.028
938.00,54.012
939.00,54.007
940.00,53.963
941.00,53.958
942.00,53.941
943.00,53.918
944.00,53.886
945.00,53.890
946.00,53.888
947.00,53.870
948.00,53.812
949.00,53.818
950.00,53.821
951.00,53.754
952.00,53.776
953.00,53.745
954.00,53.709
955.00,53.673
956.00,53.694
957.00,53.648
958.00,53.658
959.00,53.569
960.00,53.588
961.00,53.603
962.00,53.567
963.00,53.554
964.00,53.537
965.00,53.525
966.00,53.563
967.00,53.525
968.00,53.495
969.00,53.535
970.00,53.496
971.00,53.515
972.00,53.463
973.00,53.510
974.00,53.541
975.00,53.519
976.00,53.505
977.00,53.503
978.00,53.552
979.00,53.529
980.00,53.547
981.00,53.595
982.00,53.496
983.00,53.542
984.00,53.497
985.00,53.534
986.00,53.498
987.00,53.503
988.00,53.468
989.00,53.459
990.00,53.458
991.00,53.448
992.00,53.440
993.00,53.430
994.00,53.415
995.00,53.366
996.00,53.377
997.00,53.382
998.00,53.339
999.00,53.346
1000.00,53.292
1001.00,53.297
1002.00,53.313
1003.00,53.289
1004.00,53.273
1005.00,53.249
1006.00,53.259
1007.00,53.239
1008.00,53.276
1009.00,53.241
1010.00,53.245
1011.00,53.234
1012.00,53.198
1013.00,53.217
1014.00,53.162
1015.00,53.178
1016.00,53.145
1017.00,53.136
1018.00,53.133
1019.00,53.109
1020.00,53.102
1021.00,53.085
1022.00,53.090
1023.00,53.029
1024.00,53.067
1025.00,53.023
1026.00,53.010
1027.00,53.029
1028.00,52.971
1029.00,52.980
1030.00,52.933
1031.00,52.939
1032.00,52.910
1033.00,52.902
1034.00,52.879
1035.00,52.845
1036.00,52.813
1037.00,52.812
1038.00,52.809
1039.00,52.785
1040.00,52.792
1041.00,52.779
1042.00,52.768
1043.00,52.720
1044.00,52.789
1045.00,52.736
1046.00,52.716
1047.00,52.729
1048.00,52.748
1049.00,52.760
1050.00,52.745
1051.00,52.812
1052.00,52.814
1053.00,52.784
1054.00,52.795
1055.00,52.863
1056.00,52.835
1057.00,52.855
1058.00,52.829
1059.00,52.836
1060.00,52.853
1061.00,52.807
1062.00,52.823
1063.00,52.829
1064.00,52.805
1065.00,52.808
1066.00,52.808
1067.00,52.788
1068.00,52.830
1069.00,52.770
1070.00,52.769
1071.00,52.765
1072.00,52.769
1073.00,52.752
1074.00,52.753
1075.00,52.720
1076.00,52.734
1077.00,52.720
1078.00,52.694
1079.00,52.715
1080.00,52.702
1081.00,52.707
1082.00,52.689
1083.00,52.677
1084.00,52.696
1085.00,52.702
1086.00,52.673
1087.00,52.691
1088.00,52.706
1089.00,52.669
1090.00,52.674
1091.00,52.657
1092.00,52.662
1093.00,52.645
1094.00,52.601
1095.00,52.613
1096.00,52.597
1097.00,52.586
1098.00,52.588
1099.00,52.591
1100.00,52.561
1101.00,52.562
1102.00,52.538
1103.00,52.561
1104.00,52.540
1105.00,52.513
1106.00,52.513
1107.00,52.507
1108.00,52.478
1109.00,52.489
1110.00,52.472
1111.00,52.460
1112.00,52.457
1113.00,52.446
1114.00,52.437
1115.00,52.444
1116.00,52.433
1117.00,52.427
1118.00,52.441
1119.00,52.414
1120.00,52.398
1121.00,52.414
1122.00,52.382
1123.00,52.394
1124.00,52.384
1125.00,52.380
1126.00,52.373
1127.00,52.370
1128.00,52.375
1129.00,52.340
1130.00,52.314
1131.00,52.318
1132.00,52.327
1133.00,52.339
1134.00,52.364
1135.00,52.310
1136.00,52.314
1137.00,52.324
1138.00,52.304
1139.00,52.336
1140.00,52.334
1141.00,52.320
1142.00,52.308
1143.00,52.345
1144.00,52.302
1145.00,52.309
1146.00,52.292
1147.00,52.279
1148.00,52.298
1149.00,52.323
1150.00,52.290
1151.00,52.315
1152.00,52.277
1153.00,52.286
1154.00,52.268
1155.00,52.271
1156.00,52.276
1157.00,52.267
1158.00,52.264
1159.00,52.265
1160.00,52.255
1161.00,52.293
1162.00,52.294
1163.00,52.264
1164.00,52.274
1165.00,52.274
1166.00,52.272
1167.00,52.264
1168.00,52.276
1169.00,52.254
1170.00,52.252
1171.00,52.224
1172.00,52.236
1173.00,52.234
1174.00,52.229
1175.00,52.233
1176.00,52.237
1177.00,52.205
1178.00,52.225
1179.00,52.234
1180.00,52.249
1181.00,52.260
1182.00,52.236
1183.00,52.245
1184.00,52.251
1185.00,52.246
1186.00,52.246
1187.00,52.259
1188.00,52.262
1189.00,52.264
1190.00,52.235
1191.00,52.233
1192.00,52.262
1193.00,52.230
1194.00,52.259
1195.00,52.254
1196.00,52.241
1197.00,52.250
1198.00,52.240
1199.00,52.226
1200.00,52.253
1201.00,52.257
1202.00,52.231
1203.00,52.240
1204.00,52.222
1205.00,52.252
1206.00,52.245
1207.00,52.239
1208.00,52.238
1209.00,52.265
1210.00,52.259
1211.00,52.241
1212.00,52.252
1213.00,52.227
1214.00,52.258
1215.00,52.213
1216.00,52.237
1217.00,52.249
1218.00,52.220
1219.00,52.239
1220.00,52.224
1221.00,52.261
1222.00,52.245
1223.00,52.254
1224.00,52.262
1225.00,52.239
1226.00,52.233
1227.00,52.237
1228.00,52.271
1229.00,52.251
1230.00,52.284
1231.00,52.272
1232.00,52.295
1233.00,52.309
1234.00,52.290
1235.00,52.293
1236.00,52.294
1237.00,52.292
1238.00,52.305
1239.00,52.325
1240.00,52.283
1241.00,52.312
1242.00,52.316
1243.00,52.317
1244.00,52.307
1245.00,52.339
1246.00,52.353
1247.00,52.328
1248.00,52.319
1249.00,52.332
1250.00,52.345
1251.00,52.338
1252.00,52.352
1253.00,52.362
1254.00,52.357
1255.00,52.373
1256.00,52.368
1257.00,52.329
1258.00,52.362
1259.00,52.337
1260.00,52.361
1261.00,52.382
1262.00,52.366
1263.00,52.360
1264.00,52.383
1265.00,52.387
1266.00,52.390
1267.00,52.395
1268.00,52.411
1269.00,52.430
1270.00,52.415
1271.00,52.432
1272.00,52.448
1273.00,52.450
1274.00,52.441
1275.00,52.462
1276.00,52.442
1277.00,52.454
1278.00,52.462
1279.00,52.478
1280.00,52.467
1281.00,52.460
1282.00,52.486
1283.00,52.492
1284.00,52.473
1285.00,52.478
1286.00,52.496
1287.00,52.483
1288.00,52.506
1289.00,52.483
1290.00,52.542
1291.00,52.519
1292.00,52.502
1293.00,52.533
1294.00,52.574
1295.00,52.557
1296.00,52.561
1297.00,52.573
1298.00,52.596
1299.00,52.564
1300.00,52.580
1301.00,52.587
1302.00,52.628
1303.00,52.599
1304.00,52.596
1305.00,52.621
1306.00,52.607
1307.00,52.631
1308.00,52.631
1309.00,52.643
1310.00,52.634
1311.00,52.607
1312.00,52.615
1313.00,52.632
1314.00,52.633
1315.00,52.663
1316.00,52.666
1317.00,52.678
1318.00,52.693
1319.00,52.694
1320.00,52.681
1321.00,52.873
1322.00,52.857
1323.00,52.836
1324.00,52.834
1325.00,52.811
1326.00,52.825
1327.00,52.820
1328.00,52.807
1329.00,52.804
1330.00,52.835
1331.00,52.807
1332.00,52.838
1333.00,52.822
1334.00,52.838
1335.00,52.871
1336.00,52.881
1337.00,52.946
1338.00,52.991
1339.00,53.013
1340.00,53.105
1341.00,53.162
1342.00,53.215
1343.00,53.265
1344.00,53.324
1345.00,53.363
1346.00,53.428
1347.00,53.426
1348.00,53.469
1349.00,53.486
1350.00,53.481
1351.00,53.508
1352.00,53.513
1353.00,53.485
1354.00,53.500
1355.00,53.453
1356.00,53.547
1357.00,53.500
1358.00,53.490
1359.00,53.520
1360.00,53.672
1361.00,53.953
1362.00,53.472
1363.00,53.695
1364.00,53.611
1365.00,53.532
1366.00,53.630
1367.00,53.567
1368.00,53.487
1369.00,53.579
1370.00,53.581
1371.00,53.514
1372.00,53.525
1373.00,53.583
1374.00,53.557
1375.00,53.536
1376.00,53.574
1377.00,53.516
1378.00,53.640
1379.00,53.567
1380.00,53.581
1381.00,53.591
1382.00,53.585
1383.00,53.581
1384.00,53.566
1385.00,53.582
1386.00,53.543
1387.00,53.521
1388.00,53.518
1389.00,53.573
1390.00,53.568
1391.00,53.465
1392.00,53.502
1393.00,53.568
1394.00,53.547
1395.00,53.560
1396.00,53.491
1397.00,53.535
1398.00,53.523
1399.00,53.547
1400.00,53.342
1401.00,53.493
1402.00,53.606
1403.00,53.570
1404.00,53.565
1405.00,53.556
1406.00,53.596
1407.00,53.584
1408.00,53.599
1409.00,53.549
1410.00,53.658
1411.00,53.313
1412.00,53.682
1413.00,53.604
1414.00,53.551
1415.00,53.617
1416.00,53.643
1417.00,53.688
1418.00,53.636
1419.00,53.657
1420.00,53.690
1421.00,53.733
1422.00,53.716
1423.00,53.746
1424.00,53.729
1425.00,53.768
1426.00,53.749
1427.00,53.762
1428.00,53.770
1429.00,53.822
1430.00,53.769
1431.00,53.794
1432.00,53.805
1433.00,53.805
1434.00,53.821
1435.00,53.893
1436.00,53.891
1437.00,53.868
1438.00,53.882
1439.00,53.928
1440.00,53.950
1441.00,53.934
1442.00,53.951
1443.00,53.983
1444.00,54.078
1445.00,54.006
1446.00,54.030
1447.00,54.059
1448.00,54.110
1449.00,54.082
1450.00,54.073
1451.00,54.097
1452.00,54.116
1453.00,54.114
1454.00,54.141
1455.00,54.147
1456.00,54.183
1457.00,54.168
1458.00,54.191
1459.00,54.217
1460.00,54.220
1461.00,54.224
1462.00,54.259
1463.00,54.240
1464.00,54.261
1465.00,54.280
1466.00,54.286
1467.00,54.323
1468.00,54.375
1469.00,54.336
1470.00,54.381
1471.00,54.383
1472.00,54.392
1473.00,54.407
1474.00,54.436
1475.00,54.446
1476.00,54.459
1477.00,54.426
1478.00,54.472
1479.00,54.481
1480.00,54.467
1481.00,54.478
1482.00,54.491
1483.00,54.504
1484.00,54.535
1485.00,54.515
1486.00,54.550
1487.00,54.554
1488.00,54.572
1489.00,54.586
1490.00,54.609
1491.00,54.593
1492.00,54.620
1493.00,54.583
1494.00,54.631
1495.00,54.623
1496.00,54.657
1497.00,54.636
1498.00,54.665
1499.00,54.678
1500.00,54.705
1501.00, 
1502.00, 
1503.00, 
1504.00, 
1505.00, 
1506.00, 
1507.00, 
1508.00, 
1509.00, 
1510.00, 
1511.00, 
1512.00, 
1513.00, 
1514.00, 
1515.00, 
1516.00, 
1517.00, 
1518.00, 
1519.00, 
1520.00, 
1521.00, 
1522.00, 
1523.00, 
1524.00, 
1525.00, 
1526.00, 
1527.00, 
1528.00, 
1529.00, 
1530.00, 
1531.00, 
1532.00, 
1533.00, 
1534.00, 
1535.00, 
1536.00, 
1537.00, 
1538.00, 
1539.00, 
1540.00, 
1541.00, 
1542.00, 
1543.00, 
1544.00, 
1545.00, 
1546.00, 
1547.00, 
1548.00, 
1549.00, 
1550.00, 
1551.00, 
1552.00, 
1553.00, 
1554.00, 
1555.00, 
1556.00, 
1557.00, 
1558.00, 
1559.00, 
1560.00, 
1561.00, 
1562.00, 
1563.00, 
1564.00, 
1565.00, 
1566.00, 
1567.00, 
1568.00, 
1569.00, 
1570.00, 
1571.00, 
1572.00, 
1573.00, 
1574.00, 
1575.00, 
1576.00, 
1577.00, 
1578.00, 
1579.00, 
1580.00, 
1581.00, 
1582.00, 
1583.00, 
1584.00, 
1585.00, 
1586.00, 
1587.00, 
1588.00, 
1589.00, 
1590.00, 
1591.00, 
1592.00, 
1593.00, 
1594.00, 
1595.00, 
1596.00, 
1597.00, 
1598.00, 
1599.00, 
1600.00, 
1601.00, 
1602.00, 
1603.00, 
1604.00, 
1605.00, 
1606.00, 
1607.00, 
1608.00, 
1609.00, 
1610.00, 
1611.00, 
1612.00, 
1613.00, 
1614.00, 
1615.00, 
1616.00, 
1617.00, 
1618.00, 
1619.00, 
1620.00, 
1621.00, 
1622.00, 
1623.00, 
1624.00, 
1625.00, 
1626.00, 
1627.00, 
1628.00, 
1629.00, 
1630.00, 
1631.00, 
1632.00, 
1633.00, 
1634.00, 
1635.00, 
1636.00, 
1637.00, 
1638.00, 
1639.00, 
1640.00, 
1641.00, 
1642.00, 
1643.00, 
1644.00, 
1645.00, 
1646.00, 
1647.00, 
1648.00, 
1649.00, 
1650.00, 
1651.00, 
1652.00, 
1653.00, 
1654.00, 
1655.00, 
1656.00, 
1657.00, 
1658.00, 
1659.00, 
1660.00, 
1661.00, 
1662.00, 
1663.00, 
1664.00, 
1665.00, 
1666.00, 
1667.00, 
1668.00, 
1669.00, 
1670.00, 
1671.00, 
1672.00, 
1673.00, 
1674.00, 
1675.00, 
1676.00, 
1677.00, 
1678.00, 
1679.00, 
1680.00, 
1681.00, 
1682.00, 
1683.00, 
1684.00, 
1685.00, 
1686.00, 
1687.00, 
1688.00, 
1689.00, 
1690.00, 
1691.00, 
1692.00, 
1693.00, 
1694.00, 
1695.00, 
1696.00, 
1697.00, 
1698.00, 
1699.00, 
1700.00, 
1701.00, 
1702.00, 
1703.00, 
1704.00, 
1705.00, 
1706.00, 
1707.00, 
1708.00, 
1709.00, 
1710.00, 
1711.00, 
1712.00, 
1713.00, 
1714.00, 
1715.00, 
1716.00, 
1717.00, 
1718.00, 
1719.00, 
1720.00, 
1721.00, 
1722.00, 
1723.00, 
1724.00, 
1725.00, 
1726.00, 
1727.00, 
1728.00, 
1729.00, 
1730.00, 
1731.00, 
1732.00, 
1733.00, 
1734.00, 
1735.00, 
1736.00, 
1737.00, 
1738.00, 
1739.00, 
1740.00, 
1741.00, 
1742.00, 
1743.00, 
1744.00, 
1745.00, 
1746.00, 
1747.00, 
1748.00, 
1749.00, 
1750.00, 
1751.00, 
1752.00, 
1753.00, 
1754.00, 
1755.00, 
1756.00, 
1757.00, 
1758.00, 
1759.00, 
1760.00, 
1761.00, 
1762.00, 
1763.00, 
1764.00, 
1765.00, 
1766.00, 
1767.00, 
1768.00, 
1769.00, 
1770.00, 
1771.00, 
1772.00, 
1773.00, 
1774.00, 
1775.00, 
1776.00, 
1777.00, 
1778.00, 
1779.00, 
1780.00, 
1781.00, 
1782.00, 
1783.00, 
1784.00, 
1785.00, 
1786.00, 
1787.00, 
1788.00, 
1789.00, 
1790.00, 
1791.00, 
1792.00, 
1793.00, 
1794.00, 
1795.00, 
1796.00, 
1797.00, 
1798.00, 
1799.00, 
1800.00, 
1801.00, 
1802.00, 
1803.00, 
1804.00, 
1805.00, 
1806.00, 
1807.00, 
1808.00, 
1809.00, 
1810.00, 
1811.00, 
1812.00, 
1813.00, 
1814.00, 
1815.00, 
1816.00, 
1817.00, 
1818.00, 
1819.00, 
1820.00, 
1821.00, 
1822.00, 
1823.00, 
1824.00, 
1825.00, 
1826.00, 
1827.00, 
1828.00, 
1829.00, 
1830.00, 
1831.00, 
1832.00, 
1833.00, 
1834.00, 
1835.00, 
1836.00, 
1837.00, 
1838.00, 
1839.00, 
1840.00, 
1841.00, 
1842.00, 
1843.00, 
1844.00, 
1845.00, 
1846.00, 
1847.00, 
1848.00, 
1849.00, 
1850.00, 
1851.00, 
1852.00, 
1853.00, 
1854.00, 
1855.00, 
1856.00, 
1857.00, 
1858.00, 
1859.00, 
1860.00, 
1861.00, 
1862.00, 
1863.00, 
1864.00, 
1865.00, 
1866.00, 
1867.00, 
1868.00, 
1869.00, 
1870.00, 
1871.00, 
1872.00, 
1873.00, 
1874.00, 
1875.00, 
1876.00, 
1877.00, 
1878.00, 
1879.00, 
1880.00, 
1881.00, 
1882.00, 
1883.00, 
1884.00, 
1885.00, 
1886.00, 
1887.00, 
1888.00, 
1889.00, 
1890.00, 
1891.00, 
1892.00, 
1893.00, 
1894.00, 
1895.00, 
1896.00, 
1897.00, 
1898.00, 
1899.00, 
1900.00, 
1901.00, 
1902.00, 
1903.00, 
1904.00, 
1905.00, 
1906.00, 
1907.00, 
1908.00, 
1909.00, 
1910.00, 
1911.00, 
1912.00, 
1913.00, 
1914.00, 
1915.00, 
1916.00, 
1917.00, 
1918.00, 
1919.00, 
1920.00, 
1921.00, 
1922.00, 
1923.00, 
1924.00, 
1925.00, 
1926.00, 
1927.00, 
1928.00, 
1929.00, 
1930.00, 
1931.00, 
1932.00, 
1933.00, 
1934.00, 
1935.00, 
1936.00, 
1937.00, 
1938.00, 
1939.00, 
1940.00, 
1941.00, 
1942.00, 
1943.00, 
1944.00, 
1945.00, 
1946.00, 
1947.00, 
1948.00, 
1949.00, 
1950.00, 
1951.00, 
1952.00, 
1953.00, 
1954.00, 
1955.00, 
1956.00, 
1957.00, 
1958.00, 
1959.00, 
1960.00, 
1961.00, 
1962.00, 
1963.00, 
1964.00, 
1965.00, 
1966.00, 
1967.00, 
1968.00, 
1969.00, 
1970.00, 
1971.00, 
1972.00, 
1973.00, 
1974.00, 
1975.00, 
1976.00, 
1977.00, 
1978.00, 
1979.00, 
1980.00, 
1981.00, 
1982.00, 
1983.00, 
1984.00, 
1985.00, 
1986.00, 
1987.00, 
1988.00, 
1989.00, 
1990.00, 
1991.00, 
1992.00, 
1993.00, 
1994.00, 
1995.00, 
1996.00, 
1997.00, 
1998.00, 
1999.00, 
2000.00, 
2001.00, 
2002.00, 
2003.00, 
2004.00, 
2005.00, 
2006.00, 
2007.00, 
2008.00, 
2009.00, 
2010.00, 
2011.00, 
2012.00, 
2013.00, 
2014.00, 
2015.00, 
2016.00, 
2017.00, 
2018.00, 
2019.00, 
2020.00, 
2021.00, 
2022.00, 
2023.00, 
2024.00, 
2025.00, 
2026.00, 
2027.00, 
2028.00, 
2029.00, 
2030.00, 
2031.00, 
2032.00, 
2033.00, 
2034.00, 
2035.00, 
2036.00, 
2037.00, 
2038.00, 
2039.00, 
2040.00, 
2041.00, 
2042.00, 
2043.00, 
2044.00, 
2045.00, 
2046.00, 
2047.00, 
2048.00, 
2049.00, 
2050.00, 
2051.00, 
2052.00, 
2053.00, 
2054.00, 
2055.00, 
2056.00, 
2057.00, 
2058.00, 
2059.00, 
2060.00, 
2061.00, 
2062.00, 
2063.00, 
2064.00, 
2065.00, 
2066.00, 
2067.00, 
2068.00, 
2069.00, 
2070.00, 
2071.00, 
2072.00, 
2073.00, 
2074.00, 
2075.00, 
2076.00, 
2077.00, 
2078.00, 
2079.00, 
2080.00, 
2081.00, 
2082.00, 
2083.00, 
2084.00, 
2085.00, 
2086.00, 
2087.00, 
2088.00, 
2089.00, 
2090.00, 
2091.00, 
2092.00, 
2093.00, 
2094.00, 
2095.00, 
2096.00, 
2097.00, 
2098.00, 
2099.00, 
2100.00, 
2101.00, 
2102.00, 
2103.00, 
2104.00, 
2105.00, 
2106.00, 
2107.00, 
2108.00, 
2109.00, 
2110.00, 
2111.00, 
2112.00, 
2113.00, 
2114.00, 
2115.00, 
2116.00, 
2117.00, 
2118.00, 
2119.00, 
2120.00, 
2121.00, 
2122.00, 
2123.00, 
2124.00, 
2125.00, 
2126.00, 
2127.00, 
2128.00, 
2129.00, 
2130.00, 
2131.00, 
2132.00, 
2133.00, 
2134.00, 
2135.00, 
2136.00, 
2137.00, 
2138.00, 
2139.00, 
2140.00, 
2141.00, 
2142.00, 
2143.00, 
2144.00, 
2145.00, 
2146.00, 
2147.00, 
2148.00, 
2149.00, 
2150.00, 
2151.00, 
2152.00, 
2153.00, 
2154.00, 
2155.00, 
2156.00, 
2157.00, 
2158.00, 
2159.00, 
2160.00, 
2161.00, 
2162.00, 
2163.00, 
2164.00, 
2165.00, 
2166.00, 
2167.00, 
2168.00, 
2169.00, 
2170.00, 
2171.00, 
2172.00, 
2173.00, 
2174.00, 
2175.00, 
2176.00, 
2177.00, 
2178.00, 
2179.00, 
2180.00, 
2181.00, 
2182.00, 
2183.00, 
2184.00, 
2185.00, 
2186.00, 
2187.00, 
2188.00, 
2189.00, 
2190.00, 
2191.00, 
2192.00, 
2193.00, 
2194.00, 
2195.00, 
2196.00, 
2197.00, 
2198.00, 
2199.00, 
2200.00, 
2201.00, 
2202.00, 
2203.00, 
2204.00, 
2205.00, 
2206.00, 
2207.00, 
2208.00, 
2209.00, 
2210.00, 
2211.00, 
2212.00, 
2213.00, 
2214.00, 
2215.00, 
2216.00, 
2217.00, 
2218.00, 
2219.00, 
2220.00, 
2221.00, 
2222.00, 
2223.00, 
2224.00, 
2225.00, 
2226.00, 
2227.00, 
2228.00, 
2229.00, 
2230.00, 
2231.00, 
2232.00, 
2233.00, 
2234.00, 
2235.00, 
2236.00, 
2237.00, 
2238.00, 
2239.00, 
2240.00, 
2241.00, 
2242.00, 
2243.00, 
2244.00, 
2245.00, 
2246.00, 
2247.00, 
2248.00, 
2249.00, 
2250.00, 
2251.00, 
2252.00, 
2253.00, 
2254.00, 
2255.00, 
2256.00, 
2257.00, 
2258.00, 
2259.00, 
2260.00, 
2261.00, 
2262.00, 
2263.00, 
2264.00, 
2265.00, 
2266.00, 
2267.00, 
2268.00, 
2269.00, 
2270.00, 
2271.00, 
2272.00, 
2273.00, 
2274.00, 
2275.00, 
2276.00, 
2277.00, 
2278.00, 
2279.00, 
2280.00, 
2281.00, 
2282.00, 
2283.00, 
2284.00, 
2285.00, 
2286.00, 
2287.00, 
2288.00, 
2289.00, 
2290.00, 
2291.00, 
2292.00, 
2293.00, 
2294.00, 
2295.00, 
2296.00, 
2297.00, 
2298.00, 
2299.00, 
2300.00, 
2301.00, 
2302.00, 
2303.00, 
2304.00, 
2305.00, 
2306.00, 
2307.00, 
2308.00, 
2309.00, 
2310.00, 
2311.00, 
2312.00, 
2313.00, 
2314.00, 
2315.00, 
2316.00, 
2317.00, 
2318.00, 
2319.00, 
2320.00, 
2321.00, 
2322.00, 
2323.00, 
2324.00, 
2325.00, 
2326.00, 
2327.00, 
2328.00, 
2329.00, 
2330.00, 
2331.00, 
2332.00, 
2333.00, 
2334.00, 
2335.00, 
2336.00, 
2337.00, 
2338.00, 
2339.00, 
2340.00, 
2341.00, 
2342.00, 
2343.00, 
2344.00, 
2345.00, 
2346.00, 
2347.00, 
2348.00, 
2349.00, 
2350.00, 
2351.00, 
2352.00, 
2353.00, 
2354.00, 
2355.00, 
2356.00, 
2357.00, 
2358.00, 
2359.00, 
2360.00, 
2361.00, 
2362.00, 
2363.00, 
2364.00, 
2365.00, 
2366.00, 
2367.00, 
2368.00, 
2369.00, 
2370.00, 
2371.00, 
2372.00, 
2373.00, 
2374.00, 
2375.00, 
2376.00, 
2377.00, 
2378.00, 
2379.00, 
2380.00, 
2381.00, 
2382.00, 
2383.00, 
2384.00, 
2385.00, 
2386.00, 
2387.00, 
2388.00, 
2389.00, 
2390.00, 
2391.00, 
2392.00, 
2393.00, 
2394.00, 
2395.00, 
2396.00, 
2397.00, 
2398.00, 
2399.00, 
2400.00, 
2401.00, 
2402.00, 
2403.00, 
2404.00, 
2405.00, 
2406.00, 
2407.00, 
2408.00, 
2409.00, 
2410.00, 
2411.00, 
2412.00, 
2413.00, 
2414.00, 
2415.00, 
2416.00, 
2417.00, 
2418.00, 
2419.00, 
2420.00, 
2421.00, 
2422.00, 
2423.00, 
2424.00, 
2425.00, 
2426.00, 
2427.00, 
2428.00, 
2429.00, 
2430.00, 
2431.00, 
2432.00, 
2433.00, 
2434.00, 
2435.00, 
2436.00, 
2437.00, 
2438.00, 
2439.00, 
2440.00, 
2441.00, 
2442.00, 
2443.00, 
2444.00, 
2445.00, 
2446.00, 
2447.00, 
2448.00, 
2449.00, 
2450.00, 
2451.00, 
2452.00, 
2453.00, 
2454.00, 
2455.00, 
2456.00, 
2457.00, 
2458.00, 
2459.00, 
2460.00, 
2461.00, 
2462.00, 
2463.00, 
2464.00, 
2465.00, 
2466.00, 
2467.00, 
2468.00, 
2469.00, 
2470.00, 
2471.00, 
2472.00, 
2473.00, 
2474.00, 
2475.00, 
2476.00, 
2477.00, 
2478.00, 
2479.00, 
2480.00, 
2481.00, 
2482.00, 
2483.00, 
2484.00, 
2485.00, 
2486.00, 
2487.00, 
2488.00, 
2489.00, 
2490.00, 
2491.00, 
2492.00, 
2493.00, 
2494.00, 
2495.00, 
2496.00, 
2497.00, 
2498.00, 
2499.00, 
2500.00, 
2501.00, 
2502.00, 
2503.00, 
2504.00, 
2505.00, 
2506.00, 
2507.00, 
2508.00, 
2509.00, 
2510.00, 
2511.00, 
2512.00, 
2513.00, 
2514.00, 
2515.00, 
2516.00, 
2517.00, 
2518.00, 
2519.00, 
2520.00, 
2521.00, 
2522.00, 
2523.00, 
2524.00, 
2525.00, 
2526.00, 
2527.00, 
2528.00, 
2529.00, 
2530.00, 
2531.00, 
2532.00, 
2533.00, 
2534.00, 
2535.00, 
2536.00, 
2537.00, 
2538.00, 
2539.00, 
2540.00, 
2541.00, 
2542.00, 
2543.00, 
2544.00, 
2545.00, 
2546.00, 
2547.00, 
2548.00, 
2549.00, 
2550.00, 
2551.00, 
2552.00, 
2553.00, 
2554.00, 
2555.00, 
2556.00, 
2557.00, 
2558.00, 
2559.00, 
2560.00, 
2561.00, 
2562.00, 
2563.00, 
2564.00, 
2565.00, 
2566.00, 
2567.00, 
2568.00, 
2569.00, 
2570.00, 
2571.00, 
2572.00, 
2573.00, 
2574.00, 
2575.00, 
2576.00, 
2577.00, 
2578.00, 
2579.00, 
2580.00, 
2581.00, 
2582.00, 
2583.00, 
2584.00, 
2585.00, 
2586.00, 
2587.00, 
2588.00, 
2589.00, 
2590.00, 
2591.00, 
2592.00, 
2593.00, 
2594.00, 
2595.00, 
2596.00, 
2597.00, 
2598.00, 
2599.00, 
2600.00, 
