"1cP3 - RawData"
"Wavelength nm.","T%"
200.00,0.004
201.00,0.002
202.00,0.003
203.00,0.002
204.00,0.001
205.00,0.000
206.00,0.001
207.00,0.001
208.00,0.004
209.00,0.003
210.00,-0.001
211.00,-0.001
212.00,0.001
213.00,-0.000
214.00,-0.002
215.00,-0.001
216.00,0.000
217.00,0.000
218.00,-0.001
219.00,0.003
220.00,0.002
221.00,0.004
222.00,-0.001
223.00,-0.001
224.00,0.000
225.00,0.002
226.00,-0.001
227.00,0.000
228.00,0.000
229.00,0.002
230.00,-0.003
231.00,0.002
232.00,-0.000
233.00,0.001
234.00,0.001
235.00,-0.001
236.00,0.001
237.00,0.000
238.00,0.000
239.00,0.000
240.00,0.001
241.00,-0.000
242.00,0.001
243.00,0.002
244.00,0.001
245.00,-0.000
246.00,0.002
247.00,0.001
248.00,0.002
249.00,0.001
250.00,0.002
251.00,0.001
252.00,0.002
253.00,0.001
254.00,-0.002
255.00,-0.001
256.00,-0.001
257.00,-0.001
258.00,-0.000
259.00,0.000
260.00,0.000
261.00,0.001
262.00,0.000
263.00,-0.000
264.00,-0.001
265.00,-0.000
266.00,0.001
267.00,-0.001
268.00,0.000
269.00,0.002
270.00,0.001
271.00,-0.001
272.00,-0.000
273.00,0.000
274.00,0.001
275.00,0.000
276.00,-0.000
277.00,-0.001
278.00,-0.000
279.00,0.001
280.00,-0.001
281.00,-0.000
282.00,0.002
283.00,-0.000
284.00,-0.001
285.00,0.001
286.00,-0.000
287.00,0.001
288.00,0.000
289.00,0.001
290.00,-0.001
291.00,-0.000
292.00,0.000
293.00,-0.001
294.00,-0.001
295.00,0.000
296.00,0.001
297.00,-0.001
298.00,-0.000
299.00,-0.000
300.00,0.001
301.00,0.001
302.00,0.001
303.00,0.001
304.00,0.000
305.00,0.002
306.00,0.000
307.00,0.002
308.00,0.007
309.00,0.011
310.00,0.018
311.00,0.027
312.00,0.041
313.00,0.070
314.00,0.103
315.00,0.148
316.00,0.210
317.00,0.295
318.00,0.408
319.00,0.541
320.00,0.739
321.00,0.958
322.00,1.212
323.00,1.542
324.00,1.910
325.00,2.296
326.00,2.729
327.00,3.250
328.00,3.789
329.00,4.362
330.00,5.006
331.00,5.682
332.00,6.384
333.00,7.175
334.00,7.882
335.00,8.681
336.00,9.499
337.00,10.311
338.00,11.103
339.00,11.839
340.00,12.623
341.00,13.410
342.00,14.152
343.00,14.864
344.00,15.634
345.00,16.308
346.00,16.874
347.00,17.466
348.00,18.055
349.00,18.595
350.00,19.107
351.00,19.639
352.00,20.030
353.00,20.492
354.00,20.906
355.00,21.336
356.00,21.654
357.00,21.961
358.00,22.320
359.00,22.680
360.00,22.914
361.00,23.121
362.00,23.353
363.00,23.575
364.00,23.729
365.00,23.890
366.00,24.005
367.00,24.103
368.00,24.229
369.00,24.310
370.00,24.371
371.00,24.401
372.00,24.420
373.00,24.354
374.00,24.421
375.00,24.416
376.00,24.312
377.00,24.224
378.00,24.133
379.00,24.039
380.00,24.038
381.00,24.005
382.00,24.050
383.00,24.083
384.00,24.139
385.00,24.235
386.00,24.274
387.00,24.425
388.00,24.508
389.00,24.515
390.00,24.621
391.00,24.657
392.00,24.715
393.00,24.730
394.00,24.771
395.00,24.854
396.00,24.825
397.00,24.827
398.00,24.849
399.00,24.839
400.00,24.849
401.00,24.880
402.00,24.882
403.00,24.883
404.00,24.877
405.00,24.841
406.00,24.842
407.00,24.772
408.00,24.797
409.00,24.711
410.00,24.667
411.00,24.654
412.00,24.598
413.00,24.652
414.00,24.551
415.00,24.590
416.00,24.642
417.00,24.635
418.00,24.668
419.00,24.709
420.00,24.773
421.00,24.787
422.00,24.765
423.00,24.825
424.00,24.922
425.00,24.875
426.00,24.876
427.00,24.924
428.00,24.954
429.00,24.984
430.00,25.036
431.00,25.093
432.00,25.106
433.00,25.122
434.00,25.199
435.00,25.282
436.00,25.325
437.00,25.397
438.00,25.452
439.00,25.525
440.00,25.546
441.00,25.588
442.00,25.650
443.00,25.696
444.00,25.838
445.00,25.925
446.00,26.020
447.00,26.086
448.00,26.201
449.00,26.286
450.00,26.405
451.00,26.453
452.00,26.556
453.00,26.697
454.00,26.775
455.00,26.852
456.00,26.995
457.00,27.088
458.00,27.161
459.00,27.326
460.00,27.458
461.00,27.570
462.00,27.649
463.00,27.788
464.00,27.886
465.00,28.011
466.00,28.132
467.00,28.278
468.00,28.337
469.00,28.417
470.00,28.535
471.00,28.590
472.00,28.712
473.00,28.754
474.00,28.914
475.00,28.998
476.00,29.092
477.00,29.242
478.00,29.354
479.00,29.517
480.00,29.657
481.00,29.737
482.00,29.905
483.00,30.041
484.00,30.189
485.00,30.326
486.00,30.459
487.00,30.661
488.00,30.742
489.00,30.938
490.00,31.052
491.00,31.167
492.00,31.425
493.00,31.547
494.00,31.513
495.00,31.628
496.00,31.789
497.00,31.850
498.00,32.043
499.00,32.149
500.00,32.279
501.00,32.388
502.00,32.547
503.00,32.667
504.00,32.682
505.00,32.808
506.00,32.962
507.00,33.010
508.00,33.156
509.00,33.328
510.00,33.472
511.00,33.519
512.00,33.712
513.00,33.822
514.00,33.885
515.00,34.117
516.00,34.178
517.00,34.243
518.00,34.418
519.00,34.448
520.00,34.501
521.00,34.647
522.00,34.699
523.00,34.726
524.00,34.869
525.00,35.001
526.00,35.134
527.00,35.190
528.00,35.233
529.00,35.439
530.00,35.584
531.00,35.631
532.00,35.731
533.00,35.813
534.00,35.955
535.00,36.021
536.00,36.109
537.00,36.222
538.00,36.248
539.00,36.352
540.00,36.475
541.00,36.474
542.00,36.497
543.00,36.566
544.00,36.674
545.00,36.756
546.00,36.832
547.00,36.964
548.00,37.052
549.00,37.090
550.00,37.186
551.00,37.323
552.00,37.332
553.00,37.385
554.00,37.477
555.00,37.498
556.00,37.581
557.00,37.667
558.00,37.774
559.00,37.838
560.00,37.872
561.00,37.959
562.00,37.990
563.00,38.047
564.00,38.097
565.00,38.170
566.00,38.181
567.00,38.152
568.00,38.199
569.00,38.303
570.00,38.264
571.00,38.425
572.00,38.427
573.00,38.304
574.00,38.402
575.00,38.532
576.00,38.438
577.00,38.562
578.00,38.709
579.00,38.758
580.00,38.811
581.00,38.989
582.00,39.009
583.00,39.014
584.00,39.144
585.00,39.170
586.00,39.236
587.00,39.346
588.00,39.267
589.00,39.156
590.00,39.330
591.00,39.482
592.00,39.414
593.00,39.432
594.00,39.563
595.00,39.611
596.00,39.668
597.00,39.741
598.00,39.769
599.00,39.815
600.00,39.893
601.00,39.946
602.00,39.896
603.00,39.948
604.00,40.011
605.00,40.124
606.00,40.152
607.00,40.175
608.00,40.312
609.00,40.380
610.00,40.192
611.00,40.281
612.00,40.233
613.00,40.427
614.00,40.448
615.00,40.382
616.00,40.473
617.00,40.641
618.00,40.692
619.00,40.674
620.00,40.750
621.00,40.839
622.00,40.915
623.00,40.937
624.00,41.015
625.00,41.086
626.00,41.139
627.00,41.133
628.00,41.164
629.00,41.171
630.00,41.274
631.00,41.314
632.00,41.428
633.00,41.478
634.00,41.603
635.00,41.662
636.00,41.642
637.00,41.724
638.00,41.809
639.00,41.868
640.00,41.980
641.00,41.995
642.00,42.039
643.00,42.076
644.00,42.164
645.00,42.214
646.00,42.375
647.00,42.398
648.00,42.429
649.00,42.446
650.00,42.485
651.00,42.642
652.00,42.781
653.00,42.731
654.00,42.756
655.00,42.919
656.00,43.243
657.00,42.998
658.00,43.115
659.00,43.157
660.00,43.198
661.00,43.199
662.00,43.321
663.00,43.464
664.00,43.742
665.00,43.876
666.00,43.845
667.00,43.865
668.00,43.936
669.00,44.113
670.00,44.302
671.00,44.218
672.00,44.345
673.00,44.325
674.00,44.386
675.00,44.491
676.00,44.624
677.00,44.864
678.00,44.586
679.00,44.712
680.00,44.870
681.00,44.956
682.00,44.953
683.00,45.011
684.00,45.111
685.00,45.221
686.00,45.262
687.00,45.356
688.00,45.382
689.00,45.328
690.00,45.594
691.00,45.895
692.00,45.550
693.00,45.556
694.00,45.765
695.00,45.932
696.00,45.896
697.00,45.912
698.00,45.914
699.00,46.197
700.00,46.241
701.00,46.256
702.00,46.325
703.00,46.558
704.00,46.576
705.00,46.469
706.00,46.496
707.00,46.557
708.00,46.374
709.00,46.900
710.00,47.238
711.00,46.697
712.00,46.764
713.00,46.835
714.00,46.701
715.00,47.022
716.00,47.112
717.00,47.099
718.00,47.172
719.00,47.207
720.00,47.332
721.00,51.929
722.00,51.896
723.00,51.932
724.00,51.929
725.00,51.929
726.00,51.956
727.00,51.944
728.00,51.940
729.00,51.976
730.00,52.034
731.00,52.020
732.00,51.953
733.00,52.091
734.00,52.132
735.00,52.032
736.00,52.115
737.00,52.104
738.00,52.191
739.00,52.201
740.00,52.204
741.00,52.206
742.00,52.259
743.00,52.228
744.00,52.159
745.00,52.222
746.00,52.220
747.00,52.219
748.00,52.187
749.00,52.195
750.00,52.165
751.00,52.138
752.00,52.184
753.00,52.115
754.00,52.171
755.00,52.105
756.00,52.234
757.00,52.166
758.00,52.179
759.00,52.186
760.00,52.181
761.00,52.194
762.00,52.160
763.00,52.234
764.00,52.202
765.00,52.219
766.00,52.243
767.00,52.235
768.00,52.260
769.00,52.182
770.00,52.284
771.00,52.226
772.00,52.241
773.00,52.234
774.00,52.283
775.00,52.186
776.00,52.178
777.00,52.249
778.00,52.209
779.00,52.249
780.00,52.226
781.00,52.295
782.00,52.225
783.00,52.159
784.00,52.192
785.00,52.170
786.00,52.200
787.00,52.170
788.00,52.220
789.00,52.185
790.00,52.078
791.00,52.114
792.00,52.066
793.00,52.063
794.00,52.081
795.00,52.077
796.00,51.983
797.00,51.997
798.00,51.976
799.00,51.925
800.00,51.867
801.00,51.899
802.00,51.877
803.00,51.867
804.00,51.783
805.00,51.840
806.00,51.800
807.00,51.812
808.00,51.782
809.00,51.748
810.00,51.772
811.00,51.725
812.00,51.784
813.00,51.680
814.00,51.677
815.00,51.726
816.00,51.706
817.00,51.656
818.00,51.599
819.00,51.513
820.00,51.520
821.00,51.505
822.00,51.593
823.00,51.499
824.00,51.507
825.00,51.445
826.00,51.517
827.00,51.530
828.00,51.527
829.00,51.468
830.00,51.382
831.00,53.809
832.00,53.837
833.00,53.795
834.00,53.780
835.00,53.719
836.00,53.760
837.00,53.694
838.00,53.702
839.00,53.686
840.00,53.603
841.00,53.626
842.00,53.580
843.00,53.595
844.00,53.585
845.00,53.519
846.00,53.539
847.00,53.499
848.00,53.573
849.00,53.387
850.00,53.414
851.00,53.342
852.00,53.346
853.00,53.315
854.00,53.275
855.00,53.244
856.00,53.243
857.00,53.186
858.00,53.134
859.00,53.130
860.00,53.132
861.00,53.133
862.00,53.045
863.00,53.065
864.00,53.202
865.00,53.080
866.00,53.015
867.00,53.026
868.00,53.038
869.00,52.995
870.00,53.006
871.00,52.980
872.00,52.979
873.00,52.945
874.00,52.991
875.00,52.917
876.00,52.955
877.00,52.903
878.00,52.905
879.00,52.857
880.00,52.860
881.00,52.807
882.00,52.861
883.00,52.849
884.00,52.791
885.00,52.766
886.00,52.774
887.00,52.731
888.00,52.703
889.00,52.694
890.00,52.667
891.00,52.650
892.00,52.619
893.00,52.609
894.00,52.600
895.00,52.549
896.00,52.519
897.00,52.512
898.00,52.490
899.00,52.462
900.00,52.470
901.00,52.449
902.00,52.450
903.00,52.417
904.00,52.415
905.00,52.400
906.00,52.339
907.00,52.409
908.00,52.291
909.00,52.271
910.00,52.250
911.00,52.259
912.00,52.234
913.00,52.198
914.00,52.209
915.00,52.155
916.00,52.106
917.00,52.114
918.00,52.080
919.00,52.045
920.00,52.008
921.00,52.025
922.00,52.034
923.00,51.985
924.00,51.979
925.00,51.948
926.00,51.963
927.00,51.897
928.00,51.888
929.00,51.897
930.00,51.841
931.00,51.834
932.00,51.848
933.00,51.832
934.00,51.806
935.00,51.762
936.00,51.742
937.00,51.735
938.00,51.728
939.00,51.699
940.00,51.668
941.00,51.660
942.00,51.645
943.00,51.626
944.00,51.586
945.00,51.585
946.00,51.611
947.00,51.553
948.00,51.479
949.00,51.539
950.00,51.491
951.00,51.446
952.00,51.423
953.00,51.401
954.00,51.373
955.00,51.326
956.00,51.338
957.00,51.295
958.00,51.303
959.00,51.248
960.00,51.245
961.00,51.239
962.00,51.223
963.00,51.173
964.00,51.189
965.00,51.165
966.00,51.158
967.00,51.152
968.00,51.115
969.00,51.159
970.00,51.129
971.00,51.140
972.00,51.074
973.00,51.141
974.00,51.158
975.00,51.115
976.00,51.126
977.00,51.209
978.00,51.143
979.00,51.088
980.00,51.113
981.00,51.119
982.00,51.088
983.00,51.110
984.00,51.098
985.00,51.122
986.00,51.061
987.00,51.076
988.00,51.058
989.00,51.049
990.00,51.031
991.00,51.029
992.00,51.032
993.00,50.987
994.00,50.981
995.00,50.960
996.00,50.956
997.00,50.939
998.00,50.916
999.00,50.941
1000.00,50.890
1001.00,50.883
1002.00,50.874
1003.00,50.859
1004.00,50.848
1005.00,50.797
1006.00,50.827
1007.00,50.794
1008.00,50.787
1009.00,50.743
1010.00,50.785
1011.00,50.758
1012.00,50.726
1013.00,50.745
1014.00,50.700
1015.00,50.713
1016.00,50.656
1017.00,50.653
1018.00,50.653
1019.00,50.615
1020.00,50.604
1021.00,50.585
1022.00,50.595
1023.00,50.529
1024.00,50.547
1025.00,50.554
1026.00,50.508
1027.00,50.501
1028.00,50.507
1029.00,50.500
1030.00,50.452
1031.00,50.471
1032.00,50.440
1033.00,50.432
1034.00,50.404
1035.00,50.372
1036.00,50.348
1037.00,50.331
1038.00,50.325
1039.00,50.295
1040.00,50.298
1041.00,50.276
1042.00,50.252
1043.00,50.230
1044.00,50.283
1045.00,50.239
1046.00,50.225
1047.00,50.239
1048.00,50.256
1049.00,50.256
1050.00,50.256
1051.00,50.298
1052.00,50.304
1053.00,50.291
1054.00,50.299
1055.00,50.333
1056.00,50.342
1057.00,50.332
1058.00,50.315
1059.00,50.312
1060.00,50.325
1061.00,50.292
1062.00,50.295
1063.00,50.300
1064.00,50.289
1065.00,50.288
1066.00,50.286
1067.00,50.272
1068.00,50.286
1069.00,50.248
1070.00,50.260
1071.00,50.255
1072.00,50.249
1073.00,50.213
1074.00,50.219
1075.00,50.200
1076.00,50.211
1077.00,50.193
1078.00,50.166
1079.00,50.179
1080.00,50.177
1081.00,50.174
1082.00,50.150
1083.00,50.166
1084.00,50.165
1085.00,50.166
1086.00,50.156
1087.00,50.143
1088.00,50.121
1089.00,50.109
1090.00,50.109
1091.00,50.106
1092.00,50.095
1093.00,50.076
1094.00,50.053
1095.00,50.052
1096.00,50.027
1097.00,50.018
1098.00,50.017
1099.00,50.008
1100.00,49.992
1101.00,49.991
1102.00,49.983
1103.00,49.988
1104.00,49.972
1105.00,49.960
1106.00,49.950
1107.00,49.955
1108.00,49.940
1109.00,49.954
1110.00,49.931
1111.00,49.915
1112.00,49.907
1113.00,49.899
1114.00,49.895
1115.00,49.891
1116.00,49.891
1117.00,49.880
1118.00,49.854
1119.00,49.835
1120.00,49.840
1121.00,49.848
1122.00,49.828
1123.00,49.832
1124.00,49.821
1125.00,49.817
1126.00,49.804
1127.00,49.814
1128.00,49.803
1129.00,49.780
1130.00,49.752
1131.00,49.770
1132.00,49.779
1133.00,49.771
1134.00,49.764
1135.00,49.763
1136.00,49.757
1137.00,49.763
1138.00,49.764
1139.00,49.774
1140.00,49.744
1141.00,49.739
1142.00,49.744
1143.00,49.756
1144.00,49.713
1145.00,49.713
1146.00,49.723
1147.00,49.719
1148.00,49.739
1149.00,49.787
1150.00,49.756
1151.00,49.733
1152.00,49.714
1153.00,49.733
1154.00,49.702
1155.00,49.715
1156.00,49.719
1157.00,49.715
1158.00,49.705
1159.00,49.704
1160.00,49.703
1161.00,49.715
1162.00,49.691
1163.00,49.694
1164.00,49.697
1165.00,49.700
1166.00,49.709
1167.00,49.676
1168.00,49.696
1169.00,49.677
1170.00,49.672
1171.00,49.654
1172.00,49.667
1173.00,49.653
1174.00,49.659
1175.00,49.662
1176.00,49.661
1177.00,49.642
1178.00,49.650
1179.00,49.674
1180.00,49.671
1181.00,49.674
1182.00,49.656
1183.00,49.659
1184.00,49.649
1185.00,49.668
1186.00,49.679
1187.00,49.673
1188.00,49.669
1189.00,49.664
1190.00,49.654
1191.00,49.637
1192.00,49.662
1193.00,49.657
1194.00,49.673
1195.00,49.639
1196.00,49.657
1197.00,49.661
1198.00,49.655
1199.00,49.668
1200.00,49.678
1201.00,49.686
1202.00,49.651
1203.00,49.650
1204.00,49.658
1205.00,49.666
1206.00,49.644
1207.00,49.657
1208.00,49.642
1209.00,49.646
1210.00,49.642
1211.00,49.641
1212.00,49.667
1213.00,49.639
1214.00,49.661
1215.00,49.649
1216.00,49.660
1217.00,49.655
1218.00,49.631
1219.00,49.679
1220.00,49.657
1221.00,49.670
1222.00,49.673
1223.00,49.693
1224.00,49.686
1225.00,49.657
1226.00,49.671
1227.00,49.678
1228.00,49.704
1229.00,49.679
1230.00,49.718
1231.00,49.705
1232.00,49.729
1233.00,49.735
1234.00,49.730
1235.00,49.729
1236.00,49.728
1237.00,49.739
1238.00,49.733
1239.00,49.739
1240.00,49.724
1241.00,49.755
1242.00,49.747
1243.00,49.753
1244.00,49.739
1245.00,49.774
1246.00,49.777
1247.00,49.760
1248.00,49.758
1249.00,49.769
1250.00,49.784
1251.00,49.768
1252.00,49.789
1253.00,49.775
1254.00,49.798
1255.00,49.789
1256.00,49.750
1257.00,49.779
1258.00,49.812
1259.00,49.816
1260.00,49.826
1261.00,49.826
1262.00,49.795
1263.00,49.807
1264.00,49.818
1265.00,49.831
1266.00,49.830
1267.00,49.848
1268.00,49.856
1269.00,49.864
1270.00,49.873
1271.00,49.885
1272.00,49.892
1273.00,49.889
1274.00,49.893
1275.00,49.909
1276.00,49.904
1277.00,49.909
1278.00,49.927
1279.00,49.935
1280.00,49.918
1281.00,49.936
1282.00,49.954
1283.00,49.949
1284.00,49.934
1285.00,49.949
1286.00,49.969
1287.00,49.958
1288.00,49.965
1289.00,49.957
1290.00,50.008
1291.00,49.982
1292.00,49.982
1293.00,49.994
1294.00,50.013
1295.00,50.010
1296.00,50.028
1297.00,50.019
1298.00,50.045
1299.00,50.019
1300.00,50.045
1301.00,50.033
1302.00,50.067
1303.00,50.077
1304.00,50.100
1305.00,50.102
1306.00,50.092
1307.00,50.116
1308.00,50.115
1309.00,50.126
1310.00,50.122
1311.00,50.111
1312.00,50.122
1313.00,50.129
1314.00,50.144
1315.00,50.163
1316.00,50.163
1317.00,50.185
1318.00,50.204
1319.00,50.205
1320.00,50.192
1321.00,50.379
1322.00,50.366
1323.00,50.351
1324.00,50.335
1325.00,50.340
1326.00,50.362
1327.00,50.345
1328.00,50.359
1329.00,50.355
1330.00,50.357
1331.00,50.366
1332.00,50.411
1333.00,50.342
1334.00,50.416
1335.00,50.420
1336.00,50.456
1337.00,50.477
1338.00,50.535
1339.00,50.581
1340.00,50.649
1341.00,50.692
1342.00,50.755
1343.00,50.806
1344.00,50.839
1345.00,50.908
1346.00,50.967
1347.00,50.968
1348.00,51.000
1349.00,51.024
1350.00,51.054
1351.00,51.066
1352.00,51.059
1353.00,51.066
1354.00,51.098
1355.00,51.055
1356.00,51.129
1357.00,51.116
1358.00,51.150
1359.00,51.138
1360.00,51.073
1361.00,51.187
1362.00,51.112
1363.00,51.453
1364.00,51.288
1365.00,51.157
1366.00,51.241
1367.00,51.154
1368.00,51.084
1369.00,51.130
1370.00,51.141
1371.00,51.085
1372.00,51.143
1373.00,51.182
1374.00,51.192
1375.00,51.166
1376.00,51.174
1377.00,51.157
1378.00,51.264
1379.00,51.203
1380.00,51.196
1381.00,51.185
1382.00,51.104
1383.00,51.190
1384.00,51.134
1385.00,51.149
1386.00,51.181
1387.00,51.117
1388.00,51.132
1389.00,51.229
1390.00,51.186
1391.00,51.142
1392.00,51.115
1393.00,51.180
1394.00,51.152
1395.00,51.152
1396.00,51.102
1397.00,51.227
1398.00,51.181
1399.00,51.159
1400.00,50.905
1401.00,51.148
1402.00,51.240
1403.00,51.201
1404.00,51.192
1405.00,51.217
1406.00,51.260
1407.00,51.230
1408.00,51.254
1409.00,51.313
1410.00,51.268
1411.00,51.221
1412.00,51.325
1413.00,51.273
1414.00,51.225
1415.00,51.278
1416.00,51.302
1417.00,51.356
1418.00,51.306
1419.00,51.343
1420.00,51.374
1421.00,51.414
1422.00,51.414
1423.00,51.424
1424.00,51.440
1425.00,51.476
1426.00,51.452
1427.00,51.483
1428.00,51.488
1429.00,51.509
1430.00,51.525
1431.00,51.576
1432.00,51.588
1433.00,51.582
1434.00,51.588
1435.00,51.661
1436.00,51.648
1437.00,51.634
1438.00,51.668
1439.00,51.698
1440.00,51.692
1441.00,51.702
1442.00,51.729
1443.00,51.743
1444.00,51.820
1445.00,51.745
1446.00,51.777
1447.00,51.812
1448.00,51.878
1449.00,51.878
1450.00,51.880
1451.00,51.899
1452.00,51.937
1453.00,51.931
1454.00,51.967
1455.00,51.982
1456.00,52.000
1457.00,52.004
1458.00,52.030
1459.00,52.044
1460.00,52.067
1461.00,52.070
1462.00,52.100
1463.00,52.100
1464.00,52.123
1465.00,52.131
1466.00,52.130
1467.00,52.151
1468.00,52.231
1469.00,52.208
1470.00,52.256
1471.00,52.289
1472.00,52.257
1473.00,52.260
1474.00,52.293
1475.00,52.317
1476.00,52.339
1477.00,52.320
1478.00,52.365
1479.00,52.385
1480.00,52.368
1481.00,52.374
1482.00,52.420
1483.00,52.458
1484.00,52.476
1485.00,52.445
1486.00,52.489
1487.00,52.506
1488.00,52.534
1489.00,52.514
1490.00,52.531
1491.00,52.526
1492.00,52.543
1493.00,52.524
1494.00,52.593
1495.00,52.575
1496.00,52.595
1497.00,52.576
1498.00,52.622
1499.00,52.622
1500.00,52.636
1501.00, 
1502.00, 
1503.00, 
1504.00, 
1505.00, 
1506.00, 
1507.00, 
1508.00, 
1509.00, 
1510.00, 
1511.00, 
1512.00, 
1513.00, 
1514.00, 
1515.00, 
1516.00, 
1517.00, 
1518.00, 
1519.00, 
1520.00, 
1521.00, 
1522.00, 
1523.00, 
1524.00, 
1525.00, 
1526.00, 
1527.00, 
1528.00, 
1529.00, 
1530.00, 
1531.00, 
1532.00, 
1533.00, 
1534.00, 
1535.00, 
1536.00, 
1537.00, 
1538.00, 
1539.00, 
1540.00, 
1541.00, 
1542.00, 
1543.00, 
1544.00, 
1545.00, 
1546.00, 
1547.00, 
1548.00, 
1549.00, 
1550.00, 
1551.00, 
1552.00, 
1553.00, 
1554.00, 
1555.00, 
1556.00, 
1557.00, 
1558.00, 
1559.00, 
1560.00, 
1561.00, 
1562.00, 
1563.00, 
1564.00, 
1565.00, 
1566.00, 
1567.00, 
1568.00, 
1569.00, 
1570.00, 
1571.00, 
1572.00, 
1573.00, 
1574.00, 
1575.00, 
1576.00, 
1577.00, 
1578.00, 
1579.00, 
1580.00, 
1581.00, 
1582.00, 
1583.00, 
1584.00, 
1585.00, 
1586.00, 
1587.00, 
1588.00, 
1589.00, 
1590.00, 
1591.00, 
1592.00, 
1593.00, 
1594.00, 
1595.00, 
1596.00, 
1597.00, 
1598.00, 
1599.00, 
1600.00, 
1601.00, 
1602.00, 
1603.00, 
1604.00, 
1605.00, 
1606.00, 
1607.00, 
1608.00, 
1609.00, 
1610.00, 
1611.00, 
1612.00, 
1613.00, 
1614.00, 
1615.00, 
1616.00, 
1617.00, 
1618.00, 
1619.00, 
1620.00, 
1621.00, 
1622.00, 
1623.00, 
1624.00, 
1625.00, 
1626.00, 
1627.00, 
1628.00, 
1629.00, 
1630.00, 
1631.00, 
1632.00, 
1633.00, 
1634.00, 
1635.00, 
1636.00, 
1637.00, 
1638.00, 
1639.00, 
1640.00, 
1641.00, 
1642.00, 
1643.00, 
1644.00, 
1645.00, 
1646.00, 
1647.00, 
1648.00, 
1649.00, 
1650.00, 
1651.00, 
1652.00, 
1653.00, 
1654.00, 
1655.00, 
1656.00, 
1657.00, 
1658.00, 
1659.00, 
1660.00, 
1661.00, 
1662.00, 
1663.00, 
1664.00, 
1665.00, 
1666.00, 
1667.00, 
1668.00, 
1669.00, 
1670.00, 
1671.00, 
1672.00, 
1673.00, 
1674.00, 
1675.00, 
1676.00, 
1677.00, 
1678.00, 
1679.00, 
1680.00, 
1681.00, 
1682.00, 
1683.00, 
1684.00, 
1685.00, 
1686.00, 
1687.00, 
1688.00, 
1689.00, 
1690.00, 
1691.00, 
1692.00, 
1693.00, 
1694.00, 
1695.00, 
1696.00, 
1697.00, 
1698.00, 
1699.00, 
1700.00, 
1701.00, 
1702.00, 
1703.00, 
1704.00, 
1705.00, 
1706.00, 
1707.00, 
1708.00, 
1709.00, 
1710.00, 
1711.00, 
1712.00, 
1713.00, 
1714.00, 
1715.00, 
1716.00, 
1717.00, 
1718.00, 
1719.00, 
1720.00, 
1721.00, 
1722.00, 
1723.00, 
1724.00, 
1725.00, 
1726.00, 
1727.00, 
1728.00, 
1729.00, 
1730.00, 
1731.00, 
1732.00, 
1733.00, 
1734.00, 
1735.00, 
1736.00, 
1737.00, 
1738.00, 
1739.00, 
1740.00, 
1741.00, 
1742.00, 
1743.00, 
1744.00, 
1745.00, 
1746.00, 
1747.00, 
1748.00, 
1749.00, 
1750.00, 
1751.00, 
1752.00, 
1753.00, 
1754.00, 
1755.00, 
1756.00, 
1757.00, 
1758.00, 
1759.00, 
1760.00, 
1761.00, 
1762.00, 
1763.00, 
1764.00, 
1765.00, 
1766.00, 
1767.00, 
1768.00, 
1769.00, 
1770.00, 
1771.00, 
1772.00, 
1773.00, 
1774.00, 
1775.00, 
1776.00, 
1777.00, 
1778.00, 
1779.00, 
1780.00, 
1781.00, 
1782.00, 
1783.00, 
1784.00, 
1785.00, 
1786.00, 
1787.00, 
1788.00, 
1789.00, 
1790.00, 
1791.00, 
1792.00, 
1793.00, 
1794.00, 
1795.00, 
1796.00, 
1797.00, 
1798.00, 
1799.00, 
1800.00, 
1801.00, 
1802.00, 
1803.00, 
1804.00, 
1805.00, 
1806.00, 
1807.00, 
1808.00, 
1809.00, 
1810.00, 
1811.00, 
1812.00, 
1813.00, 
1814.00, 
1815.00, 
1816.00, 
1817.00, 
1818.00, 
1819.00, 
1820.00, 
1821.00, 
1822.00, 
1823.00, 
1824.00, 
1825.00, 
1826.00, 
1827.00, 
1828.00, 
1829.00, 
1830.00, 
1831.00, 
1832.00, 
1833.00, 
1834.00, 
1835.00, 
1836.00, 
1837.00, 
1838.00, 
1839.00, 
1840.00, 
1841.00, 
1842.00, 
1843.00, 
1844.00, 
1845.00, 
1846.00, 
1847.00, 
1848.00, 
1849.00, 
1850.00, 
1851.00, 
1852.00, 
1853.00, 
1854.00, 
1855.00, 
1856.00, 
1857.00, 
1858.00, 
1859.00, 
1860.00, 
1861.00, 
1862.00, 
1863.00, 
1864.00, 
1865.00, 
1866.00, 
1867.00, 
1868.00, 
1869.00, 
1870.00, 
1871.00, 
1872.00, 
1873.00, 
1874.00, 
1875.00, 
1876.00, 
1877.00, 
1878.00, 
1879.00, 
1880.00, 
1881.00, 
1882.00, 
1883.00, 
1884.00, 
1885.00, 
1886.00, 
1887.00, 
1888.00, 
1889.00, 
1890.00, 
1891.00, 
1892.00, 
1893.00, 
1894.00, 
1895.00, 
1896.00, 
1897.00, 
1898.00, 
1899.00, 
1900.00, 
1901.00, 
1902.00, 
1903.00, 
1904.00, 
1905.00, 
1906.00, 
1907.00, 
1908.00, 
1909.00, 
1910.00, 
1911.00, 
1912.00, 
1913.00, 
1914.00, 
1915.00, 
1916.00, 
1917.00, 
1918.00, 
1919.00, 
1920.00, 
1921.00, 
1922.00, 
1923.00, 
1924.00, 
1925.00, 
1926.00, 
1927.00, 
1928.00, 
1929.00, 
1930.00, 
1931.00, 
1932.00, 
1933.00, 
1934.00, 
1935.00, 
1936.00, 
1937.00, 
1938.00, 
1939.00, 
1940.00, 
1941.00, 
1942.00, 
1943.00, 
1944.00, 
1945.00, 
1946.00, 
1947.00, 
1948.00, 
1949.00, 
1950.00, 
1951.00, 
1952.00, 
1953.00, 
1954.00, 
1955.00, 
1956.00, 
1957.00, 
1958.00, 
1959.00, 
1960.00, 
1961.00, 
1962.00, 
1963.00, 
1964.00, 
1965.00, 
1966.00, 
1967.00, 
1968.00, 
1969.00, 
1970.00, 
1971.00, 
1972.00, 
1973.00, 
1974.00, 
1975.00, 
1976.00, 
1977.00, 
1978.00, 
1979.00, 
1980.00, 
1981.00, 
1982.00, 
1983.00, 
1984.00, 
1985.00, 
1986.00, 
1987.00, 
1988.00, 
1989.00, 
1990.00, 
1991.00, 
1992.00, 
1993.00, 
1994.00, 
1995.00, 
1996.00, 
1997.00, 
1998.00, 
1999.00, 
2000.00, 
2001.00, 
2002.00, 
2003.00, 
2004.00, 
2005.00, 
2006.00, 
2007.00, 
2008.00, 
2009.00, 
2010.00, 
2011.00, 
2012.00, 
2013.00, 
2014.00, 
2015.00, 
2016.00, 
2017.00, 
2018.00, 
2019.00, 
2020.00, 
2021.00, 
2022.00, 
2023.00, 
2024.00, 
2025.00, 
2026.00, 
2027.00, 
2028.00, 
2029.00, 
2030.00, 
2031.00, 
2032.00, 
2033.00, 
2034.00, 
2035.00, 
2036.00, 
2037.00, 
2038.00, 
2039.00, 
2040.00, 
2041.00, 
2042.00, 
2043.00, 
2044.00, 
2045.00, 
2046.00, 
2047.00, 
2048.00, 
2049.00, 
2050.00, 
2051.00, 
2052.00, 
2053.00, 
2054.00, 
2055.00, 
2056.00, 
2057.00, 
2058.00, 
2059.00, 
2060.00, 
2061.00, 
2062.00, 
2063.00, 
2064.00, 
2065.00, 
2066.00, 
2067.00, 
2068.00, 
2069.00, 
2070.00, 
2071.00, 
2072.00, 
2073.00, 
2074.00, 
2075.00, 
2076.00, 
2077.00, 
2078.00, 
2079.00, 
2080.00, 
2081.00, 
2082.00, 
2083.00, 
2084.00, 
2085.00, 
2086.00, 
2087.00, 
2088.00, 
2089.00, 
2090.00, 
2091.00, 
2092.00, 
2093.00, 
2094.00, 
2095.00, 
2096.00, 
2097.00, 
2098.00, 
2099.00, 
2100.00, 
2101.00, 
2102.00, 
2103.00, 
2104.00, 
2105.00, 
2106.00, 
2107.00, 
2108.00, 
2109.00, 
2110.00, 
2111.00, 
2112.00, 
2113.00, 
2114.00, 
2115.00, 
2116.00, 
2117.00, 
2118.00, 
2119.00, 
2120.00, 
2121.00, 
2122.00, 
2123.00, 
2124.00, 
2125.00, 
2126.00, 
2127.00, 
2128.00, 
2129.00, 
2130.00, 
2131.00, 
2132.00, 
2133.00, 
2134.00, 
2135.00, 
2136.00, 
2137.00, 
2138.00, 
2139.00, 
2140.00, 
2141.00, 
2142.00, 
2143.00, 
2144.00, 
2145.00, 
2146.00, 
2147.00, 
2148.00, 
2149.00, 
2150.00, 
2151.00, 
2152.00, 
2153.00, 
2154.00, 
2155.00, 
2156.00, 
2157.00, 
2158.00, 
2159.00, 
2160.00, 
2161.00, 
2162.00, 
2163.00, 
2164.00, 
2165.00, 
2166.00, 
2167.00, 
2168.00, 
2169.00, 
2170.00, 
2171.00, 
2172.00, 
2173.00, 
2174.00, 
2175.00, 
2176.00, 
2177.00, 
2178.00, 
2179.00, 
2180.00, 
2181.00, 
2182.00, 
2183.00, 
2184.00, 
2185.00, 
2186.00, 
2187.00, 
2188.00, 
2189.00, 
2190.00, 
2191.00, 
2192.00, 
2193.00, 
2194.00, 
2195.00, 
2196.00, 
2197.00, 
2198.00, 
2199.00, 
2200.00, 
2201.00, 
2202.00, 
2203.00, 
2204.00, 
2205.00, 
2206.00, 
2207.00, 
2208.00, 
2209.00, 
2210.00, 
2211.00, 
2212.00, 
2213.00, 
2214.00, 
2215.00, 
2216.00, 
2217.00, 
2218.00, 
2219.00, 
2220.00, 
2221.00, 
2222.00, 
2223.00, 
2224.00, 
2225.00, 
2226.00, 
2227.00, 
2228.00, 
2229.00, 
2230.00, 
2231.00, 
2232.00, 
2233.00, 
2234.00, 
2235.00, 
2236.00, 
2237.00, 
2238.00, 
2239.00, 
2240.00, 
2241.00, 
2242.00, 
2243.00, 
2244.00, 
2245.00, 
2246.00, 
2247.00, 
2248.00, 
2249.00, 
2250.00, 
2251.00, 
2252.00, 
2253.00, 
2254.00, 
2255.00, 
2256.00, 
2257.00, 
2258.00, 
2259.00, 
2260.00, 
2261.00, 
2262.00, 
2263.00, 
2264.00, 
2265.00, 
2266.00, 
2267.00, 
2268.00, 
2269.00, 
2270.00, 
2271.00, 
2272.00, 
2273.00, 
2274.00, 
2275.00, 
2276.00, 
2277.00, 
2278.00, 
2279.00, 
2280.00, 
2281.00, 
2282.00, 
2283.00, 
2284.00, 
2285.00, 
2286.00, 
2287.00, 
2288.00, 
2289.00, 
2290.00, 
2291.00, 
2292.00, 
2293.00, 
2294.00, 
2295.00, 
2296.00, 
2297.00, 
2298.00, 
2299.00, 
2300.00, 
2301.00, 
2302.00, 
2303.00, 
2304.00, 
2305.00, 
2306.00, 
2307.00, 
2308.00, 
2309.00, 
2310.00, 
2311.00, 
2312.00, 
2313.00, 
2314.00, 
2315.00, 
2316.00, 
2317.00, 
2318.00, 
2319.00, 
2320.00, 
2321.00, 
2322.00, 
2323.00, 
2324.00, 
2325.00, 
2326.00, 
2327.00, 
2328.00, 
2329.00, 
2330.00, 
2331.00, 
2332.00, 
2333.00, 
2334.00, 
2335.00, 
2336.00, 
2337.00, 
2338.00, 
2339.00, 
2340.00, 
2341.00, 
2342.00, 
2343.00, 
2344.00, 
2345.00, 
2346.00, 
2347.00, 
2348.00, 
2349.00, 
2350.00, 
2351.00, 
2352.00, 
2353.00, 
2354.00, 
2355.00, 
2356.00, 
2357.00, 
2358.00, 
2359.00, 
2360.00, 
2361.00, 
2362.00, 
2363.00, 
2364.00, 
2365.00, 
2366.00, 
2367.00, 
2368.00, 
2369.00, 
2370.00, 
2371.00, 
2372.00, 
2373.00, 
2374.00, 
2375.00, 
2376.00, 
2377.00, 
2378.00, 
2379.00, 
2380.00, 
2381.00, 
2382.00, 
2383.00, 
2384.00, 
2385.00, 
2386.00, 
2387.00, 
2388.00, 
2389.00, 
2390.00, 
2391.00, 
2392.00, 
2393.00, 
2394.00, 
2395.00, 
2396.00, 
2397.00, 
2398.00, 
2399.00, 
2400.00, 
2401.00, 
2402.00, 
2403.00, 
2404.00, 
2405.00, 
2406.00, 
2407.00, 
2408.00, 
2409.00, 
2410.00, 
2411.00, 
2412.00, 
2413.00, 
2414.00, 
2415.00, 
2416.00, 
2417.00, 
2418.00, 
2419.00, 
2420.00, 
2421.00, 
2422.00, 
2423.00, 
2424.00, 
2425.00, 
2426.00, 
2427.00, 
2428.00, 
2429.00, 
2430.00, 
2431.00, 
2432.00, 
2433.00, 
2434.00, 
2435.00, 
2436.00, 
2437.00, 
2438.00, 
2439.00, 
2440.00, 
2441.00, 
2442.00, 
2443.00, 
2444.00, 
2445.00, 
2446.00, 
2447.00, 
2448.00, 
2449.00, 
2450.00, 
2451.00, 
2452.00, 
2453.00, 
2454.00, 
2455.00, 
2456.00, 
2457.00, 
2458.00, 
2459.00, 
2460.00, 
2461.00, 
2462.00, 
2463.00, 
2464.00, 
2465.00, 
2466.00, 
2467.00, 
2468.00, 
2469.00, 
2470.00, 
2471.00, 
2472.00, 
2473.00, 
2474.00, 
2475.00, 
2476.00, 
2477.00, 
2478.00, 
2479.00, 
2480.00, 
2481.00, 
2482.00, 
2483.00, 
2484.00, 
2485.00, 
2486.00, 
2487.00, 
2488.00, 
2489.00, 
2490.00, 
2491.00, 
2492.00, 
2493.00, 
2494.00, 
2495.00, 
2496.00, 
2497.00, 
2498.00, 
2499.00, 
2500.00, 
2501.00, 
2502.00, 
2503.00, 
2504.00, 
2505.00, 
2506.00, 
2507.00, 
2508.00, 
2509.00, 
2510.00, 
2511.00, 
2512.00, 
2513.00, 
2514.00, 
2515.00, 
2516.00, 
2517.00, 
2518.00, 
2519.00, 
2520.00, 
2521.00, 
2522.00, 
2523.00, 
2524.00, 
2525.00, 
2526.00, 
2527.00, 
2528.00, 
2529.00, 
2530.00, 
2531.00, 
2532.00, 
2533.00, 
2534.00, 
2535.00, 
2536.00, 
2537.00, 
2538.00, 
2539.00, 
2540.00, 
2541.00, 
2542.00, 
2543.00, 
2544.00, 
2545.00, 
2546.00, 
2547.00, 
2548.00, 
2549.00, 
2550.00, 
2551.00, 
2552.00, 
2553.00, 
2554.00, 
2555.00, 
2556.00, 
2557.00, 
2558.00, 
2559.00, 
2560.00, 
2561.00, 
2562.00, 
2563.00, 
2564.00, 
2565.00, 
2566.00, 
2567.00, 
2568.00, 
2569.00, 
2570.00, 
2571.00, 
2572.00, 
2573.00, 
2574.00, 
2575.00, 
2576.00, 
2577.00, 
2578.00, 
2579.00, 
2580.00, 
2581.00, 
2582.00, 
2583.00, 
2584.00, 
2585.00, 
2586.00, 
2587.00, 
2588.00, 
2589.00, 
2590.00, 
2591.00, 
2592.00, 
2593.00, 
2594.00, 
2595.00, 
2596.00, 
2597.00, 
2598.00, 
2599.00, 
2600.00, 
